Data from USB4F104151__36__14-42-52-944.txt Node

Date: Thu Mar 13 14:42:52 EDT 2025
User: louis
Spectrometer: USB4F10415
Trigger mode: 4
Integration Time (sec): 2.000000E-2
Scans to average: 1
Electric dark correction enabled: true
Nonlinearity correction enabled: false
Boxcar width: 0
XAxis mode: Wavelengths
Number of Pixels in Spectrum: 3648
>>>>>Begin Spectral Data<<<<<
178.204	-139.6
178.424	-139.6
178.644	-139.6
178.864	-92.5
179.084	-49.49
179.304	3.75
179.524	48.81
179.744	13.99
179.964	28.33
180.184	-2.39
180.404	-45.4
180.624	-0.34
180.844	-2.39
181.064	-20.82
181.283	3.75
181.503	-14.68
181.723	-12.63
181.943	5.8
182.163	61.1
182.383	7.85
182.602	22.19
182.822	38.57
183.042	87.72
183.262	5.8
183.482	89.77
183.701	3.75
183.921	-45.4
184.141	30.38
184.361	110.25
184.58	32.43
184.8	69.29
185.02	32.43
185.239	20.14
185.459	16.04
185.679	126.63
185.898	26.28
186.118	97.96
186.338	61.1
186.557	97.96
186.777	22.19
186.997	-16.73
187.216	26.28
187.436	110.25
187.655	52.91
187.875	69.29
188.095	20.14
188.314	59.05
188.534	59.05
188.753	110.25
188.973	61.1
189.192	159.4
189.412	67.24
189.631	-12.63
189.851	16.04
190.07	71.34
190.29	16.04
190.509	-0.34
190.729	46.76
190.948	112.3
191.168	128.68
191.387	77.48
191.607	24.23
191.826	79.53
192.045	61.1
192.265	106.15
192.484	7.85
192.704	34.47
192.923	22.19
193.142	95.91
193.362	32.43
193.581	11.95
193.8	112.3
194.02	120.49
194.239	16.04
194.458	110.25
194.678	54.95
194.897	42.67
195.116	-41.3
195.335	36.52
195.555	13.99
195.774	136.87
195.993	38.57
196.212	77.48
196.432	-53.59
196.651	87.72
196.87	28.33
197.089	136.87
197.308	36.52
197.528	26.28
197.747	3.75
197.966	44.71
198.185	100.01
198.404	3.75
198.623	75.43
198.842	-12.63
199.062	36.52
199.281	116.39
199.5	7.85
199.719	112.3
199.938	110.25
200.157	44.71
200.376	-10.58
200.595	87.72
200.814	100.01
201.033	44.71
201.252	32.43
201.471	-2.39
201.69	-49.49
201.909	28.33
202.128	100.01
202.347	77.48
202.566	79.53
202.785	38.57
203.004	32.43
203.223	167.59
203.442	52.91
203.661	-6.49
203.879	44.71
204.098	-8.53
204.317	-12.63
204.536	40.62
204.755	28.33
204.974	40.62
205.193	-4.44
205.411	95.91
205.63	54.95
205.849	93.87
206.068	46.76
206.287	52.91
206.505	48.81
206.724	11.95
206.943	-10.58
207.162	102.06
207.381	93.87
207.599	40.62
207.818	38.57
208.037	13.99
208.255	36.52
208.474	57
208.693	30.38
208.911	-16.73
209.13	-24.92
209.349	42.67
209.567	63.15
209.786	59.05
210.005	-0.34
210.223	24.23
210.442	81.58
210.661	-43.35
210.879	52.91
211.098	65.19
211.316	44.71
211.535	54.95
211.753	136.87
211.972	81.58
212.191	118.44
212.409	108.2
212.628	48.81
212.846	11.95
213.065	40.62
213.283	87.72
213.502	20.14
213.72	38.57
213.938	63.15
214.157	65.19
214.375	36.52
214.594	-10.58
214.812	73.39
215.031	40.62
215.249	24.23
215.467	-0.34
215.686	-20.82
215.904	122.54
216.122	34.47
216.341	46.76
216.559	63.15
216.778	67.24
216.996	136.87
217.214	65.19
217.432	48.81
217.651	-10.58
217.869	63.15
218.087	28.33
218.306	-37.2
218.524	54.95
218.742	30.38
218.96	136.87
219.179	-12.63
219.397	1.71
219.615	52.91
219.833	87.72
220.051	11.95
220.27	102.06
220.488	36.52
220.706	16.04
220.924	54.95
221.142	52.91
221.36	108.2
221.578	83.63
221.796	52.91
222.015	34.47
222.233	52.91
222.451	32.43
222.669	63.15
222.887	61.1
223.105	-45.4
223.323	-4.44
223.541	-6.49
223.759	24.23
223.977	81.58
224.195	136.87
224.413	73.39
224.631	63.15
224.849	-49.49
225.067	118.44
225.285	9.9
225.503	122.54
225.721	22.19
225.939	16.04
226.157	79.53
226.375	69.29
226.592	85.67
226.81	100.01
227.028	61.1
227.246	85.67
227.464	114.34
227.682	79.53
227.9	81.58
228.117	-2.39
228.335	85.67
228.553	87.72
228.771	26.28
228.989	26.28
229.206	79.53
229.424	20.14
229.642	93.87
229.86	69.29
230.077	122.54
230.295	81.58
230.513	91.82
230.731	40.62
230.948	61.1
231.166	63.15
231.384	9.9
231.601	65.19
231.819	102.06
232.037	95.91
232.254	69.29
232.472	89.77
232.689	-8.53
232.907	32.43
233.125	38.57
233.342	54.95
233.56	44.71
233.777	24.23
233.995	102.06
234.213	71.34
234.43	81.58
234.648	-98.64
234.865	73.39
235.083	85.67
235.3	59.05
235.518	57
235.735	20.14
235.953	24.23
236.17	24.23
236.388	110.25
236.605	34.47
236.822	102.06
237.04	85.67
237.257	46.76
237.475	61.1
237.692	54.95
237.909	69.29
238.127	63.15
238.344	122.54
238.562	30.38
238.779	5.8
238.996	95.91
239.214	52.91
239.431	61.1
239.648	44.71
239.865	36.52
240.083	71.34
240.3	20.14
240.517	52.91
240.735	3.75
240.952	69.29
241.169	22.19
241.386	100.01
241.603	-2.39
241.821	28.33
242.038	93.87
242.255	75.43
242.472	93.87
242.689	147.11
242.907	59.05
243.124	18.09
243.341	77.48
243.558	32.43
243.775	5.8
243.992	30.38
244.209	102.06
244.426	48.81
244.643	69.29
244.86	-4.44
245.078	26.28
245.295	44.71
245.512	40.62
245.729	44.71
245.946	71.34
246.163	63.15
246.38	87.72
246.597	20.14
246.814	36.52
247.031	65.19
247.248	110.25
247.464	65.19
247.681	22.19
247.898	5.8
248.115	126.63
248.332	91.82
248.549	85.67
248.766	81.58
248.983	126.63
249.2	87.72
249.417	46.76
249.633	77.48
249.85	40.62
250.067	52.91
250.284	30.38
250.501	118.44
250.717	79.53
250.934	-29.01
251.151	54.95
251.368	48.81
251.585	79.53
251.801	-43.35
252.018	44.71
252.235	100.01
252.451	11.95
252.668	13.99
252.885	52.91
253.102	69.29
253.318	114.34
253.535	44.71
253.752	65.19
253.968	54.95
254.185	59.05
254.401	44.71
254.618	126.63
254.835	63.15
255.051	126.63
255.268	42.67
255.484	77.48
255.701	36.52
255.917	112.3
256.134	57
256.351	71.34
256.567	63.15
256.784	112.3
257	81.58
257.217	81.58
257.433	-41.3
257.65	87.72
257.866	81.58
258.082	20.14
258.299	91.82
258.515	89.77
258.732	71.34
258.948	54.95
259.165	20.14
259.381	77.48
259.597	106.15
259.814	22.19
260.03	52.91
260.246	54.95
260.463	57
260.679	54.95
260.895	85.67
261.112	59.05
261.328	83.63
261.544	52.91
261.761	116.39
261.977	24.23
262.193	3.75
262.409	52.91
262.626	69.29
262.842	40.62
263.058	52.91
263.274	143.02
263.49	13.99
263.707	87.72
263.923	42.67
264.139	22.19
264.355	54.95
264.571	63.15
264.787	-14.68
265.004	77.48
265.22	3.75
265.436	22.19
265.652	54.95
265.868	36.52
266.084	7.85
266.3	-43.35
266.516	63.15
266.732	-29.01
266.948	28.33
267.164	77.48
267.38	118.44
267.596	28.33
267.812	40.62
268.028	46.76
268.244	48.81
268.46	61.1
268.676	59.05
268.892	118.44
269.108	48.81
269.324	40.62
269.54	-20.82
269.756	36.52
269.972	20.14
270.188	89.77
270.403	32.43
270.619	57
270.835	-4.44
271.051	126.63
271.267	28.33
271.483	44.71
271.698	112.3
271.914	59.05
272.13	50.86
272.346	-26.96
272.562	22.19
272.777	30.38
272.993	30.38
273.209	1.71
273.425	69.29
273.64	-24.92
273.856	54.95
274.072	71.34
274.287	61.1
274.503	30.38
274.719	28.33
274.934	65.19
275.15	-94.55
275.366	65.19
275.581	63.15
275.797	44.71
276.012	11.95
276.228	36.52
276.444	63.15
276.659	13.99
276.875	-6.49
277.09	-12.63
277.306	71.34
277.521	42.67
277.737	-4.44
277.952	48.81
278.168	20.14
278.383	52.91
278.599	67.24
278.814	112.3
279.03	93.87
279.245	102.06
279.461	102.06
279.676	106.15
279.892	69.29
280.107	16.04
280.322	120.49
280.538	30.38
280.753	114.34
280.969	36.52
281.184	57
281.399	130.73
281.615	-8.53
281.83	93.87
282.045	57
282.26	36.52
282.476	97.96
282.691	112.3
282.906	20.14
283.122	77.48
283.337	18.09
283.552	11.95
283.767	63.15
283.983	102.06
284.198	3.75
284.413	143.02
284.628	-37.2
284.843	36.52
285.058	44.71
285.274	24.23
285.489	-14.68
285.704	71.34
285.919	7.85
286.134	42.67
286.349	85.67
286.564	-4.44
286.779	87.72
286.995	93.87
287.21	81.58
287.425	69.29
287.64	-18.77
287.855	67.24
288.07	40.62
288.285	124.58
288.5	40.62
288.715	79.53
288.93	46.76
289.145	-4.44
289.36	95.91
289.575	48.81
289.79	42.67
290.004	106.15
290.219	57
290.434	36.52
290.649	32.43
290.864	87.72
291.079	5.8
291.294	52.91
291.509	81.58
291.724	22.19
291.938	46.76
292.153	63.15
292.368	36.52
292.583	11.95
292.798	73.39
293.012	22.19
293.227	-31.06
293.442	-45.4
293.657	30.38
293.871	85.67
294.086	69.29
294.301	77.48
294.516	69.29
294.73	40.62
294.945	38.57
295.16	-4.44
295.374	61.1
295.589	77.48
295.804	22.19
296.018	3.75
296.233	95.91
296.447	61.1
296.662	13.99
296.877	114.34
297.091	28.33
297.306	95.91
297.52	69.29
297.735	-16.73
297.949	30.38
298.164	48.81
298.378	81.58
298.593	-2.39
298.807	52.91
299.022	97.96
299.236	93.87
299.451	102.06
299.665	30.38
299.88	81.58
300.094	44.71
300.309	3.75
300.523	71.34
300.737	77.48
300.952	69.29
301.166	163.5
301.381	81.58
301.595	71.34
301.809	97.96
302.024	44.71
302.238	-4.44
302.452	81.58
302.667	3.75
302.881	114.34
303.095	48.81
303.309	77.48
303.524	-72.02
303.738	-4.44
303.952	26.28
304.166	40.62
304.381	44.71
304.595	110.25
304.809	104.11
305.023	46.76
305.237	-65.88
305.452	112.3
305.666	57
305.88	65.19
306.094	16.04
306.308	116.39
306.522	-14.68
306.736	24.23
306.95	120.49
307.164	85.67
307.379	28.33
307.593	69.29
307.807	57
308.021	130.73
308.235	69.29
308.449	93.87
308.663	93.87
308.877	97.96
309.091	85.67
309.305	114.34
309.519	-20.82
309.733	95.91
309.947	-26.96
310.161	136.87
310.374	155.3
310.588	104.11
310.802	65.19
311.016	24.23
311.23	52.91
311.444	28.33
311.658	24.23
311.872	52.91
312.085	97.96
312.299	122.54
312.513	93.87
312.727	81.58
312.941	69.29
313.154	-29.01
313.368	73.39
313.582	106.15
313.796	18.09
314.009	89.77
314.223	11.95
314.437	36.52
314.651	143.02
314.864	38.57
315.078	-0.34
315.292	28.33
315.505	42.67
315.719	93.87
315.933	54.95
316.146	36.52
316.36	-8.53
316.573	93.87
316.787	44.71
317.001	40.62
317.214	77.48
317.428	20.14
317.641	30.38
317.855	11.95
318.068	71.34
318.282	28.33
318.495	85.67
318.709	11.95
318.922	5.8
319.136	16.04
319.349	-26.96
319.563	30.38
319.776	57
319.99	30.38
320.203	77.48
320.417	93.87
320.63	83.63
320.843	177.83
321.057	42.67
321.27	102.06
321.483	71.34
321.697	128.68
321.91	28.33
322.124	104.11
322.337	106.15
322.55	52.91
322.763	32.43
322.977	85.67
323.19	69.29
323.403	52.91
323.617	11.95
323.83	81.58
324.043	30.38
324.256	50.86
324.469	-0.34
324.683	44.71
324.896	97.96
325.109	71.34
325.322	44.71
325.535	69.29
325.748	63.15
325.962	36.52
326.175	97.96
326.388	28.33
326.601	42.67
326.814	5.8
327.027	52.91
327.24	48.81
327.453	-51.54
327.666	54.95
327.879	102.06
328.092	52.91
328.305	22.19
328.518	11.95
328.731	32.43
328.944	-4.44
329.157	75.43
329.37	28.33
329.583	48.81
329.796	32.43
330.009	3.75
330.222	91.82
330.435	57
330.648	77.48
330.861	3.75
331.073	57
331.286	100.01
331.499	7.85
331.712	20.14
331.925	126.63
332.138	36.52
332.35	52.91
332.563	65.19
332.776	71.34
332.989	30.38
333.202	97.96
333.414	61.1
333.627	77.48
333.84	54.95
334.053	28.33
334.265	13.99
334.478	54.95
334.691	7.85
334.903	75.43
335.116	28.33
335.329	36.52
335.541	13.99
335.754	104.11
335.966	13.99
336.179	48.81
336.392	5.8
336.604	48.81
336.817	52.91
337.029	108.2
337.242	-4.44
337.454	36.52
337.667	-10.58
337.88	157.35
338.092	18.09
338.305	89.77
338.517	30.38
338.729	153.26
338.942	161.45
339.154	63.15
339.367	-4.44
339.579	36.52
339.792	28.33
340.004	7.85
340.217	112.3
340.429	102.06
340.641	40.62
340.854	16.04
341.066	36.52
341.278	79.53
341.491	143.02
341.703	81.58
341.915	24.23
342.128	110.25
342.34	63.15
342.552	40.62
342.764	63.15
342.977	61.1
343.189	81.58
343.401	52.91
343.613	-24.92
343.826	7.85
344.038	110.25
344.25	85.67
344.462	69.29
344.674	93.87
344.886	-6.49
345.099	63.15
345.311	61.1
345.523	63.15
345.735	5.8
345.947	16.04
346.159	54.95
346.371	77.48
346.583	46.76
346.795	85.67
347.007	-10.58
347.219	28.33
347.431	11.95
347.643	38.57
347.855	9.9
348.067	95.91
348.279	32.43
348.491	95.91
348.703	87.72
348.915	-0.34
349.127	9.9
349.339	93.87
349.551	77.48
349.763	97.96
349.975	50.86
350.187	118.44
350.399	149.16
350.61	102.06
350.822	-2.39
351.034	26.28
351.246	79.53
351.458	65.19
351.669	85.67
351.881	106.15
352.093	61.1
352.305	30.38
352.517	87.72
352.728	128.68
352.94	106.15
353.152	102.06
353.363	28.33
353.575	69.29
353.787	81.58
353.999	36.52
354.21	89.77
354.422	-43.35
354.633	22.19
354.845	11.95
355.057	77.48
355.268	44.71
355.48	112.3
355.692	97.96
355.903	102.06
356.115	77.48
356.326	-2.39
356.538	102.06
356.749	75.43
356.961	75.43
357.172	79.53
357.384	87.72
357.595	161.45
357.807	52.91
358.018	20.14
358.23	63.15
358.441	93.87
358.653	20.14
358.864	57
359.075	40.62
359.287	134.82
359.498	79.53
359.709	67.24
359.921	110.25
360.132	102.06
360.344	126.63
360.555	7.85
360.766	52.91
360.977	102.06
361.189	186.02
361.4	61.1
361.611	81.58
361.823	81.58
362.034	63.15
362.245	61.1
362.456	118.44
362.667	28.33
362.879	118.44
363.09	48.81
363.301	102.06
363.512	71.34
363.723	16.04
363.935	40.62
364.146	102.06
364.357	112.3
364.568	44.71
364.779	79.53
364.99	93.87
365.201	71.34
365.412	100.01
365.623	40.62
365.834	28.33
366.045	16.04
366.256	63.15
366.467	85.67
366.678	65.19
366.889	87.72
367.1	93.87
367.311	36.52
367.522	-4.44
367.733	102.06
367.944	65.19
368.155	11.95
368.366	75.43
368.577	75.43
368.788	87.72
368.999	85.67
369.209	110.25
369.42	91.82
369.631	100.01
369.842	81.58
370.053	40.62
370.264	89.77
370.474	102.06
370.685	24.23
370.896	65.19
371.107	89.77
371.317	118.44
371.528	61.1
371.739	11.95
371.95	75.43
372.16	61.1
372.371	1.71
372.582	18.09
372.792	95.91
373.003	28.33
373.214	61.1
373.424	85.67
373.635	34.47
373.846	73.39
374.056	65.19
374.267	34.47
374.477	104.11
374.688	69.29
374.898	42.67
375.109	46.76
375.319	44.71
375.53	134.82
375.74	130.73
375.951	87.72
376.161	-12.63
376.372	87.72
376.582	-4.44
376.793	-4.44
377.003	87.72
377.214	97.96
377.424	5.8
377.635	-0.34
377.845	28.33
378.055	122.54
378.266	116.39
378.476	28.33
378.686	63.15
378.897	116.39
379.107	93.87
379.317	97.96
379.528	89.77
379.738	91.82
379.948	28.33
380.158	120.49
380.369	147.11
380.579	52.91
380.789	95.91
380.999	71.34
381.21	32.43
381.42	153.26
381.63	38.57
381.84	169.64
382.05	9.9
382.261	134.82
382.471	91.82
382.681	61.1
382.891	97.96
383.101	110.25
383.311	30.38
383.521	-12.63
383.731	22.19
383.941	69.29
384.151	83.63
384.361	65.19
384.571	126.63
384.781	73.39
384.991	79.53
385.201	132.78
385.411	67.24
385.621	20.14
385.831	93.87
386.041	93.87
386.251	42.67
386.461	114.34
386.671	110.25
386.881	3.75
387.091	42.67
387.301	79.53
387.511	28.33
387.72	91.82
387.93	79.53
388.14	91.82
388.35	120.49
388.56	108.2
388.769	50.86
388.979	36.52
389.189	71.34
389.399	128.68
389.609	153.26
389.818	83.63
390.028	147.11
390.238	57
390.447	34.47
390.657	-16.73
390.867	11.95
391.076	71.34
391.286	102.06
391.496	44.71
391.705	81.58
391.915	77.48
392.125	59.05
392.334	73.39
392.544	130.73
392.753	159.4
392.963	-41.3
393.172	69.29
393.382	67.24
393.591	118.44
393.801	61.1
394.01	151.21
394.22	24.23
394.429	-39.25
394.639	63.15
394.848	93.87
395.058	95.91
395.267	52.91
395.477	126.63
395.686	20.14
395.895	116.39
396.105	95.91
396.314	73.39
396.524	112.3
396.733	65.19
396.942	138.92
397.152	104.11
397.361	171.69
397.57	95.91
397.78	138.92
397.989	151.21
398.198	202.41
398.407	87.72
398.617	93.87
398.826	190.12
399.035	69.29
399.244	85.67
399.453	134.82
399.663	147.11
399.872	85.67
400.081	79.53
400.29	159.4
400.499	83.63
400.708	108.2
400.917	67.24
401.127	110.25
401.336	128.68
401.545	104.11
401.754	95.91
401.963	159.4
402.172	136.87
402.381	100.01
402.59	54.95
402.799	145.06
403.008	138.92
403.217	85.67
403.426	159.4
403.635	69.29
403.844	134.82
404.053	143.02
404.262	161.45
404.471	177.83
404.68	118.44
404.888	102.06
405.097	196.26
405.306	147.11
405.515	265.89
405.724	87.72
405.933	143.02
406.142	218.79
406.35	171.69
406.559	212.65
406.768	194.22
406.977	224.94
407.185	100.01
407.394	200.36
407.603	128.68
407.812	155.3
408.02	196.26
408.229	181.93
408.438	284.33
408.646	159.4
408.855	263.85
409.064	286.37
409.272	224.94
409.481	329.38
409.69	278.18
409.898	257.7
410.107	276.13
410.315	265.89
410.524	241.32
410.733	331.43
410.941	290.47
411.15	310.95
411.358	390.82
411.567	349.86
411.775	360.1
411.984	454.31
412.192	427.68
412.401	315.05
412.609	439.97
412.818	464.55
413.026	448.16
413.234	446.12
413.443	433.83
413.651	495.27
413.86	523.94
414.068	568.99
414.276	450.21
414.485	544.42
414.693	597.67
414.901	657.06
415.11	634.53
415.318	603.81
415.526	634.53
415.734	669.34
415.943	693.92
416.151	773.79
416.359	804.51
416.567	691.87
416.776	781.98
416.984	921.24
417.192	847.52
417.4	882.33
417.608	868
417.817	947.87
418.025	999.07
418.233	964.25
418.441	1040.03
418.649	1109.66
418.857	1083.03
419.065	1109.66
419.273	1169.05
419.481	1136.28
419.689	1234.58
419.897	1371.8
420.105	1334.93
420.313	1494.68
420.521	1412.76
420.729	1445.52
420.937	1453.72
421.145	1496.72
421.353	1635.99
421.561	1644.18
421.769	1609.36
421.977	1781.39
422.185	1732.24
422.393	1930.89
422.601	2092.68
422.809	2047.63
423.017	2051.72
423.224	2160.27
423.432	2287.24
423.64	2207.37
423.848	2465.41
424.056	2363.01
424.263	2430.6
424.471	2543.24
424.679	2487.94
424.887	2727.55
425.094	2733.7
425.302	2756.22
425.51	2846.34
425.718	3020.41
425.925	3131
426.133	3010.17
426.341	3341.94
426.548	3534.45
426.756	3481.21
426.964	3497.59
427.171	3608.18
427.379	3712.63
427.586	3714.67
427.794	3833.46
428.001	4091.5
428.209	4357.74
428.417	4222.57
428.624	4462.18
428.832	4664.93
429.039	4492.9
429.247	4484.71
429.454	4910.69
429.662	5246.55
429.869	4779.62
430.076	5140.06
430.284	5006.94
430.491	5248.6
430.699	5625.43
430.906	5531.22
431.114	5697.11
431.321	5906
431.528	6030.93
431.736	6291.02
431.943	6745.67
432.15	6542.92
432.358	6606.41
432.565	6843.97
432.772	6786.63
432.979	7257.66
433.187	7417.4
433.394	7401.02
433.601	7798.32
433.808	7972.4
434.016	7906.87
434.223	8136.24
434.43	8425
434.637	8486.44
434.844	9035.3
435.052	9279.01
435.259	9121.31
435.466	9240.09
435.673	9129.5
435.88	9907.73
436.087	10178.06
436.294	10046.99
436.501	9887.25
436.708	10114.58
436.915	10685.96
437.122	11132.42
437.329	11038.21
437.537	11347.45
437.743	11437.56
437.95	11546.11
438.157	12006.9
438.364	12496.36
438.571	12277.23
438.778	12572.14
438.985	13454.81
439.192	12867.05
439.399	13559.26
439.606	13041.12
439.813	13870.55
440.02	14863.82
440.227	14489.04
440.433	14210.51
440.64	14988.74
440.847	14998.98
441.054	15087.04
441.261	15893.94
441.467	15949.24
441.674	16055.73
441.881	16686.51
442.088	16915.88
442.294	16360.88
442.501	16872.87
442.708	17319.33
442.914	17933.72
443.121	18701.71
443.328	18120.09
443.534	19459.46
443.741	18822.54
443.948	18730.38
444.154	19930.49
444.361	20041.08
444.568	20100.47
444.774	20280.69
444.981	20450.67
445.187	21044.59
445.394	22011.23
445.6	21441.89
445.807	23487.81
446.013	22492.5
446.22	22928.72
446.426	23678.27
446.633	24198.46
446.839	24692.02
447.046	23719.23
447.252	25122.09
447.459	24751.41
447.665	25302.31
447.871	26232.09
448.078	27264.27
448.284	26258.71
448.491	26516.76
448.697	27790.59
448.903	28417.27
449.11	28243.2
449.316	27796.74
449.522	28177.66
449.728	29244.65
449.935	29148.4
450.141	29551.85
450.347	29801.7
450.553	29361.39
450.76	29633.77
450.966	30645.46
451.172	30213.34
451.378	31196.37
451.584	30338.27
451.791	30991.57
451.997	31040.72
452.203	31186.13
452.409	31616.2
452.615	31708.36
452.821	30307.55
453.027	29873.38
453.233	31610.06
453.44	30256.35
453.646	30827.73
453.852	30631.13
454.058	31407.31
454.264	30471.39
454.47	31151.31
454.676	30315.74
454.882	31431.88
455.088	28714.23
455.294	29355.24
455.5	29859.04
455.705	30186.72
455.911	28370.17
456.117	27944.19
456.323	27987.2
456.529	26473.75
456.735	27567.37
456.941	27139.34
457.147	26369.3
457.352	25720.1
457.558	25492.77
457.764	25394.47
457.97	25351.46
458.176	24548.66
458.381	24356.15
458.587	23422.28
458.793	23119.18
458.999	22130.01
459.204	23936.32
459.41	23055.69
459.616	21560.67
459.821	21622.11
460.027	21722.46
460.233	21114.22
460.438	20032.89
460.644	20192.63
460.85	19357.06
461.055	19164.55
461.261	19043.72
461.466	17534.37
461.672	17169.83
461.878	18449.81
462.083	17165.73
462.289	16795.05
462.494	16602.54
462.7	15961.53
462.905	15297.99
463.111	15865.27
463.316	15844.79
463.522	15611.32
463.727	15658.43
463.932	15758.78
464.138	15674.81
464.343	15558.08
464.549	15238.59
464.754	15803.83
464.959	15429.06
465.165	15283.65
465.37	14456.27
465.575	14525.9
465.781	14964.17
465.986	15089.09
466.191	14509.52
466.397	14007.76
466.602	13540.83
466.807	14216.66
467.012	13811.16
467.218	13735.39
467.423	13694.43
467.628	13759.96
467.833	14491.09
468.038	13800.92
468.244	13589.98
468.449	14032.34
468.654	13452.77
468.859	13592.03
469.064	13374.94
469.269	12754.41
469.474	12996.07
469.679	13100.51
469.885	12768.74
470.09	12981.73
470.295	12914.15
470.5	12611.05
470.705	12778.98
470.91	12320.24
471.115	12299.76
471.32	12367.34
471.525	12340.72
471.73	12244.46
471.935	12166.64
472.139	11556.35
472.344	11818.49
472.549	11718.14
472.754	11529.72
472.959	11372.03
473.164	11099.65
473.369	10933.76
473.574	11384.32
473.778	11204.1
473.983	11216.38
474.188	11034.11
474.393	10612.23
474.598	10638.86
474.802	10702.34
475.007	10571.27
475.212	10640.9
475.417	9950.74
475.621	10145.3
475.826	10231.31
476.031	10149.39
476.235	9887.25
476.44	10026.51
476.645	9698.84
476.849	9852.44
477.054	9481.75
477.259	9399.84
477.463	9547.29
477.668	9285.15
477.872	9367.07
478.077	9203.23
478.282	8846.88
478.486	8941.09
478.691	8834.6
478.895	8930.85
479.1	8732.2
479.304	8793.64
479.509	8453.67
479.713	8777.25
479.918	8605.22
480.122	8461.87
480.326	8484.39
480.531	8427.05
480.735	8277.55
480.94	8336.94
481.144	8660.52
481.348	8230.45
481.553	8369.71
481.757	8226.35
481.961	8138.29
482.166	8255.02
482.37	8160.81
482.574	7888.43
482.778	8056.37
482.983	8248.88
483.187	8154.67
483.391	8107.57
483.595	8033.84
483.8	8126
484.004	8224.3
484.208	8449.58
484.412	7994.93
484.616	8199.73
484.821	8375.85
485.025	8082.99
485.229	8212.01
485.433	7978.54
485.637	8169.01
485.841	8072.75
486.045	7990.83
486.249	7892.53
486.453	8039.98
486.657	8072.75
486.861	8164.91
487.065	8035.89
487.269	8080.94
487.473	7851.57
487.677	8123.95
487.881	8314.41
488.085	8146.48
488.289	8326.7
488.493	8089.14
488.697	8195.63
488.901	8203.82
489.105	8212.01
489.309	8033.84
489.512	8128.05
489.716	8353.32
489.92	8166.96
490.124	8209.97
490.328	8097.33
490.531	8252.97
490.735	8359.47
490.939	8216.11
491.143	8330.8
491.346	8218.16
491.55	8338.99
491.754	8373.8
491.958	8293.93
492.161	8375.85
492.365	8572.46
492.569	8572.46
492.772	8488.49
492.976	8756.77
493.18	8793.64
493.383	8797.73
493.587	8830.5
493.79	8945.19
493.994	8760.87
494.197	8750.63
494.401	9041.44
494.605	8814.12
494.808	9125.41
495.012	9317.92
495.215	9109.02
495.419	9254.43
495.622	9328.16
495.825	9381.4
496.029	9256.48
496.232	9571.86
496.436	9549.34
496.639	9752.09
496.843	9686.55
497.046	9786.9
497.249	9881.11
497.453	10087.95
497.656	10235.41
497.859	9983.51
498.063	10343.95
498.266	10638.86
498.469	10491.4
498.673	10528.27
498.876	10587.66
499.079	10696.2
499.282	10855.94
499.485	11091.46
499.689	11042.31
499.892	11173.38
500.095	11359.74
500.298	11611.64
500.501	11230.72
500.705	11744.76
500.908	11861.49
501.111	12119.54
501.314	12174.83
501.517	12115.44
501.72	12529.13
501.923	12436.97
502.126	12881.38
502.329	12959.2
502.532	13088.23
502.735	12889.57
502.938	13147.62
503.141	13172.19
503.344	13405.66
503.547	13614.55
503.75	13661.66
503.953	13843.93
504.156	14161.36
504.359	14163.41
504.562	14122.45
504.765	14413.26
504.968	14646.73
505.17	14951.88
505.373	14904.78
505.576	14984.65
505.779	15224.26
505.982	15099.33
506.185	15717.82
506.387	15627.71
506.59	15603.13
506.793	16053.69
506.996	16074.17
507.198	16428.46
507.401	16387.5
507.604	16608.69
507.807	16876.97
508.009	17065.38
508.212	17014.18
508.415	17665.44
508.617	17585.57
508.82	17943.96
509.022	17415.58
509.225	18214.29
509.428	18122.13
509.63	18468.24
509.833	18541.97
510.035	19119.49
510.238	18857.35
510.44	19047.82
510.643	19545.47
510.845	19733.89
511.048	19299.72
511.25	19840.38
511.453	19942.78
511.655	20622.7
511.858	20475.25
512.06	20548.98
512.262	20888.94
512.465	20782.45
512.667	20927.85
512.87	21169.51
513.072	21349.73
513.274	21962.08
513.477	22005.08
513.679	22173.02
513.881	22467.92
514.084	22570.32
514.286	22623.57
514.488	22760.78
514.69	23483.72
514.893	23606.59
515.095	23551.3
515.297	23758.14
515.499	24055.1
515.701	24450.36
515.904	24464.69
516.106	24640.82
516.308	24835.38
516.51	24710.45
516.712	25072.94
516.914	25373.99
517.116	26131.74
517.318	26068.25
517.52	26256.67
517.722	26254.62
517.925	26465.56
518.127	26977.55
518.329	27043.09
518.531	26748.18
518.733	27823.36
518.935	27761.92
519.136	27720.96
519.338	28198.14
519.54	28478.71
519.742	28642.55
519.944	28679.41
520.146	29283.56
520.348	29400.3
520.55	29484.26
520.752	29809.89
520.954	29998.3
521.155	30057.7
521.357	30354.65
521.559	30422.23
521.761	31050.96
521.963	30797.01
522.164	31296.72
522.366	31591.62
522.568	31810.76
522.77	31616.2
522.971	32277.69
523.173	31880.39
523.375	32312.51
523.576	32488.63
523.778	32828.6
523.98	32892.08
524.181	32801.97
524.383	32953.52
524.584	33688.74
524.786	33520.81
524.988	33486
525.189	33799.33
525.391	34389.15
525.592	34051.24
525.794	34331.81
525.995	34550.94
526.197	34464.92
526.398	34968.73
526.6	34942.1
526.801	34864.28
527.003	35247.25
527.204	35009.68
527.406	35693.71
527.607	35423.37
527.808	35585.16
528.01	35034.26
528.211	35585.16
528.412	35935.37
528.614	36168.83
528.815	36121.73
529.016	36494.46
529.218	36226.18
529.419	36322.43
529.62	36988.02
529.822	36361.34
530.023	36607.1
530.224	36465.79
530.425	36871.29
530.626	36502.65
530.828	36170.88
531.029	37250.16
531.23	36689.02
531.431	36895.86
531.632	37102.71
531.833	37459.06
532.035	36871.29
532.236	37184.63
532.437	37522.54
532.638	36791.42
532.839	37739.63
533.04	37430.38
533.241	37158
533.442	37897.32
533.643	37504.11
533.844	37424.24
534.045	37661.8
534.246	37141.62
534.447	37809.26
534.648	37332.08
534.849	37672.04
535.05	37670
535.251	37252.21
535.451	37497.97
535.652	38118.5
535.853	37678.19
536.054	37770.35
536.255	37694.57
536.456	37168.24
536.657	37903.46
536.857	37270.64
537.058	37256.31
537.259	37956.71
537.46	37872.74
537.66	37651.56
537.861	38110.31
538.062	37602.41
538.263	37555.31
538.463	37377.14
538.664	37647.47
538.865	37586.03
539.065	37983.34
539.266	37188.72
539.466	37760.11
539.667	37209.2
539.868	37932.14
540.068	37774.44
540.269	37975.14
540.469	37895.27
540.67	37635.18
540.87	37579.89
541.071	37344.37
541.271	37422.19
541.472	37436.53
541.672	37463.15
541.873	37457.01
542.073	37117.04
542.274	37510.25
542.474	37694.57
542.675	37119.09
542.875	38227.04
543.075	37741.67
543.276	37540.97
543.476	37815.4
543.676	37160.05
543.877	37153.91
544.077	37827.69
544.277	37520.49
544.478	37344.37
544.678	37532.78
544.878	37268.59
545.078	37403.76
545.279	37043.32
545.479	37311.6
545.679	37520.49
545.879	37219.44
546.079	37209.2
546.28	37602.41
546.48	37012.6
546.68	37217.39
546.88	37555.31
547.08	37749.87
547.28	37065.85
547.48	37047.41
547.68	37151.86
547.88	36924.54
548.081	37043.32
548.281	37100.66
548.481	37287.03
548.681	37258.35
548.881	37260.4
549.081	37223.54
549.28	36797.56
549.48	37604.46
549.68	36965.49
549.88	37635.18
550.08	37022.84
550.28	36996.21
550.48	37340.27
550.68	37201.01
550.88	37012.6
551.08	37037.17
551.279	36965.49
551.479	36428.93
551.679	36926.58
551.879	37096.56
552.079	36990.07
552.278	36875.38
552.478	36942.97
552.678	36887.67
552.878	37266.55
553.077	36824.18
553.277	36912.25
553.477	37520.49
553.676	36641.92
553.876	37149.81
554.076	36758.65
554.275	36738.17
554.475	36392.06
554.674	36805.75
554.874	37008.5
555.074	36820.09
555.273	36715.64
555.473	36799.61
555.672	36508.8
555.872	36285.57
556.071	36670.59
556.271	36572.28
556.47	36015.24
556.67	36060.29
556.869	36291.71
557.068	36406.4
557.268	36533.37
557.467	36222.08
557.667	36150.4
557.866	36441.21
558.065	36072.58
558.265	36072.58
558.464	35847.3
558.663	36592.76
558.863	35826.82
559.062	36177.03
559.261	35493.01
559.461	36408.45
559.66	35318.93
559.859	35826.82
560.058	35529.87
560.258	35749
560.457	35323.02
560.656	35662.99
560.855	35376.27
561.054	35669.13
561.253	35253.39
561.453	35609.74
561.652	35171.47
561.851	35886.22
562.05	35568.78
562.249	34851.99
562.448	35677.32
562.647	35214.48
562.846	35167.38
563.045	34884.76
563.244	34993.3
563.443	34995.35
563.642	34473.12
563.841	34858.13
564.04	34577.56
564.239	34796.7
564.438	34438.3
564.637	34604.19
564.836	34575.52
565.035	34725.02
565.234	34155.68
565.432	34268.32
565.631	34421.92
565.83	34278.56
566.029	33682.6
566.228	34065.57
566.427	34047.14
566.625	33907.88
566.824	33606.83
567.023	33930.4
567.222	33250.48
567.42	34000.04
567.619	33477.8
567.818	33350.83
568.016	33180.85
568.215	33436.84
568.414	33084.59
568.612	33524.91
568.811	33129.65
569.01	32988.34
569.208	32629.94
569.407	32752.82
569.605	32763.06
569.804	33017.01
570.002	32507.07
570.201	32619.7
570.4	32625.85
570.598	32474.3
570.797	32627.9
570.995	32636.09
571.193	32222.4
571.392	32373.95
571.59	31790.28
571.789	31759.56
571.987	31624.39
572.186	31978.69
572.384	31530.19
572.582	31964.35
572.781	31853.76
572.979	31018.19
573.177	31468.75
573.376	31679.69
573.574	31358.16
573.772	31311.05
573.971	31014.1
574.169	31026.39
574.367	30942.42
574.565	31145.17
574.763	30731.48
574.962	30745.81
575.16	29963.49
575.358	30829.78
575.556	30487.77
575.754	31053.01
575.952	30072.03
576.151	30233.82
576.349	29897.95
576.547	30190.81
576.745	30487.77
576.943	30235.87
577.141	30143.71
577.339	29981.92
577.537	29707.49
577.735	29746.4
577.933	29299.95
578.131	29568.23
578.329	29510.89
578.527	29115.63
578.725	29119.73
578.923	29709.54
579.121	29232.36
579.319	29377.77
579.516	28849.39
579.714	29215.98
579.912	28968.18
580.11	28554.49
580.308	29002.99
580.506	28939.51
580.704	28456.18
580.901	28744.95
581.099	28562.68
581.297	28187.9
581.495	28306.68
581.692	28529.91
581.89	28001.54
582.088	28140.8
582.285	28024.06
582.483	28110.08
582.681	27923.71
582.878	27841.79
583.076	27372.81
583.274	27997.44
583.471	27800.83
583.669	27510.02
583.866	27292.94
584.064	27413.77
584.262	27178.25
584.459	27475.21
584.657	27200.78
584.854	27225.36
585.052	26832.15
585.249	27108.62
585.447	27313.42
585.644	26510.61
585.841	26785.04
586.039	26924.3
586.236	26684.69
586.434	26643.73
586.631	26328.34
586.828	26518.81
587.026	26588.44
587.223	26090.78
587.42	26256.67
587.618	26051.87
587.815	25961.76
588.012	26111.26
588.21	25808.16
588.407	25943.33
588.604	25957.66
588.801	25699.62
588.999	25781.54
589.196	25687.33
589.393	25593.12
589.59	25259.31
589.787	25322.79
589.984	25486.63
590.182	25066.8
590.379	25253.16
590.576	25165.1
590.773	24945.97
590.97	24788.27
591.167	25040.17
591.364	24737.07
591.561	25042.22
591.758	24395.06
591.955	24423.73
592.152	24606
592.349	24452.41
592.546	24479.03
592.743	24444.21
592.94	24122.68
593.137	24200.51
593.334	24429.88
593.531	23891.26
593.727	23778.62
593.924	24016.19
594.121	23764.29
594.318	23786.82
594.515	23633.22
594.712	23917.89
594.908	23489.86
595.105	23502.15
595.302	23440.71
595.499	23711.04
595.696	23301.45
595.892	22877.52
596.089	23352.65
596.286	23151.95
596.482	22816.08
596.679	23082.31
596.876	22811.98
597.072	22705.49
597.269	23031.12
597.466	22707.54
597.662	22357.33
597.859	22598.99
598.055	22541.65
598.252	22287.7
598.448	22375.77
598.645	22060.38
598.841	22058.33
599.038	22191.45
599.234	22105.43
599.431	21998.94
599.627	21749.09
599.824	21937.5
600.02	22095.19
600.217	21966.17
600.413	21849.44
600.609	21609.82
600.806	21763.42
601.002	21695.84
601.198	21220.71
601.395	21169.51
601.591	21161.32
601.787	21445.99
601.984	21007.72
602.18	21413.22
602.376	20915.56
602.572	20931.95
602.769	21116.26
602.965	20452.72
603.161	20761.97
603.357	20761.97
603.553	20477.3
603.75	20759.92
603.946	20473.2
604.142	20630.9
604.338	20235.64
604.534	20499.83
604.73	20475.25
604.926	20198.77
605.122	20045.18
605.318	19985.79
605.514	20020.6
605.71	19885.44
605.906	19668.35
606.102	19926.39
606.298	19955.07
606.494	19713.41
606.69	19576.19
606.886	19670.4
607.082	19393.92
607.278	19647.87
607.474	19500.42
607.67	19891.58
607.866	19346.82
608.062	19617.15
608.257	19168.65
608.453	19363.2
608.649	19359.11
608.845	19328.39
609.041	19066.25
609.236	19185.03
609.432	19010.95
609.628	19223.94
609.824	19066.25
610.019	19064.2
610.215	18902.41
610.411	19234.18
610.606	18783.63
610.802	18759.05
610.998	18775.44
611.193	18580.88
611.389	18625.93
611.584	18736.52
611.78	18584.98
611.976	18611.6
612.171	18541.97
612.367	18640.27
612.562	18462.1
612.758	18165.14
612.953	18251.16
613.149	18380.18
613.344	18052.5
613.539	18488.72
613.735	18283.92
613.93	18347.41
614.126	18165.14
614.321	18103.7
614.517	18292.12
614.712	17980.82
614.907	17829.27
615.103	18095.51
615.298	17773.98
615.493	18214.29
615.688	17745.31
615.884	18085.27
616.079	17690.01
616.274	17913.24
616.47	17749.4
616.665	17571.23
616.86	17517.98
617.055	17788.32
617.25	17304.99
617.445	17411.49
617.641	17231.27
617.836	17532.32
618.031	17360.29
618.226	17304.99
618.421	17251.75
618.616	17335.71
618.811	17075.62
619.006	17304.99
619.201	16827.82
619.396	16936.36
619.591	16737.71
619.786	16879.02
619.981	16797.1
620.176	16682.41
620.371	16410.03
620.566	16637.36
620.761	16438.7
620.956	16377.26
621.151	16149.94
621.346	16328.11
621.541	15957.43
621.735	16248.24
621.93	16022.97
622.125	15883.7
622.32	15607.23
622.515	15695.29
622.709	15834.55
622.904	15785.4
623.099	15547.84
623.294	15345.09
623.488	15330.75
623.683	15414.72
623.878	15218.11
624.072	14896.58
624.267	15185.35
624.462	14996.93
624.656	14874.06
624.851	15009.22
625.046	14845.38
625.24	14677.45
625.435	14691.79
625.629	14560.72
625.824	14577.1
626.018	14542.28
626.213	14104.02
626.407	14300.62
626.602	14022.1
626.796	14093.78
626.991	14144.98
627.185	14085.59
627.38	13749.72
627.574	13577.69
627.768	13635.03
627.963	13604.32
628.157	13495.77
628.352	13659.61
628.546	13438.43
628.74	13508.06
628.935	13215.2
629.129	13274.59
629.323	12828.13
629.517	13069.8
629.712	13086.18
629.906	13231.58
630.1	12721.64
630.294	12590.57
630.489	12715.5
630.683	12611.05
630.877	12559.85
631.071	12496.36
631.265	12541.42
631.459	12582.38
631.653	12295.66
631.848	12453.36
632.042	12307.95
632.236	12135.92
632.43	12172.78
632.624	11994.61
632.818	11851.25
633.012	11832.82
633.206	11763.19
633.4	11703.8
633.594	11611.64
633.788	11759.1
633.982	11744.76
634.176	11496.96
634.369	11578.87
634.563	11531.77
634.757	11415.04
634.951	11394.56
635.145	11243.01
635.339	11195.9
635.533	10827.27
635.726	11052.55
635.92	10970.63
636.114	10898.95
636.308	10878.47
636.501	10847.75
636.695	10825.22
636.889	10747.4
637.083	10780.17
637.276	10591.75
637.47	10620.42
637.664	10458.64
637.857	10311.18
638.051	10391.05
638.244	10317.33
638.438	10298.89
638.632	10112.53
638.825	10208.78
639.019	10049.04
639.212	9997.84
639.406	10053.14
639.599	10022.42
639.793	9903.64
639.986	9762.33
640.18	9868.82
640.373	9879.06
640.567	9547.29
640.76	9768.47
640.954	9510.43
641.147	9651.74
641.34	9373.21
641.534	9477.66
641.727	9256.48
641.92	9219.61
642.114	9397.79
642.307	9162.27
642.5	9164.32
642.694	9014.82
642.887	8957.47
643.08	8939.04
643.273	9031.2
643.467	9055.78
643.66	8785.44
643.853	8875.56
644.046	8623.66
644.239	8838.69
644.432	8562.22
644.626	8470.06
644.819	8578.6
645.012	8666.66
645.205	8646.18
645.398	8566.31
645.591	8427.05
645.784	8429.1
645.977	8267.31
646.17	8115.76
646.363	8130.09
646.556	8023.6
646.749	8156.72
646.942	8289.84
647.135	8138.29
647.328	7929.39
647.521	8068.66
647.714	7896.63
647.907	7917.11
648.099	7863.86
648.292	8068.66
648.485	7724.6
648.678	7800.37
648.871	7638.58
649.064	7581.24
649.256	7581.24
649.449	7527.99
649.642	7560.76
649.835	7427.64
650.027	7540.28
650.22	7267.9
650.413	7294.52
650.605	7196.22
650.798	7319.1
650.991	7089.73
651.183	7329.34
651.376	7069.25
651.568	7306.81
651.761	7167.55
651.954	6987.33
652.146	7061.05
652.339	6972.99
652.531	6917.7
652.724	6915.65
652.916	6766.15
653.109	6747.72
653.301	6837.83
653.494	6880.83
653.686	6657.61
653.879	6749.76
654.071	6852.16
654.263	6491.72
654.456	6745.67
654.648	6749.76
654.84	6413.9
655.033	6563.4
655.225	6540.87
655.417	6479.43
655.61	6428.23
655.802	6379.08
655.994	6395.47
656.186	6237.77
656.379	6067.79
656.571	6166.09
656.763	6102.61
656.955	6196.81
657.148	6041.17
657.34	6110.8
657.532	5938.77
657.724	5912.14
657.916	5942.86
658.108	6045.26
658.3	5856.85
658.492	5656.15
658.684	5738.07
658.876	5862.99
659.068	5772.88
659.26	5742.16
659.452	5787.22
659.644	5701.2
659.836	5549.65
660.028	5549.65
660.22	5523.03
660.412	5561.94
660.604	5459.54
660.796	5525.08
660.988	5572.18
661.18	5541.46
661.372	5402.2
661.563	5477.98
661.755	5516.89
661.947	5342.81
662.139	5262.94
662.331	5312.09
662.522	5191.26
662.714	5203.55
662.906	5172.83
663.097	5226.07
663.289	5142.11
663.481	5113.44
663.673	5248.6
663.864	5090.91
664.056	4994.65
664.247	5054.05
664.439	4908.64
664.631	5023.33
664.822	5090.91
665.014	4720.23
665.205	4800.1
665.397	4761.19
665.588	4804.19
665.78	4761.19
665.971	4783.71
666.163	4601.44
666.354	4783.71
666.546	4636.26
666.737	4623.97
666.929	4705.89
667.12	4583.01
667.311	4623.97
667.503	4583.01
667.694	4583.01
667.885	4460.13
668.077	4492.9
668.268	4402.79
668.459	4501.09
668.651	4316.78
668.842	4353.64
669.033	4382.31
669.224	4533.86
669.416	4482.66
669.607	4267.63
669.798	4329.06
669.989	4238.95
670.18	4347.5
670.371	4165.23
670.563	4265.58
670.754	4294.25
670.945	4189.8
671.136	4220.52
671.327	4124.27
671.518	4202.09
671.709	4066.92
671.9	4036.21
672.091	4142.7
672.282	4234.86
672.473	3989.1
672.664	3956.33
672.855	3898.99
673.046	4038.25
673.237	3808.88
673.428	3874.42
673.619	3774.07
673.809	3884.66
674	3944.05
674.191	3831.41
674.382	3837.55
674.573	3880.56
674.764	3763.83
674.954	3782.26
675.145	3755.63
675.336	3700.34
675.527	3751.54
675.717	3716.72
675.908	3628.66
676.099	3628.66
676.289	3681.91
676.48	3651.19
676.671	3599.99
676.861	3618.42
677.052	3663.47
677.243	3567.22
677.433	3673.71
677.624	3673.71
677.814	3544.69
678.005	3477.11
678.195	3487.35
678.386	3487.35
678.576	3423.86
678.767	3397.24
678.957	3452.53
679.148	3387
679.338	3360.38
679.529	3401.33
679.719	3358.33
679.909	3350.14
680.1	3315.32
680.29	3346.04
680.481	3298.94
680.671	3239.55
680.861	3296.89
681.052	3315.32
681.242	3255.93
681.432	3124.86
681.622	3198.59
681.813	3157.63
682.003	3264.12
682.193	3065.47
682.383	3264.12
682.573	3341.94
682.764	3190.39
682.954	3014.27
683.144	3143.29
683.334	3200.63
683.524	3118.72
683.714	3036.8
683.904	3100.28
684.094	3073.66
684.284	3036.8
684.474	3100.28
684.664	3171.96
684.854	3012.22
685.044	2969.21
685.234	2924.16
685.424	2985.6
685.614	3047.04
685.804	3022.46
685.994	2971.26
686.184	2930.3
686.374	2952.83
686.564	2944.64
686.753	2948.73
686.943	2952.83
687.133	3036.8
687.323	2829.95
687.513	2963.07
687.702	2850.43
687.892	2770.56
688.082	2891.39
688.272	2827.9
688.461	2977.41
688.651	2702.98
688.841	2788.99
689.03	2731.65
689.22	2754.18
689.41	2709.12
689.599	2760.32
689.789	2709.12
689.979	2698.88
690.168	2772.61
690.358	2739.84
690.547	2657.92
690.737	2715.27
690.926	2563.72
691.116	2643.59
691.305	2582.15
691.495	2684.55
691.684	2549.38
691.874	2682.5
692.063	2674.31
692.252	2592.39
692.442	2694.79
692.631	2471.56
692.82	2571.91
693.01	2584.2
693.199	2563.72
693.388	2502.28
693.578	2496.13
693.767	2625.15
693.956	2438.79
694.146	2518.66
694.335	2600.58
694.524	2387.59
694.713	2471.56
694.902	2412.17
695.092	2485.89
695.281	2496.13
695.47	2412.17
695.659	2375.3
695.848	2322.06
696.037	2469.51
696.226	2465.41
696.415	2293.38
696.604	2473.6
696.793	2442.89
696.982	2334.34
697.171	2567.81
697.36	2524.8
697.549	2363.01
697.738	2381.45
697.927	2377.35
698.116	2455.17
698.305	2485.89
698.494	2389.64
698.683	2354.82
698.872	2385.54
699.061	2371.21
699.25	2373.25
699.438	2391.69
699.627	2344.58
699.816	2408.07
700.005	2289.29
700.193	2340.49
700.382	2369.16
700.571	2309.77
700.76	2324.1
700.948	2315.91
701.137	2334.34
701.326	2363.01
701.514	2305.67
701.703	2424.45
701.892	2274.95
702.08	2356.87
702.269	2313.86
702.457	2199.18
702.646	2277
702.834	2186.89
703.023	2340.49
703.212	2371.21
703.4	2281.1
703.589	2291.34
703.777	2295.43
703.965	2195.08
704.154	2266.76
704.342	2277
704.531	2285.19
704.719	2264.71
704.907	2244.23
705.096	2195.08
705.284	2217.61
705.472	2258.57
705.661	2244.23
705.849	2371.21
706.037	2322.06
706.226	2211.46
706.414	2391.69
706.602	2154.12
706.79	2383.49
706.979	2262.66
707.167	2182.79
707.355	2264.71
707.543	2277
707.731	2403.97
707.919	2354.82
708.107	2201.23
708.296	2137.74
708.484	2303.62
708.672	2160.27
708.86	2254.47
709.048	2248.33
709.236	2199.18
709.424	2297.48
709.612	2119.31
709.8	2182.79
709.988	2190.99
710.176	2303.62
710.364	2250.38
710.551	2371.21
710.739	2252.42
710.927	2248.33
711.115	2285.19
711.303	2256.52
711.491	2150.03
711.679	2193.03
711.866	2231.94
712.054	2250.38
712.242	2346.63
712.43	2231.94
712.617	2117.26
712.805	2190.99
712.993	2203.27
713.181	2193.03
713.368	2285.19
713.556	2277
713.744	2145.93
713.931	2338.44
714.119	2367.11
714.306	2180.75
714.494	2141.83
714.682	2082.44
714.869	2174.6
715.057	2211.46
715.244	2147.98
715.432	2195.08
715.619	2184.84
715.807	2240.14
715.994	2248.33
716.182	2100.87
716.369	2125.45
716.556	2012.81
716.744	2111.11
716.931	2233.99
717.119	2195.08
717.306	2190.99
717.493	2250.38
717.681	2219.66
717.868	2279.05
718.055	2147.98
718.242	2119.31
718.43	2117.26
718.617	2190.99
718.804	2166.41
718.991	2174.6
719.179	2246.28
719.366	2150.03
719.553	2170.51
719.74	2174.6
719.927	2207.37
720.114	2143.88
720.301	2162.31
720.488	2160.27
720.676	2168.46
720.863	2078.35
721.05	2178.7
721.237	2047.63
721.424	2088.59
721.611	2119.31
721.798	2037.39
721.985	2203.27
722.172	2027.15
722.358	2201.23
722.545	2195.08
722.732	2109.07
722.919	2125.45
723.106	2047.63
723.293	2160.27
723.48	2102.92
723.667	2094.73
723.853	2002.57
724.04	2088.59
724.227	2082.44
724.414	2043.53
724.6	2209.42
724.787	2061.96
724.974	2158.22
725.161	2125.45
725.347	2076.3
725.534	2096.78
725.72	2195.08
725.907	2111.11
726.094	2078.35
726.28	2104.97
726.467	2111.11
726.653	2057.87
726.84	2039.44
727.027	2006.67
727.213	2094.73
727.4	2141.83
727.586	2072.2
727.773	1996.43
727.959	2027.15
728.145	2086.54
728.332	2086.54
728.518	1949.32
728.705	2018.96
728.891	2061.96
729.077	2061.96
729.264	2072.2
729.45	2010.76
729.636	2080.39
729.823	2006.67
730.009	2057.87
730.195	1994.38
730.382	2049.68
730.568	2025.1
730.754	1988.24
730.94	2223.75
731.126	2066.06
731.313	1912.46
731.499	2066.06
731.685	2064.01
731.871	2059.92
732.057	2141.83
732.243	1988.24
732.429	2068.11
732.615	2059.92
732.801	2045.58
732.987	1982.09
733.173	1900.17
733.359	1957.52
733.545	1949.32
733.731	1984.14
733.917	2047.63
734.103	1920.65
734.289	1959.56
734.475	1912.46
734.661	2070.16
734.847	2012.81
735.033	2043.53
735.219	2074.25
735.404	1932.94
735.59	1994.38
735.776	1908.37
735.962	1832.59
736.148	1941.13
736.333	2021
736.519	1988.24
736.705	1986.19
736.89	2068.11
737.076	1969.8
737.262	1906.32
737.447	1855.12
737.633	1965.71
737.819	1957.52
738.004	1896.08
738.19	2010.76
738.375	1906.32
738.561	1947.28
738.747	1920.65
738.932	1887.89
739.118	1863.31
739.303	1869.45
739.489	1994.38
739.674	1875.6
739.859	1865.36
740.045	1865.36
740.23	1986.19
740.416	1887.89
740.601	1912.46
740.786	1801.87
740.972	1822.35
741.157	1883.79
741.342	1834.64
741.528	1953.42
741.713	1855.12
741.898	1871.5
742.084	1885.84
742.269	1750.67
742.454	1830.54
742.639	1814.16
742.824	1707.66
743.01	1808.02
743.195	1838.73
743.38	1754.77
743.565	1705.62
743.75	1732.24
743.935	1666.71
744.12	1810.06
744.305	1605.27
744.49	1633.94
744.675	1670.8
744.86	1687.18
745.045	1719.95
745.23	1742.48
745.415	1638.03
745.6	1754.77
745.785	1572.5
745.97	1703.57
746.155	1660.56
746.34	1724.05
746.525	1549.97
746.71	1678.99
746.895	1758.86
747.079	1633.94
747.264	1611.41
747.449	1509.01
747.634	1672.85
747.819	1527.44
748.003	1509.01
748.188	1490.58
748.373	1531.54
748.557	1599.12
748.742	1638.03
748.927	1597.07
749.111	1496.72
749.296	1484.44
749.481	1541.78
749.665	1519.25
749.85	1504.92
750.034	1420.95
750.219	1556.11
750.404	1423
750.588	1404.57
750.773	1377.94
750.957	1359.51
751.141	1414.81
751.326	1443.48
751.51	1289.88
751.695	1379.99
751.879	1369.75
752.064	1410.71
752.248	1382.04
752.432	1433.24
752.617	1382.04
752.801	1406.61
752.985	1339.03
753.17	1339.03
753.354	1324.69
753.538	1265.3
753.722	1306.26
753.907	1308.31
754.091	1279.64
754.275	1308.31
754.459	1179.29
754.643	1156.76
754.828	1242.78
755.012	1298.07
755.196	1207.96
755.38	1339.03
755.564	1220.25
755.748	1244.82
755.932	1306.26
756.116	1191.58
756.3	1242.78
756.484	1246.87
756.668	1224.34
756.852	1101.47
757.036	1154.71
757.22	1093.27
757.404	1152.67
757.588	1119.9
757.772	1150.62
757.956	1150.62
758.14	1183.38
758.323	1046.17
758.507	988.83
758.691	1087.13
758.875	1046.17
759.059	1130.14
759.242	1119.9
759.426	1150.62
759.61	1074.84
759.794	1103.51
759.977	1121.95
760.161	1101.47
760.345	937.63
760.528	956.06
760.712	1156.76
760.895	1015.45
761.079	964.25
761.263	884.38
761.446	966.3
761.63	1064.6
761.813	974.49
761.997	1003.16
762.18	980.64
762.364	933.53
762.547	876.19
762.731	1003.16
762.914	933.53
763.098	999.07
763.281	954.01
763.464	962.2
763.648	896.67
763.831	1005.21
764.015	896.67
764.198	970.4
764.381	939.68
764.564	939.68
764.748	898.72
764.931	913.05
765.114	954.01
765.297	824.99
765.481	822.94
765.664	888.48
765.847	835.23
766.03	931.48
766.213	943.77
766.397	978.59
766.58	900.76
766.763	896.67
766.946	857.76
767.129	937.63
767.312	927.39
767.495	917.15
767.678	767.65
767.861	814.75
768.044	904.86
768.227	939.68
768.41	773.79
768.593	765.6
768.776	833.18
768.959	738.98
769.142	906.91
769.324	837.28
769.507	745.12
769.69	876.19
769.873	913.05
770.056	921.24
770.239	757.41
770.421	857.76
770.604	792.22
770.787	781.98
770.97	874.14
771.152	806.56
771.335	814.75
771.518	853.66
771.7	792.22
771.883	855.71
772.066	806.56
772.248	853.66
772.431	792.22
772.613	816.8
772.796	710.3
772.978	792.22
773.161	806.56
773.343	726.69
773.526	698.02
773.708	704.16
773.891	786.08
774.073	732.83
774.256	749.22
774.438	708.26
774.621	765.6
774.803	773.79
774.985	675.49
775.168	726.69
775.35	687.78
775.532	691.87
775.715	642.72
775.897	700.06
776.079	677.54
776.261	716.45
776.444	612
776.626	683.68
776.808	644.77
776.99	628.39
777.173	675.49
777.355	661.15
777.537	589.47
777.719	628.39
777.901	659.1
778.083	663.2
778.265	603.81
778.447	667.3
778.629	568.99
778.811	661.15
778.993	505.51
779.175	573.09
779.357	605.86
779.539	554.66
779.721	614.05
779.903	601.76
780.085	532.13
780.267	626.34
780.449	554.66
780.631	573.09
780.812	564.9
780.994	515.75
781.176	552.61
781.358	554.66
781.54	517.79
781.721	534.18
781.903	603.81
782.085	511.65
782.267	601.76
782.448	450.21
782.63	538.27
782.812	474.79
782.993	536.23
783.175	497.32
783.357	405.16
783.538	515.75
783.72	495.27
783.901	505.51
784.083	528.03
784.264	534.18
784.446	487.08
784.627	454.31
784.809	446.12
784.99	501.41
785.172	474.79
785.353	448.16
785.535	464.55
785.716	415.4
785.897	409.25
786.079	454.31
786.26	478.88
786.441	431.78
786.623	370.34
786.804	407.2
786.985	390.82
787.167	405.16
787.348	442.02
787.529	417.44
787.71	501.41
787.891	401.06
788.073	392.87
788.254	341.67
788.435	399.01
788.616	366.25
788.797	388.77
788.978	388.77
789.159	310.95
789.34	450.21
789.522	374.44
789.703	409.25
789.884	396.96
790.065	358.05
790.246	415.4
790.427	431.78
790.607	335.53
790.788	315.05
790.969	421.54
791.15	431.78
791.331	331.43
791.512	325.29
791.693	310.95
791.874	339.62
792.054	372.39
792.235	374.44
792.416	284.33
792.597	302.76
792.778	378.53
792.958	415.4
793.139	298.66
793.32	265.89
793.5	282.28
793.681	417.44
793.862	317.09
794.042	319.14
794.223	343.72
794.404	329.38
794.584	331.43
794.765	216.74
794.945	253.61
795.126	284.33
795.306	319.14
795.487	274.09
795.667	274.09
795.848	364.2
796.028	274.09
796.209	325.29
796.389	319.14
796.57	364.2
796.75	294.57
796.93	315.05
797.111	323.24
797.291	257.7
797.471	265.89
797.652	286.37
797.832	233.13
798.012	319.14
798.192	265.89
798.373	179.88
798.553	257.7
798.733	321.19
798.913	304.81
799.093	315.05
799.274	292.52
799.454	296.61
799.634	288.42
799.814	364.2
799.994	284.33
800.174	167.59
800.354	233.13
800.534	208.55
800.714	257.7
800.894	200.36
801.074	257.7
801.254	167.59
801.434	306.85
801.614	169.64
801.794	231.08
801.974	771.74
802.154	274.09
802.334	343.72
802.514	233.13
802.693	231.08
802.873	237.22
803.053	267.94
803.233	229.03
803.413	251.56
803.592	226.98
803.772	224.94
803.952	265.89
804.131	212.65
804.311	216.74
804.491	319.14
804.67	175.78
804.85	220.84
805.03	282.28
805.209	208.55
805.389	183.98
805.568	241.32
805.748	212.65
805.928	249.51
806.107	229.03
806.287	323.24
806.466	206.5
806.646	249.51
806.825	226.98
807.004	186.02
807.184	212.65
807.363	233.13
807.543	153.26
807.722	136.87
807.901	167.59
808.081	198.31
808.26	192.17
808.439	161.45
808.619	188.07
808.798	171.69
808.977	198.31
809.156	302.76
809.336	235.18
809.515	253.61
809.694	167.59
809.873	175.78
810.052	218.79
810.231	224.94
810.411	179.88
810.59	218.79
810.769	136.87
810.948	208.55
811.127	171.69
811.306	151.21
811.485	161.45
811.664	196.26
811.843	175.78
812.022	183.98
812.201	122.54
812.38	147.11
812.559	183.98
812.737	202.41
812.916	134.82
813.095	175.78
813.274	147.11
813.453	202.41
813.632	171.69
813.811	186.02
813.989	93.87
814.168	186.02
814.347	100.01
814.526	192.17
814.704	200.36
814.883	145.06
815.062	212.65
815.24	85.67
815.419	177.83
815.598	229.03
815.776	91.82
815.955	167.59
816.133	145.06
816.312	171.69
816.49	163.5
816.669	153.26
816.847	136.87
817.026	149.16
817.204	143.02
817.383	153.26
817.561	147.11
817.74	151.21
817.918	110.25
818.097	165.54
818.275	118.44
818.453	151.21
818.632	224.94
818.81	118.44
818.988	85.67
819.167	167.59
819.345	208.55
819.523	147.11
819.701	122.54
819.879	138.92
820.058	95.91
820.236	132.78
820.414	93.87
820.592	134.82
820.77	89.77
820.948	44.71
821.127	143.02
821.305	167.59
821.483	89.77
821.661	134.82
821.839	93.87
822.017	102.06
822.195	126.63
822.373	69.29
822.551	151.21
822.729	128.68
822.907	143.02
823.085	155.3
823.262	102.06
823.44	11.95
823.618	136.87
823.796	112.3
823.974	89.77
824.152	77.48
824.329	81.58
824.507	118.44
824.685	100.01
824.863	179.88
825.04	77.48
825.218	177.83
825.396	140.97
825.574	161.45
825.751	77.48
825.929	126.63
826.107	85.67
826.284	52.91
826.462	171.69
826.639	73.39
826.817	-4.44
826.994	102.06
827.172	48.81
827.349	132.78
827.527	175.78
827.704	147.11
827.882	177.83
828.059	89.77
828.237	22.19
828.414	138.92
828.591	28.33
828.769	63.15
828.946	122.54
829.124	89.77
829.301	50.86
829.478	118.44
829.655	143.02
829.833	77.48
830.01	54.95
830.187	163.5
830.364	69.29
830.542	69.29
830.719	147.11
830.896	61.1
831.073	100.01
831.25	126.63
831.427	151.21
831.604	85.67
831.782	97.96
831.959	134.82
832.136	44.71
832.313	87.72
832.49	87.72
832.667	93.87
832.844	79.53
833.021	65.19
833.198	149.16
833.374	61.1
833.551	93.87
833.728	93.87
833.905	93.87
834.082	65.19
834.259	61.1
834.436	87.72
834.612	28.33
834.789	112.3
834.966	65.19
835.143	85.67
835.319	97.96
835.496	36.52
835.673	61.1
835.85	54.95
836.026	138.92
836.203	93.87
836.38	110.25
836.556	128.68
836.733	100.01
836.909	143.02
837.086	46.76
837.262	36.52
837.439	63.15
837.616	46.76
837.792	59.05
837.968	151.21
838.145	28.33
838.321	100.01
838.498	75.43
838.674	77.48
838.851	77.48
839.027	46.76
839.203	147.11
839.38	20.14
839.556	65.19
839.732	93.87
839.909	136.87
840.085	61.1
840.261	-20.82
840.437	95.91
840.614	69.29
840.79	52.91
840.966	85.67
841.142	140.97
841.318	22.19
841.494	87.72
841.671	87.72
841.847	36.52
842.023	87.72
842.199	81.58
842.375	145.06
842.551	36.52
842.727	106.15
842.903	118.44
843.079	81.58
843.255	57
843.431	93.87
843.607	114.34
843.783	11.95
843.959	73.39
844.134	73.39
844.31	120.49
844.486	44.71
844.662	61.1
844.838	46.76
845.013	93.87
845.189	128.68
845.365	30.38
845.541	106.15
845.716	85.67
845.892	24.23
846.068	61.1
846.244	73.39
846.419	36.52
846.595	20.14
846.77	77.48
846.946	50.86
847.122	61.1
847.297	40.62
847.473	38.57
847.648	13.99
847.824	34.47
847.999	57
848.175	93.87
848.35	77.48
848.526	79.53
848.701	9.9
848.876	106.15
849.052	67.24
849.227	3.75
849.403	36.52
849.578	79.53
849.753	22.19
849.929	38.57
850.104	24.23
850.279	-0.34
850.454	106.15
850.63	52.91
850.805	36.52
850.98	69.29
851.155	30.38
851.33	-8.53
851.505	52.91
851.681	165.54
851.856	44.71
852.031	32.43
852.206	110.25
852.381	48.81
852.556	20.14
852.731	28.33
852.906	48.81
853.081	65.19
853.256	38.57
853.431	112.3
853.606	36.52
853.781	69.29
853.956	-4.44
854.131	46.76
854.305	87.72
854.48	22.19
854.655	102.06
854.83	-16.73
855.005	36.52
855.18	63.15
855.354	32.43
855.529	24.23
855.704	38.57
855.879	57
856.053	-37.2
856.228	93.87
856.403	44.71
856.577	102.06
856.752	34.47
856.926	85.67
857.101	89.77
857.276	20.14
857.45	18.09
857.625	85.67
857.799	-29.01
857.974	34.47
858.148	54.95
858.323	77.48
858.497	69.29
858.672	-22.87
858.846	69.29
859.02	38.57
859.195	89.77
859.369	61.1
859.543	13.99
859.718	54.95
859.892	18.09
860.066	5.8
860.241	13.99
860.415	26.28
860.589	46.76
860.763	48.81
860.938	24.23
861.112	85.67
861.286	32.43
861.46	77.48
861.634	57
861.808	124.58
861.982	95.91
862.157	65.19
862.331	-33.11
862.505	1.71
862.679	-12.63
862.853	-10.58
863.027	-12.63
863.201	132.78
863.375	85.67
863.549	40.62
863.722	59.05
863.896	149.16
864.07	22.19
864.244	30.38
864.418	11.95
864.592	61.1
864.766	-0.34
864.939	-29.01
865.113	7.85
865.287	54.95
865.461	-2.39
865.634	65.19
865.808	22.19
865.982	-8.53
866.156	-4.44
866.329	16.04
866.503	-12.63
866.676	71.34
866.85	-16.73
867.024	22.19
867.197	73.39
867.371	40.62
867.544	46.76
867.718	46.76
867.891	18.09
868.065	-0.34
868.238	61.1
868.412	59.05
868.585	28.33
868.759	-33.11
868.932	61.1
869.105	40.62
869.279	30.38
869.452	36.52
869.625	38.57
869.799	54.95
869.972	-53.59
870.145	22.19
870.319	3.75
870.492	9.9
870.665	30.38
870.838	-43.35
871.011	-61.78
871.185	54.95
871.358	28.33
871.531	-2.39
871.704	11.95
871.877	-18.77
872.05	44.71
872.223	16.04
872.396	77.48
872.569	11.95
872.742	9.9
872.915	46.76
873.088	-31.06
873.261	16.04
873.434	26.28
873.607	128.68
873.78	7.85
873.953	54.95
874.126	34.47
874.299	110.25
874.471	-0.34
874.644	13.99
874.817	100.01
874.99	97.96
875.163	69.29
875.335	26.28
875.508	52.91
875.681	30.38
875.853	-45.4
876.026	54.95
876.199	16.04
876.371	36.52
876.544	26.28
876.717	28.33
876.889	7.85
877.062	104.11
877.234	11.95
877.407	1.71
877.579	52.91
877.752	-8.53
877.924	69.29
878.097	63.15
878.269	3.75
878.442	-26.96
878.614	3.75
878.786	108.2
878.959	-26.96
879.131	69.29
879.303	-8.53
879.476	-18.77
879.648	34.47
879.82	3.75
879.993	38.57
880.165	36.52
880.337	89.77
880.509	71.34
880.681	-31.06
880.854	85.67
881.026	61.1
881.198	46.76
881.37	3.75
881.542	44.71
881.714	44.71
881.886	48.81
882.058	44.71
882.23	20.14
882.402	50.86
882.574	24.23
882.746	24.23
882.918	44.71
883.09	44.71
883.262	-12.63
883.434	85.67
883.606	28.33
883.778	-10.58
883.95	30.38
884.122	65.19
884.293	57
884.465	-8.53
884.637	24.23
884.809	-29.01
884.98	85.67
885.152	85.67
885.324	73.39
885.496	3.75
885.667	34.47
885.839	-35.16
886.011	71.34
886.182	44.71
886.354	44.71
886.525	20.14
886.697	61.1
886.869	-47.44
887.04	7.85
887.212	122.54
887.383	93.87
887.555	-29.01
887.726	44.71
887.897	40.62
888.069	110.25
888.24	44.71
888.412	13.99
888.583	-49.49
888.754	5.8
888.926	-10.58
889.097	85.67
889.268	-33.11
889.44	61.1
889.611	-35.16
889.782	69.29
889.953	-18.77
890.125	126.63
890.296	24.23
890.467	44.71
890.638	-8.53
890.809	-43.35
890.98	44.71
891.151	44.71
891.323	52.91
891.494	-2.39
891.665	40.62
891.836	30.38
892.007	54.95
892.178	93.87
892.349	30.38
892.52	65.19
892.691	28.33
892.862	22.19
893.032	-29.01
893.203	34.47
893.374	30.38
893.545	38.57
893.716	-41.3
893.887	61.1
894.057	-41.3
894.228	114.34
894.399	22.19
894.57	63.15
894.74	36.52
894.911	54.95
895.082	54.95
895.253	77.48
895.423	-10.58
895.594	73.39
895.764	87.72
895.935	44.71
896.106	71.34
896.276	3.75
896.447	-43.35
896.617	87.72
896.788	-2.39
896.958	-16.73
897.129	-35.16
897.299	63.15
897.47	38.57
897.64	-0.34
897.81	-24.92
897.981	93.87
898.151	-86.36
898.322	136.87
898.492	36.52
898.662	20.14
898.832	7.85
899.003	69.29
899.173	110.25
899.343	-12.63
899.513	-43.35
