Data from USB4F104151__31__14-42-49-525.txt Node

Date: Thu Mar 13 14:42:49 EDT 2025
User: louis
Spectrometer: USB4F10415
Trigger mode: 4
Integration Time (sec): 2.000000E-2
Scans to average: 1
Electric dark correction enabled: true
Nonlinearity correction enabled: false
Boxcar width: 0
XAxis mode: Wavelengths
Number of Pixels in Spectrum: 3648
>>>>>Begin Spectral Data<<<<<
178.204	-138.75
178.424	-138.75
178.644	-138.75
178.864	-153.09
179.084	-62.98
179.304	-32.26
179.524	-24.06
179.744	0.51
179.964	-17.92
180.184	14.85
180.404	-26.11
180.624	2.56
180.844	47.62
181.064	33.28
181.283	41.47
181.503	-75.26
181.723	35.33
181.943	-62.98
182.163	8.7
182.383	27.14
182.602	49.66
182.822	45.57
183.042	-1.54
183.262	-46.59
183.482	80.38
183.701	-71.17
183.921	-22.02
184.141	-26.11
184.361	8.7
184.58	2.56
184.8	113.15
185.02	-30.21
185.239	18.94
185.459	49.66
185.679	80.38
185.898	-7.68
186.118	33.28
186.338	16.9
186.557	41.47
186.777	33.28
186.997	14.85
187.216	-5.63
187.436	80.38
187.655	-15.87
187.875	88.57
188.095	-9.73
188.314	64
188.534	23.04
188.753	49.66
188.973	0.51
189.192	72.19
189.412	76.29
189.631	113.15
189.851	43.52
190.07	55.81
190.29	6.66
190.509	72.19
190.729	10.75
190.948	43.52
191.168	64
191.387	113.15
191.607	-42.5
191.826	115.2
192.045	49.66
192.265	10.75
192.484	45.57
192.704	64
192.923	18.94
193.142	96.77
193.362	80.38
193.581	49.66
193.8	35.33
194.02	135.68
194.239	-5.63
194.458	74.24
194.678	74.24
194.897	20.99
195.116	59.9
195.335	0.51
195.555	33.28
195.774	23.04
195.993	72.19
196.212	2.56
196.432	76.29
196.651	64
196.87	23.04
197.089	119.29
197.308	8.7
197.528	68.09
197.747	-5.63
197.966	14.85
198.185	113.15
198.404	16.9
198.623	23.04
198.842	137.73
199.062	51.71
199.281	154.11
199.5	68.09
199.719	-17.92
199.938	47.62
200.157	74.24
200.376	59.9
200.595	39.42
200.814	-11.78
201.033	-40.45
201.252	98.81
201.471	43.52
201.69	59.9
201.909	53.76
202.128	98.81
202.347	59.9
202.566	31.23
202.785	23.04
203.004	6.66
203.223	59.9
203.442	55.81
203.661	6.66
203.879	57.86
204.098	47.62
204.317	-26.11
204.536	47.62
204.755	84.48
204.974	-34.3
205.193	-11.78
205.411	88.57
205.63	12.8
205.849	6.66
206.068	10.75
206.287	43.52
206.505	47.62
206.724	96.77
206.943	47.62
207.162	-30.21
207.381	88.57
207.599	51.71
207.818	2.56
208.037	18.94
208.255	-22.02
208.474	109.05
208.693	59.9
208.911	35.33
209.13	18.94
209.349	0.51
209.567	-58.88
209.786	8.7
210.005	16.9
210.223	96.77
210.442	-26.11
210.661	66.05
210.879	-7.68
211.098	39.42
211.316	-34.3
211.535	45.57
211.753	55.81
211.972	109.05
212.191	55.81
212.409	33.28
212.628	18.94
212.846	-13.82
213.065	64
213.283	109.05
213.502	8.7
213.72	-1.54
213.938	29.18
214.157	59.9
214.375	64
214.594	27.14
214.812	61.95
215.031	45.57
215.249	-1.54
215.467	18.94
215.686	-1.54
215.904	-26.11
216.122	121.34
216.341	55.81
216.559	104.96
216.778	31.23
216.996	47.62
217.214	-24.06
217.432	-5.63
217.651	6.66
217.869	-1.54
218.087	-1.54
218.306	37.38
218.524	41.47
218.742	27.14
218.96	90.62
219.179	4.61
219.397	90.62
219.615	133.63
219.833	41.47
220.051	-50.69
220.27	66.05
220.488	-13.82
220.706	6.66
220.924	31.23
221.142	55.81
221.36	27.14
221.578	-5.63
221.796	10.75
222.015	47.62
222.233	31.23
222.451	45.57
222.669	8.7
222.887	61.95
223.105	8.7
223.323	12.8
223.541	14.85
223.759	72.19
223.977	31.23
224.195	8.7
224.413	59.9
224.631	102.91
224.849	80.38
225.067	55.81
225.285	-17.92
225.503	10.75
225.721	-9.73
225.939	14.85
226.157	80.38
226.375	88.57
226.592	64
226.81	84.48
227.028	47.62
227.246	90.62
227.464	-40.45
227.682	70.14
227.9	8.7
228.117	23.04
228.335	39.42
228.553	-1.54
228.771	41.47
228.989	121.34
229.206	35.33
229.424	-17.92
229.642	41.47
229.86	10.75
230.077	55.81
230.295	37.38
230.513	61.95
230.731	90.62
230.948	59.9
231.166	74.24
231.384	20.99
231.601	6.66
231.819	33.28
232.037	-13.82
232.254	14.85
232.472	100.86
232.689	88.57
232.907	14.85
233.125	82.43
233.342	57.86
233.56	47.62
233.777	41.47
233.995	2.56
234.213	59.9
234.43	10.75
234.648	66.05
234.865	8.7
235.083	88.57
235.3	31.23
235.518	102.91
235.735	64
235.953	33.28
236.17	31.23
236.388	64
236.605	51.71
236.822	18.94
237.04	129.53
237.257	39.42
237.475	6.66
237.692	16.9
237.909	39.42
238.127	92.67
238.344	25.09
238.562	31.23
238.779	31.23
238.996	47.62
239.214	18.94
239.431	16.9
239.648	-40.45
239.865	-7.68
240.083	68.09
240.3	-5.63
240.517	31.23
240.735	2.56
240.952	59.9
241.169	72.19
241.386	57.86
241.603	12.8
241.821	14.85
242.038	53.76
242.255	-1.54
242.472	59.9
242.689	68.09
242.907	121.34
243.124	-50.69
243.341	-7.68
243.558	6.66
243.775	14.85
243.992	-9.73
244.209	2.56
244.426	129.53
244.643	96.77
244.86	2.56
245.078	64
245.295	64
245.512	43.52
245.729	35.33
245.946	43.52
246.163	84.48
246.38	-26.11
246.597	33.28
246.814	37.38
247.031	-48.64
247.248	-54.78
247.464	27.14
247.681	125.44
247.898	51.71
248.115	43.52
248.332	2.56
248.549	72.19
248.766	147.97
248.983	66.05
249.2	51.71
249.417	33.28
249.633	-62.98
249.85	64
250.067	72.19
250.284	-5.63
250.501	100.86
250.717	121.34
250.934	14.85
251.151	64
251.368	47.62
251.585	51.71
251.801	84.48
252.018	4.61
252.235	33.28
252.451	47.62
252.668	102.91
252.885	57.86
253.102	88.57
253.318	47.62
253.535	35.33
253.752	131.58
253.968	35.33
254.185	45.57
254.401	-1.54
254.618	74.24
254.835	14.85
255.051	43.52
255.268	33.28
255.484	-17.92
255.701	-34.3
255.917	41.47
256.134	12.8
256.351	68.09
256.567	76.29
256.784	23.04
257	96.77
257.217	27.14
257.433	49.66
257.65	35.33
257.866	119.29
258.082	47.62
258.299	-28.16
258.515	43.52
258.732	66.05
258.948	0.51
259.165	92.67
259.381	55.81
259.597	23.04
259.814	4.61
260.03	43.52
260.246	6.66
260.463	-42.5
260.679	-1.54
260.895	55.81
261.112	96.77
261.328	-24.06
261.544	90.62
261.761	129.53
261.977	-15.87
262.193	27.14
262.409	84.48
262.626	72.19
262.842	31.23
263.058	-7.68
263.274	16.9
263.49	31.23
263.707	43.52
263.923	107.01
264.139	-38.4
264.355	88.57
264.571	64
264.787	31.23
265.004	88.57
265.22	41.47
265.436	6.66
265.652	-22.02
265.868	80.38
266.084	-50.69
266.3	39.42
266.516	0.51
266.732	64
266.948	14.85
267.164	80.38
267.38	29.18
267.596	90.62
267.812	57.86
268.028	33.28
268.244	23.04
268.46	6.66
268.676	14.85
268.892	-26.11
269.108	-17.92
269.324	98.81
269.54	29.18
269.756	51.71
269.972	57.86
270.188	80.38
270.403	14.85
270.619	121.34
270.835	55.81
271.051	8.7
271.267	68.09
271.483	8.7
271.698	90.62
271.914	86.53
272.13	41.47
272.346	-1.54
272.562	-17.92
272.777	98.81
272.993	8.7
273.209	47.62
273.425	14.85
273.64	20.99
273.856	14.85
274.072	80.38
274.287	-17.92
274.503	68.09
274.719	49.66
274.934	68.09
275.15	27.14
275.366	90.62
275.581	72.19
275.797	98.81
276.012	37.38
276.228	-36.35
276.444	10.75
276.659	31.23
276.875	82.43
277.09	107.01
277.306	72.19
277.521	57.86
277.737	23.04
277.952	123.39
278.168	45.57
278.383	49.66
278.599	49.66
278.814	64
279.03	66.05
279.245	92.67
279.461	90.62
279.676	45.57
279.892	27.14
280.107	27.14
280.322	55.81
280.538	90.62
280.753	8.7
280.969	66.05
281.184	-13.82
281.399	92.67
281.615	18.94
281.83	72.19
282.045	-17.92
282.26	27.14
282.476	66.05
282.691	107.01
282.906	27.14
283.122	41.47
283.337	-1.54
283.552	-17.92
283.767	-40.45
283.983	92.67
284.198	2.56
284.413	39.42
284.628	53.76
284.843	47.62
285.058	20.99
285.274	0.51
285.489	27.14
285.704	68.09
285.919	18.94
286.134	0.51
286.349	29.18
286.564	2.56
286.779	84.48
286.995	14.85
287.21	43.52
287.425	6.66
287.64	-42.5
287.855	41.47
288.07	6.66
288.285	14.85
288.5	59.9
288.715	64
288.93	16.9
289.145	8.7
289.36	10.75
289.575	6.66
289.79	41.47
290.004	35.33
290.219	104.96
290.434	8.7
290.649	-22.02
290.864	68.09
291.079	10.75
291.294	72.19
291.509	-26.11
291.724	-11.78
291.938	-24.06
292.153	39.42
292.368	43.52
292.583	-24.06
292.798	45.57
293.012	4.61
293.227	61.95
293.442	8.7
293.657	74.24
293.871	78.33
294.086	104.96
294.301	64
294.516	92.67
294.73	23.04
294.945	-50.69
295.16	-1.54
295.374	59.9
295.589	96.77
295.804	-67.07
296.018	61.95
296.233	70.14
296.447	-3.58
296.662	39.42
296.877	-32.26
297.091	66.05
297.306	53.76
297.52	33.28
297.735	14.85
297.949	84.48
298.164	39.42
298.378	31.23
298.593	18.94
298.807	-26.11
299.022	57.86
299.236	20.99
299.451	59.9
299.665	-19.97
299.88	23.04
300.094	43.52
300.309	25.09
300.523	6.66
300.737	43.52
300.952	8.7
301.166	33.28
301.381	-26.11
301.595	14.85
301.809	20.99
302.024	59.9
302.238	-36.35
302.452	96.77
302.667	27.14
302.881	-7.68
303.095	102.91
303.309	55.81
303.524	-38.4
303.738	23.04
303.952	-11.78
304.166	82.43
304.381	-13.82
304.595	109.05
304.809	64
305.023	64
305.237	47.62
305.452	8.7
305.666	72.19
305.88	12.8
306.094	123.39
306.308	90.62
306.522	84.48
306.736	47.62
306.95	82.43
307.164	64
307.379	74.24
307.593	51.71
307.807	25.09
308.021	14.85
308.235	70.14
308.449	51.71
308.663	-50.69
308.877	92.67
309.091	64
309.305	-5.63
309.519	-13.82
309.733	117.25
309.947	-26.11
310.161	27.14
310.374	90.62
310.588	190.97
310.802	16.9
311.016	29.18
311.23	66.05
311.444	-15.87
311.658	-17.92
311.872	18.94
312.085	14.85
312.299	96.77
312.513	104.96
312.727	49.66
312.941	-87.55
313.154	33.28
313.368	14.85
313.582	39.42
313.796	96.77
314.009	6.66
314.223	10.75
314.437	47.62
314.651	8.7
314.864	39.42
315.078	104.96
315.292	33.28
315.505	82.43
315.719	47.62
315.933	29.18
316.146	84.48
316.36	66.05
316.573	66.05
316.787	37.38
317.001	51.71
317.214	23.04
317.428	49.66
317.641	23.04
317.855	25.09
318.068	90.62
318.282	25.09
318.495	86.53
318.709	47.62
318.922	14.85
319.136	86.53
319.349	96.77
319.563	27.14
319.776	-9.73
319.99	-7.68
320.203	74.24
320.417	90.62
320.63	27.14
320.843	35.33
321.057	96.77
321.27	53.76
321.483	39.42
321.697	47.62
321.91	27.14
322.124	-26.11
322.337	10.75
322.55	25.09
322.763	70.14
322.977	51.71
323.19	64
323.403	31.23
323.617	55.81
323.83	100.86
324.043	31.23
324.256	76.29
324.469	10.75
324.683	88.57
324.896	51.71
325.109	49.66
325.322	14.85
325.535	41.47
325.748	82.43
325.962	64
326.175	-9.73
326.388	86.53
326.601	121.34
326.814	-26.11
327.027	68.09
327.24	88.57
327.453	-5.63
327.666	41.47
327.879	14.85
328.092	35.33
328.305	57.86
328.518	2.56
328.731	20.99
328.944	-5.63
329.157	88.57
329.37	-69.12
329.583	14.85
329.796	115.2
330.009	23.04
330.222	125.44
330.435	39.42
330.648	98.81
330.861	-38.4
331.073	39.42
331.286	88.57
331.499	39.42
331.712	27.14
331.925	113.15
332.138	12.8
332.35	72.19
332.563	-17.92
332.776	141.82
332.989	20.99
333.202	-1.54
333.414	-9.73
333.627	66.05
333.84	8.7
334.053	84.48
334.265	18.94
334.478	25.09
334.691	-1.54
334.903	39.42
335.116	-69.12
335.329	70.14
335.541	51.71
335.754	131.58
335.966	35.33
336.179	64
336.392	2.56
336.604	2.56
336.817	74.24
337.029	82.43
337.242	25.09
337.454	41.47
337.667	51.71
337.88	68.09
338.092	162.3
338.305	45.57
338.517	10.75
338.729	88.57
338.942	100.86
339.154	-17.92
339.367	47.62
339.579	72.19
339.792	55.81
340.004	47.62
340.217	33.28
340.429	39.42
340.641	-9.73
340.854	31.23
341.066	-13.82
341.278	68.09
341.491	125.44
341.703	-1.54
341.915	2.56
342.128	35.33
342.34	51.71
342.552	-81.41
342.764	33.28
342.977	55.81
343.189	55.81
343.401	76.29
343.613	47.62
343.826	113.15
344.038	72.19
344.25	113.15
344.462	47.62
344.674	-1.54
344.886	55.81
345.099	64
345.311	72.19
345.523	47.62
345.735	14.85
345.947	43.52
346.159	68.09
346.371	45.57
346.583	14.85
346.795	92.67
347.007	96.77
347.219	82.43
347.431	41.47
347.643	139.77
347.855	80.38
348.067	55.81
348.279	66.05
348.491	72.19
348.703	64
348.915	31.23
349.127	49.66
349.339	-11.78
349.551	-40.45
349.763	41.47
349.975	6.66
350.187	74.24
350.399	70.14
350.61	86.53
350.822	88.57
351.034	31.23
351.246	16.9
351.458	51.71
351.669	-19.97
351.881	39.42
352.093	68.09
352.305	27.14
352.517	104.96
352.728	27.14
352.94	104.96
353.152	41.47
353.363	-79.36
353.575	23.04
353.787	76.29
353.999	113.15
354.21	98.81
354.422	35.33
354.633	10.75
354.845	6.66
355.057	64
355.268	37.38
355.48	72.19
355.692	72.19
355.903	80.38
356.115	-9.73
356.326	39.42
356.538	47.62
356.749	37.38
356.961	49.66
357.172	59.9
357.384	92.67
357.595	76.29
357.807	66.05
358.018	14.85
358.23	25.09
358.441	57.86
358.653	72.19
358.864	80.38
359.075	92.67
359.287	23.04
359.498	96.77
359.709	92.67
359.921	47.62
360.132	14.85
360.344	39.42
360.555	6.66
360.766	0.51
360.977	96.77
361.189	55.81
361.4	29.18
361.611	66.05
361.823	115.2
362.034	-17.92
362.245	76.29
362.456	98.81
362.667	86.53
362.879	98.81
363.09	25.09
363.301	107.01
363.512	31.23
363.723	47.62
363.935	84.48
364.146	104.96
364.357	25.09
364.568	68.09
364.779	39.42
364.99	178.69
365.201	23.04
365.412	90.62
365.623	-30.21
365.834	16.9
366.045	39.42
366.256	8.7
366.467	43.52
366.678	47.62
366.889	64
367.1	57.86
367.311	23.04
367.522	72.19
367.733	49.66
367.944	137.73
368.155	55.81
368.366	25.09
368.577	72.19
368.788	92.67
368.999	23.04
369.209	104.96
369.42	109.05
369.631	78.33
369.842	66.05
370.053	8.7
370.264	104.96
370.474	-17.92
370.685	80.38
370.896	104.96
371.107	94.72
371.317	80.38
371.528	31.23
371.739	53.76
371.95	43.52
372.16	80.38
372.371	41.47
372.582	-73.21
372.792	49.66
373.003	113.15
373.214	55.81
373.424	119.29
373.635	64
373.846	98.81
374.056	-13.82
374.267	18.94
374.477	104.96
374.688	39.42
374.898	49.66
375.109	-1.54
375.319	88.57
375.53	82.43
375.74	23.04
375.951	72.19
376.161	68.09
376.372	121.34
376.582	35.33
376.793	39.42
377.003	12.8
377.214	43.52
377.424	68.09
377.635	-9.73
377.845	14.85
378.055	131.58
378.266	20.99
378.476	39.42
378.686	64
378.897	49.66
379.107	76.29
379.317	-9.73
379.528	-7.68
379.738	76.29
379.948	6.66
380.158	47.62
380.369	64
380.579	86.53
380.789	115.2
380.999	64
381.21	25.09
381.42	64
381.63	43.52
381.84	137.73
382.05	66.05
382.261	76.29
382.471	113.15
382.681	0.51
382.891	64
383.101	111.1
383.311	-9.73
383.521	39.42
383.731	100.86
383.941	53.76
384.151	-17.92
384.361	80.38
384.571	39.42
384.781	96.77
384.991	88.57
385.201	121.34
385.411	133.63
385.621	96.77
385.831	47.62
386.041	100.86
386.251	80.38
386.461	23.04
386.671	68.09
386.881	84.48
387.091	96.77
387.301	66.05
387.511	-5.63
387.72	129.53
387.93	59.9
388.14	57.86
388.35	55.81
388.56	96.77
388.769	64
388.979	150.01
389.189	8.7
389.399	45.57
389.609	166.4
389.818	141.82
390.028	123.39
390.238	117.25
390.447	125.44
390.657	88.57
390.867	82.43
391.076	55.81
391.286	113.15
391.496	39.42
391.705	55.81
391.915	121.34
392.125	31.23
392.334	96.77
392.544	23.04
392.753	131.58
392.963	84.48
393.172	121.34
393.382	72.19
393.591	76.29
393.801	49.66
394.01	104.96
394.22	72.19
394.429	121.34
394.639	27.14
394.848	131.58
395.058	172.54
395.267	96.77
395.477	64
395.686	43.52
395.895	125.44
396.105	96.77
396.314	82.43
396.524	55.81
396.733	51.71
396.942	133.63
397.152	47.62
397.361	84.48
397.57	84.48
397.78	96.77
397.989	84.48
398.198	193.02
398.407	55.81
398.617	66.05
398.826	64
399.035	18.94
399.244	72.19
399.453	109.05
399.663	109.05
399.872	203.26
400.081	70.14
400.29	80.38
400.499	104.96
400.708	31.23
400.917	90.62
401.127	80.38
401.336	137.73
401.545	80.38
401.754	133.63
401.963	80.38
402.172	123.39
402.381	88.57
402.59	129.53
402.799	104.96
403.008	219.64
403.217	137.73
403.426	166.4
403.635	82.43
403.844	137.73
404.053	195.07
404.262	131.58
404.471	203.26
404.68	215.55
404.888	123.39
405.097	150.01
405.306	133.63
405.515	170.49
405.724	176.64
405.933	199.16
406.142	182.78
406.35	180.73
406.559	102.91
406.768	213.5
406.977	254.46
407.185	145.92
407.394	276.99
407.603	162.3
407.812	195.07
408.02	225.79
408.229	260.6
408.438	162.3
408.646	188.93
408.855	160.25
409.064	154.11
409.272	287.23
409.481	236.03
409.69	250.36
409.898	256.51
410.107	317.95
410.315	272.89
410.524	285.18
410.733	354.81
410.941	350.71
411.15	350.71
411.358	301.56
411.567	408.06
411.775	377.34
411.984	350.71
412.192	358.91
412.401	442.87
412.609	408.06
412.818	453.11
413.026	430.59
413.234	510.46
413.443	485.88
413.651	446.97
413.86	524.79
414.068	637.43
414.276	571.9
414.485	492.02
414.693	459.26
414.901	659.96
415.11	516.6
415.318	578.04
415.526	547.32
415.734	569.85
415.943	602.61
416.151	702.97
416.359	719.35
416.567	690.68
416.776	754.16
416.984	760.31
417.192	819.7
417.4	729.59
417.608	690.68
417.817	874.99
418.025	926.19
418.233	999.92
418.441	918
418.649	985.58
418.857	1038.83
419.065	1096.18
419.273	1055.22
419.481	1087.98
419.689	1188.33
419.897	1282.54
420.105	1118.7
420.313	1372.65
420.521	1425.9
420.729	1466.86
420.937	1450.47
421.145	1466.86
421.353	1534.44
421.561	1563.11
421.769	1718.76
421.977	1579.5
422.185	1671.65
422.393	1761.77
422.601	1878.5
422.809	1796.58
423.017	1870.31
423.224	1939.94
423.432	2038.24
423.64	1997.28
423.848	2183.65
424.056	2046.43
424.263	2202.08
424.471	2302.43
424.679	2415.07
424.887	2490.84
425.094	2564.57
425.302	2644.44
425.51	2568.66
425.718	2730.45
425.925	2857.43
426.133	2898.39
426.341	2910.68
426.548	3236.3
426.756	3078.61
426.964	3318.22
427.171	3373.52
427.379	3525.07
427.586	3539.4
427.794	3668.42
428.001	3828.17
428.209	3869.12
428.417	3905.99
428.624	4186.56
428.832	4151.74
429.039	4147.65
429.247	4188.61
429.454	4587.96
429.662	5024.18
429.869	4516.28
430.076	4989.36
430.284	4846.01
430.491	4970.93
430.699	5153.2
430.906	5349.81
431.114	5231.02
431.321	5519.79
431.528	5632.43
431.736	6070.69
431.943	6209.95
432.15	6091.17
432.358	6185.38
432.565	6396.32
432.772	6250.91
432.979	6758.81
433.187	6922.65
433.394	6871.45
433.601	7233.94
433.808	7448.97
434.016	7489.93
434.223	7612.81
434.43	8077.7
434.637	8059.27
434.844	8415.62
435.052	8669.56
435.259	8671.61
435.466	8608.12
435.673	8567.17
435.88	9150.84
436.087	9410.93
436.294	9511.28
436.501	9169.27
436.708	9740.65
436.915	9783.66
437.122	10391.91
437.329	10262.88
437.537	10611.04
437.743	10875.23
437.95	10797.4
438.157	11376.98
438.364	11966.79
438.571	11589.97
438.778	11788.62
438.985	12769.6
439.192	12300.61
439.399	12613.95
439.606	12472.64
439.813	13007.16
440.02	14006.57
440.227	13664.56
440.433	13482.29
440.64	13889.84
440.847	13707.57
441.054	14100.78
441.261	15087.9
441.467	15065.37
441.674	15282.45
441.881	15735.06
442.088	15761.68
442.294	15810.83
442.501	15798.54
442.708	16312.58
442.914	17049.85
443.121	17897.71
443.328	17330.42
443.534	18290.92
443.741	17959.15
443.948	17572.08
444.154	19120.35
444.361	18766.05
444.568	19065.05
444.774	18815.2
444.981	19253.47
445.187	19841.23
445.394	20646.08
445.6	20601.03
445.807	22266.03
446.013	21303.48
446.22	21723.32
446.426	22806.69
446.633	22659.24
446.839	23742.61
447.046	22562.98
447.252	24023.19
447.459	24017.04
447.665	24207.5
447.871	24856.71
448.078	26220.66
448.284	24971.39
448.491	25796.73
448.697	26364.01
448.903	26871.91
449.11	27254.88
449.316	26548.33
449.522	27246.69
449.728	28147.79
449.935	28168.27
450.141	28213.33
450.347	28842.06
450.553	27666.52
450.76	28702.79
450.966	29200.45
451.172	29343.81
451.378	29978.68
451.584	29349.95
451.791	30230.58
451.997	29970.49
452.203	30412.85
452.409	30552.11
452.615	30355.5
452.821	29179.97
453.027	28895.3
453.233	30627.88
453.44	29300.8
453.646	29376.58
453.852	29618.24
454.058	30220.34
454.264	29235.27
454.47	30148.66
454.676	29098.05
454.882	30181.43
455.088	27445.34
455.294	28162.13
455.5	28762.19
455.705	29057.09
455.911	27687
456.117	27299.94
456.323	26890.34
456.529	25208.96
456.735	26759.27
456.941	25946.23
457.147	25630.84
457.352	24758.41
457.558	24610.95
457.764	24938.63
457.97	24416.4
458.176	23521.43
458.381	23859.35
458.587	22593.7
458.793	22716.58
458.999	21395.64
459.204	22962.34
459.41	22397.1
459.616	20564.17
459.821	21039.29
460.027	20828.35
460.233	20175.05
460.438	19458.26
460.644	19724.5
460.85	18782.43
461.055	18471.14
461.261	18526.44
461.466	17361.14
461.672	16421.13
461.878	17647.86
462.083	16609.54
462.289	16259.34
462.494	16027.92
462.7	15554.83
462.905	15231.26
463.111	15446.29
463.316	15501.59
463.522	15137.05
463.727	15380.76
463.932	15296.79
464.138	15003.93
464.343	15366.42
464.549	14784.8
464.754	15071.51
464.959	15157.53
465.165	14962.97
465.37	14348.58
465.575	13941.04
465.781	14739.74
465.986	14735.65
466.191	14172.46
466.397	13740.33
466.602	13062.46
466.807	13736.24
467.012	13631.79
467.218	13424.95
467.423	13318.45
467.628	13418.8
467.833	14311.72
468.038	13521.2
468.244	13254.97
468.449	13793.58
468.654	13566.26
468.859	13396.28
469.064	13138.23
469.269	12403.01
469.474	12900.67
469.679	13076.79
469.885	12802.36
470.09	12910.91
470.295	12755.26
470.5	12540.22
470.705	12585.28
470.91	12224.84
471.115	12200.26
471.32	12243.27
471.525	12237.13
471.73	11823.44
471.935	11876.68
472.139	11352.4
472.344	11665.74
472.549	11544.91
472.754	11393.36
472.959	11149.65
473.164	10934.62
473.369	10854.75
473.574	11094.36
473.778	11102.55
473.983	10774.88
474.188	10920.28
474.393	10582.37
474.598	10467.68
474.802	10508.64
475.007	10365.28
475.212	10256.74
475.417	10002.79
475.621	10062.18
475.826	10092.9
476.031	9816.43
476.235	9777.51
476.44	9822.57
476.645	9445.74
476.849	9679.21
477.054	9519.47
477.259	9406.83
477.463	9435.5
477.668	9275.76
477.872	9304.43
478.077	9183.6
478.282	8798.59
478.486	8829.31
478.691	8665.47
478.895	8702.33
479.1	8663.42
479.304	8692.09
479.509	8405.38
479.713	8548.73
479.918	8419.71
480.122	8200.58
480.326	8427.9
480.531	8380.8
480.735	8335.74
480.94	8206.72
481.144	8542.59
481.348	8178.05
481.553	8206.72
481.757	8049.03
481.961	8169.86
482.166	8178.05
482.37	8182.15
482.574	7874.95
482.778	7946.63
482.983	8202.63
483.187	7936.39
483.391	8010.12
483.595	8034.69
483.8	8063.36
484.004	7995.78
484.208	8182.15
484.412	8069.51
484.616	8143.24
484.821	7969.16
485.025	7772.55
485.229	8167.81
485.433	7952.77
485.637	7965.06
485.841	7760.27
486.045	7985.54
486.249	8118.66
486.453	7872.9
486.657	7973.25
486.861	7971.21
487.065	7772.55
487.269	8079.75
487.473	8094.08
487.677	8190.34
487.881	8362.37
488.085	8151.43
488.289	7999.88
488.493	7864.71
488.697	8489.34
488.901	8038.79
489.105	8337.79
489.309	8227.2
489.512	8036.74
489.716	8190.34
489.92	8257.92
490.124	8116.61
490.328	8432
490.531	8292.74
490.735	8302.98
490.939	8458.62
491.143	8364.42
491.346	8403.33
491.55	8505.73
491.754	8487.29
491.958	8544.64
492.161	8524.16
492.365	8528.25
492.569	8634.75
492.772	8669.56
492.976	8632.7
493.18	8866.17
493.383	8909.18
493.587	9075.06
493.79	9214.32
493.994	8792.44
494.197	8907.13
494.401	8978.81
494.605	8939.9
494.808	9329.01
495.012	9212.28
495.215	9509.23
495.419	9398.64
495.622	9251.19
495.825	9478.51
496.029	9732.46
496.232	9660.78
496.436	9599.34
496.639	9869.67
496.843	10090.85
497.046	10152.29
497.249	10109.29
497.453	10477.92
497.656	10500.45
497.859	10594.65
498.063	10525.02
498.266	10746.2
498.469	10877.27
498.673	10680.67
498.876	11155.8
499.079	11155.8
499.282	11319.64
499.485	11555.15
499.689	11417.94
499.892	11708.75
500.095	11655.5
500.298	12069.19
500.501	11692.37
500.705	12171.59
500.908	12415.3
501.111	12593.47
501.314	12618.05
501.517	12755.26
501.72	13156.66
501.923	13048.12
502.126	13224.25
502.329	13375.8
502.532	13596.98
502.735	13646.13
502.938	13941.04
503.141	13898.03
503.344	14186.79
503.547	14301.48
503.75	14307.62
503.953	14733.6
504.156	14866.72
504.359	15155.48
504.562	14960.92
504.765	15589.65
504.968	15540.5
505.17	15776.02
505.373	15749.39
505.576	16183.56
505.779	16324.87
505.982	16374.02
506.185	16613.63
506.387	16914.69
506.59	17021.18
506.793	17355
506.996	17154.3
507.198	17733.87
507.401	17858.8
507.604	17924.33
507.807	18323.69
508.009	18512.1
508.212	18643.17
508.415	18819.3
508.617	18923.74
508.82	19478.74
509.022	18860.26
509.225	19658.96
509.428	19808.47
509.63	19845.33
509.833	19914.96
510.035	20359.37
510.238	20510.92
510.44	20826.31
510.643	21115.07
510.845	21424.31
511.048	21266.62
511.25	21665.97
511.453	22012.08
511.655	22454.44
511.858	22315.18
512.06	22702.25
512.262	22864.04
512.465	22796.45
512.667	23019.68
512.87	23412.89
513.072	23558.3
513.274	23822.48
513.477	24150.16
513.679	24461.45
513.881	24678.54
514.084	24811.65
514.286	24821.89
514.488	25227.39
514.69	25473.15
514.893	25843.83
515.095	26007.67
515.297	26462.32
515.499	26310.77
515.701	26880.1
515.904	27062.37
516.106	27213.92
516.308	27467.87
516.51	27844.7
516.712	27650.14
516.914	28170.32
517.116	28739.66
517.318	29040.71
517.52	28971.08
517.722	29208.64
517.925	29599.8
518.127	29681.72
518.329	29794.36
518.531	30005.3
518.733	30636.08
518.935	31137.83
519.136	30928.94
519.338	31510.56
519.54	31739.93
519.742	31782.94
519.944	31862.81
520.146	32294.93
520.348	32786.44
520.55	32555.02
520.752	32657.42
520.954	33398.79
521.155	33267.72
521.357	34039.8
521.559	33816.57
521.761	34457.59
521.963	34478.07
522.164	34828.27
522.366	34699.25
522.568	34942.95
522.77	35366.88
522.971	35786.72
523.173	35428.32
523.375	35837.92
523.576	35917.79
523.778	36081.63
523.98	36857.81
524.181	36698.06
524.383	36251.61
524.584	37062.6
524.786	37265.35
524.988	37064.65
525.189	37697.47
525.391	37740.48
525.592	37859.26
525.794	37904.32
525.995	38236.09
526.197	38078.39
526.398	38354.87
526.6	38739.89
526.801	38836.14
527.003	38789.04
527.204	39075.76
527.406	39358.38
527.607	39159.72
527.808	39210.92
528.01	39002.03
528.211	39190.44
528.412	40314.78
528.614	39956.38
528.815	39903.14
529.016	40247.19
529.218	40247.19
529.419	40230.81
529.62	40032.16
529.822	40404.89
530.023	40566.68
530.224	40390.55
530.425	40392.6
530.626	40365.98
530.828	40155.04
531.029	40867.73
531.23	40869.78
531.431	40312.73
531.632	40888.21
531.833	40912.78
532.035	40998.8
532.236	41027.47
532.437	41322.38
532.638	40800.15
532.839	40978.32
533.04	41338.76
533.241	41011.09
533.442	42116.99
533.643	41179.02
533.844	40861.58
534.045	41447.3
534.246	40773.52
534.447	41641.86
534.648	41174.92
534.849	41236.36
535.05	40867.73
535.251	41035.66
535.451	41461.64
535.652	41832.32
535.853	41660.29
536.054	41213.84
536.255	41301.9
536.456	40963.98
536.657	42114.94
536.857	41299.85
537.058	40904.59
537.259	41420.68
537.46	41619.33
537.66	41480.07
537.861	41494.41
538.062	41387.91
538.263	41265.03
538.463	41224.07
538.664	41273.23
538.865	41658.24
539.065	41549.7
539.266	41099.15
539.466	41799.55
539.667	40986.51
539.868	41879.42
540.068	41072.53
540.269	41471.88
540.469	41942.91
540.67	41457.54
540.87	40888.21
541.071	41267.08
541.271	41406.34
541.472	41537.41
541.672	41287.56
541.873	41627.52
542.073	40732.56
542.274	41330.57
542.474	41240.46
542.675	40935.31
542.875	41580.42
543.075	41314.19
543.276	40566.68
543.476	41465.74
543.676	40898.45
543.877	41068.43
544.077	41121.68
544.277	41265.03
544.478	40986.51
544.678	41308.04
544.878	40976.27
545.078	41295.75
545.279	41238.41
545.479	40839.06
545.679	41447.3
545.879	41359.24
546.079	41146.25
546.28	40984.46
546.48	40408.98
546.68	41205.64
546.88	41127.82
547.08	40935.31
547.28	41037.71
547.48	40615.83
547.68	41011.09
547.88	40834.96
548.081	41140.11
548.281	41086.86
548.481	41015.18
548.681	41308.04
548.881	41209.74
549.081	40771.47
549.28	40761.23
549.48	40961.93
549.68	40451.99
549.88	41332.62
550.08	40449.94
550.28	41025.42
550.48	40849.3
550.68	40740.75
550.88	40841.1
551.08	40738.71
551.279	40972.17
551.479	40681.36
551.679	40746.9
551.879	40830.86
552.079	40898.45
552.278	40718.23
552.478	40998.8
552.678	40507.29
552.878	40927.12
553.077	40925.07
553.277	40269.72
553.477	41070.48
553.676	40605.59
553.876	40382.36
554.076	40480.66
554.275	40601.49
554.475	40177.56
554.674	40044.44
554.874	40372.12
555.074	40382.36
555.273	40304.54
555.473	40578.96
555.672	40003.49
555.872	40198.04
556.071	39886.75
556.271	40361.88
556.47	40298.39
556.67	39694.24
556.869	39839.65
557.068	40003.49
557.268	39595.94
557.467	40007.58
557.667	40105.88
557.866	39896.99
558.065	39995.29
558.265	39655.33
558.464	39786.4
558.663	40144.8
558.863	39438.25
559.062	39575.46
559.261	39315.37
559.461	40052.64
559.66	39352.23
559.859	39272.36
560.058	39675.81
560.258	39528.36
560.457	38883.25
560.656	39436.2
560.855	39327.66
561.054	39331.75
561.253	38692.79
561.453	39061.42
561.652	38995.88
561.851	38967.21
562.05	38803.38
562.249	38879.15
562.448	39186.35
562.647	38668.21
562.846	38559.67
563.045	38959.02
563.244	38447.03
563.443	38432.69
563.642	38369.21
563.841	38387.64
564.04	37887.93
564.239	38838.19
564.438	38473.65
564.637	38492.08
564.836	38285.24
565.035	37793.73
565.234	38516.66
565.432	37906.37
565.631	37763.01
565.83	38086.59
566.029	37910.46
566.228	37674.95
566.427	37683.14
566.625	37263.3
566.824	37263.3
567.023	37435.33
567.222	36724.69
567.42	37783.49
567.619	37044.17
567.818	37377.99
568.016	37054.41
568.215	37449.67
568.414	37105.61
568.612	37353.41
568.811	37171.14
569.01	36960.2
569.208	36679.63
569.407	36974.54
569.605	36435.92
569.804	36847.57
570.002	36040.67
570.201	36497.36
570.4	36151.26
570.598	36163.54
570.797	36063.19
570.995	35887.07
571.193	35899.36
571.392	36208.6
571.59	35608.54
571.789	35856.35
571.987	35491.81
572.186	35590.11
572.384	35383.27
572.582	35352.55
572.781	35698.66
572.979	34906.09
573.177	35358.69
573.376	35614.69
573.574	35221.48
573.772	35049.45
573.971	34815.98
574.169	34482.16
574.367	34551.79
574.565	34676.72
574.763	34689.01
574.962	34523.12
575.16	34177.01
575.358	34437.11
575.556	34400.24
575.754	34566.13
575.952	33927.16
576.151	34283.51
576.349	33708.03
576.547	33726.46
576.745	33785.85
576.943	33632.25
577.141	33892.35
577.339	33480.71
577.537	33609.73
577.735	33628.16
577.933	32993.29
578.131	32899.08
578.329	33126.41
578.527	32651.28
578.725	33302.53
578.923	33122.31
579.121	32714.76
579.319	32653.33
579.516	32845.83
579.714	32534.54
579.912	32526.35
580.11	32589.84
580.308	32532.5
580.506	32256.02
580.704	31899.67
580.901	32094.23
581.099	32286.74
581.297	31977.5
581.495	31686.68
581.692	32094.23
581.89	31410.21
582.088	32079.89
582.285	31723.55
582.483	31557.66
582.681	31551.52
582.878	31223.84
583.076	31254.56
583.274	31508.51
583.471	31168.55
583.669	31045.67
583.866	30832.68
584.064	31127.59
584.262	30128.18
584.459	31146.02
584.657	30812.2
584.854	30902.31
585.052	30027.83
585.249	30615.6
585.447	30435.38
585.644	30134.32
585.841	30189.62
586.039	30007.35
586.236	29941.82
586.434	29722.68
586.631	29550.65
586.828	29847.61
587.026	29818.94
587.223	29435.97
587.42	29589.56
587.618	29587.52
587.815	29368.38
588.012	29098.05
588.21	29093.96
588.407	29259.84
588.604	28874.82
588.801	28459.09
588.999	28866.63
589.196	28686.41
589.393	29048.9
589.59	28782.66
589.787	28381.26
589.984	28422.22
590.182	28061.78
590.379	28360.78
590.576	28219.47
590.773	28155.99
590.97	28086.36
591.167	28072.02
591.364	27775.06
591.561	27965.53
591.758	27611.23
591.955	27705.43
592.152	27902.04
592.349	27562.08
592.546	27385.95
592.743	27222.11
592.94	26810.47
593.137	27230.3
593.334	27457.63
593.531	26835.05
593.727	26865.77
593.924	27226.21
594.121	26728.55
594.318	27078.75
594.515	26548.33
594.712	26712.17
594.908	26226.8
595.105	26542.19
595.302	26275.95
595.499	26398.83
595.696	26142.83
595.892	26083.44
596.089	26296.43
596.286	26011.76
596.482	26065.01
596.679	25714.81
596.876	25714.81
597.072	25796.73
597.269	25727.1
597.466	25485.44
597.662	25278.59
597.859	25413.76
598.055	25514.11
598.252	24987.78
598.448	25163.9
598.645	24739.97
598.841	25014.4
599.038	24817.8
599.234	24963.2
599.431	24537.23
599.627	24608.9
599.824	24801.41
600.02	24594.57
600.217	24742.02
600.413	24342.67
600.609	24510.6
600.806	24127.63
601.002	24361.1
601.198	24252.56
601.395	23693.46
601.591	23814.29
601.787	24123.54
601.984	23703.7
602.18	24006.8
602.376	23662.74
602.572	23609.5
602.769	23883.92
602.965	23507.1
603.161	23611.54
603.357	23216.29
603.553	23259.29
603.75	23402.65
603.946	22835.36
604.142	22970.53
604.338	22694.05
604.534	23077.02
604.73	22712.49
604.926	22614.18
605.122	22866.08
605.318	22855.84
605.514	22569.13
605.71	22319.28
605.906	22689.96
606.102	22292.65
606.298	22479.02
606.494	22282.41
606.69	22530.22
606.886	22139.05
607.082	21672.12
607.278	22120.62
607.474	21723.32
607.67	22302.89
607.866	21575.86
608.062	21854.39
608.257	21762.23
608.453	21870.77
608.649	21821.62
608.845	21412.03
609.041	21461.18
609.236	21625.01
609.432	21674.17
609.628	21428.41
609.824	21530.81
610.019	21293.24
610.215	21328.06
610.411	21604.53
610.606	21131.45
610.802	21117.12
610.998	20955.33
611.193	21070.01
611.389	20807.87
611.584	20828.35
611.78	20404.42
611.976	20922.56
612.171	20891.84
612.367	20431.05
612.562	20723.91
612.758	20584.65
612.953	20334.79
613.149	20904.13
613.344	20449.48
613.539	20719.81
613.735	20441.29
613.93	20494.54
614.126	20451.53
614.321	20424.9
614.517	20148.43
614.712	20097.23
614.907	20379.85
615.103	20029.65
615.298	19857.62
615.493	20259.02
615.688	19658.96
615.884	20070.61
616.079	20111.57
616.274	20097.23
616.47	19673.3
616.665	19687.64
616.86	19669.2
617.055	19587.29
617.25	19417.3
617.445	19601.62
617.641	19298.52
617.836	19560.66
618.031	19306.71
618.226	19575
618.421	19343.58
618.616	19405.02
618.811	18860.26
619.006	19491.03
619.201	18948.32
619.396	19042.53
619.591	18383.08
619.786	18893.02
619.981	18557.16
620.176	18723.04
620.371	18473.19
620.566	18571.49
620.761	18270.44
620.956	18563.3
621.151	18186.47
621.346	18520.29
621.541	17901.81
621.735	18149.61
621.93	17821.94
622.125	17709.3
622.32	17760.5
622.515	17666.29
622.709	17238.26
622.904	17457.4
623.099	17258.74
623.294	17236.22
623.488	17043.71
623.683	16851.2
623.878	17096.96
624.072	17074.43
624.267	16736.51
624.462	16716.03
624.656	16572.68
624.851	16632.07
625.046	16521.48
625.24	16214.28
625.435	16169.23
625.629	16312.58
625.824	16118.03
626.018	15784.21
626.213	15595.79
626.407	15882.51
626.602	15620.37
626.796	15690
626.991	15751.44
627.185	15347.99
627.38	15520.02
627.574	15280.41
627.768	14997.79
627.963	15186.2
628.157	14899.48
628.352	15151.38
628.546	14580
628.74	14960.92
628.935	14647.58
629.129	14752.03
629.323	14407.97
629.517	14508.32
629.712	14446.88
629.906	14379.3
630.1	14319.91
630.294	14297.38
630.489	14053.67
630.683	14237.99
630.877	13863.21
631.071	13879.6
631.265	14125.35
631.459	13889.84
631.653	13756.72
631.848	13539.63
632.042	13682.99
632.236	13766.96
632.43	13547.83
632.624	13439.28
632.818	13222.2
633.012	13197.62
633.206	13056.31
633.4	13257.01
633.594	13003.07
633.788	12984.63
633.982	12964.15
634.176	12900.67
634.369	12685.63
634.563	12763.45
634.757	12650.81
634.951	12785.98
635.145	12638.53
635.339	12630.34
635.533	12417.35
635.726	12212.55
635.92	12075.34
636.114	12085.58
636.308	12085.58
636.501	12165.45
636.695	11909.45
636.889	12017.99
637.083	11704.65
637.276	11694.41
637.47	11862.35
637.664	11600.21
637.857	11594.06
638.051	11778.38
638.244	11397.46
638.438	11434.32
638.632	11430.23
638.825	11192.66
639.019	11182.42
639.212	11147.61
639.406	11133.27
639.599	10944.86
639.793	11153.75
639.986	10965.34
640.18	10828.12
640.373	10979.67
640.567	10641.76
640.76	10451.3
640.954	10643.81
641.147	10557.79
641.34	10529.12
641.534	10557.79
641.727	10283.36
641.92	10379.62
642.114	10242.4
642.307	10496.35
642.5	10135.91
642.694	10160.48
642.887	9902.44
643.08	10058.09
643.273	9978.22
643.467	9996.65
643.66	9896.3
643.853	9615.73
644.046	9523.57
644.239	9707.88
644.432	9611.63
644.626	9656.68
644.819	9496.94
645.012	9421.17
645.205	9591.15
645.398	9507.18
645.591	9386.35
645.784	9337.2
645.977	9132.4
646.17	9132.4
646.363	8954.23
646.556	8956.28
646.749	8876.41
646.942	9105.78
647.135	8923.51
647.328	8862.07
647.521	8771.96
647.714	8569.21
647.907	8706.43
648.099	8685.95
648.292	8540.54
648.485	8601.98
648.678	8329.6
648.871	8454.53
649.064	8192.39
649.256	8341.89
649.449	8331.65
649.642	8051.08
649.835	8255.87
650.027	8089.99
650.22	8102.28
650.413	8028.55
650.605	8135.04
650.798	7793.03
650.991	7905.67
651.183	7831.94
651.376	7838.09
651.568	7887.24
651.761	7666.06
651.954	7760.27
652.146	7602.57
652.339	7649.68
652.531	7686.54
652.724	7348.62
652.916	7356.82
653.109	7414.16
653.301	7434.64
653.494	7465.36
653.686	7223.7
653.879	7469.45
654.071	7248.27
654.263	7240.08
654.456	7227.79
654.648	7141.78
654.84	6977.94
655.033	7141.78
655.225	6988.18
655.417	6906.26
655.61	7059.86
655.802	6855.06
655.994	6979.99
656.186	6869.4
656.379	6857.11
656.571	6576.54
656.763	6637.98
656.955	6603.16
657.148	6627.74
657.34	6633.88
657.532	6502.81
657.724	6314.4
657.916	6496.67
658.108	6384.03
658.3	6306.21
658.492	6359.45
658.684	6371.74
658.876	6158.75
659.068	6300.06
659.26	6191.52
659.452	6214.05
659.644	6232.48
659.836	6035.88
660.028	5890.47
660.22	5880.23
660.412	5990.82
660.604	5786.02
660.796	5929.38
660.988	6062.5
661.18	5853.61
661.372	5814.7
661.563	5794.22
661.755	5781.93
661.947	5618.09
662.139	5671.34
662.331	5595.56
662.522	5564.84
662.714	5552.56
662.906	5597.61
663.097	5573.03
663.289	5525.93
663.481	5198.26
663.673	5413.29
663.864	5294.51
664.056	5284.27
664.247	5120.43
664.439	5210.54
664.631	5358
664.822	5159.35
665.014	5323.18
665.205	5233.07
665.397	5079.47
665.588	5085.62
665.78	5093.81
665.971	4915.64
666.163	4934.07
666.354	4940.21
666.546	4876.73
666.737	4843.96
666.929	4841.91
667.12	4817.33
667.311	4762.04
667.503	4659.64
667.694	4766.14
667.885	4725.18
668.077	4848.05
668.268	4647.35
668.459	4759.99
668.651	4637.11
668.842	4585.91
669.033	4522.43
669.224	4377.02
669.416	4495.8
669.607	4389.31
669.798	4383.17
669.989	4460.99
670.18	4409.79
670.371	4231.62
670.563	4340.16
670.754	4299.2
670.945	4299.2
671.136	4293.05
671.327	4327.87
671.518	4252.1
671.709	4342.21
671.9	4180.42
672.091	4149.7
672.282	4075.97
672.473	4063.68
672.664	4121.03
672.855	4305.34
673.046	4055.49
673.237	4194.75
673.428	4098.5
673.619	4184.51
673.809	3971.52
674	3977.67
674.191	4080.07
674.382	3905.99
674.573	3979.72
674.764	3932.61
674.954	3955.14
675.145	3848.65
675.336	3799.49
675.527	3848.65
675.717	3791.3
675.908	3799.49
676.099	3867.08
676.289	3897.8
676.48	3760.58
676.671	3733.96
676.861	3803.59
677.052	3756.49
677.243	3750.34
677.433	3817.93
677.624	3914.18
677.814	3768.77
678.005	3549.64
678.195	3742.15
678.386	3733.96
678.576	3688.9
678.767	3545.55
678.957	3520.97
679.148	3623.37
679.338	3666.38
679.529	3733.96
679.719	3637.7
679.909	3592.65
680.1	3545.55
680.29	3561.93
680.481	3453.39
680.671	3639.75
680.861	3447.24
681.052	3545.55
681.242	3529.16
681.432	3627.46
681.622	3547.59
681.813	3414.48
682.003	3490.25
682.193	3463.63
682.383	3578.31
682.573	3428.81
682.764	3398.09
682.954	3424.72
683.144	3484.11
683.334	3412.43
683.524	3383.76
683.714	3400.14
683.904	3389.9
684.094	3477.96
684.284	3324.37
684.474	3303.89
684.664	3449.29
684.854	3361.23
685.044	3334.61
685.234	3252.69
685.424	3369.42
685.614	3422.67
685.804	3439.05
685.994	3375.56
686.184	3430.86
686.374	3264.97
686.564	3324.37
686.753	3346.89
686.943	3269.07
687.133	3162.58
687.323	3203.54
687.513	3258.83
687.702	3156.43
687.892	2955.73
688.082	3328.46
688.272	3383.76
688.461	3176.91
688.651	3185.1
688.841	3252.69
689.03	3121.62
689.22	3219.92
689.41	3140.05
689.599	3074.51
689.789	3115.47
689.979	3076.56
690.168	3138
690.358	3031.51
690.547	3037.65
690.737	3035.6
690.926	3076.56
691.116	2965.97
691.305	2939.35
691.495	3099.09
691.684	3002.83
691.874	2998.74
692.063	2914.77
692.252	2980.31
692.442	2955.73
692.631	2972.11
692.82	2959.83
693.01	2984.4
693.199	2832.85
693.388	2888.15
693.578	2882
693.767	2869.72
693.956	2939.35
694.146	2869.72
694.335	2845.14
694.524	2820.56
694.713	2931.16
694.902	2941.4
695.092	2875.86
695.281	2697.69
695.47	2853.33
695.659	2767.32
695.848	2847.19
696.037	2759.13
696.226	2875.86
696.415	2714.07
696.604	2742.74
696.793	2781.65
696.982	2750.93
697.171	2783.7
697.36	2750.93
697.549	2777.56
697.738	2722.26
697.927	2720.21
698.116	2744.79
698.305	2787.8
698.494	2773.46
698.683	2644.44
698.872	2709.97
699.061	2638.3
699.25	2671.06
699.438	2734.55
699.627	2630.1
699.816	2689.49
700.005	2734.55
700.193	2542.04
700.382	2599.38
700.571	2669.02
700.76	2648.54
700.948	2574.81
701.137	2587.1
701.326	2505.18
701.514	2539.99
701.703	2617.82
701.892	2472.41
702.08	2572.76
702.269	2507.23
702.457	2566.62
702.646	2593.24
702.834	2570.71
703.023	2505.18
703.212	2564.57
703.4	2560.47
703.589	2632.15
703.777	2513.37
703.965	2458.07
704.154	2550.23
704.342	2441.69
704.531	2488.79
704.719	2415.07
704.907	2611.67
705.096	2445.79
705.284	2435.55
705.472	2492.89
705.661	2517.47
705.849	2511.32
706.037	2488.79
706.226	2488.79
706.414	2376.16
706.602	2347.48
706.79	2431.45
706.979	2460.12
707.167	2468.31
707.355	2359.77
707.543	2501.08
707.731	2472.41
707.919	2378.2
708.107	2359.77
708.296	2367.96
708.484	2279.9
708.672	2472.41
708.86	2423.26
709.048	2349.53
709.236	2308.57
709.424	2351.58
709.612	2447.83
709.8	2374.11
709.988	2292.19
710.176	2365.92
710.364	2441.69
710.551	2421.21
710.739	2394.59
710.927	2357.72
711.115	2316.76
711.303	2343.39
711.491	2294.24
711.679	2249.18
711.866	2269.66
712.054	2308.57
712.242	2251.23
712.43	2415.07
712.617	2341.34
712.805	2251.23
712.993	2378.2
713.181	2263.52
713.368	2365.92
713.556	2361.82
713.744	2310.62
713.931	2267.61
714.119	2255.33
714.306	2208.22
714.494	2296.28
714.682	2218.46
714.869	2161.12
715.057	2279.9
715.244	2253.28
715.432	2279.9
715.619	2202.08
715.807	2161.12
715.994	2228.7
716.182	2163.17
716.369	2380.25
716.556	2324.96
716.744	2195.93
716.931	2128.35
717.119	2251.23
717.306	2312.67
717.493	2095.58
717.681	2294.24
717.868	2216.41
718.055	2204.13
718.242	2208.22
718.43	2197.98
718.617	2232.8
718.804	2191.84
718.991	2177.5
719.179	2247.13
719.366	2152.93
719.553	2228.7
719.74	2177.5
719.927	2173.41
720.114	2103.78
720.301	2185.69
720.488	2132.45
720.676	2218.46
720.863	2128.35
721.05	2150.88
721.237	2140.64
721.424	2122.21
721.611	2116.06
721.798	2062.82
721.985	2062.82
722.172	2091.49
722.358	2032.1
722.545	2128.35
722.732	2085.34
722.919	2013.67
723.106	2032.1
723.293	2163.17
723.48	2111.97
723.667	2023.91
723.853	2066.91
724.04	2120.16
724.227	2107.87
724.414	2068.96
724.6	2017.76
724.787	2177.5
724.974	2097.63
725.161	1972.71
725.347	1954.27
725.534	2097.63
725.72	2167.26
725.907	2050.53
726.094	2165.21
726.28	2073.06
726.467	2111.97
726.653	2079.2
726.84	2009.57
727.027	2095.58
727.213	2062.82
727.4	1989.09
727.586	2013.67
727.773	2005.47
727.959	1999.33
728.145	2021.86
728.332	2007.52
728.518	1962.47
728.705	1874.4
728.891	1931.75
729.077	2157.02
729.264	1896.93
729.45	2023.91
729.636	1890.79
729.823	2034.14
730.009	2122.21
730.195	1909.22
730.382	1907.17
730.568	2079.2
730.754	2007.52
730.94	1972.71
731.126	1984.99
731.313	1972.71
731.499	1997.28
731.685	1888.74
731.871	2034.14
732.057	1903.07
732.243	1991.14
732.429	2030.05
732.615	1976.8
732.801	1948.13
732.987	2060.77
733.173	2025.95
733.359	1993.19
733.545	1948.13
733.731	1853.92
733.917	1980.9
734.103	2013.67
734.289	2071.01
734.475	1888.74
734.661	2025.95
734.847	1919.46
735.033	1827.3
735.219	1999.33
735.404	1907.17
735.59	1872.36
735.776	1903.07
735.962	1878.5
736.148	1956.32
736.333	1923.55
736.519	1849.83
736.705	1829.35
736.89	1890.79
737.076	1901.03
737.262	1819.11
737.447	1831.4
737.633	1907.17
737.819	1905.12
738.004	1989.09
738.19	1776.1
738.375	1792.48
738.561	1915.36
738.747	1751.53
738.932	1911.27
739.118	1884.64
739.303	1890.79
739.489	1939.94
739.674	1751.53
739.859	1849.83
740.045	1866.21
740.23	1792.48
740.416	1769.96
740.601	1868.26
740.786	1837.54
740.972	1776.1
741.157	1817.06
741.342	1753.57
741.528	1749.48
741.713	1788.39
741.898	1772
742.084	1690.09
742.269	1802.72
742.454	1800.68
742.639	1739.24
742.824	1663.46
743.01	1688.04
743.195	1772
743.38	1759.72
743.565	1743.33
743.75	1724.9
743.935	1688.04
744.12	1634.79
744.305	1792.48
744.49	1749.48
744.675	1579.5
744.86	1782.24
745.045	1554.92
745.23	1620.46
745.415	1663.46
745.6	1620.46
745.785	1642.98
745.97	1677.8
746.155	1561.06
746.34	1577.45
746.525	1561.06
746.71	1583.59
746.895	1477.1
747.079	1538.54
747.264	1464.81
747.449	1536.49
747.634	1599.98
747.819	1583.59
748.003	1530.34
748.188	1452.52
748.373	1505.77
748.557	1563.11
748.742	1466.86
748.927	1491.43
749.111	1491.43
749.296	1538.54
749.481	1554.92
749.665	1354.22
749.85	1296.88
750.034	1384.94
750.219	1386.99
750.404	1434.09
750.588	1452.52
750.773	1452.52
750.957	1466.86
751.141	1391.08
751.326	1473
751.51	1198.57
751.695	1243.63
751.879	1505.77
752.064	1468.91
752.248	1329.64
752.432	1343.98
752.617	1333.74
752.801	1442.28
752.985	1370.6
753.17	1276.4
753.354	1389.03
753.538	1260.01
753.722	1147.37
753.907	1245.68
754.091	1186.29
754.275	1290.73
754.459	1227.25
754.643	1196.53
754.828	1225.2
755.012	1180.14
755.196	1206.77
755.38	1217.01
755.564	1161.71
755.748	1194.48
755.932	1178.09
756.116	1133.04
756.3	1165.81
756.484	1196.53
756.668	1130.99
756.852	1108.46
757.036	1096.18
757.22	1073.65
757.404	1118.7
757.588	1049.07
757.772	1122.8
757.956	1139.18
758.14	1071.6
758.323	1036.78
758.507	1063.41
758.691	1018.35
758.875	1006.06
759.059	1016.3
759.242	1087.98
759.426	1145.33
759.61	1047.02
759.794	903.67
759.977	987.63
760.161	1079.79
760.345	948.72
760.528	1098.22
760.712	1008.11
760.895	1051.12
761.079	1055.22
761.263	932.34
761.446	1090.03
761.63	940.53
761.813	993.78
761.997	1006.06
762.18	944.63
762.364	922.1
762.547	965.11
762.731	846.32
762.914	918
763.098	942.58
763.281	889.33
763.464	942.58
763.648	924.15
763.831	834.04
764.015	891.38
764.198	844.28
764.381	821.75
764.564	940.53
764.748	850.42
764.931	956.91
765.114	801.27
765.297	827.89
765.481	842.23
765.664	883.19
765.847	836.08
766.03	891.38
766.213	836.08
766.397	897.52
766.58	809.46
766.763	850.42
766.946	877.04
767.129	948.72
767.312	840.18
767.495	811.51
767.678	776.69
767.861	793.08
768.044	795.12
768.227	850.42
768.41	760.31
768.593	756.21
768.776	741.88
768.959	760.31
769.142	791.03
769.324	817.65
769.507	809.46
769.69	776.69
769.873	737.78
770.056	842.23
770.239	778.74
770.421	788.98
770.604	838.13
770.787	776.69
770.97	719.35
771.152	750.07
771.335	842.23
771.518	786.93
771.7	737.78
771.883	768.5
772.066	653.81
772.248	793.08
772.431	821.75
772.613	735.73
772.796	657.91
772.978	725.49
773.161	752.12
773.343	793.08
773.526	750.07
773.708	692.73
773.891	672.25
774.073	776.69
774.256	678.39
774.438	637.43
774.621	680.44
774.803	702.97
774.985	655.86
775.168	692.73
775.35	565.75
775.532	717.3
775.715	711.16
775.897	702.97
776.079	664.05
776.261	649.72
776.444	621.05
776.626	639.48
776.808	631.29
776.99	575.99
777.173	580.09
777.355	686.58
777.537	549.37
777.719	590.33
777.901	569.85
778.083	596.47
778.265	573.94
778.447	612.85
778.629	625.14
778.811	655.86
778.993	549.37
779.175	612.85
779.357	532.98
779.539	506.36
779.721	580.09
779.903	604.66
780.085	578.04
780.267	580.09
780.449	571.9
780.631	547.32
780.812	571.9
780.994	498.17
781.176	530.94
781.358	590.33
781.54	500.22
781.721	586.23
781.903	494.07
782.085	500.22
782.267	522.74
782.448	449.02
782.63	510.46
782.812	514.55
782.993	410.11
783.175	502.26
783.357	479.74
783.538	416.25
783.72	410.11
783.901	426.49
784.083	496.12
784.264	489.98
784.446	473.59
784.627	518.65
784.809	475.64
784.99	403.96
785.172	408.06
785.353	418.3
785.535	414.2
785.716	434.68
785.897	399.87
786.079	418.3
786.26	432.63
786.441	408.06
786.623	381.43
786.804	360.95
786.985	391.67
787.167	346.62
787.348	383.48
787.529	363
787.71	373.24
787.891	385.53
788.073	408.06
788.254	395.77
788.435	416.25
788.616	328.19
788.797	442.87
788.978	442.87
789.159	342.52
789.34	424.44
789.522	283.13
789.703	252.41
789.884	375.29
790.065	367.1
790.246	399.87
790.427	344.57
790.607	330.23
790.788	313.85
790.969	303.61
791.15	375.29
791.331	342.52
791.512	334.33
791.693	375.29
791.874	360.95
792.054	344.57
792.235	358.91
792.416	309.76
792.597	293.37
792.778	387.58
792.958	375.29
793.139	313.85
793.32	309.76
793.5	227.84
793.681	352.76
793.862	293.37
794.042	287.23
794.223	242.17
794.404	227.84
794.584	285.18
794.765	313.85
794.945	334.33
795.126	236.03
795.306	262.65
795.487	180.73
795.667	213.5
795.848	324.09
796.028	256.51
796.209	305.66
796.389	322.04
796.57	227.84
796.75	270.84
796.93	334.33
797.111	240.12
797.291	260.6
797.471	334.33
797.652	285.18
797.832	248.32
798.012	293.37
798.192	264.7
798.373	166.4
798.553	246.27
798.733	270.84
798.913	201.21
799.093	248.32
799.274	293.37
799.454	231.93
799.634	246.27
799.814	231.93
799.994	328.19
800.174	262.65
800.354	203.26
800.534	225.79
800.714	281.08
800.894	244.22
801.074	215.55
801.254	207.36
801.434	199.16
801.614	215.55
801.794	207.36
801.974	702.97
802.154	170.49
802.334	203.26
802.514	207.36
802.693	184.83
802.873	227.84
803.053	270.84
803.233	227.84
803.413	246.27
803.592	174.59
803.772	170.49
803.952	229.88
804.131	154.11
804.311	174.59
804.491	264.7
804.67	190.97
804.85	156.16
805.03	272.89
805.209	246.27
805.389	203.26
805.568	170.49
805.748	174.59
805.928	244.22
806.107	244.22
806.287	186.88
806.466	186.88
806.646	231.93
806.825	147.97
807.004	221.69
807.184	199.16
807.363	252.41
807.543	180.73
807.722	147.97
807.901	188.93
808.081	176.64
808.26	137.73
808.439	168.45
808.619	123.39
808.798	147.97
808.977	199.16
809.156	205.31
809.336	147.97
809.515	154.11
809.694	150.01
809.873	176.64
810.052	96.77
810.231	213.5
810.411	117.25
810.59	211.45
810.769	164.35
810.948	178.69
811.127	178.69
811.306	172.54
811.485	188.93
811.664	174.59
811.843	180.73
812.022	203.26
812.201	137.73
812.38	147.97
812.559	176.64
812.737	184.83
812.916	166.4
813.095	145.92
813.274	145.92
813.453	137.73
813.632	182.78
813.811	217.6
813.989	129.53
814.168	199.16
814.347	113.15
814.526	178.69
814.704	123.39
814.883	123.39
815.062	92.67
815.24	182.78
815.419	125.44
815.598	170.49
815.776	51.71
815.955	139.77
816.133	51.71
816.312	145.92
816.49	129.53
816.669	164.35
816.847	162.3
817.026	92.67
817.204	160.25
817.383	174.59
817.561	96.77
817.74	100.86
817.918	125.44
818.097	98.81
818.275	61.95
818.453	88.57
818.632	137.73
818.81	147.97
818.988	139.77
819.167	127.49
819.345	113.15
819.523	72.19
819.701	96.77
819.879	74.24
820.058	131.58
820.236	186.88
820.414	64
820.592	150.01
820.77	139.77
820.948	137.73
821.127	47.62
821.305	123.39
821.483	170.49
821.661	203.26
821.839	107.01
822.017	98.81
822.195	94.72
822.373	158.21
822.551	18.94
822.729	84.48
822.907	133.63
823.085	123.39
823.262	115.2
823.44	41.47
823.618	78.33
823.796	88.57
823.974	31.23
824.152	53.76
824.329	129.53
824.507	96.77
824.685	92.67
824.863	107.01
825.04	100.86
825.218	25.09
825.396	90.62
825.574	115.2
825.751	104.96
825.929	113.15
826.107	90.62
826.284	96.77
826.462	123.39
826.639	117.25
826.817	35.33
826.994	84.48
827.172	18.94
827.349	143.87
827.527	78.33
827.704	117.25
827.882	162.3
828.059	31.23
828.237	92.67
828.414	135.68
828.591	47.62
828.769	45.57
828.946	133.63
829.124	174.59
829.301	121.34
829.478	121.34
829.655	88.57
829.833	61.95
830.01	57.86
830.187	133.63
830.364	80.38
830.542	96.77
830.719	96.77
830.896	166.4
831.073	49.66
831.25	80.38
831.427	143.87
831.604	86.53
831.782	16.9
831.959	129.53
832.136	96.77
832.313	145.92
832.49	23.04
832.667	55.81
832.844	16.9
833.021	137.73
833.198	43.52
833.374	111.1
833.551	53.76
833.728	90.62
833.905	154.11
834.082	25.09
834.259	113.15
834.436	115.2
834.612	84.48
834.789	139.77
834.966	111.1
835.143	68.09
835.319	-46.59
835.496	100.86
835.673	88.57
835.85	88.57
836.026	109.05
836.203	156.16
836.38	88.57
836.556	80.38
836.733	92.67
836.909	72.19
837.086	72.19
837.262	100.86
837.439	70.14
837.616	72.19
837.792	145.92
837.968	188.93
838.145	43.52
838.321	96.77
838.498	92.67
838.674	125.44
838.851	59.9
839.027	80.38
839.203	25.09
839.38	74.24
839.556	98.81
839.732	121.34
839.909	66.05
840.085	98.81
840.261	-1.54
840.437	72.19
840.614	55.81
840.79	82.43
840.966	107.01
841.142	66.05
841.318	-1.54
841.494	23.04
841.671	61.95
841.847	158.21
842.023	68.09
842.199	47.62
842.375	96.77
842.551	49.66
842.727	-13.82
842.903	66.05
843.079	4.61
843.255	84.48
843.431	96.77
843.607	119.29
843.783	-22.02
843.959	104.96
844.134	68.09
844.31	74.24
844.486	113.15
844.662	-32.26
844.838	-1.54
845.013	51.71
845.189	31.23
845.365	64
845.541	88.57
845.716	41.47
845.892	76.29
846.068	16.9
846.244	43.52
846.419	31.23
846.595	55.81
846.77	59.9
846.946	25.09
847.122	59.9
847.297	10.75
847.473	55.81
847.648	39.42
847.824	72.19
847.999	-105.98
848.175	31.23
848.35	51.71
848.526	88.57
848.701	55.81
848.876	100.86
849.052	125.44
849.227	16.9
849.403	55.81
849.578	-17.92
849.753	59.9
849.929	76.29
850.104	-42.5
850.279	-7.68
850.454	43.52
850.63	113.15
850.805	43.52
850.98	41.47
851.155	35.33
851.33	100.86
851.505	0.51
851.681	64
851.856	-17.92
852.031	31.23
852.206	66.05
852.381	-19.97
852.556	6.66
852.731	72.19
852.906	27.14
853.081	66.05
853.256	31.23
853.431	90.62
853.606	10.75
853.781	49.66
853.956	-38.4
854.131	109.05
854.305	14.85
854.48	14.85
854.655	25.09
854.83	-62.98
855.005	86.53
855.18	68.09
855.354	6.66
855.529	-7.68
855.704	-22.02
855.879	64
856.053	23.04
856.228	-50.69
856.403	29.18
856.577	23.04
856.752	41.47
856.926	100.86
857.101	0.51
857.276	-15.87
857.45	92.67
857.625	25.09
857.799	49.66
857.974	47.62
858.148	14.85
858.323	88.57
858.497	-26.11
858.672	39.42
858.846	16.9
859.02	10.75
859.195	23.04
859.369	-32.26
859.543	-1.54
859.718	25.09
859.892	25.09
860.066	49.66
860.241	-26.11
860.415	31.23
860.589	76.29
860.763	-9.73
860.938	64
861.112	-24.06
861.286	33.28
861.46	41.47
861.634	-28.16
861.808	31.23
861.982	-1.54
862.157	18.94
862.331	66.05
862.505	-34.3
862.679	8.7
862.853	14.85
863.027	-42.5
863.201	55.81
863.375	-30.21
863.549	25.09
863.722	41.47
863.896	80.38
864.07	35.33
864.244	16.9
864.418	-3.58
864.592	10.75
864.766	6.66
864.939	49.66
865.113	23.04
865.287	41.47
865.461	-19.97
865.634	-9.73
865.808	49.66
865.982	-42.5
866.156	25.09
866.329	23.04
866.503	47.62
866.676	55.81
866.85	43.52
867.024	2.56
867.197	20.99
867.371	49.66
867.544	8.7
867.718	-36.35
867.891	53.76
868.065	-9.73
868.238	10.75
868.412	-24.06
868.585	-11.78
868.759	16.9
868.932	-50.69
869.105	-26.11
869.279	64
869.452	51.71
869.625	-13.82
869.799	23.04
869.972	2.56
870.145	27.14
870.319	76.29
870.492	47.62
870.665	55.81
870.838	25.09
871.011	-34.3
871.185	-32.26
871.358	80.38
871.531	6.66
871.704	33.28
871.877	-3.58
872.05	-9.73
872.223	25.09
872.396	2.56
872.569	-34.3
872.742	-15.87
872.915	6.66
873.088	-30.21
873.261	10.75
873.434	23.04
873.607	8.7
873.78	0.51
873.953	102.91
874.126	-19.97
874.299	41.47
874.471	-26.11
874.644	74.24
874.817	-34.3
874.99	55.81
875.163	29.18
875.335	27.14
875.508	2.56
875.681	72.19
875.853	18.94
876.026	39.42
876.199	31.23
876.371	64
876.544	23.04
876.717	31.23
876.889	107.01
877.062	0.51
877.234	-19.97
877.407	-13.82
877.579	-34.3
877.752	88.57
877.924	16.9
878.097	-30.21
878.269	-40.45
878.442	107.01
878.614	-19.97
878.786	-1.54
878.959	6.66
879.131	-17.92
879.303	-34.3
879.476	88.57
879.648	96.77
879.82	29.18
879.993	80.38
880.165	57.86
880.337	-17.92
880.509	-7.68
880.681	49.66
880.854	25.09
881.026	35.33
881.198	2.56
881.37	33.28
881.542	-75.26
881.714	-30.21
881.886	-17.92
882.058	-42.5
882.23	-22.02
882.402	-60.93
882.574	31.23
882.746	29.18
882.918	57.86
883.09	98.81
883.262	51.71
883.434	-9.73
883.606	64
883.778	25.09
883.95	113.15
884.122	-42.5
884.293	78.33
884.465	59.9
884.637	80.38
884.809	-7.68
884.98	25.09
885.152	104.96
885.324	94.72
885.496	47.62
885.667	68.09
885.839	-42.5
886.011	117.25
886.182	-15.87
886.354	43.52
886.525	43.52
886.697	25.09
886.869	64
887.04	-5.63
887.212	16.9
887.383	55.81
887.555	74.24
887.726	0.51
887.897	-46.59
888.069	8.7
888.24	-26.11
888.412	-1.54
888.583	51.71
888.754	43.52
888.926	-9.73
889.097	70.14
889.268	-13.82
889.44	70.14
889.611	-71.17
889.782	74.24
889.953	-95.74
890.125	-24.06
890.296	-9.73
890.467	31.23
890.638	14.85
890.809	82.43
890.98	-7.68
891.151	49.66
891.323	96.77
891.494	-54.78
891.665	-34.3
891.836	14.85
892.007	-13.82
892.178	72.19
892.349	-1.54
892.52	6.66
892.691	41.47
892.862	20.99
893.032	-30.21
893.203	4.61
893.374	82.43
893.545	31.23
893.716	18.94
893.887	76.29
894.057	-34.3
894.228	14.85
894.399	-17.92
894.57	66.05
894.74	16.9
894.911	88.57
895.082	18.94
895.253	6.66
895.423	25.09
895.594	51.71
895.764	25.09
895.935	-30.21
896.106	92.67
896.276	47.62
896.447	-32.26
896.617	0.51
896.788	-42.5
896.958	20.99
897.129	-1.54
897.299	-1.54
897.47	14.85
897.64	59.9
897.81	35.33
897.981	33.28
898.151	10.75
898.322	72.19
898.492	6.66
898.662	6.66
898.832	-48.64
899.003	2.56
899.173	-42.5
899.343	-15.87
899.513	-22.02
