Data from USB4F104151__87__14-43-31-275.txt Node

Date: Thu Mar 13 14:43:31 EDT 2025
User: louis
Spectrometer: USB4F10415
Trigger mode: 4
Integration Time (sec): 2.000000E-2
Scans to average: 1
Electric dark correction enabled: true
Nonlinearity correction enabled: false
Boxcar width: 0
XAxis mode: Wavelengths
Number of Pixels in Spectrum: 3648
>>>>>Begin Spectral Data<<<<<
178.204	-163.84
178.424	-163.84
178.644	-163.84
178.864	-145.41
179.084	-131.07
179.304	4.1
179.524	18.43
179.744	-26.62
179.964	40.96
180.184	59.39
180.404	24.58
180.624	-40.96
180.844	49.15
181.064	-69.63
181.283	-65.53
181.503	45.06
181.723	-38.91
181.943	20.48
182.163	40.96
182.383	40.96
182.602	-26.62
182.822	0
183.042	40.96
183.262	8.19
183.482	0
183.701	-49.15
183.921	18.43
184.141	-45.06
184.361	34.82
184.58	36.86
184.8	-14.34
185.02	34.82
185.239	-30.72
185.459	-24.58
185.679	32.77
185.898	0
186.118	16.38
186.338	-14.34
186.557	61.44
186.777	-75.77
186.997	-6.14
187.216	38.91
187.436	14.34
187.655	49.15
187.875	79.87
188.095	28.67
188.314	20.48
188.534	51.2
188.753	-14.34
188.973	40.96
189.192	51.2
189.412	20.48
189.631	26.62
189.851	-2.05
190.07	71.68
190.29	-96.25
190.509	-28.67
190.729	-4.1
190.948	8.19
191.168	73.73
191.387	32.77
191.607	-116.73
191.826	-2.05
192.045	-65.53
192.265	26.62
192.484	-18.43
192.704	28.67
192.923	-2.05
193.142	24.58
193.362	32.77
193.581	-12.29
193.8	30.72
194.02	28.67
194.239	-38.91
194.458	-14.34
194.678	-53.25
194.897	26.62
195.116	34.82
195.335	-40.96
195.555	0
195.774	38.91
195.993	26.62
196.212	-51.2
196.432	61.44
196.651	69.63
196.87	0
197.089	59.39
197.308	-14.34
197.528	51.2
197.747	-73.73
197.966	-6.14
198.185	-6.14
198.404	-10.24
198.623	-8.19
198.842	8.19
199.062	-14.34
199.281	61.44
199.5	61.44
199.719	-49.15
199.938	86.01
200.157	43.01
200.376	34.82
200.595	83.97
200.814	-12.29
201.033	73.73
201.252	73.73
201.471	75.77
201.69	90.11
201.909	4.1
202.128	26.62
202.347	-6.14
202.566	40.96
202.785	-63.49
203.004	-20.48
203.223	45.06
203.442	-47.1
203.661	-8.19
203.879	-10.24
204.098	43.01
204.317	-18.43
204.536	75.77
204.755	10.24
204.974	34.82
205.193	26.62
205.411	10.24
205.63	16.38
205.849	67.58
206.068	0
206.287	65.54
206.505	40.96
206.724	32.77
206.943	24.58
207.162	24.58
207.381	83.97
207.599	10.24
207.818	-18.43
208.037	-73.73
208.255	26.62
208.474	36.86
208.693	24.58
208.911	36.86
209.13	-14.34
209.349	-8.19
209.567	28.67
209.786	-20.48
210.005	8.19
210.223	32.77
210.442	-8.19
210.661	-8.19
210.879	45.06
211.098	49.15
211.316	-47.1
211.535	61.44
211.753	106.49
211.972	12.29
212.191	-38.91
212.409	-12.29
212.628	81.92
212.846	28.67
213.065	65.54
213.283	18.43
213.502	90.11
213.72	-16.38
213.938	59.39
214.157	59.39
214.375	26.62
214.594	57.34
214.812	45.06
215.031	-8.19
215.249	40.96
215.467	51.2
215.686	57.34
215.904	2.05
216.122	-16.38
216.341	24.58
216.559	36.86
216.778	67.58
216.996	22.53
217.214	6.14
217.432	-69.63
217.651	-4.1
217.869	55.3
218.087	86.01
218.306	49.15
218.524	16.38
218.742	-12.29
218.96	32.77
219.179	20.48
219.397	20.48
219.615	47.1
219.833	32.77
220.051	-14.34
220.27	49.15
220.488	51.2
220.706	69.63
220.924	18.43
221.142	47.1
221.36	-2.05
221.578	16.38
221.796	34.82
222.015	-30.72
222.233	-47.1
222.451	34.82
222.669	98.3
222.887	-73.73
223.105	-24.58
223.323	-24.58
223.541	-8.19
223.759	110.59
223.977	55.3
224.195	2.05
224.413	77.82
224.631	86.01
224.849	20.48
225.067	16.38
225.285	-20.48
225.503	53.25
225.721	-102.4
225.939	0
226.157	-8.19
226.375	86.01
226.592	-53.25
226.81	-32.77
227.028	51.2
227.246	71.68
227.464	77.82
227.682	24.58
227.9	20.48
228.117	0
228.335	90.11
228.553	24.58
228.771	-106.49
228.989	73.73
229.206	12.29
229.424	-14.34
229.642	36.86
229.86	34.82
230.077	-40.96
230.295	-4.1
230.513	16.38
230.731	94.21
230.948	65.54
231.166	20.48
231.384	-8.19
231.601	-16.38
231.819	28.67
232.037	32.77
232.254	24.58
232.472	-47.1
232.689	57.34
232.907	16.38
233.125	59.39
233.342	-14.34
233.56	10.24
233.777	-34.82
233.995	12.29
234.213	28.67
234.43	40.96
234.648	-32.77
234.865	-32.77
235.083	10.24
235.3	16.38
235.518	-22.53
235.735	8.19
235.953	71.68
236.17	-61.44
236.388	-45.06
236.605	0
236.822	-34.82
237.04	38.91
237.257	20.48
237.475	32.77
237.692	57.34
237.909	-14.34
238.127	4.1
238.344	26.62
238.562	16.38
238.779	-18.43
238.996	-22.53
239.214	49.15
239.431	45.06
239.648	36.86
239.865	-12.29
240.083	92.16
240.3	-30.72
240.517	-28.67
240.735	-38.91
240.952	28.67
241.169	67.58
241.386	16.38
241.603	0
241.821	14.34
242.038	49.15
242.255	26.62
242.472	32.77
242.689	61.44
242.907	32.77
243.124	-20.48
243.341	-8.19
243.558	16.38
243.775	-20.48
243.992	-20.48
244.209	6.14
244.426	53.25
244.643	38.91
244.86	-34.82
245.078	8.19
245.295	6.14
245.512	-6.14
245.729	-24.58
245.946	49.15
246.163	-28.67
246.38	10.24
246.597	90.11
246.814	43.01
247.031	26.62
247.248	16.38
247.464	22.53
247.681	-12.29
247.898	40.96
248.115	12.29
248.332	112.64
248.549	49.15
248.766	69.63
248.983	81.92
249.2	-8.19
249.417	24.58
249.633	-65.53
249.85	59.39
250.067	-14.34
250.284	-53.25
250.501	36.86
250.717	-73.73
250.934	24.58
251.151	36.86
251.368	65.54
251.585	77.82
251.801	16.38
252.018	61.44
252.235	2.05
252.451	-71.68
252.668	16.38
252.885	-6.14
253.102	-49.15
253.318	28.67
253.535	10.24
253.752	-8.19
253.968	10.24
254.185	-53.25
254.401	-14.34
254.618	32.77
254.835	-2.05
255.051	12.29
255.268	45.06
255.484	18.43
255.701	-14.34
255.917	36.86
256.134	24.58
256.351	4.1
256.567	92.16
256.784	-30.72
257	-32.77
257.217	-32.77
257.433	-8.19
257.65	-106.49
257.866	61.44
258.082	-6.14
258.299	14.34
258.515	32.77
258.732	-24.58
258.948	-8.19
259.165	59.39
259.381	49.15
259.597	-38.91
259.814	18.43
260.03	-20.48
260.246	-8.19
260.463	8.19
260.679	26.62
260.895	-22.53
261.112	0
261.328	24.58
261.544	0
261.761	81.92
261.977	-4.1
262.193	-12.29
262.409	57.34
262.626	38.91
262.842	32.77
263.058	43.01
263.274	-65.53
263.49	32.77
263.707	-43.01
263.923	16.38
264.139	-22.53
264.355	32.77
264.571	61.44
264.787	122.88
265.004	73.73
265.22	-16.38
265.436	28.67
265.652	-14.34
265.868	10.24
266.084	36.86
266.3	79.87
266.516	-6.14
266.732	-24.58
266.948	0
267.164	-14.34
267.38	59.39
267.596	34.82
267.812	73.73
268.028	-34.82
268.244	-8.19
268.46	53.25
268.676	-55.3
268.892	-32.77
269.108	-8.19
269.324	-2.05
269.54	-22.53
269.756	49.15
269.972	28.67
270.188	12.29
270.403	-18.43
270.619	59.39
270.835	73.73
271.051	-73.73
271.267	-71.68
271.483	26.62
271.698	36.86
271.914	-22.53
272.13	-36.86
272.346	12.29
272.562	34.82
272.777	69.63
272.993	8.19
273.209	28.67
273.425	59.39
273.64	67.58
273.856	49.15
274.072	-28.67
274.287	-6.14
274.503	-38.91
274.719	-45.06
274.934	-6.14
275.15	24.58
275.366	-8.19
275.581	12.29
275.797	-4.1
276.012	-36.86
276.228	51.2
276.444	-14.34
276.659	59.39
276.875	-47.1
277.09	34.82
277.306	32.77
277.521	-4.1
277.737	-16.38
277.952	14.34
278.168	75.77
278.383	49.15
278.599	-61.44
278.814	51.2
279.03	98.3
279.245	57.34
279.461	18.43
279.676	38.91
279.892	-57.34
280.107	6.14
280.322	-26.62
280.538	20.48
280.753	47.1
280.969	-12.29
281.184	-38.91
281.399	86.01
281.615	-49.15
281.83	-38.91
282.045	-51.2
282.26	-38.91
282.476	8.19
282.691	-4.1
282.906	-20.48
283.122	-45.06
283.337	-36.86
283.552	2.05
283.767	32.77
283.983	16.38
284.198	0
284.413	-24.58
284.628	-14.34
284.843	34.82
285.058	-22.53
285.274	-8.19
285.489	34.82
285.704	88.06
285.919	-22.53
286.134	10.24
286.349	26.62
286.564	16.38
286.779	8.19
286.995	-12.29
287.21	6.14
287.425	65.54
287.64	8.19
287.855	4.1
288.07	-8.19
288.285	34.82
288.5	4.1
288.715	28.67
288.93	-20.48
289.145	-32.77
289.36	40.96
289.575	18.43
289.79	16.38
290.004	-47.1
290.219	-8.19
290.434	-24.58
290.649	16.38
290.864	63.49
291.079	-8.19
291.294	20.48
291.509	45.06
291.724	-22.53
291.938	16.38
292.153	81.92
292.368	12.29
292.583	-32.77
292.798	-20.48
293.012	10.24
293.227	20.48
293.442	30.72
293.657	-28.67
293.871	110.59
294.086	-38.91
294.301	67.58
294.516	26.62
294.73	6.14
294.945	16.38
295.16	16.38
295.374	49.15
295.589	40.96
295.804	40.96
296.018	-12.29
296.233	83.97
296.447	-45.06
296.662	-30.72
296.877	24.58
297.091	34.82
297.306	20.48
297.52	-26.62
297.735	10.24
297.949	-18.43
298.164	-6.14
298.378	61.44
298.593	-22.53
298.807	-8.19
299.022	0
299.236	8.19
299.451	-16.38
299.665	40.96
299.88	61.44
300.094	10.24
300.309	-6.14
300.523	49.15
300.737	-10.24
300.952	55.3
301.166	90.11
301.381	20.48
301.595	24.58
301.809	12.29
302.024	26.62
302.238	24.58
302.452	75.77
302.667	0
302.881	98.3
303.095	49.15
303.309	92.16
303.524	-22.53
303.738	12.29
303.952	-14.34
304.166	83.97
304.381	-14.34
304.595	53.25
304.809	28.67
305.023	83.97
305.237	-4.1
305.452	28.67
305.666	59.39
305.88	20.48
306.094	18.43
306.308	2.05
306.522	38.91
306.736	28.67
306.95	40.96
307.164	-8.19
307.379	10.24
307.593	92.16
307.807	22.53
308.021	61.44
308.235	0
308.449	-16.38
308.663	-16.38
308.877	75.77
309.091	79.87
309.305	40.96
309.519	-61.44
309.733	16.38
309.947	30.72
310.161	-4.1
310.374	49.15
310.588	73.73
310.802	40.96
311.016	18.43
311.23	-32.77
311.444	28.67
311.658	28.67
311.872	65.54
312.085	81.92
312.299	30.72
312.513	45.06
312.727	20.48
312.941	-10.24
313.154	81.92
313.368	73.73
313.582	-16.38
313.796	16.38
314.009	-4.1
314.223	67.58
314.437	153.6
314.651	98.3
314.864	32.77
315.078	-38.91
315.292	-30.72
315.505	-86.01
315.719	53.25
315.933	-32.77
316.146	65.54
316.36	-24.58
316.573	126.97
316.787	28.67
317.001	40.96
317.214	2.05
317.428	34.82
317.641	73.73
317.855	20.48
318.068	30.72
318.282	30.72
318.495	65.54
318.709	28.67
318.922	26.62
319.136	110.59
319.349	-12.29
319.563	32.77
319.776	32.77
319.99	-49.15
320.203	10.24
320.417	36.86
320.63	32.77
320.843	59.39
321.057	-14.34
321.27	49.15
321.483	43.01
321.697	36.86
321.91	45.06
322.124	55.3
322.337	65.54
322.55	-65.53
322.763	16.38
322.977	-55.3
323.19	-6.14
323.403	-4.1
323.617	43.01
323.83	14.34
324.043	24.58
324.256	28.67
324.469	0
324.683	22.53
324.896	40.96
325.109	18.43
325.322	0
325.535	18.43
325.748	2.05
325.962	-24.58
326.175	-2.05
326.388	24.58
326.601	10.24
326.814	45.06
327.027	-12.29
327.24	104.45
327.453	-94.21
327.666	69.63
327.879	65.54
328.092	81.92
328.305	20.48
328.518	43.01
328.731	26.62
328.944	16.38
329.157	16.38
329.37	16.38
329.583	-6.14
329.796	57.34
330.009	-8.19
330.222	43.01
330.435	16.38
330.648	-4.1
330.861	28.67
331.073	51.2
331.286	114.69
331.499	40.96
331.712	20.48
331.925	55.3
332.138	12.29
332.35	24.58
332.563	18.43
332.776	51.2
332.989	-6.14
333.202	124.93
333.414	-24.58
333.627	63.49
333.84	-6.14
334.053	53.25
334.265	-18.43
334.478	-4.1
334.691	40.96
334.903	8.19
335.116	-20.48
335.329	49.15
335.541	43.01
335.754	24.58
335.966	22.53
336.179	24.58
336.392	24.58
336.604	10.24
336.817	55.3
337.029	49.15
337.242	-38.91
337.454	28.67
337.667	40.96
337.88	43.01
338.092	-16.38
338.305	34.82
338.517	32.77
338.729	75.77
338.942	-12.29
339.154	-4.1
339.367	-30.72
339.579	69.63
339.792	-45.06
340.004	77.82
340.217	32.77
340.429	0
340.641	-51.2
340.854	24.58
341.066	34.82
341.278	75.77
341.491	75.77
341.703	45.06
341.915	67.58
342.128	65.54
342.34	24.58
342.552	73.73
342.764	40.96
342.977	-12.29
343.189	92.16
343.401	61.44
343.613	0
343.826	12.29
344.038	16.38
344.25	47.1
344.462	18.43
344.674	63.49
344.886	-16.38
345.099	-49.15
345.311	65.54
345.523	-24.58
345.735	-22.53
345.947	131.07
346.159	-8.19
346.371	6.14
346.583	65.54
346.795	106.49
347.007	16.38
347.219	45.06
347.431	-6.14
347.643	92.16
347.855	40.96
348.067	32.77
348.279	-32.77
348.491	10.24
348.703	79.87
348.915	40.96
349.127	18.43
349.339	53.25
349.551	0
349.763	75.77
349.975	100.35
350.187	71.68
350.399	40.96
350.61	100.35
350.822	10.24
351.034	40.96
351.246	28.67
351.458	110.59
351.669	-20.48
351.881	90.11
352.093	57.34
352.305	-16.38
352.517	51.2
352.728	-16.38
352.94	51.2
353.152	2.05
353.363	-6.14
353.575	-30.72
353.787	73.73
353.999	49.15
354.21	65.54
354.422	24.58
354.633	8.19
354.845	-53.25
355.057	49.15
355.268	53.25
355.48	43.01
355.692	49.15
355.903	34.82
356.115	43.01
356.326	20.48
356.538	-4.1
356.749	12.29
356.961	26.62
357.172	-8.19
357.384	20.48
357.595	96.25
357.807	0
358.018	0
358.23	55.3
358.441	81.92
358.653	65.54
358.864	-4.1
359.075	59.39
359.287	-12.29
359.498	30.72
359.709	4.1
359.921	28.67
360.132	69.63
360.344	73.73
360.555	-61.44
360.766	24.58
360.977	-30.72
361.189	49.15
361.4	118.78
361.611	40.96
361.823	34.82
362.034	8.19
362.245	-77.82
362.456	114.69
362.667	98.3
362.879	-8.19
363.09	-14.34
363.301	83.97
363.512	116.73
363.723	67.58
363.935	57.34
364.146	51.2
364.357	-16.38
364.568	-18.43
364.779	-24.58
364.99	59.39
365.201	-4.1
365.412	73.73
365.623	-12.29
365.834	67.58
366.045	26.62
366.256	53.25
366.467	83.97
366.678	45.06
366.889	73.73
367.1	-30.72
367.311	73.73
367.522	8.19
367.733	149.5
367.944	63.49
368.155	20.48
368.366	45.06
368.577	16.38
368.788	73.73
368.999	16.38
369.209	63.49
369.42	167.93
369.631	-10.24
369.842	81.92
370.053	-16.38
370.264	53.25
370.474	0
370.685	24.58
370.896	8.19
371.107	100.35
371.317	-16.38
371.528	0
371.739	61.44
371.95	81.92
372.16	83.97
372.371	-12.29
372.582	-2.05
372.792	-6.14
373.003	49.15
373.214	43.01
373.424	100.35
373.635	-26.62
373.846	65.54
374.056	-43.01
374.267	49.15
374.477	124.93
374.688	26.62
374.898	14.34
375.109	51.2
375.319	-28.67
375.53	45.06
375.74	26.62
375.951	28.67
376.161	8.19
376.372	69.63
376.582	67.58
376.793	63.49
377.003	10.24
377.214	30.72
377.424	73.73
377.635	18.43
377.845	45.06
378.055	116.73
378.266	57.34
378.476	81.92
378.686	57.34
378.897	24.58
379.107	12.29
379.317	98.3
379.528	16.38
379.738	57.34
379.948	-57.34
380.158	26.62
380.369	36.86
380.579	36.86
380.789	51.2
380.999	32.77
381.21	61.44
381.42	73.73
381.63	-4.1
381.84	-24.58
382.05	-49.15
382.261	24.58
382.471	-14.34
382.681	65.54
382.891	0
383.101	4.1
383.311	77.82
383.521	36.86
383.731	28.67
383.941	81.92
384.151	90.11
384.361	24.58
384.571	40.96
384.781	65.54
384.991	32.77
385.201	10.24
385.411	49.15
385.621	36.86
385.831	-2.05
386.041	16.38
386.251	124.93
386.461	135.17
386.671	32.77
386.881	36.86
387.091	-8.19
387.301	40.96
387.511	-14.34
387.72	34.82
387.93	49.15
388.14	63.49
388.35	20.48
388.56	30.72
388.769	34.82
388.979	20.48
389.189	18.43
389.399	40.96
389.609	112.64
389.818	81.92
390.028	-6.14
390.238	65.54
390.447	61.44
390.657	90.11
390.867	73.73
391.076	-16.38
391.286	77.82
391.496	86.01
391.705	-8.19
391.915	141.31
392.125	18.43
392.334	57.34
392.544	59.39
392.753	73.73
392.963	10.24
393.172	32.77
393.382	67.58
393.591	131.07
393.801	-10.24
394.01	81.92
394.22	92.16
394.429	81.92
394.639	51.2
394.848	104.45
395.058	49.15
395.267	24.58
395.477	45.06
395.686	-20.48
395.895	157.69
396.105	163.84
396.314	49.15
396.524	65.54
396.733	165.89
396.942	106.49
397.152	178.17
397.361	77.82
397.57	57.34
397.78	83.97
397.989	110.59
398.198	73.73
398.407	71.68
398.617	71.68
398.826	47.1
399.035	61.44
399.244	49.15
399.453	57.34
399.663	86.01
399.872	61.44
400.081	12.29
400.29	172.03
400.499	65.54
400.708	81.92
400.917	81.92
401.127	75.77
401.336	118.78
401.545	147.45
401.754	75.77
401.963	75.77
402.172	53.25
402.381	81.92
402.59	67.58
402.799	188.41
403.008	106.49
403.217	98.3
403.426	155.65
403.635	51.2
403.844	102.4
404.053	106.49
404.262	51.2
404.471	32.77
404.68	120.83
404.888	208.89
405.097	139.26
405.306	110.59
405.515	126.97
405.724	149.5
405.933	110.59
406.142	155.65
406.35	237.56
406.559	188.41
406.768	212.99
406.977	212.99
407.185	219.13
407.394	163.84
407.603	114.69
407.812	223.23
408.02	204.8
408.229	188.41
408.438	210.94
408.646	239.61
408.855	231.42
409.064	196.61
409.272	215.04
409.481	192.51
409.69	204.8
409.898	311.29
410.107	215.04
410.315	319.48
410.524	335.87
410.733	268.28
410.941	368.63
411.15	346.11
411.358	286.72
411.567	421.88
411.775	374.78
411.984	409.59
412.192	354.3
412.401	364.54
412.609	446.46
412.818	526.33
413.026	411.64
413.234	530.42
413.443	559.1
413.651	526.33
413.86	491.51
414.068	688.12
414.276	606.2
414.485	575.48
414.693	684.02
414.901	632.82
415.11	747.51
415.318	589.82
415.526	739.32
415.734	747.51
415.943	722.93
416.151	845.81
416.359	786.42
416.567	847.86
416.776	954.35
416.984	886.77
417.192	1011.7
417.4	1011.7
417.608	917.49
417.817	917.49
418.025	1122.29
418.233	1126.38
418.441	1069.04
418.649	1130.48
418.857	1286.12
419.065	1372.14
419.273	1241.07
419.481	1239.02
419.689	1386.47
419.897	1445.87
420.105	1466.35
420.313	1576.94
420.521	1560.55
420.729	1662.95
420.937	1712.1
421.145	1662.95
421.353	1966.05
421.561	1916.9
421.769	1869.8
421.977	2058.21
422.185	2150.37
422.393	2138.08
422.601	2195.42
422.809	2269.15
423.017	2256.86
423.224	2377.69
423.432	2342.88
423.64	2457.56
423.848	2707.41
424.056	2637.78
424.263	2840.53
424.471	2772.95
424.679	2824.15
424.887	2891.73
425.094	3082.19
425.302	3090.38
425.51	3270.61
425.718	3270.61
425.925	3475.4
426.133	3432.4
426.341	3684.3
426.548	3891.14
426.756	3880.9
426.964	3803.08
427.171	4110.27
427.379	4147.14
427.586	4333.5
427.794	4433.85
428.001	4612.03
428.209	4833.21
428.417	4816.82
428.624	4945.84
428.832	4853.69
429.039	5072.82
429.247	5070.77
429.454	5402.54
429.662	5992.36
429.869	5455.79
430.076	5781.42
430.284	5574.57
430.491	5924.77
430.699	6182.82
430.906	6315.94
431.114	6221.73
431.321	6653.85
431.528	6752.15
431.736	7241.62
431.943	7438.22
432.15	7131.03
432.358	7409.55
432.565	7790.47
432.772	7645.07
432.979	8238.98
433.187	8298.37
433.394	8165.25
433.601	8882.04
433.808	8884.09
434.016	8963.96
434.223	9133.94
434.43	9834.35
434.637	9576.3
434.844	10178.4
435.052	10223.46
435.259	10143.59
435.466	10434.4
435.673	10149.73
435.88	10915.67
436.087	11693.9
436.294	11585.36
436.501	11339.6
436.708	11460.43
436.915	11827.02
437.122	12339.01
437.329	12296
437.537	12918.59
437.743	13057.85
437.95	12681.02
438.157	13586.22
438.364	13967.15
438.571	14071.59
438.778	13926.19
438.985	15091.48
439.192	14595.87
439.399	15296.28
439.606	14960.41
439.813	15597.33
440.02	16871.17
440.227	16244.49
440.433	16140.04
440.64	16398.09
440.847	16561.92
441.054	16899.84
441.261	18087.66
441.467	17809.14
441.674	18231.02
441.881	18806.5
442.088	18814.69
442.294	18740.96
442.501	19273.43
442.708	19265.24
442.914	20408.01
443.121	21073.6
443.328	20483.78
443.534	22093.49
443.741	21563.06
443.948	20971.2
444.154	22728.36
444.361	22851.24
444.568	22681.25
444.774	22699.69
444.981	22894.24
445.187	23332.51
445.394	24542.86
445.6	24342.16
445.807	26564.2
446.013	25302.65
446.22	25773.69
446.426	26676.84
446.633	26984.04
446.839	27868.76
447.046	26910.31
447.252	28415.57
447.459	28485.2
447.665	28145.23
447.871	29429.31
448.078	30758.44
448.284	29525.57
448.491	30066.23
448.697	31231.52
448.903	31813.15
449.11	31927.83
449.316	31411.74
449.522	32060.95
449.728	33322.5
449.935	33185.29
450.141	33252.87
450.347	34158.07
450.553	32712.2
450.76	33623.55
450.966	34201.08
451.172	33873.4
451.378	34794.99
451.584	34180.6
451.791	35233.25
451.997	35290.6
452.203	35333.6
452.409	35663.33
452.615	35425.76
452.821	34106.87
453.027	33676.8
453.233	35704.29
453.44	34041.34
453.646	34921.96
453.852	34704.88
454.058	35401.19
454.264	34270.71
454.47	35055.08
454.676	34166.26
454.882	35243.49
455.088	32173.59
455.294	32896.52
455.5	33535.49
455.705	33676.8
455.911	32261.65
456.117	31438.37
456.323	31428.13
456.529	29802.04
456.735	31026.73
456.941	30398
457.147	29531.71
457.352	28835.4
457.558	28757.58
457.764	28788.3
457.97	28233.3
458.176	27776.6
458.381	27391.58
458.587	26291.82
458.793	26674.79
458.999	24923.78
459.204	26920.55
459.41	25765.49
459.616	24374.92
459.821	24305.29
460.027	24288.91
460.233	24147.6
460.438	22740.65
460.644	23076.51
460.85	21749.43
461.055	21372.6
461.261	21587.64
461.466	19951.31
461.672	19177.18
461.878	20821.7
462.083	19275.48
462.289	19162.84
462.494	18751.2
462.7	17850.1
462.905	17415.93
463.111	17993.45
463.316	17934.06
463.522	17432.31
463.727	17727.22
463.932	17669.87
464.138	17477.37
464.343	17479.41
464.549	16951.04
464.754	17454.84
464.959	17424.12
465.165	17219.32
465.37	16551.68
465.575	16105.23
465.781	16873.21
465.986	17043.2
466.191	16441.09
466.397	15640.34
466.602	15105.82
466.807	15669.01
467.012	15855.37
467.218	15548.18
467.423	15531.79
467.628	15482.64
467.833	16051.98
468.038	15449.88
468.244	15298.33
468.449	15740.69
468.654	15240.98
468.859	15273.75
469.064	15275.8
469.269	14327.59
469.474	14319.4
469.679	14757.66
469.885	14245.67
470.09	14759.71
470.295	14552.87
470.5	13946.67
470.705	14321.45
470.91	13967.15
471.115	13909.8
471.32	14030.63
471.525	14128.94
471.73	13500.21
471.935	13571.89
472.139	13252.41
472.344	13289.27
472.549	13078.33
472.754	13043.51
472.959	12719.93
473.164	12533.57
473.369	12201.8
473.574	12871.48
473.778	12732.22
473.983	12470.08
474.188	12455.75
474.393	11894.6
474.598	12111.69
474.802	12126.02
475.007	11710.29
475.212	11931.47
475.417	11472.72
475.621	11544.4
475.826	11554.64
476.031	11143
476.235	11190.1
476.44	11290.45
476.645	10858.33
476.849	10938.2
477.054	10592.09
477.259	10723.16
477.463	10768.22
477.668	10510.18
477.872	10575.71
478.077	10186.6
478.282	10151.78
478.486	10071.91
478.691	10274.66
478.895	9992.04
479.1	9842.54
479.304	9834.35
479.509	9553.77
479.713	9742.19
479.918	9787.24
480.122	9277.3
480.326	9557.87
480.531	9564.01
480.735	9236.34
480.94	9250.67
481.144	9598.83
481.348	9293.68
481.553	9295.73
481.757	9027.45
481.961	9144.18
482.166	9447.28
482.37	9389.94
482.574	9170.8
482.778	9127.8
482.983	9355.12
483.187	8933.24
483.391	9226.1
483.595	9043.83
483.8	8933.24
484.004	9148.28
484.208	9148.28
484.412	9017.21
484.616	9119.6
484.821	9146.23
485.025	8947.58
485.229	9236.34
485.433	8959.86
485.637	9207.67
485.841	9105.27
486.045	8998.77
486.249	9211.76
486.453	9002.87
486.657	9219.96
486.861	9207.67
487.065	8767.35
487.269	9158.52
487.473	8968.06
487.677	9357.17
487.881	9252.72
488.085	9052.02
488.289	9224.05
488.493	8976.25
488.697	9215.86
488.901	9078.65
489.105	9135.99
489.309	9117.56
489.512	9277.3
489.716	9129.84
489.92	9189.24
490.124	9267.06
490.328	9387.89
490.531	9191.28
490.735	9297.78
490.939	9308.02
491.143	9070.45
491.346	9205.62
491.55	9373.55
491.754	9484.14
491.958	9535.34
492.161	9400.18
492.365	9518.96
492.569	9564.01
492.772	9719.66
492.976	9607.02
493.18	9676.65
493.383	9658.22
493.587	9930.6
493.79	9959.27
493.994	9916.26
494.197	9963.37
494.401	10172.26
494.605	10274.66
494.808	10354.53
495.012	10354.53
495.215	10299.23
495.419	10493.79
495.622	10159.97
495.825	10551.14
496.029	10544.99
496.232	10977.11
496.436	10823.51
496.639	11040.6
496.843	10743.64
497.046	11038.55
497.249	11220.82
497.453	11335.51
497.656	11421.52
497.859	11437.91
498.063	11355.99
498.266	11763.53
498.469	11657.04
498.673	11861.83
498.876	11945.8
499.079	12160.84
499.282	12107.59
499.485	12529.47
499.689	12484.42
499.892	12554.05
500.095	12795.71
500.298	13008.7
500.501	12785.47
500.705	13225.78
500.908	12984.12
501.111	13307.7
501.314	13575.98
501.517	13582.13
501.72	14067.5
501.923	13776.69
502.126	13985.58
502.329	14245.67
502.532	14554.91
502.735	14411.56
502.938	14460.71
503.141	14876.44
503.344	14989.08
503.547	14960.41
503.75	15423.25
503.953	15503.12
504.156	15496.98
504.359	15812.37
504.562	15812.37
504.765	16043.79
504.968	16369.41
505.17	16641.79
505.373	16613.12
505.576	16922.37
505.779	16801.54
505.982	17286.9
506.185	17311.48
506.387	17434.36
506.59	17602.29
506.793	17938.16
506.996	17837.81
507.198	18304.74
507.401	18214.63
507.604	18487.01
507.807	19062.49
508.009	18908.9
508.212	19236.57
508.415	19136.22
508.617	19654.36
508.82	19689.17
509.022	19564.25
509.225	20385.48
509.428	20375.24
509.63	20733.64
509.833	20694.72
510.035	21081.79
510.238	20870.85
510.44	20999.87
510.643	21597.88
510.845	21761.72
511.048	21649.08
511.25	22073.01
511.453	22316.72
511.655	22691.49
511.858	22863.52
512.06	22894.24
512.262	23047.84
512.465	22888.1
512.667	23774.87
512.87	23582.36
513.072	23828.12
513.274	24290.96
513.477	24465.03
513.679	24618.63
513.881	24919.68
514.084	25169.54
514.286	25128.58
514.488	25501.31
514.69	25951.86
514.893	26181.23
515.095	26414.7
515.297	26625.64
515.499	26318.45
515.701	26818.15
515.904	26707.56
516.106	27328.09
516.308	27756.12
516.51	27780.7
516.712	27676.25
516.914	28266.06
517.116	28589.64
517.318	28575.31
517.52	28767.82
517.722	29337.15
517.925	29314.62
518.127	29660.73
518.329	29611.58
518.531	29503.04
518.733	30467.63
518.935	30803.5
519.136	30408.24
519.338	30852.65
519.54	31473.18
519.742	31415.84
519.944	31856.15
520.146	32032.28
520.348	32318.99
520.55	32536.08
520.752	32607.76
520.954	32869.9
521.155	32665.1
521.357	33248.77
521.559	33670.65
521.761	34319.86
521.963	33609.22
522.164	34037.24
522.366	34328.05
522.568	34498.03
522.77	34377.2
522.971	35251.69
523.173	35024.36
523.375	35100.14
523.576	35599.84
523.778	35685.86
523.98	35790.3
524.181	36107.74
524.383	35857.88
524.584	36601.3
524.786	36646.35
524.988	36011.48
525.189	36771.28
525.391	37101
525.592	37107.15
525.794	37215.69
525.995	37449.16
526.197	37305.8
526.398	37617.09
526.6	38030.78
526.801	37924.29
527.003	38151.61
527.204	37932.48
527.406	39044.52
527.607	38223.29
527.808	38737.33
528.01	38391.22
528.211	38643.12
528.412	39222.7
528.614	39294.38
528.815	39308.71
529.016	39378.34
529.218	39048.62
529.419	39521.7
529.62	39271.85
529.822	39314.86
530.023	39376.3
530.224	39663.01
530.425	39630.24
530.626	39245.23
530.828	39437.73
531.029	40000.93
531.23	39515.56
531.431	39900.58
531.632	40005.02
531.833	40211.87
532.035	39538.08
532.236	40105.37
532.437	40314.26
532.638	39669.15
532.839	40029.6
533.04	40097.18
533.241	39585.19
533.442	40416.66
533.643	40297.88
533.844	40043.93
534.045	40474.01
534.246	39921.05
534.447	40500.63
534.648	40310.17
534.849	40361.37
535.05	39699.87
535.251	40160.67
535.451	40387.99
535.652	40463.77
535.853	40066.46
536.054	39910.81
536.255	40480.15
536.456	39980.45
536.657	40367.51
536.857	40132
537.058	39867.81
537.259	40263.07
537.46	40136.09
537.66	40246.68
537.861	40281.5
538.062	40244.63
538.263	40471.96
538.463	39753.12
538.664	40168.86
538.865	40226.2
539.065	40775.06
539.266	39949.73
539.466	40201.63
539.667	39945.63
539.868	40084.89
540.068	40031.65
540.269	40002.97
540.469	40304.02
540.67	40078.75
540.87	40097.18
541.071	39755.17
541.271	40449.43
541.472	40387.99
541.672	40105.37
541.873	39853.47
542.073	39423.4
542.274	40379.8
542.474	39740.83
542.675	39765.41
542.875	39912.86
543.075	40187.29
543.276	39529.89
543.476	40310.17
543.676	39648.67
543.877	39816.61
544.077	40113.56
544.277	39794.08
544.478	39931.29
544.678	40023.45
544.878	39712.16
545.078	39599.52
545.279	39259.56
545.479	39341.48
545.679	40043.93
545.879	39775.65
546.079	39540.13
546.28	39679.39
546.48	39499.17
546.68	39869.86
546.88	39841.18
547.08	39552.42
547.28	39409.06
547.48	39187.88
547.68	39671.2
547.88	39658.91
548.081	39695.78
548.281	39538.08
548.481	39517.6
548.681	39800.22
548.881	39640.48
549.081	39544.23
549.28	39302.57
549.48	39589.28
549.68	39527.84
549.88	39830.94
550.08	39364.01
550.28	39538.08
550.48	39261.61
550.68	39458.21
550.88	38933.93
551.08	39507.37
551.279	39404.97
551.479	39097.77
551.679	39400.87
551.879	39716.26
552.079	39372.2
552.278	39048.62
552.478	39275.94
552.678	39323.05
552.878	39650.72
553.077	39048.62
553.277	38958.51
553.477	39544.23
553.676	39216.55
553.876	38983.09
554.076	39232.94
554.275	39308.71
554.475	38647.22
554.674	39091.63
554.874	39108.01
555.074	38559.16
555.273	39032.24
555.473	39161.26
555.672	38571.44
555.872	38743.47
556.071	38722.99
556.271	39024.04
556.47	38794.67
556.67	38299.06
556.869	38383.03
557.068	38940.08
557.268	38378.93
557.467	38546.87
557.667	38583.73
557.866	38352.31
558.065	38368.69
558.265	37969.34
558.464	38186.43
558.663	38856.11
558.863	37731.78
559.062	38657.46
559.261	38018.49
559.461	38346.17
559.66	37651.91
559.859	37834.17
560.058	37606.85
560.258	37991.87
560.457	37531.08
560.656	37897.66
560.855	37774.78
561.054	37860.8
561.253	37979.58
561.453	37912
561.652	37705.15
561.851	37506.5
562.05	37420.48
562.249	36955.6
562.448	37844.41
562.647	37572.03
562.846	37262.79
563.045	37256.65
563.244	37039.56
563.443	37490.12
563.642	37053.9
563.841	36783.57
564.04	36994.51
564.239	37293.51
564.438	36695.5
564.637	36670.93
564.836	37144.01
565.035	36582.87
565.234	36670.93
565.432	36404.69
565.631	36218.33
565.83	36578.77
566.029	36378.07
566.228	36283.86
566.427	36208.09
566.625	35939.8
566.824	35921.37
567.023	36175.32
567.222	35509.73
567.42	36095.45
567.619	35818.97
567.818	35735.01
568.016	35671.52
568.215	36337.11
568.414	35278.31
568.612	35755.49
568.811	35376.61
569.01	35753.44
569.208	35055.08
569.407	35415.52
569.605	34842.09
569.804	35106.28
570.002	34899.44
570.201	35091.94
570.4	34469.36
570.598	34528.75
570.797	34258.42
570.995	34848.24
571.193	34530.8
571.392	34766.32
571.59	34209.27
571.789	34794.99
571.987	34354.68
572.186	34024.95
572.384	34039.29
572.582	34018.81
572.781	33940.99
572.979	33453.57
573.177	33986.04
573.376	34405.87
573.574	33564.16
573.772	33867.26
573.971	33304.07
574.169	33330.69
574.367	32984.58
574.565	33318.4
574.763	32980.49
574.962	33541.63
575.16	32857.61
575.358	33035.78
575.556	32708.11
575.754	33238.53
575.952	32574.99
576.151	32783.88
576.349	32405.01
576.547	32605.71
576.745	32638.48
576.943	32704.01
577.141	32329.23
577.339	32224.79
577.537	31974.94
577.735	32370.19
577.933	31764
578.131	32478.74
578.329	31833.63
578.527	31716.89
578.725	31651.36
578.923	31802.91
579.121	31807
579.319	31553.05
579.516	31665.69
579.714	31325.73
579.912	31573.53
580.11	31176.23
580.308	30938.66
580.506	31182.37
580.704	30846.51
580.901	30905.9
581.099	31374.88
581.297	30934.57
581.495	30895.66
581.692	30592.56
581.89	30182.96
582.088	30856.75
582.285	30283.31
582.483	30764.59
582.681	30541.36
582.878	30271.03
583.076	30139.96
583.274	30139.96
583.471	29765.18
583.669	29945.4
583.866	29580.86
584.064	29636.16
584.262	29402.69
584.459	29793.85
584.657	29544
584.854	29752.89
585.052	29251.14
585.249	29314.62
585.447	29582.91
585.644	28968.52
585.841	29038.15
586.039	29320.77
586.236	28470.86
586.434	28667.47
586.631	28601.93
586.828	28905.03
587.026	28804.68
587.223	28515.92
587.42	28434
587.618	28515.92
587.815	28448.33
588.012	28286.54
588.21	28149.33
588.407	28438.09
588.604	27965.01
588.801	27596.38
588.999	27922.01
589.196	27876.95
589.393	27780.7
589.59	27909.72
589.787	27704.92
589.984	27379.29
590.182	27393.63
590.379	27555.42
590.576	27053.67
590.773	27369.05
590.97	27123.3
591.167	27367.01
591.364	26674.79
591.561	27387.49
591.758	26713.7
591.955	26738.28
592.152	27025
592.349	26478.19
592.546	26338.93
592.743	26713.7
592.94	26125.94
593.137	26160.75
593.334	26379.89
593.531	25906.8
593.727	26203.76
593.924	26177.14
594.121	25845.37
594.318	25992.82
594.515	25538.17
594.712	26025.59
594.908	25814.65
595.105	25894.52
595.302	25259.65
595.499	25554.55
595.696	25583.23
595.892	25210.5
596.089	25153.15
596.286	25456.25
596.482	24915.59
596.679	25058.95
596.876	25153.15
597.072	24856.2
597.269	24788.61
597.466	24082.06
597.662	25194.11
597.859	24641.16
598.055	24243.85
598.252	24258.19
598.448	24262.29
598.645	24352.4
598.841	24239.76
599.038	23912.08
599.234	24129.17
599.431	23963.28
599.627	24010.39
599.824	24057.49
600.02	23918.23
600.217	23803.54
600.413	23598.74
600.609	23498.39
600.806	23234.21
601.002	23621.27
601.198	23359.13
601.395	23512.73
601.591	23289.5
601.787	23279.26
601.984	23086.75
602.18	23199.39
602.376	23197.34
602.572	23096.99
602.769	22759.08
602.965	22646.44
603.161	22916.77
603.357	22597.29
603.553	22376.11
603.75	22408.87
603.946	22488.74
604.142	22539.94
604.338	22310.57
604.534	22505.13
604.73	22099.63
604.926	22142.64
605.122	22052.53
605.318	21694.13
605.514	21782.2
605.71	21567.16
605.906	21655.22
606.102	21700.28
606.298	21851.83
606.494	21880.5
606.69	21571.25
606.886	21454.52
607.082	21444.28
607.278	21806.77
607.474	21313.21
607.67	21378.75
607.866	20782.79
608.062	21374.65
608.257	21141.18
608.453	21044.93
608.649	20956.86
608.845	20692.68
609.041	21268.16
609.236	20639.43
609.432	20651.72
609.628	21079.74
609.824	20840.13
610.019	20752.07
610.215	20661.96
610.411	20680.39
610.606	20555.46
610.802	20514.5
610.998	20645.57
611.193	20410.06
611.389	20184.78
611.584	20405.96
611.78	20291.27
611.976	20319.95
612.171	20393.67
612.367	20430.54
612.562	20162.25
612.758	19982.03
612.953	20063.95
613.149	20303.56
613.344	19932.88
613.539	20184.78
613.735	19855.06
613.93	19924.69
614.126	19771.09
614.321	20203.21
614.517	20113.1
614.712	19836.63
614.907	19644.12
615.103	19693.27
615.298	19517.14
615.493	19799.76
615.688	19341.02
615.884	19926.74
616.079	19218.14
616.274	19558.1
616.47	19341.02
616.665	19472.09
616.86	19334.87
617.055	19293.91
617.25	19529.43
617.445	19183.32
617.641	19224.28
617.836	19304.15
618.031	19146.46
618.226	19209.95
618.421	18538.21
618.616	19392.22
618.811	18501.35
619.006	19054.3
619.201	18579.17
619.396	18853.6
619.591	18538.21
619.786	18577.12
619.981	18489.06
620.176	18267.88
620.371	17983.21
620.566	18181.87
620.761	18046.7
620.956	18155.24
621.151	17989.36
621.346	17864.43
621.541	17585.91
621.735	17764.08
621.93	17686.26
622.125	17569.52
622.32	17020.67
622.515	17499.89
622.709	17256.18
622.904	17393.4
623.099	17002.24
623.294	17397.49
623.488	16920.32
623.683	17073.92
623.878	16830.21
624.072	16779.01
624.267	16875.26
624.462	16426.76
624.656	16375.56
624.851	16408.33
625.046	16160.52
625.24	16088.84
625.435	16221.96
625.629	16004.88
625.824	15861.52
626.018	16019.21
626.213	15554.32
626.407	15779.6
626.602	15507.22
626.796	15533.84
626.991	15550.23
627.185	15490.84
627.38	15107.87
627.574	15200.02
627.768	15013.66
627.963	14950.17
628.157	14688.03
628.352	14962.46
628.546	14661.41
628.74	14765.85
628.935	14536.48
629.129	14434.08
629.323	14393.12
629.517	14159.66
629.712	14180.14
629.906	14413.6
630.1	13946.67
630.294	14028.59
630.489	13653.81
630.683	14069.55
630.877	13754.16
631.071	13797.17
631.265	13858.6
631.459	13676.34
631.653	13483.83
631.848	13408.05
632.042	13338.42
632.236	13309.75
632.43	13078.33
632.624	13039.42
632.818	13004.6
633.012	12922.68
633.206	13127.48
633.4	12988.22
633.594	12742.46
633.788	12910.4
633.982	12721.98
634.176	12808
634.369	12777.28
634.563	12640.06
634.757	12480.32
634.951	12447.55
635.145	12529.47
635.339	12476.23
635.533	12023.62
635.726	12134.21
635.92	11888.46
636.114	12083.02
636.308	11904.84
636.501	11970.38
636.695	11626.32
636.889	11827.02
637.083	11718.48
637.276	11628.37
637.47	11698
637.664	11521.87
637.857	11542.35
638.051	11530.06
638.244	11411.28
638.438	11323.22
638.632	11321.17
638.825	11374.42
639.019	11149.14
639.212	11165.53
639.406	10936.15
639.599	11085.65
639.793	10932.06
639.986	10790.75
640.18	10923.87
640.373	10817.37
640.567	10565.47
640.76	10592.09
640.954	10493.79
641.147	10334.05
641.34	10553.18
641.534	10489.7
641.727	10250.08
641.92	10309.47
642.114	10239.84
642.307	10264.42
642.5	10159.97
642.694	9912.17
642.887	9955.18
643.08	9983.85
643.273	9770.86
643.467	9996.14
643.66	9916.26
643.853	9660.27
644.046	9539.44
644.239	9527.15
644.432	9492.34
644.626	9494.38
644.819	9494.38
645.012	9590.64
645.205	9555.82
645.398	9281.39
645.591	9396.08
645.784	9228.15
645.977	9095.03
646.17	9293.68
646.363	9103.22
646.556	9062.26
646.749	9070.45
646.942	9121.65
647.135	8888.18
647.328	8818.55
647.521	8767.35
647.714	8816.51
647.907	8789.88
648.099	8767.35
648.292	8650.62
648.485	8861.56
648.678	8486.78
648.871	8521.6
649.064	8363.9
649.256	8603.52
649.449	8472.45
649.642	8208.26
649.835	8261.51
650.027	8210.31
650.22	8165.25
650.413	8204.16
650.605	8126.34
650.798	7935.88
650.991	7987.08
651.183	7880.58
651.376	7962.5
651.568	8232.83
651.761	8015.75
651.954	7901.06
652.146	7741.32
652.339	7536.52
652.531	7626.64
652.724	7585.68
652.916	7597.96
653.109	7532.43
653.301	7446.41
653.494	7638.92
653.686	7274.39
653.879	7524.24
654.071	7311.25
654.263	7167.89
654.456	7317.39
654.648	7192.47
654.84	7143.32
655.033	7014.29
655.225	7028.63
655.417	6989.72
655.61	7186.32
655.802	7090.07
655.994	6954.9
656.186	7077.78
656.379	6752.15
656.571	6932.37
656.763	6825.88
656.955	6778.78
657.148	6778.78
657.34	6700.95
657.532	6563.74
657.724	6672.28
657.916	6645.66
658.108	6700.95
658.3	6543.26
658.492	6549.4
658.684	6481.82
658.876	6295.46
659.068	6324.13
659.26	6422.43
659.452	6389.66
659.644	6375.33
659.836	6287.26
660.028	6209.44
660.22	6225.82
660.412	6088.61
660.604	6053.8
660.796	6139.81
660.988	6053.8
661.18	5846.95
661.372	6018.98
661.563	5996.45
661.755	6006.69
661.947	6072.23
662.139	5908.39
662.331	5842.85
662.522	5676.97
662.714	5664.68
662.906	5693.35
663.097	5728.17
663.289	5660.59
663.481	5629.87
663.673	5668.78
663.864	5676.97
664.056	5455.79
664.247	5664.68
664.439	5423.02
664.631	5554.09
664.822	5365.68
665.014	5289.9
665.205	5382.06
665.397	5322.67
665.588	5502.89
665.78	5234.61
665.971	5138.35
666.163	5308.34
666.354	5398.45
666.546	5091.25
666.737	5103.54
666.929	5173.17
667.12	5187.5
667.311	5173.17
667.503	5115.83
667.694	5054.39
667.885	4941.75
668.077	5025.72
668.268	4841.4
668.459	4958.13
668.651	4835.25
668.842	4886.45
669.033	4890.55
669.224	4802.49
669.416	4941.75
669.607	4870.07
669.798	4714.42
669.989	4886.45
670.18	4710.33
670.371	4706.23
670.563	4667.32
670.754	4489.15
670.945	4661.18
671.136	4489.15
671.327	4644.79
671.518	4530.11
671.709	4573.11
671.9	4483
672.091	4425.66
672.282	4333.5
672.473	4485.05
672.664	4544.44
672.855	4497.34
673.046	4466.62
673.237	4360.13
673.428	4300.73
673.619	4317.12
673.809	4384.7
674	4163.52
674.191	4212.67
674.382	4237.25
674.573	4302.78
674.764	4265.92
674.954	4251.58
675.145	4204.48
675.336	4227.01
675.527	4134.85
675.717	4036.55
675.908	4106.18
676.099	4061.12
676.289	4040.64
676.48	4120.51
676.671	3870.66
676.861	4124.61
677.052	3977.16
677.243	3923.91
677.433	3966.92
677.624	3932.1
677.814	3925.96
678.005	3919.81
678.195	3870.66
678.386	3854.28
678.576	3868.61
678.767	3846.09
678.957	3809.22
679.148	3813.32
679.338	3833.8
679.529	3882.95
679.719	3999.68
679.909	3733.45
680.1	3702.73
680.29	3663.82
680.481	3719.11
680.671	3731.4
680.861	3776.45
681.052	3669.96
681.242	3569.61
681.432	3645.38
681.622	3719.11
681.813	3637.19
682.003	3598.28
682.193	3489.74
682.383	3540.94
682.573	3555.27
682.764	3366.86
682.954	3624.9
683.144	3547.08
683.334	3508.17
683.524	3418.06
683.714	3366.86
683.904	3549.13
684.094	3420.11
684.284	3373
684.474	3456.97
684.664	3340.24
684.854	3409.87
685.044	3366.86
685.234	3248.08
685.424	3456.97
685.614	3360.72
685.804	3252.17
685.994	3272.65
686.184	3338.19
686.374	3205.07
686.564	3362.76
686.753	3307.47
686.943	3278.8
687.133	3182.54
687.323	3284.94
687.513	3246.03
687.702	3235.79
687.892	3276.75
688.082	3145.68
688.272	3233.74
688.461	3147.73
688.651	3147.73
688.841	3121.1
689.03	3055.57
689.22	3180.5
689.41	3131.34
689.599	3016.66
689.789	3033.04
689.979	2998.23
690.168	2918.36
690.358	3020.75
690.547	3059.67
690.737	2869.2
690.926	3055.57
691.116	2906.07
691.305	2973.65
691.495	2940.88
691.684	2918.36
691.874	3035.09
692.063	2836.44
692.252	2813.91
692.442	2867.16
692.631	2846.68
692.82	2879.44
693.01	2721.75
693.199	2711.51
693.388	2680.79
693.578	2719.7
693.767	2740.18
693.956	2731.99
694.146	2809.81
694.335	2863.06
694.524	2740.18
694.713	2758.61
694.902	2605.02
695.092	2770.9
695.281	2637.78
695.47	2684.89
695.659	2609.11
695.848	2590.68
696.037	2699.22
696.226	2748.37
696.415	2652.12
696.604	2637.78
696.793	2613.21
696.982	2570.2
697.171	2680.79
697.36	2662.36
697.549	2590.68
697.738	2541.53
697.927	2531.29
698.116	2582.49
698.305	2514.91
698.494	2621.4
698.683	2539.48
698.872	2580.44
699.061	2428.89
699.25	2492.38
699.438	2543.58
699.627	2420.7
699.816	2502.62
700.005	2465.75
700.193	2467.8
700.382	2443.23
700.571	2463.71
700.76	2408.41
700.948	2523.1
701.137	2543.58
701.326	2441.18
701.514	2441.18
701.703	2555.86
701.892	2428.89
702.08	2498.52
702.269	2408.41
702.457	2385.88
702.646	2439.13
702.834	2293.73
703.023	2328.54
703.212	2566.1
703.4	2336.73
703.589	2306.01
703.777	2361.31
703.965	2299.87
704.154	2369.5
704.342	2320.35
704.531	2332.64
704.719	2277.34
704.907	2326.49
705.096	2287.58
705.284	2324.44
705.472	2392.03
705.661	2228.19
705.849	2252.77
706.037	2299.87
706.226	2285.53
706.414	2220
706.602	2428.89
706.79	2441.18
706.979	2285.53
707.167	2228.19
707.355	2342.88
707.543	2197.47
707.731	2336.73
707.919	2285.53
708.107	2260.96
708.296	2301.92
708.484	2254.81
708.672	2090.98
708.86	2283.49
709.048	2267.1
709.236	2220
709.424	2269.15
709.612	2342.88
709.8	2273.25
709.988	2203.61
710.176	2265.05
710.364	2281.44
710.551	2240.48
710.739	2240.48
710.927	2203.61
711.115	2240.48
711.303	2211.81
711.491	2183.13
711.679	2215.9
711.866	2201.57
712.054	2252.77
712.242	2260.96
712.43	2164.7
712.617	2275.29
712.805	2140.13
712.993	2203.61
713.181	2138.08
713.368	2148.32
713.556	2344.92
713.744	2260.96
713.931	2279.39
714.119	2336.73
714.306	2201.57
714.494	2285.53
714.682	2189.28
714.869	2105.31
715.057	2154.46
715.244	2138.08
715.432	2176.99
715.619	2181.09
715.807	2164.7
715.994	2213.85
716.182	2121.7
716.369	2125.79
716.556	2236.38
716.744	2181.09
716.931	2215.9
717.119	2170.85
717.306	2082.78
717.493	2129.89
717.681	2117.6
717.868	2043.87
718.055	2215.9
718.242	2138.08
718.43	2150.37
718.617	2105.31
718.804	2138.08
718.991	2146.27
719.179	1998.82
719.366	2252.77
719.553	2115.55
719.74	2230.24
719.927	2125.79
720.114	2039.78
720.301	2097.12
720.488	2267.1
720.676	2199.52
720.863	2158.56
721.05	2269.15
721.237	2318.3
721.424	2113.5
721.611	2154.46
721.798	2142.18
721.985	2164.7
722.172	2154.46
722.358	2193.37
722.545	2156.51
722.732	2009.06
722.919	2201.57
723.106	2117.6
723.293	2062.3
723.48	2056.16
723.667	2109.41
723.853	2084.83
724.04	2228.19
724.227	2154.46
724.414	2131.94
724.6	2047.97
724.787	2121.7
724.974	2131.94
725.161	2144.22
725.347	2007.01
725.534	2086.88
725.72	2220
725.907	2105.31
726.094	2148.32
726.28	2039.78
726.467	2050.02
726.653	2080.74
726.84	2101.22
727.027	2146.27
727.213	2041.82
727.4	2121.7
727.586	2129.89
727.773	2105.31
727.959	2109.41
728.145	2129.89
728.332	2203.61
728.518	2074.59
728.705	2058.21
728.891	2138.08
729.077	2113.5
729.264	2056.16
729.45	1996.77
729.636	2023.39
729.823	2090.98
730.009	2121.7
730.195	2027.49
730.382	2023.39
730.568	1951.71
730.754	2109.41
730.94	2111.46
731.126	2154.46
731.313	2088.93
731.499	2123.74
731.685	2088.93
731.871	2138.08
732.057	2109.41
732.243	2129.89
732.429	2162.65
732.615	1945.57
732.801	2064.35
732.987	2050.02
733.173	2066.4
733.359	2213.85
733.545	2084.83
733.731	2090.98
733.917	1994.72
734.103	2033.63
734.289	1980.39
734.475	1966.05
734.661	2088.93
734.847	2113.5
735.033	2007.01
735.219	2097.12
735.404	2088.93
735.59	2033.63
735.776	2090.98
735.962	2146.27
736.148	2041.82
736.333	2045.92
736.519	2058.21
736.705	1961.95
736.89	1974.24
737.076	1961.95
737.262	2023.39
737.447	2039.78
737.633	1982.43
737.819	1994.72
738.004	1929.19
738.19	1998.82
738.375	2056.16
738.561	2052.06
738.747	2027.49
738.932	2015.2
739.118	2099.17
739.303	2002.91
739.489	1943.52
739.674	1929.19
739.859	1964
740.045	1949.67
740.23	1976.29
740.416	1978.34
740.601	1908.71
740.786	1927.14
740.972	1824.74
741.157	1888.23
741.342	1796.07
741.528	1851.36
741.713	1863.65
741.898	1837.03
742.084	1861.6
742.269	1925.09
742.454	1882.08
742.639	1941.47
742.824	1902.56
743.01	1839.08
743.195	1925.09
743.38	1761.25
743.565	1875.94
743.75	1877.99
743.935	1837.03
744.12	1867.75
744.305	1794.02
744.49	1761.25
744.675	1736.68
744.86	1728.49
745.045	1781.73
745.23	1703.91
745.415	1875.94
745.6	1773.54
745.785	1765.35
745.97	1802.21
746.155	1900.52
746.34	1650.66
746.525	1873.89
746.71	1847.27
746.895	1699.81
747.079	1628.14
747.264	1716.2
747.449	1716.2
747.634	1638.38
747.819	1574.89
748.003	1640.42
748.188	1619.94
748.373	1554.41
748.557	1716.2
748.742	1716.2
748.927	1630.18
749.111	1630.18
749.296	1624.04
749.481	1617.9
749.665	1638.38
749.85	1576.94
750.034	1568.74
750.219	1523.69
750.404	1503.21
750.588	1566.7
750.773	1499.11
750.957	1593.32
751.141	1495.02
751.326	1538.02
751.51	1449.96
751.695	1454.06
751.879	1409
752.064	1499.11
752.248	1486.83
752.432	1400.81
752.617	1417.19
752.801	1548.26
752.985	1329.13
753.17	1441.77
753.354	1468.39
753.538	1372.14
753.722	1499.11
753.907	1361.9
754.091	1445.87
754.275	1245.17
754.459	1368.04
754.643	1359.85
754.828	1343.47
755.012	1241.07
755.196	1249.26
755.38	1325.04
755.564	1249.26
755.748	1245.17
755.932	1257.45
756.116	1306.6
756.3	1226.73
756.484	1312.75
756.668	1269.74
756.852	1245.17
757.036	1343.47
757.22	1073.14
757.404	1097.71
757.588	1171.44
757.772	1085.42
757.956	1130.48
758.14	1179.63
758.323	1095.66
758.507	1163.25
758.691	1120.24
758.875	1073.14
759.059	1224.69
759.242	1040.37
759.426	1157.1
759.61	1155.05
759.794	1015.79
759.977	1107.95
760.161	1146.86
760.345	1091.57
760.528	1163.25
760.712	1030.13
760.895	1105.9
761.079	991.22
761.263	1011.7
761.446	1091.57
761.63	1011.7
761.813	989.17
761.997	983.02
762.18	1011.7
762.364	1069.04
762.547	942.07
762.731	1064.94
762.914	1073.14
763.098	1075.18
763.281	958.45
763.464	835.57
763.648	999.41
763.831	933.87
764.015	911.35
764.198	970.74
764.381	929.78
764.564	966.64
764.748	952.31
764.931	942.07
765.114	909.3
765.297	976.88
765.481	796.66
765.664	1015.79
765.847	925.68
766.03	985.07
766.213	876.53
766.397	923.63
766.58	905.2
766.763	978.93
766.946	884.72
767.129	897.01
767.312	876.53
767.495	794.61
767.678	892.91
767.861	929.78
768.044	837.62
768.227	843.76
768.41	876.53
768.593	849.91
768.776	884.72
768.959	886.77
769.142	923.63
769.324	802.8
769.507	921.59
769.69	774.13
769.873	804.85
770.056	921.59
770.239	802.8
770.421	798.71
770.604	794.61
770.787	831.48
770.97	847.86
771.152	802.8
771.335	770.04
771.518	804.85
771.7	823.28
771.883	872.43
772.066	675.83
772.248	835.57
772.431	851.96
772.613	811
772.796	755.7
772.978	925.68
773.161	798.71
773.343	802.8
773.526	761.84
773.708	835.57
773.891	763.89
774.073	708.6
774.256	790.52
774.438	724.98
774.621	737.27
774.803	741.36
774.985	792.56
775.168	770.04
775.35	712.69
775.532	714.74
775.715	749.56
775.897	681.97
776.079	626.68
776.261	655.35
776.444	749.56
776.626	618.49
776.808	595.96
776.99	624.63
777.173	630.77
777.355	606.2
777.537	716.79
777.719	659.45
777.901	657.4
778.083	598.01
778.265	608.25
778.447	606.2
778.629	671.73
778.811	681.97
778.993	614.39
779.175	657.4
779.357	534.52
779.539	571.38
779.721	587.77
779.903	632.82
780.085	557.05
780.267	643.06
780.449	671.73
780.631	516.09
780.812	573.43
780.994	546.81
781.176	587.77
781.358	524.28
781.54	602.1
781.721	559.1
781.903	595.96
782.085	565.24
782.267	618.49
782.448	528.38
782.63	432.12
782.812	487.42
782.993	598.01
783.175	511.99
783.357	485.37
783.538	499.7
783.72	446.46
783.901	499.7
784.083	471.03
784.264	458.75
784.446	356.35
784.627	405.5
784.809	442.36
784.99	540.66
785.172	507.9
785.353	450.55
785.535	493.56
785.716	483.32
785.897	436.22
786.079	368.63
786.26	436.22
786.441	434.17
786.623	425.98
786.804	411.64
786.985	393.21
787.167	401.4
787.348	344.06
787.529	442.36
787.71	413.69
787.891	444.41
788.073	434.17
788.254	368.63
788.435	407.55
788.616	499.7
788.797	409.59
788.978	292.86
789.159	333.82
789.34	403.45
789.522	337.91
789.703	462.84
789.884	385.02
790.065	319.48
790.246	452.6
790.427	376.83
790.607	395.26
790.788	452.6
790.969	319.48
791.15	327.67
791.331	368.63
791.512	299
791.693	325.63
791.874	346.11
792.054	368.63
792.235	378.87
792.416	278.52
792.597	327.67
792.778	368.63
792.958	325.63
793.139	278.52
793.32	323.58
793.5	237.56
793.681	290.81
793.862	251.9
794.042	315.39
794.223	212.99
794.404	296.96
794.584	245.76
794.765	278.52
794.945	315.39
795.126	258.04
795.306	266.24
795.487	241.66
795.667	251.9
795.848	329.72
796.028	296.96
796.209	319.48
796.389	239.61
796.57	241.66
796.75	278.52
796.93	294.91
797.111	172.03
797.291	311.29
797.471	280.57
797.652	237.56
797.832	264.19
798.012	303.1
798.192	253.95
798.373	245.76
798.553	196.61
798.733	303.1
798.913	258.04
799.093	264.19
799.274	258.04
799.454	204.8
799.634	237.56
799.814	243.71
799.994	182.27
800.174	253.95
800.354	280.57
800.534	178.17
800.714	200.7
800.894	163.84
801.074	157.69
801.254	249.85
801.434	303.1
801.614	217.08
801.794	161.79
801.974	806.9
802.154	133.12
802.334	225.28
802.514	229.37
802.693	272.38
802.873	155.65
803.053	303.1
803.233	200.7
803.413	198.65
803.592	198.65
803.772	188.41
803.952	223.23
804.131	182.27
804.311	188.41
804.491	229.37
804.67	141.31
804.85	155.65
805.03	229.37
805.209	270.33
805.389	243.71
805.568	163.84
805.748	192.51
805.928	184.32
806.107	172.03
806.287	178.17
806.466	231.42
806.646	155.65
806.825	165.89
807.004	163.84
807.184	157.69
807.363	217.08
807.543	223.23
807.722	198.65
807.901	208.89
808.081	192.51
808.26	73.73
808.439	133.12
808.619	159.74
808.798	180.22
808.977	151.55
809.156	182.27
809.336	165.89
809.515	202.75
809.694	143.36
809.873	245.76
810.052	225.28
810.231	192.51
810.411	231.42
810.59	212.99
810.769	188.41
810.948	131.07
811.127	151.55
811.306	135.17
811.485	178.17
811.664	200.7
811.843	198.65
812.022	149.5
812.201	81.92
812.38	122.88
812.559	169.98
812.737	184.32
812.916	73.73
813.095	92.16
813.274	100.35
813.453	139.26
813.632	133.12
813.811	161.79
813.989	86.01
814.168	165.89
814.347	122.88
814.526	108.54
814.704	163.84
814.883	151.55
815.062	131.07
815.24	124.93
815.419	157.69
815.598	114.69
815.776	51.2
815.955	137.21
816.133	88.06
816.312	124.93
816.49	118.78
816.669	114.69
816.847	69.63
817.026	83.97
817.204	83.97
817.383	118.78
817.561	73.73
817.74	145.41
817.918	98.3
818.097	24.58
818.275	124.93
818.453	169.98
818.632	110.59
818.81	114.69
818.988	83.97
819.167	172.03
819.345	131.07
819.523	98.3
819.701	43.01
819.879	137.21
820.058	83.97
820.236	98.3
820.414	24.58
820.592	112.64
820.77	83.97
820.948	16.38
821.127	133.12
821.305	94.21
821.483	106.49
821.661	110.59
821.839	75.77
822.017	69.63
822.195	55.3
822.373	98.3
822.551	81.92
822.729	49.15
822.907	28.67
823.085	67.58
823.262	73.73
823.44	4.1
823.618	53.25
823.796	163.84
823.974	90.11
824.152	59.39
824.329	65.54
824.507	114.69
824.685	104.45
824.863	81.92
825.04	114.69
825.218	81.92
825.396	106.49
825.574	110.59
825.751	114.69
825.929	65.54
826.107	106.49
826.284	139.26
826.462	106.49
826.639	73.73
826.817	0
826.994	108.54
827.172	40.96
827.349	129.02
827.527	135.17
827.704	22.53
827.882	129.02
828.059	124.93
828.237	34.82
828.414	90.11
828.591	-8.19
828.769	49.15
828.946	24.58
829.124	102.4
829.301	92.16
829.478	81.92
829.655	32.77
829.833	94.21
830.01	0
830.187	100.35
830.364	98.3
830.542	49.15
830.719	20.48
830.896	83.97
831.073	36.86
831.25	8.19
831.427	34.82
831.604	73.73
831.782	53.25
831.959	114.69
832.136	32.77
832.313	131.07
832.49	75.77
832.667	114.69
832.844	63.49
833.021	98.3
833.198	49.15
833.374	108.54
833.551	63.49
833.728	16.38
833.905	81.92
834.082	32.77
834.259	77.82
834.436	14.34
834.612	38.91
834.789	12.29
834.966	16.38
835.143	61.44
835.319	-51.2
835.496	67.58
835.673	28.67
835.85	32.77
836.026	45.06
836.203	65.54
836.38	-4.1
836.556	12.29
836.733	18.43
836.909	49.15
837.086	16.38
837.262	-22.53
837.439	34.82
837.616	-63.49
837.792	-6.14
837.968	8.19
838.145	49.15
838.321	10.24
838.498	73.73
838.674	110.59
838.851	40.96
839.027	59.39
839.203	57.34
839.38	86.01
839.556	73.73
839.732	137.21
839.909	4.1
840.085	51.2
840.261	24.58
840.437	98.3
840.614	20.48
840.79	83.97
840.966	40.96
841.142	32.77
841.318	-55.3
841.494	26.62
841.671	49.15
841.847	26.62
842.023	24.58
842.199	61.44
842.375	86.01
842.551	-49.15
842.727	14.34
842.903	34.82
843.079	8.19
843.255	81.92
843.431	28.67
843.607	81.92
843.783	75.77
843.959	4.1
844.134	73.73
844.31	116.73
844.486	88.06
844.662	8.19
844.838	12.29
845.013	63.49
845.189	34.82
845.365	16.38
845.541	-28.67
845.716	90.11
845.892	51.2
846.068	90.11
846.244	-14.34
846.419	69.63
846.595	10.24
846.77	49.15
846.946	71.68
847.122	0
847.297	20.48
847.473	32.77
847.648	4.1
847.824	116.73
847.999	-8.19
848.175	-16.38
848.35	73.73
848.526	26.62
848.701	53.25
848.876	114.69
849.052	75.77
849.227	4.1
849.403	16.38
849.578	40.96
849.753	28.67
849.929	81.92
850.104	36.86
850.279	-24.58
850.454	133.12
850.63	8.19
850.805	49.15
850.98	51.2
851.155	8.19
851.33	53.25
851.505	-22.53
851.681	55.3
851.856	59.39
852.031	-24.58
852.206	18.43
852.381	-12.29
852.556	20.48
852.731	110.59
852.906	4.1
853.081	40.96
853.256	63.49
853.431	57.34
853.606	36.86
853.781	-2.05
853.956	-20.48
854.131	-49.15
854.305	10.24
854.48	-40.96
854.655	-12.29
854.83	-71.68
855.005	-12.29
855.18	-24.58
855.354	49.15
855.529	0
855.704	10.24
855.879	67.58
856.053	-38.91
856.228	-4.1
856.403	-32.77
856.577	32.77
856.752	-28.67
856.926	26.62
857.101	43.01
857.276	-28.67
857.45	75.77
857.625	34.82
857.799	24.58
857.974	38.91
858.148	8.19
858.323	-8.19
858.497	-24.58
858.672	57.34
858.846	-14.34
859.02	45.06
859.195	-8.19
859.369	-71.68
859.543	-8.19
859.718	65.54
859.892	10.24
860.066	36.86
860.241	-28.67
860.415	-12.29
860.589	47.1
860.763	-8.19
860.938	40.96
861.112	57.34
861.286	14.34
861.46	16.38
861.634	16.38
861.808	47.1
861.982	-4.1
862.157	-4.1
862.331	-20.48
862.505	-51.2
862.679	6.14
862.853	-4.1
863.027	-36.86
863.201	71.68
863.375	-28.67
863.549	8.19
863.722	-8.19
863.896	30.72
864.07	-8.19
864.244	-8.19
864.418	-18.43
864.592	-32.77
864.766	65.54
864.939	18.43
865.113	-36.86
865.287	32.77
865.461	28.67
865.634	67.58
865.808	-67.58
865.982	-22.53
866.156	-65.53
866.329	-106.49
866.503	28.67
866.676	40.96
866.85	2.05
867.024	8.19
867.197	-73.73
867.371	8.19
867.544	0
867.718	-24.58
867.891	-26.62
868.065	-36.86
868.238	-32.77
868.412	40.96
868.585	-22.53
868.759	-36.86
868.932	2.05
869.105	-24.58
869.279	-6.14
869.452	24.58
869.625	20.48
869.799	-22.53
869.972	-2.05
870.145	0
870.319	6.14
870.492	-6.14
870.665	-57.34
870.838	-63.49
871.011	-71.68
871.185	-63.49
871.358	8.19
871.531	0
871.704	-6.14
871.877	-4.1
872.05	8.19
872.223	10.24
872.396	-61.44
872.569	-16.38
872.742	16.38
872.915	-10.24
873.088	16.38
873.261	32.77
873.434	-14.34
873.607	-20.48
873.78	-6.14
873.953	24.58
874.126	-57.34
874.299	30.72
874.471	-32.77
874.644	-12.29
874.817	-28.67
874.99	57.34
875.163	51.2
875.335	-34.82
875.508	-8.19
875.681	106.49
875.853	6.14
876.026	73.73
876.199	32.77
876.371	-49.15
876.544	-38.91
876.717	-6.14
876.889	-2.05
877.062	32.77
877.234	-45.06
877.407	-98.3
877.579	-45.06
877.752	26.62
877.924	-8.19
878.097	55.3
878.269	-65.53
878.442	4.1
878.614	-30.72
878.786	-47.1
878.959	-32.77
879.131	-16.38
879.303	-83.97
879.476	-40.96
879.648	-47.1
879.82	59.39
879.993	32.77
880.165	22.53
880.337	-4.1
880.509	-8.19
880.681	-40.96
880.854	-65.53
881.026	8.19
881.198	36.86
881.37	22.53
881.542	55.3
881.714	51.2
881.886	43.01
882.058	20.48
882.23	-98.3
882.402	12.29
882.574	-8.19
882.746	34.82
882.918	32.77
883.09	34.82
883.262	24.58
883.434	-2.05
883.606	-36.86
883.778	10.24
883.95	8.19
884.122	-40.96
884.293	49.15
884.465	28.67
884.637	14.34
884.809	-32.77
884.98	-51.2
885.152	-63.49
885.324	-47.1
885.496	-53.25
885.667	10.24
885.839	65.54
886.011	12.29
886.182	-12.29
886.354	4.1
886.525	-81.92
886.697	-8.19
886.869	18.43
887.04	-51.2
887.212	53.25
887.383	-8.19
887.555	-14.34
887.726	28.67
887.897	-6.14
888.069	34.82
888.24	-34.82
888.412	-8.19
888.583	-22.53
888.754	18.43
888.926	-8.19
889.097	14.34
889.268	-36.86
889.44	2.05
889.611	-47.1
889.782	-14.34
889.953	-6.14
890.125	0
890.296	-61.44
890.467	-16.38
890.638	49.15
890.809	-20.48
890.98	-98.3
891.151	90.11
891.323	28.67
891.494	-12.29
891.665	-38.91
891.836	-38.91
892.007	4.1
892.178	65.54
892.349	16.38
892.52	18.43
892.691	77.82
892.862	-36.86
893.032	-4.1
893.203	-2.05
893.374	-24.58
893.545	24.58
893.716	-32.77
893.887	51.2
894.057	-36.86
894.228	34.82
894.399	-47.1
894.57	-38.91
894.74	43.01
894.911	-30.72
895.082	-40.96
895.253	18.43
895.423	40.96
895.594	-47.1
895.764	-53.25
895.935	-53.25
896.106	12.29
896.276	-32.77
896.447	20.48
896.617	40.96
896.788	10.24
896.958	2.05
897.129	-24.58
897.299	67.58
897.47	0
897.64	106.49
897.81	16.38
897.981	8.19
898.151	-40.96
898.322	8.19
898.492	-36.86
898.662	8.19
898.832	-53.25
899.003	-49.15
899.173	28.67
899.343	-77.82
899.513	12.29
