Data from USB4F104151__106__14-43-44-312.txt Node

Date: Thu Mar 13 14:43:44 EDT 2025
User: louis
Spectrometer: USB4F10415
Trigger mode: 4
Integration Time (sec): 2.000000E-2
Scans to average: 1
Electric dark correction enabled: true
Nonlinearity correction enabled: false
Boxcar width: 0
XAxis mode: Wavelengths
Number of Pixels in Spectrum: 3648
>>>>>Begin Spectral Data<<<<<
178.204	-116.05
178.424	-116.05
178.644	-116.05
178.864	-179.54
179.084	-66.9
179.304	-46.42
179.524	-11.61
179.744	-15.7
179.964	-36.18
180.184	-11.61
180.404	51.88
180.624	2.73
180.844	66.22
181.064	2.73
181.283	-58.71
181.503	-17.75
181.723	74.41
181.943	-44.37
182.163	72.36
182.383	-56.66
182.602	31.4
182.822	27.31
183.042	-11.61
183.262	60.07
183.482	-21.85
183.701	-23.89
183.921	21.16
184.141	33.45
184.361	0.68
184.58	-23.89
184.8	72.36
185.02	6.83
185.239	88.75
185.459	-11.61
185.679	47.79
185.898	-3.41
186.118	55.98
186.338	-19.8
186.557	113.32
186.777	-5.46
186.997	43.69
187.216	-17.75
187.436	39.59
187.655	62.12
187.875	66.22
188.095	21.16
188.314	33.45
188.534	37.55
188.753	-58.71
188.973	6.83
189.192	37.55
189.412	47.79
189.631	33.45
189.851	31.4
190.07	-1.37
190.29	-30.04
190.509	25.26
190.729	-42.32
190.948	103.08
191.168	74.41
191.387	25.26
191.607	6.83
191.826	8.87
192.045	43.69
192.265	-15.7
192.484	33.45
192.704	41.64
192.923	39.59
193.142	41.64
193.362	21.16
193.581	115.37
193.8	70.31
194.02	43.69
194.239	-42.32
194.458	10.92
194.678	15.02
194.897	101.03
195.116	4.78
195.335	49.83
195.555	64.17
195.774	39.59
195.993	-13.65
196.212	17.07
196.432	47.79
196.651	64.17
196.87	41.64
197.089	23.21
197.308	12.97
197.528	10.92
197.747	29.35
197.966	88.75
198.185	72.36
198.404	60.07
198.623	96.94
198.842	39.59
199.062	72.36
199.281	70.31
199.5	98.99
199.719	15.02
199.938	107.18
200.157	55.98
200.376	-30.04
200.595	23.21
200.814	39.59
201.033	17.07
201.252	23.21
201.471	58.03
201.69	72.36
201.909	31.4
202.128	72.36
202.347	-25.94
202.566	17.07
202.785	15.02
203.004	-124.24
203.223	58.03
203.442	-21.85
203.661	78.51
203.879	-1.37
204.098	-44.37
204.317	60.07
204.536	80.55
204.755	64.17
204.974	6.83
205.193	15.02
205.411	107.18
205.63	72.36
205.849	60.07
206.068	8.87
206.287	39.59
206.505	72.36
206.724	39.59
206.943	31.4
207.162	-7.51
207.381	-13.65
207.599	25.26
207.818	98.99
208.037	55.98
208.255	47.79
208.474	39.59
208.693	-7.51
208.911	39.59
209.13	88.75
209.349	49.83
209.567	-1.37
209.786	109.22
210.005	43.69
210.223	70.31
210.442	-11.61
210.661	66.22
210.879	101.03
211.098	2.73
211.316	-48.47
211.535	23.21
211.753	72.36
211.972	47.79
212.191	-21.85
212.409	-21.85
212.628	-1.37
212.846	17.07
213.065	84.65
213.283	8.87
213.502	43.69
213.72	47.79
213.938	62.12
214.157	23.21
214.375	-15.7
214.594	15.02
214.812	43.69
215.031	29.35
215.249	60.07
215.467	68.27
215.686	15.02
215.904	2.73
216.122	41.64
216.341	121.51
216.559	72.36
216.778	49.83
216.996	64.17
217.214	-23.89
217.432	-23.89
217.651	41.64
217.869	-77.14
218.087	-15.7
218.306	82.6
218.524	39.59
218.742	43.69
218.96	-7.51
219.179	27.31
219.397	45.74
219.615	19.11
219.833	64.17
220.051	43.69
220.27	27.31
220.488	80.55
220.706	41.64
220.924	60.07
221.142	-1.37
221.36	6.83
221.578	-9.56
221.796	-7.51
222.015	39.59
222.233	-34.13
222.451	64.17
222.669	25.26
222.887	10.92
223.105	-38.23
223.323	-1.37
223.541	58.03
223.759	23.21
223.977	15.02
224.195	-17.75
224.413	74.41
224.631	68.27
224.849	31.4
225.067	78.51
225.285	19.11
225.503	82.6
225.721	-157.01
225.939	68.27
226.157	15.02
226.375	88.75
226.592	-42.32
226.81	72.36
227.028	78.51
227.246	64.17
227.464	92.84
227.682	25.26
227.9	41.64
228.117	27.31
228.335	-34.13
228.553	27.31
228.771	39.59
228.989	21.16
229.206	66.22
229.424	-13.65
229.642	-1.37
229.86	64.17
230.077	64.17
230.295	117.42
230.513	21.16
230.731	98.99
230.948	92.84
231.166	80.55
231.384	-32.08
231.601	8.87
231.819	84.65
232.037	15.02
232.254	-38.23
232.472	-19.8
232.689	-58.71
232.907	19.11
233.125	25.26
233.342	27.31
233.56	33.45
233.777	31.4
233.995	-1.37
234.213	43.69
234.43	31.4
234.648	45.74
234.865	47.79
235.083	35.5
235.3	-9.56
235.518	51.88
235.735	41.64
235.953	64.17
236.17	68.27
236.388	6.83
236.605	15.02
236.822	43.69
237.04	6.83
237.257	31.4
237.475	25.26
237.692	23.21
237.909	88.75
238.127	58.03
238.344	19.11
238.562	15.02
238.779	60.07
238.996	10.92
239.214	29.35
239.431	82.6
239.648	37.55
239.865	23.21
240.083	-5.46
240.3	15.02
240.517	17.07
240.735	15.02
240.952	94.89
241.169	10.92
241.386	2.73
241.603	55.98
241.821	55.98
242.038	-9.56
242.255	-15.7
242.472	31.4
242.689	43.69
242.907	88.75
243.124	31.4
243.341	15.02
243.558	-30.04
243.775	-1.37
243.992	-34.13
244.209	96.94
244.426	72.36
244.643	88.75
244.86	8.87
245.078	60.07
245.295	109.22
245.512	-40.28
245.729	8.87
245.946	39.59
246.163	58.03
246.38	25.26
246.597	-5.46
246.814	39.59
247.031	31.4
247.248	33.45
247.464	29.35
247.681	-7.51
247.898	80.55
248.115	107.18
248.332	-42.32
248.549	39.59
248.766	86.7
248.983	58.03
249.2	64.17
249.417	-3.41
249.633	-30.04
249.85	15.02
250.067	113.32
250.284	21.16
250.501	96.94
250.717	31.4
250.934	31.4
251.151	-7.51
251.368	47.79
251.585	51.88
251.801	51.88
252.018	-48.47
252.235	10.92
252.451	-25.94
252.668	76.46
252.885	6.83
253.102	27.31
253.318	39.59
253.535	-32.08
253.752	15.02
253.968	88.75
254.185	86.7
254.401	-25.94
254.618	23.21
254.835	-5.46
255.051	111.27
255.268	60.07
255.484	68.27
255.701	-7.51
255.917	60.07
256.134	51.88
256.351	80.55
256.567	68.27
256.784	12.97
257	8.87
257.217	82.6
257.433	-32.08
257.65	-44.37
257.866	111.27
258.082	17.07
258.299	8.87
258.515	33.45
258.732	-1.37
258.948	23.21
259.165	15.02
259.381	49.83
259.597	88.75
259.814	-23.89
260.03	6.83
260.246	74.41
260.463	15.02
260.679	78.51
260.895	66.22
261.112	39.59
261.328	35.5
261.544	76.46
261.761	137.9
261.977	-5.46
262.193	-3.41
262.409	55.98
262.626	82.6
262.842	80.55
263.058	-46.42
263.274	98.99
263.49	8.87
263.707	-58.71
263.923	-38.23
264.139	47.79
264.355	17.07
264.571	160.42
264.787	21.16
265.004	39.59
265.22	17.07
265.436	76.46
265.652	21.16
265.868	31.4
266.084	-5.46
266.3	49.83
266.516	-17.75
266.732	17.07
266.948	96.94
267.164	39.59
267.38	41.64
267.596	15.02
267.812	41.64
268.028	33.45
268.244	-30.04
268.46	27.31
268.676	-17.75
268.892	35.5
269.108	31.4
269.324	0.68
269.54	-15.7
269.756	55.98
269.972	80.55
270.188	-7.51
270.403	37.55
270.619	51.88
270.835	72.36
271.051	17.07
271.267	10.92
271.483	2.73
271.698	-17.75
271.914	-21.85
272.13	49.83
272.346	6.83
272.562	19.11
272.777	47.79
272.993	8.87
273.209	-71
273.425	80.55
273.64	25.26
273.856	64.17
274.072	-1.37
274.287	-15.7
274.503	6.83
274.719	58.03
274.934	58.03
275.15	12.97
275.366	-30.04
275.581	-40.28
275.797	49.83
276.012	10.92
276.228	62.12
276.444	-75.09
276.659	51.88
276.875	72.36
277.09	-21.85
277.306	55.98
277.521	88.75
277.737	15.02
277.952	-19.8
278.168	-21.85
278.383	25.26
278.599	45.74
278.814	39.59
279.03	2.73
279.245	74.41
279.461	39.59
279.676	80.55
279.892	6.83
280.107	60.07
280.322	23.21
280.538	121.51
280.753	-21.85
280.969	-23.89
281.184	-5.46
281.399	74.41
281.615	29.35
281.83	84.65
282.045	31.4
282.26	6.83
282.476	-7.51
282.691	84.65
282.906	64.17
283.122	84.65
283.337	6.83
283.552	92.84
283.767	-40.28
283.983	90.79
284.198	6.83
284.413	23.21
284.628	58.03
284.843	23.21
285.058	10.92
285.274	6.83
285.489	0.68
285.704	107.18
285.919	-9.56
286.134	90.79
286.349	49.83
286.564	64.17
286.779	90.79
286.995	27.31
287.21	51.88
287.425	27.31
287.64	72.36
287.855	105.13
288.07	88.75
288.285	82.6
288.5	107.18
288.715	107.18
288.93	55.98
289.145	-17.75
289.36	-13.65
289.575	6.83
289.79	31.4
290.004	41.64
290.219	2.73
290.434	-15.7
290.649	19.11
290.864	88.75
291.079	-25.94
291.294	35.5
291.509	78.51
291.724	-83.28
291.938	4.78
292.153	64.17
292.368	74.41
292.583	51.88
292.798	70.31
293.012	53.93
293.227	21.16
293.442	23.21
293.657	55.98
293.871	41.64
294.086	27.31
294.301	84.65
294.516	-19.8
294.73	66.22
294.945	-1.37
295.16	27.31
295.374	82.6
295.589	17.07
295.804	43.69
296.018	88.75
296.233	17.07
296.447	55.98
296.662	123.56
296.877	68.27
297.091	45.74
297.306	-73.04
297.52	80.55
297.735	72.36
297.949	10.92
298.164	19.11
298.378	84.65
298.593	-40.28
298.807	10.92
299.022	76.46
299.236	15.02
299.451	19.11
299.665	-46.42
299.88	55.98
300.094	60.07
300.309	53.93
300.523	92.84
300.737	31.4
300.952	31.4
301.166	-5.46
301.381	-7.51
301.595	-15.7
301.809	39.59
302.024	88.75
302.238	-17.75
302.452	37.55
302.667	80.55
302.881	39.59
303.095	101.03
303.309	19.11
303.524	25.26
303.738	39.59
303.952	6.83
304.166	15.02
304.381	-27.99
304.595	58.03
304.809	35.5
305.023	-42.32
305.237	25.26
305.452	-9.56
305.666	-1.37
305.88	64.17
306.094	125.61
306.308	6.83
306.522	84.65
306.736	78.51
306.95	70.31
307.164	-34.13
307.379	15.02
307.593	154.28
307.807	10.92
308.021	43.69
308.235	41.64
308.449	-17.75
308.663	53.93
308.877	43.69
309.091	53.93
309.305	33.45
309.519	17.07
309.733	72.36
309.947	15.02
310.161	90.79
310.374	25.26
310.588	31.4
310.802	66.22
311.016	-21.85
311.23	39.59
311.444	90.79
311.658	19.11
311.872	66.22
312.085	80.55
312.299	2.73
312.513	150.18
312.727	92.84
312.941	31.4
313.154	33.45
313.368	80.55
313.582	92.84
313.796	23.21
314.009	96.94
314.223	43.69
314.437	92.84
314.651	19.11
314.864	55.98
315.078	88.75
315.292	31.4
315.505	39.59
315.719	90.79
315.933	98.99
316.146	23.21
316.36	10.92
316.573	15.02
316.787	86.7
317.001	-5.46
317.214	76.46
317.428	-21.85
317.641	-30.04
317.855	31.4
318.068	55.98
318.282	49.83
318.495	72.36
318.709	-21.85
318.922	31.4
319.136	-1.37
319.349	-21.85
319.563	51.88
319.776	39.59
319.99	47.79
320.203	45.74
320.417	88.75
320.63	8.87
320.843	29.35
321.057	80.55
321.27	88.75
321.483	37.55
321.697	41.64
321.91	58.03
322.124	88.75
322.337	-7.51
322.55	23.21
322.763	23.21
322.977	88.75
323.19	39.59
323.403	19.11
323.617	64.17
323.83	154.28
324.043	-34.13
324.256	72.36
324.469	23.21
324.683	82.6
324.896	55.98
325.109	23.21
325.322	74.41
325.535	58.03
325.748	64.17
325.962	23.21
326.175	21.16
326.388	105.13
326.601	74.41
326.814	25.26
327.027	49.83
327.24	55.98
327.453	-81.24
327.666	80.55
327.879	58.03
328.092	115.37
328.305	64.17
328.518	55.98
328.731	76.46
328.944	-11.61
329.157	90.79
329.37	2.73
329.583	96.94
329.796	82.6
330.009	-1.37
330.222	74.41
330.435	55.98
330.648	74.41
330.861	-1.37
331.073	74.41
331.286	15.02
331.499	27.31
331.712	64.17
331.925	55.98
332.138	29.35
332.35	127.66
332.563	15.02
332.776	80.55
332.989	-36.18
333.202	55.98
333.414	10.92
333.627	2.73
333.84	-9.56
334.053	64.17
334.265	12.97
334.478	17.07
334.691	76.46
334.903	17.07
335.116	39.59
335.329	64.17
335.541	80.55
335.754	121.51
335.966	23.21
336.179	-7.51
336.392	-7.51
336.604	55.98
336.817	39.59
337.029	115.37
337.242	66.22
337.454	90.79
337.667	43.69
337.88	80.55
338.092	58.03
338.305	41.64
338.517	51.88
338.729	96.94
338.942	51.88
339.154	49.83
339.367	31.4
339.579	49.83
339.792	-5.46
340.004	64.17
340.217	15.02
340.429	-15.7
340.641	2.73
340.854	-54.61
341.066	68.27
341.278	68.27
341.491	107.18
341.703	55.98
341.915	84.65
342.128	55.98
342.34	74.41
342.552	27.31
342.764	43.69
342.977	55.98
343.189	121.51
343.401	17.07
343.613	-36.18
343.826	4.78
344.038	-13.65
344.25	68.27
344.462	23.21
344.674	68.27
344.886	-1.37
345.099	51.88
345.311	41.64
345.523	4.78
345.735	6.83
345.947	37.55
346.159	2.73
346.371	43.69
346.583	2.73
346.795	37.55
347.007	94.89
347.219	17.07
347.431	33.45
347.643	68.27
347.855	-13.65
348.067	66.22
348.279	33.45
348.491	66.22
348.703	72.36
348.915	27.31
349.127	37.55
349.339	8.87
349.551	35.5
349.763	41.64
349.975	31.4
350.187	113.32
350.399	-9.56
350.61	31.4
350.822	17.07
351.034	17.07
351.246	-1.37
351.458	27.31
351.669	31.4
351.881	-15.7
352.093	101.03
352.305	133.8
352.517	-32.08
352.728	55.98
352.94	51.88
353.152	12.97
353.363	15.02
353.575	43.69
353.787	55.98
353.999	41.64
354.21	76.46
354.422	17.07
354.633	55.98
354.845	72.36
355.057	-7.51
355.268	117.42
355.48	82.6
355.692	90.79
355.903	21.16
356.115	96.94
356.326	39.59
356.538	88.75
356.749	64.17
356.961	101.03
357.172	41.64
357.384	47.79
357.595	78.51
357.807	-21.85
358.018	43.69
358.23	45.74
358.441	17.07
358.653	131.75
358.864	39.59
359.075	-68.95
359.287	121.51
359.498	66.22
359.709	64.17
359.921	47.79
360.132	23.21
360.344	23.21
360.555	23.21
360.766	19.11
360.977	31.4
361.189	47.79
361.4	47.79
361.611	80.55
361.823	43.69
362.034	80.55
362.245	8.87
362.456	66.22
362.667	29.35
362.879	64.17
363.09	80.55
363.301	76.46
363.512	41.64
363.723	25.26
363.935	64.17
364.146	80.55
364.357	49.83
364.568	17.07
364.779	-54.61
364.99	101.03
365.201	39.59
365.412	82.6
365.623	6.83
365.834	15.02
366.045	39.59
366.256	84.65
366.467	43.69
366.678	135.85
366.889	76.46
367.1	82.6
367.311	27.31
367.522	25.26
367.733	80.55
367.944	19.11
368.155	68.27
368.366	82.6
368.577	76.46
368.788	2.73
368.999	39.59
369.209	74.41
369.42	15.02
369.631	88.75
369.842	80.55
370.053	27.31
370.264	-17.75
370.474	80.55
370.685	74.41
370.896	31.4
371.107	88.75
371.317	2.73
371.528	15.02
371.739	64.17
371.95	86.7
372.16	88.75
372.371	-1.37
372.582	-7.51
372.792	23.21
373.003	-30.04
373.214	25.26
373.424	31.4
373.635	15.02
373.846	80.55
374.056	33.45
374.267	111.27
374.477	15.02
374.688	98.99
374.898	84.65
375.109	47.79
375.319	62.12
375.53	49.83
375.74	96.94
375.951	35.5
376.161	-25.94
376.372	129.7
376.582	-1.37
376.793	21.16
377.003	19.11
377.214	-9.56
377.424	80.55
377.635	23.21
377.845	66.22
378.055	74.41
378.266	47.79
378.476	41.64
378.686	4.78
378.897	51.88
379.107	113.32
379.317	45.74
379.528	25.26
379.738	51.88
379.948	-32.08
380.158	96.94
380.369	-17.75
380.579	141.99
380.789	41.64
380.999	113.32
381.21	21.16
381.42	121.51
381.63	6.83
381.84	39.59
382.05	76.46
382.261	156.33
382.471	51.88
382.681	64.17
382.891	64.17
383.101	-17.75
383.311	-9.56
383.521	15.02
383.731	88.75
383.941	-7.51
384.151	58.03
384.361	31.4
384.571	80.55
384.781	72.36
384.991	117.42
385.201	96.94
385.411	35.5
385.621	21.16
385.831	21.16
386.041	-9.56
386.251	6.83
386.461	78.51
386.671	27.31
386.881	-25.94
387.091	-34.13
387.301	88.75
387.511	10.92
387.72	146.09
387.93	72.36
388.14	10.92
388.35	76.46
388.56	123.56
388.769	60.07
388.979	80.55
389.189	43.69
389.399	27.31
389.609	23.21
389.818	33.45
390.028	74.41
390.238	82.6
390.447	80.55
390.657	133.8
390.867	43.69
391.076	17.07
391.286	68.27
391.496	62.12
391.705	55.98
391.915	55.98
392.125	74.41
392.334	37.55
392.544	80.55
392.753	8.87
392.963	-7.51
393.172	43.69
393.382	10.92
393.591	37.55
393.801	2.73
394.01	109.22
394.22	146.09
394.429	39.59
394.639	43.69
394.848	82.6
395.058	62.12
395.267	15.02
395.477	37.55
395.686	64.17
395.895	92.84
396.105	137.9
396.314	31.4
396.524	109.22
396.733	72.36
396.942	103.08
397.152	115.37
397.361	41.64
397.57	72.36
397.78	103.08
397.989	31.4
398.198	68.27
398.407	47.79
398.617	64.17
398.826	96.94
399.035	105.13
399.244	98.99
399.453	101.03
399.663	174.76
399.872	74.41
400.081	105.13
400.29	162.47
400.499	27.31
400.708	180.9
400.917	76.46
401.127	105.13
401.336	98.99
401.545	139.94
401.754	156.33
401.963	94.89
402.172	64.17
402.381	64.17
402.59	141.99
402.799	201.38
403.008	74.41
403.217	90.79
403.426	101.03
403.635	6.83
403.844	98.99
404.053	68.27
404.262	39.59
404.471	123.56
404.68	129.7
404.888	53.93
405.097	133.8
405.306	178.86
405.515	213.67
405.724	139.94
405.933	96.94
406.142	117.42
406.35	166.57
406.559	137.9
406.768	150.18
406.977	170.66
407.185	156.33
407.394	166.57
407.603	125.61
407.812	178.86
408.02	260.77
408.229	164.52
408.438	176.81
408.646	158.38
408.855	133.8
409.064	219.82
409.272	133.8
409.481	248.49
409.69	160.42
409.898	264.87
410.107	236.2
410.315	301.73
410.524	156.33
410.733	240.3
410.941	309.93
411.15	236.2
411.358	303.78
411.567	219.82
411.775	375.46
411.984	309.93
412.192	287.4
412.401	311.97
412.609	371.37
412.818	412.32
413.026	453.28
413.234	379.56
413.443	391.84
413.651	328.36
413.86	381.6
414.068	492.2
414.276	449.19
414.485	412.32
414.693	506.53
414.901	504.48
415.11	459.43
415.318	504.48
415.526	610.98
415.734	680.61
415.943	543.39
416.151	588.45
416.359	549.54
416.567	647.84
416.776	621.22
416.984	768.67
417.192	692.9
417.4	662.18
417.608	727.71
417.817	719.52
418.025	866.97
418.233	850.59
418.441	789.15
418.649	899.74
418.857	838.3
419.065	1018.52
419.273	928.41
419.481	1000.09
419.689	981.66
419.897	1129.11
420.105	1071.77
420.313	1014.43
420.521	1096.35
420.729	1202.84
420.937	1194.65
421.145	1272.47
421.353	1311.38
421.561	1458.84
421.769	1432.21
421.977	1610.39
422.185	1479.32
422.393	1661.59
422.601	1661.59
422.809	1696.4
423.017	1727.12
423.224	1757.84
423.432	1800.85
423.64	1850
423.848	1991.31
424.056	1890.96
424.263	1997.45
424.471	2065.04
424.679	2099.85
424.887	2130.57
425.094	2288.26
425.302	2259.59
425.51	2333.32
425.718	2329.22
425.925	2425.48
426.133	2593.41
426.341	2697.86
426.548	2914.94
426.756	2898.56
426.964	2919.04
427.171	3078.78
427.379	3136.12
427.586	3170.94
427.794	3254.9
428.001	3375.74
428.209	3445.37
428.417	3492.47
428.624	3773.04
428.832	3703.41
429.039	3785.33
429.247	3744.37
429.454	4000.37
429.662	4393.58
429.869	4029.04
430.076	4180.59
430.284	4291.18
430.491	4452.97
430.699	4627.04
430.906	4821.6
431.114	4625
431.321	4758.11
431.528	4858.46
431.736	5304.92
431.943	5476.95
432.15	5380.7
432.358	5376.6
432.565	5786.19
432.772	5724.76
432.979	6085.2
433.187	6093.39
433.394	6160.97
433.601	6447.69
433.808	6459.98
434.016	6400.58
434.223	6699.59
434.43	7363.13
434.637	7049.79
434.844	7479.86
435.052	7760.44
435.259	7776.82
435.466	7637.56
435.673	7596.6
435.88	8096.3
436.087	8538.66
436.294	8501.8
436.501	8329.77
436.708	8294.96
436.915	8698.41
437.122	9052.7
437.329	9099.81
437.537	9435.67
437.743	9501.21
437.95	9587.22
438.157	10119.7
438.364	10207.76
438.571	10000.91
438.778	10230.29
438.985	11371.01
439.192	10750.47
439.399	11004.42
439.606	10830.34
439.813	11463.16
440.02	12268.02
440.227	12038.64
440.433	11913.72
440.64	12001.78
440.847	12177.9
441.054	12407.28
441.261	13384.16
441.467	13122.02
441.674	13558.24
441.881	13840.86
442.088	13930.97
442.294	13652.44
442.501	14383.57
442.708	14498.25
442.914	15094.21
443.121	15450.56
443.328	15147.46
443.534	16132.53
443.741	15505.85
443.948	15630.78
444.154	16996.78
444.361	16538.03
444.568	16943.53
444.774	16787.88
444.981	16933.29
445.187	17344.93
445.394	18317.72
445.6	18049.43
445.807	19878.27
446.013	18741.64
446.22	19143.05
446.426	20060.54
446.633	20261.24
446.839	20789.61
447.046	20117.88
447.252	20930.92
447.459	21156.2
447.665	21139.82
447.871	21920.09
448.078	22899.02
448.284	21649.76
448.491	22301.01
448.697	23535.94
448.903	24107.32
449.11	23990.59
449.316	23478.6
449.522	23976.25
449.728	24643.89
449.935	24690.99
450.141	24578.36
450.347	25221.42
450.553	24766.77
450.76	24981.81
450.966	25694.5
451.172	25512.23
451.378	26415.38
451.584	25757.99
451.791	26249.5
451.997	26611.99
452.203	26603.8
452.409	26779.92
452.615	26642.71
452.821	25850.14
453.027	25422.12
453.233	26792.21
453.44	25596.2
453.646	26517.78
453.852	26274.07
454.058	26775.83
454.264	26022.17
454.47	26628.37
454.676	26016.03
454.882	26806.55
455.088	24375.61
455.294	24781.1
455.5	25313.58
455.705	25407.78
455.911	24711.47
456.117	24172.86
456.323	23955.77
456.529	22802.77
456.735	23509.32
456.941	23046.47
457.147	22913.36
457.352	22311.25
457.558	21829.98
457.764	21582.18
457.97	21320.04
458.176	21004.65
458.381	21168.49
458.587	19814.78
458.793	19986.81
458.999	19143.05
459.204	20486.51
459.41	19759.49
459.616	18354.58
459.821	18579.86
460.027	18301.33
460.233	18264.47
460.438	17437.09
460.644	17396.13
460.85	16685.48
461.055	16409.01
461.261	16202.16
461.466	15192.51
461.672	14531.02
461.878	15585.72
462.083	14911.94
462.289	14326.22
462.494	14352.85
462.7	13783.51
462.905	13335.01
463.111	13677.02
463.316	14027.22
463.522	13449.69
463.727	13343.2
463.932	13695.45
464.138	13228.51
464.343	13425.12
464.549	12882.41
464.754	13339.1
464.959	13375.97
465.165	13259.23
465.37	12624.36
465.575	12558.83
465.781	12792.3
465.986	12810.73
466.191	12247.54
466.397	12095.99
466.602	11469.31
466.807	12063.22
467.012	12171.76
467.218	12118.51
467.423	11868.66
467.628	12093.94
467.833	12325.36
468.038	12040.69
468.244	11551.23
468.449	12145.14
468.654	11600.38
468.859	11844.09
469.064	11706.87
469.269	11321.85
469.474	11305.47
469.679	11500.03
469.885	11256.32
470.09	11383.29
470.295	11155.97
470.5	10793.48
470.705	11082.24
470.91	10703.37
471.115	10746.37
471.32	10832.39
471.525	10666.5
471.73	10607.11
471.935	10428.94
472.139	10205.71
472.344	10256.91
472.549	10123.79
472.754	10086.93
472.959	9857.56
473.164	9689.62
473.369	9706.01
473.574	10002.96
473.778	9792.02
473.983	9501.21
474.188	9755.16
474.393	9314.84
474.598	9173.53
474.802	9157.15
475.007	9157.15
475.212	9247.26
475.417	8804.9
475.621	8923.68
475.826	8759.84
476.031	8763.94
476.235	8567.34
476.44	8749.61
476.645	8428.07
476.849	8526.38
477.054	8194.61
477.259	8268.33
477.463	8268.33
477.668	8102.45
477.872	8196.65
478.077	8008.24
478.282	7717.43
478.486	7764.53
478.691	7658.04
478.895	7733.81
479.1	7565.88
479.304	7858.74
479.509	7391.8
479.713	7522.87
479.918	7379.51
480.122	7313.98
480.326	7395.9
480.531	7483.96
480.735	7469.62
480.94	7397.95
481.144	7438.91
481.348	7191.1
481.553	7322.17
481.757	7049.79
481.961	7086.65
482.166	7367.23
482.37	7244.35
482.574	6959.68
482.778	7029.31
482.983	7250.49
483.187	6922.82
483.391	7115.33
483.595	7078.46
483.8	7053.89
484.004	7193.15
484.208	7307.84
484.412	7019.07
484.616	7144
484.821	7084.61
485.025	7014.98
485.229	7195.2
485.433	6982.21
485.637	7139.9
485.841	7035.46
486.045	7152.19
486.249	7133.76
486.453	7023.17
486.657	7076.41
486.861	6857.28
487.065	6912.58
487.269	7154.24
487.473	7049.79
487.677	7205.44
487.881	7146.05
488.085	7113.28
488.289	7234.11
488.493	7055.93
488.697	7297.6
488.901	7029.31
489.105	7117.37
489.309	7201.34
489.512	7301.69
489.716	7076.41
489.92	7354.94
490.124	7158.33
490.328	7391.8
490.531	7295.55
490.735	7375.42
490.939	7342.65
491.143	7207.48
491.346	7289.4
491.55	7584.31
491.754	7465.53
491.958	7649.85
492.161	7522.87
492.365	7445.05
492.569	7373.37
492.772	7526.97
492.976	7791.16
493.18	7592.5
493.383	7703.09
493.587	7668.28
493.79	8045.1
493.994	7801.4
494.197	7834.16
494.401	7836.21
494.605	7807.54
494.808	8346.16
495.012	8329.77
495.215	8213.04
495.419	8198.7
495.622	8423.98
495.825	8337.96
496.029	8319.53
496.232	8698.41
496.436	8673.83
496.639	8686.12
496.843	8833.57
497.046	8938.02
497.249	9071.14
497.453	8962.59
497.656	9116.19
497.859	9116.19
498.063	9153.05
498.266	9470.49
498.469	9529.88
498.673	9656.86
498.876	9755.16
499.079	9859.6
499.282	9718.29
499.485	10074.64
499.689	10207.76
499.892	10398.22
500.095	10193.42
500.298	10517
500.501	10291.73
500.705	10809.86
500.908	11016.71
501.111	11024.9
501.314	11035.14
501.517	11246.08
501.72	11407.87
501.923	11401.72
502.126	11778.55
502.329	11854.33
502.532	11889.14
502.735	11979.25
502.938	12288.5
503.141	12093.94
503.344	12567.02
503.547	12397.04
503.75	12646.89
503.953	12749.29
504.156	13019.62
504.359	13122.02
504.562	13160.93
504.765	13513.18
504.968	13351.39
505.17	13689.31
505.373	13908.44
505.576	14293.46
505.779	14356.94
505.982	14471.63
506.185	14713.29
506.387	14682.57
506.59	14768.59
506.793	15100.36
506.996	15116.74
507.198	15671.74
507.401	15432.13
507.604	15884.73
507.807	16148.92
508.009	15980.98
508.212	16267.7
508.415	16519.6
508.617	16499.12
508.82	16677.29
509.022	16728.49
509.225	16929.19
509.428	17330.59
509.63	17402.27
509.833	17613.21
510.035	18090.39
510.238	17856.92
510.44	18231.7
510.643	18575.76
510.845	18524.56
511.048	18958.73
511.25	19118.47
511.453	18962.83
511.655	19808.64
511.858	19595.65
512.06	19612.03
512.262	20093.3
512.465	19974.52
512.667	20453.75
512.87	20427.12
513.072	20519.28
513.274	20863.34
513.477	21227.88
513.679	21373.28
513.881	21627.23
514.084	21969.24
514.286	21660
514.488	21877.08
514.69	22800.72
514.893	22221.14
515.095	22798.67
515.297	23404.87
515.499	23099.72
515.701	23759.17
515.904	23431.49
516.106	24023.36
516.308	24224.06
516.51	24279.35
516.712	24283.45
516.914	24641.84
517.116	25368.87
517.318	25184.55
517.52	25448.74
517.722	25536.8
517.925	25907.49
518.127	26091.8
518.329	26439.96
518.531	26378.52
518.733	26878.22
518.935	26853.65
519.136	26853.65
519.338	27554.05
519.54	27627.78
519.742	27930.88
519.944	27943.17
520.146	28799.22
520.348	28446.97
520.55	28819.7
520.752	28758.26
520.954	29356.27
521.155	28915.95
521.357	29704.42
521.559	29839.59
521.761	30171.36
521.963	30316.76
522.164	30591.19
522.366	30523.61
522.568	30722.26
522.77	31166.67
522.971	31160.53
523.173	31324.36
523.375	31531.21
523.576	31609.03
523.778	31639.75
523.98	32327.87
524.181	32039.11
524.383	31854.79
524.584	32686.26
524.786	32612.54
524.988	32860.34
525.189	32995.51
525.391	33173.68
525.592	33441.96
525.794	33898.66
525.995	33747.11
526.197	33763.5
526.398	33796.26
526.6	34134.18
526.801	33960.1
527.003	34279.58
527.204	34201.76
527.406	34947.22
527.607	34470.04
527.808	35268.75
528.01	34351.26
528.211	34748.57
528.412	35389.58
528.614	35127.44
528.815	35166.35
529.016	36014.21
529.218	35283.09
529.419	35272.85
529.62	35500.17
529.822	35348.62
530.023	36089.99
530.224	35745.93
530.425	35448.97
530.626	35547.28
530.828	35532.94
531.029	36681.85
531.23	35846.28
531.431	35989.64
531.632	35981.45
531.833	36335.74
532.035	36423.81
532.236	36157.57
532.437	36632.7
532.638	36024.45
532.839	36378.75
533.04	36694.14
533.241	36073.6
533.442	36690.04
533.643	36458.62
533.844	36661.37
534.045	36726.91
534.246	36194.43
534.447	36542.59
534.648	36323.46
534.849	36184.19
535.05	36284.54
535.251	36333.7
535.451	36620.41
535.652	36522.11
535.853	36618.36
536.054	36927.61
536.255	36857.98
536.456	36302.98
536.657	37152.88
536.857	36618.36
537.058	36415.61
537.259	36305.02
537.46	36937.85
537.66	36163.71
537.861	36604.03
538.062	36542.59
538.263	36845.69
538.463	36456.57
538.664	36782.2
538.865	36819.06
539.065	36767.87
539.266	36370.56
539.466	36679.8
539.667	36282.5
539.868	36948.09
540.068	36661.37
540.269	36343.94
540.469	36487.29
540.67	36536.45
540.87	36417.66
541.071	36649.08
541.271	36827.26
541.472	36544.64
541.672	36399.23
541.873	36139.14
542.073	35850.38
542.274	36624.51
542.474	36368.51
542.675	36280.45
542.875	36663.42
543.075	36235.39
543.276	36163.71
543.476	36759.67
543.676	36102.28
543.877	36653.18
544.077	36161.67
544.277	36374.66
544.478	36239.49
544.678	36360.32
544.878	35881.1
545.078	36196.48
545.279	35999.88
545.479	36184.19
545.679	36235.39
545.879	36079.75
546.079	36366.46
546.28	36143.24
546.48	35874.95
546.68	36561.02
546.88	36053.12
547.08	36432
547.28	36083.84
547.48	36089.99
547.68	36020.36
547.88	35870.86
548.081	35999.88
548.281	36124.8
548.481	35819.66
548.681	36089.99
548.881	36307.07
549.081	36202.63
549.28	35696.78
549.48	36305.02
549.68	35772.55
549.88	36624.51
550.08	36384.9
550.28	36204.67
550.48	35979.4
550.68	36216.96
550.88	35948.68
551.08	35971.21
551.279	36169.86
551.479	35610.76
551.679	35862.66
551.879	35727.5
552.079	36098.18
552.278	35920.01
552.478	35797.13
552.678	35586.19
552.878	36094.08
553.077	36040.84
553.277	35717.26
553.477	36059.27
553.676	35672.2
553.876	36046.98
554.076	35807.37
554.275	35737.74
554.475	35455.12
554.674	35465.36
554.874	35661.96
555.074	35709.07
555.273	35551.37
555.473	35831.94
555.672	35528.84
555.872	35324.05
556.071	35399.82
556.271	35315.86
556.47	35176.59
556.67	34844.82
556.869	35524.75
557.068	35221.65
557.268	35205.27
557.467	35365.01
557.667	35246.22
557.866	35158.16
558.065	35082.39
558.265	34732.18
558.464	34943.13
558.663	35285.14
558.863	34654.36
559.062	35434.64
559.261	34506.91
559.461	35088.53
559.66	34824.34
559.859	34459.8
560.058	34812.06
560.258	34508.96
560.457	34277.54
560.656	34803.86
560.855	34461.85
561.054	34490.52
561.253	34437.28
561.453	34484.38
561.652	34431.13
561.851	34244.77
562.05	34295.97
562.249	33788.07
562.448	34158.75
562.647	34195.62
562.846	33986.72
563.045	34105.51
563.244	33712.3
563.443	34318.5
563.642	33454.25
563.841	33939.62
564.04	33681.58
564.239	34017.44
564.438	33362.09
564.637	33996.96
564.836	33577.13
565.035	33407.15
565.234	33560.75
565.432	33441.96
565.631	33274.03
565.83	33368.24
566.029	33454.25
566.228	33102
566.427	33325.23
566.625	32624.82
566.824	32377.02
567.023	33034.42
567.222	32614.58
567.42	32987.32
567.619	32729.27
567.818	32508.09
568.016	32487.61
568.215	32598.2
568.414	32475.32
568.612	32891.06
568.811	32104.64
569.01	32432.32
569.208	32022.72
569.407	32194.75
569.605	31963.33
569.804	32204.99
570.002	32018.63
570.201	31983.81
570.4	32110.78
570.598	31531.21
570.797	31639.75
570.995	31424.72
571.193	31121.62
571.392	31541.45
571.59	31135.95
571.789	31463.63
571.987	31187.15
572.186	31176.91
572.384	31017.17
572.582	31002.83
572.781	31195.34
572.979	30505.18
573.177	30800.08
573.376	31049.94
573.574	30312.67
573.772	30824.66
573.971	30447.83
574.169	30232.8
574.367	30259.42
574.565	30390.49
574.763	30204.13
574.962	29851.88
575.16	30095.58
575.358	30402.78
575.556	29733.09
575.754	30136.54
575.952	29702.37
576.151	30064.86
576.349	29497.58
576.547	29403.37
576.745	29542.63
576.943	29477.1
577.141	29184.24
577.339	29665.51
577.537	29194.48
577.735	28983.54
577.933	28975.34
578.131	29044.98
578.329	28815.6
578.527	28811.51
578.725	28731.64
578.923	28975.34
579.121	28717.3
579.319	28723.44
579.516	28852.47
579.714	28367.1
579.912	28231.93
580.11	28272.89
580.308	28199.16
580.506	28172.54
580.704	27744.52
580.901	28014.85
581.099	28135.68
581.297	28047.61
581.495	27867.39
581.692	27912.45
581.89	27390.22
582.088	27902.21
582.285	27687.17
582.483	27633.92
582.681	27715.84
582.878	27627.78
583.076	27134.22
583.274	27203.85
583.471	27072.78
583.669	26751.25
583.866	26792.21
584.064	27349.26
584.262	26683.67
584.459	26997.01
584.657	26587.41
584.854	26720.53
585.052	26278.17
585.249	26556.69
585.447	26220.83
585.644	26439.96
585.841	26335.51
586.039	26380.57
586.236	26171.68
586.434	26032.41
586.631	25970.97
586.828	26085.66
587.026	25874.72
587.223	25899.3
587.42	25481.51
587.618	25512.23
587.815	25307.43
588.012	25436.45
588.21	25524.52
588.407	25743.65
588.604	25434.41
588.801	25172.27
588.999	25202.99
589.196	24877.36
589.393	24774.96
589.59	24475.96
589.787	24832.3
589.984	24731.95
590.182	24400.18
590.379	24594.74
590.576	24414.52
590.773	24785.2
590.97	24359.22
591.167	24420.66
591.364	24353.08
591.561	24267.06
591.758	24037.69
591.955	24213.82
592.152	23828.8
592.349	23923.01
592.546	23943.49
592.743	24111.42
592.94	23660.87
593.137	23753.02
593.334	23814.46
593.531	23421.25
593.727	23775.55
593.924	23306.57
594.121	23494.98
594.318	23406.92
594.515	22737.23
594.712	23277.9
594.908	23105.87
595.105	23146.83
595.302	22737.23
595.499	22919.5
595.696	22896.97
595.892	22616.4
596.089	22829.39
596.286	22657.36
596.482	22528.34
596.679	22239.58
596.876	22602.07
597.072	22157.66
597.269	22167.9
597.466	22096.22
597.662	22286.68
597.859	21954.91
598.055	21862.75
598.252	21928.28
598.448	22081.88
598.645	21686.62
598.841	21397.86
599.038	21850.46
599.234	21588.32
599.431	21547.36
599.627	21414.24
599.824	21784.93
600.02	21170.54
600.217	21209.45
600.413	20978.03
600.609	20982.12
600.806	20939.12
601.002	21055.85
601.198	20924.78
601.395	20838.76
601.591	20881.77
601.787	20793.71
601.984	20593.01
602.18	20625.78
602.376	20404.6
602.572	20410.74
602.769	20445.55
602.965	20294
603.161	20406.64
603.357	20074.87
603.553	20377.97
603.75	20326.77
603.946	19861.88
604.142	20099.45
604.338	19665.28
604.534	19978.62
604.73	19673.47
604.926	19616.13
605.122	19839.36
605.318	19618.18
605.514	19249.54
605.71	19505.54
605.906	19288.45
606.102	19167.62
606.298	19554.69
606.494	19515.78
606.69	19218.82
606.886	19247.49
607.082	18960.78
607.278	19059.08
607.474	18700.69
607.67	19067.27
607.866	18704.78
608.062	19255.68
608.257	18874.76
608.453	18983.31
608.649	18700.69
608.845	18452.88
609.041	18534.8
609.236	18694.54
609.432	18479.5
609.628	18844.04
609.824	18526.61
610.019	18450.83
610.215	18661.77
610.411	18461.07
610.606	18524.56
610.802	18504.08
610.998	18291.09
611.193	18014.62
611.389	18096.53
611.584	17795.48
611.78	18168.21
611.976	18033.05
612.171	18176.41
612.367	17967.51
612.562	17619.36
612.758	17904.03
612.953	17947.03
613.149	17883.55
613.344	17529.25
613.539	17668.51
613.735	17541.53
613.93	17688.99
614.126	17684.89
614.321	17717.66
614.517	17476
614.712	17242.53
614.907	17396.13
615.103	17783.2
615.298	17465.76
615.493	17516.96
615.688	17052.07
615.884	17709.47
616.079	17002.92
616.274	17287.59
616.47	17113.51
616.665	17168.8
616.86	16925.1
617.055	17222.05
617.25	16959.91
617.445	16923.05
617.641	16804.27
617.836	16935.34
618.031	16572.85
618.226	16753.07
618.421	16689.58
618.616	16660.91
618.811	16413.1
619.006	16560.56
619.201	16261.55
619.396	16210.36
619.591	16054.71
619.786	16318.9
619.981	15888.82
620.176	16114.1
620.371	15940.02
620.566	15913.4
620.761	15757.75
620.956	15948.22
621.151	15655.36
621.346	15745.47
621.541	15542.72
621.735	15772.09
621.93	15288.77
622.125	15425.98
622.32	15182.27
622.515	15276.48
622.709	14959.05
622.904	15004.1
623.099	14995.91
623.294	14762.44
623.488	15024.58
623.683	14733.77
623.878	14621.13
624.072	14686.67
624.267	14457.29
624.462	14375.38
624.656	14436.81
624.851	14416.33
625.046	14160.34
625.24	14318.03
625.435	13836.76
625.629	14315.98
625.824	13930.97
626.018	14002.64
626.213	13451.74
626.407	13801.94
626.602	13388.25
626.796	13672.92
626.991	13402.59
627.185	13337.06
627.38	13449.69
627.574	13222.37
627.768	13056.48
627.963	13079.01
628.157	12999.14
628.352	12976.61
628.546	12767.72
628.74	12935.65
628.935	12505.58
629.129	12593.64
629.323	12524.01
629.517	12683.75
629.712	12386.8
629.906	12415.47
630.1	12372.46
630.294	12083.7
630.489	12145.14
630.683	12177.9
630.877	12042.74
631.071	11969.01
631.265	11919.86
631.459	11823.61
631.653	11897.33
631.848	11768.31
632.042	11694.58
632.236	11723.26
632.43	11622.91
632.624	11854.33
632.818	11368.96
633.012	11364.86
633.206	11432.44
633.4	11434.49
633.594	11231.74
633.788	11182.59
633.982	11334.14
634.176	10877.44
634.369	11018.75
634.563	10957.32
634.757	10889.73
634.951	10953.22
635.145	10899.97
635.339	10881.54
635.533	10789.38
635.726	10549.77
635.92	10578.44
636.114	10500.62
636.308	10533.39
636.501	10420.75
636.695	10451.47
636.889	10168.85
637.083	10256.91
637.276	10166.8
637.47	10152.46
637.664	10072.59
637.857	10152.46
638.051	10000.91
638.244	9626.14
638.438	9867.8
638.632	9663
638.825	9853.46
639.019	9663
639.212	9572.89
639.406	9439.77
639.599	9595.42
639.793	9466.39
639.986	9443.87
640.18	9542.17
640.373	9263.65
640.567	9220.64
640.76	9335.32
640.954	9101.86
641.147	9040.42
641.34	9052.7
641.534	9099.81
641.727	8862.24
641.92	8776.23
642.114	8866.34
642.307	8743.46
642.5	8684.07
642.694	8649.25
642.887	8577.58
643.08	8641.06
643.273	8477.23
643.467	8518.18
643.66	8653.35
643.853	8413.74
644.046	8315.44
644.239	8270.38
644.432	8161.84
644.626	8272.43
644.819	8108.59
645.012	7983.66
645.205	8256.04
645.398	8176.17
645.591	8112.69
645.784	7889.46
645.977	7813.68
646.17	7899.7
646.363	7619.13
646.556	7733.81
646.749	7551.54
646.942	7563.83
647.135	7490.1
647.328	7535.16
647.521	7672.37
647.714	7563.83
647.907	7447.1
648.099	7322.17
648.292	7498.3
648.485	7285.31
648.678	7281.21
648.871	7289.4
649.064	7150.14
649.256	7150.14
649.449	7109.18
649.642	7068.22
649.835	7117.37
650.027	7100.99
650.22	7084.61
650.413	6814.27
650.605	7045.7
650.798	6713.92
650.991	6863.43
651.183	6849.09
651.376	6691.4
651.568	6748.74
651.761	6535.75
651.954	6783.56
652.146	6666.82
652.339	6568.52
652.531	6494.79
652.724	6402.63
652.916	6380.11
653.109	6392.39
653.301	6306.38
653.494	6199.88
653.686	6163.02
653.879	6388.3
654.071	6519.37
654.263	6126.16
654.456	6156.88
654.648	6126.16
654.84	6087.25
655.033	5939.79
655.225	6183.5
655.417	5933.65
655.61	6185.55
655.802	5937.74
655.994	5943.89
656.186	5749.33
656.379	5888.59
656.571	5857.87
656.763	5685.84
656.955	5659.22
657.148	5659.22
657.34	5741.14
657.532	5579.35
657.724	5593.69
657.916	5651.03
658.108	5616.21
658.3	5431.9
658.492	5483.09
658.684	5364.31
658.876	5397.08
659.068	5335.64
659.26	5194.33
659.452	5294.68
659.644	5159.52
659.836	5266.01
660.028	5274.2
660.22	5030.49
660.412	5177.95
660.604	5110.36
660.796	5114.46
660.988	5130.84
661.18	5073.5
661.372	5057.12
661.563	5159.52
661.755	4977.25
661.947	4835.94
662.139	4717.15
662.331	4846.18
662.522	4633.19
662.714	4694.63
662.906	4692.58
663.097	4657.76
663.289	4641.38
663.481	4672.1
663.673	4627.04
663.864	4448.87
664.056	4643.43
664.247	4481.64
664.439	4543.08
664.631	4446.82
664.822	4543.08
665.014	4350.57
665.205	4473.45
665.397	4364.9
665.588	4397.67
665.78	4311.66
665.971	4401.77
666.163	4381.29
666.354	4160.11
666.546	4321.9
666.737	4274.79
666.929	4166.25
667.12	3983.98
667.311	4065.9
667.503	4172.39
667.694	3996.27
667.885	4151.92
668.077	4106.86
668.268	4057.71
668.459	4074.09
668.651	4110.96
668.842	3930.73
669.033	4024.94
669.224	4135.53
669.416	4006.51
669.607	3875.44
669.798	3881.58
669.989	3904.11
670.18	3897.97
670.371	3775.09
670.563	3840.62
670.754	3766.9
670.945	3811.95
671.136	3768.95
671.327	3807.86
671.518	3701.36
671.709	3660.4
671.9	3709.55
672.091	3545.72
672.282	3619.44
672.473	3547.76
672.664	3680.88
672.855	3560.05
673.046	3582.58
673.237	3654.26
673.428	3480.18
673.619	3592.82
673.809	3660.4
674	3455.61
674.191	3580.53
674.382	3451.51
674.573	3431.03
674.764	3418.74
674.954	3461.75
675.145	3357.3
675.336	3494.52
675.527	3422.84
675.717	3398.26
675.908	3326.58
676.099	3287.67
676.289	3443.32
676.48	3353.21
676.671	3398.26
676.861	3302.01
677.052	3275.38
677.243	3338.87
677.433	3318.39
677.624	3402.36
677.814	3244.67
678.005	3177.08
678.195	3351.16
678.386	3195.51
678.576	3295.86
678.767	3211.9
678.957	3211.9
679.148	3320.44
679.338	3181.18
679.529	3299.96
679.719	3340.92
679.909	3295.86
680.1	3148.41
680.29	3259
680.481	3234.43
680.671	3046.01
680.861	3111.55
681.052	3312.25
681.242	3168.89
681.432	3287.67
681.622	3121.79
681.813	3191.42
682.003	3177.08
682.193	3136.12
682.383	3336.82
682.573	3152.51
682.764	3164.79
682.954	3121.79
683.144	3080.83
683.334	3160.7
683.524	3152.51
683.714	3132.03
683.904	3136.12
684.094	3127.93
684.284	3107.45
684.474	3086.97
684.664	3093.12
684.854	2996.86
685.044	3205.75
685.234	2914.94
685.424	3117.69
685.614	3076.73
685.804	3050.11
685.994	2955.9
686.184	3134.07
686.374	3109.5
686.564	2849.41
686.753	2923.13
686.943	2894.46
687.133	3013.24
687.323	3041.92
687.513	3127.93
687.702	2951.81
687.892	2906.75
688.082	2892.41
688.272	3005.05
688.461	2888.32
688.651	2951.81
688.841	2845.31
689.03	2949.76
689.22	2828.93
689.41	2884.22
689.599	2800.26
689.789	2826.88
689.979	2849.41
690.168	2806.4
690.358	2833.02
690.547	2710.15
690.737	2740.86
690.926	2726.53
691.116	2663.04
691.305	2730.62
691.495	2740.86
691.684	2673.28
691.874	2726.53
692.063	2687.62
692.252	2744.96
692.442	2740.86
692.631	2597.51
692.82	2589.32
693.01	2732.67
693.199	2646.66
693.388	2644.61
693.578	2712.19
693.767	2656.9
693.956	2597.51
694.146	2654.85
694.335	2581.12
694.524	2546.31
694.713	2685.57
694.902	2523.78
695.092	2564.74
695.281	2470.53
695.47	2587.27
695.659	2546.31
695.848	2501.25
696.037	2456.2
696.226	2542.21
696.415	2550.4
696.604	2587.27
696.793	2552.45
696.982	2396.81
697.171	2617.99
697.36	2521.73
697.549	2519.68
697.738	2466.44
697.927	2464.39
698.116	2398.85
698.305	2400.9
698.494	2431.62
698.683	2466.44
698.872	2458.25
699.061	2392.71
699.25	2310.79
699.438	2452.1
699.627	2394.76
699.816	2460.29
700.005	2439.81
700.193	2441.86
700.382	2337.41
700.571	2380.42
700.76	2378.37
700.948	2374.28
701.137	2413.19
701.326	2347.65
701.514	2273.93
701.703	2368.13
701.892	2318.98
702.08	2419.33
702.269	2425.48
702.457	2400.9
702.646	2355.85
702.834	2247.3
703.023	2310.79
703.212	2331.27
703.4	2300.55
703.589	2202.25
703.777	2335.37
703.965	2232.97
704.154	2361.99
704.342	2157.19
704.531	2230.92
704.719	2232.97
704.907	2181.77
705.096	2312.84
705.284	2380.42
705.472	2306.7
705.661	2286.22
705.849	2394.76
706.037	2224.78
706.226	2275.98
706.414	2212.49
706.602	2161.29
706.79	2187.91
706.979	2251.4
707.167	2333.32
707.355	2275.98
707.543	2175.63
707.731	2275.98
707.919	2187.91
708.107	2222.73
708.296	2169.48
708.484	2149
708.672	2208.39
708.86	2235.02
709.048	2230.92
709.236	2226.82
709.424	2226.82
709.612	2181.77
709.8	2194.06
709.988	2050.7
710.176	2267.78
710.364	2194.06
710.551	2185.87
710.739	2079.37
710.927	2151.05
711.115	2087.56
711.303	2185.87
711.491	2214.54
711.679	2159.24
711.866	2108.04
712.054	2163.34
712.242	2079.37
712.43	2187.91
712.617	2103.95
712.805	2038.41
712.993	2048.65
713.181	2013.84
713.368	2153.1
713.556	2056.84
713.744	1964.68
713.931	2161.29
714.119	2089.61
714.306	2144.91
714.494	2192.01
714.682	2208.39
714.869	2056.84
715.057	2136.71
715.244	2110.09
715.432	2105.99
715.619	2089.61
715.807	2056.84
715.994	1981.07
716.182	2067.08
716.369	1972.88
716.556	2128.52
716.744	2062.99
716.931	2095.75
717.119	2149
717.306	2103.95
717.493	2122.38
717.681	2140.81
717.868	2116.23
718.055	2005.64
718.242	2085.51
718.43	2013.84
718.617	1964.68
718.804	2001.55
718.991	2075.27
719.179	2083.47
719.366	2097.8
719.553	2040.46
719.74	2013.84
719.927	2034.32
720.114	1964.68
720.301	1991.31
720.488	1952.4
720.676	2103.95
720.863	2032.27
721.05	2034.32
721.237	1989.26
721.424	2048.65
721.611	1911.44
721.798	1989.26
721.985	2071.18
722.172	1923.73
722.358	1972.88
722.545	2062.99
722.732	2030.22
722.919	2073.23
723.106	2019.98
723.293	2050.7
723.48	2032.27
723.667	1942.16
723.853	2056.84
724.04	1944.2
724.227	2024.08
724.414	1968.78
724.6	1964.68
724.787	1966.73
724.974	2030.22
725.161	2067.08
725.347	1927.82
725.534	1964.68
725.72	1964.68
725.907	2110.09
726.094	1964.68
726.28	2038.41
726.467	1942.16
726.653	1981.07
726.84	1985.16
727.027	2085.51
727.213	1979.02
727.4	2065.04
727.586	1960.59
727.773	2071.18
727.959	1931.92
728.145	1921.68
728.332	1909.39
728.518	2054.8
728.705	2017.93
728.891	1823.37
729.077	1972.88
729.264	1897.1
729.45	2034.32
729.636	2030.22
729.823	1893.01
730.009	1948.3
730.195	2048.65
730.382	2128.52
730.568	1882.77
730.754	2022.03
730.94	1954.44
731.126	1989.26
731.313	2065.04
731.499	1925.77
731.685	1966.73
731.871	2022.03
732.057	1993.36
732.243	2079.37
732.429	1993.36
732.615	2065.04
732.801	1923.73
732.987	1970.83
733.173	1893.01
733.359	1985.16
733.545	1909.39
733.731	1936.01
733.917	1950.35
734.103	1950.35
734.289	1974.92
734.475	1899.15
734.661	1931.92
734.847	1985.16
735.033	1958.54
735.219	1872.53
735.404	1968.78
735.59	1979.02
735.776	1852.05
735.962	1931.92
736.148	1903.25
736.333	1806.99
736.519	1899.15
736.705	1882.77
736.89	1852.05
737.076	1948.3
737.262	1886.86
737.447	1948.3
737.633	1915.53
737.819	1919.63
738.004	1903.25
738.19	1817.23
738.375	1899.15
738.561	1989.26
738.747	1956.49
738.932	1823.37
739.118	1895.05
739.303	1923.73
739.489	1819.28
739.674	1895.05
739.859	1784.46
740.045	1876.62
740.23	1841.81
740.416	1723.02
740.601	1739.41
740.786	1780.37
740.972	1743.5
741.157	1833.61
741.342	1776.27
741.528	1809.04
741.713	1868.43
741.898	1811.09
742.084	1780.37
742.269	1761.94
742.454	1768.08
742.639	1843.85
742.824	1813.13
743.01	1735.31
743.195	1880.72
743.38	1712.78
743.565	1694.35
743.75	1792.66
743.935	1751.7
744.12	1686.16
744.305	1747.6
744.49	1725.07
744.675	1735.31
744.86	1594
745.045	1696.4
745.23	1637.01
745.415	1585.81
745.6	1567.38
745.785	1702.54
745.97	1673.87
746.155	1661.59
746.34	1630.87
746.525	1622.67
746.71	1637.01
746.895	1637.01
747.079	1557.14
747.264	1575.57
747.449	1567.38
747.634	1456.79
747.819	1579.67
748.003	1532.56
748.188	1512.08
748.373	1579.67
748.557	1614.48
748.742	1497.75
748.927	1536.66
749.111	1538.71
749.296	1532.56
749.481	1499.8
749.665	1497.75
749.85	1374.87
750.034	1477.27
750.219	1473.17
750.404	1458.84
750.588	1493.65
750.773	1415.83
750.957	1489.56
751.141	1391.25
751.326	1497.75
751.51	1401.49
751.695	1446.55
751.879	1440.4
752.064	1489.56
752.248	1280.66
752.432	1303.19
752.617	1368.73
752.801	1370.77
752.985	1372.82
753.17	1403.54
753.354	1313.43
753.538	1303.19
753.722	1208.98
753.907	1338.01
754.091	1243.8
754.275	1229.46
754.459	1264.28
754.643	1278.62
754.828	1208.98
755.012	1327.77
755.196	1247.9
755.38	1094.3
755.564	1198.74
755.748	1176.22
755.932	1182.36
756.116	1235.61
756.3	1159.83
756.484	1161.88
756.668	1139.35
756.852	1104.54
757.036	1145.5
757.22	1194.65
757.404	1170.07
757.588	1112.73
757.772	1108.63
757.956	1133.21
758.14	1131.16
758.323	1106.59
758.507	1114.78
758.691	1075.87
758.875	1079.96
759.059	1100.44
759.242	985.76
759.426	1043.1
759.61	1002.14
759.794	1016.48
759.977	1020.57
760.161	1120.92
760.345	985.76
760.528	1024.67
760.712	993.95
760.895	934.56
761.079	899.74
761.263	909.98
761.446	963.23
761.63	1036.95
761.813	1075.87
761.997	918.17
762.18	1049.24
762.364	957.08
762.547	881.31
762.731	944.8
762.914	916.12
763.098	989.85
763.281	887.45
763.464	938.65
763.648	864.93
763.831	877.21
764.015	850.59
764.198	907.93
764.381	934.56
764.564	883.36
764.748	961.18
764.931	963.23
765.114	903.84
765.297	780.96
765.481	866.97
765.664	934.56
765.847	940.7
766.03	891.55
766.213	885.41
766.397	834.21
766.58	842.4
766.763	942.75
766.946	885.41
767.129	893.6
767.312	776.86
767.495	809.63
767.678	826.01
767.861	815.77
768.044	866.97
768.227	860.83
768.41	805.53
768.593	805.53
768.776	768.67
768.959	797.34
769.142	840.35
769.324	850.59
769.507	793.25
769.69	817.82
769.873	852.64
770.056	854.69
770.239	809.63
770.421	809.63
770.604	813.73
770.787	760.48
770.97	746.14
771.152	653.98
771.335	762.53
771.518	696.99
771.7	805.53
771.883	854.69
772.066	754.34
772.248	809.63
772.431	746.14
772.613	703.14
772.796	731.81
772.978	686.75
773.161	793.25
773.343	735.9
773.526	719.52
773.708	696.99
773.891	690.85
774.073	692.9
774.256	699.04
774.438	764.58
774.621	596.64
774.803	731.81
774.985	559.78
775.168	694.94
775.35	641.7
775.532	748.19
775.715	723.62
775.897	625.31
776.079	670.37
776.261	617.12
776.444	666.27
776.626	647.84
776.808	594.59
776.99	680.61
777.173	647.84
777.355	551.59
777.537	553.63
777.719	604.83
777.901	662.18
778.083	549.54
778.265	580.26
778.447	629.41
778.629	572.07
778.811	639.65
778.993	565.92
779.175	547.49
779.357	580.26
779.539	516.77
779.721	486.05
779.903	596.64
780.085	563.87
780.267	502.44
780.449	574.11
780.631	531.11
780.812	527.01
780.994	557.73
781.176	490.15
781.358	481.96
781.54	541.35
781.721	578.21
781.903	539.3
782.085	457.38
782.267	475.81
782.448	449.19
782.63	416.42
782.812	467.62
782.993	420.52
783.175	481.96
783.357	547.49
783.538	533.15
783.72	473.76
783.901	490.15
784.083	410.28
784.264	406.18
784.446	449.19
784.627	395.94
784.809	406.18
784.99	524.96
785.172	465.57
785.353	391.84
785.535	422.56
785.716	416.42
785.897	455.33
786.079	481.96
786.26	387.75
786.441	436.9
786.623	391.84
786.804	314.02
786.985	336.55
787.167	428.71
787.348	400.04
787.529	379.56
787.71	490.15
787.891	361.13
788.073	375.46
788.254	371.37
788.435	395.94
788.616	424.61
788.797	383.65
788.978	393.89
789.159	359.08
789.34	379.56
789.522	408.23
789.703	301.73
789.884	336.55
790.065	359.08
790.246	424.61
790.427	254.63
790.607	412.32
790.788	453.28
790.969	350.89
791.15	309.93
791.331	301.73
791.512	260.77
791.693	330.41
791.874	281.25
792.054	338.6
792.235	348.84
792.416	344.74
792.597	234.15
792.778	299.69
792.958	400.04
793.139	318.12
793.32	303.78
793.5	271.01
793.681	350.89
793.862	330.41
794.042	244.39
794.223	260.77
794.404	332.45
794.584	195.24
794.765	330.41
794.945	285.35
795.126	248.49
795.306	320.17
795.487	238.25
795.667	207.53
795.848	305.83
796.028	293.54
796.209	271.01
796.389	146.09
796.57	277.16
796.75	291.49
796.93	262.82
797.111	281.25
797.291	219.82
797.471	289.45
797.652	213.67
797.832	213.67
798.012	244.39
798.192	232.1
798.373	211.62
798.553	209.58
798.733	268.97
798.913	246.44
799.093	281.25
799.274	207.53
799.454	228.01
799.634	252.58
799.814	281.25
799.994	219.82
800.174	236.2
800.354	225.96
800.534	166.57
800.714	187.05
800.894	199.34
801.074	195.24
801.254	178.86
801.434	215.72
801.614	195.24
801.794	170.66
801.974	768.67
802.154	244.39
802.334	146.09
802.514	178.86
802.693	225.96
802.873	146.09
803.053	275.11
803.233	211.62
803.413	174.76
803.592	311.97
803.772	203.43
803.952	201.38
804.131	182.95
804.311	178.86
804.491	254.63
804.67	195.24
804.85	70.31
805.03	268.97
805.209	285.35
805.389	144.04
805.568	137.9
805.748	101.03
805.928	203.43
806.107	207.53
806.287	189.1
806.466	154.28
806.646	105.13
806.825	150.18
807.004	180.9
807.184	172.71
807.363	225.96
807.543	180.9
807.722	221.86
807.901	254.63
808.081	225.96
808.26	103.08
808.439	223.91
808.619	164.52
808.798	213.67
808.977	158.38
809.156	170.66
809.336	219.82
809.515	180.9
809.694	96.94
809.873	211.62
810.052	205.48
810.231	295.59
810.411	174.76
810.59	158.38
810.769	105.13
810.948	209.58
811.127	162.47
811.306	170.66
811.485	166.57
811.664	244.39
811.843	264.87
812.022	137.9
812.201	92.84
812.38	205.48
812.559	76.46
812.737	129.7
812.916	127.66
813.095	150.18
813.274	172.71
813.453	215.72
813.632	80.55
813.811	137.9
813.989	60.07
814.168	141.99
814.347	115.37
814.526	211.62
814.704	215.72
814.883	205.48
815.062	86.7
815.24	70.31
815.419	105.13
815.598	135.85
815.776	131.75
815.955	162.47
816.133	98.99
816.312	84.65
816.49	141.99
816.669	103.08
816.847	82.6
817.026	141.99
817.204	207.53
817.383	164.52
817.561	113.32
817.74	121.51
817.918	148.14
818.097	154.28
818.275	125.61
818.453	137.9
818.632	121.51
818.81	170.66
818.988	117.42
819.167	125.61
819.345	123.56
819.523	115.37
819.701	139.94
819.879	84.65
820.058	96.94
820.236	170.66
820.414	137.9
820.592	133.8
820.77	103.08
820.948	121.51
821.127	64.17
821.305	137.9
821.483	90.79
821.661	205.48
821.839	82.6
822.017	86.7
822.195	21.16
822.373	121.51
822.551	137.9
822.729	146.09
822.907	94.89
823.085	164.52
823.262	70.31
823.44	117.42
823.618	58.03
823.796	82.6
823.974	86.7
824.152	68.27
824.329	98.99
824.507	51.88
824.685	76.46
824.863	90.79
825.04	105.13
825.218	107.18
825.396	88.75
825.574	144.04
825.751	88.75
825.929	90.79
826.107	2.73
826.284	92.84
826.462	53.93
826.639	82.6
826.817	47.79
826.994	39.59
827.172	101.03
827.349	123.56
827.527	72.36
827.704	-32.08
827.882	103.08
828.059	133.8
828.237	105.13
828.414	84.65
828.591	19.11
828.769	125.61
828.946	33.45
829.124	19.11
829.301	144.04
829.478	35.5
829.655	82.6
829.833	8.87
830.01	51.88
830.187	113.32
830.364	72.36
830.542	37.55
830.719	146.09
830.896	123.56
831.073	29.35
831.25	45.74
831.427	94.89
831.604	164.52
831.782	94.89
831.959	139.94
832.136	27.31
832.313	70.31
832.49	39.59
832.667	47.79
832.844	23.21
833.021	115.37
833.198	80.55
833.374	51.88
833.551	58.03
833.728	43.69
833.905	96.94
834.082	58.03
834.259	172.71
834.436	72.36
834.612	2.73
834.789	113.32
834.966	55.98
835.143	58.03
835.319	121.51
835.496	129.7
835.673	45.74
835.85	109.22
836.026	107.18
836.203	43.69
836.38	70.31
836.556	72.36
836.733	-9.56
836.909	107.18
837.086	64.17
837.262	21.16
837.439	123.56
837.616	55.98
837.792	113.32
837.968	105.13
838.145	68.27
838.321	-23.89
838.498	117.42
838.674	64.17
838.851	129.7
839.027	74.41
839.203	64.17
839.38	70.31
839.556	41.64
839.732	8.87
839.909	76.46
840.085	133.8
840.261	90.79
840.437	47.79
840.614	47.79
840.79	113.32
840.966	45.74
841.142	55.98
841.318	10.92
841.494	47.79
841.671	64.17
841.847	41.64
842.023	-25.94
842.199	58.03
842.375	121.51
842.551	12.97
842.727	72.36
842.903	117.42
843.079	0.68
843.255	31.4
843.431	88.75
843.607	82.6
843.783	-34.13
843.959	72.36
844.134	-17.75
844.31	88.75
844.486	8.87
844.662	88.75
844.838	68.27
845.013	113.32
845.189	60.07
845.365	82.6
845.541	86.7
845.716	-75.09
845.892	47.79
846.068	80.55
846.244	-15.7
846.419	113.32
846.595	39.59
846.77	33.45
846.946	6.83
847.122	55.98
847.297	90.79
847.473	80.55
847.648	-34.13
847.824	51.88
847.999	-48.47
848.175	60.07
848.35	101.03
848.526	39.59
848.701	25.26
848.876	37.55
849.052	39.59
849.227	125.61
849.403	-21.85
849.578	88.75
849.753	33.45
849.929	31.4
850.104	-1.37
850.279	41.64
850.454	47.79
850.63	109.22
850.805	45.74
850.98	84.65
851.155	-19.8
851.33	105.13
851.505	25.26
851.681	51.88
851.856	-1.37
852.031	45.74
852.206	121.51
852.381	96.94
852.556	-7.51
852.731	-48.47
852.906	82.6
853.081	115.37
853.256	82.6
853.431	-23.89
853.606	-40.28
853.781	47.79
853.956	-25.94
854.131	80.55
854.305	-21.85
854.48	41.64
854.655	15.02
854.83	-13.65
855.005	41.64
855.18	47.79
855.354	35.5
855.529	60.07
855.704	72.36
855.879	82.6
856.053	6.83
856.228	49.83
856.403	31.4
856.577	76.46
856.752	49.83
856.926	19.11
857.101	47.79
857.276	64.17
857.45	76.46
857.625	29.35
857.799	17.07
857.974	39.59
858.148	-34.13
858.323	76.46
858.497	19.11
858.672	47.79
858.846	31.4
859.02	6.83
859.195	25.26
859.369	47.79
859.543	27.31
859.718	84.65
859.892	-7.51
860.066	82.6
860.241	-30.04
860.415	37.55
860.589	21.16
860.763	25.26
860.938	23.21
861.112	6.83
861.286	-9.56
861.46	53.93
861.634	-19.8
861.808	64.17
861.982	58.03
862.157	84.65
862.331	-9.56
862.505	-42.32
862.679	51.88
862.853	39.59
863.027	17.07
863.201	55.98
863.375	47.79
863.549	39.59
863.722	4.78
863.896	23.21
864.07	-17.75
864.244	82.6
864.418	0.68
864.592	-7.51
864.766	-30.04
864.939	-15.7
865.113	-1.37
865.287	39.59
865.461	55.98
865.634	0.68
865.808	-36.18
865.982	-15.7
866.156	-75.09
866.329	-48.47
866.503	80.55
866.676	49.83
866.85	92.84
867.024	25.26
867.197	8.87
867.371	17.07
867.544	58.03
867.718	23.21
867.891	23.21
868.065	-9.56
868.238	21.16
868.412	33.45
868.585	76.46
868.759	6.83
868.932	-64.85
869.105	-9.56
869.279	-34.13
869.452	17.07
869.625	35.5
869.799	39.59
869.972	-17.75
870.145	23.21
870.319	82.6
870.492	2.73
870.665	-17.75
870.838	80.55
871.011	6.83
871.185	47.79
871.358	-21.85
871.531	129.7
871.704	-7.51
871.877	33.45
872.05	-17.75
872.223	64.17
872.396	-11.61
872.569	-7.51
872.742	-9.56
872.915	-21.85
873.088	0.68
873.261	6.83
873.434	-44.37
873.607	-9.56
873.78	78.51
873.953	17.07
874.126	-3.41
874.299	-34.13
874.471	-25.94
874.644	27.31
874.817	10.92
874.99	6.83
875.163	-36.18
875.335	17.07
875.508	-9.56
875.681	90.79
875.853	-5.46
876.026	15.02
876.199	21.16
876.371	-25.94
876.544	-9.56
876.717	-15.7
876.889	-21.85
877.062	39.59
877.234	-30.04
877.407	27.31
877.579	-5.46
877.752	23.21
877.924	105.13
878.097	80.55
878.269	-7.51
878.442	72.36
878.614	55.98
878.786	88.75
878.959	4.78
879.131	6.83
879.303	-23.89
879.476	37.55
879.648	80.55
879.82	49.83
879.993	29.35
880.165	-50.52
880.337	-7.51
880.509	2.73
880.681	-62.8
880.854	23.21
881.026	33.45
881.198	84.65
881.37	39.59
881.542	8.87
881.714	8.87
881.886	0.68
882.058	64.17
882.23	-19.8
882.402	33.45
882.574	-48.47
882.746	8.87
882.918	8.87
883.09	31.4
883.262	6.83
883.434	33.45
883.606	-48.47
883.778	19.11
883.95	49.83
884.122	-13.65
884.293	47.79
884.465	15.02
884.637	-34.13
884.809	29.35
884.98	-54.61
885.152	-1.37
885.324	47.79
885.496	-9.56
885.667	-42.32
885.839	45.74
886.011	29.35
886.182	72.36
886.354	15.02
886.525	-11.61
886.697	-30.04
886.869	-64.85
887.04	-9.56
887.212	64.17
887.383	76.46
887.555	-17.75
887.726	17.07
887.897	8.87
888.069	21.16
888.24	39.59
888.412	-32.08
888.583	55.98
888.754	-23.89
888.926	-25.94
889.097	23.21
889.268	35.5
889.44	96.94
889.611	-64.85
889.782	8.87
889.953	10.92
890.125	60.07
890.296	12.97
890.467	19.11
890.638	39.59
890.809	23.21
890.98	51.88
891.151	-23.89
891.323	21.16
891.494	53.93
891.665	-99.67
891.836	-5.46
892.007	2.73
892.178	8.87
892.349	53.93
892.52	-71
892.691	43.69
892.862	-25.94
893.032	-1.37
893.203	6.83
893.374	76.46
893.545	47.79
893.716	27.31
893.887	6.83
894.057	-5.46
894.228	-21.85
894.399	23.21
894.57	6.83
894.74	74.41
894.911	15.02
895.082	-46.42
895.253	41.64
895.423	-1.37
895.594	31.4
895.764	58.03
895.935	-50.52
896.106	-9.56
896.276	47.79
896.447	17.07
896.617	-32.08
896.788	12.97
896.958	4.78
897.129	-9.56
897.299	-34.13
897.47	-19.8
897.64	60.07
897.81	39.59
897.981	64.17
898.151	-15.7
898.322	39.59
898.492	-1.37
898.662	2.73
898.832	23.21
899.003	19.11
899.173	23.21
899.343	35.5
899.513	-107.86
