Data from USB4F104151__153__14-44-37-660.txt Node

Date: Thu Mar 13 14:44:37 EDT 2025
User: louis
Spectrometer: USB4F10415
Trigger mode: 4
Integration Time (sec): 2.000000E-2
Scans to average: 1
Electric dark correction enabled: true
Nonlinearity correction enabled: false
Boxcar width: 0
XAxis mode: Wavelengths
Number of Pixels in Spectrum: 3648
>>>>>Begin Spectral Data<<<<<
178.204	-117.59
178.424	-117.59
178.644	-117.59
178.864	-76.63
179.084	-125.78
179.304	-11.09
179.524	5.29
179.744	-19.29
179.964	56.49
180.184	62.63
180.404	11.43
180.624	-23.38
180.844	3.24
181.064	-93.01
181.283	-25.43
181.503	-25.43
181.723	58.54
181.943	-21.33
182.163	46.25
182.383	74.92
182.602	-7
182.822	-2.9
183.042	91.31
183.262	66.73
183.482	-27.48
183.701	7.34
183.921	33.96
184.141	38.06
184.361	56.49
184.58	85.16
184.8	7.34
185.02	29.87
185.239	91.31
185.459	-15.19
185.679	36.01
185.898	-39.76
186.118	62.63
186.338	23.72
186.557	54.44
186.777	-35.67
186.997	58.54
187.216	33.96
187.436	85.16
187.655	29.87
187.875	50.35
188.095	-2.9
188.314	-56.15
188.534	160.94
188.753	-29.52
188.973	7.34
189.192	81.07
189.412	50.35
189.631	3.24
189.851	-66.39
190.07	95.4
190.29	-76.63
190.509	-9.05
190.729	3.24
190.948	-19.29
191.168	128.17
191.387	44.2
191.607	-17.24
191.826	46.25
192.045	50.35
192.265	29.87
192.484	89.26
192.704	-0.85
192.923	21.67
193.142	103.59
193.362	54.44
193.581	95.4
193.8	56.49
194.02	62.63
194.239	7.34
194.458	21.67
194.678	-9.05
194.897	13.48
195.116	19.63
195.335	3.24
195.555	62.63
195.774	-4.95
195.993	97.45
196.212	29.87
196.432	-17.24
196.651	29.87
196.87	1.19
197.089	87.21
197.308	33.96
197.528	79.02
197.747	50.35
197.966	21.67
198.185	-17.24
198.404	48.3
198.623	-19.29
198.842	-11.09
199.062	15.53
199.281	68.78
199.5	40.11
199.719	3.24
199.938	79.02
200.157	54.44
200.376	70.83
200.595	97.45
200.814	25.77
201.033	17.58
201.252	64.68
201.471	1.19
201.69	-11.09
201.909	99.5
202.128	38.06
202.347	95.4
202.566	21.67
202.785	-11.09
203.004	40.11
203.223	38.06
203.442	58.54
203.661	13.48
203.879	7.34
204.098	54.44
204.317	62.63
204.536	62.63
204.755	7.34
204.974	70.83
205.193	74.92
205.411	42.15
205.63	-0.85
205.849	29.87
206.068	-27.48
206.287	13.48
206.505	7.34
206.724	42.15
206.943	-21.33
207.162	-0.85
207.381	46.25
207.599	-25.43
207.818	-11.09
208.037	64.68
208.255	3.24
208.474	48.3
208.693	-27.48
208.911	56.49
209.13	13.48
209.349	-37.72
209.567	31.91
209.786	56.49
210.005	-27.48
210.223	79.02
210.442	-19.29
210.661	46.25
210.879	-97.11
211.098	31.91
211.316	38.06
211.535	70.83
211.753	33.96
211.972	42.15
212.191	38.06
212.409	-19.29
212.628	-0.85
212.846	-41.81
213.065	38.06
213.283	76.97
213.502	-9.05
213.72	3.24
213.938	62.63
214.157	107.69
214.375	7.34
214.594	38.06
214.812	-31.57
215.031	-7
215.249	79.02
215.467	5.29
215.686	50.35
215.904	130.22
216.122	38.06
216.341	27.82
216.559	44.2
216.778	101.55
216.996	46.25
217.214	7.34
217.432	40.11
217.651	38.06
217.869	15.53
218.087	13.48
218.306	46.25
218.524	23.72
218.742	-7
218.96	-17.24
219.179	9.39
219.397	-9.05
219.615	85.16
219.833	54.44
220.051	13.48
220.27	54.44
220.488	-17.24
220.706	7.34
220.924	72.87
221.142	79.02
221.36	54.44
221.578	-11.09
221.796	-33.62
222.015	23.72
222.233	56.49
222.451	56.49
222.669	-33.62
222.887	29.87
223.105	5.29
223.323	64.68
223.541	-17.24
223.759	21.67
223.977	17.58
224.195	5.29
224.413	19.63
224.631	17.58
224.849	-9.05
225.067	136.36
225.285	-11.09
225.503	13.48
225.721	56.49
225.939	-25.43
226.157	3.24
226.375	81.07
226.592	81.07
226.81	-11.09
227.028	-0.85
227.246	64.68
227.464	40.11
227.682	-0.85
227.9	-52.05
228.117	42.15
228.335	68.78
228.553	-9.05
228.771	-19.29
228.989	81.07
229.206	72.87
229.424	-2.9
229.642	-0.85
229.86	46.25
230.077	33.96
230.295	31.91
230.513	74.92
230.731	7.34
230.948	91.31
231.166	83.11
231.384	-25.43
231.601	-19.29
231.819	9.39
232.037	31.91
232.254	38.06
232.472	13.48
232.689	87.21
232.907	42.15
233.125	25.77
233.342	13.48
233.56	21.67
233.777	83.11
233.995	29.87
234.213	70.83
234.43	83.11
234.648	-2.9
234.865	-56.15
235.083	15.53
235.3	-31.57
235.518	25.77
235.735	83.11
235.953	79.02
236.17	17.58
236.388	81.07
236.605	70.83
236.822	85.16
237.04	46.25
237.257	72.87
237.475	-31.57
237.692	-0.85
237.909	13.48
238.127	48.3
238.344	89.26
238.562	66.73
238.779	-25.43
238.996	-47.96
239.214	44.2
239.431	13.48
239.648	38.06
239.865	56.49
240.083	13.48
240.3	9.39
240.517	-35.67
240.735	11.43
240.952	64.68
241.169	33.96
241.386	-9.05
241.603	-19.29
241.821	-56.15
242.038	54.44
242.255	74.92
242.472	5.29
242.689	17.58
242.907	54.44
243.124	25.77
243.341	89.26
243.558	-25.43
243.775	58.54
243.992	25.77
244.209	74.92
244.426	107.69
244.643	5.29
244.86	-11.09
245.078	38.06
245.295	17.58
245.512	29.87
245.729	9.39
245.946	42.15
246.163	15.53
246.38	70.83
246.597	31.91
246.814	79.02
247.031	85.16
247.248	40.11
247.464	103.59
247.681	54.44
247.898	9.39
248.115	54.44
248.332	46.25
248.549	-29.52
248.766	105.64
248.983	56.49
249.2	21.67
249.417	48.3
249.633	50.35
249.85	42.15
250.067	1.19
250.284	40.11
250.501	-33.62
250.717	62.63
250.934	-84.82
251.151	-11.09
251.368	-27.48
251.585	44.2
251.801	13.48
252.018	13.48
252.235	5.29
252.451	-17.24
252.668	-31.57
252.885	95.4
253.102	58.54
253.318	33.96
253.535	-2.9
253.752	72.87
253.968	29.87
254.185	-45.91
254.401	23.72
254.618	70.83
254.835	70.83
255.051	128.17
255.268	46.25
255.484	83.11
255.701	-11.09
255.917	72.87
256.134	60.59
256.351	38.06
256.567	70.83
256.784	79.02
257	-25.43
257.217	13.48
257.433	21.67
257.65	25.77
257.866	5.29
258.082	17.58
258.299	23.72
258.515	72.87
258.732	66.73
258.948	1.19
259.165	130.22
259.381	56.49
259.597	44.2
259.814	62.63
260.03	54.44
260.246	29.87
260.463	83.11
260.679	48.3
260.895	42.15
261.112	70.83
261.328	-15.19
261.544	50.35
261.761	44.2
261.977	5.29
262.193	89.26
262.409	91.31
262.626	36.01
262.842	-0.85
263.058	-0.85
263.274	66.73
263.49	36.01
263.707	-15.19
263.923	56.49
264.139	-47.96
264.355	60.59
264.571	17.58
264.787	40.11
265.004	91.31
265.22	81.07
265.436	-64.34
265.652	33.96
265.868	83.11
266.084	21.67
266.3	7.34
266.516	-41.81
266.732	5.29
266.948	56.49
267.164	-41.81
267.38	29.87
267.596	9.39
267.812	-19.29
268.028	83.11
268.244	58.54
268.46	38.06
268.676	-11.09
268.892	42.15
269.108	13.48
269.324	-7
269.54	-35.67
269.756	107.69
269.972	9.39
270.188	-0.85
270.403	9.39
270.619	62.63
270.835	-35.67
271.051	21.67
271.267	-7
271.483	-47.96
271.698	-2.9
271.914	17.58
272.13	-9.05
272.346	-11.09
272.562	33.96
272.777	97.45
272.993	111.78
273.209	13.48
273.425	13.48
273.64	38.06
273.856	9.39
274.072	13.48
274.287	27.82
274.503	48.3
274.719	91.31
274.934	113.83
275.15	9.39
275.366	-15.19
275.581	-17.24
275.797	5.29
276.012	-2.9
276.228	29.87
276.444	23.72
276.659	21.67
276.875	-52.05
277.09	38.06
277.306	5.29
277.521	23.72
277.737	3.24
277.952	23.72
278.168	13.48
278.383	21.67
278.599	40.11
278.814	38.06
279.03	62.63
279.245	19.63
279.461	23.72
279.676	72.87
279.892	-2.9
280.107	40.11
280.322	-33.62
280.538	-2.9
280.753	36.01
280.969	-11.09
281.184	21.67
281.399	103.59
281.615	46.25
281.83	103.59
282.045	-35.67
282.26	29.87
282.476	68.78
282.691	13.48
282.906	-2.9
283.122	42.15
283.337	50.35
283.552	160.94
283.767	13.48
283.983	23.72
284.198	25.77
284.413	95.4
284.628	33.96
284.843	50.35
285.058	21.67
285.274	29.87
285.489	13.48
285.704	113.83
285.919	-13.14
286.134	-15.19
286.349	15.53
286.564	9.39
286.779	48.3
286.995	66.73
287.21	-41.81
287.425	128.17
287.64	-23.38
287.855	42.15
288.07	-56.15
288.285	97.45
288.5	11.43
288.715	33.96
288.93	23.72
289.145	56.49
289.36	56.49
289.575	21.67
289.79	54.44
290.004	7.34
290.219	-13.14
290.434	17.58
290.649	27.82
290.864	-2.9
291.079	-9.05
291.294	5.29
291.509	-2.9
291.724	23.72
291.938	29.87
292.153	46.25
292.368	15.53
292.583	48.3
292.798	74.92
293.012	-19.29
293.227	1.19
293.442	83.11
293.657	89.26
293.871	42.15
294.086	7.34
294.301	-19.29
294.516	21.67
294.73	46.25
294.945	15.53
295.16	58.54
295.374	56.49
295.589	-47.96
295.804	54.44
296.018	-19.29
296.233	23.72
296.447	23.72
296.662	54.44
296.877	-7
297.091	107.69
297.306	-58.2
297.52	44.2
297.735	97.45
297.949	42.15
298.164	29.87
298.378	-11.09
298.593	-37.72
298.807	-17.24
299.022	23.72
299.236	33.96
299.451	72.87
299.665	40.11
299.88	-41.81
300.094	-11.09
300.309	56.49
300.523	11.43
300.737	38.06
300.952	62.63
301.166	15.53
301.381	76.97
301.595	-58.2
301.809	70.83
302.024	13.48
302.238	-54.1
302.452	-17.24
302.667	19.63
302.881	95.4
303.095	74.92
303.309	72.87
303.524	50.35
303.738	3.24
303.952	29.87
304.166	79.02
304.381	-0.85
304.595	9.39
304.809	-19.29
305.023	70.83
305.237	36.01
305.452	-19.29
305.666	95.4
305.88	38.06
306.094	50.35
306.308	5.29
306.522	5.29
306.736	21.67
306.95	9.39
307.164	5.29
307.379	29.87
307.593	83.11
307.807	62.63
308.021	23.72
308.235	13.48
308.449	-25.43
308.663	-25.43
308.877	64.68
309.091	15.53
309.305	5.29
309.519	-15.19
309.733	70.83
309.947	-9.05
310.161	-17.24
310.374	87.21
310.588	66.73
310.802	91.31
311.016	13.48
311.23	21.67
311.444	-56.15
311.658	-2.9
311.872	36.01
312.085	33.96
312.299	5.29
312.513	66.73
312.727	46.25
312.941	13.48
313.154	48.3
313.368	15.53
313.582	50.35
313.796	38.06
314.009	-2.9
314.223	111.78
314.437	-9.05
314.651	40.11
314.864	68.78
315.078	79.02
315.292	54.44
315.505	42.15
315.719	25.77
315.933	46.25
316.146	64.68
316.36	31.91
316.573	25.77
316.787	-35.67
317.001	17.58
317.214	-25.43
317.428	25.77
317.641	38.06
317.855	87.21
318.068	-58.2
318.282	31.91
318.495	23.72
318.709	83.11
318.922	7.34
319.136	66.73
319.349	-82.77
319.563	-2.9
319.776	23.72
319.99	-66.39
320.203	74.92
320.417	113.83
320.63	31.91
320.843	5.29
321.057	101.55
321.27	21.67
321.483	15.53
321.697	99.5
321.91	21.67
322.124	29.87
322.337	42.15
322.55	79.02
322.763	-15.19
322.977	33.96
323.19	13.48
323.403	-19.29
323.617	40.11
323.83	56.49
324.043	-15.19
324.256	5.29
324.469	-0.85
324.683	134.31
324.896	38.06
325.109	-25.43
325.322	25.77
325.535	-23.38
325.748	76.97
325.962	62.63
326.175	54.44
326.388	38.06
326.601	89.26
326.814	79.02
327.027	128.17
327.24	74.92
327.453	-27.48
327.666	-15.19
327.879	87.21
328.092	-25.43
328.305	56.49
328.518	46.25
328.731	79.02
328.944	38.06
329.157	62.63
329.37	5.29
329.583	74.92
329.796	15.53
330.009	-21.33
330.222	40.11
330.435	29.87
330.648	76.97
330.861	-2.9
331.073	72.87
331.286	62.63
331.499	29.87
331.712	5.29
331.925	-41.81
332.138	46.25
332.35	109.74
332.563	7.34
332.776	40.11
332.989	46.25
333.202	70.83
333.414	42.15
333.627	-11.09
333.84	29.87
334.053	29.87
334.265	-7
334.478	50.35
334.691	-9.05
334.903	-19.29
335.116	44.2
335.329	-4.95
335.541	46.25
335.754	68.78
335.966	-2.9
336.179	-33.62
336.392	-29.52
336.604	-17.24
336.817	60.59
337.029	64.68
337.242	56.49
337.454	64.68
337.667	-27.48
337.88	62.63
338.092	74.92
338.305	115.88
338.517	9.39
338.729	105.64
338.942	66.73
339.154	-27.48
339.367	1.19
339.579	5.29
339.792	46.25
340.004	89.26
340.217	-15.19
340.429	124.07
340.641	-19.29
340.854	15.53
341.066	17.58
341.278	74.92
341.491	46.25
341.703	-0.85
341.915	-68.44
342.128	111.78
342.34	48.3
342.552	19.63
342.764	21.67
342.977	50.35
343.189	115.88
343.401	81.07
343.613	-93.01
343.826	58.54
344.038	21.67
344.25	23.72
344.462	1.19
344.674	62.63
344.886	70.83
345.099	70.83
345.311	62.63
345.523	-66.39
345.735	42.15
345.947	46.25
346.159	38.06
346.371	-9.05
346.583	29.87
346.795	48.3
347.007	21.67
347.219	54.44
347.431	33.96
347.643	48.3
347.855	-4.95
348.067	83.11
348.279	62.63
348.491	44.2
348.703	23.72
348.915	-11.09
349.127	50.35
349.339	58.54
349.551	46.25
349.763	46.25
349.975	70.83
350.187	54.44
350.399	48.3
350.61	13.48
350.822	-4.95
351.034	64.68
351.246	42.15
351.458	56.49
351.669	91.31
351.881	107.69
352.093	29.87
352.305	76.97
352.517	1.19
352.728	23.72
352.94	33.96
353.152	169.13
353.363	25.77
353.575	-9.05
353.787	58.54
353.999	79.02
354.21	103.59
354.422	48.3
354.633	-7
354.845	21.67
355.057	44.2
355.268	31.91
355.48	95.4
355.692	23.72
355.903	72.87
356.115	44.2
356.326	-19.29
356.538	31.91
356.749	68.78
356.961	87.21
357.172	74.92
357.384	21.67
357.595	64.68
357.807	-15.19
358.018	103.59
358.23	36.01
358.441	46.25
358.653	17.58
358.864	21.67
359.075	29.87
359.287	50.35
359.498	81.07
359.709	56.49
359.921	62.63
360.132	-43.86
360.344	9.39
360.555	-88.92
360.766	-0.85
360.977	54.44
361.189	46.25
361.4	46.25
361.611	-52.05
361.823	46.25
362.034	50.35
362.245	42.15
362.456	-33.62
362.667	13.48
362.879	40.11
363.09	1.19
363.301	144.55
363.512	33.96
363.723	62.63
363.935	9.39
364.146	42.15
364.357	64.68
364.568	52.39
364.779	115.88
364.99	95.4
365.201	87.21
365.412	-11.09
365.623	23.72
365.834	97.45
366.045	79.02
366.256	146.6
366.467	128.17
366.678	5.29
366.889	122.02
367.1	-0.85
367.311	70.83
367.522	21.67
367.733	83.11
367.944	74.92
368.155	46.25
368.366	81.07
368.577	83.11
368.788	154.79
368.999	38.06
369.209	1.19
369.42	113.83
369.631	113.83
369.842	5.29
370.053	54.44
370.264	165.03
370.474	31.91
370.685	5.29
370.896	79.02
371.107	83.11
371.317	48.3
371.528	5.29
371.739	83.11
371.95	-60.24
372.16	1.19
372.371	9.39
372.582	64.68
372.792	50.35
373.003	54.44
373.214	85.16
373.424	83.11
373.635	38.06
373.846	81.07
374.056	85.16
374.267	52.39
374.477	9.39
374.688	38.06
374.898	21.67
375.109	21.67
375.319	48.3
375.53	62.63
375.74	66.73
375.951	33.96
376.161	33.96
376.372	122.02
376.582	79.02
376.793	17.58
377.003	56.49
377.214	19.63
377.424	62.63
377.635	48.3
377.845	-15.19
378.055	70.83
378.266	-15.19
378.476	17.58
378.686	7.34
378.897	54.44
379.107	81.07
379.317	29.87
379.528	46.25
379.738	95.4
379.948	-43.86
380.158	48.3
380.369	54.44
380.579	70.83
380.789	-4.95
380.999	-9.05
381.21	79.02
381.42	85.16
381.63	23.72
381.84	68.78
382.05	50.35
382.261	13.48
382.471	74.92
382.681	-11.09
382.891	42.15
383.101	42.15
383.311	29.87
383.521	-7
383.731	66.73
383.941	99.5
384.151	140.46
384.361	21.67
384.571	17.58
384.781	-2.9
384.991	122.02
385.201	54.44
385.411	29.87
385.621	91.31
385.831	40.11
386.041	15.53
386.251	5.29
386.461	144.55
386.671	46.25
386.881	72.87
387.091	33.96
387.301	76.97
387.511	-2.9
387.72	70.83
387.93	70.83
388.14	40.11
388.35	29.87
388.56	42.15
388.769	93.35
388.979	54.44
389.189	-23.38
389.399	-9.05
389.609	27.82
389.818	40.11
390.028	3.24
390.238	17.58
390.447	54.44
390.657	15.53
390.867	97.45
391.076	-11.09
391.286	7.34
391.496	29.87
391.705	85.16
391.915	72.87
392.125	99.5
392.334	70.83
392.544	15.53
392.753	54.44
392.963	79.02
393.172	48.3
393.382	72.87
393.591	89.26
393.801	52.39
394.01	81.07
394.22	17.58
394.429	136.36
394.639	66.73
394.848	85.16
395.058	79.02
395.267	83.11
395.477	117.93
395.686	50.35
395.895	64.68
396.105	136.36
396.314	17.58
396.524	56.49
396.733	27.82
396.942	103.59
397.152	89.26
397.361	87.21
397.57	99.5
397.78	-15.19
397.989	56.49
398.198	130.22
398.407	72.87
398.617	46.25
398.826	5.29
399.035	79.02
399.244	111.78
399.453	185.51
399.663	101.55
399.872	148.65
400.081	38.06
400.29	79.02
400.499	89.26
400.708	107.69
400.917	83.11
401.127	128.17
401.336	150.7
401.545	154.79
401.754	138.41
401.963	101.55
402.172	99.5
402.381	1.19
402.59	128.17
402.799	97.45
403.008	101.55
403.217	54.44
403.426	140.46
403.635	93.35
403.844	101.55
404.053	91.31
404.262	124.07
404.471	203.94
404.68	62.63
404.888	146.6
405.097	136.36
405.306	130.22
405.515	195.75
405.724	140.46
405.933	117.93
406.142	154.79
406.35	224.42
406.559	152.74
406.768	156.84
406.977	212.14
407.185	177.32
407.394	179.37
407.603	150.7
407.812	222.38
408.02	169.13
408.229	185.51
408.438	193.7
408.646	105.64
408.855	144.55
409.064	201.9
409.272	236.71
409.481	296.1
409.69	222.38
409.898	261.29
410.107	226.47
410.315	246.95
410.524	279.72
410.733	216.23
410.941	287.91
411.15	255.14
411.358	343.21
411.567	255.14
411.775	279.72
411.984	277.67
412.192	324.77
412.401	318.63
412.609	406.69
412.818	378.02
413.026	408.74
413.234	408.74
413.443	308.39
413.651	431.27
413.86	402.6
414.068	562.34
414.276	519.33
414.485	472.23
414.693	545.95
414.901	636.06
415.11	545.95
415.318	523.43
415.526	570.53
415.734	650.4
415.943	636.06
416.151	611.49
416.359	627.87
416.567	717.98
416.776	769.18
416.984	703.65
417.192	744.61
417.4	720.03
417.608	754.85
417.817	799.9
418.025	865.44
418.233	957.6
418.441	922.78
418.649	842.91
418.857	1088.67
419.065	1006.75
419.273	1039.51
419.481	1094.81
419.689	1055.9
419.897	1119.39
420.105	1217.69
420.313	1227.93
420.521	1328.28
420.729	1326.23
420.937	1332.37
421.145	1324.18
421.353	1373.33
421.561	1592.47
421.769	1479.83
421.977	1588.37
422.185	1571.99
422.393	1680.53
422.601	1825.93
422.809	1817.74
423.017	1803.41
423.224	1807.5
423.432	1907.85
423.64	1926.29
423.848	2090.12
424.056	1995.92
424.263	2131.08
424.471	2141.32
424.679	2339.97
424.887	2405.51
425.094	2448.52
425.302	2536.58
425.51	2458.76
425.718	2671.75
425.925	2669.7
426.133	2669.7
426.341	2942.08
426.548	2897.02
426.756	3050.62
426.964	3124.35
427.171	3298.42
427.379	3347.58
427.586	3267.7
427.794	3417.21
428.001	3638.39
428.209	3691.63
428.417	3626.1
428.624	3998.83
428.832	3974.25
429.039	3968.11
429.247	4031.6
429.454	4459.62
429.662	4478.05
429.869	4076.65
430.076	4568.16
430.284	4523.11
430.491	4629.6
430.699	4936.8
430.906	4965.47
431.114	5067.87
431.321	5327.96
431.528	5413.98
431.736	5602.39
431.943	5944.4
432.15	5563.48
432.358	5698.64
432.565	6044.75
432.772	6091.85
432.979	6407.24
433.187	6583.37
433.394	6634.57
433.601	6882.37
433.808	7064.64
434.016	7044.16
434.223	7238.72
434.43	7767.09
434.637	7517.24
434.844	7963.7
435.052	8131.63
435.259	7914.55
435.466	8303.66
435.673	8041.52
435.88	8573.99
436.087	9038.88
436.294	8963.11
436.501	8846.37
436.708	8942.63
436.915	9282.59
437.122	9759.77
437.329	9645.08
437.537	9823.25
437.743	10206.22
437.95	9978.9
438.157	10619.91
438.364	10875.91
438.571	11039.75
438.778	11131.9
438.985	12207.09
439.192	11561.98
439.399	11811.83
439.606	11426.81
439.813	12159.99
440.02	13083.62
440.227	12909.54
440.433	12809.19
440.64	13235.17
440.847	13063.14
441.054	13349.85
441.261	14205.91
441.467	13947.86
441.674	14447.57
441.881	14818.25
442.088	14820.3
442.294	14611.4
442.501	15000.52
442.708	15432.64
442.914	15811.51
443.121	16735.15
443.328	16225.2
443.534	17124.26
443.741	16794.54
443.948	16581.55
444.154	17988.5
444.361	17798.04
444.568	17822.62
444.774	18095
444.981	18080.66
445.187	18635.66
445.394	19329.92
445.6	19075.98
445.807	21070.7
446.013	19905.4
446.22	20392.82
446.426	21148.52
446.633	21730.14
446.839	22229.85
447.046	21240.68
447.252	22702.93
447.459	22590.29
447.665	22246.23
447.871	23237.45
448.078	24556.34
448.284	22963.02
448.491	24134.46
448.697	24429.37
448.903	25580.32
449.11	25410.34
449.316	25174.83
449.522	25527.08
449.728	26170.14
449.935	26219.29
450.141	26702.61
450.347	27142.92
450.553	26110.75
450.76	26540.82
450.966	27622.15
451.172	26884.88
451.378	27859.71
451.584	27259.66
451.791	27601.67
451.997	27747.08
452.203	28510.97
452.409	28275.45
452.615	28308.22
452.821	27161.36
453.027	26788.63
453.233	28349.18
453.44	27024.14
453.646	27489.03
453.852	27597.57
454.058	27886.34
454.264	27210.51
454.47	27814.66
454.676	27362.06
454.882	28109.57
455.088	25705.25
455.294	26147.61
455.5	26448.66
455.705	26680.08
455.911	25520.93
456.117	25187.11
456.323	24998.7
456.529	23511.88
456.735	24830.77
456.941	24103.74
457.147	23802.69
457.352	22836.05
457.558	22520.66
457.764	22975.31
457.97	22518.61
458.176	21984.09
458.381	21842.78
458.587	20747.12
458.793	20927.34
458.999	20052.86
459.204	21439.33
459.41	20661.1
459.616	19454.85
459.821	19338.12
460.027	19225.48
460.233	19041.16
460.438	17980.31
460.644	18262.93
460.85	17161.12
461.055	16890.79
461.261	16966.57
461.466	15981.49
461.672	15256.51
461.878	16210.87
462.083	15315.9
462.289	15053.76
462.494	14902.22
462.7	14244.82
462.905	13890.52
463.111	14449.61
463.316	14431.18
463.522	14160.85
463.727	14056.4
463.932	14072.79
464.138	13849.56
464.343	13798.36
464.549	13587.42
464.754	14148.56
464.959	13804.5
465.165	13796.31
465.37	13186.02
465.575	12831.72
465.781	13485.02
465.986	13298.66
466.191	12674.03
466.397	12622.83
466.602	12059.63
466.807	12413.93
467.012	12397.55
467.218	12573.67
467.423	12338.16
467.628	12522.48
467.833	12950.5
468.038	12475.37
468.244	12164.08
468.449	12571.63
468.654	12153.84
468.859	12268.53
469.064	11959.28
469.269	11334.65
469.474	11396.09
469.679	11811.83
469.885	11342.85
470.09	11715.58
470.295	11592.7
470.5	11484.16
470.705	11596.79
470.91	11090.95
471.115	10925.06
471.32	11287.55
471.525	11262.97
471.73	10695.69
471.935	10894.34
472.139	10279.95
472.344	10585.1
472.549	10441.74
472.754	10312.72
472.959	10157.07
473.164	9982.99
473.369	9776.15
473.574	10122.26
473.778	9985.04
473.983	10224.65
474.188	9888.79
474.393	9450.52
474.598	9491.48
474.802	9630.74
475.007	9229.34
475.212	9348.12
475.417	9208.86
475.621	9036.83
475.826	9188.38
476.031	8846.37
476.235	8741.93
476.44	8864.8
476.645	8791.08
476.849	8696.87
477.054	8696.87
477.259	8381.48
477.463	8447.02
477.668	8303.66
477.872	8459.31
478.077	8186.93
478.282	8025.14
478.486	7932.98
478.691	7998.51
478.895	7900.21
479.1	7763
479.304	7689.27
479.509	7574.58
479.713	7763
479.918	7615.54
480.122	7486.52
480.326	7623.73
480.531	7572.54
480.735	7588.92
480.94	7394.36
481.144	7808.05
481.348	7369.79
481.553	7496.76
481.757	7169.09
481.961	7355.45
482.166	7482.42
482.37	7353.4
482.574	7152.7
482.778	7263.29
482.983	7453.75
483.187	7455.8
483.391	7373.88
483.595	7259.2
483.8	7224.38
484.004	7232.57
484.208	7457.85
484.412	7265.34
484.616	7380.03
484.821	7271.48
485.025	7089.21
485.229	7289.92
485.433	7283.77
485.637	7308.35
485.841	7109.69
486.045	7418.94
486.249	7343.16
486.453	7060.54
486.657	7083.07
486.861	7351.35
487.065	7394.36
487.269	7144.51
487.473	7189.56
487.677	7210.04
487.881	7476.28
488.085	7273.53
488.289	7398.46
488.493	7361.59
488.697	7582.77
488.901	7308.35
489.105	7418.94
489.309	7298.11
489.512	7396.41
489.716	7355.45
489.92	7339.07
490.124	7492.66
490.328	7463.99
490.531	7285.82
490.735	7480.38
490.939	7429.18
491.143	7398.46
491.346	7441.47
491.55	7609.4
491.754	7597.11
491.958	7576.63
492.161	7580.73
492.365	7527.48
492.569	7480.38
492.772	7431.23
492.976	7924.79
493.18	7998.51
493.383	7914.55
493.587	8031.28
493.79	8084.53
493.994	8025.14
494.197	8033.33
494.401	8057.9
494.605	8158.25
494.808	8225.84
495.012	8320.04
495.215	8369.19
495.419	8250.41
495.622	8477.74
495.825	8442.92
496.029	8377.39
496.232	8655.91
496.436	8731.69
496.639	9020.45
496.843	8729.64
497.046	8952.87
497.249	9073.7
497.453	9090.08
497.656	9266.21
497.859	9051.17
498.063	9329.69
498.266	9387.04
498.469	9520.15
498.673	9686.04
498.876	9698.33
499.079	9851.92
499.282	9765.91
499.485	9884.69
499.689	10077.2
499.892	10306.57
500.095	10214.41
500.298	10540.04
500.501	10572.81
500.705	10726.41
500.908	10814.47
501.111	10744.84
501.314	10843.14
501.517	11258.88
501.72	11267.07
501.923	11285.5
502.126	11846.65
502.329	11631.61
502.532	11768.82
502.735	11858.93
502.938	12153.84
503.141	12063.73
503.344	12293.1
503.547	12348.4
503.75	12522.48
503.953	12669.93
504.156	13013.99
504.359	12882.92
504.562	13167.59
504.765	13374.43
504.968	13255.65
505.17	13394.91
505.373	13650.91
505.576	13857.75
505.779	13884.37
505.982	13908.95
506.185	14457.81
506.387	14404.56
506.59	14549.96
506.793	15066.05
506.996	14615.5
507.198	15233.99
507.401	15209.41
507.604	15264.71
507.807	15598.52
508.009	15745.98
508.212	15838.14
508.415	15909.82
508.617	16317.36
508.82	16640.94
509.022	16423.86
509.225	16784.3
509.428	16884.65
509.63	17064.87
509.833	17068.97
510.035	17685.4
510.238	17490.85
510.44	17623.97
510.643	17908.63
510.845	17972.12
511.048	17961.88
511.25	18287.51
511.453	18516.88
511.655	19284.87
511.858	18944.91
512.06	19075.98
512.262	19155.85
512.465	19237.77
512.667	19905.4
512.87	19704.7
513.072	20065.14
513.274	20540.27
513.477	20714.35
513.679	20771.69
513.881	20908.91
514.084	21111.66
514.286	21068.65
514.488	21295.97
514.69	21738.33
514.893	21992.28
515.095	21908.32
515.297	22264.66
515.499	22317.91
515.701	22717.26
515.904	22594.39
516.106	23044.94
516.308	23407.43
516.51	23774.02
516.712	23769.92
516.914	23720.77
517.116	24326.97
517.318	24386.36
517.52	24302.39
517.722	24482.61
517.925	24924.97
518.127	25340.71
518.329	25377.58
518.531	25305.9
518.733	25979.68
518.935	26348.31
519.136	25856.8
519.338	26544.92
519.54	26528.53
519.742	27024.14
519.944	26981.13
520.146	27396.87
520.348	27749.12
520.55	27667.2
520.752	28039.93
520.954	28490.49
521.155	28222.2
521.357	28605.17
521.559	28560.12
521.761	29264.62
521.963	29203.18
522.164	29168.37
522.366	29819.62
522.568	29899.49
522.77	29819.62
522.971	30272.22
523.173	30395.1
523.375	30925.52
523.576	30751.45
523.778	30864.08
523.98	31044.3
524.181	31027.92
524.383	31335.12
524.584	31601.35
524.786	31716.04
524.988	32160.45
525.189	31875.78
525.391	32191.17
525.592	32125.63
525.794	32205.5
525.995	32547.51
526.197	32545.47
526.398	32989.88
526.6	33108.66
526.801	33065.65
527.003	33153.71
527.204	33559.21
527.406	33813.16
527.607	33749.67
527.808	34079.39
528.01	33501.87
528.211	33882.79
528.412	34433.69
528.614	34364.06
528.815	34331.29
529.016	34353.82
529.218	34179.75
529.419	34888.34
529.62	34398.88
529.822	34851.48
530.023	34882.2
530.224	34792.09
530.425	34278.05
530.626	34589.34
530.828	34374.3
531.029	35469.97
531.23	34790.04
531.431	35091.09
531.632	34927.25
531.833	35046.04
532.035	35361.42
532.236	35185.3
532.437	35500.68
532.638	35285.65
532.839	35904.13
533.04	35445.39
533.241	34935.45
533.442	35809.93
533.643	35807.88
533.844	35785.35
534.045	35977.86
534.246	35533.45
534.447	35601.04
534.648	35447.44
534.849	36016.77
535.05	35416.72
535.251	35701.39
535.451	35574.41
535.652	35693.19
535.853	35392.14
536.054	35572.36
536.255	35846.79
536.456	35390.09
536.657	35981.96
536.857	35660.43
537.058	35701.39
537.259	36336.26
537.46	35953.29
537.66	35857.03
537.861	36061.83
538.062	35558.03
538.263	35908.23
538.463	35824.26
538.664	35891.85
538.865	35873.42
539.065	36037.25
539.266	35572.36
539.466	35902.09
539.667	35248.78
539.868	35889.8
540.068	35738.25
540.269	35678.86
540.469	35693.19
540.67	35900.04
540.87	35768.97
541.071	35867.27
541.271	35766.92
541.472	35664.52
541.672	35553.93
541.873	35453.58
542.073	35138.19
542.274	36190.85
542.474	35465.87
542.675	35244.69
542.875	35746.44
543.075	35521.16
543.276	35031.7
543.476	35695.24
543.676	35400.33
543.877	35748.49
544.077	35414.67
544.277	35340.94
544.478	35537.55
544.678	35895.94
544.878	35564.17
545.078	35738.25
545.279	35535.5
545.479	35519.12
545.679	35592.84
545.879	35566.22
546.079	35633.8
546.28	35504.78
546.48	35062.42
546.68	35721.87
546.88	35465.87
547.08	35523.21
547.28	35302.03
547.48	35111.57
547.68	35285.65
547.88	35101.33
548.081	35451.53
548.281	35261.07
548.481	35320.46
548.681	35621.52
548.881	35375.76
549.081	35426.96
549.28	35207.83
549.48	35322.51
549.68	35136.15
549.88	35922.57
550.08	35234.45
550.28	35238.54
550.48	35244.69
550.68	35553.93
550.88	35289.74
551.08	35390.09
551.279	35267.22
551.479	34859.67
551.679	35703.43
551.879	34951.83
552.079	35457.68
552.278	35381.9
552.478	35222.16
552.678	34783.9
552.878	35500.68
553.077	35191.44
553.277	34714.26
553.477	35082.9
553.676	34802.33
553.876	35142.29
554.076	35218.07
554.275	34937.49
554.475	34777.75
554.674	35177.11
554.874	34845.33
555.074	34767.51
555.273	35117.71
555.473	35048.08
555.672	34853.53
555.872	34695.83
556.071	34978.45
556.271	34853.53
556.47	34794.14
556.67	34335.39
556.869	35005.08
557.068	34671.26
557.268	34235.04
557.467	34972.31
557.667	34263.71
557.866	34613.91
558.065	34142.88
558.265	33987.24
558.464	34212.51
558.663	34173.6
558.863	33718.95
559.062	34460.32
559.261	33835.69
559.461	34230.94
559.66	33768.1
559.859	33850.02
560.058	33690.28
560.258	33778.34
560.457	33510.06
560.656	33780.39
560.855	33745.58
561.054	33837.73
561.253	33145.52
561.453	33649.32
561.652	33774.25
561.851	33663.66
562.05	33397.42
562.249	33610.41
562.448	33694.38
562.647	33239.73
562.846	33041.07
563.045	33424.04
563.244	33055.41
563.443	33219.25
563.642	33026.74
563.841	32836.28
564.04	32817.85
564.239	32940.72
564.438	32723.64
564.637	32918.2
564.836	32752.31
565.035	32414.4
565.234	32506.55
565.432	32488.12
565.631	32348.86
565.83	32142.02
566.029	32314.05
566.228	31806.15
566.427	32148.16
566.625	32266.94
566.824	31754.95
567.023	32139.97
567.222	31498.95
567.42	31937.22
567.619	31638.22
567.818	31627.98
568.016	31589.06
568.215	31396.56
568.414	31148.75
568.612	31441.61
568.811	31414.99
569.01	31220.43
569.208	30898.9
569.407	31279.82
569.605	30694.1
569.804	31148.75
570.002	30962.39
570.201	30841.56
570.4	30888.66
570.598	30460.63
570.797	30255.84
570.995	30630.62
571.193	29944.55
571.392	30638.81
571.59	30196.45
571.789	30388.95
571.987	29973.22
572.186	30208.73
572.384	29827.81
572.582	29827.81
572.781	30182.11
572.979	29676.26
573.177	29608.68
573.376	29735.65
573.574	29594.34
573.772	29592.3
573.971	29168.37
574.169	29356.78
574.367	29213.42
574.565	29057.78
574.763	28930.8
574.962	29020.91
575.16	28818.16
575.358	28947.18
575.556	28689.14
575.754	29410.03
575.952	28281.6
576.151	28873.46
576.349	28644.09
576.547	28365.56
576.745	28148.48
576.943	28166.91
577.141	28005.12
577.339	28216.06
577.537	27841.28
577.735	27865.86
577.933	27693.83
578.131	27765.51
578.329	27478.79
578.527	27648.77
578.725	27718.4
578.923	27501.32
579.121	27628.29
579.319	27192.08
579.516	27333.39
579.714	27288.33
579.912	27028.24
580.11	27015.95
580.308	27056.91
580.506	26987.28
580.704	26637.08
580.901	26675.99
581.099	26764.05
581.297	26698.52
581.495	26497.81
581.692	26704.66
581.89	26137.37
582.088	26401.56
582.285	26258.2
582.483	26489.62
582.681	26274.59
582.878	26336.02
583.076	25643.81
583.274	25951.01
583.471	25740.07
583.669	25615.14
583.866	25584.42
584.064	25987.87
584.262	25418.53
584.459	25731.87
584.657	25424.68
584.854	25633.57
585.052	25260.84
585.249	25377.58
585.447	25303.85
585.644	24765.23
585.841	25062.19
586.039	25094.96
586.236	24912.69
586.434	24812.34
586.631	24668.98
586.828	24765.23
587.026	24687.41
587.223	24490.8
587.42	24681.27
587.618	24529.72
587.815	24130.36
588.012	23999.29
588.21	24251.19
588.407	24423.22
588.604	24169.27
588.801	23667.52
588.999	23675.71
589.196	23878.46
589.393	23731.01
589.59	23763.78
589.787	23683.91
589.984	23737.15
590.182	23466.82
590.379	23288.65
590.576	23239.5
590.773	23368.52
590.97	22895.44
591.167	23518.02
591.364	23001.93
591.561	23139.15
591.758	22858.57
591.955	22809.42
592.152	23030.6
592.349	22690.64
592.546	22545.23
592.743	22547.28
592.94	22283.09
593.137	22852.43
593.334	22661.97
593.531	22391.64
593.727	22319.96
593.924	22186.84
594.121	21984.09
594.318	22412.12
594.515	21889.88
594.712	22182.74
594.908	21680.99
595.105	22072.15
595.302	21801.82
595.499	21902.17
595.696	21648.22
595.892	21502.82
596.089	21384.04
596.286	21629.79
596.482	21404.52
596.679	21468
596.876	21402.47
597.072	20847.47
597.269	21009.26
597.466	20968.3
597.662	21001.07
597.859	21103.46
598.055	20921.2
598.252	20695.92
598.448	20687.73
598.645	20804.46
598.841	20290.42
599.038	20478.83
599.234	20493.17
599.431	20151.16
599.627	20355.96
599.824	20542.32
600.02	20038.52
600.217	20239.22
600.413	20042.62
600.609	19977.08
600.806	19936.12
601.002	19940.22
601.198	19850.11
601.395	19555.2
601.591	19690.37
601.787	19784.57
601.984	19438.47
602.18	19659.65
602.376	19512.19
602.572	19354.5
602.769	19430.27
602.965	19350.4
603.161	19534.72
603.357	19338.12
603.553	19141.51
603.75	19252.1
603.946	19108.74
604.142	18936.71
604.338	18723.72
604.534	18994.06
604.73	18566.03
604.926	18527.12
605.122	18711.44
605.318	18490.26
605.514	18598.8
605.71	18377.62
605.906	18262.93
606.102	18559.89
606.298	18555.79
606.494	18299.8
606.69	18289.56
606.886	18207.64
607.082	18027.42
607.278	18396.05
607.474	17988.5
607.67	18328.47
607.866	17937.3
608.062	18205.59
608.257	17910.68
608.453	17945.5
608.649	17818.52
608.845	17578.91
609.041	17763.23
609.236	17847.19
609.432	17630.11
609.628	17646.49
609.824	17761.18
610.019	17365.92
610.215	17593.25
610.411	17732.51
610.606	17349.54
610.802	17431.46
610.998	17232.8
611.193	17640.35
611.389	17073.06
611.584	17157.03
611.78	17064.87
611.976	17247.14
612.171	17337.25
612.367	17109.93
612.562	17300.39
612.758	16866.22
612.953	16788.39
613.149	17138.6
613.344	16763.82
613.539	17138.6
613.735	16774.06
613.93	16950.18
614.126	16741.29
614.321	16923.56
614.517	16675.76
614.712	16518.06
614.907	16389.04
615.103	16737.2
615.298	16550.83
615.493	16616.37
615.688	16438.19
615.884	16712.62
616.079	16460.72
616.274	16473.01
616.47	16440.24
616.665	16419.76
616.86	16204.72
617.055	16409.52
617.25	16403.38
617.445	16264.11
617.641	15971.25
617.836	15850.42
618.031	15877.05
618.226	15942.58
618.421	15788.99
618.616	15944.63
618.811	15635.39
619.006	15793.08
619.201	15498.17
619.396	15698.88
619.591	15223.75
619.786	15578.04
619.981	15184.83
620.176	15365.06
620.371	15152.07
620.566	15295.43
620.761	15283.14
620.956	15352.77
621.151	14828.49
621.346	15365.06
621.541	14795.72
621.735	14826.44
621.93	14713.8
622.125	14582.73
622.32	14738.38
622.515	14547.92
622.709	14420.94
622.904	14435.28
623.099	14382.03
623.294	14500.81
623.488	14197.71
623.683	14281.68
623.878	13972.44
624.072	14037.97
624.267	13988.82
624.462	13859.8
624.656	13632.47
624.851	13675.48
625.046	13689.82
625.24	13661.15
625.435	13378.53
625.629	13396.96
625.824	13255.65
626.018	13343.71
626.213	13001.7
626.407	12930.02
626.602	12934.12
626.796	13044.71
626.991	13048.8
627.185	12917.73
627.38	12839.91
627.574	12835.81
627.768	12522.48
627.963	12461.04
628.157	12448.75
628.352	12534.76
628.546	12202.99
628.74	12395.5
628.935	12053.49
629.129	12375.02
629.323	11807.73
629.517	11885.56
629.712	11996.15
629.906	11994.1
630.1	11727.86
630.294	11850.74
630.489	11803.64
630.683	11799.54
630.877	11543.55
631.071	11320.32
631.265	11664.38
631.459	11195.39
631.653	11396.09
631.848	11092.99
632.042	11113.47
632.236	11160.58
632.43	11154.43
632.624	11119.62
632.818	10806.28
633.012	10810.37
633.206	10757.13
633.4	10871.81
633.594	10724.36
633.788	10720.26
633.982	10736.65
634.176	10916.87
634.369	10572.81
634.563	10687.5
634.757	10351.63
634.951	10028.05
635.145	10621.96
635.339	10417.16
635.533	10150.93
635.726	10265.61
635.92	9944.08
636.114	10003.47
636.308	9929.75
636.501	9933.84
636.695	9837.59
636.889	9743.38
637.083	9800.73
637.276	9536.54
637.47	9706.52
637.664	9681.94
637.857	9653.27
638.051	9708.57
638.244	9462.81
638.438	9376.8
638.632	9266.21
638.825	9309.21
639.019	9294.88
639.212	9163.81
639.406	9180.19
639.599	9100.32
639.793	9153.57
639.986	8940.58
640.18	9131.04
640.373	8897.57
640.567	8778.79
640.76	8668.2
640.954	8717.35
641.147	8711.21
641.34	8807.46
641.534	8668.2
641.727	8625.19
641.92	8457.26
642.114	8330.28
642.307	8477.74
642.5	8432.68
642.694	8102.96
642.887	8389.67
643.08	8520.74
643.273	8170.54
643.467	8141.87
643.66	8131.63
643.853	7998.51
644.046	8217.65
644.239	8035.38
644.432	8195.12
644.626	7883.83
644.819	7779.38
645.012	7672.89
645.205	7789.62
645.398	7693.37
645.591	7529.53
645.784	7595.06
645.977	7615.54
646.17	7566.39
646.363	7431.23
646.556	7488.57
646.749	7500.86
646.942	7455.8
647.135	7416.89
647.328	7359.55
647.521	7355.45
647.714	7183.42
647.907	7226.43
648.099	7164.99
648.292	6986.82
648.485	7205.95
648.678	6986.82
648.871	7025.73
649.064	6992.96
649.256	6863.94
649.449	6954.05
649.642	6874.18
649.835	6714.44
650.027	6730.82
650.22	6790.21
650.413	6749.25
650.605	6741.06
650.798	6542.41
650.991	6519.88
651.183	6569.03
651.376	6435.91
651.568	6394.95
651.761	6356.04
651.954	6341.71
652.146	6310.99
652.339	6288.46
652.531	6339.66
652.724	6233.16
652.916	6026.32
653.109	6229.07
653.301	6339.66
653.494	6173.77
653.686	6083.66
653.879	6104.14
654.071	6124.62
654.263	5985.36
654.456	5977.17
654.648	5993.55
654.84	5782.61
655.033	5846.1
655.225	5725.27
655.417	5772.37
655.61	5694.55
655.802	5727.32
655.994	5649.49
656.186	5672.02
656.379	5600.34
656.571	5649.49
656.763	5686.36
656.955	5649.49
657.148	5454.94
657.34	5526.61
657.532	5383.26
657.724	5473.37
657.916	5526.61
658.108	5481.56
658.3	5434.46
658.492	5434.46
658.684	5340.25
658.876	5379.16
659.068	5209.18
659.26	5227.61
659.452	5088.35
659.644	5229.66
659.836	5004.38
660.028	5076.06
660.22	5088.35
660.412	5151.84
660.604	4994.14
660.796	5051.49
660.988	4969.57
661.18	4967.52
661.372	4973.66
661.563	4920.42
661.755	4818.02
661.947	4826.21
662.139	4828.26
662.331	4820.07
662.522	4721.76
662.714	4547.69
662.906	4781.15
663.097	4691.04
663.289	4654.18
663.481	4531.3
663.673	4635.75
663.864	4510.82
664.056	4478.05
664.247	4412.52
664.439	4461.67
664.631	4392.04
664.822	4422.76
665.014	4402.28
665.205	4568.16
665.397	4453.48
665.588	4435.05
665.78	4275.31
665.971	4297.83
666.163	4480.1
666.354	4256.87
666.546	4199.53
666.737	4226.15
666.929	4121.71
667.12	4162.67
667.311	4150.38
667.503	4146.28
667.694	4265.07
667.885	4117.61
668.077	4025.45
668.268	3988.59
668.459	4027.5
668.651	3929.2
668.842	4033.65
669.033	3849.33
669.224	3941.49
669.416	3945.58
669.607	3931.25
669.798	3837.04
669.989	3923.05
670.18	3871.86
670.371	3587.19
670.563	3798.13
670.754	3859.57
670.945	3728.5
671.136	3800.18
671.327	3779.7
671.518	3708.02
671.709	3814.51
671.9	3843.18
672.091	3712.11
672.282	3527.8
672.473	3609.72
672.664	3607.67
672.855	3617.91
673.046	3615.86
673.237	3759.22
673.428	3523.7
673.619	3525.75
673.809	3474.55
674	3505.27
674.191	3628.15
674.382	3576.95
674.573	3540.08
674.764	3396.73
674.954	3441.78
675.145	3406.97
675.336	3400.82
675.527	3251.32
675.717	3402.87
675.908	3343.48
676.099	3390.58
676.289	3374.2
676.48	3304.57
676.671	3290.23
676.861	3306.62
677.052	3265.66
677.243	3316.86
677.433	3361.91
677.624	3261.56
677.814	3296.38
678.005	3327.1
678.195	3146.87
678.386	3132.54
678.576	3284.09
678.767	3249.27
678.957	3267.7
679.148	3263.61
679.338	3275.9
679.529	3032.19
679.719	3054.72
679.909	3224.7
680.1	3085.44
680.29	3310.71
680.481	3200.12
680.671	3249.27
680.861	3069.05
681.052	3177.59
681.242	2976.89
681.432	3110.01
681.622	3054.72
681.813	3026.04
682.003	3003.52
682.193	3064.96
682.383	3118.2
682.573	3028.09
682.764	2987.13
682.954	2978.94
683.144	2978.94
683.334	2989.18
683.524	2882.69
683.714	2976.89
683.904	2929.79
684.094	2985.09
684.284	2868.35
684.474	2976.89
684.664	3021.95
684.854	3028.09
685.044	2817.15
685.234	2829.44
685.424	2843.78
685.614	2882.69
685.804	2720.9
685.994	2872.45
686.184	2878.59
686.374	2843.78
686.564	2845.82
686.753	2880.64
686.943	2813.06
687.133	2815.1
687.323	2753.66
687.513	2720.9
687.702	2776.19
687.892	2626.69
688.082	2700.42
688.272	2733.18
688.461	2702.47
688.651	2702.47
688.841	2675.84
689.03	2663.55
689.22	2628.74
689.41	2643.07
689.599	2602.11
689.789	2626.69
689.979	2671.75
690.168	2628.74
690.358	2643.07
690.547	2651.27
690.737	2593.92
690.926	2561.16
691.116	2487.43
691.305	2618.5
691.495	2505.86
691.684	2512
691.874	2509.96
692.063	2534.53
692.252	2512
692.442	2520.2
692.631	2536.58
692.82	2577.54
693.01	2438.28
693.199	2397.32
693.388	2292.87
693.578	2448.52
693.767	2374.79
693.956	2385.03
694.146	2512
694.335	2460.81
694.524	2358.41
694.713	2393.22
694.902	2282.63
695.092	2471.04
695.281	2446.47
695.47	2401.41
695.659	2403.46
695.848	2385.03
696.037	2368.65
696.226	2311.3
696.415	2311.3
696.604	2446.47
696.793	2432.13
696.982	2303.11
697.171	2401.41
697.36	2360.45
697.549	2307.21
697.738	2339.97
697.927	2372.74
698.116	2323.59
698.305	2382.98
698.494	2342.02
698.683	2274.44
698.872	2374.79
699.061	2294.92
699.25	2428.04
699.438	2333.83
699.627	2307.21
699.816	2323.59
700.005	2237.58
700.193	2301.06
700.382	2323.59
700.571	2223.24
700.76	2282.63
700.948	2364.55
701.137	2389.13
701.326	2348.17
701.514	2241.67
701.703	2290.82
701.892	2237.58
702.08	2432.13
702.269	2194.57
702.457	2176.14
702.646	2272.39
702.834	2245.77
703.023	2202.76
703.212	2258.06
703.4	2301.06
703.589	2331.78
703.777	2272.39
703.965	2253.96
704.154	2325.64
704.342	2184.33
704.531	2221.19
704.719	2227.34
704.907	2337.93
705.096	2233.48
705.284	2196.62
705.472	2239.62
705.661	2253.96
705.849	2143.37
706.037	2217.1
706.226	2282.63
706.414	2219.14
706.602	2163.85
706.79	2131.08
706.979	2221.19
707.167	2124.94
707.355	2131.08
707.543	2200.71
707.731	2202.76
707.919	2258.06
708.107	2274.44
708.296	2251.91
708.484	2249.86
708.672	2161.8
708.86	2233.48
709.048	2311.3
709.236	2327.69
709.424	2174.09
709.612	2167.95
709.8	2272.39
709.988	2249.86
710.176	2307.21
710.364	2110.6
710.551	2167.95
710.739	2241.67
710.927	2112.65
711.115	2202.76
711.303	2225.29
711.491	2192.52
711.679	2122.89
711.866	2118.79
712.054	2225.29
712.242	2114.7
712.43	2184.33
712.617	2202.76
712.805	2122.89
712.993	2094.22
713.181	2061.45
713.368	2262.15
713.556	2329.74
713.744	2020.49
713.931	2235.53
714.119	2016.4
714.306	2200.71
714.494	2073.74
714.682	2124.94
714.869	2163.85
715.057	2135.18
715.244	2057.36
715.432	2227.34
715.619	2208.9
715.807	2167.95
715.994	2081.93
716.182	2110.6
716.369	2163.85
716.556	2169.99
716.744	2028.68
716.931	2102.41
717.119	2159.75
717.306	2169.99
717.493	2118.79
717.681	2108.55
717.868	2192.52
718.055	2094.22
718.242	1954.96
718.43	2213
718.617	2151.56
718.804	2010.25
718.991	2151.56
719.179	2131.08
719.366	2012.3
719.553	2094.22
719.74	2053.26
719.927	2063.5
720.114	2090.12
720.301	1997.96
720.488	2010.25
720.676	2028.68
720.863	2118.79
721.05	2038.92
721.237	2092.17
721.424	2131.08
721.611	2153.61
721.798	2012.3
721.985	2028.68
722.172	2022.54
722.358	2102.41
722.545	2061.45
722.732	1909.9
722.919	2004.11
723.106	2073.74
723.293	2059.4
723.48	2071.69
723.667	1987.72
723.853	2086.03
724.04	2073.74
724.227	2032.78
724.414	2073.74
724.6	2032.78
724.787	2124.94
724.974	2053.26
725.161	2055.31
725.347	1926.29
725.534	1975.44
725.72	1967.24
725.907	2110.6
726.094	1995.92
726.28	1938.57
726.467	1901.71
726.653	2002.06
726.84	2000.01
727.027	2028.68
727.213	1942.67
727.4	2004.11
727.586	2051.21
727.773	1979.53
727.959	2006.16
728.145	1971.34
728.332	2100.36
728.518	1997.96
728.705	2008.2
728.891	1987.72
729.077	2014.35
729.264	1868.94
729.45	2028.68
729.636	1973.39
729.823	1961.1
730.009	1868.94
730.195	1954.96
730.382	1997.96
730.568	2016.4
730.754	1942.67
730.94	1967.24
731.126	2098.31
731.313	1924.24
731.499	1979.53
731.685	2069.64
731.871	1981.58
732.057	1967.24
732.243	1914
732.429	1897.61
732.615	1963.15
732.801	1946.76
732.987	1889.42
733.173	1858.7
733.359	1877.13
733.545	1995.92
733.731	1918.09
733.917	1868.94
734.103	1959.05
734.289	1928.33
734.475	1799.31
734.661	1983.63
734.847	1946.76
735.033	1922.19
735.219	1885.33
735.404	1858.7
735.59	1766.54
735.776	1825.93
735.962	1914
736.148	1914
736.333	1938.57
736.519	1868.94
736.705	1868.94
736.89	1815.69
737.076	1768.59
737.262	1762.45
737.447	1844.37
737.633	1807.5
737.819	1971.34
738.004	1864.85
738.19	1803.41
738.375	1776.78
738.561	1883.28
738.747	1809.55
738.932	1776.78
739.118	1873.04
739.303	1852.56
739.489	1889.42
739.674	1694.86
739.859	1746.06
740.045	1793.17
740.23	1719.44
740.416	1703.06
740.601	1832.08
740.786	1832.08
740.972	1703.06
741.157	1725.58
741.342	1758.35
741.528	1709.2
741.713	1799.31
741.898	1821.84
742.084	1698.96
742.269	1717.39
742.454	1799.31
742.639	1678.48
742.824	1713.3
743.01	1676.43
743.195	1684.62
743.38	1684.62
743.565	1621.14
743.75	1692.82
743.935	1619.09
744.12	1791.12
744.305	1574.03
744.49	1600.66
744.675	1606.8
744.86	1643.67
745.045	1709.2
745.23	1705.1
745.415	1528.98
745.6	1602.71
745.785	1563.79
745.97	1547.41
746.155	1614.99
746.34	1676.43
746.525	1541.27
746.71	1610.9
746.895	1422.48
747.079	1500.31
747.264	1504.4
747.449	1479.83
747.634	1467.54
747.819	1520.79
748.003	1375.38
748.188	1496.21
748.373	1348.76
748.557	1399.96
748.742	1463.44
748.927	1381.53
749.111	1350.81
749.296	1356.95
749.481	1424.53
749.665	1332.37
749.85	1451.16
750.034	1432.72
750.219	1344.66
750.404	1397.91
750.588	1445.01
750.773	1352.85
750.957	1283.22
751.141	1320.09
751.326	1283.22
751.51	1297.56
751.695	1375.38
751.879	1332.37
752.064	1344.66
752.248	1260.7
752.432	1295.51
752.617	1238.17
752.801	1246.36
752.985	1238.17
753.17	1193.11
753.354	1221.78
753.538	1219.74
753.722	1180.82
753.907	1143.96
754.091	1176.73
754.275	1234.07
754.459	971.93
754.643	1107.1
754.828	1193.11
755.012	1197.21
755.196	1135.77
755.38	1141.91
755.564	1117.34
755.748	1141.91
755.932	1041.56
756.116	1074.33
756.3	1047.71
756.484	1107.1
756.668	1139.87
756.852	1064.09
757.036	1086.62
757.22	1086.62
757.404	967.84
757.588	1121.43
757.772	1086.62
757.956	1059.99
758.14	1086.62
758.323	998.56
758.507	1059.99
758.691	1014.94
758.875	1029.27
759.059	1000.6
759.242	971.93
759.426	1021.08
759.61	1055.9
759.794	1004.7
759.977	1029.27
760.161	1105.05
760.345	1078.43
760.528	955.55
760.712	1010.84
760.895	922.78
761.079	873.63
761.263	898.2
761.446	861.34
761.63	853.15
761.813	873.63
761.997	902.3
762.18	920.73
762.364	965.79
762.547	890.01
762.731	916.64
762.914	916.64
763.098	973.98
763.281	861.34
763.464	892.06
763.648	879.77
763.831	851.1
764.015	869.53
764.198	849.05
764.381	799.9
764.564	816.29
764.748	826.53
764.931	787.61
765.114	847.01
765.297	804
765.481	892.06
765.664	873.63
765.847	787.61
766.03	808.09
766.213	865.44
766.397	795.81
766.58	791.71
766.763	826.53
766.946	801.95
767.129	775.33
767.312	724.13
767.495	793.76
767.678	810.14
767.861	799.9
768.044	771.23
768.227	769.18
768.41	742.56
768.593	812.19
768.776	728.22
768.959	738.46
769.142	785.57
769.324	832.67
769.507	681.12
769.69	840.86
769.873	767.13
770.056	834.72
770.239	750.75
770.421	701.6
770.604	795.81
770.787	672.93
770.97	658.59
771.152	746.66
771.335	789.66
771.518	679.07
771.7	861.34
771.883	863.39
772.066	681.12
772.248	730.27
772.431	752.8
772.613	779.42
772.796	693.41
772.978	711.84
773.161	726.18
773.343	629.92
773.526	599.2
773.708	709.79
773.891	588.96
774.073	644.26
774.256	670.88
774.438	758.94
774.621	685.22
774.803	634.02
774.985	660.64
775.168	629.92
775.35	652.45
775.532	689.31
775.715	697.5
775.897	629.92
776.079	636.06
776.261	652.45
776.444	556.19
776.626	601.25
776.808	627.87
776.99	545.95
777.173	574.63
777.355	640.16
777.537	627.87
777.719	568.48
777.901	560.29
778.083	603.3
778.265	537.76
778.447	502.95
778.629	468.13
778.811	488.61
778.993	574.63
779.175	566.43
779.357	513.19
779.539	582.82
779.721	533.67
779.903	523.43
780.085	488.61
780.267	500.9
780.449	525.47
780.631	619.68
780.812	525.47
780.994	494.76
781.176	558.24
781.358	470.18
781.54	459.94
781.721	504.99
781.903	476.32
782.085	433.32
782.267	488.61
782.448	468.13
782.63	357.54
782.812	455.84
782.993	504.99
783.175	498.85
783.357	447.65
783.538	443.56
783.72	455.84
783.901	470.18
784.083	457.89
784.264	437.41
784.446	343.21
784.627	408.74
784.809	488.61
784.99	451.75
785.172	423.08
785.353	474.28
785.535	382.12
785.716	345.25
785.897	390.31
786.079	447.65
786.26	394.4
786.441	373.92
786.623	332.97
786.804	361.64
786.985	345.25
787.167	431.27
787.348	384.16
787.529	349.35
787.71	357.54
787.891	398.5
788.073	324.77
788.254	314.53
788.435	369.83
788.616	335.01
788.797	316.58
788.978	318.63
789.159	335.01
789.34	349.35
789.522	355.49
789.703	337.06
789.884	251.05
790.065	298.15
790.246	371.88
790.427	359.59
790.607	400.55
790.788	361.64
790.969	292.01
791.15	410.79
791.331	294.05
791.512	283.81
791.693	292.01
791.874	324.77
792.054	361.64
792.235	279.72
792.416	322.73
792.597	332.97
792.778	271.53
792.958	347.3
793.139	279.72
793.32	292.01
793.5	228.52
793.681	335.01
793.862	253.09
794.042	214.18
794.223	208.04
794.404	255.14
794.584	234.66
794.765	277.67
794.945	259.24
795.126	232.62
795.306	189.61
795.487	253.09
795.667	316.58
795.848	197.8
796.028	224.42
796.209	316.58
796.389	230.57
796.57	236.71
796.75	212.14
796.93	263.33
797.111	275.62
797.291	324.77
797.471	267.43
797.652	218.28
797.832	232.62
798.012	300.2
798.192	146.6
798.373	175.27
798.553	259.24
798.733	179.37
798.913	214.18
799.093	259.24
799.274	294.05
799.454	226.47
799.634	169.13
799.814	236.71
799.994	300.2
800.174	312.49
800.354	246.95
800.534	167.08
800.714	173.22
800.894	119.98
801.074	134.31
801.254	203.94
801.434	332.97
801.614	89.26
801.794	210.09
801.974	814.24
802.154	111.78
802.334	230.57
802.514	152.74
802.693	220.33
802.873	218.28
803.053	152.74
803.233	205.99
803.413	271.53
803.592	173.22
803.772	234.66
803.952	222.38
804.131	160.94
804.311	187.56
804.491	201.9
804.67	203.94
804.85	183.46
805.03	185.51
805.209	197.8
805.389	185.51
805.568	183.46
805.748	214.18
805.928	144.55
806.107	107.69
806.287	83.11
806.466	212.14
806.646	124.07
806.825	173.22
807.004	187.56
807.184	208.04
807.363	242.85
807.543	173.22
807.722	150.7
807.901	205.99
808.081	238.76
808.26	134.31
808.439	146.6
808.619	167.08
808.798	189.61
808.977	148.65
809.156	148.65
809.336	97.45
809.515	177.32
809.694	130.22
809.873	109.74
810.052	165.03
810.231	95.4
810.411	74.92
810.59	173.22
810.769	21.67
810.948	214.18
811.127	66.73
811.306	154.79
811.485	136.36
811.664	210.09
811.843	128.17
812.022	185.51
812.201	203.94
812.38	140.46
812.559	79.02
812.737	154.79
812.916	48.3
813.095	113.83
813.274	70.83
813.453	165.03
813.632	109.74
813.811	169.13
813.989	99.5
814.168	154.79
814.347	158.89
814.526	103.59
814.704	152.74
814.883	160.94
815.062	89.26
815.24	146.6
815.419	142.5
815.598	218.28
815.776	87.21
815.955	107.69
816.133	165.03
816.312	124.07
816.49	25.77
816.669	210.09
816.847	48.3
817.026	132.26
817.204	113.83
817.383	105.64
817.561	44.2
817.74	193.7
817.918	119.98
818.097	132.26
818.275	70.83
818.453	70.83
818.632	105.64
818.81	136.36
818.988	62.63
819.167	52.39
819.345	66.73
819.523	138.41
819.701	87.21
819.879	177.32
820.058	99.5
820.236	138.41
820.414	138.41
820.592	70.83
820.77	48.3
820.948	42.15
821.127	113.83
821.305	144.55
821.483	124.07
821.661	72.87
821.839	101.55
822.017	70.83
822.195	95.4
822.373	165.03
822.551	103.59
822.729	97.45
822.907	56.49
823.085	154.79
823.262	130.22
823.44	93.35
823.618	54.44
823.796	138.41
823.974	91.31
824.152	107.69
824.329	-4.95
824.507	119.98
824.685	111.78
824.863	13.48
825.04	17.58
825.218	126.12
825.396	62.63
825.574	31.91
825.751	97.45
825.929	126.12
826.107	33.96
826.284	154.79
826.462	64.68
826.639	46.25
826.817	56.49
826.994	101.55
827.172	79.02
827.349	79.02
827.527	87.21
827.704	152.74
827.882	62.63
828.059	85.16
828.237	3.24
828.414	31.91
828.591	66.73
828.769	103.59
828.946	66.73
829.124	79.02
829.301	103.59
829.478	66.73
829.655	122.02
829.833	124.07
830.01	87.21
830.187	87.21
830.364	201.9
830.542	101.55
830.719	95.4
830.896	54.44
831.073	5.29
831.25	29.87
831.427	40.11
831.604	130.22
831.782	81.07
831.959	85.16
832.136	-4.95
832.313	56.49
832.49	38.06
832.667	64.68
832.844	-23.38
833.021	144.55
833.198	87.21
833.374	87.21
833.551	46.25
833.728	70.83
833.905	107.69
834.082	46.25
834.259	58.54
834.436	64.68
834.612	-29.52
834.789	85.16
834.966	101.55
835.143	5.29
835.319	91.31
835.496	97.45
835.673	46.25
835.85	70.83
836.026	29.87
836.203	93.35
836.38	66.73
836.556	-19.29
836.733	70.83
836.909	111.78
837.086	87.21
837.262	54.44
837.439	25.77
837.616	54.44
837.792	87.21
837.968	64.68
838.145	66.73
838.321	50.35
838.498	70.83
838.674	70.83
838.851	21.67
839.027	95.4
839.203	25.77
839.38	40.11
839.556	50.35
839.732	58.54
839.909	58.54
840.085	56.49
840.261	74.92
840.437	56.49
840.614	46.25
840.79	52.39
840.966	44.2
841.142	54.44
841.318	19.63
841.494	7.34
841.671	105.64
841.847	13.48
842.023	38.06
842.199	111.78
842.375	103.59
842.551	-39.76
842.727	46.25
842.903	105.64
843.079	83.11
843.255	70.83
843.431	31.91
843.607	38.06
843.783	27.82
843.959	33.96
844.134	38.06
844.31	62.63
844.486	74.92
844.662	21.67
844.838	50.35
845.013	29.87
845.189	31.91
845.365	62.63
845.541	-25.43
845.716	95.4
845.892	-11.09
846.068	48.3
846.244	33.96
846.419	70.83
846.595	126.12
846.77	40.11
846.946	79.02
847.122	38.06
847.297	79.02
847.473	68.78
847.648	-58.2
847.824	21.67
847.999	68.78
848.175	-15.19
848.35	54.44
848.526	66.73
848.701	126.12
848.876	66.73
849.052	13.48
849.227	-2.9
849.403	21.67
849.578	87.21
849.753	-7
849.929	23.72
850.104	-23.38
850.279	21.67
850.454	-11.09
850.63	72.87
850.805	-27.48
850.98	29.87
851.155	79.02
851.33	21.67
851.505	23.72
851.681	173.22
851.856	15.53
852.031	54.44
852.206	46.25
852.381	-15.19
852.556	15.53
852.731	70.83
852.906	29.87
853.081	21.67
853.256	54.44
853.431	48.3
853.606	1.19
853.781	1.19
853.956	17.58
854.131	95.4
854.305	21.67
854.48	40.11
854.655	21.67
854.83	-52.05
855.005	-27.48
855.18	62.63
855.354	62.63
855.529	81.07
855.704	29.87
855.879	13.48
856.053	-84.82
856.228	64.68
856.403	19.63
856.577	11.43
856.752	-17.24
856.926	31.91
857.101	62.63
857.276	33.96
857.45	15.53
857.625	40.11
857.799	29.87
857.974	99.5
858.148	1.19
858.323	38.06
858.497	7.34
858.672	-2.9
858.846	23.72
859.02	25.77
859.195	19.63
859.369	46.25
859.543	-11.09
859.718	19.63
859.892	-19.29
860.066	52.39
860.241	93.35
860.415	29.87
860.589	9.39
860.763	23.72
860.938	40.11
861.112	42.15
861.286	7.34
861.46	62.63
861.634	21.67
861.808	44.2
861.982	87.21
862.157	31.91
862.331	48.3
862.505	68.78
862.679	-37.72
862.853	3.24
863.027	93.35
863.201	5.29
863.375	13.48
863.549	-19.29
863.722	33.96
863.896	29.87
864.07	-23.38
864.244	38.06
864.418	48.3
864.592	-35.67
864.766	13.48
864.939	-7
865.113	-11.09
865.287	21.67
865.461	-43.86
865.634	-4.95
865.808	11.43
865.982	70.83
866.156	25.77
866.329	13.48
866.503	-35.67
866.676	72.87
866.85	21.67
867.024	-15.19
867.197	33.96
867.371	1.19
867.544	15.53
867.718	48.3
867.891	103.59
868.065	-23.38
868.238	15.53
868.412	33.96
868.585	-9.05
868.759	54.44
868.932	21.67
869.105	-19.29
869.279	62.63
869.452	-7
869.625	21.67
869.799	23.72
869.972	1.19
870.145	27.82
870.319	-27.48
870.492	29.87
870.665	-31.57
870.838	-23.38
871.011	-107.35
871.185	-56.15
871.358	11.43
871.531	99.5
871.704	62.63
871.877	83.11
872.05	-35.67
872.223	7.34
872.396	48.3
872.569	-2.9
872.742	31.91
872.915	56.49
873.088	-11.09
873.261	17.58
873.434	99.5
873.607	50.35
873.78	-52.05
873.953	-33.62
874.126	21.67
874.299	-19.29
874.471	-17.24
874.644	-66.39
874.817	81.07
874.99	54.44
875.163	-19.29
875.335	-4.95
875.508	5.29
875.681	38.06
875.853	9.39
876.026	38.06
876.199	-15.19
876.371	38.06
876.544	-11.09
876.717	21.67
876.889	-17.24
877.062	-2.9
877.234	-15.19
877.407	-4.95
877.579	-2.9
877.752	-11.09
877.924	33.96
878.097	81.07
878.269	-37.72
878.442	66.73
878.614	62.63
878.786	56.49
878.959	46.25
879.131	29.87
879.303	-35.67
879.476	-15.19
879.648	15.53
879.82	70.83
879.993	-50
880.165	-11.09
880.337	-74.58
880.509	81.07
880.681	-158.55
880.854	-9.05
881.026	132.26
881.198	74.92
881.37	79.02
881.542	-47.96
881.714	-29.52
881.886	29.87
882.058	56.49
882.23	-47.96
882.402	25.77
882.574	-37.72
882.746	23.72
882.918	15.53
883.09	48.3
883.262	-64.34
883.434	40.11
883.606	-88.92
883.778	-78.68
883.95	46.25
884.122	36.01
884.293	7.34
884.465	-25.43
884.637	31.91
884.809	-0.85
884.98	58.54
885.152	21.67
885.324	81.07
885.496	-76.63
885.667	13.48
885.839	46.25
886.011	7.34
886.182	36.01
886.354	-7
886.525	-2.9
886.697	38.06
886.869	7.34
887.04	-25.43
887.212	27.82
887.383	58.54
887.555	50.35
887.726	9.39
887.897	9.39
888.069	7.34
888.24	46.25
888.412	40.11
888.583	13.48
888.754	-50
888.926	33.96
889.097	-15.19
889.268	31.91
889.44	11.43
889.611	-11.09
889.782	-15.19
889.953	33.96
890.125	15.53
890.296	-39.76
890.467	-23.38
890.638	-2.9
890.809	-2.9
890.98	-60.24
891.151	9.39
891.323	11.43
891.494	-11.09
891.665	9.39
891.836	-52.05
892.007	21.67
892.178	-2.9
892.349	17.58
892.52	70.83
892.691	-47.96
892.862	-7
893.032	9.39
893.203	27.82
893.374	-2.9
893.545	13.48
893.716	-50
893.887	-7
894.057	9.39
894.228	83.11
894.399	-88.92
894.57	31.91
894.74	-31.57
894.911	54.44
895.082	17.58
895.253	-17.24
895.423	15.53
895.594	17.58
895.764	-2.9
895.935	17.58
896.106	-21.33
896.276	-25.43
896.447	15.53
896.617	-41.81
896.788	-33.62
896.958	7.34
897.129	-76.63
897.299	9.39
897.47	54.44
897.64	38.06
897.81	-7
897.981	1.19
898.151	23.72
898.322	54.44
898.492	-39.76
898.662	-23.38
898.832	46.25
899.003	-66.39
899.173	-2.9
899.343	54.44
899.513	-2.9
