Data from USB4F104151__52__14-43-06-721.txt Node

Date: Thu Mar 13 14:43:06 EDT 2025
User: louis
Spectrometer: USB4F10415
Trigger mode: 4
Integration Time (sec): 2.000000E-2
Scans to average: 1
Electric dark correction enabled: true
Nonlinearity correction enabled: false
Boxcar width: 0
XAxis mode: Wavelengths
Number of Pixels in Spectrum: 3648
>>>>>Begin Spectral Data<<<<<
178.204	-120.49
178.424	-120.49
178.644	-120.49
178.864	-169.64
179.084	-128.68
179.304	-102.06
179.524	-13.99
179.744	47.44
179.964	16.73
180.184	39.25
180.404	-3.75
180.624	51.54
180.844	45.4
181.064	-71.34
181.283	2.39
181.503	-32.43
181.723	20.82
181.943	-104.11
182.163	88.4
182.383	26.96
182.602	61.78
182.822	84.31
183.042	10.58
183.262	-18.09
183.482	29.01
183.701	41.3
183.921	-13.99
184.141	-26.28
184.361	74.07
184.58	-42.67
184.8	59.73
185.02	-34.47
185.239	39.25
185.459	16.73
185.679	43.35
185.898	-79.53
186.118	18.77
186.338	-26.28
186.557	90.45
186.777	2.39
186.997	-5.8
187.216	-28.33
187.436	78.16
187.655	12.63
187.875	20.82
188.095	6.49
188.314	84.31
188.534	108.88
188.753	53.59
188.973	-13.99
189.192	94.55
189.412	0.34
189.631	-3.75
189.851	-28.33
190.07	78.16
190.29	-13.99
190.509	18.77
190.729	10.58
190.948	-7.85
191.168	180.56
191.387	61.78
191.607	-9.9
191.826	59.73
192.045	63.83
192.265	18.77
192.484	35.16
192.704	43.35
192.923	-13.99
193.142	86.36
193.362	76.12
193.581	41.3
193.8	39.25
194.02	35.16
194.239	-9.9
194.458	33.11
194.678	12.63
194.897	20.82
195.116	-1.71
195.335	63.83
195.555	35.16
195.774	104.79
195.993	-7.85
196.212	-22.19
196.432	-22.19
196.651	26.96
196.87	-16.04
197.089	65.88
197.308	10.58
197.528	-3.75
197.747	26.96
197.966	10.58
198.185	76.12
198.404	-22.19
198.623	174.42
198.842	18.77
199.062	20.82
199.281	-52.91
199.5	45.4
199.719	-26.28
199.938	-3.75
200.157	88.4
200.376	69.97
200.595	80.21
200.814	63.83
201.033	-36.52
201.252	-7.85
201.471	2.39
201.69	61.78
201.909	-18.09
202.128	57.68
202.347	80.21
202.566	125.27
202.785	4.44
203.004	-65.19
203.223	102.74
203.442	37.2
203.661	2.39
203.879	-28.33
204.098	39.25
204.317	-18.09
204.536	94.55
204.755	-22.19
204.974	-36.52
205.193	-7.85
205.411	110.93
205.63	76.12
205.849	26.96
206.068	33.11
206.287	-46.76
206.505	82.26
206.724	26.96
206.943	72.02
207.162	-3.75
207.381	-42.67
207.599	-52.91
207.818	110.93
208.037	20.82
208.255	4.44
208.474	67.92
208.693	-22.19
208.911	35.16
209.13	-67.24
209.349	14.68
209.567	63.83
209.786	22.87
210.005	-34.47
210.223	22.87
210.442	-9.9
210.661	29.01
210.879	61.78
211.098	26.96
211.316	61.78
211.535	78.16
211.753	-5.8
211.972	-36.52
212.191	4.44
212.409	2.39
212.628	24.92
212.846	20.82
213.065	35.16
213.283	-5.8
213.502	4.44
213.72	-18.09
213.938	18.77
214.157	-13.99
214.375	39.25
214.594	31.06
214.812	-5.8
215.031	26.96
215.249	-44.71
215.467	-22.19
215.686	35.16
215.904	45.4
216.122	18.77
216.341	78.16
216.559	76.12
216.778	67.92
216.996	117.08
217.214	-1.71
217.432	10.58
217.651	12.63
217.869	-1.71
218.087	26.96
218.306	14.68
218.524	106.84
218.742	72.02
218.96	41.3
219.179	76.12
219.397	-20.14
219.615	92.5
219.833	127.32
220.051	-52.91
220.27	94.55
220.488	26.96
220.706	-13.99
220.924	22.87
221.142	45.4
221.36	18.77
221.578	65.88
221.796	108.88
222.015	-18.09
222.233	8.53
222.451	84.31
222.669	-5.8
222.887	39.25
223.105	-5.8
223.323	-13.99
223.541	26.96
223.759	76.12
223.977	-54.95
224.195	20.82
224.413	57.68
224.631	35.16
224.849	43.35
225.067	-38.57
225.285	-26.28
225.503	51.54
225.721	-61.1
225.939	37.2
226.157	37.2
226.375	119.12
226.592	31.06
226.81	67.92
227.028	78.16
227.246	24.92
227.464	51.54
227.682	47.44
227.9	26.96
228.117	6.49
228.335	10.58
228.553	20.82
228.771	-5.8
228.989	63.83
229.206	-38.57
229.424	-36.52
229.642	0.34
229.86	-38.57
230.077	117.08
230.295	-3.75
230.513	43.35
230.731	53.59
230.948	16.73
231.166	20.82
231.384	14.68
231.601	31.06
231.819	26.96
232.037	31.06
232.254	49.49
232.472	18.77
232.689	20.82
232.907	96.6
233.125	88.4
233.342	61.78
233.56	-11.95
233.777	-13.99
233.995	-26.28
234.213	67.92
234.43	-5.8
234.648	10.58
234.865	18.77
235.083	6.49
235.3	-30.38
235.518	2.39
235.735	10.58
235.953	-13.99
236.17	-13.99
236.388	-5.8
236.605	29.01
236.822	35.16
237.04	80.21
237.257	-48.81
237.475	-42.67
237.692	29.01
237.909	43.35
238.127	-30.38
238.344	94.55
238.562	-3.75
238.779	14.68
238.996	-30.38
239.214	2.39
239.431	137.56
239.648	-22.19
239.865	20.82
240.083	51.54
240.3	55.64
240.517	-69.29
240.735	-36.52
240.952	4.44
241.169	100.69
241.386	-5.8
241.603	-13.99
241.821	-46.76
242.038	-36.52
242.255	12.63
242.472	51.54
242.689	12.63
242.907	84.31
243.124	-1.71
243.341	-5.8
243.558	35.16
243.775	10.58
243.992	51.54
244.209	35.16
244.426	96.6
244.643	65.88
244.86	10.58
245.078	51.54
245.295	20.82
245.512	47.44
245.729	-42.67
245.946	22.87
246.163	22.87
246.38	16.73
246.597	-20.14
246.814	125.27
247.031	0.34
247.248	59.73
247.464	6.49
247.681	59.73
247.898	26.96
248.115	72.02
248.332	10.58
248.549	14.68
248.766	59.73
248.983	65.88
249.2	4.44
249.417	-22.19
249.633	29.01
249.85	12.63
250.067	80.21
250.284	35.16
250.501	-13.99
250.717	57.68
250.934	8.53
251.151	-38.57
251.368	-22.19
251.585	100.69
251.801	8.53
252.018	20.82
252.235	45.4
252.451	67.92
252.668	31.06
252.885	51.54
253.102	37.2
253.318	47.44
253.535	18.77
253.752	-54.95
253.968	51.54
254.185	10.58
254.401	-36.52
254.618	-38.57
254.835	47.44
255.051	129.36
255.268	29.01
255.484	59.73
255.701	43.35
255.917	49.49
256.134	-3.75
256.351	12.63
256.567	10.58
256.784	20.82
257	-77.48
257.217	16.73
257.433	-3.75
257.65	104.79
257.866	18.77
258.082	80.21
258.299	-3.75
258.515	22.87
258.732	-32.43
258.948	67.92
259.165	55.64
259.381	10.58
259.597	-28.33
259.814	-52.91
260.03	-13.99
260.246	-3.75
260.463	18.77
260.679	-38.57
260.895	59.73
261.112	18.77
261.328	18.77
261.544	12.63
261.761	51.54
261.977	-18.09
262.193	10.58
262.409	12.63
262.626	-1.71
262.842	67.92
263.058	18.77
263.274	47.44
263.49	10.58
263.707	104.79
263.923	4.44
264.139	14.68
264.355	4.44
264.571	100.69
264.787	51.54
265.004	67.92
265.22	-44.71
265.436	37.2
265.652	-18.09
265.868	59.73
266.084	-20.14
266.3	4.44
266.516	2.39
266.732	12.63
266.948	26.96
267.164	26.96
267.38	78.16
267.596	92.5
267.812	69.97
268.028	35.16
268.244	53.59
268.46	45.4
268.676	22.87
268.892	37.2
269.108	-11.95
269.324	35.16
269.54	-44.71
269.756	37.2
269.972	-69.29
270.188	-28.33
270.403	-52.91
270.619	43.35
270.835	47.44
271.051	43.35
271.267	-50.86
271.483	41.3
271.698	26.96
271.914	35.16
272.13	-34.47
272.346	84.31
272.562	12.63
272.777	29.01
272.993	2.39
273.209	43.35
273.425	67.92
273.64	-36.52
273.856	51.54
274.072	-67.24
274.287	14.68
274.503	108.88
274.719	12.63
274.934	37.2
275.15	65.88
275.366	37.2
275.581	57.68
275.797	4.44
276.012	67.92
276.228	39.25
276.444	63.83
276.659	10.58
276.875	45.4
277.09	45.4
277.306	10.58
277.521	76.12
277.737	26.96
277.952	49.49
278.168	10.58
278.383	96.6
278.599	63.83
278.814	53.59
279.03	41.3
279.245	39.25
279.461	67.92
279.676	102.74
279.892	57.68
280.107	20.82
280.322	37.2
280.538	74.07
280.753	2.39
280.969	0.34
281.184	-22.19
281.399	117.08
281.615	26.96
281.83	-42.67
282.045	20.82
282.26	2.39
282.476	78.16
282.691	12.63
282.906	31.06
283.122	20.82
283.337	35.16
283.552	-5.8
283.767	2.39
283.983	67.92
284.198	10.58
284.413	76.12
284.628	4.44
284.843	41.3
285.058	35.16
285.274	14.68
285.489	-54.95
285.704	84.31
285.919	37.2
286.134	47.44
286.349	57.68
286.564	2.39
286.779	51.54
286.995	-1.71
287.21	55.64
287.425	2.39
287.64	29.01
287.855	33.11
288.07	-16.04
288.285	86.36
288.5	4.44
288.715	10.58
288.93	14.68
289.145	6.49
289.36	35.16
289.575	43.35
289.79	96.6
290.004	-36.52
290.219	108.88
290.434	22.87
290.649	0.34
290.864	69.97
291.079	-5.8
291.294	12.63
291.509	18.77
291.724	-20.14
291.938	-63.15
292.153	59.73
292.368	10.58
292.583	61.78
292.798	14.68
293.012	96.6
293.227	33.11
293.442	12.63
293.657	55.64
293.871	55.64
294.086	92.5
294.301	80.21
294.516	49.49
294.73	45.4
294.945	2.39
295.16	18.77
295.374	133.46
295.589	102.74
295.804	-28.33
296.018	67.92
296.233	115.03
296.447	37.2
296.662	37.2
296.877	41.3
297.091	-52.91
297.306	92.5
297.52	69.97
297.735	43.35
297.949	-71.34
298.164	26.96
298.378	39.25
298.593	-22.19
298.807	86.36
299.022	-11.95
299.236	96.6
299.451	61.78
299.665	59.73
299.88	-34.47
300.094	57.68
300.309	65.88
300.523	92.5
300.737	-1.71
300.952	80.21
301.166	-28.33
301.381	26.96
301.595	76.12
301.809	29.01
302.024	22.87
302.238	-24.23
302.452	92.5
302.667	39.25
302.881	69.97
303.095	-11.95
303.309	-32.43
303.524	-40.62
303.738	18.77
303.952	-5.8
304.166	18.77
304.381	-34.47
304.595	69.97
304.809	29.01
305.023	110.93
305.237	43.35
305.452	33.11
305.666	92.5
305.88	10.58
306.094	76.12
306.308	104.79
306.522	100.69
306.736	37.2
306.95	51.54
307.164	117.08
307.379	-7.85
307.593	-13.99
307.807	115.03
308.021	4.44
308.235	-22.19
308.449	2.39
308.663	53.59
308.877	76.12
309.091	59.73
309.305	41.3
309.519	18.77
309.733	61.78
309.947	-34.47
310.161	-1.71
310.374	29.01
310.588	76.12
310.802	-9.9
311.016	45.4
311.23	59.73
311.444	-63.15
311.658	35.16
311.872	10.58
312.085	86.36
312.299	-5.8
312.513	43.35
312.727	24.92
312.941	4.44
313.154	59.73
313.368	53.59
313.582	94.55
313.796	26.96
314.009	12.63
314.223	74.07
314.437	43.35
314.651	-18.09
314.864	-5.8
315.078	-63.15
315.292	12.63
315.505	6.49
315.719	80.21
315.933	51.54
316.146	4.44
316.36	26.96
316.573	43.35
316.787	76.12
317.001	61.78
317.214	-16.04
317.428	67.92
317.641	-50.86
317.855	10.58
318.068	31.06
318.282	22.87
318.495	-1.71
318.709	-44.71
318.922	69.97
319.136	-30.38
319.349	82.26
319.563	-50.86
319.776	22.87
319.99	45.4
320.203	6.49
320.417	-36.52
320.63	61.78
320.843	10.58
321.057	2.39
321.27	10.58
321.483	39.25
321.697	149.84
321.91	18.77
322.124	14.68
322.337	-42.67
322.55	-46.76
322.763	-42.67
322.977	26.96
323.19	-46.76
323.403	80.21
323.617	-5.8
323.83	33.11
324.043	39.25
324.256	51.54
324.469	-13.99
324.683	92.5
324.896	0.34
325.109	45.4
325.322	-22.19
325.535	84.31
325.748	61.78
325.962	-1.71
326.175	-13.99
326.388	37.2
326.601	117.08
326.814	67.92
327.027	131.41
327.24	84.31
327.453	4.44
327.666	84.31
327.879	-54.95
328.092	80.21
328.305	-26.28
328.518	86.36
328.731	35.16
328.944	14.68
329.157	-59.05
329.37	106.84
329.583	-18.09
329.796	76.12
330.009	-7.85
330.222	92.5
330.435	-3.75
330.648	26.96
330.861	-22.19
331.073	96.6
331.286	22.87
331.499	14.68
331.712	-9.9
331.925	65.88
332.138	-9.9
332.35	59.73
332.563	-5.8
332.776	59.73
332.989	12.63
333.202	-63.15
333.414	55.64
333.627	-38.57
333.84	43.35
334.053	67.92
334.265	59.73
334.478	-5.8
334.691	-16.04
334.903	35.16
335.116	76.12
335.329	112.98
335.541	47.44
335.754	96.6
335.966	12.63
336.179	49.49
336.392	26.96
336.604	35.16
336.817	26.96
337.029	31.06
337.242	-18.09
337.454	33.11
337.667	12.63
337.88	61.78
338.092	14.68
338.305	76.12
338.517	18.77
338.729	22.87
338.942	106.84
339.154	8.53
339.367	2.39
339.579	67.92
339.792	10.58
340.004	24.92
340.217	4.44
340.429	59.73
340.641	63.83
340.854	0.34
341.066	10.58
341.278	26.96
341.491	43.35
341.703	-20.14
341.915	-48.81
342.128	92.5
342.34	8.53
342.552	20.82
342.764	-30.38
342.977	45.4
343.189	51.54
343.401	-22.19
343.613	16.73
343.826	20.82
344.038	4.44
344.25	117.08
344.462	-16.04
344.674	-44.71
344.886	53.59
345.099	69.97
345.311	-42.67
345.523	4.44
345.735	-13.99
345.947	35.16
346.159	45.4
346.371	41.3
346.583	94.55
346.795	4.44
347.007	-7.85
347.219	20.82
347.431	-3.75
347.643	82.26
347.855	-22.19
348.067	55.64
348.279	41.3
348.491	35.16
348.703	-50.86
348.915	35.16
349.127	-7.85
349.339	22.87
349.551	59.73
349.763	63.83
349.975	43.35
350.187	67.92
350.399	69.97
350.61	43.35
350.822	29.01
351.034	51.54
351.246	29.01
351.458	6.49
351.669	41.3
351.881	47.44
352.093	67.92
352.305	61.78
352.517	47.44
352.728	18.77
352.94	39.25
353.152	37.2
353.363	67.92
353.575	53.59
353.787	12.63
353.999	10.58
354.21	51.54
354.422	14.68
354.633	31.06
354.845	82.26
355.057	-5.8
355.268	63.83
355.48	29.01
355.692	94.55
355.903	67.92
356.115	43.35
356.326	-26.28
356.538	155.99
356.749	76.12
356.961	45.4
357.172	22.87
357.384	67.92
357.595	37.2
357.807	26.96
358.018	69.97
358.23	67.92
358.441	102.74
358.653	35.16
358.864	20.82
359.075	43.35
359.287	67.92
359.498	39.25
359.709	4.44
359.921	51.54
360.132	37.2
360.344	84.31
360.555	10.58
360.766	37.2
360.977	51.54
361.189	57.68
361.4	26.96
361.611	51.54
361.823	51.54
362.034	59.73
362.245	-30.38
362.456	47.44
362.667	22.87
362.879	-11.95
363.09	43.35
363.301	26.96
363.512	59.73
363.723	6.49
363.935	18.77
364.146	24.92
364.357	2.39
364.568	20.82
364.779	22.87
364.99	59.73
365.201	2.39
365.412	117.08
365.623	22.87
365.834	26.96
366.045	14.68
366.256	76.12
366.467	18.77
366.678	80.21
366.889	20.82
367.1	63.83
367.311	14.68
367.522	-5.8
367.733	-13.99
367.944	35.16
368.155	-1.71
368.366	43.35
368.577	129.36
368.788	143.7
368.999	-20.14
369.209	18.77
369.42	43.35
369.631	100.69
369.842	96.6
370.053	69.97
370.264	35.16
370.474	59.73
370.685	35.16
370.896	59.73
371.107	12.63
371.317	0.34
371.528	59.73
371.739	67.92
371.95	8.53
372.16	55.64
372.371	22.87
372.582	67.92
372.792	-3.75
373.003	35.16
373.214	37.2
373.424	18.77
373.635	2.39
373.846	76.12
374.056	55.64
374.267	0.34
374.477	-26.28
374.688	55.64
374.898	26.96
375.109	14.68
375.319	4.44
375.53	100.69
375.74	94.55
375.951	2.39
376.161	-30.38
376.372	76.12
376.582	41.3
376.793	59.73
377.003	-75.43
377.214	20.82
377.424	-5.8
377.635	-9.9
377.845	4.44
378.055	108.88
378.266	-22.19
378.476	-30.38
378.686	-9.9
378.897	59.73
379.107	49.49
379.317	20.82
379.528	37.2
379.738	53.59
379.948	-22.19
380.158	26.96
380.369	-1.71
380.579	47.44
380.789	76.12
380.999	29.01
381.21	127.32
381.42	108.88
381.63	37.2
381.84	125.27
382.05	117.08
382.261	51.54
382.471	-13.99
382.681	35.16
382.891	125.27
383.101	45.4
383.311	8.53
383.521	51.54
383.731	84.31
383.941	26.96
384.151	59.73
384.361	37.2
384.571	10.58
384.781	51.54
384.991	84.31
385.201	55.64
385.411	84.31
385.621	39.25
385.831	51.54
386.041	160.08
386.251	-5.8
386.461	10.58
386.671	14.68
386.881	67.92
387.091	18.77
387.301	158.03
387.511	76.12
387.72	67.92
387.93	63.83
388.14	29.01
388.35	53.59
388.56	31.06
388.769	78.16
388.979	166.23
389.189	33.11
389.399	-5.8
389.609	49.49
389.818	41.3
390.028	94.55
390.238	67.92
390.447	43.35
390.657	133.46
390.867	-26.28
391.076	33.11
391.286	59.73
391.496	43.35
391.705	-30.38
391.915	76.12
392.125	-3.75
392.334	69.97
392.544	67.92
392.753	67.92
392.963	49.49
393.172	18.77
393.382	51.54
393.591	98.64
393.801	112.98
394.01	92.5
394.22	78.16
394.429	143.7
394.639	47.44
394.848	24.92
395.058	127.32
395.267	18.77
395.477	2.39
395.686	100.69
395.895	76.12
396.105	168.27
396.314	129.36
396.524	133.46
396.733	100.69
396.942	143.7
397.152	69.97
397.361	76.12
397.57	14.68
397.78	49.49
397.989	102.74
398.198	119.12
398.407	53.59
398.617	117.08
398.826	47.44
399.035	76.12
399.244	121.17
399.453	74.07
399.663	43.35
399.872	37.2
400.081	4.44
400.29	143.7
400.499	63.83
400.708	149.84
400.917	45.4
401.127	117.08
401.336	115.03
401.545	153.94
401.754	88.4
401.963	39.25
402.172	20.82
402.381	123.22
402.59	92.5
402.799	69.97
403.008	133.46
403.217	102.74
403.426	160.08
403.635	102.74
403.844	61.78
404.053	86.36
404.262	125.27
404.471	139.6
404.68	125.27
404.888	92.5
405.097	106.84
405.306	94.55
405.515	172.37
405.724	172.37
405.933	174.42
406.142	158.03
406.35	61.78
406.559	198.99
406.768	139.6
406.977	164.18
407.185	190.8
407.394	184.66
407.603	168.27
407.812	192.85
408.02	231.76
408.229	248.15
408.438	237.91
408.646	192.85
408.855	166.23
409.064	184.66
409.272	203.09
409.481	362.83
409.69	225.62
409.898	325.97
410.107	319.82
410.315	250.19
410.524	258.39
410.733	334.16
410.941	305.49
411.15	330.06
411.358	411.98
411.567	379.22
411.775	395.6
411.984	469.33
412.192	481.61
412.401	424.27
412.609	454.99
412.818	491.85
413.026	541.01
413.234	461.13
413.443	465.23
413.651	518.48
413.86	569.68
414.068	551.24
414.276	624.97
414.485	575.82
414.693	610.64
414.901	639.31
415.11	618.83
415.318	612.68
415.526	682.31
415.734	739.66
415.943	745.8
416.151	772.43
416.359	624.97
416.567	778.57
416.776	817.48
416.984	913.74
417.192	870.73
417.4	891.21
417.608	887.11
417.817	1020.23
418.025	973.13
418.233	1040.71
418.441	1110.34
418.649	1067.33
418.857	1235.27
419.065	1241.41
419.273	1184.07
419.481	1241.41
419.689	1345.86
419.897	1294.66
420.105	1403.2
420.313	1458.5
420.521	1388.86
420.729	1515.84
420.937	1550.65
421.145	1648.96
421.353	1720.64
421.561	1696.06
421.769	1706.3
421.977	1820.99
422.185	1804.6
422.393	2013.49
422.601	2136.37
422.809	1995.06
423.017	2081.08
423.224	2226.48
423.432	2275.63
423.64	2228.53
423.848	2386.22
424.056	2396.46
424.263	2648.36
424.471	2586.93
424.679	2591.02
424.887	2822.44
425.094	2885.93
425.302	2863.4
425.51	2824.49
425.718	2957.61
425.925	3105.06
426.133	3121.45
426.341	3336.48
426.548	3557.66
426.756	3658.01
426.964	3664.16
427.171	3731.74
427.379	3811.61
427.586	4034.84
427.794	4165.91
428.001	4280.6
428.209	4419.86
428.417	4337.94
428.624	4649.23
428.832	4835.6
429.039	4638.99
429.247	4581.65
429.454	5153.03
429.662	5384.45
429.869	5150.98
430.076	5570.82
430.284	5425.41
430.491	5527.81
430.699	5771.52
430.906	5665.02
431.114	5988.6
431.321	6166.78
431.528	6156.54
431.736	6572.27
431.943	6858.99
432.15	6705.39
432.358	6867.18
432.565	7022.83
432.772	7084.27
432.979	7342.31
433.187	7518.43
433.394	7690.46
433.601	8235.22
433.808	8358.1
434.016	7958.75
434.223	8466.64
434.43	8980.68
434.637	8835.28
434.844	9353.41
435.052	9838.78
435.259	9509.06
435.466	9687.23
435.673	9251.02
435.88	10168.51
436.087	10602.68
436.294	10449.08
436.501	10410.17
436.708	10653.87
436.915	10774.7
437.122	11538.6
437.329	11395.24
437.537	12007.58
437.743	12028.06
437.95	11899.04
438.157	12447.9
438.364	12707.99
438.571	12800.15
438.778	13033.61
438.985	14141.57
439.192	13451.4
439.399	13985.92
439.606	13781.12
439.813	14454.9
440.02	15331.44
440.227	15061.1
440.433	15009.9
440.64	15364.2
440.847	15226.99
441.054	15716.45
441.261	16967.76
441.467	16580.7
441.674	16969.81
441.881	17655.88
442.088	17438.8
442.294	17158.22
442.501	17492.04
442.708	18030.66
442.914	18993.2
443.121	19679.27
443.328	18925.62
443.534	20226.08
443.741	19679.27
443.948	19490.86
444.154	21135.38
444.361	20776.98
444.568	20793.37
444.774	20873.24
444.981	21067.8
445.187	21725.19
445.394	22829.05
445.6	22517.76
445.807	24563.68
446.013	23521.26
446.22	23607.28
446.426	25022.42
446.633	24932.31
446.839	25878.47
447.046	24917.98
447.252	26226.63
447.459	26187.72
447.665	26023.88
447.871	27019.19
448.078	28536.74
448.284	26916.79
448.491	27975.59
448.697	28714.91
448.903	29274.01
449.11	29403.03
449.316	29177.75
449.522	29638.55
449.728	30353.29
449.935	30683.01
450.141	30924.67
450.347	31438.71
450.553	30101.39
450.76	30756.74
450.966	31872.88
451.172	31340.41
451.378	32198.51
451.584	31809.39
451.791	32438.12
451.997	32296.81
452.203	33161.05
452.409	33011.55
452.615	32434.02
452.821	31225.72
453.027	31080.32
453.233	32954.21
453.44	31555.44
453.646	31887.21
453.852	32069.48
454.058	32759.65
454.264	31584.12
454.47	32423.78
454.676	31596.4
454.882	32896.86
455.088	30080.91
455.294	30332.81
455.5	30461.83
455.705	31197.05
455.911	29908.88
456.117	29470.61
456.323	28719.01
456.529	27600.82
456.735	29075.35
456.941	28000.17
457.147	27623.34
457.352	27033.53
457.558	26339.27
457.764	26630.08
457.97	26326.98
458.176	25630.67
458.381	25552.85
458.587	24117.22
458.793	24211.43
458.999	22917.11
459.204	24733.66
459.41	24023.01
459.616	22519.81
459.821	22431.74
460.027	22433.79
460.233	21954.57
460.438	20807.7
460.644	21006.36
460.85	20176.93
461.055	19589.16
461.261	19996.71
461.466	18225.22
461.672	17711.18
461.878	18829.37
462.083	17436.75
462.289	17547.34
462.494	17092.69
462.7	16603.22
462.905	16042.08
463.111	16648.28
463.316	16611.42
463.522	16355.42
463.727	16347.23
463.932	16126.05
464.138	16089.18
464.343	16207.97
464.549	15648.87
464.754	16369.76
464.959	15900.77
465.165	16013.41
465.37	15167.6
465.575	15011.95
465.781	15542.38
465.986	15493.22
466.191	14817.4
466.397	14776.44
466.602	13850.75
466.807	14446.71
467.012	14456.95
467.218	14231.68
467.423	14121.09
467.628	14319.74
467.833	14780.53
468.038	14266.49
468.244	14129.28
468.449	14575.73
468.654	14065.79
468.859	13850.75
469.064	13742.21
469.269	13271.18
469.474	13215.88
469.679	13752.45
469.885	13396.1
470.09	13549.7
470.295	13351.05
470.5	13207.69
470.705	13105.29
470.91	13027.47
471.115	12847.25
471.32	12968.08
471.525	12781.71
471.73	12462.23
471.935	12331.16
472.139	12040.35
472.344	12339.35
472.549	12177.56
472.754	11915.42
472.959	11858.08
473.164	11409.58
473.369	11454.63
473.574	11761.83
473.778	11618.47
473.983	11471.01
474.188	11616.42
474.393	10983.6
474.598	11053.23
474.802	10926.25
475.007	10840.24
475.212	10924.21
475.417	10420.41
475.621	10475.7
475.826	10645.68
476.031	10369.21
476.235	10354.87
476.44	10242.23
476.645	10045.63
476.849	10215.61
477.054	9943.23
477.259	9824.45
477.463	9849.02
477.668	9435.33
477.872	9689.28
478.077	9687.23
478.282	9277.64
478.486	9300.17
478.691	9160.91
478.895	9156.81
479.1	9021.64
479.304	9007.31
479.509	8810.7
479.713	9054.41
479.918	8874.19
480.122	8585.43
480.326	8822.99
480.531	8890.57
480.735	8636.63
480.94	8569.04
481.144	8894.67
481.348	8503.51
481.553	8605.91
481.757	8243.42
481.961	8612.05
482.166	8679.63
482.37	8437.97
482.574	8237.27
482.778	8374.49
482.983	8562.9
483.187	8317.14
483.391	8294.61
483.595	8323.29
483.8	8270.04
484.004	8364.25
484.208	8509.65
484.412	8229.08
484.616	8458.45
484.821	8575.19
485.025	8345.81
485.229	8376.53
485.433	8360.15
485.637	8290.52
485.841	8169.69
486.045	8317.14
486.249	8399.06
486.453	8231.13
486.657	8243.42
486.861	8321.24
487.065	8276.18
487.269	8317.14
487.473	8177.88
487.677	8454.36
487.881	8388.82
488.085	8333.53
488.289	8585.43
488.493	8263.9
488.697	8562.9
488.901	8298.71
489.105	8399.06
489.309	8659.15
489.512	8464.6
489.716	8562.9
489.92	8413.4
490.124	8485.08
490.328	8464.6
490.531	8569.04
490.735	8696.02
490.939	8528.08
491.143	8376.53
491.346	8464.6
491.55	8636.63
491.754	8620.24
491.958	8687.82
492.161	8734.93
492.365	8730.83
492.569	8806.61
492.772	8796.37
492.976	8964.3
493.18	8818.89
493.383	9033.93
493.587	9070.79
493.79	9259.21
493.994	9267.4
494.197	9046.22
494.401	9337.03
494.605	9285.83
494.808	9447.62
495.012	9400.52
495.215	9509.06
495.419	9410.76
495.622	9445.57
495.825	9742.53
496.029	9603.27
496.232	9984.19
496.436	9808.06
496.639	10172.6
496.843	9926.85
497.046	10365.11
497.249	10485.94
497.453	10160.31
497.656	10416.31
497.859	10551.48
498.063	10543.28
498.266	10655.92
498.469	10680.5
498.673	10840.24
498.876	11100.33
499.079	11077.8
499.282	11421.86
499.485	11636.9
499.689	11569.32
499.892	11466.92
500.095	11604.13
500.298	11882.66
500.501	11913.38
500.705	12148.89
500.908	12370.07
501.111	12365.98
501.314	12480.66
501.517	12617.88
501.72	12767.38
501.923	12669.08
502.126	12912.78
502.329	13195.4
502.532	13179.02
502.735	13383.82
502.938	13561.99
503.141	13707.4
503.344	13938.82
503.547	13889.67
503.75	14198.91
503.953	14323.83
504.156	14671.99
504.359	14440.57
504.562	14727.28
504.765	15005.81
504.968	15042.67
505.17	15296.62
505.373	15233.13
505.576	15499.37
505.779	15747.17
505.982	15685.73
506.185	15997.03
506.387	16230.49
506.59	16345.18
506.793	16732.25
506.996	16607.32
507.198	17254.48
507.401	16767.06
507.604	17281.1
507.807	17285.2
508.009	17594.44
508.212	17752.13
508.415	17789
508.617	18419.77
508.82	18305.09
509.022	18040.9
509.225	18563.13
509.428	18587.71
509.63	18927.67
509.833	19261.49
510.035	19451.95
510.238	19486.76
510.44	19693.61
510.643	19970.08
510.845	19877.93
511.048	20097.06
511.25	20357.15
511.453	20461.6
511.655	21078.04
511.858	21104.66
512.06	21352.46
512.262	21391.37
512.465	21213.2
512.667	21762.06
512.87	22149.12
513.072	22200.32
513.274	22560.77
513.477	22732.79
513.679	22847.48
513.881	22919.16
514.084	23091.19
514.286	23066.61
514.488	23513.07
514.69	23926.76
514.893	24391.65
515.095	24121.32
515.297	24436.7
515.499	24561.63
515.701	25190.36
515.904	25163.73
516.106	25079.77
516.308	25346
516.51	26011.59
516.712	25970.63
516.914	25915.34
517.116	26464.19
517.318	26920.89
517.52	26879.93
517.722	26955.71
517.925	27473.84
518.127	27733.93
518.329	27672.5
518.531	27506.61
518.733	28321.7
518.935	28440.48
519.136	28536.74
519.338	29284.25
519.54	28970.91
519.742	29218.71
519.944	29554.58
520.146	29525.91
520.348	29835.15
520.55	29880.21
520.752	30345.09
520.954	31002.49
521.155	30611.33
521.357	31264.63
521.559	31317.88
521.761	31657.84
521.963	31414.13
522.164	32165.74
522.366	31602.55
522.568	32352.1
522.77	32274.28
522.971	32593.76
523.173	32556.9
523.375	33191.77
523.576	33116
523.778	33038.17
523.98	33525.59
524.181	33539.93
524.383	33863.5
524.584	34103.12
524.786	33996.62
524.988	33953.62
525.189	34467.66
525.391	34715.46
525.592	34905.92
525.794	34938.69
525.995	34961.22
526.197	35159.87
526.398	35243.84
526.6	35284.79
526.801	35366.71
527.003	35350.33
527.204	36187.95
527.406	36132.65
527.607	35946.29
527.808	36292.4
528.01	36372.27
528.211	36593.45
528.412	36796.2
528.614	36820.77
528.815	36704.04
529.016	37011.23
529.218	36613.93
529.419	36986.66
529.62	36828.96
529.822	37187.36
530.023	36865.83
530.224	37365.53
530.425	37408.54
530.626	36620.07
530.828	36726.56
531.029	37920.53
531.23	37230.37
531.431	37281.56
531.632	37623.58
531.833	37496.6
532.035	37304.09
532.236	37674.77
532.437	37717.78
532.638	37642.01
532.839	37750.55
533.04	38067.98
533.241	37414.68
533.442	38178.57
533.643	37918.48
533.844	37781.27
534.045	38010.64
534.246	37480.22
534.447	38067.98
534.648	37631.77
534.849	37838.61
535.05	37521.18
535.251	38092.56
535.451	37658.39
535.652	38084.37
535.853	38004.5
536.054	38227.73
536.255	38321.93
536.456	37596.95
536.657	38584.07
536.857	37580.57
537.058	37654.29
537.259	38207.25
537.46	38084.37
537.66	37775.12
537.861	37988.11
538.062	37822.23
538.263	37947.15
538.463	37728.02
538.664	37756.69
538.865	37678.87
539.065	37850.9
539.266	37412.63
539.466	38065.94
539.667	37472.03
539.868	38487.82
540.068	37531.42
540.269	38291.21
540.469	37773.08
540.67	37644.05
540.87	37744.41
541.071	37623.58
541.271	37777.17
541.472	37697.3
541.672	37750.55
541.873	37644.05
542.073	37390.11
542.274	37922.58
542.474	37838.61
542.675	37400.35
542.875	37932.82
543.075	38092.56
543.276	37488.41
543.476	37975.83
543.676	37461.79
543.877	38004.5
544.077	37265.18
544.277	37494.55
544.478	37754.65
544.678	37990.16
544.878	37519.13
545.078	37621.53
545.279	37410.59
545.479	37201.69
545.679	37586.71
545.879	37971.73
546.079	37445.4
546.28	37447.45
546.48	37134.11
546.68	37695.25
546.88	37506.84
547.08	37572.38
547.28	37390.11
547.48	37252.89
547.68	37619.48
547.88	37310.24
548.081	37660.44
548.281	37390.11
548.481	37064.48
548.681	37537.56
548.881	37058.34
549.081	37275.42
549.28	37207.84
549.48	37945.11
549.68	37121.82
549.88	37783.32
550.08	37441.31
550.28	37144.35
550.48	37261.08
550.68	37676.82
550.88	37025.57
551.08	37068.58
551.279	37443.35
551.479	36953.89
551.679	37156.64
551.879	37394.2
552.079	37330.72
552.278	36912.93
552.478	36994.85
552.678	37058.34
552.878	37113.63
553.077	37336.86
553.277	36867.87
553.477	37224.22
553.676	36835.11
553.876	36947.75
554.076	36675.37
554.275	37044
554.475	36437.8
554.674	37150.49
554.874	36708.13
555.074	36755.24
555.273	36810.53
555.473	37304.09
555.672	36480.81
555.872	36742.95
556.071	36642.6
556.271	36435.75
556.47	36523.82
556.67	36241.2
556.869	36194.09
557.068	36742.95
557.268	36183.85
557.467	36431.66
557.667	36069.17
557.866	36233
558.065	36306.73
558.265	36058.93
558.464	35602.23
558.663	36370.22
558.863	35784.5
559.062	36085.55
559.261	35813.17
559.461	36341.55
559.66	35465.02
559.859	35804.98
560.058	35462.97
560.258	35759.92
560.457	35452.73
560.656	35929.91
560.855	35772.21
561.054	35295.03
561.253	35381.05
561.453	35802.93
561.652	35432.25
561.851	35743.54
562.05	35317.56
562.249	35247.93
562.448	35397.43
562.647	35180.35
562.846	35544.89
563.045	35184.44
563.244	34637.64
563.443	35348.28
563.642	34944.83
563.841	34852.67
564.04	34469.7
564.239	34797.38
564.438	34289.48
564.637	34799.43
564.836	34746.18
565.035	34627.4
565.234	34647.88
565.432	34492.23
565.631	34307.91
565.83	34348.87
566.029	34383.69
566.228	34144.08
566.427	34209.61
566.625	33642.32
566.824	33462.1
567.023	34148.17
567.222	33132.38
567.42	33937.23
567.619	33625.94
567.818	33658.71
568.016	33511.25
568.215	33775.44
568.414	33175.39
568.612	33740.63
568.811	33161.05
569.01	33269.59
569.208	32694.11
569.407	33204.06
569.605	32769.89
569.804	33380.18
570.002	32722.79
570.201	32808.8
570.4	32614.24
570.598	32413.54
570.797	32642.92
570.995	32735.07
571.193	32335.72
571.392	32362.34
571.59	32253.8
571.789	32388.97
571.987	32094.06
572.186	32001.9
572.384	31991.66
572.582	31956.85
572.781	32010.09
572.979	31139.71
573.177	31633.27
573.376	32126.83
573.574	31541.11
573.772	31590.26
573.971	30982.01
574.169	31244.15
574.367	31113.08
574.565	31532.92
574.763	30998.4
574.962	31297.4
575.16	30746.5
575.358	31057.79
575.556	30547.84
575.754	31006.59
575.952	30510.98
576.151	30773.12
576.349	30629.76
576.547	30470.02
576.745	30467.97
576.943	30435.2
577.141	30500.74
577.339	30287.75
577.537	29980.56
577.735	30226.31
577.933	29904.78
578.131	30152.59
578.329	29599.63
578.527	29726.61
578.725	29869.97
578.923	29890.45
579.121	29378.45
579.319	29298.58
579.516	29734.8
579.714	29138.84
579.912	29456.28
580.11	29376.41
580.308	28944.28
580.506	28893.08
580.704	28587.94
580.901	29015.96
581.099	29034.39
581.297	28606.37
581.495	28438.44
581.692	28708.77
581.89	28602.27
582.088	28690.34
582.285	28149.67
582.483	28524.45
582.681	27940.78
582.878	28178.34
583.076	27922.35
583.274	28319.65
583.471	27801.52
583.669	28010.41
583.866	27936.68
584.064	27873.2
584.262	27522.99
584.459	27598.77
584.657	27580.34
584.854	27598.77
585.052	27113.4
585.249	27656.11
585.447	27578.29
585.644	26861.5
585.841	27256.76
586.039	27486.13
586.236	26849.21
586.434	26939.32
586.631	26836.92
586.828	27203.51
587.026	26943.42
587.223	26740.67
587.42	26587.07
587.618	26275.78
587.815	26109.89
588.012	26030.02
588.21	26306.5
588.407	26331.08
588.604	26361.8
588.801	25808.84
588.999	25884.62
589.196	25960.39
589.393	25921.48
589.59	25987.02
589.787	25716.68
589.984	25401.3
590.182	25532.37
590.379	25292.76
590.576	25278.42
590.773	25429.97
590.97	25251.8
591.167	24905.69
591.364	24870.87
591.561	24862.68
591.758	24930.26
591.955	25208.79
592.152	25055.19
592.349	24674.27
592.546	24864.73
592.743	24414.18
592.94	24379.36
593.137	24586.21
593.334	24797.15
593.531	24242.15
593.727	24207.33
593.924	24326.11
594.121	24242.15
594.318	24274.91
594.515	23767.02
594.712	24356.83
594.908	23787.5
595.105	23879.66
595.302	23828.46
595.499	23758.83
595.696	23578.61
595.892	23551.98
596.089	23461.87
596.286	23474.16
596.482	23394.29
596.679	23351.28
596.876	23326.71
597.072	23101.43
597.269	23123.96
597.466	22816.76
597.662	22904.82
597.859	23140.34
598.055	22704.12
598.252	22695.93
598.448	22644.73
598.645	22499.33
598.841	22552.57
599.038	22179.84
599.234	22362.11
599.431	22265.86
599.627	22061.06
599.824	22407.17
600.02	21985.29
600.217	22106.12
600.413	21829.64
600.609	21901.32
600.806	21807.11
601.002	22003.72
601.198	21813.26
601.395	21510.16
601.591	21774.35
601.787	21338.13
601.984	21401.61
602.18	21549.07
602.376	21282.83
602.572	21172.24
602.769	20834.33
602.965	21229.59
603.161	21186.58
603.357	20873.24
603.553	20881.43
603.75	20969.49
603.946	20670.49
604.142	20815.9
604.338	20613.15
604.534	20719.64
604.73	20441.12
604.926	20594.72
605.122	20641.82
605.318	20383.77
605.514	20371.49
605.71	20443.17
605.906	20330.53
606.102	20232.22
606.298	20088.87
606.494	19916.84
606.69	19724.33
606.886	20228.13
607.082	19918.89
607.278	19931.17
607.474	19585.07
607.67	19871.78
607.866	19449.9
608.062	19716.14
608.257	19728.42
608.453	19490.86
608.649	19591.21
608.845	19343.41
609.041	19316.78
609.236	19365.93
609.432	19335.21
609.628	19331.12
609.824	19073.07
610.019	19294.25
610.215	19273.78
610.411	19392.56
610.606	19007.54
610.802	18980.92
610.998	19220.53
611.193	19091.51
611.389	18651.19
611.584	19093.55
611.78	18831.41
611.976	18974.77
612.171	18757.69
612.367	18915.38
612.562	18577.47
612.758	18489.4
612.953	18599.99
613.149	18896.95
613.344	18391.1
613.539	18573.37
613.735	18346.05
613.93	18497.6
614.126	18325.57
614.321	18716.73
614.517	18663.48
614.712	18665.53
614.907	18223.17
615.103	18143.3
615.298	18368.57
615.493	18262.08
615.688	17852.48
615.884	18403.39
616.079	17938.5
616.274	18034.75
616.47	17934.4
616.665	17803.33
616.86	17993.79
617.055	17940.55
617.25	18147.39
617.445	17905.73
617.641	17504.33
617.836	17412.17
618.031	17533
618.226	17803.33
618.421	17533
618.616	17844.29
618.811	17285.2
619.006	17668.17
619.201	17135.7
619.396	17059.92
619.591	16951.38
619.786	17307.73
619.981	16930.9
620.176	16834.64
620.371	16855.12
620.566	16750.68
620.761	16736.34
620.956	16660.57
621.151	16666.71
621.346	16629.85
621.541	16171.1
621.735	16611.42
621.93	16132.19
622.125	16253.02
622.32	16033.89
622.515	16052.32
622.709	15765.6
622.904	16107.62
623.099	15870.05
623.294	15884.39
623.488	15665.25
623.683	15747.17
623.878	15634.53
624.072	15609.96
624.267	15341.68
624.462	15593.58
624.656	14864.5
624.851	15286.38
625.046	15167.6
625.24	14774.39
625.435	14825.59
625.629	14809.2
625.824	14618.74
626.018	14596.21
626.213	14600.31
626.407	14596.21
626.602	14274.68
626.796	14303.36
626.991	14069.89
627.185	14086.27
627.38	14071.93
627.574	13860.99
627.768	13617.29
627.963	13787.27
628.157	13414.54
628.352	13791.36
628.546	13637.77
628.74	13506.7
628.935	13426.82
629.129	13435.02
629.323	13353.1
629.517	13097.1
629.712	13095.05
629.906	13074.57
630.1	13011.09
630.294	13160.59
630.489	13129.87
630.683	12990.61
630.877	12896.4
631.071	12689.56
631.265	12585.11
631.459	12748.95
631.653	12433.56
631.848	12458.14
632.042	12277.91
632.236	12417.18
632.43	12368.02
632.624	12257.43
632.818	12314.78
633.012	12036.25
633.206	12075.17
633.4	12077.21
633.594	11882.66
633.788	11849.89
633.982	11776.16
634.176	11772.07
634.369	11698.34
634.563	11491.49
634.757	11530.41
634.951	11544.74
635.145	11309.22
635.339	11473.06
635.533	11409.58
635.726	11206.83
635.92	11079.85
636.114	10948.78
636.308	11049.13
636.501	10922.16
636.695	11073.71
636.889	10993.84
637.083	10782.9
637.276	10729.65
637.47	10393.78
637.664	10574
637.857	10686.64
638.051	10670.26
638.244	10389.69
638.438	10479.8
638.632	10275
638.825	10389.69
639.019	10383.54
639.212	10184.89
639.406	9982.14
639.599	10279.1
639.793	10143.93
639.986	10037.44
640.18	10176.7
640.373	9836.74
640.567	10006.72
640.76	9881.79
640.954	9785.54
641.147	9670.85
641.34	9676.99
641.534	9722.05
641.727	9599.17
641.92	9449.67
642.114	9337.03
642.307	9265.35
642.5	9464
642.694	9142.47
642.887	9138.38
643.08	9459.91
643.273	9291.98
643.467	9226.44
643.66	8915.15
643.853	9054.41
644.046	9007.31
644.239	8894.67
644.432	9001.16
644.626	8710.35
644.819	8640.72
645.012	8653.01
645.205	8693.97
645.398	8603.86
645.591	8538.32
645.784	8542.42
645.977	8503.51
646.17	8376.53
646.363	8284.37
646.556	8394.97
646.749	8349.91
646.942	8349.91
647.135	8333.53
647.328	8102.11
647.521	8118.49
647.714	7968.99
647.907	8114.39
648.099	8108.25
648.292	8020.19
648.485	7919.84
648.678	7913.69
648.871	7856.35
649.064	7842.01
649.256	7610.59
649.449	7629.02
649.642	7891.16
649.835	7635.17
650.027	7680.22
650.22	7506.15
650.413	7424.23
650.605	7465.19
650.798	7370.98
650.991	7399.65
651.183	7141.61
651.376	7307.49
651.568	7176.42
651.761	7366.88
651.954	7301.35
652.146	7188.71
652.339	7219.43
652.531	7043.31
652.724	7041.26
652.916	6940.91
653.109	6957.29
653.301	7022.83
653.494	6904.04
653.686	6914.28
653.879	6852.84
654.071	6818.03
654.263	6785.26
654.456	6744.3
654.648	6600.94
654.84	6643.95
655.033	6760.69
655.225	6607.09
655.417	6449.39
655.61	6609.14
655.802	6537.46
655.994	6443.25
656.186	6570.23
656.379	6349.04
656.571	6441.2
656.763	6021.37
656.955	6428.92
657.148	6109.43
657.34	6062.33
657.532	6228.21
657.724	6164.73
657.916	6349.04
658.108	6047.99
658.3	5939.45
658.492	5939.45
658.684	5888.25
658.876	5851.39
659.068	5845.24
659.26	5826.81
659.452	5689.6
659.644	6007.03
659.836	5769.47
660.028	5841.15
660.22	5679.36
660.412	5638.4
660.604	5681.41
660.796	5542.14
660.988	5603.58
661.18	5540.1
661.372	5517.57
661.563	5609.73
661.755	5662.97
661.947	5540.1
662.139	5503.23
662.331	5370.12
662.522	5318.92
662.714	5359.88
662.906	5361.92
663.097	5294.34
663.289	5237
663.481	5255.43
663.673	5187.85
663.864	5122.31
664.056	5189.89
664.247	5140.74
664.439	5105.93
664.631	5081.35
664.822	5001.48
665.014	5019.91
665.205	4964.62
665.397	5019.91
665.588	4862.22
665.78	5011.72
665.971	4714.77
666.163	4892.94
666.354	4784.4
666.546	4983.05
666.737	4780.3
666.929	4786.44
667.12	4757.77
667.311	4737.29
667.503	4727.05
667.694	4722.96
667.885	4649.23
668.077	4632.85
668.268	4663.57
668.459	4589.84
668.651	4557.07
668.842	4526.35
669.033	4458.77
669.224	4452.63
669.416	4544.78
669.607	4507.92
669.798	4405.52
669.989	4417.81
670.18	4417.81
670.371	4360.47
670.563	4311.32
670.754	4325.65
670.945	4284.69
671.136	4292.88
671.327	4182.29
671.518	4315.41
671.709	4262.16
671.9	4124.95
672.091	4120.85
672.282	4049.18
672.473	4157.72
672.664	4004.12
672.855	4026.65
673.046	4200.73
673.237	4135.19
673.428	3987.74
673.619	3967.26
673.809	4020.5
674	4065.56
674.191	4098.33
674.382	4034.84
674.573	3963.16
674.764	3907.87
674.954	4053.27
675.145	4000.02
675.336	3934.49
675.527	3942.68
675.717	3731.74
675.908	3893.53
676.099	3805.47
676.289	3795.23
676.48	3741.98
676.671	3584.29
676.861	3782.94
677.052	3860.76
677.243	3735.84
677.433	3674.4
677.624	3746.08
677.814	3717.4
678.005	3594.53
678.195	3670.3
678.386	3658.01
678.576	3592.48
678.767	3639.58
678.957	3537.18
679.148	3615.01
679.338	3606.81
679.529	3623.2
679.719	3512.61
679.909	3440.93
680.1	3569.95
680.29	3617.05
680.481	3549.47
680.671	3500.32
680.861	3410.21
681.052	3371.3
681.242	3406.11
681.432	3453.22
681.622	3465.5
681.813	3442.98
682.003	3445.02
682.193	3338.53
682.383	3451.17
682.573	3389.73
682.764	3344.67
682.954	3356.96
683.144	3330.34
683.334	3277.09
683.524	3367.2
683.714	3301.67
683.904	3295.52
684.094	3377.44
684.284	3295.52
684.474	3328.29
684.664	3279.14
684.854	3258.66
685.044	3303.71
685.234	3166.5
685.424	3303.71
685.614	3217.7
685.804	3100.97
685.994	3270.95
686.184	3229.99
686.374	3027.24
686.564	3131.69
686.753	3033.38
686.943	3017
687.133	3117.35
687.323	3086.63
687.513	2953.51
687.702	3086.63
687.892	3062.05
688.082	3017
688.272	3096.87
688.461	3002.66
688.651	3031.34
688.841	3166.5
689.03	2943.27
689.22	2994.47
689.41	2963.75
689.599	2912.55
689.789	2910.5
689.979	2861.35
690.168	3060.01
690.358	2861.35
690.547	2873.64
690.737	2789.67
690.926	2738.48
691.116	2832.68
691.305	2834.73
691.495	2683.18
691.684	2887.98
691.874	2853.16
692.063	2740.52
692.252	2761
692.442	2842.92
692.631	2617.65
692.82	2754.86
693.01	2693.42
693.199	2660.65
693.388	2599.21
693.578	2662.7
693.767	2648.36
693.956	2578.73
694.146	2636.08
694.335	2484.53
694.524	2574.64
694.713	2656.56
694.902	2562.35
695.092	2505.01
695.281	2443.57
695.47	2568.49
695.659	2486.58
695.848	2623.79
696.037	2617.65
696.226	2545.97
696.415	2562.35
696.604	2545.97
696.793	2502.96
696.982	2550.06
697.171	2478.38
697.36	2437.42
697.549	2437.42
697.738	2357.55
697.927	2380.08
698.116	2382.13
698.305	2490.67
698.494	2427.18
698.683	2398.51
698.872	2488.62
699.061	2287.92
699.25	2492.72
699.438	2421.04
699.627	2298.16
699.816	2361.65
700.005	2414.9
700.193	2353.46
700.382	2367.79
700.571	2353.46
700.76	2423.09
700.948	2345.27
701.137	2443.57
701.326	2394.42
701.514	2312.5
701.703	2332.98
701.892	2378.03
702.08	2357.55
702.269	2410.8
702.457	2355.51
702.646	2378.03
702.834	2298.16
703.023	2249.01
703.212	2312.5
703.4	2304.31
703.589	2353.46
703.777	2363.7
703.965	2287.92
704.154	2251.06
704.342	2226.48
704.531	2287.92
704.719	2214.2
704.907	2253.11
705.096	2181.43
705.284	2234.68
705.472	2218.29
705.661	2283.83
705.849	2273.59
706.037	2277.68
706.226	2222.39
706.414	2246.96
706.602	2181.43
706.79	2238.77
706.979	2175.28
707.167	2263.35
707.355	2142.52
707.543	2261.3
707.731	2140.47
707.919	2146.61
708.107	2177.33
708.296	2320.69
708.484	2226.48
708.672	2197.81
708.86	2273.59
709.048	2119.99
709.236	2261.3
709.424	2287.92
709.612	2181.43
709.8	2058.55
709.988	2175.28
710.176	2185.52
710.364	2167.09
710.551	2263.35
710.739	2142.52
710.927	2165.04
711.115	2144.56
711.303	2304.31
711.491	2132.28
711.679	2171.19
711.866	2255.15
712.054	2230.58
712.242	2097.46
712.43	2298.16
712.617	2246.96
712.805	2103.61
712.993	2197.81
713.181	2109.75
713.368	2191.67
713.556	2165.04
713.744	2199.86
713.931	2183.48
714.119	2066.74
714.306	2058.55
714.494	2171.19
714.682	2218.29
714.869	2152.76
715.057	2128.18
715.244	2119.99
715.432	2124.08
715.619	2134.32
715.807	2050.36
715.994	2087.22
716.182	2052.41
716.369	2052.41
716.556	2312.5
716.744	2171.19
716.931	2214.2
717.119	2140.47
717.306	2070.84
717.493	2095.41
717.681	2124.08
717.868	2206
718.055	2119.99
718.242	2156.85
718.43	2113.85
718.617	2146.61
718.804	2068.79
718.991	2191.67
719.179	2128.18
719.366	2152.76
719.553	2191.67
719.74	2316.59
719.927	2126.13
720.114	2126.13
720.301	1980.73
720.488	2167.09
720.676	2136.37
720.863	2124.08
721.05	2152.76
721.237	2130.23
721.424	2175.28
721.611	2210.1
721.798	2017.59
721.985	2064.69
722.172	2163
722.358	2056.5
722.545	2107.7
722.732	2046.26
722.919	2101.56
723.106	2097.46
723.293	2128.18
723.48	2101.56
723.667	2134.32
723.853	2101.56
724.04	2203.96
724.227	2201.91
724.414	2191.67
724.6	2197.81
724.787	2107.7
724.974	2107.7
725.161	2144.56
725.347	1986.87
725.534	1997.11
725.72	2199.86
725.907	2074.93
726.094	2056.5
726.28	2115.89
726.467	2113.85
726.653	2042.17
726.84	2111.8
727.027	2136.37
727.213	2036.02
727.4	2140.47
727.586	2091.32
727.773	2044.21
727.959	2060.6
728.145	2158.9
728.332	2156.85
728.518	2009.4
728.705	2025.78
728.891	2099.51
729.077	2146.61
729.264	2197.81
729.45	2148.66
729.636	2240.82
729.823	2087.22
730.009	2050.36
730.195	2070.84
730.382	2074.93
730.568	2142.52
730.754	2138.42
730.94	2083.13
731.126	2226.48
731.313	2033.97
731.499	2009.4
731.685	2007.35
731.871	2091.32
732.057	2113.85
732.243	2058.55
732.429	2140.47
732.615	2064.69
732.801	2046.26
732.987	2044.21
733.173	2040.12
733.359	2070.84
733.545	2066.74
733.731	2038.07
733.917	2117.94
734.103	1911.1
734.289	1970.49
734.475	2083.13
734.661	2140.47
734.847	2083.13
735.033	2060.6
735.219	2119.99
735.404	2058.55
735.59	2142.52
735.776	1976.63
735.962	2056.5
736.148	2033.97
736.333	2107.7
736.519	2093.37
736.705	1929.53
736.89	2048.31
737.076	1937.72
737.262	1984.82
737.447	2058.55
737.633	2023.73
737.819	2126.13
738.004	2076.98
738.19	2021.69
738.375	1921.34
738.561	2038.07
738.747	1962.3
738.932	1917.24
739.118	2042.17
739.303	2027.83
739.489	2046.26
739.674	1874.23
739.859	1839.42
740.045	1861.94
740.23	1896.76
740.416	1870.14
740.601	1943.86
740.786	1997.11
740.972	1927.48
741.157	1872.18
741.342	1788.22
741.528	1935.67
741.713	1947.96
741.898	1743.16
742.084	1823.03
742.269	1816.89
742.454	1853.75
742.639	1919.29
742.824	1919.29
743.01	1747.26
743.195	1956.15
743.38	1857.85
743.565	1825.08
743.75	1859.9
743.935	1902.9
744.12	1747.26
744.305	1714.49
744.49	1790.27
744.675	1882.42
744.86	1808.7
745.045	1831.23
745.23	1747.26
745.415	1745.21
745.6	1739.07
745.785	1751.35
745.97	1718.59
746.155	1683.77
746.34	1714.49
746.525	1739.07
746.71	1739.07
746.895	1595.71
747.079	1648.96
747.264	1608
747.449	1630.52
747.634	1616.19
747.819	1628.48
748.003	1634.62
748.188	1636.67
748.373	1591.61
748.557	1628.48
748.742	1630.52
748.927	1673.53
749.111	1538.37
749.296	1585.47
749.481	1601.85
749.665	1575.23
749.85	1546.56
750.034	1540.41
750.219	1560.89
750.404	1511.74
750.588	1472.83
750.773	1468.73
750.957	1476.93
751.141	1489.21
751.326	1429.82
751.51	1399.1
751.695	1448.26
751.879	1444.16
752.064	1423.68
752.248	1413.44
752.432	1487.17
752.617	1347.9
752.801	1476.93
752.985	1397.06
753.17	1255.75
753.354	1388.86
753.538	1431.87
753.722	1313.09
753.907	1411.39
754.091	1261.89
754.275	1222.98
754.459	1384.77
754.643	1274.18
754.828	1214.79
755.012	1304.9
755.196	1296.71
755.38	1337.66
755.564	1300.8
755.748	1222.98
755.932	1263.94
756.116	1208.64
756.3	1272.13
756.484	1245.51
756.668	1212.74
756.852	1157.44
757.036	1214.79
757.22	1192.26
757.404	1192.26
757.588	1169.73
757.772	1216.83
757.956	1194.31
758.14	1251.65
758.323	1159.49
758.507	1161.54
758.691	1124.68
758.875	1204.55
759.059	1122.63
759.242	1050.95
759.426	1169.73
759.61	1120.58
759.794	1087.81
759.977	1182.02
760.161	1110.34
760.345	1091.91
760.528	1122.63
760.712	1139.01
760.895	964.93
761.079	1044.81
761.263	1059.14
761.446	1079.62
761.63	1050.95
761.813	1020.23
761.997	1022.28
762.18	1009.99
762.364	1026.37
762.547	960.84
762.731	975.17
762.914	932.17
763.098	997.7
763.281	1042.76
763.464	993.61
763.648	1042.76
763.831	915.78
764.015	977.22
764.198	938.31
764.381	895.3
764.564	930.12
764.748	991.56
764.931	960.84
765.114	1063.24
765.297	932.17
765.481	870.73
765.664	1057.09
765.847	846.15
766.03	981.32
766.213	930.12
766.397	907.59
766.58	817.48
766.763	850.25
766.946	897.35
767.129	956.74
767.312	926.02
767.495	903.5
767.678	889.16
767.861	864.58
768.044	919.88
768.227	823.62
768.41	887.11
768.593	870.73
768.776	905.54
768.959	952.65
769.142	885.06
769.324	823.62
769.507	776.52
769.69	805.19
769.873	880.97
770.056	936.26
770.239	821.58
770.421	858.44
770.604	870.73
770.787	797
770.97	889.16
771.152	815.43
771.335	788.81
771.518	764.23
771.7	897.35
771.883	815.43
772.066	739.66
772.248	923.98
772.431	797
772.613	799.05
772.796	772.43
772.978	854.34
773.161	797
773.343	854.34
773.526	801.1
773.708	682.31
773.891	680.27
774.073	733.51
774.256	768.33
774.438	774.47
774.621	702.79
774.803	725.32
774.985	704.84
775.168	715.08
775.35	657.74
775.532	756.04
775.715	643.4
775.897	710.99
776.079	743.75
776.261	649.55
776.444	700.75
776.626	694.6
776.808	670.03
776.99	700.75
777.173	672.08
777.355	665.93
777.537	643.4
777.719	596.3
777.901	627.02
778.083	627.02
778.265	702.79
778.447	682.31
778.629	641.36
778.811	649.55
778.993	624.97
779.175	586.06
779.357	584.01
779.539	600.4
779.721	551.24
779.903	614.73
780.085	624.97
780.267	575.82
780.449	538.96
780.631	600.4
780.812	592.2
780.994	543.05
781.176	635.21
781.358	487.76
781.54	567.63
781.721	569.68
781.903	563.53
782.085	485.71
782.267	567.63
782.448	553.29
782.63	536.91
782.812	502.09
782.993	454.99
783.175	543.05
783.357	500.05
783.538	506.19
783.72	514.38
783.901	532.81
784.083	534.86
784.264	454.99
784.446	416.08
784.627	477.52
784.809	481.61
784.99	471.37
785.172	493.9
785.353	461.13
785.535	381.26
785.716	389.46
785.897	487.76
786.079	414.03
786.26	518.48
786.441	487.76
786.623	334.16
786.804	387.41
786.985	432.46
787.167	416.08
787.348	395.6
787.529	395.6
787.71	395.6
787.891	405.84
788.073	407.89
788.254	362.83
788.435	418.13
788.616	391.5
788.797	395.6
788.978	414.03
789.159	395.6
789.34	350.54
789.522	256.34
789.703	346.45
789.884	397.65
790.065	371.02
790.246	430.41
790.427	371.02
790.607	430.41
790.788	352.59
790.969	395.6
791.15	387.41
791.331	379.22
791.512	321.87
791.693	422.22
791.874	383.31
792.054	368.98
792.235	399.7
792.416	266.58
792.597	332.11
792.778	274.77
792.958	258.39
793.139	307.54
793.32	342.35
793.5	280.91
793.681	317.78
793.862	342.35
794.042	338.26
794.223	289.1
794.404	348.5
794.584	278.87
794.765	295.25
794.945	344.4
795.126	334.16
795.306	334.16
795.487	323.92
795.667	231.76
795.848	373.07
796.028	272.72
796.209	364.88
796.389	272.72
796.57	223.57
796.75	272.72
796.93	334.16
797.111	209.23
797.291	239.95
797.471	332.11
797.652	260.43
797.832	250.19
798.012	282.96
798.192	203.09
798.373	248.15
798.553	319.82
798.733	166.23
798.913	272.72
799.093	246.1
799.274	266.58
799.454	299.34
799.634	233.81
799.814	373.07
799.994	217.43
800.174	225.62
800.354	217.43
800.534	184.66
800.714	289.1
800.894	225.62
801.074	235.86
801.254	184.66
801.434	295.25
801.614	219.47
801.794	194.9
801.974	788.81
802.154	209.23
802.334	239.95
802.514	137.56
802.693	178.51
802.873	248.15
803.053	266.58
803.233	256.34
803.413	227.67
803.592	182.61
803.772	227.67
803.952	168.27
804.131	237.91
804.311	285.01
804.491	217.43
804.67	102.74
804.85	215.38
805.03	272.72
805.209	250.19
805.389	174.42
805.568	168.27
805.748	158.03
805.928	133.46
806.107	231.76
806.287	166.23
806.466	248.15
806.646	227.67
806.825	149.84
807.004	127.32
807.184	256.34
807.363	225.62
807.543	213.33
807.722	160.08
807.901	186.71
808.081	223.57
808.26	135.51
808.439	141.65
808.619	178.51
808.798	182.61
808.977	162.13
809.156	270.67
809.336	239.95
809.515	219.47
809.694	104.79
809.873	190.8
810.052	119.12
810.231	98.64
810.411	186.71
810.59	205.14
810.769	198.99
810.948	219.47
811.127	158.03
811.306	198.99
811.485	117.08
811.664	182.61
811.843	151.89
812.022	145.75
812.201	190.8
812.38	102.74
812.559	119.12
812.737	190.8
812.916	149.84
813.095	72.02
813.274	112.98
813.453	106.84
813.632	203.09
813.811	145.75
813.989	55.64
814.168	158.03
814.347	115.03
814.526	164.18
814.704	100.69
814.883	194.9
815.062	168.27
815.24	190.8
815.419	102.74
815.598	43.35
815.776	76.12
815.955	90.45
816.133	104.79
816.312	100.69
816.49	108.88
816.669	104.79
816.847	112.98
817.026	160.08
817.204	100.69
817.383	112.98
817.561	129.36
817.74	92.5
817.918	133.46
818.097	117.08
818.275	96.6
818.453	174.42
818.632	84.31
818.81	108.88
818.988	117.08
819.167	127.32
819.345	153.94
819.523	94.55
819.701	137.56
819.879	59.73
820.058	117.08
820.236	147.8
820.414	84.31
820.592	59.73
820.77	61.78
820.948	92.5
821.127	29.01
821.305	80.21
821.483	86.36
821.661	151.89
821.839	51.54
822.017	100.69
822.195	133.46
822.373	203.09
822.551	84.31
822.729	133.46
822.907	8.53
823.085	149.84
823.262	31.06
823.44	63.83
823.618	100.69
823.796	158.03
823.974	133.46
824.152	35.16
824.329	37.2
824.507	125.27
824.685	125.27
824.863	86.36
825.04	26.96
825.218	125.27
825.396	67.92
825.574	80.21
825.751	53.59
825.929	112.98
826.107	110.93
826.284	160.08
826.462	67.92
826.639	37.2
826.817	96.6
826.994	227.67
827.172	47.44
827.349	67.92
827.527	61.78
827.704	78.16
827.882	67.92
828.059	76.12
828.237	121.17
828.414	76.12
828.591	24.92
828.769	76.12
828.946	-71.34
829.124	178.51
829.301	102.74
829.478	49.49
829.655	104.79
829.833	151.89
830.01	166.23
830.187	51.54
830.364	67.92
830.542	-5.8
830.719	155.99
830.896	53.59
831.073	137.56
831.25	151.89
831.427	47.44
831.604	104.79
831.782	90.45
831.959	59.73
832.136	112.98
832.313	88.4
832.49	59.73
832.667	2.39
832.844	92.5
833.021	98.64
833.198	51.54
833.374	29.01
833.551	53.59
833.728	59.73
833.905	98.64
834.082	-7.85
834.259	176.47
834.436	133.46
834.612	43.35
834.789	76.12
834.966	55.64
835.143	35.16
835.319	18.77
835.496	39.25
835.673	-22.19
835.85	92.5
836.026	45.4
836.203	61.78
836.38	59.73
836.556	65.88
836.733	39.25
836.909	6.49
837.086	55.64
837.262	33.11
837.439	69.97
837.616	72.02
837.792	90.45
837.968	18.77
838.145	6.49
838.321	92.5
838.498	84.31
838.674	102.74
838.851	49.49
839.027	59.73
839.203	10.58
839.38	26.96
839.556	-1.71
839.732	43.35
839.909	78.16
840.085	137.56
840.261	35.16
840.437	112.98
840.614	8.53
840.79	92.5
840.966	117.08
841.142	88.4
841.318	-16.04
841.494	63.83
841.671	43.35
841.847	12.63
842.023	31.06
842.199	31.06
842.375	102.74
842.551	18.77
842.727	12.63
842.903	43.35
843.079	-1.71
843.255	119.12
843.431	-18.09
843.607	37.2
843.783	-59.05
843.959	127.32
844.134	-5.8
844.31	160.08
844.486	35.16
844.662	43.35
844.838	2.39
845.013	76.12
845.189	39.25
845.365	72.02
845.541	6.49
845.716	59.73
845.892	31.06
846.068	-3.75
846.244	-13.99
846.419	6.49
846.595	26.96
846.77	78.16
846.946	72.02
847.122	110.93
847.297	39.25
847.473	80.21
847.648	-1.71
847.824	63.83
847.999	31.06
848.175	94.55
848.35	63.83
848.526	80.21
848.701	59.73
848.876	49.49
849.052	76.12
849.227	-1.71
849.403	18.77
849.578	57.68
849.753	51.54
849.929	65.88
850.104	55.64
850.279	125.27
850.454	8.53
850.63	29.01
850.805	80.21
850.98	80.21
851.155	29.01
851.33	43.35
851.505	-13.99
851.681	39.25
851.856	-38.57
852.031	16.73
852.206	10.58
852.381	20.82
852.556	104.79
852.731	43.35
852.906	78.16
853.081	33.11
853.256	6.49
853.431	90.45
853.606	47.44
853.781	37.2
853.956	-7.85
854.131	37.2
854.305	-38.57
854.48	33.11
854.655	-22.19
854.83	-38.57
855.005	35.16
855.18	24.92
855.354	18.77
855.529	20.82
855.704	29.01
855.879	84.31
856.053	2.39
856.228	-20.14
856.403	-18.09
856.577	37.2
856.752	-32.43
856.926	59.73
857.101	43.35
857.276	12.63
857.45	51.54
857.625	-7.85
857.799	18.77
857.974	29.01
858.148	-38.57
858.323	14.68
858.497	33.11
858.672	84.31
858.846	69.97
859.02	63.83
859.195	-5.8
859.369	12.63
859.543	12.63
859.718	-11.95
859.892	51.54
860.066	33.11
860.241	-11.95
860.415	-5.8
860.589	20.82
860.763	2.39
860.938	-22.19
861.112	121.17
861.286	22.87
861.46	-22.19
861.634	86.36
861.808	20.82
861.982	-9.9
862.157	-5.8
862.331	-1.71
862.505	10.58
862.679	12.63
862.853	-77.48
863.027	-3.75
863.201	92.5
863.375	-71.34
863.549	10.58
863.722	92.5
863.896	67.92
864.07	-38.57
864.244	-38.57
864.418	35.16
864.592	22.87
864.766	-28.33
864.939	72.02
865.113	10.58
865.287	22.87
865.461	-30.38
865.634	-46.76
865.808	-20.14
865.982	-48.81
866.156	-44.71
866.329	35.16
866.503	57.68
866.676	-11.95
866.85	35.16
867.024	4.44
867.197	-30.38
867.371	47.44
867.544	14.68
867.718	18.77
867.891	35.16
868.065	-50.86
868.238	2.39
868.412	31.06
868.585	-22.19
868.759	-50.86
868.932	43.35
869.105	-46.76
869.279	-5.8
869.452	2.39
869.625	51.54
869.799	31.06
869.972	-5.8
870.145	16.73
870.319	-18.09
870.492	4.44
870.665	22.87
870.838	61.78
871.011	8.53
871.185	-46.76
871.358	-44.71
871.531	29.01
871.704	-34.47
871.877	84.31
872.05	-1.71
872.223	-13.99
872.396	51.54
872.569	10.58
872.742	-136.87
872.915	43.35
873.088	22.87
873.261	59.73
873.434	-11.95
873.607	43.35
873.78	45.4
873.953	-54.95
874.126	-52.91
874.299	29.01
874.471	-11.95
874.644	26.96
874.817	-11.95
874.99	86.36
875.163	-13.99
875.335	92.5
875.508	2.39
875.681	39.25
875.853	59.73
876.026	59.73
876.199	26.96
876.371	4.44
876.544	43.35
876.717	59.73
876.889	76.12
877.062	-22.19
877.234	-40.62
877.407	-13.99
877.579	33.11
877.752	8.53
877.924	-3.75
878.097	72.02
878.269	20.82
878.442	74.07
878.614	-32.43
878.786	-28.33
878.959	29.01
879.131	37.2
879.303	4.44
879.476	4.44
879.648	-5.8
879.82	-26.28
879.993	-18.09
880.165	-5.8
880.337	-32.43
880.509	45.4
880.681	-48.81
880.854	16.73
881.026	-3.75
881.198	6.49
881.37	-16.04
881.542	4.44
881.714	-69.29
881.886	29.01
882.058	-22.19
882.23	69.97
882.402	-36.52
882.574	20.82
882.746	-71.34
882.918	-54.95
883.09	2.39
883.262	-9.9
883.434	-5.8
883.606	59.73
883.778	-11.95
883.95	8.53
884.122	-59.05
884.293	-5.8
884.465	29.01
884.637	61.78
884.809	-77.48
884.98	10.58
885.152	2.39
885.324	-5.8
885.496	-30.38
885.667	29.01
885.839	-40.62
886.011	10.58
886.182	-5.8
886.354	8.53
886.525	-24.23
886.697	16.73
886.869	35.16
887.04	-18.09
887.212	-20.14
887.383	82.26
887.555	-26.28
887.726	-22.19
887.897	53.59
888.069	-28.33
888.24	-13.99
888.412	45.4
888.583	4.44
888.754	-36.52
888.926	-50.86
889.097	16.73
889.268	-28.33
889.44	10.58
889.611	26.96
889.782	-1.71
889.953	-18.09
890.125	26.96
890.296	47.44
890.467	-1.71
890.638	26.96
890.809	39.25
890.98	-18.09
891.151	43.35
891.323	65.88
891.494	-38.57
891.665	-24.23
891.836	20.82
892.007	-22.19
892.178	-32.43
892.349	-9.9
892.52	-44.71
892.691	4.44
892.862	-46.76
893.032	-20.14
893.203	10.58
893.374	-32.43
893.545	24.92
893.716	-65.19
893.887	43.35
894.057	6.49
894.228	45.4
894.399	-42.67
894.57	20.82
894.74	65.88
894.911	45.4
895.082	6.49
895.253	18.77
895.423	-24.23
895.594	53.59
895.764	-18.09
895.935	-22.19
896.106	76.12
896.276	-30.38
896.447	47.44
896.617	-63.15
896.788	-81.58
896.958	-59.05
897.129	-11.95
897.299	-30.38
897.47	22.87
897.64	-5.8
897.81	10.58
897.981	-7.85
898.151	-30.38
898.322	92.5
898.492	-65.19
898.662	-44.71
898.832	-22.19
899.003	35.16
899.173	29.01
899.343	14.68
899.513	-44.71
