Data from USB4F104151__13__14-42-37-248.txt Node

Date: Thu Mar 13 14:42:37 EDT 2025
User: louis
Spectrometer: USB4F10415
Trigger mode: 4
Integration Time (sec): 2.000000E-2
Scans to average: 1
Electric dark correction enabled: true
Nonlinearity correction enabled: false
Boxcar width: 0
XAxis mode: Wavelengths
Number of Pixels in Spectrum: 3648
>>>>>Begin Spectral Data<<<<<
178.204	-54.78
178.424	-54.78
178.644	-54.78
178.864	-87.55
179.084	-99.84
179.304	-67.07
179.524	-30.21
179.744	-67.07
179.964	78.33
180.184	16.9
180.404	18.94
180.624	55.81
180.844	4.61
181.064	14.85
181.283	-28.16
181.503	29.18
181.723	-26.11
181.943	-62.98
182.163	57.86
182.383	-30.21
182.602	55.81
182.822	74.24
183.042	41.47
183.262	-1.54
183.482	14.85
183.701	-30.21
183.921	31.23
184.141	-34.3
184.361	-7.68
184.58	33.28
184.8	25.09
185.02	64
185.239	0.51
185.459	-15.87
185.679	12.8
185.898	-48.64
186.118	82.43
186.338	66.05
186.557	41.47
186.777	8.7
186.997	57.86
187.216	6.66
187.436	156.16
187.655	59.9
187.875	80.38
188.095	64
188.314	51.71
188.534	72.19
188.753	43.52
188.973	64
189.192	39.42
189.412	6.66
189.631	-3.58
189.851	98.81
190.07	51.71
190.29	-67.07
190.509	0.51
190.729	25.09
190.948	-15.87
191.168	104.96
191.387	47.62
191.607	-34.3
191.826	51.71
192.045	68.09
192.265	-17.92
192.484	29.18
192.704	45.57
192.923	27.14
193.142	43.52
193.362	39.42
193.581	92.67
193.8	68.09
194.02	31.23
194.239	-34.3
194.458	29.18
194.678	-1.54
194.897	98.81
195.116	33.28
195.335	27.14
195.555	94.72
195.774	23.04
195.993	33.28
196.212	23.04
196.432	64
196.651	8.7
196.87	2.56
197.089	41.47
197.308	96.77
197.528	25.09
197.747	6.66
197.966	55.81
198.185	76.29
198.404	-5.63
198.623	45.57
198.842	51.71
199.062	51.71
199.281	43.52
199.5	10.75
199.719	53.76
199.938	-17.92
200.157	-46.59
200.376	16.9
200.595	6.66
200.814	47.62
201.033	8.7
201.252	16.9
201.471	43.52
201.69	10.75
201.909	80.38
202.128	20.99
202.347	57.86
202.566	2.56
202.785	-17.92
203.004	98.81
203.223	72.19
203.442	37.38
203.661	-3.58
203.879	55.81
204.098	39.42
204.317	8.7
204.536	78.33
204.755	59.9
204.974	82.43
205.193	80.38
205.411	6.66
205.63	-9.73
205.849	39.42
206.068	53.76
206.287	31.23
206.505	25.09
206.724	-48.64
206.943	47.62
207.162	0.51
207.381	0.51
207.599	94.72
207.818	-38.4
208.037	14.85
208.255	-17.92
208.474	14.85
208.693	66.05
208.911	94.72
209.13	25.09
209.349	14.85
209.567	72.19
209.786	88.57
210.005	41.47
210.223	8.7
210.442	-13.82
210.661	84.48
210.879	41.47
211.098	31.23
211.316	14.85
211.535	55.81
211.753	14.85
211.972	-30.21
212.191	31.23
212.409	27.14
212.628	27.14
212.846	16.9
213.065	96.77
213.283	51.71
213.502	6.66
213.72	57.86
213.938	72.19
214.157	0.51
214.375	64
214.594	31.23
214.812	90.62
215.031	51.71
215.249	20.99
215.467	64
215.686	39.42
215.904	80.38
216.122	23.04
216.341	18.94
216.559	-30.21
216.778	27.14
216.996	86.53
217.214	49.66
217.432	-1.54
217.651	-22.02
217.869	102.91
218.087	82.43
218.306	16.9
218.524	88.57
218.742	47.62
218.96	31.23
219.179	27.14
219.397	57.86
219.615	68.09
219.833	23.04
220.051	-13.82
220.27	2.56
220.488	33.28
220.706	37.38
220.924	-19.97
221.142	8.7
221.36	33.28
221.578	33.28
221.796	-15.87
222.015	0.51
222.233	72.19
222.451	145.92
222.669	78.33
222.887	14.85
223.105	-5.63
223.323	16.9
223.541	-17.92
223.759	-28.16
223.977	16.9
224.195	90.62
224.413	119.29
224.631	90.62
224.849	16.9
225.067	82.43
225.285	-58.88
225.503	61.95
225.721	6.66
225.939	68.09
226.157	-9.73
226.375	170.49
226.592	-54.78
226.81	-34.3
227.028	14.85
227.246	111.1
227.464	43.52
227.682	-13.82
227.9	33.28
228.117	35.33
228.335	43.52
228.553	72.19
228.771	8.7
228.989	55.81
229.206	86.53
229.424	-1.54
229.642	-1.54
229.86	33.28
230.077	45.57
230.295	59.9
230.513	25.09
230.731	80.38
230.948	137.73
231.166	100.86
231.384	39.42
231.601	12.8
231.819	14.85
232.037	55.81
232.254	-17.92
232.472	88.57
232.689	6.66
232.907	59.9
233.125	4.61
233.342	33.28
233.56	-42.5
233.777	6.66
233.995	51.71
234.213	14.85
234.43	16.9
234.648	12.8
234.865	-26.11
235.083	72.19
235.3	16.9
235.518	68.09
235.735	82.43
235.953	33.28
236.17	72.19
236.388	12.8
236.605	-101.89
236.822	88.57
237.04	64
237.257	0.51
237.475	51.71
237.692	-1.54
237.909	-13.82
238.127	59.9
238.344	25.09
238.562	-1.54
238.779	74.24
238.996	18.94
239.214	39.42
239.431	102.91
239.648	49.66
239.865	55.81
240.083	-5.63
240.3	0.51
240.517	8.7
240.735	-38.4
240.952	16.9
241.169	139.77
241.386	80.38
241.603	25.09
241.821	-30.21
242.038	59.9
242.255	31.23
242.472	31.23
242.689	37.38
242.907	107.01
243.124	-7.68
243.341	14.85
243.558	14.85
243.775	-38.4
243.992	-3.58
244.209	10.75
244.426	82.43
244.643	31.23
244.86	74.24
245.078	104.96
245.295	29.18
245.512	51.71
245.729	25.09
245.946	18.94
246.163	-5.63
246.38	84.48
246.597	72.19
246.814	12.8
247.031	39.42
247.248	141.82
247.464	47.62
247.681	74.24
247.898	121.34
248.115	64
248.332	-9.73
248.549	88.57
248.766	70.14
248.983	84.48
249.2	39.42
249.417	-9.73
249.633	8.7
249.85	10.75
250.067	-17.92
250.284	23.04
250.501	47.62
250.717	18.94
250.934	-1.54
251.151	14.85
251.368	72.19
251.585	39.42
251.801	29.18
252.018	16.9
252.235	-17.92
252.451	39.42
252.668	-24.06
252.885	31.23
253.102	96.77
253.318	31.23
253.535	-67.07
253.752	84.48
253.968	53.76
254.185	-26.11
254.401	55.81
254.618	47.62
254.835	0.51
255.051	59.9
255.268	76.29
255.484	43.52
255.701	12.8
255.917	131.58
256.134	14.85
256.351	16.9
256.567	23.04
256.784	33.28
257	8.7
257.217	131.58
257.433	-26.11
257.65	33.28
257.866	39.42
258.082	88.57
258.299	6.66
258.515	39.42
258.732	-17.92
258.948	-3.58
259.165	41.47
259.381	72.19
259.597	51.71
259.814	6.66
260.03	12.8
260.246	2.56
260.463	33.28
260.679	35.33
260.895	61.95
261.112	8.7
261.328	41.47
261.544	2.56
261.761	61.95
261.977	49.66
262.193	25.09
262.409	39.42
262.626	74.24
262.842	70.14
263.058	39.42
263.274	55.81
263.49	51.71
263.707	47.62
263.923	2.56
264.139	-73.21
264.355	39.42
264.571	6.66
264.787	-9.73
265.004	47.62
265.22	25.09
265.436	16.9
265.652	59.9
265.868	-1.54
266.084	121.34
266.3	39.42
266.516	-40.45
266.732	-9.73
266.948	23.04
267.164	72.19
267.38	35.33
267.596	43.52
267.812	57.86
268.028	102.91
268.244	16.9
268.46	29.18
268.676	6.66
268.892	-32.26
269.108	49.66
269.324	4.61
269.54	51.71
269.756	145.92
269.972	47.62
270.188	39.42
270.403	-62.98
270.619	0.51
270.835	102.91
271.051	14.85
271.267	2.56
271.483	8.7
271.698	47.62
271.914	18.94
272.13	14.85
272.346	76.29
272.562	8.7
272.777	55.81
272.993	-5.63
273.209	72.19
273.425	-1.54
273.64	-22.02
273.856	37.38
274.072	-34.3
274.287	-11.78
274.503	6.66
274.719	98.81
274.934	-1.54
275.15	-71.17
275.366	6.66
275.581	8.7
275.797	-9.73
276.012	25.09
276.228	18.94
276.444	12.8
276.659	31.23
276.875	10.75
277.09	39.42
277.306	8.7
277.521	51.71
277.737	47.62
277.952	14.85
278.168	8.7
278.383	10.75
278.599	59.9
278.814	8.7
279.03	10.75
279.245	98.81
279.461	31.23
279.676	31.23
279.892	23.04
280.107	23.04
280.322	-38.4
280.538	59.9
280.753	-26.11
280.969	57.86
281.184	74.24
281.399	104.96
281.615	-7.68
281.83	14.85
282.045	16.9
282.26	55.81
282.476	20.99
282.691	84.48
282.906	14.85
283.122	-26.11
283.337	47.62
283.552	-5.63
283.767	10.75
283.983	64
284.198	133.63
284.413	8.7
284.628	-42.5
284.843	27.14
285.058	31.23
285.274	-19.97
285.489	-3.58
285.704	61.95
285.919	-7.68
286.134	-15.87
286.349	2.56
286.564	-7.68
286.779	119.29
286.995	39.42
287.21	43.52
287.425	47.62
287.64	-42.5
287.855	31.23
288.07	-9.73
288.285	72.19
288.5	68.09
288.715	47.62
288.93	47.62
289.145	-1.54
289.36	78.33
289.575	4.61
289.79	39.42
290.004	49.66
290.219	145.92
290.434	-17.92
290.649	35.33
290.864	-9.73
291.079	-40.45
291.294	10.75
291.509	80.38
291.724	64
291.938	-9.73
292.153	121.34
292.368	-1.54
292.583	88.57
292.798	39.42
293.012	98.81
293.227	113.15
293.442	59.9
293.657	107.01
293.871	113.15
294.086	57.86
294.301	64
294.516	64
294.73	57.86
294.945	31.23
295.16	57.86
295.374	35.33
295.589	68.09
295.804	23.04
296.018	31.23
296.233	41.47
296.447	49.66
296.662	18.94
296.877	14.85
297.091	8.7
297.306	76.29
297.52	41.47
297.735	10.75
297.949	-79.36
298.164	6.66
298.378	-24.06
298.593	6.66
298.807	-5.63
299.022	25.09
299.236	6.66
299.451	-40.45
299.665	35.33
299.88	18.94
300.094	-15.87
300.309	109.05
300.523	139.77
300.737	23.04
300.952	84.48
301.166	-28.16
301.381	2.56
301.595	23.04
301.809	-1.54
302.024	29.18
302.238	25.09
302.452	35.33
302.667	72.19
302.881	66.05
303.095	135.68
303.309	-1.54
303.524	55.81
303.738	104.96
303.952	-1.54
304.166	-7.68
304.381	-50.69
304.595	25.09
304.809	64
305.023	55.81
305.237	68.09
305.452	49.66
305.666	-17.92
305.88	45.57
306.094	49.66
306.308	-32.26
306.522	121.34
306.736	53.76
306.95	90.62
307.164	47.62
307.379	2.56
307.593	45.57
307.807	68.09
308.021	47.62
308.235	6.66
308.449	16.9
308.663	25.09
308.877	131.58
309.091	-32.26
309.305	57.86
309.519	31.23
309.733	41.47
309.947	6.66
310.161	68.09
310.374	70.14
310.588	53.76
310.802	33.28
311.016	59.9
311.23	31.23
311.444	0.51
311.658	35.33
311.872	111.1
312.085	41.47
312.299	39.42
312.513	74.24
312.727	113.15
312.941	53.76
313.154	84.48
313.368	-32.26
313.582	-9.73
313.796	-7.68
314.009	43.52
314.223	37.38
314.437	64
314.651	41.47
314.864	-9.73
315.078	51.71
315.292	23.04
315.505	10.75
315.719	-11.78
315.933	64
316.146	2.56
316.36	49.66
316.573	80.38
316.787	72.19
317.001	-56.83
317.214	8.7
317.428	10.75
317.641	-30.21
317.855	10.75
318.068	39.42
318.282	23.04
318.495	107.01
318.709	37.38
318.922	59.9
319.136	70.14
319.349	-7.68
319.563	27.14
319.776	43.52
319.99	55.81
320.203	8.7
320.417	-24.06
320.63	49.66
320.843	33.28
321.057	53.76
321.27	33.28
321.483	49.66
321.697	43.52
321.91	25.09
322.124	51.71
322.337	31.23
322.55	23.04
322.763	59.9
322.977	27.14
323.19	-24.06
323.403	-26.11
323.617	25.09
323.83	76.29
324.043	68.09
324.256	47.62
324.469	14.85
324.683	31.23
324.896	0.51
325.109	6.66
325.322	23.04
325.535	49.66
325.748	14.85
325.962	43.52
326.175	14.85
326.388	45.57
326.601	55.81
326.814	-13.82
327.027	8.7
327.24	39.42
327.453	-7.68
327.666	45.57
327.879	90.62
328.092	68.09
328.305	74.24
328.518	88.57
328.731	10.75
328.944	47.62
329.157	59.9
329.37	55.81
329.583	86.53
329.796	35.33
330.009	6.66
330.222	41.47
330.435	-15.87
330.648	98.81
330.861	-32.26
331.073	37.38
331.286	64
331.499	23.04
331.712	6.66
331.925	74.24
332.138	12.8
332.35	100.86
332.563	2.56
332.776	35.33
332.989	-30.21
333.202	14.85
333.414	109.05
333.627	33.28
333.84	43.52
334.053	39.42
334.265	31.23
334.478	41.47
334.691	55.81
334.903	-9.73
335.116	14.85
335.329	82.43
335.541	-1.54
335.754	39.42
335.966	-22.02
336.179	72.19
336.392	16.9
336.604	4.61
336.817	23.04
337.029	55.81
337.242	-1.54
337.454	2.56
337.667	55.81
337.88	145.92
338.092	31.23
338.305	27.14
338.517	47.62
338.729	33.28
338.942	72.19
339.154	80.38
339.367	-5.63
339.579	39.42
339.792	-19.97
340.004	80.38
340.217	100.86
340.429	70.14
340.641	27.14
340.854	49.66
341.066	-1.54
341.278	64
341.491	37.38
341.703	18.94
341.915	31.23
342.128	51.71
342.34	-17.92
342.552	74.24
342.764	98.81
342.977	39.42
343.189	92.67
343.401	-71.17
343.613	47.62
343.826	0.51
344.038	55.81
344.25	-40.45
344.462	29.18
344.674	29.18
344.886	43.52
345.099	31.23
345.311	-7.68
345.523	16.9
345.735	-26.11
345.947	74.24
346.159	6.66
346.371	20.99
346.583	53.76
346.795	158.21
347.007	4.61
347.219	33.28
347.431	-11.78
347.643	72.19
347.855	49.66
348.067	203.26
348.279	-19.97
348.491	31.23
348.703	121.34
348.915	64
349.127	49.66
349.339	-1.54
349.551	86.53
349.763	66.05
349.975	47.62
350.187	90.62
350.399	92.67
350.61	76.29
350.822	55.81
351.034	92.67
351.246	31.23
351.458	113.15
351.669	33.28
351.881	96.77
352.093	35.33
352.305	-38.4
352.517	88.57
352.728	59.9
352.94	115.2
353.152	59.9
353.363	39.42
353.575	98.81
353.787	43.52
353.999	76.29
354.21	0.51
354.422	98.81
354.633	14.85
354.845	55.81
355.057	14.85
355.268	76.29
355.48	51.71
355.692	80.38
355.903	47.62
356.115	57.86
356.326	-9.73
356.538	31.23
356.749	51.71
356.961	145.92
357.172	25.09
357.384	18.94
357.595	74.24
357.807	72.19
358.018	64
358.23	14.85
358.441	2.56
358.653	96.77
358.864	64
359.075	8.7
359.287	72.19
359.498	18.94
359.709	55.81
359.921	72.19
360.132	6.66
360.344	47.62
360.555	6.66
360.766	121.34
360.977	39.42
361.189	104.96
361.4	92.67
361.611	72.19
361.823	61.95
362.034	49.66
362.245	29.18
362.456	14.85
362.667	31.23
362.879	53.76
363.09	41.47
363.301	-5.63
363.512	80.38
363.723	31.23
363.935	14.85
364.146	14.85
364.357	18.94
364.568	76.29
364.779	16.9
364.99	152.06
365.201	-24.06
365.412	72.19
365.623	-3.58
365.834	47.62
366.045	80.38
366.256	86.53
366.467	82.43
366.678	147.97
366.889	66.05
367.1	47.62
367.311	64
367.522	109.05
367.733	16.9
367.944	33.28
368.155	-17.92
368.366	104.96
368.577	27.14
368.788	59.9
368.999	-1.54
369.209	6.66
369.42	72.19
369.631	193.02
369.842	127.49
370.053	84.48
370.264	18.94
370.474	0.51
370.685	27.14
370.896	47.62
371.107	59.9
371.317	76.29
371.528	31.23
371.739	-17.92
371.95	31.23
372.16	57.86
372.371	39.42
372.582	53.76
372.792	74.24
373.003	61.95
373.214	27.14
373.424	8.7
373.635	6.66
373.846	31.23
374.056	8.7
374.267	47.62
374.477	39.42
374.688	-3.58
374.898	55.81
375.109	80.38
375.319	90.62
375.53	113.15
375.74	39.42
375.951	113.15
376.161	74.24
376.372	131.58
376.582	35.33
376.793	-42.5
377.003	-1.54
377.214	84.48
377.424	49.66
377.635	49.66
377.845	-19.97
378.055	133.63
378.266	68.09
378.476	25.09
378.686	90.62
378.897	78.33
379.107	10.75
379.317	39.42
379.528	55.81
379.738	74.24
379.948	64
380.158	72.19
380.369	6.66
380.579	84.48
380.789	33.28
380.999	76.29
381.21	39.42
381.42	143.87
381.63	72.19
381.84	80.38
382.05	55.81
382.261	90.62
382.471	72.19
382.681	98.81
382.891	47.62
383.101	43.52
383.311	33.28
383.521	80.38
383.731	154.11
383.941	14.85
384.151	-1.54
384.361	104.96
384.571	76.29
384.781	20.99
384.991	59.9
385.201	154.11
385.411	70.14
385.621	31.23
385.831	84.48
386.041	80.38
386.251	27.14
386.461	100.86
386.671	66.05
386.881	104.96
387.091	33.28
387.301	76.29
387.511	49.66
387.72	10.75
387.93	104.96
388.14	-1.54
388.35	43.52
388.56	137.73
388.769	90.62
388.979	57.86
389.189	8.7
389.399	25.09
389.609	154.11
389.818	98.81
390.028	25.09
390.238	86.53
390.447	104.96
390.657	-17.92
390.867	82.43
391.076	68.09
391.286	121.34
391.496	68.09
391.705	16.9
391.915	25.09
392.125	104.96
392.334	80.38
392.544	96.77
392.753	18.94
392.963	92.67
393.172	35.33
393.382	80.38
393.591	10.75
393.801	72.19
394.01	182.78
394.22	61.95
394.429	121.34
394.639	43.52
394.848	115.2
395.058	-9.73
395.267	72.19
395.477	186.88
395.686	76.29
395.895	113.15
396.105	113.15
396.314	23.04
396.524	109.05
396.733	129.53
396.942	96.77
397.152	117.25
397.361	137.73
397.57	66.05
397.78	129.53
397.989	143.87
398.198	141.82
398.407	39.42
398.617	66.05
398.826	66.05
399.035	88.57
399.244	84.48
399.453	131.58
399.663	39.42
399.872	131.58
400.081	76.29
400.29	57.86
400.499	98.81
400.708	129.53
400.917	92.67
401.127	90.62
401.336	125.44
401.545	125.44
401.754	90.62
401.963	139.77
402.172	37.38
402.381	35.33
402.59	72.19
402.799	80.38
403.008	121.34
403.217	70.14
403.426	162.3
403.635	107.01
403.844	141.82
404.053	-1.54
404.262	113.15
404.471	252.41
404.68	82.43
404.888	76.29
405.097	121.34
405.306	139.77
405.515	117.25
405.724	121.34
405.933	104.96
406.142	123.39
406.35	178.69
406.559	98.81
406.768	174.59
406.977	213.5
407.185	170.49
407.394	158.21
407.603	186.88
407.812	107.01
408.02	193.02
408.229	295.42
408.438	268.8
408.646	223.74
408.855	207.36
409.064	227.84
409.272	201.21
409.481	252.41
409.69	203.26
409.898	174.59
410.107	260.6
410.315	272.89
410.524	231.93
410.733	276.99
410.941	258.56
411.15	344.57
411.358	295.42
411.567	328.19
411.775	342.52
411.984	434.68
412.192	399.87
412.401	365.05
412.609	451.07
412.818	469.5
413.026	416.25
413.234	406.01
413.443	399.87
413.651	498.17
413.86	459.26
414.068	449.02
414.276	514.55
414.485	438.78
414.693	608.76
414.901	561.66
415.11	557.56
415.318	571.9
415.526	557.56
415.734	629.24
415.943	635.38
416.151	621.05
416.359	645.62
416.567	682.49
416.776	758.26
416.984	752.12
417.192	883.19
417.4	807.41
417.608	809.46
417.817	819.7
418.025	868.85
418.233	874.99
418.441	977.39
418.649	926.19
418.857	942.58
419.065	1022.45
419.273	1042.93
419.481	1042.93
419.689	1178.09
419.897	1219.05
420.105	1182.19
420.313	1253.87
420.521	1350.12
420.729	1325.55
420.937	1354.22
421.145	1415.66
421.353	1423.85
421.561	1579.5
421.769	1489.39
421.977	1665.51
422.185	1513.96
422.393	1718.76
422.601	1802.72
422.809	1843.68
423.017	1769.96
423.224	1800.68
423.432	2044.38
423.64	1915.36
423.848	2095.58
424.056	2005.47
424.263	2251.23
424.471	2316.76
424.679	2341.34
424.887	2480.6
425.094	2490.84
425.302	2499.03
425.51	2537.95
425.718	2603.48
425.925	2574.81
426.133	2820.56
426.341	2965.97
426.548	3021.27
426.756	3148.24
426.964	3013.07
427.171	3314.13
427.379	3326.41
427.586	3461.58
427.794	3455.44
428.001	3688.9
428.209	3891.65
428.417	3834.31
428.624	4082.11
428.832	4057.54
429.039	3996.1
429.247	4096.45
429.454	4405.69
429.662	4669.88
429.869	4489.66
430.076	4954.55
430.284	4504
430.491	4686.26
430.699	5005.75
430.906	4985.27
431.114	5138.87
431.321	5151.15
431.528	5413.29
431.736	5708.2
431.943	6132.13
432.15	5892.52
432.358	6007.2
432.565	6183.33
432.772	6252.96
432.979	6633.88
433.187	6744.47
433.394	6717.85
433.601	7174.55
433.808	7055.76
434.016	7260.56
434.223	7436.69
434.43	7963.01
434.637	7895.43
434.844	8405.38
435.052	8538.49
435.259	8401.28
435.466	8249.73
435.673	8069.51
435.88	8905.08
436.087	9421.17
436.294	9140.6
436.501	9142.64
436.708	9322.87
436.915	9580.91
437.122	10176.87
437.329	9898.34
437.537	10316.13
437.743	10541.41
437.95	10410.34
438.157	10907.99
438.364	11467.09
438.571	11323.73
438.778	11276.63
438.985	12456.26
439.192	11854.16
439.399	12321.09
439.606	12282.18
439.813	12908.86
440.02	13664.56
440.227	13263.16
440.433	13142.33
440.64	13639.98
440.847	13560.11
441.054	14043.43
441.261	14524.71
441.467	14618.91
441.674	14825.76
441.881	15300.89
442.088	15204.63
442.294	15284.5
442.501	15528.21
442.708	15995.15
442.914	16546.05
443.121	17303.8
443.328	16857.34
443.534	17873.14
443.741	17598.71
443.948	17191.16
444.154	18694.37
444.361	18565.35
444.568	18565.35
444.774	18663.65
444.981	18786.53
445.187	19392.73
445.394	20203.72
445.6	19769.55
445.807	22114.48
446.013	21016.77
446.22	21412.03
446.426	22300.84
446.633	22255.79
446.839	23263.39
447.046	22306.99
447.252	23464.09
447.459	23718.04
447.665	23537.82
447.871	24606.86
448.078	25438.33
448.284	24326.28
448.491	25172.1
448.697	25903.22
448.903	26275.95
449.11	26519.66
449.316	26284.14
449.522	26642.54
449.728	27324.51
449.935	27730.01
450.141	27525.21
450.347	28301.39
450.553	27328.61
450.76	27914.33
450.966	29046.85
451.172	28362.83
451.378	29362.24
451.584	28432.46
451.791	29007.94
451.997	28991.56
452.203	29681.72
452.409	30050.36
452.615	29771.83
452.821	28694.6
453.027	27949.14
453.233	29874.23
453.44	28872.78
453.646	28805.19
453.852	28971.08
454.058	29757.5
454.264	28725.32
454.47	29454.4
454.676	28739.66
454.882	29642.81
455.088	27199.58
455.294	27600.99
455.5	27908.18
455.705	28063.83
455.911	27326.56
456.117	26368.11
456.323	26327.15
456.529	24807.56
456.735	26054.77
456.941	25294.97
457.147	25067.65
457.352	24397.96
457.558	23892.12
457.764	23980.18
457.97	23640.22
458.176	23281.82
458.381	22960.29
458.587	22034.61
458.793	21936.31
458.999	20861.12
459.204	22401.19
459.41	21874.87
459.616	20404.42
459.821	20431.05
460.027	20523.21
460.233	19960.02
460.438	19304.67
460.644	19304.67
460.85	18196.71
461.055	17783.02
461.261	18077.93
461.466	16720.13
461.672	16328.97
461.878	17494.26
462.083	16183.56
462.289	15862.03
462.494	15925.52
462.7	14956.83
462.905	14711.07
463.111	15431.96
463.316	15159.58
463.522	14950.68
463.727	14915.87
463.932	14960.92
464.138	14776.61
464.343	14928.16
464.549	14440.74
464.754	14919.96
464.959	14768.41
465.165	14899.48
465.37	14194.98
465.575	13771.05
465.781	14584.1
465.986	14459.17
466.191	13936.94
466.397	13750.57
466.602	13056.31
466.807	13355.32
467.012	13541.68
467.218	13496.63
467.423	13089.08
467.628	12949.82
467.833	13769.01
468.038	13199.67
468.244	12970.3
468.449	13418.8
468.654	13029.69
468.859	13156.66
469.064	12884.28
469.269	12560.7
469.474	12638.53
469.679	12912.95
469.885	12151.11
470.09	12706.11
470.295	12515.65
470.5	12173.64
470.705	12196.17
470.91	12036.42
471.115	11755.85
471.32	11878.73
471.525	12020.04
471.73	11782.48
471.935	11766.09
472.139	11333.97
472.344	11721.04
472.549	11479.38
472.754	11174.23
472.959	11147.61
473.164	10711.39
473.369	10518.88
473.574	11133.27
473.778	11043.16
473.983	10768.73
474.188	10924.38
474.393	10352.99
474.598	10291.55
474.802	10352.99
475.007	10248.55
475.212	10088.81
475.417	9974.12
475.621	9910.63
475.826	10107.24
476.031	9570.67
476.235	9341.3
476.44	9689.45
476.645	9380.21
476.849	9507.18
477.054	9421.17
477.259	9263.47
477.463	9120.12
477.668	9107.83
477.872	9214.32
478.077	9062.77
478.282	8669.56
478.486	8771.96
478.691	8577.41
478.895	8841.59
479.1	8368.51
479.304	8528.25
479.509	8307.07
479.713	8477.05
479.918	8239.49
480.122	8128.9
480.326	8395.14
480.531	8149.38
480.735	8200.58
480.94	8092.04
481.144	8511.87
481.348	7883.14
481.553	8204.67
481.757	8124.8
481.961	8067.46
482.166	8116.61
482.37	8124.8
482.574	7975.3
482.778	7928.2
482.983	8173.96
483.187	7917.96
483.391	7967.11
483.595	7991.69
483.8	8173.96
484.004	7946.63
484.208	8044.93
484.412	8147.33
484.616	7940.49
484.821	8028.55
485.025	7913.86
485.229	8040.84
485.433	7956.87
485.637	8059.27
485.841	7870.86
486.045	8001.93
486.249	8028.55
486.453	8059.27
486.657	8188.29
486.861	8116.61
487.065	7760.27
487.269	7979.4
487.473	8010.12
487.677	7897.48
487.881	8231.3
488.085	8006.02
488.289	8202.63
488.493	7977.35
488.697	8036.74
488.901	8104.32
489.105	8141.19
489.309	8329.6
489.512	8302.98
489.716	8184.2
489.92	8206.72
490.124	8208.77
490.328	8309.12
490.531	8294.79
490.735	8268.16
490.939	8462.72
491.143	8208.77
491.346	8268.16
491.55	8481.15
491.754	8513.92
491.958	8597.88
492.161	8411.52
492.365	8397.18
492.569	8569.21
492.772	8587.64
492.976	8739.19
493.18	8792.44
493.383	8927.61
493.587	8937.85
493.79	8984.95
493.994	8978.81
494.197	9060.73
494.401	9197.94
494.605	9206.13
494.808	9306.48
495.012	9148.79
495.215	9329.01
495.419	9433.46
495.622	9236.85
495.825	9687.4
496.029	9808.23
496.232	9953.64
496.436	9693.55
496.639	10205.54
496.843	10215.78
497.046	10162.53
497.249	10455.39
497.453	10115.43
497.656	10584.41
497.859	10635.61
498.063	10707.29
498.266	10805.6
498.469	11028.82
498.673	11082.07
498.876	11211.09
499.079	11327.83
499.282	11274.58
499.485	11462.99
499.689	11606.35
499.892	11815.24
500.095	11819.34
500.298	12181.83
500.501	11870.54
500.705	12579.14
500.908	12816.7
501.111	12818.75
501.314	12933.43
501.517	12988.73
501.72	13142.33
501.923	13211.96
502.126	13439.28
502.329	13639.98
502.532	14072.11
502.735	13885.74
502.938	14141.74
503.141	14252.33
503.344	14434.6
503.547	14342.44
503.75	14657.82
503.953	14885.15
504.156	14909.72
504.359	15221.02
504.562	15378.71
504.765	15773.97
504.968	15843.6
505.17	16308.49
505.373	15837.45
505.576	16554.24
505.779	16480.52
505.982	16756.99
506.185	16937.21
506.387	17078.52
506.59	17424.63
506.793	17643.76
506.996	17723.63
507.198	18344.17
507.401	17668.34
507.604	18389.22
507.807	18774.24
508.009	18962.65
508.212	19269.85
508.415	19042.53
508.617	19421.4
508.82	19439.83
509.022	19513.56
509.225	19939.54
509.428	20240.59
509.63	20328.65
509.833	20535.49
510.035	21037.25
510.238	21100.73
510.44	21250.24
510.643	21698.74
510.845	21567.67
511.048	21569.72
511.25	22089.9
511.453	22231.21
511.655	23199.9
511.858	22892.71
512.06	23140.51
512.262	23271.58
512.465	23480.47
512.667	23814.29
512.87	23976.08
513.072	24101.01
513.274	24598.66
513.477	24928.39
513.679	25221.25
513.881	25051.27
514.084	25753.72
514.286	25307.26
514.488	25985.14
514.69	26525.8
514.893	26413.16
515.095	26708.07
515.297	27168.87
515.499	27220.06
515.701	27564.12
515.904	27351.13
516.106	28221.52
516.308	28541
516.51	28727.37
516.712	28444.75
516.914	29009.99
517.116	29438.01
517.318	29298.75
517.52	29863.99
517.722	29923.38
517.925	30083.12
518.127	30861.35
518.329	30910.5
518.531	30756.91
518.733	31670.3
518.935	31805.47
519.136	31660.06
519.338	32493.58
519.54	31948.82
519.742	32485.39
519.944	32847.88
520.146	33056.78
520.348	33486.85
520.55	33583.1
520.752	33718.27
520.954	34224.12
521.155	34273.27
521.357	34678.77
521.559	34920.43
521.761	35467.23
521.963	35338.21
522.164	35727.33
522.366	35543.01
522.568	36495.32
522.77	36454.36
522.971	36605.91
523.173	36483.03
523.375	37105.61
523.576	36863.95
523.778	37160.9
523.98	37963.71
524.181	37726.14
524.383	37799.87
524.584	38084.54
524.786	38219.7
524.988	38315.96
525.189	38590.39
525.391	38842.29
525.592	39141.29
525.794	39264.17
525.995	39247.79
526.197	39526.31
526.398	39712.67
526.6	39436.2
526.801	40101.79
527.003	40372.12
527.204	40525.72
527.406	40429.46
527.607	40388.5
527.808	40527.77
528.01	39655.33
528.211	40277.91
528.412	41439.11
528.614	40855.44
528.815	40957.84
529.016	41486.21
529.218	41050
529.419	41486.21
529.62	41330.57
529.822	41629.57
530.023	41420.68
530.224	41359.24
530.425	41531.27
530.626	41437.06
530.828	41478.02
531.029	42203
531.23	41461.64
531.431	41938.82
531.632	41891.71
531.833	42284.92
532.035	42082.17
532.236	42291.07
532.437	42127.23
532.638	42303.35
532.839	42428.28
533.04	42127.23
533.241	42043.26
533.442	42833.78
533.643	42532.73
533.844	42227.58
534.045	42573.69
534.246	42250.11
534.447	42733.43
534.648	42389.37
534.849	42520.44
535.05	42323.83
535.251	42307.45
535.451	42418.04
535.652	42917.75
535.853	42604.41
536.054	42805.11
536.255	42997.62
536.456	42434.42
536.657	42872.69
536.857	42147.71
537.058	42307.45
537.259	42770.29
537.46	42680.18
537.66	42864.5
537.861	42258.3
538.062	42635.13
538.263	42706.8
538.463	42180.48
538.664	42381.18
538.865	42919.79
539.065	42657.65
539.266	42540.92
539.466	42819.44
539.667	42033.02
539.868	42942.32
540.068	42157.95
540.269	42235.77
540.469	42909.55
540.67	42329.98
540.87	42676.08
541.071	42520.44
541.271	42801.01
541.472	42848.11
541.672	42637.17
541.873	42409.85
542.073	42299.26
542.274	42749.81
542.474	42211.2
542.675	42510.2
542.875	42882.93
543.075	42778.48
543.276	42178.43
543.476	42983.28
543.676	42528.63
543.877	42665.84
544.077	42694.52
544.277	42276.73
544.478	41779.07
544.678	42303.35
544.878	42286.97
545.078	42536.82
545.279	42526.58
545.479	42198.91
545.679	42305.4
545.879	42301.31
546.079	42403.7
546.28	42340.22
546.48	41947.01
546.68	42446.71
546.88	42248.06
547.08	42207.1
547.28	42129.28
547.48	42127.23
547.68	42499.96
547.88	42145.66
548.081	42430.33
548.281	42145.66
548.481	42186.62
548.681	42743.67
548.881	42182.52
549.081	42090.37
549.28	42250.11
549.48	42395.51
549.68	42270.59
549.88	42628.98
550.08	41742.21
550.28	42182.52
550.48	41887.62
550.68	42510.2
550.88	41602.95
551.08	42272.63
551.279	42028.93
551.479	41893.76
551.679	42321.79
551.879	41742.21
552.079	42477.43
552.278	42076.03
552.478	42020.73
552.678	41805.7
552.878	42411.9
553.077	42217.34
553.277	41938.82
553.477	42407.8
553.676	41748.35
553.876	41586.57
554.076	41580.42
554.275	41688.96
554.475	41688.96
554.674	41588.61
554.874	41484.17
555.074	41611.14
555.273	41643.91
555.473	41695.11
555.672	41357.19
555.872	41797.51
556.071	41668.48
556.271	41369.48
556.47	41191.31
556.67	41021.33
556.869	41330.57
557.068	41699.2
557.268	41326.47
557.467	41002.89
557.667	41076.62
557.866	40916.88
558.065	41058.19
558.265	40787.86
558.464	40845.2
558.663	41093
558.863	40810.39
559.062	41578.37
559.261	40695.7
559.461	41424.78
559.66	40374.17
559.859	40949.65
560.058	40710.03
560.258	40697.75
560.457	40454.04
560.656	40834.96
560.855	40468.37
561.054	40834.96
561.253	40439.7
561.453	40406.94
561.652	40374.17
561.851	40198.04
562.05	40574.87
562.249	39946.14
562.448	40460.18
562.647	40517.53
562.846	40226.71
563.045	40689.56
563.244	39851.94
563.443	40191.9
563.642	39514.02
563.841	40140.7
564.04	39227.31
564.239	39858.08
564.438	39757.73
564.637	39966.62
564.836	39870.37
565.035	39169.96
565.234	39614.37
565.432	39495.59
565.631	39239.59
565.83	39522.21
566.029	39086
566.228	39106.48
566.427	38762.42
566.625	38868.91
566.824	38522.8
567.023	39370.66
567.222	38549.43
567.42	38737.84
567.619	38451.13
567.818	38807.47
568.016	38780.85
568.215	38959.02
568.414	38588.34
568.612	38692.79
568.811	38162.36
569.01	38430.65
569.208	37730.24
569.407	38199.23
569.605	37720
569.804	38086.59
570.002	37441.48
570.201	38160.31
570.4	37357.51
570.598	37607.36
570.797	36976.59
570.995	37633.99
571.193	36988.88
571.392	37564.35
571.59	37070.79
571.789	37177.29
571.987	37146.57
572.186	37066.7
572.384	36800.46
572.582	36761.55
572.781	36773.84
572.979	36405.2
573.177	36734.93
573.376	37011.4
573.574	36333.53
573.772	36349.91
573.971	36186.07
574.169	36159.45
574.367	36128.73
574.565	36444.12
574.763	35782.62
574.962	35710.94
575.16	35407.84
575.358	35622.88
575.556	35383.27
575.754	35809.25
575.952	35600.35
576.151	35401.7
576.349	35135.46
576.547	35164.14
576.745	35465.19
576.943	35362.79
577.141	35022.83
577.339	34897.9
577.537	34602.99
577.735	34637.81
577.933	34428.91
578.131	34848.75
578.329	34242.55
578.527	34052.09
578.725	34390
578.923	34570.22
579.121	34256.89
579.319	34097.14
579.516	34209.78
579.714	33914.87
579.912	34000.89
580.11	33662.97
580.308	33992.7
580.506	33665.02
580.704	33253.38
580.901	33517.57
581.099	33716.22
581.297	33247.24
581.495	33058.82
581.692	33357.83
581.89	32911.37
582.088	32667.66
582.285	32770.06
582.483	32868.36
582.681	32636.94
582.878	32479.25
583.076	32161.81
583.274	32696.33
583.471	32253.97
583.669	32249.88
583.866	32106.52
584.064	32260.12
584.262	31834.14
584.459	32233.49
584.657	31719.45
584.854	31760.41
585.052	31528.99
585.249	31717.4
585.447	31512.61
585.644	31287.33
585.841	31694.88
586.039	31502.37
586.236	31328.29
586.434	30943.27
586.631	30769.19
586.828	30748.71
587.026	30892.07
587.223	30679.08
587.42	30791.72
587.618	30521.39
587.815	30277.68
588.012	30519.34
588.21	30511.15
588.407	30357.55
588.604	30206
588.801	29495.36
588.999	29937.72
589.196	29755.45
589.393	30222.39
589.59	29601.85
589.787	29691.96
589.984	29540.41
590.182	29493.31
590.379	29786.17
590.576	29003.85
590.773	29495.36
590.97	29405.25
591.167	29071.43
591.364	29053
591.561	29311.04
591.758	28950.6
591.955	28823.62
592.152	29149.25
592.349	28770.38
592.546	28827.72
592.743	28528.72
592.94	28082.26
593.137	28450.89
593.334	28340.3
593.531	28100.69
593.727	28371.02
593.924	28055.64
594.121	27902.04
594.318	28127.31
594.515	27625.56
594.712	27881.56
594.908	27172.96
595.105	27639.9
595.302	27424.86
595.499	27330.65
595.696	27220.06
595.892	27115.62
596.089	27181.15
596.286	27123.81
596.482	26990.69
596.679	26996.84
596.876	26863.72
597.072	26865.77
597.269	26540.14
597.466	26513.52
597.662	26466.41
597.859	26722.41
598.055	26501.23
598.252	26103.92
598.448	26144.88
598.645	26290.29
598.841	26060.91
599.038	26112.11
599.234	26032.24
599.431	25940.08
599.627	25565.31
599.824	25620.6
600.02	25245.82
600.217	25514.11
600.413	25421.95
600.609	25366.65
600.806	24889.48
601.002	25546.87
601.198	25092.23
601.395	25043.07
601.591	25141.38
601.787	24957.06
601.984	24924.29
602.18	24873.09
602.376	25071.75
602.572	24776.84
602.769	24647.82
602.965	24455.31
603.161	24293.52
603.357	24209.55
603.553	23957.65
603.75	24021.14
603.946	24123.54
604.142	24113.3
604.338	23586.97
604.534	23953.55
604.73	23472.28
604.926	23697.56
605.122	23599.26
605.318	23533.72
605.514	23443.61
605.71	23623.83
605.906	23351.45
606.102	23355.55
606.298	22933.67
606.494	23044.26
606.69	23193.76
606.886	23208.09
607.082	22833.32
607.278	23101.6
607.474	22458.54
607.67	22993.06
607.866	22562.98
608.062	23085.22
608.257	22763.68
608.453	22743.2
608.649	22737.06
608.845	22452.39
609.041	22425.77
609.236	22454.44
609.432	22292.65
609.628	22137.01
609.824	22055.09
610.019	22137.01
610.215	22188.21
610.411	22255.79
610.606	22079.66
610.802	22098.09
610.998	22190.25
611.193	22104.24
611.389	21858.48
611.584	21653.69
611.78	21444.79
611.976	21801.14
612.171	21698.74
612.367	21751.99
612.562	21629.11
612.758	21364.92
612.953	21223.61
613.149	21573.81
613.344	21213.37
613.539	21553.34
613.735	21160.13
613.93	21176.51
614.126	21452.98
614.321	21381.31
614.517	20908.22
614.712	20828.35
614.907	20955.33
615.103	21274.81
615.298	20748.48
615.493	20863.17
615.688	20721.86
615.884	21033.15
616.079	20758.72
616.274	20658.37
616.47	20506.82
616.665	20555.97
616.86	20547.78
617.055	20426.95
617.25	20586.69
617.445	20246.73
617.641	20261.07
617.836	20146.38
618.031	20236.49
618.226	20144.33
618.421	20175.05
618.616	20125.9
618.811	19790.03
619.006	19900.62
619.201	19794.13
619.396	19575
619.591	19724.5
619.786	19687.64
619.981	19110.11
620.176	19347.67
620.371	19400.92
620.566	19405.02
620.761	18979.04
620.956	19071.2
621.151	18792.67
621.346	18774.24
621.541	18637.03
621.735	18682.08
621.93	18366.7
622.125	18481.38
622.32	18381.03
622.515	18280.68
622.709	18069.74
622.904	18256.11
623.099	18051.31
623.294	17983.73
623.488	17723.63
623.683	17834.22
623.878	17453.3
624.072	17447.16
624.267	17498.36
624.462	17375.48
624.656	17291.51
624.851	17258.74
625.046	17037.56
625.24	17029.37
625.435	16910.59
625.629	16869.63
625.824	16769.28
626.018	16673.03
626.213	16283.91
626.407	16554.24
626.602	16308.49
626.796	16441.61
626.991	16263.43
627.185	16150.79
627.38	15931.66
627.574	16187.66
627.768	15677.71
627.963	15749.39
628.157	15653.14
628.352	15304.98
628.546	15550.74
628.74	15460.63
628.935	15558.93
629.129	15677.71
629.323	15112.47
629.517	15178.01
629.712	15034.65
629.906	14930.2
630.1	14616.86
630.294	14756.13
630.489	14616.86
630.683	14459.17
630.877	14520.61
631.071	14414.12
631.265	14424.36
631.459	14328.1
631.653	14278.95
631.848	14283.05
632.042	14242.09
632.236	14119.21
632.43	13986.09
632.624	13795.63
632.818	13916.46
633.012	13791.53
633.206	13451.57
633.4	13785.39
633.594	13543.73
633.788	13334.84
633.982	13617.46
634.176	13568.3
634.369	13171
634.563	13359.41
634.757	13140.28
634.951	13171
635.145	13056.31
635.339	13105.46
635.533	12880.19
635.726	12802.36
635.92	12855.61
636.114	12572.99
636.308	12626.24
636.501	12323.14
636.695	12405.06
636.889	12409.15
637.083	12222.79
637.276	12175.69
637.47	12106.06
637.664	12153.16
637.857	12187.97
638.051	11964.75
638.244	11864.39
638.438	11882.83
638.632	11729.23
638.825	11671.89
639.019	11583.82
639.212	11612.49
639.406	11561.3
639.599	11579.73
639.793	11442.51
639.986	11352.4
640.18	11247.96
640.373	11295.06
640.567	10873.18
640.76	11094.36
640.954	10973.53
641.147	10926.43
641.34	10910.04
641.534	10946.9
641.727	10748.25
641.92	10680.67
642.114	10617.18
642.307	10635.61
642.5	10422.62
642.694	10195.3
642.887	10545.5
643.08	10518.88
643.273	10328.42
643.467	10262.88
643.66	10070.37
643.853	10125.67
644.046	10082.66
644.239	9877.87
644.432	9853.29
644.626	9836.91
644.819	9988.46
645.012	9656.68
645.205	9972.07
645.398	9646.44
645.591	9595.25
645.784	9529.71
645.977	9560.43
646.17	9513.33
646.363	9558.38
646.556	9369.97
646.749	9345.39
646.942	9210.23
647.135	9263.47
647.328	9206.13
647.521	9185.65
647.714	8952.18
647.907	8989.05
648.099	8927.61
648.292	8927.61
648.485	8821.11
648.678	8939.9
648.871	8575.36
649.064	8704.38
649.256	8739.19
649.449	8511.87
649.642	8606.08
649.835	8395.14
650.027	8513.92
650.22	8386.94
650.413	8399.23
650.605	8444.29
650.798	8370.56
650.991	8176
651.183	8059.27
651.376	8231.3
651.568	7956.87
651.761	8030.6
651.954	7809.42
652.146	7870.86
652.339	8018.31
652.531	7944.58
652.724	7723.4
652.916	7520.65
653.109	7778.7
653.301	7606.67
653.494	7698.83
653.686	7448.97
653.879	7408.01
654.071	7428.49
654.263	7379.34
654.456	7432.59
654.648	7553.42
654.84	7250.32
655.033	7432.59
655.225	7258.51
655.417	7244.18
655.61	6998.42
655.802	7223.7
655.994	7106.96
656.186	7100.82
656.379	6936.98
656.571	6857.11
656.763	6785.43
656.955	6797.72
657.148	6769.05
657.34	6826.39
657.532	6609.31
657.724	6515.1
657.916	6723.99
658.108	6498.72
658.3	6494.62
658.492	6480.29
658.684	6453.66
658.876	6578.59
659.068	6502.81
659.26	6289.82
659.452	6461.85
659.644	6328.74
659.836	6117.79
660.028	6115.75
660.22	6052.26
660.412	6109.6
660.604	6031.78
660.796	5890.47
660.988	5831.08
661.18	6091.17
661.372	5923.24
661.563	5806.5
661.755	5921.19
661.947	5734.82
662.139	5861.8
662.331	5814.7
662.522	5679.53
662.714	5650.86
662.906	5749.16
663.097	5702.06
663.289	5562.8
663.481	5491.12
663.673	5417.39
663.864	5429.68
664.056	5245.36
664.247	5472.68
664.439	5208.5
664.631	5439.92
664.822	5278.13
665.014	5372.33
665.205	5175.73
665.397	5095.86
665.588	5210.54
665.78	5153.2
665.971	5077.43
666.163	5079.47
666.354	5003.7
666.546	4893.11
666.737	4880.82
666.929	4866.49
667.12	4858.29
667.311	4929.97
667.503	4766.14
667.694	5034.42
667.885	4790.71
668.077	4745.66
668.268	4585.91
668.459	4831.67
668.651	4762.04
668.842	4678.07
669.033	4610.49
669.224	4716.98
669.416	4594.11
669.607	4585.91
669.798	4555.19
669.989	4540.86
670.18	4403.64
670.371	4487.61
670.563	4465.08
670.754	4440.51
670.945	4184.51
671.136	4374.97
671.327	4407.74
671.518	4465.08
671.709	4323.77
671.9	4221.38
672.091	4241.86
672.282	4194.75
672.473	4137.41
672.664	4110.79
672.855	4225.47
673.046	4153.79
673.237	4176.32
673.428	4241.86
673.619	4192.7
673.809	4049.35
674	4164.03
674.191	4090.31
674.382	4004.29
674.573	3922.37
674.764	4016.58
674.954	3926.47
675.145	3850.69
675.336	4006.34
675.527	3848.65
675.717	3922.37
675.908	3914.18
676.099	3766.73
676.289	3926.47
676.48	3697.1
676.671	3801.54
676.861	3879.36
677.052	3832.26
677.243	3779.01
677.433	3854.79
677.624	3932.61
677.814	3727.82
678.005	3715.53
678.195	3707.34
678.386	3686.86
678.576	3621.32
678.767	3662.28
678.957	3844.55
679.148	3815.88
679.338	3666.38
679.529	3623.37
679.719	3611.08
679.909	3703.24
680.1	3645.9
680.29	3502.54
680.481	3629.51
680.671	3594.7
680.861	3693
681.052	3553.74
681.242	3561.93
681.432	3506.63
681.622	3475.91
681.813	3467.72
682.003	3482.06
682.193	3322.32
682.383	3541.45
682.573	3439.05
682.764	3484.11
682.954	3566.03
683.144	3447.24
683.334	3480.01
683.524	3615.18
683.714	3500.49
683.904	3496.39
684.094	3461.58
684.284	3430.86
684.474	3506.63
684.664	3320.27
684.854	3348.94
685.044	3449.29
685.234	3398.09
685.424	3455.44
685.614	3369.42
685.804	3381.71
685.994	3398.09
686.184	3310.03
686.374	3406.28
686.564	3398.09
686.753	3332.56
686.943	3295.69
687.133	3242.45
687.323	3277.26
687.513	3246.54
687.702	3160.53
687.892	3213.77
688.082	3144.14
688.272	3215.82
688.461	3185.1
688.651	3217.87
688.841	3195.34
689.03	3152.34
689.22	3152.34
689.41	3289.55
689.599	3219.92
689.789	3127.76
689.979	3146.19
690.168	3164.62
690.358	3090.9
690.547	3094.99
690.737	3094.99
690.926	3185.1
691.116	3025.36
691.305	3070.42
691.495	3068.37
691.684	2949.59
691.874	2927.06
692.063	3006.93
692.252	3062.23
692.442	3082.7
692.631	2963.92
692.82	2931.16
693.01	2931.16
693.199	2990.55
693.388	3045.84
693.578	3004.88
693.767	2980.31
693.956	2904.53
694.146	2968.02
694.335	3019.22
694.524	2953.68
694.713	2896.34
694.902	2709.97
695.092	2892.24
695.281	2853.33
695.47	2828.76
695.659	2699.73
695.848	2800.09
696.037	2908.63
696.226	2785.75
696.415	2865.62
696.604	2906.58
696.793	2744.79
696.982	2914.77
697.171	2836.95
697.36	2742.74
697.549	2763.22
697.738	2732.5
697.927	2736.6
698.116	2701.78
698.305	2898.39
698.494	2648.54
698.683	2703.83
698.872	2748.89
699.061	2611.67
699.25	2775.51
699.438	2855.38
699.627	2644.44
699.816	2728.41
700.005	2589.14
700.193	2636.25
700.382	2660.82
700.571	2726.36
700.76	2648.54
700.948	2705.88
701.137	2658.78
701.326	2652.63
701.514	2648.54
701.703	2591.19
701.892	2652.63
702.08	2640.34
702.269	2562.52
702.457	2615.77
702.646	2529.75
702.834	2628.06
703.023	2496.99
703.212	2572.76
703.4	2529.75
703.589	2554.33
703.777	2578.9
703.965	2533.85
704.154	2472.41
704.342	2570.71
704.531	2550.23
704.719	2488.79
704.907	2535.9
705.096	2505.18
705.284	2464.22
705.472	2533.85
705.661	2390.49
705.849	2462.17
706.037	2400.73
706.226	2398.68
706.414	2435.55
706.602	2535.9
706.79	2574.81
706.979	2468.31
707.167	2456.03
707.355	2482.65
707.543	2376.16
707.731	2449.88
707.919	2284
708.107	2284
708.296	2300.38
708.484	2343.39
708.672	2406.88
708.86	2300.38
709.048	2400.73
709.236	2286.05
709.424	2456.03
709.612	2339.29
709.8	2253.28
709.988	2431.45
710.176	2259.42
710.364	2308.57
710.551	2343.39
710.739	2245.09
710.927	2253.28
711.115	2312.67
711.303	2365.92
711.491	2234.85
711.679	2095.58
711.866	2259.42
712.054	2204.13
712.242	2271.71
712.43	2292.19
712.617	2218.46
712.805	2148.83
712.993	2286.05
713.181	2187.74
713.368	2230.75
713.556	2327
713.744	2120.16
713.931	2300.38
714.119	2193.89
714.306	2230.75
714.494	2177.5
714.682	2230.75
714.869	2114.02
715.057	2193.89
715.244	2169.31
715.432	2202.08
715.619	2111.97
715.807	2243.04
715.994	2095.58
716.182	2144.74
716.369	2206.17
716.556	2091.49
716.744	2011.62
716.931	2095.58
717.119	1968.61
717.306	2040.29
717.493	2181.6
717.681	2083.3
717.868	2044.38
718.055	2038.24
718.242	2095.58
718.43	2116.06
718.617	1853.92
718.804	1966.56
718.991	2111.97
719.179	2132.45
719.366	1950.18
719.553	2009.57
719.74	2046.43
719.927	1960.42
720.114	2066.91
720.301	1972.71
720.488	1898.98
720.676	2017.76
720.863	1958.37
721.05	1923.55
721.237	1935.84
721.424	1939.94
721.611	1989.09
721.798	1892.84
721.985	1898.98
722.172	1868.26
722.358	1931.75
722.545	1993.19
722.732	1876.45
722.919	1917.41
723.106	1950.18
723.293	1964.51
723.48	1944.03
723.667	1917.41
723.853	1984.99
724.04	1868.26
724.227	1968.61
724.414	1778.15
724.6	1849.83
724.787	1810.92
724.974	1849.83
725.161	1858.02
725.347	1784.29
725.534	1835.49
725.72	1774.05
725.907	1796.58
726.094	1901.03
726.28	1788.39
726.467	1800.68
726.653	1923.55
726.84	1874.4
727.027	1841.64
727.213	1833.44
727.4	1802.72
727.586	1741.29
727.773	1917.41
727.959	1743.33
728.145	1833.44
728.332	1788.39
728.518	1769.96
728.705	1808.87
728.891	1774.05
729.077	1761.77
729.264	1792.48
729.45	1671.65
729.636	1776.1
729.823	1718.76
730.009	1696.23
730.195	1751.53
730.382	1751.53
730.568	1638.89
730.754	1716.71
730.94	1759.72
731.126	1708.52
731.313	1784.29
731.499	1624.55
731.685	1747.43
731.871	1683.94
732.057	1677.8
732.243	1677.8
732.429	1778.15
732.615	1741.29
732.801	1724.9
732.987	1618.41
733.173	1675.75
733.359	1630.7
733.545	1661.41
733.731	1647.08
733.917	1714.66
734.103	1751.53
734.289	1653.22
734.475	1614.31
734.661	1731.05
734.847	1702.37
735.033	1526.25
735.219	1589.74
735.404	1540.58
735.59	1630.7
735.776	1587.69
735.962	1608.17
736.148	1614.31
736.333	1571.3
736.519	1550.82
736.705	1542.63
736.89	1706.47
737.076	1599.98
737.262	1497.58
737.447	1536.49
737.633	1516.01
737.819	1538.54
738.004	1481.19
738.19	1507.82
738.375	1538.54
738.561	1554.92
738.747	1520.1
738.932	1493.48
739.118	1487.34
739.303	1587.69
739.489	1456.62
739.674	1491.43
739.859	1442.28
740.045	1505.77
740.23	1503.72
740.416	1464.81
740.601	1559.02
740.786	1513.96
740.972	1356.27
741.157	1366.51
741.342	1376.75
741.528	1391.08
741.713	1485.29
741.898	1409.51
742.084	1524.2
742.269	1423.85
742.454	1411.56
742.639	1442.28
742.824	1309.16
743.01	1432.04
743.195	1436.14
743.38	1284.59
743.565	1415.66
743.75	1331.69
743.935	1358.32
744.12	1432.04
744.305	1327.6
744.49	1458.67
744.675	1374.7
744.86	1360.36
745.045	1391.08
745.23	1262.06
745.415	1245.68
745.6	1327.6
745.785	1298.92
745.97	1339.88
746.155	1327.6
746.34	1384.94
746.525	1309.16
746.71	1262.06
746.895	1161.71
747.079	1186.29
747.264	1260.01
747.449	1278.44
747.634	1243.63
747.819	1223.15
748.003	1253.87
748.188	1147.37
748.373	1171.95
748.557	1198.57
748.742	1139.18
748.927	1262.06
749.111	1202.67
749.296	1128.94
749.481	1169.9
749.665	1087.98
749.85	1122.8
750.034	1167.85
750.219	1155.57
750.404	1112.56
750.588	1081.84
750.773	991.73
750.957	1090.03
751.141	1092.08
751.326	1008.11
751.51	1128.94
751.695	1079.79
751.879	1065.46
752.064	1114.61
752.248	1012.21
752.432	1026.54
752.617	1130.99
752.801	1006.06
752.985	956.91
753.17	999.92
753.354	1057.26
753.538	1042.93
753.722	997.87
753.907	1010.16
754.091	975.35
754.275	1006.06
754.459	907.76
754.643	940.53
754.828	981.49
755.012	954.87
755.196	940.53
755.38	944.63
755.564	975.35
755.748	989.68
755.932	958.96
756.116	924.15
756.3	973.3
756.484	887.28
756.668	866.8
756.852	874.99
757.036	829.94
757.22	793.08
757.404	852.47
757.588	834.04
757.772	874.99
757.956	860.66
758.14	821.75
758.323	850.42
758.507	803.32
758.691	801.27
758.875	883.19
759.059	850.42
759.242	817.65
759.426	858.61
759.61	803.32
759.794	784.88
759.977	793.08
760.161	907.76
760.345	829.94
760.528	827.89
760.712	705.01
760.895	760.31
761.079	795.12
761.263	719.35
761.446	723.44
761.63	741.88
761.813	707.06
761.997	682.49
762.18	752.12
762.364	682.49
762.547	711.16
762.731	672.25
762.914	756.21
763.098	666.1
763.281	756.21
763.464	678.39
763.648	768.5
763.831	682.49
764.015	666.1
764.198	764.4
764.381	678.39
764.564	727.54
764.748	737.78
764.931	674.29
765.114	647.67
765.297	680.44
765.481	664.05
765.664	676.34
765.847	674.29
766.03	709.11
766.213	664.05
766.397	729.59
766.58	639.48
766.763	616.95
766.946	666.1
767.129	735.73
767.312	621.05
767.495	694.77
767.678	629.24
767.861	612.85
768.044	623.09
768.227	653.81
768.41	639.48
768.593	606.71
768.776	670.2
768.959	582.14
769.142	664.05
769.324	639.48
769.507	616.95
769.69	594.42
769.873	723.44
770.056	627.19
770.239	653.81
770.421	625.14
770.604	643.57
770.787	606.71
770.97	592.37
771.152	598.52
771.335	666.1
771.518	563.7
771.7	662.01
771.883	723.44
772.066	551.42
772.248	616.95
772.431	547.32
772.613	567.8
772.796	514.55
772.978	532.98
773.161	557.56
773.343	522.74
773.526	582.14
773.708	561.66
773.891	492.02
774.073	580.09
774.256	485.88
774.438	569.85
774.621	449.02
774.803	604.66
774.985	541.18
775.168	604.66
775.35	428.54
775.532	485.88
775.715	506.36
775.897	498.17
776.079	459.26
776.261	549.37
776.444	457.21
776.626	508.41
776.808	465.4
776.99	451.07
777.173	483.83
777.355	416.25
777.537	469.5
777.719	467.45
777.901	504.31
778.083	526.84
778.265	528.89
778.447	461.3
778.629	522.74
778.811	410.11
778.993	516.6
779.175	588.28
779.357	446.97
779.539	416.25
779.721	449.02
779.903	485.88
780.085	416.25
780.267	449.02
780.449	457.21
780.631	432.63
780.812	483.83
780.994	498.17
781.176	469.5
781.358	473.59
781.54	377.34
781.721	369.15
781.903	424.44
782.085	459.26
782.267	461.3
782.448	379.39
782.63	367.1
782.812	451.07
782.993	500.22
783.175	418.3
783.357	330.23
783.538	375.29
783.72	295.42
783.901	424.44
784.083	410.11
784.264	330.23
784.446	326.14
784.627	324.09
784.809	336.38
784.99	375.29
785.172	367.1
785.353	281.08
785.535	276.99
785.716	256.51
785.897	330.23
786.079	301.56
786.26	330.23
786.441	336.38
786.623	256.51
786.804	342.52
786.985	356.86
787.167	260.6
787.348	276.99
787.529	276.99
787.71	399.87
787.891	336.38
788.073	356.86
788.254	358.91
788.435	358.91
788.616	322.04
788.797	279.04
788.978	326.14
789.159	291.32
789.34	262.65
789.522	283.13
789.703	287.23
789.884	262.65
790.065	256.51
790.246	274.94
790.427	254.46
790.607	303.61
790.788	309.76
790.969	178.69
791.15	276.99
791.331	309.76
791.512	289.28
791.693	285.18
791.874	211.45
792.054	328.19
792.235	266.75
792.416	279.04
792.597	281.08
792.778	287.23
792.958	322.04
793.139	211.45
793.32	162.3
793.5	229.88
793.681	309.76
793.862	246.27
794.042	242.17
794.223	219.64
794.404	209.4
794.584	258.56
794.765	182.78
794.945	260.6
795.126	227.84
795.306	186.88
795.487	219.64
795.667	260.6
795.848	272.89
796.028	180.73
796.209	250.36
796.389	258.56
796.57	219.64
796.75	129.53
796.93	205.31
797.111	254.46
797.291	145.92
797.471	219.64
797.652	164.35
797.832	154.11
798.012	305.66
798.192	244.22
798.373	170.49
798.553	158.21
798.733	219.64
798.913	186.88
799.093	229.88
799.274	238.08
799.454	238.08
799.634	156.16
799.814	295.42
799.994	170.49
800.174	223.74
800.354	174.59
800.534	109.05
800.714	166.4
800.894	154.11
801.074	178.69
801.254	154.11
801.434	272.89
801.614	211.45
801.794	172.54
801.974	739.83
802.154	193.02
802.334	207.36
802.514	129.53
802.693	162.3
802.873	162.3
803.053	188.93
803.233	170.49
803.413	111.1
803.592	96.77
803.772	59.9
803.952	231.93
804.131	154.11
804.311	213.5
804.491	154.11
804.67	141.82
804.85	164.35
805.03	164.35
805.209	182.78
805.389	139.77
805.568	211.45
805.748	150.01
805.928	145.92
806.107	154.11
806.287	195.07
806.466	76.29
806.646	170.49
806.825	199.16
807.004	104.96
807.184	184.83
807.363	188.93
807.543	111.1
807.722	129.53
807.901	154.11
808.081	188.93
808.26	137.73
808.439	121.34
808.619	127.49
808.798	137.73
808.977	111.1
809.156	139.77
809.336	117.25
809.515	139.77
809.694	125.44
809.873	137.73
810.052	115.2
810.231	72.19
810.411	90.62
810.59	176.64
810.769	145.92
810.948	92.67
811.127	123.39
811.306	94.72
811.485	96.77
811.664	156.16
811.843	184.83
812.022	129.53
812.201	39.42
812.38	96.77
812.559	131.58
812.737	164.35
812.916	141.82
813.095	184.83
813.274	141.82
813.453	168.45
813.632	96.77
813.811	121.34
813.989	18.94
814.168	72.19
814.347	59.9
814.526	145.92
814.704	170.49
814.883	125.44
815.062	82.43
815.24	158.21
815.419	80.38
815.598	145.92
815.776	80.38
815.955	133.63
816.133	125.44
816.312	137.73
816.49	23.04
816.669	143.87
816.847	55.81
817.026	162.3
817.204	72.19
817.383	61.95
817.561	47.62
817.74	143.87
817.918	72.19
818.097	121.34
818.275	121.34
818.453	123.39
818.632	33.28
818.81	104.96
818.988	80.38
819.167	88.57
819.345	131.58
819.523	88.57
819.701	88.57
819.879	96.77
820.058	64
820.236	150.01
820.414	47.62
820.592	129.53
820.77	121.34
820.948	74.24
821.127	70.14
821.305	90.62
821.483	35.33
821.661	139.77
821.839	98.81
822.017	49.66
822.195	84.48
822.373	143.87
822.551	51.71
822.729	113.15
822.907	145.92
823.085	119.29
823.262	109.05
823.44	64
823.618	-26.11
823.796	172.54
823.974	33.28
824.152	76.29
824.329	35.33
824.507	70.14
824.685	86.53
824.863	80.38
825.04	57.86
825.218	72.19
825.396	88.57
825.574	90.62
825.751	80.38
825.929	57.86
826.107	43.52
826.284	70.14
826.462	37.38
826.639	109.05
826.817	113.15
826.994	35.33
827.172	39.42
827.349	66.05
827.527	64
827.704	82.43
827.882	96.77
828.059	39.42
828.237	47.62
828.414	121.34
828.591	-13.82
828.769	119.29
828.946	47.62
829.124	64
829.301	104.96
829.478	98.81
829.655	88.57
829.833	137.73
830.01	43.52
830.187	66.05
830.364	76.29
830.542	64
830.719	86.53
830.896	115.2
831.073	57.86
831.25	78.33
831.427	41.47
831.604	-1.54
831.782	0.51
831.959	96.77
832.136	41.47
832.313	121.34
832.49	90.62
832.667	70.14
832.844	-15.87
833.021	96.77
833.198	98.81
833.374	82.43
833.551	137.73
833.728	-28.16
833.905	76.29
834.082	64
834.259	88.57
834.436	104.96
834.612	59.9
834.789	47.62
834.966	113.15
835.143	2.56
835.319	14.85
835.496	96.77
835.673	92.67
835.85	10.75
836.026	8.7
836.203	102.91
836.38	45.57
836.556	80.38
836.733	0.51
836.909	23.04
837.086	0.51
837.262	25.09
837.439	27.14
837.616	53.76
837.792	92.67
837.968	57.86
838.145	-15.87
838.321	82.43
838.498	125.44
838.674	90.62
838.851	74.24
839.027	72.19
839.203	29.18
839.38	90.62
839.556	76.29
839.732	129.53
839.909	82.43
840.085	43.52
840.261	23.04
840.437	-17.92
840.614	6.66
840.79	66.05
840.966	41.47
841.142	64
841.318	47.62
841.494	31.23
841.671	43.52
841.847	70.14
842.023	-15.87
842.199	-9.73
842.375	72.19
842.551	6.66
842.727	59.9
842.903	41.47
843.079	0.51
843.255	57.86
843.431	55.81
843.607	92.67
843.783	6.66
843.959	39.42
844.134	31.23
844.31	125.44
844.486	-32.26
844.662	74.24
844.838	84.48
845.013	41.47
845.189	10.75
845.365	104.96
845.541	80.38
845.716	59.9
845.892	127.49
846.068	51.71
846.244	4.61
846.419	55.81
846.595	6.66
846.77	64
846.946	78.33
847.122	23.04
847.297	31.23
847.473	84.48
847.648	-52.74
847.824	55.81
847.999	-62.98
848.175	57.86
848.35	2.56
848.526	43.52
848.701	100.86
848.876	64
849.052	-83.45
849.227	92.67
849.403	16.9
849.578	23.04
849.753	109.05
849.929	37.38
850.104	31.23
850.279	96.77
850.454	-5.63
850.63	0.51
850.805	45.57
850.98	55.81
851.155	41.47
851.33	113.15
851.505	25.09
851.681	55.81
851.856	-17.92
852.031	-1.54
852.206	49.66
852.381	68.09
852.556	-38.4
852.731	2.56
852.906	39.42
853.081	-5.63
853.256	23.04
853.431	20.99
853.606	-65.02
853.781	-26.11
853.956	-73.21
854.131	123.39
854.305	35.33
854.48	61.95
854.655	8.7
854.83	-40.45
855.005	33.28
855.18	29.18
855.354	80.38
855.529	57.86
855.704	23.04
855.879	14.85
856.053	82.43
856.228	-65.02
856.403	-38.4
856.577	72.19
856.752	47.62
856.926	25.09
857.101	-1.54
857.276	-50.69
857.45	39.42
857.625	6.66
857.799	80.38
857.974	57.86
858.148	-24.06
858.323	98.81
858.497	-22.02
858.672	2.56
858.846	-9.73
859.02	-22.02
859.195	-7.68
859.369	10.75
859.543	14.85
859.718	27.14
859.892	66.05
860.066	14.85
860.241	29.18
860.415	23.04
860.589	0.51
860.763	33.28
860.938	-5.63
861.112	31.23
861.286	37.38
861.46	47.62
861.634	16.9
861.808	66.05
861.982	-15.87
862.157	-46.59
862.331	-13.82
862.505	14.85
862.679	-17.92
862.853	6.66
863.027	-65.02
863.201	-26.11
863.375	31.23
863.549	12.8
863.722	-1.54
863.896	121.34
864.07	25.09
864.244	-42.5
864.418	39.42
864.592	29.18
864.766	-22.02
864.939	82.43
865.113	47.62
865.287	80.38
865.461	-17.92
865.634	10.75
865.808	8.7
865.982	-69.12
866.156	-83.45
866.329	-62.98
866.503	14.85
866.676	33.28
866.85	23.04
867.024	-1.54
867.197	74.24
867.371	25.09
867.544	-5.63
867.718	6.66
867.891	96.77
868.065	-48.64
868.238	-17.92
868.412	35.33
868.585	76.29
868.759	-9.73
868.932	12.8
869.105	-58.88
869.279	49.66
869.452	-7.68
869.625	41.47
869.799	-9.73
869.972	-9.73
870.145	6.66
870.319	51.71
870.492	-28.16
870.665	-38.4
870.838	6.66
871.011	-83.45
871.185	-1.54
871.358	-32.26
871.531	29.18
871.704	-52.74
871.877	33.28
872.05	8.7
872.223	31.23
872.396	43.52
872.569	47.62
872.742	-13.82
872.915	10.75
873.088	-9.73
873.261	-26.11
873.434	-13.82
873.607	12.8
873.78	68.09
873.953	25.09
874.126	64
874.299	33.28
874.471	-5.63
874.644	18.94
874.817	6.66
874.99	70.14
875.163	55.81
875.335	49.66
875.508	-32.26
875.681	8.7
875.853	-15.87
876.026	-17.92
876.199	33.28
876.371	61.95
876.544	-32.26
876.717	25.09
876.889	-1.54
877.062	-26.11
877.234	8.7
877.407	25.09
877.579	-62.98
877.752	35.33
877.924	-38.4
878.097	43.52
878.269	-9.73
878.442	-26.11
878.614	31.23
878.786	-7.68
878.959	-15.87
879.131	47.62
879.303	-30.21
879.476	64
879.648	10.75
879.82	35.33
879.993	16.9
880.165	-58.88
880.337	-50.69
880.509	-1.54
880.681	12.8
880.854	-24.06
881.026	0.51
881.198	55.81
881.37	-5.63
881.542	55.81
881.714	0.51
881.886	4.61
882.058	-30.21
882.23	47.62
882.402	-42.5
882.574	10.75
882.746	61.95
882.918	55.81
883.09	64
883.262	14.85
883.434	-26.11
883.606	14.85
883.778	16.9
883.95	55.81
884.122	-32.26
884.293	43.52
884.465	23.04
884.637	72.19
884.809	-60.93
884.98	29.18
885.152	51.71
885.324	-9.73
885.496	25.09
885.667	-71.17
885.839	-108.03
886.011	64
886.182	-28.16
886.354	10.75
886.525	41.47
886.697	-1.54
886.869	-15.87
887.04	16.9
887.212	80.38
887.383	72.19
887.555	47.62
887.726	-56.83
887.897	-1.54
888.069	-26.11
888.24	45.57
888.412	10.75
888.583	49.66
888.754	4.61
888.926	-5.63
889.097	23.04
889.268	-46.59
889.44	14.85
889.611	-48.64
889.782	-79.36
889.953	-13.82
890.125	23.04
890.296	-9.73
890.467	8.7
890.638	-15.87
890.809	29.18
890.98	8.7
891.151	29.18
891.323	92.67
891.494	0.51
891.665	-36.35
891.836	-42.5
892.007	-9.73
892.178	-26.11
892.349	-11.78
892.52	-26.11
892.691	-50.69
892.862	-5.63
893.032	-17.92
893.203	-9.73
893.374	35.33
893.545	10.75
893.716	80.38
893.887	72.19
894.057	-28.16
894.228	29.18
894.399	25.09
894.57	-9.73
894.74	-22.02
894.911	-3.58
895.082	55.81
895.253	-52.74
895.423	23.04
895.594	-22.02
895.764	-1.54
895.935	-11.78
896.106	49.66
896.276	-40.45
896.447	8.7
896.617	-42.5
896.788	-24.06
896.958	-65.02
897.129	14.85
897.299	-5.63
897.47	-9.73
897.64	64
897.81	-26.11
897.981	72.19
898.151	-67.07
898.322	33.28
898.492	43.52
898.662	-26.11
898.832	-19.97
899.003	41.47
899.173	43.52
899.343	-30.21
899.513	-15.87
