Data from USB4F104151__98__14-43-38-013.txt Node

Date: Thu Mar 13 14:43:38 EDT 2025
User: louis
Spectrometer: USB4F10415
Trigger mode: 4
Integration Time (sec): 2.000000E-2
Scans to average: 1
Electric dark correction enabled: true
Nonlinearity correction enabled: false
Boxcar width: 0
XAxis mode: Wavelengths
Number of Pixels in Spectrum: 3648
>>>>>Begin Spectral Data<<<<<
178.204	-73.9
178.424	-73.9
178.644	-73.9
178.864	-127.14
179.084	-137.38
179.304	-55.47
179.524	20.31
179.744	-20.65
179.964	-22.7
180.184	38.74
180.404	-8.36
180.624	16.21
180.844	32.6
181.064	-8.36
181.283	16.21
181.503	-30.89
181.723	22.36
181.943	-61.61
182.163	102.23
182.383	-4.27
182.602	122.71
182.822	98.13
183.042	-24.75
183.262	-18.6
183.482	81.75
183.701	1.88
183.921	108.37
184.141	-39.08
184.361	36.69
184.58	57.17
184.8	34.64
185.02	16.21
185.239	48.98
185.459	42.84
185.679	69.46
185.898	18.26
186.118	42.84
186.338	42.84
186.557	40.79
186.777	-26.79
186.997	46.93
187.216	57.17
187.436	73.56
187.655	48.98
187.875	26.45
188.095	48.98
188.314	65.36
188.534	-14.51
188.753	10.07
188.973	32.6
189.192	85.84
189.412	-0.17
189.631	3.93
189.851	57.17
190.07	24.4
190.29	-12.46
190.509	-6.31
190.729	28.5
190.948	59.22
191.168	128.85
191.387	38.74
191.607	65.36
191.826	1.88
192.045	24.4
192.265	32.6
192.484	8.02
192.704	106.32
192.923	10.07
193.142	53.08
193.362	24.4
193.581	36.69
193.8	10.07
194.02	40.79
194.239	98.13
194.458	81.75
194.678	32.6
194.897	26.45
195.116	83.8
195.335	3.93
195.555	42.84
195.774	12.12
195.993	16.21
196.212	65.36
196.432	28.5
196.651	65.36
196.87	-2.22
197.089	132.95
197.308	135
197.528	8.02
197.747	-86.19
197.966	51.03
198.185	163.67
198.404	22.36
198.623	106.32
198.842	30.55
199.062	34.64
199.281	104.28
199.5	-32.94
199.719	-2.22
199.938	75.6
200.157	98.13
200.376	-10.41
200.595	53.08
200.814	53.08
201.033	48.98
201.252	98.13
201.471	59.22
201.69	81.75
201.909	46.93
202.128	83.8
202.347	36.69
202.566	12.12
202.785	36.69
203.004	77.65
203.223	48.98
203.442	16.21
203.661	40.79
203.879	98.13
204.098	48.98
204.317	-71.85
204.536	55.12
204.755	-41.13
204.974	73.56
205.193	10.07
205.411	32.6
205.63	87.89
205.849	91.99
206.068	16.21
206.287	10.07
206.505	59.22
206.724	-2.22
206.943	-0.17
207.162	48.98
207.381	48.98
207.599	81.75
207.818	1.88
208.037	67.41
208.255	26.45
208.474	24.4
208.693	57.17
208.911	-32.94
209.13	65.36
209.349	65.36
209.567	-28.84
209.786	10.07
210.005	40.79
210.223	12.12
210.442	42.84
210.661	42.84
210.879	48.98
211.098	18.26
211.316	-8.36
211.535	67.41
211.753	-16.55
211.972	46.93
212.191	-16.55
212.409	-8.36
212.628	110.42
212.846	-12.46
213.065	83.8
213.283	65.36
213.502	-14.51
213.72	3.93
213.938	40.79
214.157	-0.17
214.375	-14.51
214.594	34.64
214.812	132.95
215.031	73.56
215.249	44.88
215.467	48.98
215.686	53.08
215.904	116.56
216.122	44.88
216.341	34.64
216.559	36.69
216.778	32.6
216.996	26.45
217.214	10.07
217.432	3.93
217.651	40.79
217.869	122.71
218.087	51.03
218.306	26.45
218.524	26.45
218.742	51.03
218.96	-16.55
219.179	118.61
219.397	-4.27
219.615	96.08
219.833	12.12
220.051	-20.65
220.27	83.8
220.488	91.99
220.706	8.02
220.924	-8.36
221.142	69.46
221.36	38.74
221.578	16.21
221.796	5.97
222.015	108.37
222.233	53.08
222.451	81.75
222.669	12.12
222.887	-4.27
223.105	12.12
223.323	20.31
223.541	-6.31
223.759	67.41
223.977	-65.71
224.195	184.15
224.413	18.26
224.631	67.41
224.849	24.4
225.067	75.6
225.285	-65.71
225.503	8.02
225.721	69.46
225.939	-61.61
226.157	65.36
226.375	65.36
226.592	3.93
226.81	16.21
227.028	63.32
227.246	48.98
227.464	36.69
227.682	77.65
227.9	96.08
228.117	26.45
228.335	-10.41
228.553	24.4
228.771	-12.46
228.989	12.12
229.206	28.5
229.424	73.56
229.642	-67.75
229.86	-10.41
230.077	1.88
230.295	-51.37
230.513	75.6
230.731	18.26
230.948	96.08
231.166	48.98
231.384	102.23
231.601	-24.75
231.819	44.88
232.037	-16.55
232.254	38.74
232.472	40.79
232.689	16.21
232.907	38.74
233.125	36.69
233.342	-2.22
233.56	55.12
233.777	-47.27
233.995	28.5
234.213	59.22
234.43	12.12
234.648	65.36
234.865	61.27
235.083	120.66
235.3	22.36
235.518	18.26
235.735	73.56
235.953	67.41
236.17	-20.65
236.388	65.36
236.605	-24.75
236.822	32.6
237.04	71.51
237.257	-0.17
237.475	32.6
237.692	30.55
237.909	44.88
238.127	59.22
238.344	8.02
238.562	163.67
238.779	10.07
238.996	48.98
239.214	65.36
239.431	22.36
239.648	-55.47
239.865	100.18
240.083	44.88
240.3	75.6
240.517	3.93
240.735	44.88
240.952	59.22
241.169	55.12
241.386	94.04
241.603	14.17
241.821	32.6
242.038	59.22
242.255	57.17
242.472	-45.23
242.689	130.9
242.907	73.56
243.124	75.6
243.341	89.94
243.558	-14.51
243.775	-24.75
243.992	20.31
244.209	24.4
244.426	28.5
244.643	18.26
244.86	26.45
245.078	28.5
245.295	79.7
245.512	46.93
245.729	28.5
245.946	8.02
246.163	124.76
246.38	26.45
246.597	24.4
246.814	44.88
247.031	44.88
247.248	48.98
247.464	69.46
247.681	32.6
247.898	51.03
248.115	14.17
248.332	48.98
248.549	40.79
248.766	98.13
248.983	42.84
249.2	112.47
249.417	26.45
249.633	-20.65
249.85	-32.94
250.067	-12.46
250.284	3.93
250.501	91.99
250.717	106.32
250.934	1.88
251.151	26.45
251.368	-41.13
251.585	26.45
251.801	51.03
252.018	-8.36
252.235	151.38
252.451	61.27
252.668	24.4
252.885	73.56
253.102	48.98
253.318	73.56
253.535	-0.17
253.752	16.21
253.968	-41.13
254.185	22.36
254.401	-16.55
254.618	83.8
254.835	16.21
255.051	42.84
255.268	28.5
255.484	-8.36
255.701	42.84
255.917	114.52
256.134	-0.17
256.351	63.32
256.567	-57.51
256.784	10.07
257	1.88
257.217	63.32
257.433	18.26
257.65	-6.31
257.866	26.45
258.082	-8.36
258.299	48.98
258.515	8.02
258.732	14.17
258.948	16.21
259.165	94.04
259.381	24.4
259.597	59.22
259.814	69.46
260.03	-16.55
260.246	-8.36
260.463	48.98
260.679	75.6
260.895	1.88
261.112	46.93
261.328	73.56
261.544	16.21
261.761	102.23
261.977	-41.13
262.193	24.4
262.409	89.94
262.626	67.41
262.842	10.07
263.058	69.46
263.274	57.17
263.49	-6.31
263.707	75.6
263.923	3.93
264.139	-10.41
264.355	36.69
264.571	96.08
264.787	98.13
265.004	89.94
265.22	-39.08
265.436	24.4
265.652	48.98
265.868	48.98
266.084	-53.42
266.3	57.17
266.516	-12.46
266.732	59.22
266.948	59.22
267.164	69.46
267.38	18.26
267.596	10.07
267.812	102.23
268.028	61.27
268.244	12.12
268.46	73.56
268.676	-47.27
268.892	63.32
269.108	42.84
269.324	83.8
269.54	53.08
269.756	28.5
269.972	-49.32
270.188	26.45
270.403	-12.46
270.619	57.17
270.835	20.31
271.051	24.4
271.267	55.12
271.483	8.02
271.698	32.6
271.914	42.84
272.13	-8.36
272.346	-8.36
272.562	12.12
272.777	94.04
272.993	51.03
273.209	65.36
273.425	28.5
273.64	71.51
273.856	89.94
274.072	-16.55
274.287	94.04
274.503	73.56
274.719	53.08
274.934	-0.17
275.15	3.93
275.366	81.75
275.581	44.88
275.797	85.84
276.012	-4.27
276.228	-61.61
276.444	-32.94
276.659	3.93
276.875	89.94
277.09	18.26
277.306	-32.94
277.521	132.95
277.737	44.88
277.952	3.93
278.168	40.79
278.383	89.94
278.599	32.6
278.814	24.4
279.03	-32.94
279.245	85.84
279.461	26.45
279.676	69.46
279.892	22.36
280.107	-16.55
280.322	-0.17
280.538	51.03
280.753	51.03
280.969	53.08
281.184	3.93
281.399	139.09
281.615	40.79
281.83	89.94
282.045	34.64
282.26	26.45
282.476	63.32
282.691	120.66
282.906	28.5
283.122	-4.27
283.337	-37.03
283.552	53.08
283.767	10.07
283.983	89.94
284.198	44.88
284.413	38.74
284.628	-32.94
284.843	40.79
285.058	73.56
285.274	34.64
285.489	42.84
285.704	91.99
285.919	-12.46
286.134	85.84
286.349	8.02
286.564	61.27
286.779	71.51
286.995	65.36
287.21	-51.37
287.425	61.27
287.64	73.56
287.855	-6.31
288.07	1.88
288.285	28.5
288.5	18.26
288.715	96.08
288.93	20.31
289.145	-45.23
289.36	8.02
289.575	-20.65
289.79	57.17
290.004	40.79
290.219	22.36
290.434	57.17
290.649	69.46
290.864	114.52
291.079	1.88
291.294	-4.27
291.509	-12.46
291.724	24.4
291.938	40.79
292.153	106.32
292.368	-24.75
292.583	57.17
292.798	116.56
293.012	-12.46
293.227	36.69
293.442	32.6
293.657	126.8
293.871	18.26
294.086	3.93
294.301	130.9
294.516	81.75
294.73	89.94
294.945	16.21
295.16	46.93
295.374	94.04
295.589	57.17
295.804	18.26
296.018	83.8
296.233	73.56
296.447	102.23
296.662	-18.6
296.877	26.45
297.091	61.27
297.306	42.84
297.52	75.6
297.735	26.45
297.949	20.31
298.164	120.66
298.378	-4.27
298.593	10.07
298.807	5.97
299.022	42.84
299.236	75.6
299.451	38.74
299.665	10.07
299.88	71.51
300.094	16.21
300.309	53.08
300.523	53.08
300.737	5.97
300.952	59.22
301.166	3.93
301.381	26.45
301.595	8.02
301.809	63.32
302.024	34.64
302.238	10.07
302.452	65.36
302.667	-18.6
302.881	100.18
303.095	51.03
303.309	-10.41
303.524	16.21
303.738	53.08
303.952	10.07
304.166	81.75
304.381	-10.41
304.595	32.6
304.809	-32.94
305.023	65.36
305.237	-12.46
305.452	3.93
305.666	24.4
305.88	36.69
306.094	24.4
306.308	122.71
306.522	57.17
306.736	24.4
306.95	42.84
307.164	79.7
307.379	-6.31
307.593	116.56
307.807	65.36
308.021	71.51
308.235	65.36
308.449	-12.46
308.663	65.36
308.877	73.56
309.091	40.79
309.305	32.6
309.519	102.23
309.733	38.74
309.947	40.79
310.161	83.8
310.374	57.17
310.588	118.61
310.802	36.69
311.016	16.21
311.23	34.64
311.444	-12.46
311.658	18.26
311.872	67.41
312.085	40.79
312.299	81.75
312.513	118.61
312.727	59.22
312.941	24.4
313.154	22.36
313.368	36.69
313.582	10.07
313.796	-6.31
314.009	51.03
314.223	106.32
314.437	-0.17
314.651	53.08
314.864	77.65
315.078	57.17
315.292	-8.36
315.505	26.45
315.719	24.4
315.933	48.98
316.146	51.03
316.36	-16.55
316.573	75.6
316.787	65.36
317.001	36.69
317.214	75.6
317.428	48.98
317.641	8.02
317.855	10.07
318.068	81.75
318.282	40.79
318.495	108.37
318.709	55.12
318.922	57.17
319.136	110.42
319.349	55.12
319.563	42.84
319.776	18.26
319.99	32.6
320.203	100.18
320.417	91.99
320.63	32.6
320.843	100.18
321.057	40.79
321.27	61.27
321.483	16.21
321.697	1.88
321.91	73.56
322.124	67.41
322.337	-16.55
322.55	67.41
322.763	16.21
322.977	51.03
323.19	18.26
323.403	20.31
323.617	1.88
323.83	73.56
324.043	100.18
324.256	96.08
324.469	10.07
324.683	81.75
324.896	18.26
325.109	22.36
325.322	-16.55
325.535	89.94
325.748	48.98
325.962	16.21
326.175	83.8
326.388	46.93
326.601	-10.41
326.814	42.84
327.027	36.69
327.24	69.46
327.453	48.98
327.666	44.88
327.879	116.56
328.092	-28.84
328.305	16.21
328.518	77.65
328.731	75.6
328.944	71.51
329.157	55.12
329.37	40.79
329.583	-6.31
329.796	34.64
330.009	12.12
330.222	-12.46
330.435	8.02
330.648	98.13
330.861	65.36
331.073	8.02
331.286	124.76
331.499	-0.17
331.712	-45.23
331.925	5.97
332.138	10.07
332.35	77.65
332.563	36.69
332.776	59.22
332.989	22.36
333.202	73.56
333.414	24.4
333.627	-20.65
333.84	40.79
334.053	69.46
334.265	89.94
334.478	24.4
334.691	73.56
334.903	-0.17
335.116	24.4
335.329	40.79
335.541	40.79
335.754	122.71
335.966	-57.51
336.179	42.84
336.392	26.45
336.604	40.79
336.817	51.03
337.029	16.21
337.242	1.88
337.454	65.36
337.667	12.12
337.88	89.94
338.092	67.41
338.305	57.17
338.517	28.5
338.729	81.75
338.942	91.99
339.154	22.36
339.367	-22.7
339.579	53.08
339.792	18.26
340.004	122.71
340.217	44.88
340.429	-16.55
340.641	36.69
340.854	53.08
341.066	14.17
341.278	48.98
341.491	77.65
341.703	38.74
341.915	48.98
342.128	118.61
342.34	18.26
342.552	8.02
342.764	3.93
342.977	34.64
343.189	18.26
343.401	57.17
343.613	-55.47
343.826	3.93
344.038	-6.31
344.25	91.99
344.462	28.5
344.674	106.32
344.886	51.03
345.099	-4.27
345.311	40.79
345.523	57.17
345.735	-43.18
345.947	12.12
346.159	57.17
346.371	108.37
346.583	-45.23
346.795	89.94
347.007	116.56
347.219	71.51
347.431	71.51
347.643	28.5
347.855	28.5
348.067	161.62
348.279	63.32
348.491	114.52
348.703	48.98
348.915	48.98
349.127	-39.08
349.339	16.21
349.551	-55.47
349.763	65.36
349.975	89.94
350.187	53.08
350.399	46.93
350.61	-57.51
350.822	8.02
351.034	32.6
351.246	20.31
351.458	67.41
351.669	75.6
351.881	26.45
352.093	126.8
352.305	83.8
352.517	51.03
352.728	118.61
352.94	40.79
353.152	34.64
353.363	-20.65
353.575	79.7
353.787	32.6
353.999	118.61
354.21	8.02
354.422	-18.6
354.633	1.88
354.845	67.41
355.057	5.97
355.268	-16.55
355.48	96.08
355.692	85.84
355.903	16.21
356.115	8.02
356.326	8.02
356.538	130.9
356.749	79.7
356.961	57.17
357.172	42.84
357.384	83.8
357.595	100.18
357.807	-22.7
358.018	26.45
358.23	-4.27
358.441	130.9
358.653	40.79
358.864	42.84
359.075	57.17
359.287	48.98
359.498	53.08
359.709	8.02
359.921	16.21
360.132	110.42
360.344	57.17
360.555	-8.36
360.766	124.76
360.977	32.6
361.189	18.26
361.4	1.88
361.611	75.6
361.823	44.88
362.034	-0.17
362.245	36.69
362.456	-12.46
362.667	28.5
362.879	73.56
363.09	51.03
363.301	77.65
363.512	110.42
363.723	18.26
363.935	61.27
364.146	42.84
364.357	87.89
364.568	98.13
364.779	79.7
364.99	73.56
365.201	20.31
365.412	100.18
365.623	22.36
365.834	48.98
366.045	98.13
366.256	65.36
366.467	77.65
366.678	24.4
366.889	10.07
367.1	77.65
367.311	110.42
367.522	59.22
367.733	81.75
367.944	51.03
368.155	65.36
368.366	-0.17
368.577	114.52
368.788	65.36
368.999	-12.46
369.209	3.93
369.42	143.19
369.631	106.32
369.842	20.31
370.053	44.88
370.264	40.79
370.474	51.03
370.685	122.71
370.896	40.79
371.107	89.94
371.317	63.32
371.528	77.65
371.739	26.45
371.95	-22.7
372.16	32.6
372.371	-16.55
372.582	65.36
372.792	67.41
373.003	57.17
373.214	77.65
373.424	145.24
373.635	53.08
373.846	81.75
374.056	1.88
374.267	100.18
374.477	-6.31
374.688	75.6
374.898	10.07
375.109	98.13
375.319	151.38
375.53	51.03
375.74	-6.31
375.951	34.64
376.161	65.36
376.372	57.17
376.582	51.03
376.793	57.17
377.003	18.26
377.214	-8.36
377.424	65.36
377.635	59.22
377.845	-8.36
378.055	110.42
378.266	81.75
378.476	59.22
378.686	110.42
378.897	42.84
379.107	16.21
379.317	106.32
379.528	65.36
379.738	61.27
379.948	18.26
380.158	98.13
380.369	22.36
380.579	36.69
380.789	44.88
380.999	51.03
381.21	118.61
381.42	126.8
381.63	73.56
381.84	79.7
382.05	100.18
382.261	71.51
382.471	85.84
382.681	114.52
382.891	106.32
383.101	24.4
383.311	-67.75
383.521	81.75
383.731	65.36
383.941	83.8
384.151	16.21
384.361	98.13
384.571	46.93
384.781	102.23
384.991	89.94
385.201	100.18
385.411	48.98
385.621	132.95
385.831	34.64
386.041	53.08
386.251	8.02
386.461	65.36
386.671	55.12
386.881	14.17
387.091	57.17
387.301	157.52
387.511	1.88
387.72	135
387.93	87.89
388.14	1.88
388.35	48.98
388.56	122.71
388.769	81.75
388.979	91.99
389.189	12.12
389.399	42.84
389.609	75.6
389.818	24.4
390.028	38.74
390.238	126.8
390.447	26.45
390.657	-14.51
390.867	5.97
391.076	18.26
391.286	98.13
391.496	36.69
391.705	36.69
391.915	57.17
392.125	94.04
392.334	98.13
392.544	32.6
392.753	98.13
392.963	53.08
393.172	1.88
393.382	36.69
393.591	124.76
393.801	-8.36
394.01	180.05
394.22	100.18
394.429	102.23
394.639	32.6
394.848	89.94
395.058	132.95
395.267	85.84
395.477	141.14
395.686	149.33
395.895	87.89
396.105	114.52
396.314	91.99
396.524	18.26
396.733	-8.36
396.942	26.45
397.152	14.17
397.361	139.09
397.57	100.18
397.78	81.75
397.989	132.95
398.198	116.56
398.407	130.9
398.617	112.47
398.826	18.26
399.035	173.91
399.244	110.42
399.453	118.61
399.663	159.57
399.872	163.67
400.081	8.02
400.29	198.48
400.499	67.41
400.708	139.09
400.917	114.52
401.127	149.33
401.336	-0.17
401.545	122.71
401.754	85.84
401.963	147.28
402.172	130.9
402.381	112.47
402.59	89.94
402.799	126.8
403.008	128.85
403.217	87.89
403.426	79.7
403.635	163.67
403.844	153.43
404.053	163.67
404.262	149.33
404.471	175.95
404.68	139.09
404.888	106.32
405.097	114.52
405.306	108.37
405.515	208.72
405.724	171.86
405.933	169.81
406.142	200.53
406.35	157.52
406.559	155.47
406.768	182.1
406.977	221.01
407.185	139.09
407.394	192.34
407.603	155.47
407.812	225.11
408.02	253.78
408.229	223.06
408.438	188.24
408.646	239.44
408.855	307.02
409.064	280.4
409.272	239.44
409.481	302.93
409.69	196.43
409.898	192.34
410.107	221.01
410.315	347.98
410.524	247.63
410.733	366.42
410.941	327.5
411.15	403.28
411.358	388.94
411.567	368.46
411.775	417.61
411.984	311.12
412.192	425.81
412.401	362.32
412.609	393.04
412.818	444.24
413.026	479.05
413.234	452.43
413.443	491.34
413.651	458.57
413.86	540.49
414.068	503.63
414.276	552.78
414.485	606.03
414.693	634.7
414.901	595.79
415.11	649.04
415.318	649.04
415.526	589.64
415.734	687.95
415.943	634.7
416.151	749.39
416.359	700.23
416.567	847.69
416.776	778.06
416.984	851.78
417.192	835.4
417.4	747.34
417.608	917.32
417.817	884.55
418.025	960.33
418.233	991.05
418.441	978.76
418.649	1107.78
418.857	1103.68
419.065	1165.12
419.273	1007.43
419.481	1181.51
419.689	1244.99
419.897	1294.15
420.105	1386.3
420.313	1353.54
420.521	1351.49
420.729	1523.52
420.937	1472.32
421.145	1531.71
421.353	1605.44
421.561	1648.44
421.769	1662.78
421.977	1779.51
422.185	1802.04
422.393	1861.43
422.601	2051.89
422.809	1982.26
423.017	2031.41
423.224	2064.18
423.432	2066.23
423.64	2219.83
423.848	2363.19
424.056	2250.55
424.263	2486.06
424.471	2387.76
424.679	2492.21
424.887	2643.76
425.094	2750.25
425.302	2860.84
425.51	2803.5
425.718	2770.73
425.925	3039.01
426.133	2998.06
426.341	3223.33
426.548	3288.87
426.756	3352.35
426.964	3360.55
427.171	3589.92
427.379	3745.56
427.586	3821.34
427.794	3811.1
428.001	3964.7
428.209	4245.27
428.417	4173.59
428.624	4452.11
428.832	4425.49
429.039	4390.67
429.247	4347.67
429.454	4849.42
429.662	5170.95
429.869	4884.23
430.076	5252.87
430.284	5050.12
430.491	5211.91
430.699	5535.49
430.906	5431.04
431.114	5656.32
431.321	5881.6
431.528	5854.97
431.736	6328.05
431.943	6504.18
432.15	6416.12
432.358	6405.88
432.565	6815.47
432.772	6919.92
432.979	7036.65
433.187	7126.76
433.394	7380.71
433.601	7818.97
433.808	7866.08
434.016	7710.43
434.223	8132.31
434.43	8597.2
434.637	8335.06
434.844	8896.21
435.052	9086.67
435.259	8955.6
435.466	9367.24
435.673	8849.1
435.88	9610.95
436.087	10043.07
436.294	10036.92
436.501	9789.12
436.708	10118.84
436.915	10215.1
437.122	10712.75
437.329	10743.47
437.537	11089.58
437.743	11384.49
437.95	11171.5
438.157	11624.1
438.364	12205.72
438.571	12146.33
438.778	12373.66
438.985	13272.71
439.192	12830.35
439.399	13162.12
439.606	12963.47
439.813	13790.85
440.02	14503.54
440.227	14161.53
440.433	14061.18
440.64	14706.29
440.847	14528.12
441.054	14780.02
441.261	15697.51
441.467	15486.57
441.674	15988.32
441.881	16531.03
442.088	16205.41
442.294	16240.22
442.501	16617.05
442.708	16954.96
442.914	17356.36
443.121	18472.51
443.328	17999.43
443.534	19019.32
443.741	18669.11
443.948	18286.14
444.154	19885.61
444.361	19648.04
444.568	19736.1
444.774	19703.34
444.981	20008.48
445.187	20692.51
445.394	21345.81
445.6	21327.38
445.807	22971.89
446.013	22353.41
446.22	22703.61
446.426	23487.98
446.633	23780.84
446.839	24640.99
447.046	23485.93
447.252	25013.72
447.459	24837.59
447.665	24784.35
447.871	25744.84
448.078	26779.07
448.284	25759.18
448.491	26172.87
448.697	27360.69
448.903	27708.85
449.11	27956.65
449.316	27555.25
449.522	28347.81
449.728	28808.61
449.935	28994.97
450.141	29109.66
450.347	29953.42
450.553	28802.46
450.76	29240.73
450.966	30174.6
451.172	29777.29
451.378	30545.28
451.584	29971.85
451.791	30825.85
451.997	30492.04
452.203	31004.03
452.409	31059.32
452.615	31305.08
452.821	30029.2
453.027	29891.98
453.233	31112.57
453.44	29906.32
453.646	30668.16
453.852	30690.69
454.058	30928.25
454.264	30324.1
454.47	30999.93
454.676	29984.14
454.882	31071.61
455.088	28360.1
455.294	29224.34
455.5	29388.18
455.705	29719.95
455.911	28513.7
456.117	27895.21
456.323	27549.1
456.529	26246.6
456.735	27633.07
456.941	26713.53
457.147	26064.33
457.352	25738.7
457.558	25150.93
457.764	25210.32
457.97	24995.29
458.176	24438.24
458.381	24804.83
458.587	23033.33
458.793	23141.88
458.999	22195.71
459.204	23576.05
459.41	22846.97
459.616	21478.93
459.821	21415.44
460.027	21222.93
460.233	20956.69
460.438	20069.92
460.644	20434.46
460.85	19185.2
461.055	18875.96
461.261	18921.01
461.466	17579.59
461.672	17194.57
461.878	17751.62
462.083	17223.25
462.289	16827.99
462.494	16236.13
462.7	15711.85
462.905	15283.82
463.111	15883.87
463.316	16045.66
463.522	15629.93
463.727	15466.09
463.932	15550.06
464.138	15380.07
464.343	15482.47
464.549	14970.48
464.754	15494.76
464.959	15318.64
465.165	15081.07
465.37	14384.76
465.575	14044.8
465.781	14716.53
465.986	14999.15
466.191	14278.27
466.397	14069.37
466.602	13188.75
466.807	13807.23
467.012	13897.35
467.218	13952.64
467.423	13541
467.628	13770.37
467.833	14311.03
468.038	13663.88
468.244	13321.87
468.449	13852.29
468.654	13403.78
468.859	13356.68
469.064	13252.24
469.269	12930.7
469.474	12938.9
469.679	13233.8
469.885	12744.34
470.09	12957.33
470.295	12775.06
470.5	12635.8
470.705	12693.14
470.91	12347.03
471.115	12279.45
471.32	12486.29
471.525	12379.8
471.73	12095.13
471.935	11949.73
472.139	11656.87
472.344	11726.5
472.549	11693.73
472.754	11462.31
472.959	11615.91
473.164	11112.11
473.369	10864.3
473.574	11472.55
473.778	11142.83
473.983	11105.96
474.188	11185.83
474.393	10622.64
474.598	10800.82
474.802	10747.57
475.007	10399.41
475.212	10555.06
475.417	10153.66
475.621	10124.99
475.826	10172.09
476.031	9971.39
476.235	9694.91
476.44	10051.26
476.645	9709.25
476.849	9866.94
477.054	9629.38
477.259	9449.16
477.463	9469.64
477.668	9129.67
477.872	9273.03
478.077	9166.54
478.282	8920.78
478.486	8914.64
478.691	8834.77
478.895	8969.93
479.1	8775.38
479.304	8691.41
479.509	8486.61
479.713	8711.89
479.918	8470.23
480.122	8632.02
480.326	8285.91
480.531	8515.28
480.735	8236.76
480.94	8322.77
481.144	8457.94
481.348	8179.42
481.553	8146.65
481.757	8083.16
481.961	8165.08
482.166	8285.91
482.37	8206.04
482.574	8099.55
482.778	8150.74
482.983	8277.72
483.187	7999.2
483.391	8081.11
483.595	8056.54
483.8	7931.61
484.004	8154.84
484.208	8224.47
484.412	7972.57
484.616	8247
484.821	8134.36
485.025	7970.52
485.229	8097.5
485.433	8117.98
485.637	8185.56
485.841	7939.8
486.045	8023.77
486.249	8031.96
486.453	8013.53
486.657	8046.3
486.861	8068.83
487.065	7956.19
487.269	7939.8
487.473	7964.38
487.677	8087.26
487.881	8113.88
488.085	7929.56
488.289	8152.79
488.493	7892.7
488.697	8144.6
488.901	8183.51
489.105	8040.15
489.309	8132.31
489.512	8275.67
489.716	8124.12
489.92	8077.02
490.124	8126.17
490.328	8158.94
490.531	8031.96
490.735	8138.46
490.939	8464.08
491.143	8365.78
491.346	8324.82
491.55	8437.46
491.754	8388.31
491.958	8453.84
492.161	8347.35
492.365	8474.32
492.569	8345.3
492.772	8396.5
492.976	8589.01
493.18	8699.6
493.383	8761.04
493.587	8728.27
493.79	8935.12
493.994	8787.66
494.197	8699.6
494.401	9006.8
494.605	9113.29
494.808	9127.63
495.012	9072.33
495.215	9234.12
495.419	9383.62
495.622	9438.92
495.825	9451.21
496.029	9217.74
496.232	9625.28
496.436	9580.23
496.639	9805.5
496.843	9567.94
497.046	9830.08
497.249	9979.58
497.453	10090.17
497.656	10297.02
497.859	10190.52
498.063	10116.79
498.266	10245.82
498.469	10473.14
498.673	10602.16
498.876	10772.14
499.079	10862.26
499.282	10843.82
499.485	11349.67
499.689	11054.76
499.892	11341.48
500.095	11439.78
500.298	11456.17
500.501	11321
500.705	11714.21
500.908	11947.68
501.111	12007.07
501.314	12017.31
501.517	12304.03
501.72	12375.7
501.923	12199.58
502.126	12891.79
502.329	13074.06
502.532	12969.62
502.735	12750.48
502.938	13350.54
503.141	13340.3
503.344	13575.81
503.547	13651.59
503.75	13770.37
503.953	13946.5
504.156	14003.84
504.359	14270.08
504.562	14386.81
504.765	14716.53
504.968	14683.77
505.17	14859.89
505.373	14728.82
505.576	15267.44
505.779	15328.88
505.982	15429.23
506.185	15674.98
506.387	15840.87
506.59	16051.81
506.793	16326.24
506.996	16387.68
507.198	16600.66
507.401	16543.32
507.604	16744.02
507.807	17231.44
508.009	17385.04
508.212	17194.57
508.415	17647.18
508.617	17446.48
508.82	17897.03
509.022	17794.63
509.225	18366.01
509.428	18357.82
509.63	18628.15
509.833	18456.12
510.035	19047.99
510.238	18921.01
510.44	19301.93
510.643	19426.86
510.845	19572.27
511.048	19641.9
511.25	20039.2
511.453	20098.59
511.655	20721.18
511.858	20502.04
512.06	20835.86
512.262	21112.34
512.465	20958.74
512.667	21392.91
512.87	21636.62
513.072	21718.54
513.274	21722.63
513.477	22093.32
513.679	22355.46
513.881	22435.33
514.084	23041.53
514.286	22726.14
514.488	22939.13
514.69	23649.77
514.893	23641.58
515.095	23666.16
515.297	24081.89
515.499	24313.31
515.701	24581.6
515.904	24522.21
516.106	24843.74
516.308	24808.92
516.51	25327.06
516.712	25368.02
516.914	25488.85
517.116	26136.01
517.318	25980.36
517.52	26195.4
517.722	26375.62
517.925	26795.45
518.127	27243.96
518.329	27002.3
518.531	27409.84
518.733	27985.32
518.935	27872.68
519.136	27864.49
519.338	28366.24
519.54	28566.95
519.742	28835.23
519.944	28904.86
520.146	29007.26
520.348	29484.44
520.55	29291.93
520.752	29722
520.954	30037.39
521.155	29871.5
521.357	30475.65
521.559	30485.89
521.761	31030.65
521.963	30926.21
522.164	31251.83
522.366	31092.09
522.568	31417.72
522.77	31624.56
522.971	31898.99
523.173	32017.77
523.375	32458.09
523.576	32427.37
523.778	32388.46
523.98	32703.84
524.181	32857.44
524.383	33013.09
524.584	33181.02
524.786	33441.11
524.988	33650
525.189	33955.15
525.391	34039.12
525.592	34321.74
525.794	34063.69
525.995	34153.8
526.197	34417.99
526.398	34241.87
526.6	34866.5
526.801	34678.08
527.003	35155.26
527.204	35011.9
527.406	35112.25
527.607	35044.67
527.808	35466.55
528.01	35044.67
528.211	35401.02
528.412	36298.03
528.614	36162.86
528.815	35870
529.016	36322.6
529.218	35880.24
529.419	35978.54
529.62	35849.52
529.822	36263.21
530.023	36191.53
530.224	36304.17
530.425	36091.18
530.626	36267.31
530.828	36003.12
531.029	37018.91
531.23	36195.63
531.431	36459.82
531.632	36627.75
531.833	36732.2
532.035	36425
532.236	36826.4
532.437	37262.62
532.638	36633.89
532.839	37283.1
533.04	37250.33
533.241	36472.1
533.442	37459.23
533.643	37416.22
533.844	37145.89
534.045	37551.38
534.246	36730.15
534.447	36918.56
534.648	37115.17
534.849	37002.53
535.05	36832.55
535.251	36928.8
535.451	37125.41
535.652	37127.45
535.853	37023.01
536.054	37154.08
536.255	37254.43
536.456	36914.47
536.657	37754.13
536.857	36793.64
537.058	36957.47
537.259	37367.07
537.46	37186.85
537.66	37156.13
537.861	37041.44
538.062	36943.14
538.263	37545.24
538.463	36511.02
538.664	37205.28
538.865	37174.56
539.065	37072.16
539.266	36951.33
539.466	37336.35
539.667	36670.76
539.868	37416.22
540.068	36857.12
540.269	37129.5
540.469	37285.15
540.67	37086.5
540.87	36932.9
541.071	36568.36
541.271	36697.38
541.472	36857.12
541.672	36672.81
541.873	36371.75
542.073	36117.81
542.274	37246.24
542.474	36736.29
542.675	36699.43
542.875	37055.78
543.075	36551.98
543.276	36212.01
543.476	36924.71
543.676	36640.04
543.877	36693.29
544.077	36666.66
544.277	36549.93
544.478	36605.22
544.678	36885.79
544.878	36660.52
545.078	36812.07
545.279	36662.57
545.479	36654.37
545.679	36830.5
545.879	36500.78
546.079	36861.22
546.28	36394.28
546.48	36472.1
546.68	36799.78
546.88	36549.93
547.08	36533.54
547.28	36425
547.48	36009.26
547.68	36504.87
547.88	36205.87
548.081	36697.38
548.281	36439.34
548.481	36314.41
548.681	36734.24
548.881	36687.14
549.081	36615.46
549.28	36371.75
549.48	36351.27
549.68	36232.49
549.88	36922.66
550.08	36271.4
550.28	36158.77
550.48	36490.54
550.68	36721.96
550.88	36300.08
551.08	36392.23
551.279	36361.51
551.479	35951.92
551.679	36295.98
551.879	36369.71
552.079	36814.12
552.278	35845.43
552.478	36607.27
552.678	36564.26
552.878	36427.05
553.077	36080.94
553.277	36132.14
553.477	36451.63
553.676	35783.99
553.876	35761.46
554.076	35902.77
554.275	36044.08
554.475	35945.78
554.674	35829.04
554.874	35898.67
555.074	35796.28
555.273	36037.94
555.473	35978.54
555.672	35704.12
555.872	35634.49
556.071	35718.45
556.271	35781.94
556.47	35448.12
556.67	35401.02
556.869	35665.21
557.068	35812.66
557.268	35482.94
557.467	35771.7
557.667	35562.81
557.866	35274.04
558.065	35530.04
558.265	35478.84
558.464	35071.29
558.663	35411.26
558.863	35050.81
559.062	35915.06
559.261	35038.53
559.461	35691.83
559.66	34725.19
559.859	34831.68
560.058	34864.45
560.258	35220.8
560.457	34762.05
560.656	35384.63
560.855	34610.5
561.054	34663.75
561.253	34528.58
561.453	34780.48
561.652	34821.44
561.851	34868.55
562.05	34825.54
562.249	34436.42
562.448	34409.8
562.647	34444.62
562.846	34004.3
563.045	34188.62
563.244	33967.44
563.443	34280.78
563.642	33760.59
563.841	34180.43
564.04	33703.25
564.239	34352.46
564.438	33944.91
564.637	33926.48
564.836	33838.42
565.035	33480.02
565.234	33785.17
565.432	33699.16
565.631	33621.33
565.83	34116.94
566.029	33432.92
566.228	33561.94
566.427	33289.56
566.625	33367.38
566.824	32992.61
567.023	33473.88
567.222	32486.76
567.42	33004.89
567.619	32957.79
567.818	32869.73
568.016	32836.96
568.215	32851.3
568.414	32863.58
568.612	32974.17
568.811	32929.12
569.01	32642.4
569.208	32169.32
569.407	32810.34
569.605	32142.7
569.804	32605.54
570.002	32034.16
570.201	32099.69
570.4	31966.57
570.598	32050.54
570.797	32134.51
570.995	31993.2
571.193	31663.47
571.392	32195.95
571.59	31972.72
571.789	31716.72
571.987	31860.08
572.186	31690.1
572.384	31747.44
572.582	31774.06
572.781	31272.31
572.979	30844.29
573.177	31239.54
573.376	31063.42
573.574	30592.39
573.772	31237.5
573.971	31245.69
574.169	30606.72
574.367	30770.56
574.565	30633.35
574.763	30999.93
574.962	30526.85
575.16	30326.15
575.358	30215.56
575.556	30457.22
575.754	30410.12
575.952	30129.55
576.151	30414.21
576.349	29930.89
576.547	29877.65
576.745	30041.48
576.943	30121.35
577.141	29707.66
577.339	29787.53
577.537	29740.43
577.735	29891.98
577.933	29621.65
578.131	29554.07
578.329	29314.45
578.527	29265.3
578.725	29314.45
578.923	29353.37
579.121	29140.38
579.319	29126.04
579.516	29230.49
579.714	29162.9
579.912	28564.9
580.11	28816.8
580.308	28655.01
580.506	28708.26
580.704	28089.77
580.901	28513.7
581.099	28513.7
581.297	28376.48
581.495	28224.93
581.692	28202.41
581.89	27942.31
582.088	28456.36
582.285	27930.03
582.483	28222.89
582.681	28204.45
582.878	27671.98
583.076	27590.06
583.274	27690.41
583.471	27499.95
583.669	27737.52
583.866	27282.87
584.064	27499.95
584.262	26916.28
584.459	27428.27
584.657	27196.85
584.854	27329.97
585.052	26906.04
585.249	26983.87
585.447	26949.05
585.644	26455.49
585.841	26840.51
586.039	26998.2
586.236	26369.47
586.434	26351.04
586.631	26541.5
586.828	26373.57
587.026	26260.93
587.223	26566.08
587.42	26176.97
587.618	26168.77
587.815	25857.48
588.012	25935.31
588.21	26023.37
588.407	25943.5
588.604	25849.29
588.801	25628.11
588.999	25585.1
589.196	25187.8
589.393	25490.9
589.59	25308.63
589.787	25501.14
589.984	25253.33
590.182	24722.91
590.379	25284.05
590.576	24985.05
590.773	25013.72
590.97	24737.24
591.167	24954.33
591.364	24788.44
591.561	24942.04
591.758	24397.28
591.955	24548.83
592.152	24722.91
592.349	24151.52
592.546	24569.31
592.743	24409.57
592.94	24042.98
593.137	24376.8
593.334	24194.53
593.531	23873
593.727	24085.99
593.924	23825.9
594.121	23637.48
594.318	23453.17
594.515	23612.91
594.712	23633.39
594.908	23713.26
595.105	23463.41
595.302	23397.87
595.499	23436.78
595.696	23164.4
595.892	23137.78
596.089	23324.15
596.286	23111.16
596.482	23068.15
596.679	23016.95
596.876	22719.99
597.072	22662.65
597.269	22693.37
597.466	22570.49
597.662	22613.5
597.859	22765.05
598.055	22472.19
598.252	22341.12
598.448	22234.63
598.645	22498.81
598.841	22179.33
599.038	22187.52
599.234	22384.13
599.431	21904.9
599.627	21837.32
599.824	21863.94
600.02	21847.56
600.217	21757.45
600.413	21519.88
600.609	21341.71
600.806	21507.6
601.002	21648.91
601.198	21368.34
601.395	21284.37
601.591	21603.85
601.787	21513.74
601.984	20821.53
602.18	21267.98
602.376	20956.69
602.572	20704.79
602.769	21059.09
602.965	20844.06
603.161	20999.7
603.357	20620.83
603.553	20555.29
603.75	20579.87
603.946	20557.34
604.142	20549.15
604.338	20422.17
604.534	20672.03
604.73	20018.72
604.926	19992.1
605.122	20186.66
605.318	20172.32
605.514	19840.55
605.71	20133.41
605.906	20080.16
606.102	19785.26
606.298	19957.28
606.494	20114.98
606.69	19729.96
606.886	19832.36
607.082	19676.71
607.278	19664.43
607.474	19602.99
607.67	19308.08
607.866	19293.74
608.062	19768.87
608.257	19457.58
608.453	19607.08
608.649	19177.01
608.845	19136.05
609.041	19197.49
609.236	19256.88
609.432	18998.84
609.628	19070.51
609.824	18757.18
610.019	19185.2
610.215	19136.05
610.411	19142.19
610.606	18900.53
610.802	18824.76
610.998	18998.84
611.193	18818.61
611.389	18718.26
611.584	18427.45
611.78	18595.39
611.976	18605.63
612.171	18447.93
612.367	18431.55
612.562	18400.83
612.758	18323.01
612.953	18257.47
613.149	18595.39
613.344	18105.92
613.539	18665.02
613.735	18409.02
613.93	18370.11
614.126	18433.6
614.321	18306.62
614.517	18253.37
614.712	18222.66
614.907	17976.9
615.103	17993.28
615.298	17874.5
615.493	18243.13
615.688	17802.82
615.884	18490.94
616.079	17403.47
616.274	17960.52
616.47	17718.85
616.665	17661.51
616.86	17655.37
617.055	17606.22
617.25	17694.28
617.445	17647.18
617.641	17243.73
617.836	17518.15
618.031	17370.7
618.226	17450.57
618.421	17397.32
618.616	17436.24
618.811	17438.28
619.006	17262.16
619.201	16967.25
619.396	17129.04
619.591	16805.46
619.786	16987.73
619.981	16621.14
620.176	16750.17
620.371	16617.05
620.566	16852.56
620.761	16490.07
620.956	16426.59
621.151	16627.29
621.346	16596.57
621.541	16154.21
621.735	16279.13
621.93	16285.28
622.125	16154.21
622.32	15910.5
622.515	15922.79
622.709	15687.27
622.904	15847.01
623.099	15697.51
623.294	15746.66
623.488	15486.57
623.683	15466.09
623.878	15113.84
624.072	15335.02
624.267	15400.55
624.462	15048.3
624.656	15148.65
624.851	15171.18
625.046	14745.2
625.24	14696.05
625.435	14644.85
625.629	14681.72
625.824	14476.92
626.018	14450.3
626.213	14237.31
626.407	14417.53
626.602	13999.74
626.796	14249.6
626.991	14106.24
627.185	14116.48
627.38	13921.92
627.574	13823.62
627.768	13676.16
627.963	13575.81
628.157	13581.96
628.352	13655.68
628.546	13414.02
628.74	13442.7
628.935	13303.43
629.129	13336.2
629.323	13100.69
629.517	12938.9
629.712	12986
629.906	13037.2
630.1	12953.23
630.294	12871.31
630.489	12631.7
630.683	12887.7
630.877	12592.79
631.071	12598.93
631.265	12523.16
631.459	12600.98
631.653	12213.91
631.848	12371.61
632.042	12027.55
632.236	12287.64
632.43	12152.48
632.624	11959.97
632.818	11871.9
633.012	11785.89
633.206	11880.1
633.4	11947.68
633.594	11656.87
633.788	11855.52
633.982	11624.1
634.176	11556.52
634.369	11361.96
634.563	11603.62
634.757	11382.44
634.951	11364.01
635.145	11095.72
635.339	11595.43
635.533	11200.17
635.726	11083.44
635.92	11148.97
636.114	11001.52
636.308	10913.45
636.501	11036.33
636.695	11083.44
636.889	10831.54
637.083	10804.91
637.276	10428.09
637.47	10712.75
637.664	10630.84
637.857	10534.58
638.051	10350.26
638.244	10084.03
638.438	10428.09
638.632	10284.73
638.825	10264.25
639.019	10165.95
639.212	10051.26
639.406	10069.69
639.599	10184.38
639.793	10145.47
639.986	9899.71
640.18	9791.17
640.373	9748.16
640.567	9819.84
640.76	9893.57
640.954	9717.44
641.147	9703.11
641.34	9387.72
641.534	9338.57
641.727	9332.42
641.92	9291.46
642.114	9371.33
642.307	9166.54
642.5	9174.73
642.694	9062.09
642.887	9088.71
643.08	9223.88
643.273	8937.16
643.467	9232.07
643.66	8951.5
643.853	8947.4
644.046	8660.69
644.239	8685.26
644.432	8627.92
644.626	8871.63
644.819	8636.11
645.012	8724.18
645.205	8513.24
645.398	8455.89
645.591	8494.8
645.784	8503
645.977	8316.63
646.17	8341.21
646.363	8394.45
646.556	8171.22
646.749	8144.6
646.942	8226.52
647.135	8169.18
647.328	8093.4
647.521	8029.91
647.714	7784.16
647.907	7878.37
648.099	7847.65
648.292	7921.37
648.485	8087.26
648.678	7839.45
648.871	7845.6
649.064	7556.83
649.256	7573.22
649.449	7452.39
649.642	7507.68
649.835	7388.9
650.027	7472.87
650.22	7429.86
650.413	7345.89
650.605	7401.19
650.798	7128.81
650.991	7347.94
651.183	7220.97
651.376	7087.85
651.568	7102.18
651.761	7106.28
651.954	7044.84
652.146	6950.64
652.339	6983.4
652.531	6815.47
652.724	7055.08
652.916	6985.45
653.109	6924.01
653.301	6887.15
653.494	6690.54
653.686	6762.22
653.879	6733.55
654.071	6627.06
654.263	6524.66
654.456	6661.87
654.648	6647.54
654.84	6508.27
655.033	6352.63
655.225	6508.27
655.417	6274.81
655.61	6328.05
655.802	6459.12
655.994	6326
656.186	6254.33
656.379	6258.42
656.571	6289.14
656.763	6158.07
656.955	6248.18
657.148	6162.17
657.34	6147.83
657.532	5998.33
657.724	6127.35
657.916	6078.2
658.108	6055.67
658.3	5922.55
658.492	5951.23
658.684	5834.49
658.876	5791.48
659.068	5764.86
659.26	5734.14
659.452	5621.5
659.644	5848.83
659.836	5713.66
660.028	5809.92
660.22	5687.04
660.412	5582.59
660.604	5517.06
660.796	5484.29
660.988	5562.11
661.18	5451.52
661.372	5355.27
661.563	5271.3
661.755	5189.38
661.947	5385.99
662.139	5385.99
662.331	5224.2
662.522	5328.64
662.714	5304.07
662.906	5295.88
663.097	5105.42
663.289	5052.17
663.481	4935.43
663.673	5365.51
663.864	4955.91
664.056	5013.26
664.247	5021.45
664.439	5091.08
664.631	5119.75
664.822	4935.43
665.014	4917
665.205	4779.79
665.397	4849.42
665.588	4785.93
665.78	4667.15
665.971	4673.29
666.163	4736.78
666.354	4738.83
666.546	4689.68
666.737	4632.33
666.929	4638.48
667.12	4630.29
667.311	4497.17
667.503	4554.51
667.694	4581.14
667.885	4556.56
668.077	4468.5
668.268	4517.65
668.459	4400.91
668.651	4384.53
668.842	4374.29
669.033	4546.32
669.224	4482.83
669.416	4382.48
669.607	4329.24
669.798	4312.85
669.989	4316.95
670.18	4218.64
670.371	4292.37
670.563	4271.89
670.754	4185.88
670.945	4243.22
671.136	4208.41
671.327	4044.57
671.518	4245.27
671.709	3983.13
671.9	4284.18
672.091	4099.86
672.282	4013.85
672.473	3903.26
672.664	4065.05
672.855	3960.6
673.046	4046.62
673.237	3981.08
673.428	3893.02
673.619	4013.85
673.809	4048.66
674	3854.11
674.191	3960.6
674.382	3802.91
674.573	3813.15
674.764	3862.3
674.954	3917.59
675.145	3737.37
675.336	3776.28
675.527	3677.98
675.717	3702.56
675.908	3680.03
676.099	3772.19
676.289	3667.74
676.48	3686.17
676.671	3663.65
676.861	3702.56
677.052	3546.91
677.243	3653.41
677.433	3661.6
677.624	3606.3
677.814	3559.2
678.005	3557.15
678.195	3653.41
678.386	3688.22
678.576	3548.96
678.767	3481.38
678.957	3571.49
679.148	3641.12
679.338	3573.53
679.529	3477.28
679.719	3417.89
679.909	3553.06
680.1	3510.05
680.29	3534.62
680.481	3538.72
680.671	3512.1
680.861	3456.8
681.052	3352.35
681.242	3360.55
681.432	3366.69
681.622	3237.67
681.813	3315.49
682.003	3301.15
682.193	3381.03
682.383	3286.82
682.573	3284.77
682.764	3145.51
682.954	3491.62
683.144	3321.63
683.334	3217.19
683.524	3333.92
683.714	3305.25
683.904	3118.89
684.094	3364.64
684.284	3202.85
684.474	3315.49
684.664	3358.5
684.854	3258.15
685.044	3206.95
685.234	3186.47
685.424	3155.75
685.614	3098.41
685.804	3090.21
685.994	3221.28
686.184	3104.55
686.374	3096.36
686.564	3053.35
686.753	3106.6
686.943	3026.73
687.133	3084.07
687.323	3034.92
687.513	3110.69
687.702	3055.4
687.892	3030.82
688.082	2981.67
688.272	3082.02
688.461	3022.63
688.651	2934.57
688.841	2940.71
689.03	2965.29
689.22	3043.11
689.41	3016.49
689.599	2838.31
689.789	2887.47
689.979	2834.22
690.168	2860.84
690.358	2772.78
690.547	2797.35
690.737	2866.99
690.926	2754.35
691.116	2778.92
691.305	2893.61
691.495	2783.02
691.684	2694.96
691.874	2778.92
692.063	2877.23
692.252	2793.26
692.442	2670.38
692.631	2694.96
692.82	2643.76
693.01	2690.86
693.199	2715.44
693.388	2635.57
693.578	2641.71
693.767	2580.27
693.956	2639.66
694.146	2649.9
694.335	2490.16
694.524	2524.97
694.713	2522.93
694.902	2541.36
695.092	2617.13
695.281	2596.65
695.47	2674.48
695.659	2555.69
695.848	2604.85
696.037	2539.31
696.226	2494.26
696.415	2580.27
696.604	2535.21
696.793	2475.82
696.982	2516.78
697.171	2615.09
697.36	2457.39
697.549	2455.34
697.738	2408.24
697.927	2359.09
698.116	2346.8
698.305	2572.08
698.494	2436.91
698.683	2375.47
698.872	2416.43
699.061	2318.13
699.25	2391.86
699.438	2490.16
699.627	2387.76
699.816	2418.48
700.005	2363.19
700.193	2400.05
700.382	2418.48
700.571	2326.32
700.76	2318.13
700.948	2289.46
701.137	2475.82
701.326	2334.51
701.514	2352.95
701.703	2424.62
701.892	2326.32
702.08	2301.75
702.269	2232.12
702.457	2238.26
702.646	2244.4
702.834	2275.12
703.023	2338.61
703.212	2334.51
703.4	2322.23
703.589	2303.79
703.777	2320.18
703.965	2359.09
704.154	2359.09
704.342	2309.94
704.531	2248.5
704.719	2219.83
704.907	2293.55
705.096	2363.19
705.284	2225.97
705.472	2279.22
705.661	2158.39
705.849	2320.18
706.037	2180.92
706.226	2219.83
706.414	2209.59
706.602	2273.07
706.79	2221.88
706.979	2252.59
707.167	2271.03
707.355	2244.4
707.543	2309.94
707.731	2197.3
707.919	2271.03
708.107	2178.87
708.296	2174.77
708.484	2150.2
708.672	2285.36
708.86	2260.79
709.048	2123.57
709.236	2219.83
709.424	2121.52
709.612	2055.99
709.8	2078.52
709.988	2223.92
710.176	2277.17
710.364	2082.61
710.551	2209.59
710.739	2242.36
710.927	2137.91
711.115	2139.96
711.303	2021.17
711.491	2246.45
711.679	2154.29
711.866	2037.56
712.054	2090.81
712.242	2230.07
712.43	2178.87
712.617	2170.68
712.805	2213.68
712.993	2051.89
713.181	2070.33
713.368	2117.43
713.556	2162.48
713.744	2066.23
713.931	2195.25
714.119	2174.77
714.306	2162.48
714.494	2158.39
714.682	2121.52
714.869	2006.84
715.057	2219.83
715.244	1957.69
715.432	2096.95
715.619	2070.33
715.807	1939.26
715.994	2162.48
716.182	2203.44
716.369	2041.65
716.556	2174.77
716.744	2076.47
716.931	2031.41
717.119	2195.25
717.306	2092.85
717.493	2049.85
717.681	2070.33
717.868	2074.42
718.055	2055.99
718.242	2170.68
718.43	2105.14
718.617	2101.05
718.804	2117.43
718.991	2101.05
719.179	2066.23
719.366	2137.91
719.553	2139.96
719.74	2072.37
719.927	2107.19
720.114	2131.76
720.301	2002.74
720.488	2090.81
720.676	2023.22
720.863	2244.4
721.05	2195.25
721.237	2131.76
721.424	2144.05
721.611	2064.18
721.798	2086.71
721.985	2133.81
722.172	2037.56
722.358	2035.51
722.545	2144.05
722.732	2107.19
722.919	2070.33
723.106	2041.65
723.293	2109.24
723.48	2111.29
723.667	2101.05
723.853	2058.04
724.04	2072.37
724.227	2148.15
724.414	2146.1
724.6	2051.89
724.787	2019.13
724.974	2150.2
725.161	2146.1
725.347	2000.69
725.534	2017.08
725.72	2129.72
725.907	2113.33
726.094	2051.89
726.28	2008.89
726.467	2074.42
726.653	2008.89
726.84	2123.57
727.027	2162.48
727.213	2064.18
727.4	1994.55
727.586	2080.57
727.773	2080.57
727.959	2035.51
728.145	2113.33
728.332	2154.29
728.518	1976.12
728.705	2137.91
728.891	2076.47
729.077	2176.82
729.264	2029.37
729.45	2021.17
729.636	2205.49
729.823	2082.61
730.009	2172.72
730.195	2107.19
730.382	2025.27
730.568	2096.95
730.754	2039.61
730.94	2142
731.126	2156.34
731.313	2099
731.499	2103.09
731.685	2180.92
731.871	2096.95
732.057	2047.8
732.243	2015.03
732.429	1982.26
732.615	2096.95
732.801	2064.18
732.987	2041.65
733.173	2099
733.359	2090.81
733.545	2023.22
733.731	2154.29
733.917	2162.48
734.103	2203.44
734.289	2021.17
734.475	2080.57
734.661	2037.56
734.847	2113.33
735.033	2019.13
735.219	1982.26
735.404	2041.65
735.59	2039.61
735.776	2072.37
735.962	2068.28
736.148	2107.19
736.333	2109.24
736.519	2066.23
736.705	2008.89
736.89	1951.54
737.076	1978.17
737.262	1982.26
737.447	1974.07
737.633	2015.03
737.819	2125.62
738.004	2035.51
738.19	2041.65
738.375	2084.66
738.561	2082.61
738.747	1935.16
738.932	1945.4
739.118	2031.41
739.303	2021.17
739.489	2086.71
739.674	2053.94
739.859	2002.74
740.045	1926.97
740.23	1830.71
740.416	1781.56
740.601	1976.12
740.786	1949.5
740.972	1898.3
741.157	1836.86
741.342	1951.54
741.528	1892.15
741.713	1949.5
741.898	1998.65
742.084	1949.5
742.269	1951.54
742.454	1918.78
742.639	1994.55
742.824	1922.87
743.01	1953.59
743.195	1920.82
743.38	1853.24
743.565	1859.38
743.75	1883.96
743.935	1773.37
744.12	1836.86
744.305	1847.1
744.49	1797.95
744.675	1797.95
744.86	1916.73
745.045	1777.47
745.23	1906.49
745.415	1773.37
745.6	1871.67
745.785	1896.25
745.97	1773.37
746.155	1716.03
746.34	1650.49
746.525	1658.68
746.71	1722.17
746.895	1793.85
747.079	1781.56
747.264	1759.03
747.449	1763.13
747.634	1703.74
747.819	1728.31
748.003	1662.78
748.188	1652.54
748.373	1713.98
748.557	1687.36
748.742	1621.82
748.927	1617.72
749.111	1644.35
749.296	1527.61
749.481	1615.68
749.665	1625.92
749.85	1564.48
750.034	1601.34
750.219	1646.4
750.404	1533.76
750.588	1509.18
750.773	1449.79
750.957	1531.71
751.141	1539.9
751.326	1593.15
751.51	1539.9
751.695	1490.75
751.879	1433.41
752.064	1460.03
752.248	1464.13
752.432	1386.3
752.617	1443.65
752.801	1490.75
752.985	1378.11
753.17	1386.3
753.354	1476.41
753.538	1410.88
753.722	1374.02
753.907	1343.3
754.091	1427.26
754.275	1337.15
754.459	1353.54
754.643	1314.63
754.828	1320.77
755.012	1351.49
755.196	1347.39
755.38	1302.34
755.564	1281.86
755.748	1279.81
755.932	1240.9
756.116	1212.23
756.3	1310.53
756.484	1167.17
756.668	1228.61
756.852	1146.69
757.036	1195.84
757.22	1355.58
757.404	1189.7
757.588	1228.61
757.772	1212.23
757.956	1099.59
758.14	1294.15
758.323	1138.5
758.507	1111.88
758.691	1048.39
758.875	1244.99
759.059	1138.5
759.242	1189.7
759.426	1036.1
759.61	1183.56
759.794	1093.44
759.977	1070.92
760.161	1212.23
760.345	1128.26
760.528	1122.12
760.712	1085.25
760.895	1025.86
761.079	1105.73
761.263	1001.29
761.446	1118.02
761.63	1113.92
761.813	1081.16
761.997	991.05
762.18	993.09
762.364	1036.1
762.547	991.05
762.731	984.9
762.914	958.28
763.098	1046.34
763.281	974.66
763.464	1015.62
763.648	935.75
763.831	991.05
764.015	909.13
764.198	1058.63
764.381	927.56
764.564	984.9
764.748	943.94
764.931	980.81
765.114	954.18
765.297	1015.62
765.481	966.47
765.664	923.46
765.847	900.94
766.03	989
766.213	960.33
766.397	868.17
766.58	927.56
766.763	933.7
766.946	808.78
767.129	890.7
767.312	943.94
767.495	919.37
767.678	905.03
767.861	948.04
768.044	919.37
768.227	878.41
768.41	862.02
768.593	933.7
768.776	741.19
768.959	911.18
769.142	925.51
769.324	921.42
769.507	780.11
769.69	952.13
769.873	915.27
770.056	845.64
770.239	821.06
770.421	919.37
770.604	802.63
770.787	812.87
770.97	915.27
771.152	802.63
771.335	829.26
771.518	876.36
771.7	839.5
771.883	806.73
772.066	810.82
772.248	808.78
772.431	857.93
772.613	730.95
772.796	812.87
772.978	835.4
773.161	851.78
773.343	714.57
773.526	786.25
773.708	700.23
773.891	868.17
774.073	737.1
774.256	806.73
774.438	827.21
774.621	728.91
774.803	751.43
774.985	712.52
775.168	694.09
775.35	800.59
775.532	720.71
775.715	700.23
775.897	761.67
776.079	696.14
776.261	706.38
776.444	696.14
776.626	724.81
776.808	630.6
776.99	659.28
777.173	728.91
777.355	622.41
777.537	689.99
777.719	649.04
777.901	706.38
778.083	636.75
778.265	675.66
778.447	687.95
778.629	634.7
778.811	655.18
778.993	591.69
779.175	704.33
779.357	638.8
779.539	618.32
779.721	532.3
779.903	597.84
780.085	585.55
780.267	583.5
780.449	679.75
780.631	577.36
780.812	610.12
780.994	583.5
781.176	567.12
781.358	517.97
781.54	583.5
781.721	540.49
781.903	597.84
782.085	673.61
782.267	515.92
782.448	440.14
782.63	550.73
782.812	569.16
782.993	573.26
783.175	591.69
783.357	442.19
783.538	515.92
783.72	499.53
783.901	544.59
784.083	489.29
784.264	436.05
784.446	425.81
784.627	458.57
784.809	497.49
784.99	436.05
785.172	591.69
785.353	393.04
785.535	444.24
785.716	446.29
785.897	446.29
786.079	427.85
786.26	442.19
786.441	466.77
786.623	417.61
786.804	376.66
786.985	450.38
787.167	458.57
787.348	436.05
787.529	515.92
787.71	417.61
787.891	415.57
788.073	354.13
788.254	376.66
788.435	524.11
788.616	468.81
788.797	352.08
788.978	384.85
789.159	358.22
789.34	337.74
789.522	337.74
789.703	319.31
789.884	354.13
790.065	401.23
790.246	378.7
790.427	372.56
790.607	399.18
790.788	352.08
790.969	339.79
791.15	384.85
791.331	311.12
791.512	360.27
791.693	302.93
791.874	397.14
792.054	382.8
792.235	327.5
792.416	257.87
792.597	315.22
792.778	384.85
792.958	325.46
793.139	270.16
793.32	360.27
793.5	284.5
793.681	358.22
793.862	376.66
794.042	352.08
794.223	198.48
794.404	294.74
794.584	286.54
794.765	311.12
794.945	311.12
795.126	343.89
795.306	315.22
795.487	298.83
795.667	307.02
795.848	339.79
796.028	227.15
796.209	284.5
796.389	247.63
796.57	251.73
796.75	302.93
796.93	331.6
797.111	278.35
797.291	282.45
797.471	245.59
797.652	360.27
797.832	270.16
798.012	321.36
798.192	261.97
798.373	245.59
798.553	288.59
798.733	333.65
798.913	253.78
799.093	315.22
799.274	255.83
799.454	331.6
799.634	243.54
799.814	204.63
799.994	229.2
800.174	300.88
800.354	192.34
800.534	261.97
800.714	274.26
800.894	247.63
801.074	253.78
801.254	229.2
801.434	307.02
801.614	212.82
801.794	249.68
801.974	800.59
802.154	221.01
802.334	178
802.514	200.53
802.693	149.33
802.873	255.83
803.053	327.5
803.233	221.01
803.413	266.07
803.592	223.06
803.772	124.76
803.952	178
804.131	221.01
804.311	178
804.491	204.63
804.67	188.24
804.85	173.91
805.03	225.11
805.209	241.49
805.389	257.87
805.568	188.24
805.748	116.56
805.928	261.97
806.107	253.78
806.287	130.9
806.466	212.82
806.646	167.76
806.825	278.35
807.004	196.43
807.184	184.15
807.363	194.39
807.543	196.43
807.722	194.39
807.901	192.34
808.081	214.87
808.26	118.61
808.439	155.47
808.619	124.76
808.798	206.67
808.977	190.29
809.156	233.3
809.336	147.28
809.515	208.72
809.694	204.63
809.873	141.14
810.052	253.78
810.231	153.43
810.411	206.67
810.59	294.74
810.769	147.28
810.948	214.87
811.127	147.28
811.306	85.84
811.485	141.14
811.664	196.43
811.843	155.47
812.022	124.76
812.201	145.24
812.38	143.19
812.559	108.37
812.737	225.11
812.916	147.28
813.095	132.95
813.274	143.19
813.453	180.05
813.632	167.76
813.811	167.76
813.989	122.71
814.168	270.16
814.347	130.9
814.526	108.37
814.704	268.11
814.883	243.54
815.062	173.91
815.24	135
815.419	159.57
815.598	257.87
815.776	171.86
815.955	98.13
816.133	145.24
816.312	171.86
816.49	98.13
816.669	124.76
816.847	89.94
817.026	155.47
817.204	137.04
817.383	130.9
817.561	63.32
817.74	91.99
817.918	149.33
818.097	122.71
818.275	77.65
818.453	139.09
818.632	221.01
818.81	212.82
818.988	85.84
819.167	171.86
819.345	196.43
819.523	98.13
819.701	116.56
819.879	81.75
820.058	141.14
820.236	122.71
820.414	73.56
820.592	147.28
820.77	198.48
820.948	89.94
821.127	48.98
821.305	91.99
821.483	110.42
821.661	81.75
821.839	147.28
822.017	44.88
822.195	114.52
822.373	135
822.551	110.42
822.729	141.14
822.907	89.94
823.085	69.46
823.262	71.51
823.44	106.32
823.618	85.84
823.796	159.57
823.974	96.08
824.152	98.13
824.329	114.52
824.507	100.18
824.685	65.36
824.863	-0.17
825.04	81.75
825.218	85.84
825.396	42.84
825.574	87.89
825.751	116.56
825.929	83.8
826.107	118.61
826.284	81.75
826.462	114.52
826.639	175.95
826.817	118.61
826.994	108.37
827.172	87.89
827.349	198.48
827.527	89.94
827.704	94.04
827.882	147.28
828.059	65.36
828.237	106.32
828.414	122.71
828.591	42.84
828.769	96.08
828.946	112.47
829.124	67.41
829.301	89.94
829.478	53.08
829.655	42.84
829.833	114.52
830.01	75.6
830.187	28.5
830.364	59.22
830.542	96.08
830.719	110.42
830.896	141.14
831.073	85.84
831.25	77.65
831.427	139.09
831.604	87.89
831.782	65.36
831.959	73.56
832.136	81.75
832.313	91.99
832.49	89.94
832.667	34.64
832.844	124.76
833.021	81.75
833.198	85.84
833.374	73.56
833.551	34.64
833.728	85.84
833.905	165.71
834.082	110.42
834.259	110.42
834.436	110.42
834.612	65.36
834.789	73.56
834.966	94.04
835.143	135
835.319	48.98
835.496	83.8
835.673	48.98
835.85	126.8
836.026	114.52
836.203	57.17
836.38	75.6
836.556	130.9
836.733	73.56
836.909	141.14
837.086	10.07
837.262	81.75
837.439	-10.41
837.616	63.32
837.792	106.32
837.968	96.08
838.145	34.64
838.321	147.28
838.498	26.45
838.674	48.98
838.851	57.17
839.027	110.42
839.203	73.56
839.38	65.36
839.556	77.65
839.732	153.43
839.909	-47.27
840.085	61.27
840.261	12.12
840.437	40.79
840.614	71.51
840.79	145.24
840.966	89.94
841.142	65.36
841.318	61.27
841.494	73.56
841.671	77.65
841.847	-14.51
842.023	40.79
842.199	65.36
842.375	73.56
842.551	-32.94
842.727	73.56
842.903	89.94
843.079	48.98
843.255	106.32
843.431	8.02
843.607	102.23
843.783	-16.55
843.959	81.75
844.134	55.12
844.31	130.9
844.486	143.19
844.662	98.13
844.838	102.23
845.013	3.93
845.189	81.75
845.365	108.37
845.541	1.88
845.716	94.04
845.892	132.95
846.068	81.75
846.244	59.22
846.419	69.46
846.595	30.55
846.77	10.07
846.946	3.93
847.122	44.88
847.297	65.36
847.473	65.36
847.648	61.27
847.824	32.6
847.999	24.4
848.175	73.56
848.35	89.94
848.526	116.56
848.701	91.99
848.876	-16.55
849.052	40.79
849.227	3.93
849.403	32.6
849.578	65.36
849.753	8.02
849.929	16.21
850.104	-22.7
850.279	69.46
850.454	32.6
850.63	114.52
850.805	69.46
850.98	94.04
851.155	-30.89
851.33	81.75
851.505	16.21
851.681	155.47
851.856	-12.46
852.031	100.18
852.206	34.64
852.381	3.93
852.556	10.07
852.731	-4.27
852.906	67.41
853.081	18.26
853.256	32.6
853.431	16.21
853.606	81.75
853.781	18.26
853.956	3.93
854.131	16.21
854.305	59.22
854.48	65.36
854.655	16.21
854.83	-0.17
855.005	-6.31
855.18	106.32
855.354	28.5
855.529	69.46
855.704	-6.31
855.879	81.75
856.053	26.45
856.228	126.8
856.403	16.21
856.577	83.8
856.752	-47.27
856.926	59.22
857.101	44.88
857.276	-37.03
857.45	73.56
857.625	44.88
857.799	73.56
857.974	24.4
858.148	-30.89
858.323	65.36
858.497	32.6
858.672	147.28
858.846	18.26
859.02	-6.31
859.195	65.36
859.369	61.27
859.543	69.46
859.718	42.84
859.892	85.84
860.066	75.6
860.241	16.21
860.415	57.17
860.589	40.79
860.763	32.6
860.938	34.64
861.112	46.93
861.286	48.98
861.46	73.56
861.634	24.4
861.808	98.13
861.982	-47.27
862.157	5.97
862.331	-69.8
862.505	12.12
862.679	30.55
862.853	65.36
863.027	8.02
863.201	91.99
863.375	14.17
863.549	59.22
863.722	12.12
863.896	40.79
864.07	26.45
864.244	-4.27
864.418	20.31
864.592	130.9
864.766	100.18
864.939	18.26
865.113	59.22
865.287	18.26
865.461	-45.23
865.634	34.64
865.808	-6.31
865.982	1.88
866.156	-6.31
866.329	8.02
866.503	38.74
866.676	12.12
866.85	8.02
867.024	79.7
867.197	36.69
867.371	32.6
867.544	44.88
867.718	-39.08
867.891	85.84
868.065	18.26
868.238	16.21
868.412	42.84
868.585	12.12
868.759	12.12
868.932	42.84
869.105	36.69
869.279	75.6
869.452	10.07
869.625	-8.36
869.799	12.12
869.972	20.31
870.145	-0.17
870.319	69.46
870.492	83.8
870.665	-61.61
870.838	65.36
871.011	-51.37
871.185	-28.84
871.358	-37.03
871.531	40.79
871.704	71.51
871.877	32.6
872.05	-8.36
872.223	-77.99
872.396	44.88
872.569	100.18
872.742	12.12
872.915	53.08
873.088	10.07
873.261	65.36
873.434	48.98
873.607	32.6
873.78	44.88
873.953	-8.36
874.126	-18.6
874.299	98.13
874.471	79.7
874.644	46.93
874.817	73.56
874.99	67.41
875.163	28.5
875.335	16.21
875.508	3.93
875.681	87.89
875.853	-12.46
876.026	16.21
876.199	10.07
876.371	122.71
876.544	-14.51
876.717	44.88
876.889	-20.65
877.062	51.03
877.234	-26.79
877.407	32.6
877.579	20.31
877.752	-16.55
877.924	77.65
878.097	85.84
878.269	18.26
878.442	-37.03
878.614	98.13
878.786	12.12
878.959	24.4
879.131	34.64
879.303	-67.75
879.476	48.98
879.648	34.64
879.82	1.88
879.993	65.36
880.165	-24.75
880.337	-32.94
880.509	57.17
880.681	-61.61
880.854	18.26
881.026	8.02
881.198	155.47
881.37	-6.31
881.542	98.13
881.714	-30.89
881.886	-30.89
882.058	-28.84
882.23	-14.51
882.402	61.27
882.574	32.6
882.746	32.6
882.918	139.09
883.09	46.93
883.262	-22.7
883.434	-12.46
883.606	3.93
883.778	38.74
883.95	98.13
884.122	28.5
884.293	44.88
884.465	40.79
884.637	-8.36
884.809	-61.61
884.98	8.02
885.152	8.02
885.324	20.31
885.496	48.98
885.667	24.4
885.839	-26.79
886.011	114.52
886.182	77.65
886.354	40.79
886.525	-8.36
886.697	24.4
886.869	16.21
887.04	5.97
887.212	69.46
887.383	1.88
887.555	32.6
887.726	61.27
887.897	57.17
888.069	-41.13
888.24	53.08
888.412	20.31
888.583	-55.47
888.754	57.17
888.926	5.97
889.097	32.6
889.268	-6.31
889.44	-32.94
889.611	-45.23
889.782	-8.36
889.953	-20.65
890.125	-12.46
890.296	16.21
890.467	-16.55
890.638	-53.42
890.809	-41.13
890.98	-45.23
891.151	14.17
891.323	8.02
891.494	8.02
891.665	30.55
891.836	-39.08
892.007	36.69
892.178	8.02
892.349	-30.89
892.52	3.93
892.691	36.69
892.862	-41.13
893.032	-20.65
893.203	-71.85
893.374	28.5
893.545	8.02
893.716	-28.84
893.887	42.84
894.057	-2.22
894.228	-37.03
894.399	-24.75
894.57	42.84
894.74	28.5
894.911	-71.85
895.082	-73.9
895.253	-4.27
895.423	8.02
895.594	32.6
895.764	16.21
895.935	30.55
896.106	-22.7
896.276	53.08
896.447	28.5
896.617	10.07
896.788	-47.27
896.958	5.97
897.129	-39.08
897.299	-53.42
897.47	-6.31
897.64	16.21
897.81	-34.99
897.981	69.46
898.151	5.97
898.322	75.6
898.492	-0.17
898.662	-0.17
898.832	73.56
899.003	-45.23
899.173	-16.55
899.343	-20.65
899.513	-32.94
