Data from USB4F104151__48__14-43-01-922.txt Node

Date: Thu Mar 13 14:43:01 EDT 2025
User: louis
Spectrometer: USB4F10415
Trigger mode: 4
Integration Time (sec): 2.000000E-2
Scans to average: 1
Electric dark correction enabled: true
Nonlinearity correction enabled: false
Boxcar width: 0
XAxis mode: Wavelengths
Number of Pixels in Spectrum: 3648
>>>>>Begin Spectral Data<<<<<
178.204	-158.72
178.424	-158.72
178.644	-158.72
178.864	-136.19
179.084	-144.38
179.304	-11.26
179.524	39.94
179.744	68.61
179.964	29.7
180.184	-107.52
180.404	50.18
180.624	-37.89
180.844	-46.08
181.064	1.02
181.283	13.31
181.503	-33.79
181.723	33.79
181.943	62.46
182.163	50.18
182.383	1.02
182.602	17.41
182.822	68.61
183.042	72.7
183.262	44.03
183.482	52.22
183.701	-11.26
183.921	7.17
184.141	29.7
184.361	11.26
184.58	-19.46
184.8	93.18
185.02	39.94
185.239	52.22
185.459	-3.07
185.679	33.79
185.898	-35.84
186.118	-23.55
186.338	31.74
186.557	5.12
186.777	50.18
186.997	84.99
187.216	39.94
187.436	44.03
187.655	23.55
187.875	48.13
188.095	19.46
188.314	52.22
188.534	80.89
188.753	44.03
188.973	39.94
189.192	52.22
189.412	52.22
189.631	31.74
189.851	-21.5
190.07	54.27
190.29	46.08
190.509	56.32
190.729	-13.31
190.948	52.22
191.168	78.85
191.387	31.74
191.607	44.03
191.826	56.32
192.045	46.08
192.265	95.23
192.484	-44.03
192.704	23.55
192.923	-19.46
193.142	27.65
193.362	33.79
193.581	44.03
193.8	-1.02
194.02	87.04
194.239	-5.12
194.458	-13.31
194.678	-3.07
194.897	21.5
195.116	27.65
195.335	52.22
195.555	-1.02
195.774	52.22
195.993	21.5
196.212	27.65
196.432	3.07
196.651	3.07
196.87	27.65
197.089	89.09
197.308	87.04
197.528	-25.6
197.747	-23.55
197.966	-29.7
198.185	84.99
198.404	-21.5
198.623	29.7
198.842	44.03
199.062	76.8
199.281	95.23
199.5	-5.12
199.719	50.18
199.938	78.85
200.157	66.56
200.376	82.94
200.595	76.8
200.814	35.84
201.033	31.74
201.252	64.51
201.471	19.46
201.69	-1.02
201.909	87.04
202.128	-44.03
202.347	54.27
202.566	5.12
202.785	54.27
203.004	-48.13
203.223	46.08
203.442	11.26
203.661	-39.94
203.879	15.36
204.098	72.7
204.317	39.94
204.536	13.31
204.755	31.74
204.974	11.26
205.193	-19.46
205.411	60.42
205.63	19.46
205.849	52.22
206.068	13.31
206.287	5.12
206.505	56.32
206.724	-21.5
206.943	-29.7
207.162	13.31
207.381	11.26
207.599	23.55
207.818	-39.94
208.037	76.8
208.255	21.5
208.474	50.18
208.693	54.27
208.911	-13.31
209.13	27.65
209.349	35.84
209.567	78.85
209.786	76.8
210.005	76.8
210.223	-21.5
210.442	-23.55
210.661	48.13
210.879	27.65
211.098	27.65
211.316	72.7
211.535	68.61
211.753	-25.6
211.972	-1.02
212.191	37.89
212.409	11.26
212.628	78.85
212.846	27.65
213.065	-17.41
213.283	27.65
213.502	-58.37
213.72	46.08
213.938	66.56
214.157	35.84
214.375	29.7
214.594	-11.26
214.812	27.65
215.031	62.46
215.249	-11.26
215.467	37.89
215.686	23.55
215.904	31.74
216.122	52.22
216.341	113.66
216.559	-21.5
216.778	-46.08
216.996	27.65
217.214	41.98
217.432	27.65
217.651	-35.84
217.869	5.12
218.087	56.32
218.306	-44.03
218.524	121.85
218.742	35.84
218.96	27.65
219.179	29.7
219.397	52.22
219.615	80.89
219.833	23.55
220.051	29.7
220.27	101.37
220.488	72.7
220.706	56.32
220.924	-35.84
221.142	1.02
221.36	15.36
221.578	17.41
221.796	3.07
222.015	19.46
222.233	29.7
222.451	76.8
222.669	-15.36
222.887	62.46
223.105	15.36
223.323	64.51
223.541	31.74
223.759	60.42
223.977	9.22
224.195	89.09
224.413	15.36
224.631	37.89
224.849	15.36
225.067	111.61
225.285	-21.5
225.503	35.84
225.721	-33.79
225.939	52.22
226.157	19.46
226.375	109.57
226.592	-46.08
226.81	52.22
227.028	68.61
227.246	56.32
227.464	-13.31
227.682	48.13
227.9	15.36
228.117	89.09
228.335	109.57
228.553	23.55
228.771	-25.6
228.989	15.36
229.206	-46.08
229.424	35.84
229.642	-19.46
229.86	-29.7
230.077	52.22
230.295	87.04
230.513	60.42
230.731	37.89
230.948	13.31
231.166	84.99
231.384	64.51
231.601	48.13
231.819	64.51
232.037	15.36
232.254	-1.02
232.472	11.26
232.689	-37.89
232.907	134.14
233.125	11.26
233.342	11.26
233.56	3.07
233.777	68.61
233.995	27.65
234.213	105.47
234.43	15.36
234.648	-27.65
234.865	52.22
235.083	52.22
235.3	15.36
235.518	-37.89
235.735	84.99
235.953	35.84
236.17	37.89
236.388	27.65
236.605	117.76
236.822	-60.42
237.04	-5.12
237.257	15.36
237.475	5.12
237.692	62.46
237.909	19.46
238.127	58.37
238.344	84.99
238.562	87.04
238.779	31.74
238.996	52.22
239.214	-3.07
239.431	25.6
239.648	-46.08
239.865	-19.46
240.083	31.74
240.3	-37.89
240.517	21.5
240.735	5.12
240.952	68.61
241.169	52.22
241.386	29.7
241.603	52.22
241.821	-31.74
242.038	37.89
242.255	60.42
242.472	-17.41
242.689	-7.17
242.907	29.7
243.124	-5.12
243.341	11.26
243.558	11.26
243.775	-9.22
243.992	52.22
244.209	19.46
244.426	60.42
244.643	33.79
244.86	-44.03
245.078	84.99
245.295	48.13
245.512	70.65
245.729	-5.12
245.946	21.5
246.163	13.31
246.38	62.46
246.597	33.79
246.814	-37.89
247.031	27.65
247.248	-21.5
247.464	5.12
247.681	50.18
247.898	-3.07
248.115	46.08
248.332	-46.08
248.549	46.08
248.766	60.42
248.983	37.89
249.2	39.94
249.417	15.36
249.633	23.55
249.85	54.27
250.067	-11.26
250.284	52.22
250.501	31.74
250.717	89.09
250.934	-35.84
251.151	78.85
251.368	52.22
251.585	76.8
251.801	41.98
252.018	15.36
252.235	15.36
252.451	-66.56
252.668	48.13
252.885	44.03
253.102	-23.55
253.318	48.13
253.535	-37.89
253.752	-3.07
253.968	91.13
254.185	15.36
254.401	-5.12
254.618	31.74
254.835	-54.27
255.051	62.46
255.268	52.22
255.484	29.7
255.701	-19.46
255.917	27.65
256.134	-3.07
256.351	70.65
256.567	29.7
256.784	-46.08
257	15.36
257.217	-7.17
257.433	15.36
257.65	27.65
257.866	76.8
258.082	-39.94
258.299	-17.41
258.515	64.51
258.732	-60.42
258.948	21.5
259.165	54.27
259.381	-5.12
259.597	78.85
259.814	76.8
260.03	-23.55
260.246	21.5
260.463	-13.31
260.679	29.7
260.895	-39.94
261.112	64.51
261.328	-5.12
261.544	-9.22
261.761	107.52
261.977	17.41
262.193	-17.41
262.409	11.26
262.626	39.94
262.842	-58.37
263.058	-13.31
263.274	70.65
263.49	9.22
263.707	68.61
263.923	87.04
264.139	-37.89
264.355	9.22
264.571	111.61
264.787	-1.02
265.004	111.61
265.22	-31.74
265.436	11.26
265.652	64.51
265.868	7.17
266.084	27.65
266.3	27.65
266.516	15.36
266.732	39.94
266.948	19.46
267.164	31.74
267.38	52.22
267.596	9.22
267.812	78.85
268.028	-54.27
268.244	15.36
268.46	19.46
268.676	-3.07
268.892	-5.12
269.108	29.7
269.324	35.84
269.54	-25.6
269.756	-9.22
269.972	-11.26
270.188	-58.37
270.403	60.42
270.619	27.65
270.835	-31.74
271.051	56.32
271.267	-66.56
271.483	13.31
271.698	27.65
271.914	72.7
272.13	13.31
272.346	23.55
272.562	13.31
272.777	78.85
272.993	-70.65
273.209	-11.26
273.425	11.26
273.64	23.55
273.856	39.94
274.072	64.51
274.287	27.65
274.503	128
274.719	21.5
274.934	52.22
275.15	-103.42
275.366	19.46
275.581	33.79
275.797	60.42
276.012	11.26
276.228	99.33
276.444	54.27
276.659	101.37
276.875	62.46
277.09	-54.27
277.306	21.5
277.521	62.46
277.737	46.08
277.952	68.61
278.168	15.36
278.383	68.61
278.599	-19.46
278.814	31.74
279.03	-11.26
279.245	119.81
279.461	-9.22
279.676	9.22
279.892	-99.33
280.107	11.26
280.322	-21.5
280.538	29.7
280.753	-29.7
280.969	119.81
281.184	52.22
281.399	19.46
281.615	23.55
281.83	56.32
282.045	11.26
282.26	27.65
282.476	-13.31
282.691	99.33
282.906	-50.18
283.122	64.51
283.337	52.22
283.552	54.27
283.767	13.31
283.983	62.46
284.198	-3.07
284.413	13.31
284.628	-74.75
284.843	9.22
285.058	60.42
285.274	-46.08
285.489	35.84
285.704	72.7
285.919	-52.22
286.134	52.22
286.349	13.31
286.564	-5.12
286.779	76.8
286.995	60.42
287.21	15.36
287.425	87.04
287.64	-5.12
287.855	29.7
288.07	41.98
288.285	74.75
288.5	46.08
288.715	72.7
288.93	19.46
289.145	44.03
289.36	33.79
289.575	-31.74
289.79	44.03
290.004	70.65
290.219	19.46
290.434	19.46
290.649	-17.41
290.864	39.94
291.079	46.08
291.294	19.46
291.509	60.42
291.724	-35.84
291.938	-37.89
292.153	9.22
292.368	130.05
292.583	-1.02
292.798	-9.22
293.012	101.37
293.227	35.84
293.442	7.17
293.657	60.42
293.871	19.46
294.086	7.17
294.301	60.42
294.516	-19.46
294.73	72.7
294.945	-46.08
295.16	-21.5
295.374	93.18
295.589	60.42
295.804	-25.6
296.018	-11.26
296.233	158.72
296.447	44.03
296.662	13.31
296.877	68.61
297.091	19.46
297.306	15.36
297.52	-13.31
297.735	46.08
297.949	27.65
298.164	27.65
298.378	48.13
298.593	19.46
298.807	9.22
299.022	35.84
299.236	76.8
299.451	15.36
299.665	44.03
299.88	44.03
300.094	27.65
300.309	5.12
300.523	89.09
300.737	35.84
300.952	35.84
301.166	50.18
301.381	11.26
301.595	52.22
301.809	-21.5
302.024	35.84
302.238	5.12
302.452	35.84
302.667	-21.5
302.881	46.08
303.095	175.1
303.309	46.08
303.524	52.22
303.738	-9.22
303.952	52.22
304.166	52.22
304.381	37.89
304.595	-3.07
304.809	41.98
305.023	78.85
305.237	19.46
305.452	46.08
305.666	80.89
305.88	37.89
306.094	-13.31
306.308	76.8
306.522	84.99
306.736	-3.07
306.95	37.89
307.164	60.42
307.379	-1.02
307.593	66.56
307.807	31.74
308.021	54.27
308.235	3.07
308.449	19.46
308.663	50.18
308.877	84.99
309.091	-13.31
309.305	3.07
309.519	68.61
309.733	44.03
309.947	-17.41
310.161	60.42
310.374	68.61
310.588	56.32
310.802	-82.94
311.016	9.22
311.23	56.32
311.444	-13.31
311.658	-5.12
311.872	15.36
312.085	44.03
312.299	72.7
312.513	52.22
312.727	-46.08
312.941	37.89
313.154	19.46
313.368	17.41
313.582	19.46
313.796	-5.12
314.009	52.22
314.223	62.46
314.437	35.84
314.651	56.32
314.864	9.22
315.078	37.89
315.292	-11.26
315.505	-21.5
315.719	117.76
315.933	103.42
316.146	-9.22
316.36	7.17
316.573	89.09
316.787	23.55
317.001	54.27
317.214	33.79
317.428	3.07
317.641	1.02
317.855	11.26
318.068	9.22
318.282	60.42
318.495	48.13
318.709	-29.7
318.922	-19.46
319.136	37.89
319.349	27.65
319.563	134.14
319.776	89.09
319.99	-21.5
320.203	29.7
320.417	39.94
320.63	17.41
320.843	93.18
321.057	33.79
321.27	13.31
321.483	15.36
321.697	27.65
321.91	-66.56
322.124	5.12
322.337	-72.7
322.55	31.74
322.763	11.26
322.977	46.08
323.19	11.26
323.403	-5.12
323.617	23.55
323.83	113.66
324.043	-3.07
324.256	19.46
324.469	-33.79
324.683	60.42
324.896	68.61
325.109	46.08
325.322	58.37
325.535	109.57
325.748	29.7
325.962	1.02
326.175	-19.46
326.388	21.5
326.601	13.31
326.814	-9.22
327.027	103.42
327.24	5.12
327.453	-74.75
327.666	29.7
327.879	9.22
328.092	125.95
328.305	15.36
328.518	-13.31
328.731	-1.02
328.944	44.03
329.157	68.61
329.37	101.37
329.583	52.22
329.796	130.05
330.009	-3.07
330.222	27.65
330.435	-54.27
330.648	-29.7
330.861	7.17
331.073	-3.07
331.286	5.12
331.499	84.99
331.712	19.46
331.925	93.18
332.138	11.26
332.35	72.7
332.563	-13.31
332.776	80.89
332.989	19.46
333.202	21.5
333.414	52.22
333.627	-46.08
333.84	72.7
334.053	60.42
334.265	64.51
334.478	103.42
334.691	3.07
334.903	44.03
335.116	35.84
335.329	82.94
335.541	44.03
335.754	70.65
335.966	62.46
336.179	-11.26
336.392	44.03
336.604	-13.31
336.817	52.22
337.029	62.46
337.242	56.32
337.454	50.18
337.667	5.12
337.88	68.61
338.092	19.46
338.305	-21.5
338.517	46.08
338.729	136.19
338.942	109.57
339.154	23.55
339.367	-17.41
339.579	56.32
339.792	-52.22
340.004	7.17
340.217	13.31
340.429	7.17
340.641	27.65
340.854	-21.5
341.066	-27.65
341.278	11.26
341.491	91.13
341.703	15.36
341.915	3.07
342.128	101.37
342.34	-29.7
342.552	35.84
342.764	23.55
342.977	3.07
343.189	39.94
343.401	27.65
343.613	-5.12
343.826	101.37
344.038	-37.89
344.25	111.61
344.462	29.7
344.674	25.6
344.886	15.36
345.099	7.17
345.311	-3.07
345.523	54.27
345.735	41.98
345.947	-19.46
346.159	5.12
346.371	-3.07
346.583	21.5
346.795	70.65
347.007	3.07
347.219	70.65
347.431	84.99
347.643	46.08
347.855	130.05
348.067	105.47
348.279	27.65
348.491	33.79
348.703	68.61
348.915	-1.02
349.127	27.65
349.339	103.42
349.551	-9.22
349.763	60.42
349.975	82.94
350.187	78.85
350.399	23.55
350.61	89.09
350.822	56.32
351.034	35.84
351.246	-46.08
351.458	-1.02
351.669	5.12
351.881	76.8
352.093	123.9
352.305	54.27
352.517	54.27
352.728	103.42
352.94	-17.41
353.152	76.8
353.363	-7.17
353.575	72.7
353.787	37.89
353.999	76.8
354.21	87.04
354.422	23.55
354.633	23.55
354.845	21.5
355.057	11.26
355.268	7.17
355.48	158.72
355.692	-1.02
355.903	-19.46
356.115	-29.7
356.326	-37.89
356.538	84.99
356.749	95.23
356.961	58.37
357.172	29.7
357.384	-5.12
357.595	115.71
357.807	19.46
358.018	-19.46
358.23	52.22
358.441	3.07
358.653	68.61
358.864	78.85
359.075	19.46
359.287	-13.31
359.498	19.46
359.709	56.32
359.921	29.7
360.132	27.65
360.344	76.8
360.555	11.26
360.766	27.65
360.977	25.6
361.189	64.51
361.4	136.19
361.611	52.22
361.823	39.94
362.034	48.13
362.245	15.36
362.456	3.07
362.667	125.95
362.879	48.13
363.09	-17.41
363.301	68.61
363.512	31.74
363.723	52.22
363.935	17.41
364.146	27.65
364.357	101.37
364.568	80.89
364.779	-11.26
364.99	-17.41
365.201	31.74
365.412	84.99
365.623	-62.46
365.834	93.18
366.045	27.65
366.256	80.89
366.467	37.89
366.678	21.5
366.889	9.22
367.1	74.75
367.311	11.26
367.522	44.03
367.733	66.56
367.944	1.02
368.155	15.36
368.366	56.32
368.577	35.84
368.788	125.95
368.999	27.65
369.209	58.37
369.42	113.66
369.631	146.43
369.842	-35.84
370.053	19.46
370.264	84.99
370.474	68.61
370.685	48.13
370.896	37.89
371.107	29.7
371.317	66.56
371.528	-5.12
371.739	70.65
371.95	84.99
372.16	95.23
372.371	29.7
372.582	64.51
372.792	-46.08
373.003	95.23
373.214	39.94
373.424	68.61
373.635	-21.5
373.846	23.55
374.056	95.23
374.267	76.8
374.477	-13.31
374.688	68.61
374.898	68.61
375.109	54.27
375.319	39.94
375.53	70.65
375.74	125.95
375.951	62.46
376.161	31.74
376.372	60.42
376.582	5.12
376.793	62.46
377.003	5.12
377.214	84.99
377.424	15.36
377.635	72.7
377.845	44.03
378.055	142.33
378.266	66.56
378.476	52.22
378.686	54.27
378.897	72.7
379.107	-3.07
379.317	84.99
379.528	46.08
379.738	64.51
379.948	-5.12
380.158	101.37
380.369	37.89
380.579	39.94
380.789	60.42
380.999	56.32
381.21	117.76
381.42	37.89
381.63	15.36
381.84	76.8
382.05	48.13
382.261	70.65
382.471	5.12
382.681	21.5
382.891	29.7
383.101	87.04
383.311	-13.31
383.521	109.57
383.731	60.42
383.941	7.17
384.151	72.7
384.361	39.94
384.571	97.28
384.781	62.46
384.991	35.84
385.201	109.57
385.411	84.99
385.621	35.84
385.831	56.32
386.041	35.84
386.251	19.46
386.461	117.76
386.671	46.08
386.881	76.8
387.091	31.74
387.301	44.03
387.511	-9.22
387.72	46.08
387.93	13.31
388.14	-33.79
388.35	56.32
388.56	93.18
388.769	117.76
388.979	72.7
389.189	23.55
389.399	97.28
389.609	-3.07
389.818	93.18
390.028	56.32
390.238	54.27
390.447	-11.26
390.657	128
390.867	13.31
391.076	19.46
391.286	11.26
391.496	19.46
391.705	68.61
391.915	119.81
392.125	111.61
392.334	46.08
392.544	89.09
392.753	15.36
392.963	82.94
393.172	-17.41
393.382	52.22
393.591	35.84
393.801	44.03
394.01	107.52
394.22	46.08
394.429	44.03
394.639	134.14
394.848	46.08
395.058	19.46
395.267	76.8
395.477	68.61
395.686	123.9
395.895	78.85
396.105	84.99
396.314	72.7
396.524	70.65
396.733	72.7
396.942	56.32
397.152	95.23
397.361	93.18
397.57	31.74
397.78	60.42
397.989	97.28
398.198	140.29
398.407	35.84
398.617	68.61
398.826	80.89
399.035	76.8
399.244	154.62
399.453	82.94
399.663	80.89
399.872	146.43
400.081	62.46
400.29	166.91
400.499	52.22
400.708	101.37
400.917	82.94
401.127	27.65
401.336	93.18
401.545	62.46
401.754	39.94
401.963	146.43
402.172	95.23
402.381	105.47
402.59	60.42
402.799	50.18
403.008	119.81
403.217	109.57
403.426	140.29
403.635	72.7
403.844	179.2
404.053	171.01
404.262	60.42
404.471	230.4
404.68	142.33
404.888	109.57
405.097	154.62
405.306	111.61
405.515	91.13
405.724	191.49
405.933	146.43
406.142	183.29
406.35	199.68
406.559	105.47
406.768	183.29
406.977	211.96
407.185	187.39
407.394	193.53
407.603	236.54
407.812	181.25
408.02	220.16
408.229	185.34
408.438	173.05
408.646	197.63
408.855	175.1
409.064	234.49
409.272	214.01
409.481	297.98
409.69	265.21
409.898	191.49
410.107	222.2
410.315	330.75
410.524	232.44
410.733	314.36
410.941	338.94
411.15	351.23
411.358	381.95
411.567	289.79
411.775	392.19
411.984	355.32
412.192	330.75
412.401	359.42
412.609	533.5
412.818	431.1
413.026	445.43
413.234	502.78
413.443	502.78
413.651	408.57
413.86	494.58
414.068	529.4
414.276	580.6
414.485	556.02
414.693	527.35
414.901	650.23
415.11	633.85
415.318	580.6
415.526	607.22
415.734	674.81
415.943	691.19
416.151	789.49
416.359	728.05
416.567	826.36
416.776	803.83
416.984	873.46
417.192	971.76
417.4	803.83
417.608	922.61
417.817	912.37
418.025	996.34
418.233	1004.53
418.441	986.1
418.649	936.95
418.857	1108.98
419.065	1145.84
419.273	1108.98
419.481	1233.9
419.689	1164.27
419.897	1285.1
420.105	1217.52
420.313	1326.06
420.521	1403.88
420.729	1518.57
420.937	1543.14
421.145	1559.53
421.353	1620.97
421.561	1643.49
421.769	1815.52
421.977	1848.29
422.185	1719.27
422.393	1881.06
422.601	1999.84
422.809	1960.93
423.017	1919.97
423.224	2128.86
423.432	2206.69
423.64	2141.15
423.848	2329.56
424.056	2255.84
424.263	2507.74
424.471	2493.4
424.679	2513.88
424.887	2524.12
425.094	2739.16
425.302	2618.33
425.51	2771.93
425.718	2733.01
425.925	3021.78
426.133	3124.18
426.341	3208.14
426.548	3443.66
426.756	3345.36
426.964	3519.43
427.171	3640.26
427.379	3767.24
427.586	3879.88
427.794	3761.09
428.001	4125.63
428.209	4314.05
428.417	4295.61
428.624	4459.45
428.832	4434.88
429.039	4486.08
429.247	4336.57
429.454	5092.27
429.662	5278.64
429.869	4842.42
430.076	5127.09
430.284	5151.67
430.491	5274.54
430.699	5737.38
430.906	5671.85
431.114	5581.74
431.321	5901.22
431.528	5958.57
431.736	6255.52
431.943	6611.87
432.15	6503.32
432.358	6507.42
432.565	6896.53
432.772	6957.97
432.979	7248.79
433.187	7089.04
433.394	7490.45
433.601	7875.46
433.808	7859.08
434.016	7900.04
434.223	8196.99
434.43	8598.4
434.637	8432.51
434.844	8999.8
435.052	9040.76
435.259	9153.4
435.466	9137.01
435.673	9005.94
435.88	9585.52
436.087	10275.68
436.294	10343.27
436.501	10027.88
436.708	10181.48
436.915	10697.56
437.122	11127.64
437.329	10910.55
437.537	11225.94
437.743	11473.74
437.95	11434.83
438.157	11793.23
438.364	12184.39
438.571	12299.08
438.778	12389.19
438.985	13286.2
439.192	12882.75
439.399	13298.49
439.606	13140.79
439.813	13830.96
440.02	14836.51
440.227	14289.7
440.433	14400.29
440.64	14777.12
440.847	14568.23
441.054	14904.09
441.261	15962.89
441.467	15624.98
441.674	16048.91
441.881	16583.43
442.088	16562.95
442.294	16182.03
442.501	16966.4
442.708	17206.01
442.914	17814.26
443.121	18766.56
443.328	18270.95
443.534	19483.35
443.741	19014.37
443.948	18737.89
444.154	20146.89
444.361	19987.15
444.568	20005.58
444.774	20290.25
444.981	20277.96
445.187	20923.07
445.394	21656.25
445.6	21656.25
445.807	23454.36
446.013	22336.17
446.22	22991.52
446.426	23632.54
446.633	23913.11
446.839	24679.05
447.046	23734.93
447.252	24967.81
447.459	25143.94
447.665	25105.02
447.871	26208.88
448.078	26993.25
448.284	25774.71
448.491	26731.11
448.697	27789.91
448.903	28234.32
449.11	27972.18
449.316	27775.58
449.522	27963.99
449.728	29194.82
449.935	29530.69
450.141	29246.02
450.347	29973.05
450.553	28985.93
450.76	29534.78
450.966	30327.35
451.172	30210.61
451.378	30822.95
451.584	30181.94
451.791	30925.35
451.997	30698.03
452.203	31404.58
452.409	31865.37
452.615	31042.09
452.821	30300.72
453.027	30224.95
453.233	31693.34
453.44	30218.8
453.646	30427.7
453.852	30675.5
454.058	31035.94
454.264	30413.36
454.47	30835.24
454.676	29846.07
454.882	31373.86
455.088	28623.44
455.294	28965.45
455.5	29506.11
455.705	29635.13
455.911	28514.89
456.117	27830.87
456.323	27806.3
456.529	26409.58
456.735	27222.62
456.941	26761.83
457.147	26303.09
457.352	25731.7
457.558	24990.34
457.764	24986.24
457.97	24851.08
458.176	24062.61
458.381	24226.45
458.587	23143.07
458.793	23016.1
458.999	22086.32
459.204	23542.42
459.41	22809.25
459.616	21476.02
459.821	21369.53
460.027	21609.14
460.233	21033.66
460.438	19903.18
460.644	20198.09
460.85	19335.9
461.055	18895.58
461.261	18885.34
461.466	17509.11
461.672	16896.77
461.878	18127.6
462.083	16935.68
462.289	16493.32
462.494	16421.64
462.7	15837.97
462.905	15268.63
463.111	15852.3
463.316	15747.86
463.522	15594.26
463.727	15565.59
463.932	15313.69
464.138	15065.88
464.343	15741.71
464.549	14930.72
464.754	15678.22
464.959	15260.44
465.165	15035.16
465.37	14607.14
465.575	14316.33
465.781	14521.12
465.986	14654.24
466.191	14367.52
466.397	14191.4
466.602	13527.86
466.807	13914.92
467.012	13800.24
467.218	13617.97
467.423	13595.44
467.628	13622.06
467.833	14486.31
468.038	13712.17
468.244	13400.88
468.449	13908.78
468.654	13372.21
468.859	13151.03
469.064	13368.12
469.269	12612.42
469.474	12845.88
469.679	13298.49
469.885	12770.11
470.09	12868.41
470.295	12870.46
470.5	12249.93
470.705	12288.84
470.91	12249.93
471.115	12356.42
471.32	12340.04
471.525	12139.33
471.73	11914.06
471.935	11858.76
472.139	11516.75
472.344	11469.65
472.549	11596.62
472.754	11619.15
472.959	11340.63
473.164	11029.34
473.369	10738.52
473.574	11406.16
473.778	10982.23
473.983	11092.82
474.188	11096.92
474.393	10625.89
474.598	10578.78
474.802	10609.5
475.007	10447.71
475.212	10269.54
475.417	10077.03
475.621	10046.31
475.826	10019.69
476.031	9956.2
476.235	9687.92
476.44	9718.64
476.645	9411.44
476.849	9743.21
477.054	9411.44
477.259	9231.22
477.463	9386.86
477.668	9261.94
477.872	9161.59
478.077	9149.3
478.282	8729.47
478.486	8885.11
478.691	8905.59
478.895	8731.51
479.1	8577.92
479.304	8899.45
479.509	8549.25
479.713	8661.88
479.918	8385.41
480.122	8008.58
480.326	8336.26
480.531	8360.83
480.735	8205.19
480.94	8168.32
481.144	8622.97
481.348	8287.11
481.553	8518.53
481.757	7881.61
481.961	8276.87
482.166	8076.16
482.37	8246.15
482.574	7918.47
482.778	8113.03
482.983	8330.11
483.187	8182.66
483.391	8260.48
483.595	7910.28
483.8	8039.3
484.004	8096.64
484.208	8106.88
484.412	8053.64
484.616	8010.63
484.821	8110.98
485.025	7861.13
485.229	8137.6
485.433	7932.81
485.637	8020.87
485.841	7996.29
486.045	8000.39
486.249	8084.36
486.453	7984.01
486.657	7992.2
486.861	8014.73
487.065	7973.77
487.269	8045.45
487.473	7926.66
487.677	8018.82
487.881	8309.63
488.085	8031.11
488.289	8199.04
488.493	7967.62
488.697	8088.45
488.901	8072.07
489.105	8258.43
489.309	7990.15
489.512	8158.08
489.716	8108.93
489.92	8119.17
490.124	8133.51
490.328	8231.81
490.531	8121.22
490.735	8113.03
490.939	8369.02
491.143	8156.04
491.346	8223.62
491.55	8412.03
491.754	8334.21
491.958	8498.05
492.161	8379.26
492.365	8459.13
492.569	8350.59
492.772	8483.71
492.976	8645.5
493.18	8485.76
493.383	8731.51
493.587	8715.13
493.79	8854.39
493.994	8708.99
494.197	8764.28
494.401	8942.46
494.605	9100.15
494.808	9139.06
495.012	9069.43
495.215	9227.12
495.419	9198.45
495.622	9003.89
495.825	9214.84
496.029	9378.67
496.232	9628.53
496.436	9603.95
496.639	9597.81
496.843	9554.8
497.046	9917.29
497.249	9866.09
497.453	9956.2
497.656	10074.98
497.859	10105.7
498.063	10187.62
498.266	10427.23
498.469	10410.85
498.673	10447.71
498.876	10802.01
499.079	10832.73
499.282	10892.12
499.485	10928.99
499.689	10988.38
499.892	11201.37
500.095	11297.62
500.298	11631.44
500.501	11307.86
500.705	11860.81
500.908	11819.85
501.111	11889.48
501.314	12120.9
501.517	12311.36
501.72	12249.93
501.923	12495.68
502.126	12608.32
502.329	12798.78
502.532	12839.74
502.735	13060.92
502.938	13126.46
503.141	13249.33
503.344	13658.93
503.547	13525.81
503.75	13695.79
503.953	13790
504.156	14027.56
504.359	14238.5
504.562	14400.29
504.765	14787.36
504.968	14578.47
505.17	14732.06
505.373	15002.4
505.576	14973.72
505.779	15516.44
505.982	15332.12
506.185	15366.93
506.387	15633.17
506.59	15737.62
506.793	16057.1
506.996	16020.24
507.198	16601.86
507.401	16657.15
507.604	16732.93
507.807	17068.8
508.009	17052.41
508.212	17355.51
508.415	17425.14
508.617	17740.53
508.82	17539.83
509.022	17697.52
509.225	18158.31
509.428	17996.53
509.63	18457.32
509.833	18492.13
510.035	19026.65
510.238	18897.63
510.44	18959.07
510.643	19337.94
510.845	19546.84
511.048	19417.82
511.25	19743.44
511.453	20038.35
511.655	20622.02
511.858	20470.47
512.06	20239.05
512.262	20644.55
512.465	20689.6
512.667	21174.97
512.87	21189.31
513.072	21220.03
513.274	21785.27
513.477	21822.13
513.679	22211.25
513.881	22090.41
514.084	22600.36
514.286	22522.54
514.488	22966.95
514.69	23274.14
514.893	23478.94
515.095	23636.63
515.297	23818.9
515.499	23997.07
515.701	24081.04
515.904	24375.95
516.106	24670.86
516.308	24674.95
516.51	25166.46
516.712	25268.86
516.914	25318.01
517.116	26028.66
517.318	25932.4
517.52	26083.95
517.722	26266.22
517.925	26505.84
518.127	27019.88
518.329	26923.62
518.531	26843.75
518.733	27486.81
518.935	27486.81
519.136	27791.96
519.338	27945.56
519.54	28279.38
519.742	28410.45
519.944	28465.74
520.146	29106.76
520.348	28846.66
520.55	29305.41
520.752	29286.98
520.954	30292.53
521.155	29887.03
521.357	30153.27
521.559	30138.93
521.761	30614.06
521.963	30601.77
522.164	30984.74
522.366	31025.7
522.568	31326.75
522.77	31513.12
522.971	31828.51
523.173	31574.56
523.375	32096.79
523.576	32117.27
523.778	32029.21
523.98	32479.76
524.181	32834.06
524.383	32367.12
524.584	33255.94
524.786	33235.46
524.988	33411.59
525.189	33534.46
525.391	33669.63
525.592	33628.67
525.794	34275.83
525.995	33679.87
526.197	34054.65
526.398	34009.59
526.6	34542.06
526.801	34843.12
527.003	34787.82
527.204	34853.36
527.406	35381.73
527.607	35121.64
527.808	35226.09
528.01	34763.25
528.211	34857.45
528.412	35496.42
528.614	35926.49
528.815	35690.98
529.016	36008.41
529.218	35807.71
529.419	35908.06
529.62	35776.99
529.822	35881.44
530.023	35940.83
530.224	35756.51
530.425	35951.07
530.626	35779.04
530.828	35768.8
531.029	36839.89
531.23	35979.74
531.431	36055.51
531.632	36389.33
531.833	36305.37
532.035	36196.82
532.236	36458.96
532.437	36409.81
532.638	36411.86
532.839	36567.51
533.04	36872.65
533.241	36211.16
533.442	37519.81
533.643	37140.94
533.844	36903.37
534.045	36667.86
534.246	36702.67
534.447	36827.6
534.648	36725.2
534.849	36780.49
535.05	36561.36
535.251	36807.12
535.451	36485.59
535.652	37065.16
535.853	36655.57
536.054	36856.27
536.255	36630.99
536.456	36690.38
536.657	37177.8
536.857	36579.79
537.058	36753.87
537.259	36999.63
537.46	37183.94
537.66	36757.97
537.861	37081.55
538.062	36405.72
538.263	36760.02
538.463	36467.16
538.664	36735.44
538.865	36536.79
539.065	36960.72
539.266	36925.9
539.466	37403.08
539.667	36100.57
539.868	36766.16
540.068	36551.12
540.269	36870.61
540.469	36927.95
540.67	36432.34
540.87	36569.55
541.071	36352.47
541.271	36800.97
541.472	36706.77
541.672	36700.62
541.873	36413.91
542.073	35869.15
542.274	36823.5
542.474	36444.63
542.675	36387.28
542.875	36622.8
543.075	36649.42
543.276	36151.77
543.476	37083.59
543.676	36592.08
543.877	36698.58
544.077	36514.26
544.277	36784.59
544.478	36280.79
544.678	36481.49
544.878	36350.42
545.078	36561.36
545.279	36125.14
545.479	36456.92
545.679	36448.72
545.879	36153.82
546.079	36207.06
546.28	36243.93
546.48	36243.93
546.68	36544.98
546.88	36600.27
547.08	36348.37
547.28	36372.95
547.48	35922.4
547.68	36491.73
547.88	36037.08
548.081	36491.73
548.281	35920.35
548.481	36141.53
548.681	36528.59
548.881	36200.92
549.081	36067.8
549.28	35940.83
549.48	36741.58
549.68	36231.64
549.88	36583.89
550.08	35840.48
550.28	36176.34
550.48	35803.61
550.68	36516.31
550.88	35865.05
551.08	36211.16
551.279	36293.08
551.479	35842.53
551.679	35875.29
551.879	35820
552.079	36309.46
552.278	36026.84
552.478	36131.29
552.678	35820
552.878	35981.79
553.077	35555.81
553.277	35779.04
553.477	36276.69
553.676	35471.84
553.876	35930.59
554.076	35518.95
554.275	35688.93
554.475	35168.74
554.674	35615.2
554.874	35832.29
555.074	35510.75
555.273	35975.64
555.473	36057.56
555.672	35746.27
555.872	35482.08
556.071	35705.31
556.271	35738.08
556.47	35473.89
556.67	34951.66
556.869	35344.87
557.068	35609.06
557.268	35318.25
557.467	35439.08
557.667	35158.5
557.866	35303.91
558.065	35525.09
558.265	34961.9
558.464	34681.33
558.663	35195.37
558.863	34818.54
559.062	35297.77
559.261	34349.56
559.461	35088.87
559.66	34503.15
559.859	34972.14
560.058	34378.23
560.258	34707.95
560.457	34464.24
560.656	34839.02
560.855	34363.89
561.054	34576.88
561.253	34032.12
561.453	34390.52
561.652	34228.73
561.851	34165.24
562.05	34488.82
562.249	33841.66
562.448	34359.8
562.647	34091.51
562.846	34189.81
563.045	34038.26
563.244	34152.95
563.443	34353.65
563.642	33444.35
563.841	34054.65
564.04	33669.63
564.239	34068.98
564.438	33622.53
564.637	33479.17
564.836	33587.71
565.035	33278.47
565.234	33102.34
565.432	33090.06
565.631	32946.7
565.83	33423.87
566.029	32834.06
566.228	32954.89
566.427	32907.79
566.625	32983.56
566.824	32580.11
567.023	32950.79
567.222	32369.17
567.42	32797.2
567.619	32584.21
567.818	32811.53
568.016	32170.52
568.215	32586.25
568.414	32358.93
568.612	32717.32
568.811	32158.23
569.01	32272.92
569.208	31949.34
569.407	32123.41
569.605	31855.13
569.804	32426.51
570.002	31631.9
570.201	31930.9
570.4	31445.54
570.598	31404.58
570.797	31310.37
570.995	31480.35
571.193	31048.23
571.392	31580.7
571.59	31248.93
571.789	31046.18
571.987	31037.99
572.186	31277.6
572.384	30759.47
572.582	31171.11
572.781	30990.89
572.979	30786.09
573.177	30958.12
573.376	30741.03
573.574	30667.31
573.772	30360.11
573.971	30220.85
574.169	30210.61
574.367	29995.57
574.565	30458.42
574.763	30378.54
574.962	30050.87
575.16	29669.95
575.358	30116.4
575.556	29651.52
575.754	30048.82
575.952	29485.63
576.151	29702.71
576.349	29559.36
576.547	29528.64
576.745	29559.36
576.943	29469.25
577.141	29381.18
577.339	29196.87
577.537	29231.68
577.735	29022.79
577.933	28938.82
578.131	28883.53
578.329	28770.89
578.527	28822.09
578.725	28850.76
578.923	29010.5
579.121	28871.24
579.319	28332.62
579.516	28629.58
579.714	28357.2
579.912	28004.95
580.11	28156.5
580.308	28285.52
580.506	28086.87
580.704	27773.53
580.901	28099.16
581.099	27775.58
581.297	27720.28
581.495	27538.01
581.692	28068.44
581.89	27570.78
582.088	27775.58
582.285	27372.13
582.483	27507.29
582.681	27767.38
582.878	27476.57
583.076	26985.06
583.274	27189.86
583.471	27003.49
583.669	26829.41
583.866	26968.68
584.064	26991.2
584.262	26794.6
584.459	26823.27
584.657	26634.86
584.854	26546.79
585.052	26432.11
585.249	26565.23
585.447	26731.11
585.644	26172.02
585.841	26337.9
586.039	26534.51
586.236	25864.82
586.434	25897.59
586.631	25993.84
586.828	26063.47
587.026	26102.39
587.223	25705.08
587.42	25395.84
587.618	25899.64
587.815	25201.28
588.012	25055.87
588.21	25420.41
588.407	25434.75
588.604	25318.01
588.801	25258.62
588.999	24951.43
589.196	24814.21
589.393	25213.57
589.59	24889.99
589.787	24752.77
589.984	24898.18
590.182	24498.83
590.379	24812.17
590.576	24437.39
590.773	24347.28
590.97	24132.24
591.167	24406.67
591.364	24261.26
591.561	24156.82
591.758	23927.44
591.955	24105.62
592.152	24285.84
592.349	23655.06
592.546	24285.84
592.743	23814.8
592.94	23515.8
593.137	23698.07
593.334	24040.08
593.531	23632.54
593.727	23675.54
593.924	23837.33
594.121	23233.18
594.318	23259.81
594.515	23042.72
594.712	23173.79
594.908	23050.91
595.105	22981.28
595.302	22686.37
595.499	23171.74
595.696	22893.22
595.892	22899.36
596.089	22860.45
596.286	22526.63
596.482	22356.65
596.679	22524.58
596.876	22457
597.072	22325.93
597.269	22358.7
597.466	22133.42
597.662	21938.87
597.859	21951.15
598.055	22016.69
598.252	21924.53
598.448	22096.56
598.645	22112.94
598.841	21609.14
599.038	21650.1
599.234	21555.9
599.431	21564.09
599.627	21611.19
599.824	21672.63
600.02	21416.63
600.217	21400.25
600.413	21447.35
600.609	21170.88
600.806	21076.67
601.002	21193.4
601.198	20914.88
601.395	20681.41
601.591	20800.19
601.787	20886.21
601.984	20703.94
602.18	20808.39
602.376	20591.3
602.572	20777.67
602.769	20517.57
602.965	20263.63
603.161	20378.31
603.357	20050.64
603.553	20228.81
603.75	20259.53
603.946	20099.79
604.142	20265.67
604.338	19817.17
604.534	20136.65
604.73	19786.45
604.926	19770.07
605.122	19935.95
605.318	19983.06
605.514	19706.58
605.71	19569.37
605.906	19653.33
606.102	19342.04
606.298	19577.56
606.494	19466.97
606.69	19296.99
606.886	19346.14
607.082	19133.15
607.278	19442.39
607.474	18993.89
607.67	19450.58
607.866	18963.17
608.062	19253.98
608.257	18989.79
608.453	19247.83
608.649	18778.85
608.845	18764.51
609.041	18844.38
609.236	18819.81
609.432	18868.96
609.628	18885.34
609.824	18612.96
610.019	18594.53
610.215	18684.64
610.411	18836.19
610.606	18572
610.802	18492.13
610.998	18207.47
611.193	18225.9
611.389	18270.95
611.584	18195.18
611.78	17933.04
611.976	18072.3
612.171	18383.59
612.367	18176.75
612.562	18156.27
612.758	17799.92
612.953	18029.29
613.149	18170.6
613.344	17666.8
613.539	18189.03
613.735	17945.33
613.93	18107.12
614.126	17754.87
614.321	17887.98
614.517	17808.11
614.712	17730.29
614.907	17509.11
615.103	18109.16
615.298	17697.52
615.493	17720.05
615.688	17173.24
615.884	17799.92
616.079	17259.26
616.274	17447.67
616.47	17451.77
616.665	17357.56
616.86	17189.63
617.055	17351.42
617.25	17271.54
617.445	17283.83
617.641	16937.73
617.836	17189.63
618.031	16927.49
618.226	17087.23
618.421	17095.42
618.616	17025.79
618.811	16485.12
619.006	17033.98
619.201	16509.7
619.396	16749.31
619.591	16309
619.786	16425.73
619.981	16405.25
620.176	16644.87
620.371	16333.57
620.566	16247.56
620.761	16063.24
620.956	16268.04
621.151	16038.67
621.346	16102.15
621.541	15973.13
621.735	16020.24
621.93	15364.89
622.125	15526.68
622.32	15667.98
622.515	15506.2
622.709	15416.08
622.904	15411.99
623.099	15481.62
623.294	15215.38
623.488	15164.18
623.683	15211.29
623.878	14775.07
624.072	14834.46
624.267	14867.23
624.462	14906.14
624.656	14629.66
624.851	14703.39
625.046	14496.55
625.24	14338.85
625.435	14357.28
625.629	14322.47
625.824	14242.6
626.018	14414.63
626.213	13873.96
626.407	14218.02
626.602	13773.61
626.796	13945.64
626.991	13785.9
627.185	13742.89
627.38	13591.34
627.574	13577.01
627.768	13534
627.963	13398.84
628.157	13126.46
628.352	13261.62
628.546	13200.18
628.74	13108.02
628.935	13126.46
629.129	13124.41
629.323	12751.68
629.517	12888.89
629.712	12684.09
629.906	12727.1
630.1	12528.45
630.294	12770.11
630.489	12536.64
630.683	12669.76
630.877	12424
631.071	12131.14
631.265	12399.43
631.459	12225.35
631.653	12163.91
631.848	12043.08
632.042	11725.65
632.236	12051.27
632.43	11971.4
632.624	11959.11
632.818	11877.19
633.012	11737.93
633.206	11545.42
633.4	11625.29
633.594	11506.51
633.788	11234.13
633.982	11498.32
634.176	11281.24
634.369	11271
634.563	11246.42
634.757	11227.99
634.951	11205.46
635.145	11166.55
635.339	10855.26
635.533	10906.46
635.726	10867.55
635.92	10718.04
636.114	10808.16
636.308	10834.78
636.501	10670.94
636.695	10621.79
636.889	10662.75
637.083	10406.75
637.276	10376.03
637.47	10382.18
637.664	10210.15
637.857	10423.14
638.051	10187.62
638.244	10179.43
638.438	10128.23
638.632	9980.78
638.825	9868.14
639.019	9882.47
639.212	9761.64
639.406	9804.65
639.599	9732.97
639.793	9755.5
639.986	9669.48
640.18	9835.37
640.373	9622.38
640.567	9433.97
640.76	9419.63
640.954	9296.75
641.147	9341.81
641.34	9431.92
641.534	9089.91
641.727	9300.85
641.92	9202.55
642.114	9151.35
642.307	9114.48
642.5	9163.64
642.694	8897.4
642.887	8868.73
643.08	9087.86
643.273	8913.78
643.467	8995.7
643.66	8751.99
643.853	8772.47
644.046	8579.97
644.239	8764.28
644.432	8588.16
644.626	8377.22
644.819	8465.28
645.012	8442.75
645.205	8625.02
645.398	8258.43
645.591	8182.66
645.784	8203.14
645.977	8039.3
646.17	8078.21
646.363	8080.26
646.556	7908.23
646.749	8016.77
646.942	7936.9
647.135	7986.05
647.328	7799.69
647.521	7746.44
647.714	7629.71
647.907	7949.19
648.099	7818.12
648.292	7820.17
648.485	7650.19
648.678	7523.21
648.871	7486.35
649.064	7613.32
649.256	7689.1
649.449	7443.34
649.642	7541.64
649.835	7146.39
650.027	7246.74
650.22	7359.38
650.413	7164.82
650.605	7445.39
650.798	7359.38
650.991	7064.47
651.183	7125.91
651.376	7039.89
651.568	7125.91
651.761	7097.24
651.954	7162.77
652.146	6957.97
652.339	6957.97
652.531	6824.86
652.724	6730.65
652.916	6638.49
653.109	6620.06
653.301	6699.93
653.494	6597.53
653.686	6495.13
653.879	6790.04
654.071	6493.08
654.263	6445.98
654.456	6482.85
654.648	6585.24
654.84	6374.3
655.033	6341.54
655.225	6308.77
655.417	6413.21
655.61	6517.66
655.802	6294.43
655.994	6155.17
656.186	6208.42
656.379	6136.74
656.571	6243.23
656.763	6081.44
656.955	6017.96
657.148	6101.92
657.34	6007.72
657.532	5960.61
657.724	5929.89
657.916	5884.84
658.108	5888.93
658.3	5858.21
658.492	5909.41
658.684	5721
658.876	5788.58
659.068	5649.32
659.26	5645.23
659.452	5686.19
659.644	5723.05
659.836	5483.44
660.028	5575.59
660.22	5436.33
660.412	5589.93
660.604	5546.92
660.796	5430.19
660.988	5409.71
661.18	5381.04
661.372	5405.61
661.563	5286.83
661.755	5393.33
661.947	5313.45
662.139	5368.75
662.331	5172.15
662.522	5120.95
662.714	5266.35
662.906	5116.85
663.097	5010.36
663.289	5026.74
663.481	4879.29
663.673	5036.98
663.864	5008.31
664.056	4905.91
664.247	4979.64
664.439	4875.19
664.631	4875.19
664.822	4879.29
665.014	4948.92
665.205	4899.77
665.397	4918.2
665.588	4815.8
665.78	4729.78
665.971	4715.45
666.163	4848.57
666.354	4715.45
666.546	4481.98
666.737	4641.72
666.929	4602.81
667.12	4535.23
667.311	4512.7
667.503	4459.45
667.694	4582.33
667.885	4520.89
668.077	4522.94
668.268	4307.9
668.459	4529.08
668.651	4486.08
668.842	4336.57
669.033	4322.24
669.224	4320.19
669.416	4357.05
669.607	4246.46
669.798	4133.82
669.989	4299.71
670.18	4324.29
670.371	4146.11
670.563	4139.97
670.754	4213.7
670.945	4090.82
671.136	4197.31
671.327	4164.54
671.518	4068.29
671.709	4152.26
671.9	4180.93
672.091	4144.06
672.282	3992.52
672.473	4056
672.664	3894.21
672.855	3918.79
673.046	3888.07
673.237	4017.09
673.428	4029.38
673.619	3877.83
673.809	3961.8
674	3869.64
674.191	3908.55
674.382	3836.87
674.573	3742.66
674.764	3773.38
674.954	3947.46
675.145	3849.16
675.336	3693.51
675.527	3804.1
675.717	3644.36
675.908	3797.96
676.099	3861.45
676.289	3718.09
676.48	3705.8
676.671	3599.31
676.861	3736.52
677.052	3617.74
677.243	3599.31
677.433	3501
677.624	3615.69
677.814	3654.6
678.005	3548.11
678.195	3644.36
678.386	3595.21
678.576	3546.06
678.767	3501
678.957	3595.21
679.148	3673.03
679.338	3470.28
679.529	3609.54
679.719	3468.24
679.909	3556.3
680.1	3525.58
680.29	3453.9
680.481	3419.08
680.671	3462.09
680.861	3443.66
681.052	3376.08
681.242	3394.51
681.432	3431.37
681.622	3281.87
681.813	3435.47
682.003	3298.25
682.193	3271.63
682.383	3365.84
682.573	3232.72
682.764	3369.93
682.954	3404.75
683.144	3378.12
683.334	3185.62
683.524	3333.07
683.714	3396.56
683.904	3208.14
684.094	3435.47
684.284	3230.67
684.474	3273.68
684.664	3175.38
684.854	3103.7
685.044	3206.1
685.234	3261.39
685.424	3158.99
685.614	3128.27
685.804	3138.51
685.994	3087.31
686.184	3222.48
686.374	3187.66
686.564	3036.11
686.753	3175.38
686.943	3177.42
687.133	3095.5
687.323	3034.07
687.513	3091.41
687.702	3066.83
687.892	3062.74
688.082	3111.89
688.272	3062.74
688.461	3017.68
688.651	3058.64
688.841	2984.91
689.03	2919.38
689.22	3050.45
689.41	2898.9
689.599	2741.21
689.789	2909.14
689.979	2954.19
690.168	2845.65
690.358	2743.25
690.547	2862.04
690.737	2886.61
690.926	2798.55
691.116	2773.97
691.305	2896.85
691.495	2984.91
691.684	2724.82
691.874	2845.65
692.063	2618.33
692.252	2776.02
692.442	2739.16
692.631	2714.58
692.82	2683.86
693.01	2755.54
693.199	2661.34
693.388	2716.63
693.578	2649.05
693.767	2665.43
693.956	2667.48
694.146	2626.52
694.335	2704.34
694.524	2534.36
694.713	2610.14
694.902	2548.7
695.092	2536.41
695.281	2497.5
695.47	2542.55
695.659	2542.55
695.848	2399.2
696.037	2436.06
696.226	2468.83
696.415	2429.91
696.604	2575.32
696.793	2405.34
696.982	2583.51
697.171	2530.27
697.36	2431.96
697.549	2429.91
697.738	2362.33
697.927	2423.77
698.116	2489.31
698.305	2493.4
698.494	2403.29
698.683	2431.96
698.872	2558.94
699.061	2411.48
699.25	2372.57
699.438	2421.72
699.627	2341.85
699.816	2460.63
700.005	2391
700.193	2487.26
700.382	2452.44
700.571	2411.48
700.76	2280.41
700.948	2370.52
701.137	2405.34
701.326	2366.43
701.514	2339.8
701.703	2358.24
701.892	2257.89
702.08	2307.04
702.269	2405.34
702.457	2249.69
702.646	2339.8
702.834	2251.74
703.023	2325.47
703.212	2329.56
703.4	2243.55
703.589	2266.08
703.777	2270.17
703.965	2296.8
704.154	2253.79
704.342	2272.22
704.531	2233.31
704.719	2382.81
704.907	2282.46
705.096	2241.5
705.284	2272.22
705.472	2268.13
705.661	2247.65
705.849	2307.04
706.037	2253.79
706.226	2173.92
706.414	2239.45
706.602	2165.73
706.79	2298.84
706.979	2108.38
707.167	2200.54
707.355	2173.92
707.543	2292.7
707.731	2200.54
707.919	2223.07
708.107	2182.11
708.296	2186.21
708.484	2290.65
708.672	2210.78
708.86	2348
709.048	2192.35
709.236	2110.43
709.424	2159.58
709.612	2243.55
709.8	2178.01
709.988	2270.17
710.176	2317.28
710.364	2145.25
710.551	2237.41
710.739	2178.01
710.927	2251.74
711.115	2304.99
711.303	2159.58
711.491	2241.5
711.679	2169.82
711.866	2169.82
712.054	2307.04
712.242	2128.86
712.43	2309.08
712.617	2223.07
712.805	2264.03
712.993	2259.93
713.181	2108.38
713.368	2198.49
713.556	2102.24
713.744	2247.65
713.931	2315.23
714.119	2186.21
714.306	2251.74
714.494	2208.73
714.682	2118.62
714.869	2190.3
715.057	2292.7
715.244	2198.49
715.432	2268.13
715.619	2315.23
715.807	2276.32
715.994	2110.43
716.182	2223.07
716.369	2272.22
716.556	2264.03
716.744	2178.01
716.931	2137.06
717.119	2227.17
717.306	2284.51
717.493	2212.83
717.681	2182.11
717.868	2239.45
718.055	2120.67
718.242	2206.69
718.43	2214.88
718.617	2247.65
718.804	2132.96
718.991	2239.45
719.179	2233.31
719.366	2212.83
719.553	2083.81
719.74	2268.13
719.927	2173.92
720.114	2149.34
720.301	2323.42
720.488	2096.1
720.676	2061.28
720.863	2298.84
721.05	2233.31
721.237	2124.77
721.424	2116.58
721.611	2198.49
721.798	2059.23
721.985	2104.29
722.172	2247.65
722.358	2194.4
722.545	2288.61
722.732	2202.59
722.919	2280.41
723.106	2247.65
723.293	2075.62
723.48	2159.58
723.667	2190.3
723.853	2132.96
724.04	2188.25
724.227	2182.11
724.414	2206.69
724.6	2264.03
724.787	2165.73
724.974	2223.07
725.161	2100.19
725.347	2182.11
725.534	2143.2
725.72	2192.35
725.907	2173.92
726.094	2132.96
726.28	2182.11
726.467	2132.96
726.653	2165.73
726.84	2261.98
727.027	2218.97
727.213	2221.02
727.4	2358.24
727.586	2079.71
727.773	2268.13
727.959	2233.31
728.145	2239.45
728.332	2167.77
728.518	2184.16
728.705	2198.49
728.891	2233.31
729.077	2141.15
729.264	2245.6
729.45	2169.82
729.636	2304.99
729.823	2280.41
730.009	2214.88
730.195	2221.02
730.382	2188.25
730.568	2157.54
730.754	2243.55
730.94	2204.64
731.126	2235.36
731.313	2204.64
731.499	2296.8
731.685	2216.93
731.871	2120.67
732.057	2288.61
732.243	2141.15
732.429	2087.9
732.615	2180.06
732.801	2165.73
732.987	2139.1
733.173	2208.73
733.359	2135.01
733.545	2210.78
733.731	2237.41
733.917	2198.49
734.103	2198.49
734.289	2114.53
734.475	2192.35
734.661	2198.49
734.847	2231.26
735.033	2180.06
735.219	2165.73
735.404	2173.92
735.59	2116.58
735.776	2145.25
735.962	2184.16
736.148	2231.26
736.333	2208.73
736.519	2261.98
736.705	2218.97
736.89	2071.52
737.076	2190.3
737.262	2122.72
737.447	2188.25
737.633	2173.92
737.819	2143.2
738.004	2182.11
738.19	2192.35
738.375	2151.39
738.561	2251.74
738.747	2128.86
738.932	2128.86
739.118	2190.3
739.303	2094.05
739.489	2200.54
739.674	2143.2
739.859	2010.08
740.045	2135.01
740.23	2046.94
740.416	1944.55
740.601	2061.28
740.786	2081.76
740.972	2001.89
741.157	2186.21
741.342	2018.27
741.528	2100.19
741.713	2112.48
741.898	2067.42
742.084	2046.94
742.269	2042.85
742.454	2126.82
742.639	2087.9
742.824	1981.41
743.01	2034.66
743.195	2069.47
743.38	1971.17
743.565	2077.66
743.75	2026.47
743.935	1983.46
744.12	2014.18
744.305	2053.09
744.49	1993.7
744.675	1911.78
744.86	1928.16
745.045	1895.4
745.23	1997.79
745.415	1862.63
745.6	1969.12
745.785	1977.31
745.97	1829.86
746.155	1950.69
746.34	1856.48
746.525	1917.92
746.71	1917.92
746.895	1819.62
747.079	1811.43
747.264	1764.33
747.449	1838.05
747.634	1883.11
747.819	1879.01
748.003	1756.13
748.188	1698.79
748.373	1928.16
748.557	1788.9
748.742	1784.8
748.927	1723.37
749.111	1756.13
749.296	1659.88
749.481	1727.46
749.665	1793
749.85	1754.09
750.034	1633.26
750.219	1596.39
750.404	1594.34
750.588	1639.4
750.773	1651.69
750.957	1594.34
751.141	1616.87
751.326	1674.21
751.51	1545.19
751.695	1633.26
751.879	1577.96
752.064	1571.82
752.248	1543.14
752.432	1526.76
752.617	1690.6
752.801	1543.14
752.985	1604.58
753.17	1477.61
753.354	1559.53
753.538	1553.38
753.722	1416.17
753.907	1596.39
754.091	1414.12
754.275	1455.08
754.459	1448.94
754.643	1379.31
754.828	1526.76
755.012	1448.94
755.196	1350.64
755.38	1420.27
755.564	1397.74
755.748	1473.51
755.932	1383.4
756.116	1354.73
756.3	1385.45
756.484	1428.46
756.668	1354.73
756.852	1324.01
757.036	1293.29
757.22	1373.16
757.404	1297.39
757.588	1268.72
757.772	1207.28
757.956	1190.89
758.14	1217.52
758.323	1223.66
758.507	1371.12
758.691	1227.76
758.875	1240.05
759.059	1194.99
759.242	1207.28
759.426	1168.37
759.61	1217.52
759.794	1170.41
759.977	1293.29
760.161	1252.33
760.345	1209.33
760.528	1264.62
760.712	1215.47
760.895	1119.21
761.079	1229.81
761.263	1117.17
761.446	1045.49
761.63	1113.07
761.813	1147.89
761.997	1235.95
762.18	1068.02
762.364	1211.37
762.547	1094.64
762.731	1084.4
762.914	1061.87
763.098	1090.54
763.281	1045.49
763.464	1061.87
763.648	988.14
763.831	1104.88
764.015	1016.82
764.198	1031.15
764.381	1022.96
764.564	1072.11
764.748	1059.82
764.931	1104.88
765.114	1014.77
765.297	1014.77
765.481	1020.91
765.664	1039.34
765.847	881.65
766.03	1043.44
766.213	1018.86
766.397	1119.21
766.58	973.81
766.763	1047.54
766.946	967.67
767.129	936.95
767.312	953.33
767.495	924.66
767.678	1111.02
767.861	928.75
768.044	898.03
768.227	959.47
768.41	891.89
768.593	961.52
768.776	961.52
768.959	1037.3
769.142	920.56
769.324	883.7
769.507	920.56
769.69	807.92
769.873	945.14
770.056	1010.67
770.239	941.04
770.421	938.99
770.604	912.37
770.787	934.9
770.97	918.51
771.152	924.66
771.335	912.37
771.518	850.93
771.7	986.1
771.883	848.88
772.066	879.6
772.248	834.55
772.431	846.84
772.613	930.8
772.796	795.64
772.978	895.99
773.161	832.5
773.343	857.07
773.526	842.74
773.708	785.4
773.891	678.9
774.073	908.27
774.256	750.58
774.438	949.23
774.621	709.62
774.803	783.35
774.985	809.97
775.168	814.07
775.35	762.87
775.532	723.96
775.715	744.44
775.897	799.73
776.079	789.49
776.261	760.82
776.444	642.04
776.626	633.85
776.808	711.67
776.99	805.88
777.173	633.85
777.355	658.42
777.537	683
777.719	633.85
777.901	666.61
778.083	699.38
778.265	695.29
778.447	728.05
778.629	590.84
778.811	672.76
778.993	642.04
779.175	652.28
779.357	654.33
779.539	717.81
779.721	578.55
779.903	637.94
780.085	609.27
780.267	605.17
780.449	609.27
780.631	637.94
780.812	629.75
780.994	633.85
781.176	594.93
781.358	551.93
781.54	635.89
781.721	654.33
781.903	506.87
782.085	551.93
782.267	543.74
782.448	482.3
782.63	521.21
782.812	551.93
782.993	510.97
783.175	478.2
783.357	441.34
783.538	519.16
783.72	480.25
783.901	494.58
784.083	564.22
784.264	461.82
784.446	453.63
784.627	402.43
784.809	570.36
784.99	504.82
785.172	578.55
785.353	504.82
785.535	390.14
785.716	556.02
785.897	398.33
786.079	455.67
786.26	480.25
786.441	431.1
786.623	437.24
786.804	455.67
786.985	439.29
787.167	506.87
787.348	439.29
787.529	474.1
787.71	551.93
787.891	383.99
788.073	390.14
788.254	424.95
788.435	519.16
788.616	404.47
788.797	338.94
788.978	388.09
789.159	379.9
789.34	437.24
789.522	361.47
789.703	357.37
789.884	445.43
790.065	420.86
790.246	504.82
790.427	367.61
790.607	392.19
790.788	455.67
790.969	365.56
791.15	377.85
791.331	338.94
791.512	349.18
791.693	367.61
791.874	314.36
792.054	437.24
792.235	435.19
792.416	297.98
792.597	412.67
792.778	365.56
792.958	359.42
793.139	371.71
793.32	351.23
793.5	316.41
793.681	375.8
793.862	273.4
794.042	322.56
794.223	273.4
794.404	297.98
794.584	287.74
794.765	326.65
794.945	297.98
795.126	340.99
795.306	330.75
795.487	250.88
795.667	306.17
795.848	300.03
796.028	367.61
796.209	322.56
796.389	396.28
796.57	338.94
796.75	285.69
796.93	322.56
797.111	248.83
797.291	240.64
797.471	289.79
797.652	326.65
797.832	203.77
798.012	281.6
798.192	297.98
798.373	265.21
798.553	248.83
798.733	232.44
798.913	222.2
799.093	267.26
799.274	273.4
799.454	281.6
799.634	308.22
799.814	285.69
799.994	228.35
800.174	334.84
800.354	306.17
800.534	257.02
800.714	207.87
800.894	175.1
801.074	224.25
801.254	154.62
801.434	302.08
801.614	281.6
801.794	160.77
801.974	879.6
802.154	234.49
802.334	207.87
802.514	248.83
802.693	201.72
802.873	232.44
803.053	187.39
803.233	308.22
803.413	160.77
803.592	224.25
803.772	121.85
803.952	232.44
804.131	187.39
804.311	211.96
804.491	297.98
804.67	160.77
804.85	162.81
805.03	273.4
805.209	232.44
805.389	179.2
805.568	279.55
805.748	234.49
805.928	187.39
806.107	216.06
806.287	128
806.466	238.59
806.646	236.54
806.825	232.44
807.004	236.54
807.184	164.86
807.363	240.64
807.543	146.43
807.722	232.44
807.901	218.11
808.081	207.87
808.26	113.66
808.439	236.54
808.619	216.06
808.798	146.43
808.977	175.1
809.156	199.68
809.336	150.53
809.515	265.21
809.694	144.38
809.873	183.29
810.052	136.19
810.231	150.53
810.411	193.53
810.59	209.92
810.769	240.64
810.948	154.62
811.127	148.48
811.306	160.77
811.485	44.03
811.664	162.81
811.843	183.29
812.022	207.87
812.201	175.1
812.38	185.34
812.559	54.27
812.737	158.72
812.916	160.77
813.095	175.1
813.274	201.72
813.453	224.25
813.632	146.43
813.811	191.49
813.989	162.81
814.168	216.06
814.347	70.65
814.526	220.16
814.704	158.72
814.883	117.76
815.062	183.29
815.24	185.34
815.419	93.18
815.598	191.49
815.776	103.42
815.955	121.85
816.133	101.37
816.312	132.09
816.49	93.18
816.669	183.29
816.847	125.95
817.026	84.99
817.204	128
817.383	191.49
817.561	78.85
817.74	128
817.918	121.85
818.097	226.3
818.275	207.87
818.453	150.53
818.632	115.71
818.81	166.91
818.988	105.47
819.167	248.83
819.345	173.05
819.523	70.65
819.701	105.47
819.879	113.66
820.058	130.05
820.236	142.33
820.414	109.57
820.592	95.23
820.77	58.37
820.948	152.57
821.127	128
821.305	119.81
821.483	89.09
821.661	154.62
821.839	128
822.017	103.42
822.195	19.46
822.373	168.96
822.551	125.95
822.729	48.13
822.907	134.14
823.085	168.96
823.262	60.42
823.44	93.18
823.618	113.66
823.796	142.33
823.974	50.18
824.152	64.51
824.329	132.09
824.507	101.37
824.685	93.18
824.863	136.19
825.04	80.89
825.218	195.58
825.396	60.42
825.574	89.09
825.751	152.57
825.929	113.66
826.107	117.76
826.284	109.57
826.462	111.61
826.639	93.18
826.817	44.03
826.994	80.89
827.172	48.13
827.349	191.49
827.527	62.46
827.704	105.47
827.882	93.18
828.059	117.76
828.237	19.46
828.414	109.57
828.591	19.46
828.769	74.75
828.946	84.99
829.124	84.99
829.301	87.04
829.478	93.18
829.655	80.89
829.833	72.7
830.01	35.84
830.187	101.37
830.364	101.37
830.542	125.95
830.719	103.42
830.896	76.8
831.073	128
831.25	185.34
831.427	66.56
831.604	103.42
831.782	105.47
831.959	84.99
832.136	68.61
832.313	68.61
832.49	95.23
832.667	107.52
832.844	35.84
833.021	140.29
833.198	68.61
833.374	70.65
833.551	44.03
833.728	87.04
833.905	87.04
834.082	44.03
834.259	130.05
834.436	5.12
834.612	62.46
834.789	105.47
834.966	109.57
835.143	144.38
835.319	66.56
835.496	80.89
835.673	130.05
835.85	142.33
836.026	89.09
836.203	97.28
836.38	11.26
836.556	84.99
836.733	68.61
836.909	68.61
837.086	9.22
837.262	-13.31
837.439	21.5
837.616	-3.07
837.792	64.51
837.968	80.89
838.145	50.18
838.321	35.84
838.498	105.47
838.674	109.57
838.851	37.89
839.027	111.61
839.203	52.22
839.38	125.95
839.556	78.85
839.732	93.18
839.909	27.65
840.085	101.37
840.261	37.89
840.437	101.37
840.614	37.89
840.79	93.18
840.966	19.46
841.142	31.74
841.318	134.14
841.494	84.99
841.671	-11.26
841.847	29.7
842.023	74.75
842.199	84.99
842.375	156.67
842.551	44.03
842.727	-5.12
842.903	74.75
843.079	52.22
843.255	72.7
843.431	44.03
843.607	93.18
843.783	11.26
843.959	113.66
844.134	-27.65
844.31	35.84
844.486	37.89
844.662	5.12
844.838	76.8
845.013	31.74
845.189	15.36
845.365	-3.07
845.541	60.42
845.716	56.32
845.892	128
846.068	17.41
846.244	46.08
846.419	68.61
846.595	50.18
846.77	93.18
846.946	72.7
847.122	70.65
847.297	68.61
847.473	54.27
847.648	11.26
847.824	54.27
847.999	19.46
848.175	13.31
848.35	66.56
848.526	44.03
848.701	121.85
848.876	76.8
849.052	93.18
849.227	27.65
849.403	91.13
849.578	62.46
849.753	1.02
849.929	39.94
850.104	-48.13
850.279	37.89
850.454	29.7
850.63	11.26
850.805	3.07
850.98	89.09
851.155	-3.07
851.33	50.18
851.505	44.03
851.681	19.46
851.856	60.42
852.031	7.17
852.206	-27.65
852.381	-62.46
852.556	44.03
852.731	44.03
852.906	78.85
853.081	113.66
853.256	107.52
853.431	48.13
853.606	23.55
853.781	44.03
853.956	-46.08
854.131	13.31
854.305	-29.7
854.48	56.32
854.655	27.65
854.83	-11.26
855.005	19.46
855.18	48.13
855.354	13.31
855.529	44.03
855.704	-13.31
855.879	-1.02
856.053	-46.08
856.228	68.61
856.403	-3.07
856.577	74.75
856.752	29.7
856.926	-21.5
857.101	1.02
857.276	54.27
857.45	52.22
857.625	68.61
857.799	54.27
857.974	-29.7
858.148	15.36
858.323	62.46
858.497	-17.41
858.672	56.32
858.846	-17.41
859.02	64.51
859.195	31.74
859.369	72.7
859.543	52.22
859.718	35.84
859.892	27.65
860.066	109.57
860.241	-15.36
860.415	-21.5
860.589	-13.31
860.763	35.84
860.938	-50.18
861.112	74.75
861.286	60.42
861.46	-27.65
861.634	82.94
861.808	66.56
861.982	5.12
862.157	-5.12
862.331	78.85
862.505	-52.22
862.679	35.84
862.853	23.55
863.027	48.13
863.201	19.46
863.375	-21.5
863.549	21.5
863.722	7.17
863.896	35.84
864.07	-1.02
864.244	31.74
864.418	72.7
864.592	-21.5
864.766	15.36
864.939	-89.09
865.113	11.26
865.287	-29.7
865.461	-21.5
865.634	15.36
865.808	-5.12
865.982	52.22
866.156	44.03
866.329	48.13
866.503	3.07
866.676	-23.55
866.85	19.46
867.024	5.12
867.197	-1.02
867.371	64.51
867.544	37.89
867.718	-21.5
867.891	52.22
868.065	72.7
868.238	-62.46
868.412	-11.26
868.585	-11.26
868.759	-13.31
868.932	48.13
869.105	-21.5
869.279	84.99
869.452	-44.03
869.625	31.74
869.799	-44.03
869.972	-41.98
870.145	44.03
870.319	-21.5
870.492	19.46
870.665	31.74
870.838	-54.27
871.011	-58.37
871.185	-74.75
871.358	-25.6
871.531	-60.42
871.704	-54.27
871.877	48.13
872.05	60.42
872.223	-29.7
872.396	35.84
872.569	-1.02
872.742	13.31
872.915	44.03
873.088	25.6
873.261	-62.46
873.434	-70.65
873.607	46.08
873.78	64.51
873.953	13.31
874.126	39.94
874.299	19.46
874.471	68.61
874.644	-13.31
874.817	7.17
874.99	5.12
875.163	-9.22
875.335	44.03
875.508	3.07
875.681	68.61
875.853	15.36
876.026	62.46
876.199	39.94
876.371	11.26
876.544	3.07
876.717	35.84
876.889	9.22
877.062	17.41
877.234	-31.74
877.407	7.17
877.579	5.12
877.752	52.22
877.924	1.02
878.097	7.17
878.269	-19.46
878.442	33.79
878.614	-3.07
878.786	-1.02
878.959	-21.5
879.131	-23.55
879.303	-23.55
879.476	5.12
879.648	23.55
879.82	-29.7
879.993	101.37
880.165	101.37
880.337	5.12
880.509	44.03
880.681	27.65
880.854	-11.26
881.026	39.94
881.198	123.9
881.37	-21.5
881.542	5.12
881.714	5.12
881.886	33.79
882.058	5.12
882.23	-25.6
882.402	-35.84
882.574	-41.98
882.746	-52.22
882.918	76.8
883.09	-1.02
883.262	66.56
883.434	-13.31
883.606	-13.31
883.778	76.8
883.95	80.89
884.122	11.26
884.293	117.76
884.465	19.46
884.637	56.32
884.809	-1.02
884.98	27.65
885.152	13.31
885.324	33.79
885.496	-50.18
885.667	23.55
885.839	-9.22
886.011	52.22
886.182	-15.36
886.354	11.26
886.525	-33.79
886.697	-37.89
886.869	-27.65
887.04	11.26
887.212	72.7
887.383	11.26
887.555	44.03
887.726	-50.18
887.897	-76.8
888.069	44.03
888.24	21.5
888.412	19.46
888.583	5.12
888.754	125.95
888.926	19.46
889.097	68.61
889.268	21.5
889.44	33.79
889.611	-25.6
889.782	19.46
889.953	-46.08
890.125	21.5
890.296	-56.32
890.467	31.74
890.638	-37.89
890.809	29.7
890.98	-50.18
891.151	-33.79
891.323	7.17
891.494	-25.6
891.665	-9.22
891.836	-1.02
892.007	-41.98
892.178	3.07
892.349	-54.27
892.52	-1.02
892.691	-11.26
892.862	-35.84
893.032	-5.12
893.203	-15.36
893.374	37.89
893.545	54.27
893.716	-66.56
893.887	21.5
894.057	-29.7
894.228	7.17
894.399	3.07
894.57	-3.07
894.74	11.26
894.911	15.36
895.082	-19.46
895.253	21.5
895.423	23.55
895.594	-13.31
895.764	-3.07
895.935	-13.31
896.106	-1.02
896.276	48.13
896.447	54.27
896.617	13.31
896.788	-84.99
896.958	-13.31
897.129	5.12
897.299	29.7
897.47	11.26
897.64	-5.12
897.81	35.84
897.981	17.41
898.151	-62.46
898.322	35.84
898.492	25.6
898.662	-46.08
898.832	-3.07
899.003	3.07
899.173	19.46
899.343	-25.6
899.513	-64.51
