Data from USB4F104151__230__14-45-37-506.txt Node

Date: Thu Mar 13 14:45:37 EDT 2025
User: louis
Spectrometer: USB4F10415
Trigger mode: 4
Integration Time (sec): 2.000000E-2
Scans to average: 1
Electric dark correction enabled: true
Nonlinearity correction enabled: false
Boxcar width: 0
XAxis mode: Wavelengths
Number of Pixels in Spectrum: 3648
>>>>>Begin Spectral Data<<<<<
178.204	-105.3
178.424	-105.3
178.644	-105.3
178.864	-107.35
179.084	-90.96
179.304	15.53
179.524	23.72
179.744	-23.38
179.964	31.91
180.184	-41.81
180.404	-0.85
180.624	-35.67
180.844	13.48
181.064	-0.85
181.283	40.11
181.503	-62.29
181.723	40.11
181.943	-37.72
182.163	76.97
182.383	-13.14
182.602	85.16
182.822	38.06
183.042	105.64
183.262	29.87
183.482	56.49
183.701	-50
183.921	33.96
184.141	25.77
184.361	40.11
184.58	-29.52
184.8	85.16
185.02	-4.95
185.239	60.59
185.459	56.49
185.679	40.11
185.898	-2.9
186.118	89.26
186.338	64.68
186.557	31.91
186.777	-4.95
186.997	42.15
187.216	23.72
187.436	50.35
187.655	52.39
187.875	-9.05
188.095	-60.24
188.314	3.24
188.534	66.73
188.753	68.78
188.973	21.67
189.192	70.83
189.412	7.34
189.631	7.34
189.851	-0.85
190.07	38.06
190.29	25.77
190.509	-15.19
190.729	36.01
190.948	33.96
191.168	107.69
191.387	31.91
191.607	-43.86
191.826	48.3
192.045	44.2
192.265	46.25
192.484	62.63
192.704	74.92
192.923	11.43
193.142	105.64
193.362	117.93
193.581	105.64
193.8	23.72
194.02	91.31
194.239	17.58
194.458	33.96
194.678	27.82
194.897	52.39
195.116	-19.29
195.335	113.83
195.555	83.11
195.774	7.34
195.993	50.35
196.212	9.39
196.432	33.96
196.651	-19.29
196.87	-35.67
197.089	81.07
197.308	70.83
197.528	72.87
197.747	-66.39
197.966	-31.57
198.185	81.07
198.404	81.07
198.623	79.02
198.842	-0.85
199.062	23.72
199.281	83.11
199.5	7.34
199.719	103.59
199.938	128.17
200.157	23.72
200.376	3.24
200.595	17.58
200.814	11.43
201.033	60.59
201.252	56.49
201.471	27.82
201.69	70.83
201.909	-4.95
202.128	105.64
202.347	74.92
202.566	15.53
202.785	-33.62
203.004	25.77
203.223	25.77
203.442	5.29
203.661	-15.19
203.879	-9.05
204.098	64.68
204.317	-7
204.536	89.26
204.755	-41.81
204.974	97.45
205.193	-13.14
205.411	64.68
205.63	74.92
205.849	-4.95
206.068	64.68
206.287	60.59
206.505	15.53
206.724	60.59
206.943	33.96
207.162	-29.52
207.381	81.07
207.599	-4.95
207.818	33.96
208.037	72.87
208.255	-7
208.474	101.55
208.693	130.22
208.911	-13.14
209.13	42.15
209.349	76.97
209.567	44.2
209.786	81.07
210.005	1.19
210.223	87.21
210.442	33.96
210.661	113.83
210.879	-0.85
211.098	17.58
211.316	-17.24
211.535	76.97
211.753	89.26
211.972	48.3
212.191	3.24
212.409	25.77
212.628	-0.85
212.846	33.96
213.065	85.16
213.283	66.73
213.502	72.87
213.72	42.15
213.938	56.49
214.157	115.88
214.375	97.45
214.594	23.72
214.812	15.53
215.031	97.45
215.249	1.19
215.467	-0.85
215.686	31.91
215.904	72.87
216.122	-9.05
216.341	17.58
216.559	50.35
216.778	52.39
216.996	62.63
217.214	1.19
217.432	17.58
217.651	19.63
217.869	60.59
218.087	-23.38
218.306	130.22
218.524	107.69
218.742	-54.1
218.96	31.91
219.179	27.82
219.397	89.26
219.615	93.35
219.833	66.73
220.051	-33.62
220.27	-4.95
220.488	97.45
220.706	-13.14
220.924	-23.38
221.142	44.2
221.36	25.77
221.578	33.96
221.796	-43.86
222.015	9.39
222.233	-25.43
222.451	13.48
222.669	79.02
222.887	89.26
223.105	23.72
223.323	33.96
223.541	1.19
223.759	103.59
223.977	44.2
224.195	40.11
224.413	56.49
224.631	15.53
224.849	31.91
225.067	103.59
225.285	-7
225.503	56.49
225.721	-9.05
225.939	60.59
226.157	58.54
226.375	64.68
226.592	-4.95
226.81	79.02
227.028	50.35
227.246	15.53
227.464	3.24
227.682	31.91
227.9	-74.58
228.117	56.49
228.335	-9.05
228.553	23.72
228.771	17.58
228.989	56.49
229.206	62.63
229.424	-17.24
229.642	48.3
229.86	23.72
230.077	-4.95
230.295	64.68
230.513	70.83
230.731	58.54
230.948	162.98
231.166	19.63
231.384	-13.14
231.601	68.78
231.819	72.87
232.037	15.53
232.254	-27.48
232.472	89.26
232.689	-74.58
232.907	19.63
233.125	11.43
233.342	29.87
233.56	-54.1
233.777	85.16
233.995	-7
234.213	52.39
234.43	81.07
234.648	-23.38
234.865	23.72
235.083	40.11
235.3	-9.05
235.518	64.68
235.735	11.43
235.953	70.83
236.17	7.34
236.388	40.11
236.605	81.07
236.822	72.87
237.04	1.19
237.257	-0.85
237.475	5.29
237.692	-21.33
237.909	60.59
238.127	36.01
238.344	3.24
238.562	3.24
238.779	-50
238.996	64.68
239.214	64.68
239.431	64.68
239.648	44.2
239.865	40.11
240.083	105.64
240.3	42.15
240.517	23.72
240.735	-23.38
240.952	15.53
241.169	109.74
241.386	48.3
241.603	72.87
241.821	-21.33
242.038	38.06
242.255	25.77
242.472	17.58
242.689	50.35
242.907	9.39
243.124	27.82
243.341	-9.05
243.558	7.34
243.775	-0.85
243.992	-9.05
244.209	48.3
244.426	81.07
244.643	64.68
244.86	19.63
245.078	36.01
245.295	-25.43
245.512	70.83
245.729	25.77
245.946	50.35
246.163	83.11
246.38	60.59
246.597	40.11
246.814	64.68
247.031	62.63
247.248	38.06
247.464	3.24
247.681	52.39
247.898	-17.24
248.115	23.72
248.332	-15.19
248.549	15.53
248.766	83.11
248.983	31.91
249.2	58.54
249.417	23.72
249.633	64.68
249.85	-27.48
250.067	-54.1
250.284	42.15
250.501	15.53
250.717	9.39
250.934	-99.16
251.151	36.01
251.368	25.77
251.585	64.68
251.801	9.39
252.018	-33.62
252.235	56.49
252.451	40.11
252.668	52.39
252.885	115.88
253.102	15.53
253.318	33.96
253.535	44.2
253.752	-9.05
253.968	9.39
254.185	-7
254.401	44.2
254.618	40.11
254.835	21.67
255.051	48.3
255.268	7.34
255.484	15.53
255.701	7.34
255.917	48.3
256.134	-86.87
256.351	52.39
256.567	72.87
256.784	42.15
257	-33.62
257.217	48.3
257.433	7.34
257.65	81.07
257.866	81.07
258.082	58.54
258.299	-39.76
258.515	-25.43
258.732	-21.33
258.948	15.53
259.165	1.19
259.381	17.58
259.597	31.91
259.814	-17.24
260.03	-9.05
260.246	40.11
260.463	62.63
260.679	76.97
260.895	44.2
261.112	64.68
261.328	31.91
261.544	-29.52
261.761	81.07
261.977	13.48
262.193	23.72
262.409	48.3
262.626	97.45
262.842	48.3
263.058	56.49
263.274	42.15
263.49	44.2
263.707	23.72
263.923	66.73
264.139	64.68
264.355	-17.24
264.571	99.5
264.787	81.07
265.004	76.97
265.22	60.59
265.436	3.24
265.652	-45.91
265.868	-13.14
266.084	40.11
266.3	66.73
266.516	91.31
266.732	72.87
266.948	66.73
267.164	58.54
267.38	52.39
267.596	81.07
267.812	31.91
268.028	40.11
268.244	-15.19
268.46	46.25
268.676	-25.43
268.892	107.69
269.108	-31.57
269.324	-25.43
269.54	-47.96
269.756	33.96
269.972	42.15
270.188	-47.96
270.403	-17.24
270.619	93.35
270.835	-17.24
271.051	36.01
271.267	31.91
271.483	25.77
271.698	74.92
271.914	-23.38
272.13	42.15
272.346	9.39
272.562	-23.38
272.777	27.82
272.993	-39.76
273.209	15.53
273.425	52.39
273.64	1.19
273.856	1.19
274.072	-9.05
274.287	40.11
274.503	-50
274.719	70.83
274.934	105.64
275.15	-21.33
275.366	29.87
275.581	7.34
275.797	48.3
276.012	23.72
276.228	19.63
276.444	-41.81
276.659	83.11
276.875	-64.34
277.09	27.82
277.306	15.53
277.521	72.87
277.737	23.72
277.952	62.63
278.168	7.34
278.383	-0.85
278.599	-41.81
278.814	66.73
279.03	81.07
279.245	56.49
279.461	42.15
279.676	97.45
279.892	-17.24
280.107	11.43
280.322	7.34
280.538	87.21
280.753	-50
280.969	40.11
281.184	-15.19
281.399	50.35
281.615	-13.14
281.83	36.01
282.045	-47.96
282.26	5.29
282.476	60.59
282.691	97.45
282.906	11.43
283.122	76.97
283.337	-0.85
283.552	68.78
283.767	-31.57
283.983	91.31
284.198	3.24
284.413	72.87
284.628	31.91
284.843	64.68
285.058	31.91
285.274	44.2
285.489	23.72
285.704	25.77
285.919	-17.24
286.134	15.53
286.349	56.49
286.564	-56.15
286.779	113.83
286.995	17.58
287.21	7.34
287.425	62.63
287.64	9.39
287.855	93.35
288.07	31.91
288.285	-21.33
288.5	27.82
288.715	76.97
288.93	74.92
289.145	-0.85
289.36	29.87
289.575	-66.39
289.79	89.26
290.004	11.43
290.219	21.67
290.434	19.63
290.649	-7
290.864	48.3
291.079	-54.1
291.294	40.11
291.509	-23.38
291.724	3.24
291.938	40.11
292.153	72.87
292.368	-7
292.583	17.58
292.798	-9.05
293.012	81.07
293.227	42.15
293.442	33.96
293.657	9.39
293.871	54.44
294.086	-37.72
294.301	87.21
294.516	27.82
294.73	-13.14
294.945	-31.57
295.16	64.68
295.374	42.15
295.589	99.5
295.804	25.77
296.018	19.63
296.233	113.83
296.447	5.29
296.662	-0.85
296.877	3.24
297.091	105.64
297.306	31.91
297.52	13.48
297.735	31.91
297.949	40.11
298.164	11.43
298.378	81.07
298.593	1.19
298.807	11.43
299.022	42.15
299.236	36.01
299.451	-39.76
299.665	21.67
299.88	52.39
300.094	46.25
300.309	56.49
300.523	17.58
300.737	3.24
300.952	64.68
301.166	50.35
301.381	29.87
301.595	-17.24
301.809	29.87
302.024	9.39
302.238	-29.52
302.452	11.43
302.667	7.34
302.881	81.07
303.095	64.68
303.309	81.07
303.524	72.87
303.738	40.11
303.952	-37.72
304.166	15.53
304.381	-90.96
304.595	-13.14
304.809	-0.85
305.023	44.2
305.237	-9.05
305.452	81.07
305.666	11.43
305.88	33.96
306.094	42.15
306.308	-29.52
306.522	48.3
306.736	48.3
306.95	36.01
307.164	-17.24
307.379	11.43
307.593	97.45
307.807	-17.24
308.021	70.83
308.235	31.91
308.449	-29.52
308.663	89.26
308.877	91.31
309.091	46.25
309.305	64.68
309.519	-54.1
309.733	-23.38
309.947	-50
310.161	72.87
310.374	44.2
310.588	56.49
310.802	68.78
311.016	1.19
311.23	25.77
311.444	60.59
311.658	17.58
311.872	-4.95
312.085	25.77
312.299	70.83
312.513	62.63
312.727	76.97
312.941	-0.85
313.154	42.15
313.368	27.82
313.582	-4.95
313.796	29.87
314.009	23.72
314.223	31.91
314.437	42.15
314.651	72.87
314.864	-9.05
315.078	-37.72
315.292	-9.05
315.505	-23.38
315.719	-25.43
315.933	1.19
316.146	105.64
316.36	83.11
316.573	19.63
316.787	44.2
317.001	-0.85
317.214	23.72
317.428	54.44
317.641	31.91
317.855	42.15
318.068	7.34
318.282	40.11
318.495	93.35
318.709	44.2
318.922	9.39
319.136	56.49
319.349	33.96
319.563	72.87
319.776	25.77
319.99	48.3
320.203	-19.29
320.417	-39.76
320.63	72.87
320.843	72.87
321.057	17.58
321.27	74.92
321.483	17.58
321.697	44.2
321.91	27.82
322.124	56.49
322.337	27.82
322.55	11.43
322.763	-17.24
322.977	29.87
323.19	15.53
323.403	19.63
323.617	15.53
323.83	89.26
324.043	7.34
324.256	31.91
324.469	-25.43
324.683	48.3
324.896	-11.09
325.109	48.3
325.322	48.3
325.535	15.53
325.748	-45.91
325.962	-9.05
326.175	36.01
326.388	89.26
326.601	52.39
326.814	38.06
327.027	5.29
327.24	44.2
327.453	-17.24
327.666	64.68
327.879	23.72
328.092	23.72
328.305	-56.15
328.518	-68.44
328.731	31.91
328.944	-66.39
329.157	81.07
329.37	48.3
329.583	85.16
329.796	89.26
330.009	60.59
330.222	29.87
330.435	50.35
330.648	23.72
330.861	99.5
331.073	9.39
331.286	48.3
331.499	33.96
331.712	38.06
331.925	17.58
332.138	-2.9
332.35	44.2
332.563	52.39
332.776	109.74
332.989	85.16
333.202	17.58
333.414	40.11
333.627	44.2
333.84	64.68
334.053	23.72
334.265	15.53
334.478	23.72
334.691	-0.85
334.903	33.96
335.116	-7
335.329	91.31
335.541	17.58
335.754	40.11
335.966	-25.43
336.179	85.16
336.392	52.39
336.604	7.34
336.817	23.72
337.029	111.78
337.242	46.25
337.454	-31.57
337.667	40.11
337.88	33.96
338.092	-17.24
338.305	19.63
338.517	1.19
338.729	68.78
338.942	105.64
339.154	9.39
339.367	-25.43
339.579	115.88
339.792	-74.58
340.004	72.87
340.217	-7
340.429	66.73
340.641	-43.86
340.854	27.82
341.066	27.82
341.278	58.54
341.491	58.54
341.703	56.49
341.915	-27.48
342.128	54.44
342.34	-0.85
342.552	56.49
342.764	40.11
342.977	-54.1
343.189	-29.52
343.401	91.31
343.613	15.53
343.826	19.63
344.038	72.87
344.25	40.11
344.462	9.39
344.674	93.35
344.886	74.92
345.099	27.82
345.311	56.49
345.523	-62.29
345.735	-9.05
345.947	93.35
346.159	-9.05
346.371	72.87
346.583	25.77
346.795	83.11
347.007	66.73
347.219	40.11
347.431	17.58
347.643	31.91
347.855	-58.2
348.067	93.35
348.279	17.58
348.491	76.97
348.703	58.54
348.915	23.72
349.127	48.3
349.339	48.3
349.551	-0.85
349.763	70.83
349.975	97.45
350.187	66.73
350.399	81.07
350.61	50.35
350.822	-23.38
351.034	58.54
351.246	-19.29
351.458	64.68
351.669	40.11
351.881	64.68
352.093	122.02
352.305	66.73
352.517	-17.24
352.728	42.15
352.94	44.2
353.152	44.2
353.363	54.44
353.575	58.54
353.787	33.96
353.999	31.91
354.21	72.87
354.422	48.3
354.633	72.87
354.845	66.73
355.057	38.06
355.268	-2.9
355.48	87.21
355.692	50.35
355.903	42.15
356.115	-15.19
356.326	15.53
356.538	60.59
356.749	1.19
356.961	15.53
357.172	15.53
357.384	33.96
357.595	109.74
357.807	31.91
358.018	-25.43
358.23	74.92
358.441	105.64
358.653	-15.19
358.864	-21.33
359.075	50.35
359.287	15.53
359.498	107.69
359.709	60.59
359.921	38.06
360.132	23.72
360.344	3.24
360.555	17.58
360.766	56.49
360.977	31.91
361.189	109.74
361.4	119.98
361.611	36.01
361.823	76.97
362.034	52.39
362.245	7.34
362.456	81.07
362.667	33.96
362.879	-4.95
363.09	17.58
363.301	89.26
363.512	-41.81
363.723	101.55
363.935	15.53
364.146	107.69
364.357	1.19
364.568	48.3
364.779	-15.19
364.99	54.44
365.201	-2.9
365.412	23.72
365.623	56.49
365.834	74.92
366.045	-13.14
366.256	42.15
366.467	115.88
366.678	9.39
366.889	-0.85
367.1	46.25
367.311	7.34
367.522	36.01
367.733	58.54
367.944	27.82
368.155	56.49
368.366	56.49
368.577	97.45
368.788	19.63
368.999	15.53
369.209	17.58
369.42	83.11
369.631	72.87
369.842	44.2
370.053	72.87
370.264	15.53
370.474	56.49
370.685	23.72
370.896	72.87
371.107	7.34
371.317	44.2
371.528	58.54
371.739	48.3
371.95	83.11
372.16	7.34
372.371	31.91
372.582	74.92
372.792	-7
373.003	27.82
373.214	25.77
373.424	83.11
373.635	79.02
373.846	42.15
374.056	-23.38
374.267	50.35
374.477	64.68
374.688	44.2
374.898	21.67
375.109	113.83
375.319	11.43
375.53	68.78
375.74	38.06
375.951	62.63
376.161	76.97
376.372	68.78
376.582	17.58
376.793	95.4
377.003	64.68
377.214	-43.86
377.424	15.53
377.635	122.02
377.845	29.87
378.055	64.68
378.266	-64.34
378.476	64.68
378.686	81.07
378.897	58.54
379.107	23.72
379.317	31.91
379.528	-0.85
379.738	48.3
379.948	89.26
380.158	19.63
380.369	9.39
380.579	93.35
380.789	36.01
380.999	64.68
381.21	68.78
381.42	109.74
381.63	52.39
381.84	66.73
382.05	-50
382.261	93.35
382.471	79.02
382.681	93.35
382.891	25.77
383.101	68.78
383.311	40.11
383.521	23.72
383.731	68.78
383.941	81.07
384.151	113.83
384.361	5.29
384.571	-13.14
384.781	132.26
384.991	40.11
385.201	25.77
385.411	105.64
385.621	64.68
385.831	27.82
386.041	-0.85
386.251	1.19
386.461	103.59
386.671	52.39
386.881	50.35
387.091	31.91
387.301	87.21
387.511	-11.09
387.72	58.54
387.93	48.3
388.14	15.53
388.35	17.58
388.56	179.37
388.769	50.35
388.979	56.49
389.189	9.39
389.399	81.07
389.609	27.82
389.818	25.77
390.028	81.07
390.238	83.11
390.447	40.11
390.657	66.73
390.867	31.91
391.076	62.63
391.286	89.26
391.496	44.2
391.705	54.44
391.915	134.31
392.125	58.54
392.334	99.5
392.544	89.26
392.753	64.68
392.963	46.25
393.172	132.26
393.382	23.72
393.591	142.5
393.801	-13.14
394.01	89.26
394.22	66.73
394.429	25.77
394.639	48.3
394.848	99.5
395.058	42.15
395.267	72.87
395.477	83.11
395.686	93.35
395.895	72.87
396.105	162.98
396.314	72.87
396.524	70.83
396.733	3.24
396.942	85.16
397.152	83.11
397.361	48.3
397.57	31.91
397.78	52.39
397.989	115.88
398.198	105.64
398.407	79.02
398.617	83.11
398.826	99.5
399.035	42.15
399.244	97.45
399.453	107.69
399.663	-13.14
399.872	52.39
400.081	105.64
400.29	72.87
400.499	25.77
400.708	138.41
400.917	40.11
401.127	105.64
401.336	83.11
401.545	138.41
401.754	99.5
401.963	72.87
402.172	91.31
402.381	11.43
402.59	15.53
402.799	46.25
403.008	154.79
403.217	72.87
403.426	56.49
403.635	89.26
403.844	7.34
404.053	122.02
404.262	48.3
404.471	148.65
404.68	134.31
404.888	154.79
405.097	97.45
405.306	162.98
405.515	148.65
405.724	68.78
405.933	152.74
406.142	144.55
406.35	101.55
406.559	89.26
406.768	111.78
406.977	162.98
407.185	185.51
407.394	167.08
407.603	113.83
407.812	183.46
408.02	255.14
408.229	199.85
408.438	212.14
408.646	115.88
408.855	210.09
409.064	238.76
409.272	205.99
409.481	224.42
409.69	179.37
409.898	205.99
410.107	173.22
410.315	228.52
410.524	271.53
410.733	214.18
410.941	273.57
411.15	308.39
411.358	251.05
411.567	294.05
411.775	222.38
411.984	294.05
412.192	279.72
412.401	277.67
412.609	328.87
412.818	302.25
413.026	367.78
413.234	343.21
413.443	398.5
413.651	378.02
413.86	392.36
414.068	474.28
414.276	365.73
414.485	416.93
414.693	445.6
414.901	548
415.11	509.09
415.318	457.89
415.526	443.56
415.734	482.47
415.943	474.28
416.151	525.47
416.359	515.23
416.567	494.76
416.776	539.81
416.984	617.63
417.192	662.69
417.4	580.77
417.608	621.73
417.817	650.4
418.025	654.5
418.233	709.79
418.441	670.88
418.649	851.1
418.857	767.13
419.065	806.05
419.273	763.04
419.481	855.2
419.689	830.62
419.897	959.64
420.105	951.45
420.313	957.6
420.521	1057.95
420.729	1035.42
420.937	1019.04
421.145	1064.09
421.353	1139.87
421.561	1146.01
421.769	1352.85
421.977	1293.46
422.185	1279.13
422.393	1383.57
422.601	1406.1
422.809	1492.12
423.017	1465.49
423.224	1479.83
423.432	1617.04
423.64	1555.6
423.848	1784.98
424.056	1670.29
424.263	1787.02
424.471	1752.21
424.679	1909.9
424.887	1928.33
425.094	1838.22
425.302	1997.96
425.51	1948.81
425.718	2202.76
425.925	2208.9
426.133	2262.15
426.341	2391.17
426.548	2493.57
426.756	2409.61
426.964	2466.95
427.171	2636.93
427.379	2636.93
427.586	2679.94
427.794	2761.86
428.001	2974.85
428.209	3091.58
428.417	3062.91
428.624	3277.94
428.832	3300.47
429.039	3202.17
429.247	3040.38
429.454	3525.75
429.662	3863.66
429.869	3464.31
430.076	3779.7
430.284	3781.74
430.491	3703.92
430.699	4078.7
430.906	4152.43
431.114	4201.58
431.321	4263.02
431.528	4269.16
431.736	4555.88
431.943	4752.48
432.15	4676.71
432.358	4678.76
432.565	4914.27
432.772	4949.09
432.979	5276.76
433.187	5188.7
433.394	5346.39
433.601	5702.74
433.808	5669.97
434.016	5858.39
434.223	5995.6
434.43	6237.26
434.637	6245.45
434.844	6442.06
435.052	6603.85
435.259	6542.41
435.466	6519.88
435.673	6591.56
435.88	6874.18
436.087	7308.35
436.294	7396.41
436.501	7177.28
436.708	7320.63
436.915	7531.58
437.122	7900.21
437.329	7920.69
437.537	8158.25
437.743	8285.23
437.95	8301.61
438.157	8600.62
438.364	8815.65
438.571	8952.87
438.778	8909.86
438.985	9559.06
439.192	9276.45
439.399	9763.86
439.606	9387.04
439.813	10054.67
440.02	10494.99
440.227	10388.49
440.433	10308.62
440.64	10638.34
440.847	10675.21
441.054	10935.3
441.261	11410.43
441.467	11277.31
441.674	11387.9
441.881	12108.79
442.088	11860.98
442.294	12026.87
442.501	12153.84
442.708	12448.75
442.914	12897.25
443.121	13611.99
443.328	13386.72
443.534	13958.1
443.741	13525.98
443.948	13288.42
444.154	14257.11
444.361	14453.71
444.568	14386.13
444.774	14369.74
444.981	14410.7
445.187	14789.58
445.394	15549.37
445.6	15432.64
445.807	16692.14
446.013	16106.42
446.22	16251.83
446.426	17265.57
446.633	17435.55
446.839	17922.97
447.046	17212.32
447.252	18160.53
447.459	17984.41
447.665	18086.81
447.871	18803.6
448.078	19678.08
448.284	18594.7
448.491	19272.58
448.697	20122.49
448.903	20194.17
449.11	20366.2
449.316	20114.3
449.522	20427.63
449.728	20947.82
449.935	21125.99
450.141	21324.65
450.347	21650.27
450.553	20921.2
450.76	21670.75
450.966	22125.4
451.172	21646.18
451.378	22289.24
451.584	21810.01
451.791	22661.97
451.997	22534.99
452.203	22463.32
452.409	22721.36
452.615	22514.52
452.821	21918.56
453.027	21699.42
453.233	23114.57
453.44	22104.92
453.646	21922.65
453.852	22432.6
454.058	22737.74
454.264	21965.66
454.47	22721.36
454.676	22074.2
454.882	22774.61
455.088	20640.62
455.294	21175.14
455.5	21435.24
455.705	21699.42
455.911	20917.1
456.117	20614
456.323	20024.19
456.529	19381.12
456.735	19823.48
456.941	19186.57
457.147	19073.93
457.352	18324.37
457.558	18504.59
457.764	18531.22
457.97	18113.43
458.176	17462.18
458.381	17630.11
458.587	16894.89
458.793	16808.87
458.999	16047.03
459.204	17066.92
459.41	16380.85
459.616	15524.8
459.821	15561.66
460.027	15428.54
460.233	15592.38
460.438	14275.54
460.644	14515.15
460.85	14148.56
461.055	13853.66
461.261	13652.95
461.466	12643.31
461.672	12389.36
461.878	13087.71
462.083	12473.32
462.289	12133.36
462.494	12094.45
462.7	11371.52
462.905	11013.12
463.111	11672.57
463.316	11688.95
463.522	11398.14
463.727	11361.28
463.932	11381.76
464.138	11195.39
464.343	11500.54
464.549	10923.01
464.754	11416.57
464.959	11234.3
465.165	11062.27
465.37	10578.95
465.575	10562.57
465.781	10865.67
465.986	10984.45
466.191	10429.45
466.397	10134.54
466.602	9751.57
466.807	10183.7
467.012	9948.18
467.218	9987.09
467.423	9733.14
467.628	9919.51
467.833	10355.72
468.038	9862.16
468.244	9698.33
468.449	10234.89
468.654	9841.68
468.859	9600.02
469.064	9643.03
469.269	9284.64
469.474	9534.49
469.679	9683.99
469.885	9053.22
470.09	9427.99
470.295	9466.91
470.5	9321.5
470.705	9165.85
470.91	8983.59
471.115	8946.72
471.32	8981.54
471.525	9116.7
471.73	8725.54
471.935	8725.54
472.139	8594.47
472.344	8471.59
472.549	8465.45
472.754	8330.28
472.959	8330.28
473.164	7930.93
473.369	7920.69
473.574	8211.5
473.778	8092.72
473.983	8027.18
474.188	8043.57
474.393	7797.81
474.598	7779.38
474.802	7808.05
475.007	7595.06
475.212	7584.82
475.417	7216.19
475.621	7363.64
475.826	7537.72
476.031	7169.09
476.235	7035.97
476.44	7318.59
476.645	7015.49
476.849	7064.64
477.054	7076.93
477.259	6841.41
477.463	6904.9
477.668	6601.8
477.872	6761.54
478.077	6739.01
478.282	6585.41
478.486	6622.28
478.691	6435.91
478.895	6317.13
479.1	6306.89
479.304	6366.28
479.509	6229.07
479.713	6362.19
479.918	6270.03
480.122	6159.44
480.326	6159.44
480.531	6202.44
480.735	6079.57
480.94	5989.46
481.144	6241.36
481.348	5928.02
481.553	6052.94
481.757	5784.66
481.961	6014.03
482.166	6124.62
482.37	6003.79
482.574	5866.58
482.778	5889.1
482.983	5979.22
483.187	5954.64
483.391	5930.06
483.595	5934.16
483.8	5733.46
484.004	5788.75
484.208	5971.02
484.412	5936.21
484.616	5989.46
484.821	5901.39
485.025	5798.99
485.229	5872.72
485.433	5747.79
485.637	5760.08
485.841	5823.57
486.045	5864.53
486.249	5811.28
486.453	5659.73
486.657	5956.69
486.861	5872.72
487.065	5842
487.269	5856.34
487.473	5700.69
487.677	5885.01
487.881	5921.87
488.085	5868.63
488.289	6011.98
488.493	5778.51
488.697	6054.99
488.901	5923.92
489.105	5923.92
489.309	5911.63
489.512	5962.83
489.716	5915.73
489.92	6024.27
490.124	5823.57
490.328	6061.13
490.531	5907.54
490.735	6145.1
490.939	6057.04
491.143	6014.03
491.346	5905.49
491.55	6085.71
491.754	6079.57
491.958	6274.12
492.161	6030.41
492.365	6089.81
492.569	6292.55
492.772	6147.15
492.976	6306.89
493.18	6130.77
493.383	6259.79
493.587	6394.95
493.79	6544.45
493.994	6327.37
494.197	6296.65
494.401	6585.41
494.605	6446.15
494.808	6683.72
495.012	6767.68
495.215	6677.57
495.419	6870.08
495.622	6554.69
495.825	6917.19
496.029	6822.98
496.232	6982.72
496.436	6970.43
496.639	7126.08
496.843	7107.65
497.046	7322.68
497.249	7183.42
497.453	7367.74
497.656	7289.92
497.859	7445.56
498.063	7490.62
498.266	7650.36
498.469	7507
498.673	7719.99
498.876	7949.36
499.079	7777.33
499.282	7932.98
499.485	8066.1
499.689	8191.02
499.892	8193.07
500.095	8057.9
500.298	8447.02
500.501	8297.52
500.705	8461.35
500.908	8772.64
501.111	8682.53
501.314	8909.86
501.517	8920.1
501.72	9083.94
501.923	8877.09
502.126	9126.94
502.329	9573.4
502.532	9407.52
502.735	9427.99
502.938	9550.87
503.141	9546.78
503.344	9774.1
503.547	9665.56
503.75	9944.08
503.953	10232.85
504.156	10259.47
504.359	10433.55
504.562	10370.06
504.765	10585.1
504.968	10548.23
505.17	10806.28
505.373	10730.5
505.576	11115.52
505.779	10845.19
505.982	11056.13
506.185	11604.99
506.387	11305.98
506.59	11516.92
506.793	11953.14
506.996	11621.37
507.198	12168.18
507.401	11983.86
507.604	12182.51
507.807	12428.27
508.009	12561.39
508.212	12698.6
508.415	12864.49
508.617	12913.64
508.82	12819.43
509.022	12737.51
509.225	13302.75
509.428	13304.8
509.63	13337.57
509.833	13851.61
510.035	14009.3
510.238	14062.55
510.44	13933.53
510.643	14199.76
510.845	14412.75
511.048	14330.83
511.25	14425.04
511.453	14740.43
511.655	14961.61
511.858	14889.93
512.06	14760.91
512.262	15125.44
512.465	15188.93
512.667	15817.66
512.87	15643.58
513.072	15899.58
513.274	16333.75
513.477	16382.9
513.679	16389.04
513.881	16714.67
514.084	16921.51
514.286	16427.95
514.488	17218.47
514.69	17062.82
514.893	17173.41
515.095	17300.39
515.297	17513.38
515.499	17601.44
515.701	18043.8
515.904	17953.69
516.106	18168.73
516.308	18742.16
516.51	18508.69
516.712	18543.5
516.914	18750.35
517.116	19090.31
517.318	19123.08
517.52	19295.11
517.722	19360.64
517.925	19917.69
518.127	19839.87
518.329	20126.58
518.531	19979.13
518.733	20634.48
518.935	20652.91
519.136	20861.8
519.338	20745.07
519.54	21171.05
519.742	21244.77
519.944	21197.67
520.146	21697.38
520.348	21654.37
520.55	21855.07
520.752	21848.93
520.954	22283.09
521.155	22182.74
521.357	22682.45
521.559	22653.78
521.761	23153.48
521.963	23237.45
522.164	23403.33
522.366	23505.73
522.568	23696.19
522.77	23569.22
522.971	24132.41
523.173	23778.11
523.375	24130.36
523.576	24068.92
523.778	24308.54
523.98	24642.35
524.181	24681.27
524.383	24767.28
524.584	25117.48
524.786	25070.38
524.988	25125.68
525.189	25318.18
525.391	25543.46
525.592	25781.03
525.794	25654.05
525.995	25492.26
526.197	25631.52
526.398	25819.94
526.6	26274.59
526.801	26258.2
527.003	26540.82
527.204	26825.49
527.406	26579.73
527.607	26675.99
527.808	26647.32
528.01	26546.97
528.211	26837.78
528.412	27360.01
528.614	27190.03
528.815	27054.86
529.016	27472.65
529.218	27210.51
529.419	27411.21
529.62	27597.57
529.822	27253.51
530.023	27513.61
530.224	27847.43
530.425	27577.09
530.626	27456.26
530.828	27364.11
531.029	28080.89
531.23	27673.35
531.431	27761.41
531.632	28181.24
531.833	27892.48
532.035	27933.44
532.236	27663.11
532.437	28074.75
532.638	27833.09
532.839	28338.94
533.04	28531.45
533.241	27919.1
533.442	28265.21
533.643	28508.92
533.844	28351.23
534.045	28322.55
534.246	27853.57
534.447	28381.95
534.648	28334.84
534.849	28226.3
535.05	28007.17
535.251	28408.57
535.451	28234.49
535.652	28250.88
535.853	28439.29
536.054	28125.95
536.255	28523.26
536.456	28082.94
536.657	28558.07
536.857	28228.35
537.058	28422.9
537.259	28508.92
537.46	28271.36
537.66	28347.13
537.861	28392.19
538.062	28386.04
538.263	28683
538.463	28150.53
538.664	28189.44
538.865	27910.91
539.065	28228.35
539.266	28488.44
539.466	28521.21
539.667	28242.68
539.868	28658.42
540.068	28576.5
540.269	28224.25
540.469	28701.43
540.67	28105.47
540.87	28422.9
541.071	28457.72
541.271	28517.11
541.472	28650.23
541.672	28347.13
541.873	28588.79
542.073	28082.94
542.274	28459.77
542.474	28134.14
542.675	28277.5
542.875	28691.19
543.075	28248.83
543.276	27980.54
543.476	28427
543.676	27777.79
543.877	28519.16
544.077	28277.5
544.277	28386.04
544.478	28054.27
544.678	28492.54
544.878	28457.72
545.078	28216.06
545.279	27990.78
545.479	28056.32
545.679	28289.79
545.879	27990.78
546.079	28236.54
546.28	28132.09
546.48	27763.46
546.68	28642.04
546.88	28185.34
547.08	28132.09
547.28	28183.29
547.48	27947.78
547.68	28107.52
547.88	27810.56
548.081	27996.93
548.281	27880.19
548.481	28050.17
548.681	28314.36
548.881	27863.81
549.081	28025.6
549.28	27607.81
549.48	28105.47
549.68	27927.3
549.88	28199.68
550.08	28033.79
550.28	27972.35
550.48	27798.27
550.68	28115.71
550.88	27986.69
551.08	28078.85
551.279	28048.13
551.479	27568.9
551.679	27814.66
551.879	27874.05
552.079	27900.67
552.278	27882.24
552.478	27958.02
552.678	27773.7
552.878	28062.46
553.077	27493.13
553.277	27636.48
553.477	28273.4
553.676	27796.23
553.876	27874.05
554.076	27927.3
554.275	27435.78
554.475	27282.19
554.674	27390.73
554.874	27671.3
555.074	27607.81
555.273	27648.77
555.473	27593.48
555.672	27724.55
555.872	27740.93
556.071	27781.89
556.271	27687.68
556.47	27581.19
556.67	27321.1
556.869	27349.77
557.068	27337.48
557.268	27208.46
557.467	27292.43
557.667	27452.17
557.866	26895.12
558.065	27394.82
558.265	27286.28
558.464	27108.11
558.663	27634.44
558.863	26938.13
559.062	27122.44
559.261	26637.08
559.461	26807.06
559.66	26594.07
559.859	26925.84
560.058	26800.91
560.258	26766.1
560.457	26415.9
560.656	26952.46
560.855	26596.12
561.054	26762
561.253	26458.9
561.453	26819.35
561.652	26680.08
561.851	26843.92
562.05	26479.38
562.249	26264.35
562.448	26522.39
562.647	26364.7
562.846	26362.65
563.045	26297.11
563.244	25922.34
563.443	26241.82
563.642	25951.01
563.841	25770.79
564.04	25813.79
564.239	25967.39
564.438	25955.1
564.637	25887.52
564.836	25836.32
565.035	25361.19
565.234	25611.04
565.432	25443.11
565.631	25574.18
565.83	25695.01
566.029	25373.48
566.228	25002.8
566.427	24804.14
566.625	25174.83
566.824	24892.21
567.023	25643.81
567.222	24730.42
567.42	25381.67
567.619	24869.68
567.818	24865.58
568.016	24884.01
568.215	25021.23
568.414	24738.61
568.612	25037.61
568.811	24699.7
569.01	24619.83
569.208	24546.1
569.407	24492.85
569.605	24326.97
569.804	24410.93
570.002	23882.56
570.201	24451.89
570.4	24089.4
570.598	23681.86
570.797	24156.99
570.995	24085.31
571.193	23868.22
571.392	24154.94
571.59	23624.51
571.789	23550.79
571.987	23323.46
572.186	23837.5
572.384	23235.4
572.582	23765.82
572.781	23640.9
572.979	23186.25
573.177	23413.57
573.376	23513.92
573.574	23061.32
573.772	23096.14
573.971	22922.06
574.169	23192.39
574.367	22881.1
574.565	23065.42
574.763	22944.59
574.962	23161.67
575.16	22383.45
575.358	22877.01
575.556	22387.54
575.754	22842.19
575.952	22125.4
576.151	22375.25
576.349	22381.4
576.547	22344.53
576.745	22203.22
576.943	22430.55
577.141	22264.66
577.339	21844.83
577.537	21705.57
577.735	21578.59
577.933	21859.17
578.131	21818.21
578.329	21627.74
578.527	21666.66
578.725	21805.92
578.923	21486.43
579.121	21525.35
579.319	21379.94
579.516	21308.26
579.714	21453.67
579.912	21298.02
580.11	21160.81
580.308	21244.77
580.506	21185.38
580.704	20917.1
580.901	21132.14
581.099	21371.75
581.297	20913
581.495	20931.44
581.692	20738.93
581.89	20620.14
582.088	21046.12
582.285	20454.26
582.483	20773.74
582.681	20300.66
582.878	20222.84
583.076	20147.06
583.274	20378.48
583.471	19848.06
583.669	20091.77
583.866	19975.03
584.064	20288.37
584.262	19864.44
584.459	19985.27
584.657	20034.42
584.854	20251.51
585.052	19809.15
585.249	19833.72
585.447	19835.77
585.644	19760
585.841	19714.94
586.039	20013.95
586.236	19211.14
586.434	19401.6
586.631	19452.8
586.828	19618.69
587.026	19256.2
587.223	19428.23
587.42	19331.97
587.618	19168.13
587.815	18844.56
588.012	18971.53
588.21	18918.28
588.407	19366.79
588.604	19227.53
588.801	18772.88
588.999	18928.52
589.196	18594.7
589.393	18600.85
589.59	18387.86
589.787	18293.65
589.984	18656.14
590.182	18545.55
590.379	18555.79
590.576	18119.57
590.773	18307.99
590.97	18039.7
591.167	18152.34
591.364	18224.02
591.561	18004.89
591.758	17951.64
591.955	17974.17
592.152	17970.07
592.349	17578.91
592.546	17873.82
592.743	17669.02
592.94	17615.77
593.137	17378.21
593.334	17771.42
593.531	17472.42
593.727	17347.49
593.924	17447.84
594.121	17210.28
594.318	17460.13
594.515	17169.32
594.712	17390.5
594.908	17259.43
595.105	17021.86
595.302	17118.12
595.499	17234.85
595.696	17105.83
595.892	16835.5
596.089	16933.8
596.286	16985
596.482	16692.14
596.679	16522.16
596.876	16657.32
597.072	16602.03
597.269	16593.84
597.466	16552.88
597.662	16253.87
597.859	16217.01
598.055	16370.61
598.252	16368.56
598.448	16272.31
598.645	16241.59
598.841	15965.11
599.038	16104.37
599.234	16126.9
599.431	16065.46
599.627	15856.57
599.824	15969.21
600.02	15883.19
600.217	15969.21
600.413	15864.76
600.609	15956.92
600.806	15610.81
601.002	15586.24
601.198	15508.41
601.395	15522.75
601.591	15539.13
601.787	15459.26
601.984	15438.78
602.18	15461.31
602.376	15432.64
602.572	15295.43
602.769	15150.02
602.965	15012.81
603.161	15174.6
603.357	14961.61
603.553	14889.93
603.75	15209.41
603.946	14681.03
604.142	15000.52
604.338	14685.13
604.534	14822.34
604.73	14615.5
604.926	14582.73
605.122	14846.92
605.318	14463.95
605.514	14664.65
605.71	14316.5
605.906	14623.69
606.102	14453.71
606.298	14509.01
606.494	14498.77
606.69	14404.56
606.886	14109.65
607.082	14320.59
607.278	14152.66
607.474	14080.98
607.67	14160.85
607.866	13882.33
608.062	14085.08
608.257	13974.49
608.453	14113.75
608.649	13831.13
608.845	13911
609.041	13777.88
609.236	13759.45
609.432	13870.04
609.628	13917.14
609.824	13695.96
610.019	13614.04
610.215	13962.2
610.411	13771.74
610.606	13638.62
610.802	13724.63
610.998	13624.28
611.193	13364.19
611.389	13417.44
611.584	13462.49
611.78	13237.22
611.976	13472.73
612.171	13335.52
612.367	13564.89
612.562	13358.05
612.758	13163.49
612.953	13302.75
613.149	13478.88
613.344	13089.76
613.539	13130.72
613.735	12944.36
613.93	13069.28
614.126	13321.18
614.321	13396.96
614.517	13081.57
614.712	12807.14
614.907	13063.14
615.103	13233.12
615.298	13044.71
615.493	13095.91
615.688	12862.44
615.884	13124.58
616.079	12631.02
616.274	12852.2
616.47	12778.47
616.665	12903.4
616.86	12690.41
617.055	12766.18
617.25	12583.91
617.445	12739.56
617.641	12688.36
617.836	12747.75
618.031	12399.6
618.226	12598.25
618.421	12452.84
618.616	12671.98
618.811	12282.86
619.006	12504.04
619.201	12106.74
619.396	12299.25
619.591	12073.97
619.786	12284.91
619.981	12184.56
620.176	12291.06
620.371	11813.88
620.566	12024.82
620.761	11832.31
620.956	11889.65
621.151	11752.44
621.346	11760.63
621.541	11877.37
621.735	11678.71
621.93	11564.03
622.125	11555.83
622.32	11387.9
622.515	11557.88
622.709	11187.2
622.904	11262.97
623.099	11346.94
623.294	11258.88
623.488	11254.78
623.683	11199.49
623.878	10843.14
624.072	11189.25
624.267	10755.08
624.462	10757.13
624.656	10583.05
624.851	10859.52
625.046	10619.91
625.24	10599.43
625.435	10609.67
625.629	10576.91
625.824	10566.67
626.018	10484.75
626.213	9958.42
626.407	10001.43
626.602	10050.58
626.796	10157.07
626.991	10198.03
627.185	9956.37
627.38	9970.71
627.574	9640.98
627.768	10019.86
627.963	9925.65
628.157	9509.91
628.352	9741.33
628.546	9495.58
628.74	9557.02
628.935	9446.43
629.129	9546.78
629.323	9460.76
629.517	9329.69
629.712	9335.84
629.906	9227.29
630.1	9215.01
630.294	9241.63
630.489	9077.79
630.683	9124.9
630.877	8922.15
631.071	8811.56
631.265	9042.98
631.459	8963.11
631.653	8870.95
631.848	8829.99
632.042	8760.36
632.236	8819.75
632.43	8625.19
632.624	8705.06
632.818	8799.27
633.012	8487.98
633.206	8444.97
633.4	8555.56
633.594	8412.2
633.788	8537.13
633.982	8315.95
634.176	8231.98
634.369	8199.21
634.563	8332.33
634.757	8178.73
634.951	8305.71
635.145	8100.91
635.339	8125.49
635.533	7871.54
635.726	7900.21
635.92	7947.31
636.114	7894.07
636.308	7887.92
636.501	7885.87
636.695	7834.68
636.889	7775.28
637.083	7793.72
637.276	7547.96
637.47	7674.93
637.664	7554.1
637.857	7564.34
638.051	7568.44
638.244	7375.93
638.438	7400.51
638.632	7306.3
638.825	7259.2
639.019	7371.83
639.212	7087.17
639.406	7087.17
639.599	7035.97
639.793	7070.78
639.986	6937.66
640.18	7093.31
640.373	7064.64
640.567	6892.61
640.76	6890.56
640.954	6792.26
641.147	6751.3
641.34	6888.51
641.534	6882.37
641.727	6734.92
641.92	6634.57
642.114	6569.03
642.307	6577.22
642.5	6577.22
642.694	6333.51
642.887	6493.26
643.08	6458.44
643.273	6569.03
643.467	6415.43
643.66	6227.02
643.853	6167.63
644.046	6288.46
644.239	6310.99
644.432	6282.31
644.626	6116.43
644.819	6159.44
645.012	6143.05
645.205	6003.79
645.398	6167.63
645.591	5973.07
645.784	6087.76
645.977	6134.86
646.17	6042.7
646.363	5803.09
646.556	5782.61
646.749	5868.63
646.942	5979.22
647.135	5645.4
647.328	5684.31
647.521	5651.54
647.714	5633.11
647.907	5626.96
648.099	5739.6
648.292	5571.67
648.485	5610.58
648.678	5510.23
648.871	5456.98
649.064	5344.35
649.256	5422.17
649.449	5368.92
649.642	5258.33
649.835	5205.08
650.027	5405.78
650.22	5266.52
650.413	5323.87
650.605	5086.3
650.798	5231.71
650.991	5233.75
651.183	5051.49
651.376	5037.15
651.568	5135.45
651.761	4973.66
651.954	5104.73
652.146	4981.85
652.339	5069.92
652.531	4910.18
652.724	4967.52
652.916	4834.4
653.109	4949.09
653.301	4852.83
653.494	4932.7
653.686	4717.67
653.879	4809.83
654.071	4707.43
654.263	4666.47
654.456	4668.52
654.648	4713.57
654.84	4627.56
655.033	4703.33
655.225	4703.33
655.417	4568.16
655.61	4613.22
655.802	4600.93
655.994	4488.29
656.186	4488.29
656.379	4553.83
656.571	4410.47
656.763	4453.48
656.955	4332.65
657.148	4385.9
657.34	4433
657.532	4283.5
657.724	4224.11
657.916	4246.63
658.108	4258.92
658.3	4250.73
658.492	4193.39
658.684	4226.15
658.876	4236.39
659.068	4205.67
659.26	4056.17
659.452	4164.72
659.644	4064.36
659.836	4138.09
660.028	4095.08
660.22	3884.14
660.412	3923.05
660.604	3980.4
660.796	3959.92
660.988	3884.14
661.18	3871.86
661.372	3873.9
661.563	3847.28
661.755	3808.37
661.947	3820.66
662.139	3812.46
662.331	3720.31
662.522	3800.18
662.714	3783.79
662.906	3683.44
663.097	3722.35
663.289	3554.42
663.481	3693.68
663.673	3683.44
663.864	3662.96
664.056	3419.25
664.247	3511.41
664.439	3406.97
664.631	3587.19
664.822	3624.05
665.014	3570.8
665.205	3484.79
665.397	3445.88
665.588	3488.89
665.78	3554.42
665.971	3472.5
666.163	3406.97
666.354	3351.67
666.546	3292.28
666.737	3363.96
666.929	3320.95
667.12	3435.64
667.311	3449.97
667.503	3284.09
667.694	3374.2
667.885	3384.44
668.077	3318.9
668.268	3214.46
668.459	3202.17
668.651	3200.12
668.842	3355.77
669.033	3239.03
669.224	3089.53
669.416	3103.87
669.607	3112.06
669.798	3083.39
669.989	3224.7
670.18	3056.76
670.371	3155.07
670.563	3101.82
670.754	3169.4
670.945	3050.62
671.136	3091.58
671.327	2919.55
671.518	3003.52
671.709	3001.47
671.9	2927.74
672.091	2980.99
672.282	2983.04
672.473	2892.93
672.664	3028.09
672.855	2954.37
673.046	2899.07
673.237	3021.95
673.428	2878.59
673.619	2913.41
673.809	2784.38
674	2829.44
674.191	2808.96
674.382	2753.66
674.573	2849.92
674.764	2727.04
674.954	2958.46
675.145	2714.75
675.336	2786.43
675.527	2811.01
675.717	2823.3
675.908	2677.89
676.099	2837.63
676.289	2800.77
676.48	2722.95
676.671	2731.14
676.861	2600.07
677.052	2595.97
677.243	2675.84
677.433	2743.42
677.624	2741.38
677.814	2694.27
678.005	2688.13
678.195	2638.98
678.386	2686.08
678.576	2608.26
678.767	2653.31
678.957	2698.37
679.148	2632.83
679.338	2571.4
679.529	2661.51
679.719	2612.35
679.909	2690.18
680.1	2571.4
680.29	2524.29
680.481	2649.22
680.671	2595.97
680.861	2632.83
681.052	2655.36
681.242	2466.95
681.432	2694.27
681.622	2532.48
681.813	2608.26
682.003	2505.86
682.193	2497.67
682.383	2581.64
682.573	2462.85
682.764	2419.85
682.954	2575.49
683.144	2524.29
683.334	2450.57
683.524	2432.13
683.714	2458.76
683.904	2485.38
684.094	2469
684.284	2450.57
684.474	2509.96
684.664	2530.44
684.854	2489.48
685.044	2358.41
685.234	2399.37
685.424	2348.17
685.614	2352.26
685.804	2354.31
685.994	2438.28
686.184	2393.22
686.374	2346.12
686.564	2409.61
686.753	2374.79
686.943	2335.88
687.133	2280.58
687.323	2358.41
687.513	2374.79
687.702	2348.17
687.892	2352.26
688.082	2260.1
688.272	2337.93
688.461	2339.97
688.651	2264.2
688.841	2276.49
689.03	2317.45
689.22	2294.92
689.41	2270.34
689.599	2260.1
689.789	2299.02
689.979	2094.22
690.168	2225.29
690.358	2264.2
690.547	2188.43
690.737	2157.71
690.926	2202.76
691.116	2120.84
691.305	2118.79
691.495	2157.71
691.684	2176.14
691.874	2061.45
692.063	2133.13
692.252	2086.03
692.442	2049.16
692.631	2030.73
692.82	2206.86
693.01	2145.42
693.199	2088.07
693.388	1957
693.578	2131.08
693.767	2110.6
693.956	2135.18
694.146	2000.01
694.335	1891.47
694.524	1957
694.713	1948.81
694.902	2071.69
695.092	1922.19
695.281	1920.14
695.47	2024.59
695.659	1891.47
695.848	1803.41
696.037	1934.48
696.226	1907.85
696.415	1940.62
696.604	1957
696.793	1975.44
696.982	1967.24
697.171	1932.43
697.36	1875.09
697.549	2030.73
697.738	1907.85
697.927	1846.41
698.116	1815.69
698.305	1942.67
698.494	1813.65
698.683	1883.28
698.872	1895.57
699.061	1875.09
699.25	1891.47
699.438	1866.89
699.627	1909.9
699.816	1809.55
700.005	1864.85
700.193	1803.41
700.382	1942.67
700.571	1844.37
700.76	1887.37
700.948	1895.57
701.137	1858.7
701.326	1789.07
701.514	1842.32
701.703	1866.89
701.892	1758.35
702.08	1893.52
702.269	1715.34
702.457	1817.74
702.646	1821.84
702.834	1832.08
703.023	1823.89
703.212	1909.9
703.4	1916.05
703.589	1807.5
703.777	1875.09
703.965	1926.29
704.154	1875.09
704.342	1825.93
704.531	1799.31
704.719	1809.55
704.907	1895.57
705.096	1764.5
705.284	1846.41
705.472	1799.31
705.661	1774.74
705.849	1862.8
706.037	1862.8
706.226	1780.88
706.414	1911.95
706.602	1885.33
706.79	1916.05
706.979	1799.31
707.167	1866.89
707.355	1858.7
707.543	1881.23
707.731	1942.67
707.919	1827.98
708.107	1784.98
708.296	1891.47
708.484	1907.85
708.672	1942.67
708.86	1850.51
709.048	1770.64
709.236	1825.93
709.424	1821.84
709.612	1768.59
709.8	1842.32
709.988	1797.26
710.176	1780.88
710.364	1866.89
710.551	1811.6
710.739	1782.93
710.927	1838.22
711.115	1891.47
711.303	1799.31
711.491	1811.6
711.679	1866.89
711.866	1836.17
712.054	1868.94
712.242	1764.5
712.43	1819.79
712.617	1774.74
712.805	1893.52
712.993	1770.64
713.181	1899.66
713.368	1754.26
713.556	1791.12
713.744	1764.5
713.931	1852.56
714.119	1936.53
714.306	1901.71
714.494	1817.74
714.682	1787.02
714.869	1770.64
715.057	1770.64
715.244	1854.61
715.432	1825.93
715.619	1916.05
715.807	1875.09
715.994	1860.75
716.182	1891.47
716.369	1932.43
716.556	1799.31
716.744	1780.88
716.931	1805.46
717.119	1948.81
717.306	1903.76
717.493	1885.33
717.681	1901.71
717.868	1801.36
718.055	1854.61
718.242	1897.61
718.43	1918.09
718.617	1887.37
718.804	1860.75
718.991	1840.27
719.179	1883.28
719.366	1899.66
719.553	1889.42
719.74	1957
719.927	1891.47
720.114	1858.7
720.301	1850.51
720.488	1842.32
720.676	1754.26
720.863	1918.09
721.05	1825.93
721.237	1875.09
721.424	1858.7
721.611	1870.99
721.798	1784.98
721.985	1811.6
722.172	1809.55
722.358	1834.13
722.545	1801.36
722.732	1889.42
722.919	1957
723.106	1852.56
723.293	1825.93
723.48	1864.85
723.667	1766.54
723.853	1883.28
724.04	1969.29
724.227	1895.57
724.414	1866.89
724.6	1916.05
724.787	1924.24
724.974	1799.31
725.161	1801.36
725.347	1807.5
725.534	1883.28
725.72	1825.93
725.907	1838.22
726.094	1916.05
726.28	1838.22
726.467	1842.32
726.653	1877.13
726.84	1940.62
727.027	1944.72
727.213	1844.37
727.4	1854.61
727.586	1932.43
727.773	1879.18
727.959	1991.82
728.145	1916.05
728.332	1924.24
728.518	1838.22
728.705	1907.85
728.891	1957
729.077	1846.41
729.264	1784.98
729.45	1920.14
729.636	1877.13
729.823	1866.89
730.009	1959.05
730.195	1907.85
730.382	1827.98
730.568	1844.37
730.754	1952.91
730.94	1899.66
731.126	1944.72
731.313	1834.13
731.499	1879.18
731.685	1936.53
731.871	1870.99
732.057	1891.47
732.243	1850.51
732.429	1875.09
732.615	1967.24
732.801	1932.43
732.987	1989.77
733.173	1848.46
733.359	2000.01
733.545	1844.37
733.731	1877.13
733.917	1809.55
734.103	1846.41
734.289	1950.86
734.475	1832.08
734.661	1963.15
734.847	1977.48
735.033	1899.66
735.219	1911.95
735.404	1918.09
735.59	1868.94
735.776	1926.29
735.962	1842.32
736.148	1950.86
736.333	1957
736.519	1952.91
736.705	1821.84
736.89	1866.89
737.076	1801.36
737.262	1758.35
737.447	1883.28
737.633	1959.05
737.819	1860.75
738.004	1973.39
738.19	1907.85
738.375	1875.09
738.561	1817.74
738.747	1842.32
738.932	1848.46
739.118	1911.95
739.303	1768.59
739.489	1838.22
739.674	1838.22
739.859	1760.4
740.045	1897.61
740.23	1789.07
740.416	1760.4
740.601	1834.13
740.786	1954.96
740.972	1698.96
741.157	1744.02
741.342	1770.64
741.528	1735.82
741.713	1725.58
741.898	1817.74
742.084	1703.06
742.269	1834.13
742.454	1735.82
742.639	1801.36
742.824	1721.49
743.01	1762.45
743.195	1688.72
743.38	1729.68
743.565	1772.69
743.75	1694.86
743.935	1676.43
744.12	1647.76
744.305	1711.25
744.49	1719.44
744.675	1672.34
744.86	1688.72
745.045	1569.94
745.23	1606.8
745.415	1670.29
745.6	1539.22
745.785	1629.33
745.97	1590.42
746.155	1694.86
746.34	1668.24
746.525	1606.8
746.71	1631.38
746.895	1633.43
747.079	1537.17
747.264	1621.14
747.449	1600.66
747.634	1662.1
747.819	1500.31
748.003	1551.51
748.188	1524.88
748.373	1467.54
748.557	1539.22
748.742	1442.96
748.927	1555.6
749.111	1555.6
749.296	1477.78
749.481	1588.37
749.665	1424.53
749.85	1420.44
750.034	1328.28
750.219	1500.31
750.404	1436.82
750.588	1399.96
750.773	1303.7
750.957	1359
751.141	1399.96
751.326	1457.3
751.51	1379.48
751.695	1336.47
751.879	1311.89
752.064	1399.96
752.248	1346.71
752.432	1422.48
752.617	1342.61
752.801	1424.53
752.985	1315.99
753.17	1262.74
753.354	1287.32
753.538	1295.51
753.722	1318.04
753.907	1148.06
754.091	1268.89
754.275	1236.12
754.459	1191.06
754.643	1318.04
754.828	1363.09
755.012	1262.74
755.196	1158.3
755.38	1129.63
755.564	1113.24
755.748	1176.73
755.932	1252.5
756.116	1096.86
756.3	1131.67
756.484	1117.34
756.668	1082.52
756.852	1084.57
757.036	1105.05
757.22	1105.05
757.404	1043.61
757.588	1129.63
757.772	1137.82
757.956	1180.82
758.14	1076.38
758.323	1105.05
758.507	1070.23
758.691	941.21
758.875	1094.81
759.059	1004.7
759.242	1059.99
759.426	1010.84
759.61	1049.75
759.794	1039.51
759.977	1008.8
760.161	1047.71
760.345	1139.87
760.528	1076.38
760.712	1000.6
760.895	914.59
761.079	1025.18
761.263	1055.9
761.446	1025.18
761.63	937.12
761.813	898.2
761.997	885.92
762.18	994.46
762.364	924.83
762.547	875.68
762.731	947.36
762.914	965.79
763.098	894.11
763.281	896.16
763.464	1006.75
763.648	910.49
763.831	916.64
764.015	859.29
764.198	959.64
764.381	949.4
764.564	863.39
764.748	953.5
764.931	914.59
765.114	842.91
765.297	930.97
765.481	890.01
765.664	785.57
765.847	906.4
766.03	879.77
766.213	787.61
766.397	818.33
766.58	875.68
766.763	947.36
766.946	812.19
767.129	851.1
767.312	826.53
767.495	867.49
767.678	806.05
767.861	818.33
768.044	724.13
768.227	801.95
768.41	746.66
768.593	847.01
768.776	777.37
768.959	789.66
769.142	892.06
769.324	832.67
769.507	715.94
769.69	918.68
769.873	777.37
770.056	812.19
770.239	822.43
770.421	730.27
770.604	789.66
770.787	736.42
770.97	806.05
771.152	744.61
771.335	834.72
771.518	785.57
771.7	666.78
771.883	918.68
772.066	769.18
772.248	769.18
772.431	777.37
772.613	681.12
772.796	660.64
772.978	713.89
773.161	736.42
773.343	738.46
773.526	670.88
773.708	689.31
773.891	634.02
774.073	703.65
774.256	642.21
774.438	701.6
774.621	666.78
774.803	732.32
774.985	640.16
775.168	697.5
775.35	597.15
775.532	613.54
775.715	541.86
775.897	617.63
776.079	638.11
776.261	597.15
776.444	609.44
776.626	609.44
776.808	572.58
776.99	679.07
777.173	605.35
777.355	654.5
777.537	621.73
777.719	629.92
777.901	533.67
778.083	550.05
778.265	521.38
778.447	660.64
778.629	574.63
778.811	529.57
778.993	646.3
779.175	638.11
779.357	521.38
779.539	511.14
779.721	543.91
779.903	443.56
780.085	509.09
780.267	564.39
780.449	455.84
780.631	613.54
780.812	494.76
780.994	539.81
781.176	588.96
781.358	648.35
781.54	541.86
781.721	537.76
781.903	486.56
782.085	474.28
782.267	468.13
782.448	517.28
782.63	461.99
782.812	494.76
782.993	482.47
783.175	496.8
783.357	453.8
783.538	580.77
783.72	478.37
783.901	388.26
784.083	443.56
784.264	509.09
784.446	388.26
784.627	384.16
784.809	476.32
784.99	418.98
785.172	404.64
785.353	435.36
785.535	449.7
785.716	375.97
785.897	459.94
786.079	375.97
786.26	449.7
786.441	414.88
786.623	386.21
786.804	425.12
786.985	382.12
787.167	365.73
787.348	382.12
787.529	402.6
787.71	361.64
787.891	371.88
788.073	369.83
788.254	312.49
788.435	427.17
788.616	392.36
788.797	357.54
788.978	292.01
789.159	355.49
789.34	416.93
789.522	343.21
789.703	378.02
789.884	337.06
790.065	349.35
790.246	363.69
790.427	324.77
790.607	384.16
790.788	351.4
790.969	271.53
791.15	289.96
791.331	310.44
791.512	298.15
791.693	349.35
791.874	271.53
792.054	273.57
792.235	314.53
792.416	277.67
792.597	292.01
792.778	345.25
792.958	304.29
793.139	314.53
793.32	367.78
793.5	279.72
793.681	367.78
793.862	359.59
794.042	246.95
794.223	236.71
794.404	259.24
794.584	244.9
794.765	251.05
794.945	328.87
795.126	326.82
795.306	312.49
795.487	261.29
795.667	322.73
795.848	310.44
796.028	212.14
796.209	335.01
796.389	267.43
796.57	228.52
796.75	210.09
796.93	308.39
797.111	339.11
797.291	326.82
797.471	265.38
797.652	214.18
797.832	249
798.012	265.38
798.192	253.09
798.373	220.33
798.553	158.89
798.733	302.25
798.913	179.37
799.093	214.18
799.274	257.19
799.454	187.56
799.634	312.49
799.814	230.57
799.994	199.85
800.174	265.38
800.354	257.19
800.534	99.5
800.714	238.76
800.894	236.71
801.074	195.75
801.254	187.56
801.434	253.09
801.614	267.43
801.794	257.19
801.974	799.9
802.154	236.71
802.334	203.94
802.514	181.42
802.693	203.94
802.873	183.46
803.053	253.09
803.233	228.52
803.413	199.85
803.592	193.7
803.772	234.66
803.952	218.28
804.131	195.75
804.311	197.8
804.491	208.04
804.67	244.9
804.85	160.94
805.03	191.66
805.209	246.95
805.389	132.26
805.568	236.71
805.748	181.42
805.928	179.37
806.107	244.9
806.287	242.85
806.466	191.66
806.646	179.37
806.825	165.03
807.004	187.56
807.184	146.6
807.363	150.7
807.543	191.66
807.722	132.26
807.901	199.85
808.081	222.38
808.26	111.78
808.439	171.18
808.619	199.85
808.798	181.42
808.977	236.71
809.156	171.18
809.336	187.56
809.515	246.95
809.694	117.93
809.873	185.51
810.052	208.04
810.231	197.8
810.411	208.04
810.59	156.84
810.769	165.03
810.948	171.18
811.127	138.41
811.306	160.94
811.485	179.37
811.664	197.8
811.843	154.79
812.022	189.61
812.201	173.22
812.38	115.88
812.559	68.78
812.737	97.45
812.916	36.01
813.095	146.6
813.274	138.41
813.453	150.7
813.632	263.33
813.811	126.12
813.989	109.74
814.168	85.16
814.347	76.97
814.526	66.73
814.704	142.5
814.883	156.84
815.062	165.03
815.24	154.79
815.419	99.5
815.598	169.13
815.776	117.93
815.955	162.98
816.133	85.16
816.312	138.41
816.49	138.41
816.669	183.46
816.847	72.87
817.026	107.69
817.204	109.74
817.383	93.35
817.561	58.54
817.74	76.97
817.918	167.08
818.097	195.75
818.275	64.68
818.453	158.89
818.632	156.84
818.81	130.22
818.988	162.98
819.167	130.22
819.345	91.31
819.523	101.55
819.701	99.5
819.879	126.12
820.058	122.02
820.236	185.51
820.414	85.16
820.592	122.02
820.77	64.68
820.948	103.59
821.127	85.16
821.305	130.22
821.483	44.2
821.661	122.02
821.839	101.55
822.017	64.68
822.195	109.74
822.373	109.74
822.551	70.83
822.729	158.89
822.907	89.26
823.085	76.97
823.262	89.26
823.44	119.98
823.618	109.74
823.796	60.59
823.974	144.55
824.152	132.26
824.329	50.35
824.507	89.26
824.685	146.6
824.863	83.11
825.04	162.98
825.218	89.26
825.396	25.77
825.574	154.79
825.751	81.07
825.929	111.78
826.107	60.59
826.284	48.3
826.462	132.26
826.639	85.16
826.817	79.02
826.994	58.54
827.172	72.87
827.349	171.18
827.527	93.35
827.704	109.74
827.882	122.02
828.059	99.5
828.237	89.26
828.414	109.74
828.591	31.91
828.769	165.03
828.946	79.02
829.124	66.73
829.301	138.41
829.478	109.74
829.655	95.4
829.833	15.53
830.01	-4.95
830.187	81.07
830.364	-21.33
830.542	81.07
830.719	48.3
830.896	56.49
831.073	97.45
831.25	109.74
831.427	158.89
831.604	93.35
831.782	3.24
831.959	122.02
832.136	-31.57
832.313	76.97
832.49	33.96
832.667	1.19
832.844	89.26
833.021	97.45
833.198	81.07
833.374	83.11
833.551	33.96
833.728	134.31
833.905	122.02
834.082	56.49
834.259	97.45
834.436	124.07
834.612	50.35
834.789	64.68
834.966	40.11
835.143	81.07
835.319	97.45
835.496	81.07
835.673	85.16
835.85	124.07
836.026	48.3
836.203	89.26
836.38	66.73
836.556	134.31
836.733	44.2
836.909	113.83
837.086	56.49
837.262	42.15
837.439	101.55
837.616	-41.81
837.792	9.39
837.968	109.74
838.145	56.49
838.321	72.87
838.498	40.11
838.674	7.34
838.851	25.77
839.027	64.68
839.203	36.01
839.38	62.63
839.556	25.77
839.732	146.6
839.909	50.35
840.085	83.11
840.261	-25.43
840.437	93.35
840.614	36.01
840.79	97.45
840.966	81.07
841.142	7.34
841.318	7.34
841.494	81.07
841.671	-19.29
841.847	48.3
842.023	72.87
842.199	111.78
842.375	50.35
842.551	9.39
842.727	15.53
842.903	21.67
843.079	3.24
843.255	68.78
843.431	-21.33
843.607	31.91
843.783	-19.29
843.959	66.73
844.134	19.63
844.31	128.17
844.486	-21.33
844.662	58.54
844.838	21.67
845.013	74.92
845.189	91.31
845.365	13.48
845.541	46.25
845.716	31.91
845.892	58.54
846.068	42.15
846.244	-4.95
846.419	-39.76
846.595	-0.85
846.77	97.45
846.946	79.02
847.122	42.15
847.297	40.11
847.473	27.82
847.648	44.2
847.824	74.92
847.999	48.3
848.175	7.34
848.35	50.35
848.526	130.22
848.701	89.26
848.876	124.07
849.052	83.11
849.227	56.49
849.403	42.15
849.578	107.69
849.753	56.49
849.929	-0.85
850.104	-7
850.279	27.82
850.454	-33.62
850.63	33.96
850.805	64.68
850.98	56.49
851.155	-21.33
851.33	15.53
851.505	97.45
851.681	99.5
851.856	23.72
852.031	83.11
852.206	-33.62
852.381	21.67
852.556	42.15
852.731	33.96
852.906	17.58
853.081	76.97
853.256	83.11
853.431	36.01
853.606	7.34
853.781	15.53
853.956	-45.91
854.131	-9.05
854.305	-21.33
854.48	25.77
854.655	15.53
854.83	83.11
855.005	1.19
855.18	23.72
855.354	58.54
855.529	60.59
855.704	40.11
855.879	124.07
856.053	38.06
856.228	64.68
856.403	31.91
856.577	23.72
856.752	11.43
856.926	89.26
857.101	31.91
857.276	72.87
857.45	36.01
857.625	25.77
857.799	5.29
857.974	44.2
858.148	-76.63
858.323	38.06
858.497	-37.72
858.672	17.58
858.846	-13.14
859.02	-31.57
859.195	7.34
859.369	7.34
859.543	-7
859.718	27.82
859.892	48.3
860.066	50.35
860.241	15.53
860.415	3.24
860.589	40.11
860.763	-15.19
860.938	83.11
861.112	87.21
861.286	60.59
861.46	-31.57
861.634	-54.1
861.808	50.35
861.982	-11.09
862.157	-21.33
862.331	-21.33
862.505	40.11
862.679	-17.24
862.853	97.45
863.027	11.43
863.201	72.87
863.375	-82.77
863.549	29.87
863.722	40.11
863.896	105.64
864.07	-15.19
864.244	17.58
864.418	33.96
864.592	40.11
864.766	29.87
864.939	17.58
865.113	-56.15
865.287	89.26
865.461	-9.05
865.634	33.96
865.808	-4.95
865.982	62.63
866.156	-54.1
866.329	-9.05
866.503	-0.85
866.676	74.92
866.85	-9.05
867.024	9.39
867.197	31.91
867.371	33.96
867.544	1.19
867.718	-29.52
867.891	64.68
868.065	-39.76
868.238	-15.19
868.412	79.02
868.585	46.25
868.759	36.01
868.932	-33.62
869.105	76.97
869.279	17.58
869.452	74.92
869.625	56.49
869.799	25.77
869.972	70.83
870.145	-7
870.319	52.39
870.492	11.43
870.665	56.49
870.838	-29.52
871.011	11.43
871.185	-56.15
871.358	23.72
871.531	72.87
871.704	-25.43
871.877	-17.24
872.05	58.54
872.223	-9.05
872.396	44.2
872.569	40.11
872.742	-11.09
872.915	79.02
873.088	3.24
873.261	-0.85
873.434	-41.81
873.607	15.53
873.78	15.53
873.953	7.34
874.126	79.02
874.299	40.11
874.471	-56.15
874.644	-0.85
874.817	97.45
874.99	68.78
875.163	-31.57
875.335	64.68
875.508	58.54
875.681	-19.29
875.853	29.87
876.026	3.24
876.199	-13.14
876.371	40.11
876.544	-4.95
876.717	-54.1
876.889	81.07
877.062	44.2
877.234	-9.05
877.407	31.91
877.579	1.19
877.752	27.82
877.924	72.87
878.097	42.15
878.269	44.2
878.442	-4.95
878.614	-23.38
878.786	-19.29
878.959	31.91
879.131	13.48
879.303	33.96
879.476	21.67
879.648	23.72
879.82	-31.57
879.993	23.72
880.165	-13.14
880.337	50.35
880.509	-9.05
880.681	-41.81
880.854	-21.33
881.026	15.53
881.198	89.26
881.37	-17.24
881.542	50.35
881.714	-58.2
881.886	-29.52
882.058	-33.62
882.23	23.72
882.402	9.39
882.574	-62.29
882.746	44.2
882.918	48.3
883.09	-9.05
883.262	42.15
883.434	-41.81
883.606	-25.43
883.778	-4.95
883.95	72.87
884.122	-70.48
884.293	7.34
884.465	44.2
884.637	31.91
884.809	23.72
884.98	40.11
885.152	97.45
885.324	81.07
885.496	-4.95
885.667	-23.38
885.839	-7
886.011	60.59
886.182	31.91
886.354	109.74
886.525	52.39
886.697	15.53
886.869	-33.62
887.04	-29.52
887.212	48.3
887.383	103.59
887.555	52.39
887.726	-11.09
887.897	-13.14
888.069	40.11
888.24	11.43
888.412	40.11
888.583	-17.24
888.754	1.19
888.926	-62.29
889.097	-35.67
889.268	-84.82
889.44	-25.43
889.611	-33.62
889.782	64.68
889.953	23.72
890.125	27.82
890.296	-2.9
890.467	31.91
890.638	48.3
890.809	-7
890.98	-15.19
891.151	52.39
891.323	21.67
891.494	1.19
891.665	25.77
891.836	-47.96
892.007	56.49
892.178	-37.72
892.349	21.67
892.52	-15.19
892.691	15.53
892.862	-17.24
893.032	-45.91
893.203	40.11
893.374	1.19
893.545	1.19
893.716	-25.43
893.887	-33.62
894.057	-15.19
894.228	42.15
894.399	-4.95
894.57	-15.19
894.74	9.39
894.911	-0.85
895.082	-9.05
895.253	15.53
895.423	-0.85
895.594	31.91
895.764	-2.9
895.935	56.49
896.106	-21.33
896.276	-15.19
896.447	-17.24
896.617	-25.43
896.788	-27.48
896.958	58.54
897.129	-13.14
897.299	66.73
897.47	23.72
897.64	1.19
897.81	-4.95
897.981	-4.95
898.151	44.2
898.322	-17.24
898.492	44.2
898.662	-11.09
898.832	-0.85
899.003	-0.85
899.173	23.72
899.343	44.2
899.513	7.34
