Data from USB4F104151__179__14-45-04-593.txt Node

Date: Thu Mar 13 14:45:04 EDT 2025
User: louis
Spectrometer: USB4F10415
Trigger mode: 4
Integration Time (sec): 2.000000E-2
Scans to average: 1
Electric dark correction enabled: true
Nonlinearity correction enabled: false
Boxcar width: 0
XAxis mode: Wavelengths
Number of Pixels in Spectrum: 3648
>>>>>Begin Spectral Data<<<<<
178.204	-130.39
178.424	-130.39
178.644	-130.39
178.864	-111.96
179.084	-91.48
179.304	27.31
179.524	-21.84
179.744	-64.85
179.964	15.02
180.184	23.21
180.404	15.02
180.624	4.78
180.844	-17.75
181.064	-46.42
181.283	-9.56
181.503	2.73
181.723	72.36
181.943	-99.67
182.163	39.59
182.383	10.92
182.602	-17.75
182.822	8.87
183.042	0.68
183.262	0.68
183.482	49.83
183.701	-23.89
183.921	-1.37
184.141	-23.89
184.361	49.83
184.58	17.07
184.8	-25.94
185.02	19.11
185.239	137.9
185.459	-23.89
185.679	-17.75
185.898	-17.75
186.118	29.35
186.338	6.83
186.557	-15.7
186.777	-42.32
186.997	-9.56
187.216	-68.95
187.436	107.18
187.655	6.83
187.875	12.97
188.095	29.35
188.314	58.03
188.534	39.59
188.753	-36.18
188.973	51.88
189.192	15.02
189.412	-17.75
189.631	74.41
189.851	-1.37
190.07	23.21
190.29	31.4
190.509	31.4
190.729	-40.28
190.948	10.92
191.168	121.51
191.387	19.11
191.607	19.11
191.826	58.03
192.045	66.22
192.265	47.79
192.484	-13.65
192.704	15.02
192.923	-75.09
193.142	98.99
193.362	-9.56
193.581	17.07
193.8	6.83
194.02	43.69
194.239	-36.18
194.458	43.69
194.678	-66.9
194.897	-3.41
195.116	15.02
195.335	6.83
195.555	74.41
195.774	76.46
195.993	41.64
196.212	12.97
196.432	-13.65
196.651	-9.56
196.87	68.27
197.089	45.74
197.308	39.59
197.528	12.97
197.747	-9.56
197.966	-60.76
198.185	72.36
198.404	-27.99
198.623	41.64
198.842	76.46
199.062	-3.41
199.281	15.02
199.5	2.73
199.719	15.02
199.938	51.88
200.157	10.92
200.376	39.59
200.595	51.88
200.814	10.92
201.033	-54.61
201.252	23.21
201.471	60.07
201.69	25.26
201.909	15.02
202.128	23.21
202.347	80.55
202.566	-46.42
202.785	-50.52
203.004	-62.8
203.223	109.23
203.442	15.02
203.661	6.83
203.879	33.45
204.098	51.88
204.317	-23.89
204.536	-3.41
204.755	15.02
204.974	35.5
205.193	23.21
205.411	23.21
205.63	39.59
205.849	55.98
206.068	6.83
206.287	66.22
206.505	31.4
206.724	-5.46
206.943	68.27
207.162	-1.37
207.381	60.07
207.599	-5.46
207.818	51.88
208.037	15.02
208.255	72.36
208.474	49.83
208.693	-25.94
208.911	19.11
209.13	-19.8
209.349	-68.95
209.567	-30.04
209.786	35.5
210.005	31.4
210.223	19.11
210.442	-48.47
210.661	39.59
210.879	58.03
211.098	64.17
211.316	-34.13
211.535	17.07
211.753	35.5
211.972	35.5
212.191	-7.51
212.409	80.55
212.628	12.97
212.846	6.83
213.065	41.64
213.283	39.59
213.502	27.31
213.72	-7.51
213.938	25.26
214.157	-5.46
214.375	35.5
214.594	49.83
214.812	-9.56
215.031	-9.56
215.249	15.02
215.467	66.22
215.686	60.07
215.904	86.7
216.122	37.55
216.341	47.79
216.559	-15.7
216.778	68.27
216.996	55.98
217.214	49.83
217.432	43.69
217.651	21.16
217.869	6.83
218.087	6.83
218.306	47.79
218.524	4.78
218.742	4.78
218.96	55.98
219.179	-15.7
219.397	31.4
219.615	41.64
219.833	8.87
220.051	-56.66
220.27	86.7
220.488	105.13
220.706	31.4
220.924	-17.75
221.142	-7.51
221.36	51.88
221.578	64.17
221.796	-50.52
222.015	45.74
222.233	10.92
222.451	31.4
222.669	-1.37
222.887	-15.7
223.105	-38.23
223.323	27.31
223.541	-7.51
223.759	49.83
223.977	-25.94
224.195	70.31
224.413	49.83
224.631	-9.56
224.849	-17.75
225.067	-1.37
225.285	-48.47
225.503	41.64
225.721	27.31
225.939	35.5
226.157	51.88
226.375	203.43
226.592	-11.61
226.81	39.59
227.028	51.88
227.246	111.27
227.464	25.26
227.682	15.02
227.9	49.83
228.117	23.21
228.335	-17.75
228.553	33.45
228.771	-15.7
228.989	31.4
229.206	2.73
229.424	39.59
229.642	6.83
229.86	41.64
230.077	0.68
230.295	37.55
230.513	82.6
230.731	17.07
230.948	55.98
231.166	-42.32
231.384	-73.04
231.601	-13.65
231.819	33.45
232.037	31.4
232.254	-25.94
232.472	-34.13
232.689	4.78
232.907	55.98
233.125	-42.32
233.342	88.75
233.56	-38.23
233.777	-5.46
233.995	31.4
234.213	23.21
234.43	27.31
234.648	17.07
234.865	41.64
235.083	23.21
235.3	55.98
235.518	60.07
235.735	98.99
235.953	84.65
236.17	27.31
236.388	98.99
236.605	96.94
236.822	6.83
237.04	15.02
237.257	10.92
237.475	-9.56
237.692	31.4
237.909	86.7
238.127	25.26
238.344	31.4
238.562	-3.41
238.779	-32.08
238.996	-17.75
239.214	-19.8
239.431	64.17
239.648	23.21
239.865	43.69
240.083	19.11
240.3	41.64
240.517	121.51
240.735	-58.71
240.952	19.11
241.169	113.32
241.386	-17.75
241.603	33.45
241.821	-9.56
242.038	88.75
242.255	33.45
242.472	-32.08
242.689	43.69
242.907	47.79
243.124	35.5
243.341	-25.94
243.558	-46.42
243.775	17.07
243.992	55.98
244.209	8.87
244.426	88.75
244.643	12.97
244.86	33.45
245.078	41.64
245.295	6.83
245.512	10.92
245.729	74.41
245.946	10.92
246.163	41.64
246.38	-9.56
246.597	82.6
246.814	25.26
247.031	-42.32
247.248	39.59
247.464	88.75
247.681	-21.84
247.898	66.22
248.115	-5.46
248.332	-1.37
248.549	49.83
248.766	82.6
248.983	27.31
249.2	33.45
249.417	-9.56
249.633	15.02
249.85	58.03
250.067	4.78
250.284	66.22
250.501	39.59
250.717	115.37
250.934	-25.94
251.151	12.97
251.368	33.45
251.585	0.68
251.801	0.68
252.018	8.87
252.235	111.27
252.451	23.21
252.668	23.21
252.885	76.46
253.102	58.03
253.318	43.69
253.535	-19.8
253.752	12.97
253.968	-54.61
254.185	-30.04
254.401	-7.51
254.618	35.5
254.835	39.59
255.051	-19.8
255.268	31.4
255.484	80.55
255.701	10.92
255.917	90.79
256.134	72.36
256.351	-58.71
256.567	17.07
256.784	-7.51
257	23.21
257.217	55.98
257.433	41.64
257.65	10.92
257.866	58.03
258.082	17.07
258.299	41.64
258.515	37.55
258.732	-9.56
258.948	-3.41
259.165	15.02
259.381	27.31
259.597	-40.28
259.814	45.74
260.03	10.92
260.246	-38.23
260.463	43.69
260.679	86.7
260.895	-27.99
261.112	-23.89
261.328	2.73
261.544	33.45
261.761	80.55
261.977	6.83
262.193	64.17
262.409	17.07
262.626	39.59
262.842	64.17
263.058	-5.46
263.274	94.89
263.49	-9.56
263.707	60.07
263.923	60.07
264.139	47.79
264.355	41.64
264.571	80.55
264.787	-46.42
265.004	-17.75
265.22	-7.51
265.436	-34.13
265.652	23.21
265.868	-54.61
266.084	-1.37
266.3	23.21
266.516	15.02
266.732	33.45
266.948	6.83
267.164	-64.85
267.38	23.21
267.596	58.03
267.812	39.59
268.028	33.45
268.244	35.5
268.46	55.98
268.676	68.27
268.892	88.75
269.108	2.73
269.324	39.59
269.54	-15.7
269.756	60.07
269.972	23.21
270.188	51.88
270.403	-1.37
270.619	-25.94
270.835	101.03
271.051	35.5
271.267	-50.52
271.483	8.87
271.698	53.93
271.914	-42.32
272.13	12.97
272.346	-15.7
272.562	68.27
272.777	19.11
272.993	-25.94
273.209	-9.56
273.425	15.02
273.64	-48.47
273.856	55.98
274.072	-42.32
274.287	-17.75
274.503	90.79
274.719	51.88
274.934	10.92
275.15	-99.67
275.366	-54.61
275.581	-21.84
275.797	39.59
276.012	58.03
276.228	-34.13
276.444	-48.47
276.659	121.51
276.875	-46.42
277.09	-15.7
277.306	25.26
277.521	8.87
277.737	19.11
277.952	-36.18
278.168	2.73
278.383	45.74
278.599	23.21
278.814	-13.65
279.03	-50.52
279.245	64.17
279.461	10.92
279.676	-15.7
279.892	23.21
280.107	39.59
280.322	15.02
280.538	62.12
280.753	2.73
280.969	39.59
281.184	29.35
281.399	111.27
281.615	25.26
281.83	82.6
282.045	-1.37
282.26	55.98
282.476	-7.51
282.691	-1.37
282.906	31.4
283.122	47.79
283.337	2.73
283.552	133.8
283.767	-11.61
283.983	-19.8
284.198	35.5
284.413	-30.04
284.628	-21.84
284.843	31.4
285.058	21.16
285.274	66.22
285.489	27.31
285.704	33.45
285.919	33.45
286.134	-11.61
286.349	15.02
286.564	0.68
286.779	92.84
286.995	-25.94
287.21	-64.85
287.425	-1.37
287.64	72.36
287.855	60.07
288.07	39.59
288.285	-32.08
288.5	90.79
288.715	74.41
288.93	-17.75
289.145	8.87
289.36	12.97
289.575	6.83
289.79	4.78
290.004	-5.46
290.219	76.46
290.434	-1.37
290.649	8.87
290.864	31.4
291.079	-19.8
291.294	6.83
291.509	8.87
291.724	8.87
291.938	35.5
292.153	51.88
292.368	68.27
292.583	-1.37
292.798	-11.61
293.012	58.03
293.227	74.41
293.442	-30.04
293.657	80.55
293.871	113.32
294.086	15.02
294.301	72.36
294.516	41.64
294.73	-3.41
294.945	-25.94
295.16	64.17
295.374	72.36
295.589	6.83
295.804	-17.75
296.018	6.83
296.233	-1.37
296.447	17.07
296.662	-13.65
296.877	72.36
297.091	31.4
297.306	25.26
297.52	25.26
297.735	-38.23
297.949	33.45
298.164	37.55
298.378	74.41
298.593	-58.71
298.807	31.4
299.022	55.98
299.236	119.46
299.451	-46.42
299.665	51.88
299.88	64.17
300.094	25.26
300.309	94.89
300.523	55.98
300.737	0.68
300.952	33.45
301.166	47.79
301.381	8.87
301.595	-7.51
301.809	-25.94
302.024	-9.56
302.238	-9.56
302.452	25.26
302.667	66.22
302.881	41.64
303.095	60.07
303.309	15.02
303.524	-71
303.738	-38.23
303.952	-5.46
304.166	25.26
304.381	15.02
304.595	6.83
304.809	49.83
305.023	33.45
305.237	15.02
305.452	-1.37
305.666	17.07
305.88	-1.37
306.094	6.83
306.308	-7.51
306.522	-42.32
306.736	47.79
306.95	35.5
307.164	35.5
307.379	-23.89
307.593	23.21
307.807	47.79
308.021	72.36
308.235	37.55
308.449	-66.9
308.663	-32.08
308.877	23.21
309.091	41.64
309.305	43.69
309.519	-58.71
309.733	80.55
309.947	2.73
310.161	33.45
310.374	21.16
310.588	17.07
310.802	58.03
311.016	-64.85
311.23	-44.37
311.444	0.68
311.658	-34.13
311.872	82.6
312.085	-25.94
312.299	2.73
312.513	41.64
312.727	47.79
312.941	10.92
313.154	25.26
313.368	8.87
313.582	-38.23
313.796	19.11
314.009	51.88
314.223	49.83
314.437	-25.94
314.651	-19.8
314.864	-27.99
315.078	19.11
315.292	-44.37
315.505	8.87
315.719	27.31
315.933	-15.7
316.146	55.98
316.36	-17.75
316.573	72.36
316.787	68.27
317.001	-36.18
317.214	8.87
317.428	31.4
317.641	-42.32
317.855	21.16
318.068	55.98
318.282	49.83
318.495	107.18
318.709	15.02
318.922	2.73
319.136	23.21
319.349	49.83
319.563	10.92
319.776	47.79
319.99	10.92
320.203	15.02
320.417	29.35
320.63	31.4
320.843	88.75
321.057	-17.75
321.27	68.27
321.483	31.4
321.697	47.79
321.91	23.21
322.124	47.79
322.337	111.27
322.55	8.87
322.763	27.31
322.977	15.02
323.19	6.83
323.403	58.03
323.617	-1.37
323.83	103.08
324.043	15.02
324.256	2.73
324.469	27.31
324.683	35.5
324.896	15.02
325.109	64.17
325.322	41.64
325.535	25.26
325.748	58.03
325.962	0.68
326.175	-25.94
326.388	101.03
326.601	43.69
326.814	33.45
327.027	0.68
327.24	29.35
327.453	-38.23
327.666	68.27
327.879	84.65
328.092	105.13
328.305	-40.28
328.518	47.79
328.731	43.69
328.944	58.03
329.157	-62.8
329.37	60.07
329.583	27.31
329.796	96.94
330.009	8.87
330.222	27.31
330.435	23.21
330.648	-7.51
330.861	8.87
331.073	49.83
331.286	31.4
331.499	66.22
331.712	-50.52
331.925	55.98
332.138	0.68
332.35	15.02
332.563	70.31
332.776	51.88
332.989	25.26
333.202	15.02
333.414	0.68
333.627	10.92
333.84	-9.56
334.053	72.36
334.265	-46.42
334.478	10.92
334.691	66.22
334.903	33.45
335.116	82.6
335.329	-15.7
335.541	4.78
335.754	0.68
335.966	55.98
336.179	72.36
336.392	-17.75
336.604	-23.89
336.817	10.92
337.029	-7.51
337.242	23.21
337.454	98.99
337.667	47.79
337.88	-17.75
338.092	90.79
338.305	90.79
338.517	19.11
338.729	43.69
338.942	49.83
339.154	-32.08
339.367	-34.13
339.579	23.21
339.792	-9.56
340.004	-9.56
340.217	133.8
340.429	55.98
340.641	15.02
340.854	-60.76
341.066	-21.84
341.278	21.16
341.491	-17.75
341.703	-9.56
341.915	47.79
342.128	39.59
342.34	12.97
342.552	-15.7
342.764	-23.89
342.977	-40.28
343.189	88.75
343.401	-15.7
343.613	8.87
343.826	31.4
344.038	15.02
344.25	-7.51
344.462	94.89
344.674	-25.94
344.886	-5.46
345.099	41.64
345.311	-1.37
345.523	23.21
345.735	-11.61
345.947	15.02
346.159	-27.99
346.371	-7.51
346.583	-19.8
346.795	66.22
347.007	-9.56
347.219	49.83
347.431	-17.75
347.643	29.35
347.855	-9.56
348.067	58.03
348.279	-5.46
348.491	72.36
348.703	-32.08
348.915	6.83
349.127	-89.43
349.339	49.83
349.551	6.83
349.763	6.83
349.975	-15.7
350.187	15.02
350.399	45.74
350.61	68.27
350.822	43.69
351.034	55.98
351.246	-42.32
351.458	98.99
351.669	33.45
351.881	17.07
352.093	15.02
352.305	35.5
352.517	12.97
352.728	43.69
352.94	74.41
353.152	35.5
353.363	-58.71
353.575	41.64
353.787	86.7
353.999	-17.75
354.21	2.73
354.422	-9.56
354.633	68.27
354.845	23.21
355.057	25.26
355.268	62.12
355.48	-25.94
355.692	-48.47
355.903	31.4
356.115	88.75
356.326	-9.56
356.538	43.69
356.749	62.12
356.961	23.21
357.172	-9.56
357.384	-30.04
357.595	51.88
357.807	0.68
358.018	-34.13
358.23	39.59
358.441	107.18
358.653	53.93
358.864	-17.75
359.075	21.16
359.287	-19.8
359.498	39.59
359.709	43.69
359.921	76.46
360.132	-1.37
360.344	53.93
360.555	-25.94
360.766	62.12
360.977	86.7
361.189	58.03
361.4	64.17
361.611	39.59
361.823	17.07
362.034	-62.8
362.245	-71
362.456	-3.41
362.667	-30.04
362.879	15.02
363.09	64.17
363.301	-1.37
363.512	60.07
363.723	43.69
363.935	27.31
364.146	6.83
364.357	23.21
364.568	-9.56
364.779	-9.56
364.99	96.94
365.201	-21.84
365.412	6.83
365.623	19.11
365.834	92.84
366.045	-32.08
366.256	68.27
366.467	27.31
366.678	23.21
366.889	-7.51
367.1	-25.94
367.311	98.99
367.522	-7.51
367.733	41.64
367.944	49.83
368.155	-44.37
368.366	23.21
368.577	107.18
368.788	47.79
368.999	-21.84
369.209	41.64
369.42	76.46
369.631	105.13
369.842	64.17
370.053	80.55
370.264	6.83
370.474	74.41
370.685	10.92
370.896	31.4
371.107	70.31
371.317	70.31
371.528	33.45
371.739	66.22
371.95	39.59
372.16	80.55
372.371	-46.42
372.582	-1.37
372.792	76.46
373.003	72.36
373.214	31.4
373.424	-7.51
373.635	-56.66
373.846	8.87
374.056	31.4
374.267	41.64
374.477	60.07
374.688	-7.51
374.898	2.73
375.109	64.17
375.319	17.07
375.53	17.07
375.74	-9.56
375.951	-1.37
376.161	-9.56
376.372	80.55
376.582	-13.65
376.793	101.03
377.003	-11.61
377.214	-25.94
377.424	47.79
377.635	31.4
377.845	8.87
378.055	113.32
378.266	39.59
378.476	-32.08
378.686	76.46
378.897	39.59
379.107	-17.75
379.317	0.68
379.528	-48.47
379.738	58.03
379.948	-17.75
380.158	6.83
380.369	80.55
380.579	88.75
380.789	-21.84
380.999	47.79
381.21	10.92
381.42	53.93
381.63	-25.94
381.84	-64.85
382.05	-40.28
382.261	129.7
382.471	29.35
382.681	27.31
382.891	-23.89
383.101	-25.94
383.311	78.51
383.521	-25.94
383.731	-1.37
383.941	41.64
384.151	-32.08
384.361	0.68
384.571	33.45
384.781	96.94
384.991	105.13
385.201	17.07
385.411	23.21
385.621	64.17
385.831	70.31
386.041	19.11
386.251	66.22
386.461	12.97
386.671	29.35
386.881	55.98
387.091	0.68
387.301	19.11
387.511	0.68
387.72	43.69
387.93	49.83
388.14	-25.94
388.35	6.83
388.56	86.7
388.769	88.75
388.979	23.21
389.189	27.31
389.399	31.4
389.609	172.71
389.818	80.55
390.028	27.31
390.238	10.92
390.447	-32.08
390.657	72.36
390.867	39.59
391.076	25.26
391.286	113.32
391.496	88.75
391.705	33.45
391.915	6.83
392.125	23.21
392.334	47.79
392.544	158.38
392.753	6.83
392.963	15.02
393.172	19.11
393.382	0.68
393.591	58.03
393.801	58.03
394.01	47.79
394.22	76.46
394.429	47.79
394.639	94.89
394.848	51.88
395.058	47.79
395.267	37.55
395.477	98.99
395.686	17.07
395.895	141.99
396.105	31.4
396.314	105.13
396.524	101.03
396.733	12.97
396.942	47.79
397.152	-15.7
397.361	88.75
397.57	-11.61
397.78	70.31
397.989	66.22
398.198	117.42
398.407	88.75
398.617	39.59
398.826	82.6
399.035	10.92
399.244	60.07
399.453	64.17
399.663	23.21
399.872	88.75
400.081	25.26
400.29	51.88
400.499	55.98
400.708	121.51
400.917	35.5
401.127	39.59
401.336	105.13
401.545	125.61
401.754	162.47
401.963	96.94
402.172	105.13
402.381	84.65
402.59	27.31
402.799	33.45
403.008	125.61
403.217	43.69
403.426	62.12
403.635	58.03
403.844	64.17
404.053	68.27
404.262	86.7
404.471	105.13
404.68	125.61
404.888	53.93
405.097	148.14
405.306	86.7
405.515	60.07
405.724	84.65
405.933	158.38
406.142	199.34
406.35	156.33
406.559	199.34
406.768	121.51
406.977	84.65
407.185	129.7
407.394	191.14
407.603	78.51
407.812	219.82
408.02	121.51
408.229	156.33
408.438	203.43
408.646	205.48
408.855	121.51
409.064	84.65
409.272	158.38
409.481	154.28
409.69	162.47
409.898	162.47
410.107	146.09
410.315	219.82
410.524	271.01
410.733	260.77
410.941	260.77
411.15	219.82
411.358	244.39
411.567	230.06
411.775	301.73
411.984	391.84
412.192	322.21
412.401	260.77
412.609	287.4
412.818	320.17
413.026	373.41
413.234	371.37
413.443	363.17
413.651	328.36
413.86	397.99
414.068	342.69
414.276	424.61
414.485	416.42
414.693	490.15
414.901	481.96
415.11	393.89
415.318	488.1
415.526	533.15
415.734	524.96
415.943	502.44
416.151	633.51
416.359	502.44
416.567	510.63
416.776	645.79
416.984	672.42
417.192	613.03
417.4	649.89
417.608	670.37
417.817	703.14
418.025	719.52
418.233	817.82
418.441	836.25
418.649	809.63
418.857	889.5
419.065	875.17
419.273	834.21
419.481	952.99
419.689	1024.67
419.897	1012.38
420.105	1073.82
420.313	1014.43
420.521	1026.72
420.729	1202.84
420.937	1108.63
421.145	1129.11
421.353	1233.56
421.561	1342.1
421.769	1364.63
421.977	1235.61
422.185	1344.15
422.393	1434.26
422.601	1456.79
422.809	1538.71
423.017	1540.76
423.224	1630.87
423.432	1776.27
423.64	1686.16
423.848	1868.43
424.056	1698.45
424.263	1854.09
424.471	1886.86
424.679	2026.12
424.887	2013.84
425.094	2058.89
425.302	2153.1
425.51	2366.09
425.718	2366.09
425.925	2382.47
426.133	2370.18
426.341	2595.46
426.548	2566.79
426.756	2810.5
426.964	2652.8
427.171	2910.85
427.379	2869.89
427.586	2914.94
427.794	2996.86
428.001	3220.09
428.209	3228.28
428.417	3265.14
428.624	3547.76
428.832	3558
429.039	3572.34
429.247	3670.64
429.454	3947.12
429.662	4070
429.869	3791.47
430.076	4047.47
430.284	3848.82
430.491	4211.31
430.699	4381.29
430.906	4438.63
431.114	4536.93
431.321	4643.43
431.528	4659.81
431.736	5061.21
431.943	5143.13
432.15	5020.25
432.358	5089.89
432.565	5384.79
432.772	5302.87
432.979	5618.26
433.187	5759.57
433.394	5804.63
433.601	6134.35
433.808	6224.46
434.016	6134.35
434.223	6359.63
434.43	6812.23
434.637	6705.73
434.844	6859.33
435.052	7322.17
435.259	7221.82
435.466	7076.41
435.673	7234.11
435.88	7602.74
436.087	7995.95
436.294	7954.99
436.501	7871.03
436.708	7932.47
436.915	8233.52
437.122	8614.44
437.329	8591.91
437.537	8950.31
437.743	9034.27
437.95	8802.85
438.157	9267.74
438.364	9452.06
438.571	9640.47
438.778	9722.39
438.985	10547.72
439.192	10320.4
439.399	10394.12
439.606	10232.33
439.813	10779.14
440.02	11663.86
440.227	11311.61
440.433	11080.19
440.64	11670.01
440.847	11463.16
441.054	11911.67
441.261	12601.83
441.467	12368.37
441.674	12685.8
441.881	13195.75
442.088	12900.84
442.294	13003.24
442.501	13248.99
442.708	13574.62
442.914	13869.53
443.121	14707.15
443.328	14414.29
443.534	15098.31
443.741	14723.53
443.948	14498.25
444.154	15882.68
444.361	15366.59
444.568	15550.91
444.774	15624.64
444.981	15780.28
445.187	16181.68
445.394	16867.75
445.6	17029.54
445.807	18364.82
446.013	17381.79
446.22	17711.52
446.426	18721.16
446.633	18880.91
446.839	19356.04
447.046	18424.21
447.252	19509.63
447.459	19722.62
447.665	19607.94
447.871	20298.1
448.078	21338.47
448.284	20232.57
448.491	20777.33
448.697	21686.62
448.903	22153.56
449.11	22178.14
449.316	21594.47
449.522	22161.75
449.728	22733.14
449.935	22987.08
450.141	22851.92
450.347	23548.23
450.553	22597.97
450.76	23245.13
450.966	23947.58
451.172	23574.85
451.378	24123.71
451.584	23568.71
451.791	24463.67
451.997	24154.43
452.203	24549.68
452.409	24682.8
452.615	24512.82
452.821	23566.66
453.027	23361.86
453.233	24525.11
453.44	23630.15
453.646	24103.23
453.852	23923.01
454.058	24172.86
454.264	23904.57
454.47	24353.08
454.676	23630.15
454.882	24346.94
455.088	22362.45
455.294	22808.91
455.5	22995.28
455.705	23069
455.911	22243.67
456.117	21891.42
456.323	21713.25
456.529	20310.39
456.735	21551.46
456.941	20965.74
457.147	20257.14
457.352	19929.47
457.558	19722.62
457.764	19726.72
457.97	19476.87
458.176	19081.61
458.381	19163.53
458.587	18004.38
458.793	17914.27
458.999	17000.87
459.204	18262.42
459.41	17787.29
459.616	16544.17
459.821	16939.43
460.027	16718.25
460.233	16204.21
460.438	15770.04
460.644	15485.37
460.85	14936.52
461.055	14703.05
461.261	14768.59
461.466	13597.15
461.672	13197.79
461.878	14174.67
462.083	13246.94
462.289	12585.45
462.494	12646.89
462.7	12081.65
462.905	11694.58
463.111	12368.37
463.316	12288.5
463.522	12100.08
463.727	12186.1
463.932	12126.71
464.138	11901.43
464.343	12098.03
464.549	11518.46
464.754	11979.25
464.959	12009.97
465.165	11852.28
465.37	11473.4
465.575	10934.79
465.781	11475.45
465.986	11696.63
466.191	11141.63
466.397	10848.77
466.602	10643.98
466.807	10908.16
467.012	10875.4
467.218	10680.84
467.423	10631.69
467.628	10678.79
467.833	11106.82
468.038	10777.09
468.244	10439.18
468.449	10813.96
468.654	10428.94
468.859	10332.69
469.064	10338.83
469.269	10074.64
469.474	9992.72
469.679	10189.33
469.885	9794.07
470.09	10097.17
470.295	10043.92
470.5	9619.99
470.705	9851.41
470.91	9595.42
471.115	9511.45
471.32	9560.6
471.525	9542.17
471.73	9206.3
471.935	9288.22
472.139	8940.07
472.344	9214.49
472.549	9105.95
472.754	8925.73
472.959	8962.59
473.164	8561.19
473.369	8528.42
473.574	8589.86
473.778	8714.79
473.983	8596.01
474.188	8548.9
474.393	8288.81
474.598	8258.09
474.802	8235.56
475.007	8137.26
475.212	8098.35
475.417	7719.48
475.621	8202.8
475.826	8028.72
476.031	7674.42
476.235	7498.3
476.44	7717.43
476.645	7496.25
476.849	7475.77
477.054	7428.67
477.259	7330.36
477.463	7436.86
477.668	7119.42
477.872	7187.01
478.077	7232.06
478.282	7047.74
478.486	7064.13
478.691	6931.01
478.895	6816.32
479.1	6765.12
479.304	6871.62
479.509	6554.18
479.713	6754.88
479.918	6595.14
480.122	6400.59
480.326	6593.09
480.531	6726.21
480.735	6502.98
480.94	6439.5
481.144	6740.55
481.348	6240.84
481.553	6527.56
481.757	6163.02
481.961	6324.81
482.166	6466.12
482.37	6414.92
482.574	6324.81
482.778	6251.08
482.983	6496.84
483.187	6433.35
483.391	6478.41
483.595	6322.76
483.8	6187.6
484.004	6296.14
484.208	6263.37
484.412	6203.98
484.616	6470.22
484.821	6298.19
485.025	6165.07
485.229	6210.12
485.433	6091.34
485.637	6218.32
485.841	6167.12
486.045	6263.37
486.249	6343.24
486.453	6314.57
486.657	6326.86
486.861	6365.77
487.065	6085.2
487.269	6255.18
487.473	6261.32
487.677	6373.96
487.881	6445.64
488.085	6453.83
488.289	6429.26
488.493	6306.38
488.697	6351.43
488.901	6347.34
489.105	6496.84
489.309	6244.94
489.512	6249.04
489.716	6412.87
489.92	6398.54
490.124	6545.99
490.328	6371.91
490.531	6333
490.735	6478.41
490.939	6490.7
491.143	6416.97
491.346	6482.5
491.55	6668.87
491.754	6488.65
491.958	6693.44
492.161	6707.78
492.365	6705.73
492.569	6648.39
492.772	6863.43
492.976	6787.65
493.18	6765.12
493.383	6879.81
493.587	6879.81
493.79	7176.77
493.994	6832.71
494.197	6879.81
494.401	6920.77
494.605	6863.43
494.808	7027.26
495.012	7133.76
495.215	7158.33
495.419	7232.06
495.622	7109.18
495.825	7232.06
496.029	7322.17
496.232	7406.14
496.436	7428.67
496.639	7596.6
496.843	7477.82
497.046	7639.61
497.249	7887.41
497.453	7756.34
497.656	7963.19
497.859	7911.99
498.063	8131.12
498.266	8245.8
498.469	7965.23
498.673	8346.16
498.876	8383.02
499.079	8460.84
499.282	8325.68
499.485	8602.15
499.689	8899.11
499.892	8888.87
500.095	8774.18
500.298	9017.89
500.501	9009.7
500.705	9165.34
500.908	9359.9
501.111	9263.65
501.314	9445.91
501.517	9562.65
501.72	9566.74
501.923	9497.11
502.126	9927.19
502.329	10181.14
502.532	10215.95
502.735	10318.35
502.938	10387.98
503.141	10461.71
503.344	10584.59
503.547	10592.78
503.75	10746.37
503.953	10893.83
504.156	10914.31
504.359	11016.71
504.562	11188.74
504.765	11477.5
504.968	11747.83
505.17	11567.61
505.373	11692.54
505.576	11772.41
505.779	11878.9
505.982	12009.97
506.185	12329.45
506.387	12433.9
506.59	12302.83
506.793	12599.79
506.996	12478.96
507.198	12966.37
507.401	12630.51
507.604	13146.59
507.807	13556.19
508.009	13279.71
508.212	13382.11
508.415	13709.79
508.617	13986.26
508.82	13834.71
509.022	13736.41
509.225	14248.4
509.428	14389.71
509.63	14420.43
509.833	14340.56
510.035	14850.5
510.238	14821.83
510.44	14809.54
510.643	15141.32
510.845	15321.54
511.048	15378.88
511.25	15350.21
511.453	15593.92
511.655	16300.47
511.858	16050.61
512.06	16189.88
512.262	16355.76
512.465	16226.74
512.667	16654.76
512.87	16578.99
513.072	17027.49
513.274	16966.06
513.477	17039.78
513.679	17328.55
513.881	17797.53
514.084	17654.17
514.286	18076.05
514.488	17844.63
514.69	18526.61
514.893	18409.87
515.095	18547.09
515.297	18762.12
515.499	18758.03
515.701	18960.78
515.904	18995.59
516.106	19198.34
516.308	19876.22
516.51	19794.3
516.712	19765.63
516.914	20158.84
517.116	20261.24
517.318	20087.16
517.52	20300.15
517.722	20730.22
517.925	20945.26
518.127	21285.22
518.329	21068.14
518.531	21000.55
518.733	21641.57
518.935	21721.44
519.136	21977.44
519.338	22114.65
519.54	22397.27
519.742	22466.9
519.944	22452.56
520.146	22800.72
520.348	22817.1
520.55	23290.18
520.752	23136.59
520.954	23757.12
521.155	23632.19
521.357	23605.57
521.559	24314.17
521.761	24557.88
521.963	24144.19
522.164	24320.31
522.366	24858.93
522.568	24803.63
522.77	24828.21
522.971	25096.49
523.173	24922.41
523.375	25590.05
523.576	25477.41
523.778	25479.46
523.98	26075.42
524.181	26140.96
524.383	26167.58
524.584	26353.94
524.786	26175.77
524.988	26130.72
525.189	26710.29
525.391	26714.39
525.592	27076.88
525.794	27066.64
525.995	26982.67
526.197	27279.63
526.398	27166.99
526.6	27177.23
526.801	27263.24
527.003	27642.12
527.204	27492.62
527.406	28018.94
527.607	27836.67
527.808	28107.01
528.01	27676.93
528.211	27762.95
528.412	28537.08
528.614	28254.46
528.815	28229.88
529.016	28838.13
529.218	28301.56
529.419	28446.97
529.62	28526.84
529.822	28526.84
530.023	28571.89
530.224	28854.51
530.425	28700.92
530.626	28733.68
530.828	28178.68
531.029	29155.57
531.23	28940.53
531.431	28623.09
531.632	29235.44
531.833	28793.08
532.035	28780.79
532.236	29169.9
532.437	29319.4
532.638	28860.66
532.839	29282.54
533.04	29475.05
533.241	28809.46
533.442	29597.93
533.643	29376.75
533.844	29208.81
534.045	29450.47
534.246	29212.91
534.447	29483.24
534.648	29341.93
534.849	29538.54
535.05	29278.44
535.251	29243.63
535.451	29333.74
535.652	29450.47
535.853	29415.66
536.054	29530.34
536.255	29366.51
536.456	29374.7
536.657	29309.16
536.857	28999.92
537.058	29229.29
537.259	29855.97
537.46	29505.77
537.66	29520.1
537.861	29536.49
538.062	29092.08
538.263	29597.93
538.463	29081.84
538.664	29073.65
538.865	29440.23
539.065	29552.87
539.266	29393.13
539.466	29544.68
539.667	29090.03
539.868	29520.1
540.068	29419.75
540.269	29204.72
540.469	29559.02
540.67	29274.35
540.87	29274.35
541.071	29247.72
541.271	29339.88
541.472	29513.96
541.672	28909.81
541.873	29255.92
542.073	28786.93
542.274	29401.32
542.474	29141.23
542.675	29047.02
542.875	29348.07
543.075	29051.12
543.276	28842.23
543.476	29440.23
543.676	29278.44
543.877	29311.21
544.077	29178.09
544.277	29028.59
544.478	29153.52
544.678	29350.12
544.878	29225.2
545.078	29264.11
545.279	29104.37
545.479	29128.94
545.679	29253.87
545.879	29034.74
546.079	29063.41
546.28	29116.65
546.48	29135.09
546.68	29243.63
546.88	29059.31
547.08	29294.83
547.28	29077.74
547.48	28676.34
547.68	28924.15
547.88	28684.53
548.081	29268.2
548.281	28961.01
548.481	28999.92
548.681	29161.71
548.881	29157.61
549.081	28944.62
549.28	28938.48
549.48	29122.8
549.68	29044.98
549.88	29098.22
550.08	28727.54
550.28	28901.62
550.48	29092.08
550.68	29053.17
550.88	28829.94
551.08	28809.46
551.279	28918
551.479	28647.67
551.679	29028.59
551.879	28571.89
552.079	29176.05
552.278	28721.4
552.478	29028.59
552.678	28619
552.878	28938.48
553.077	28823.79
553.277	28309.75
553.477	29065.46
553.676	28807.41
553.876	28698.87
554.076	28653.81
554.275	28752.12
554.475	28354.81
554.674	28403.96
554.874	28457.21
555.074	28485.88
555.273	28412.15
555.473	28555.51
555.672	28182.78
555.872	28317.95
556.071	28358.91
556.271	28518.65
556.47	28266.75
556.67	28272.89
556.869	28258.56
557.068	28203.26
557.268	27922.69
557.467	28233.98
557.667	28338.43
557.866	28219.64
558.065	28238.08
558.265	28057.85
558.464	28252.41
558.663	28403.96
558.863	27953.41
559.062	28403.96
559.261	27816.19
559.461	27969.79
559.66	27318.54
559.859	27635.97
560.058	27420.94
560.258	27588.87
560.457	27453.7
560.656	27488.52
560.855	27322.63
561.054	27574.53
561.253	27605.25
561.453	27425.03
561.652	27767.04
561.851	27851.01
562.05	27283.72
562.249	27003.15
562.448	27439.37
562.647	27302.15
562.846	27103.5
563.045	26939.66
563.244	26904.85
563.443	27400.46
563.642	26816.79
563.841	27001.1
564.04	26921.23
564.239	27265.29
564.438	26368.28
564.637	26837.27
564.836	26839.31
565.035	26485.01
565.234	26767.63
565.432	26607.89
565.631	26423.58
565.83	26425.62
566.029	26482.97
566.228	26306.84
566.427	26304.79
566.625	26030.37
566.824	25846.05
567.023	26288.41
567.222	25667.87
567.42	26315.03
567.619	25717.03
567.818	25727.27
568.016	25817.38
568.215	26143
568.414	25731.36
568.612	25712.93
568.811	25317.67
569.01	25325.86
569.208	24899.89
569.407	25372.97
569.605	25162.03
569.804	25372.97
570.002	25223.47
570.201	25428.26
570.4	25264.43
570.598	24901.93
570.797	24856.88
570.995	25055.53
571.193	24602.93
571.392	24834.35
571.59	24521.01
571.789	24713.52
571.987	24824.11
572.186	24750.38
572.384	24615.22
572.582	24654.13
572.781	24797.49
572.979	24172.86
573.177	24652.08
573.376	24246.58
573.574	23923.01
573.772	23873.85
573.971	24301.88
574.169	23871.81
574.367	24049.98
574.565	23832.89
574.763	23589.19
574.962	23836.99
575.16	23630.15
575.358	23613.76
575.556	23740.74
575.754	23494.98
575.952	23116.11
576.151	23437.64
576.349	23243.08
576.547	23312.71
576.745	22860.11
576.943	23417.16
577.141	22878.54
577.339	23368.01
577.537	23099.72
577.735	23017.8
577.933	22792.53
578.131	22872.4
578.329	22683.98
578.527	22559.06
578.725	22686.03
578.923	22669.65
579.121	22489.43
579.319	22387.03
579.516	22384.98
579.714	22423.89
579.912	22102.36
580.11	22272.34
580.308	22190.42
580.506	22210.9
580.704	21782.88
580.901	22151.51
581.099	21979.48
581.297	21567.84
581.495	21836.13
581.692	21905.76
581.89	21711.2
582.088	21735.77
582.285	21535.07
582.483	21766.49
582.681	21758.3
582.878	21569.89
583.076	21381.48
583.274	21604.7
583.471	21133.67
583.669	21184.87
583.866	21010.79
584.064	21317.99
584.262	21082.47
584.459	21156.2
584.657	20994.41
584.854	21270.89
585.052	20504.95
585.249	20695.41
585.447	21084.52
585.644	20570.48
585.841	20502.9
586.039	21004.65
586.236	20324.72
586.434	20502.9
586.631	20375.92
586.828	20439.41
587.026	20535.67
587.223	20339.06
587.42	20087.16
587.618	20109.69
587.815	20050.3
588.012	20025.72
588.21	19904.89
588.407	20251
588.604	19609.98
588.801	19661.18
588.999	19878.27
589.196	19708.29
589.393	19585.41
589.59	19536.26
589.787	19581.31
589.984	19544.45
590.182	19124.61
590.379	19716.48
590.576	19466.63
590.773	19339.65
590.97	19016.07
591.167	19292.55
591.364	18823.56
591.561	19136.9
591.758	19231.11
591.955	18921.87
592.152	19065.22
592.349	18608.53
592.546	18798.99
592.743	18696.59
592.94	18172.31
593.137	18641.29
593.334	18680.21
593.531	18188.69
593.727	18561.42
593.924	18461.07
594.121	18235.8
594.318	18405.78
594.515	18241.94
594.712	18471.31
594.908	18157.97
595.105	17957.27
595.302	17871.26
595.499	17901.98
595.696	17963.42
595.892	17965.46
596.089	18145.69
596.286	17842.59
596.482	17744.28
596.679	17684.89
596.876	17531.3
597.072	17566.11
597.269	17648.03
597.466	17342.88
597.662	17320.35
597.859	17174.95
598.055	17340.83
598.252	17322.4
598.448	17326.5
598.645	16994.73
598.841	16877.99
599.038	17205.67
599.234	16939.43
599.431	17074.6
599.627	16755.11
599.824	16988.58
600.02	16955.82
600.217	16904.62
600.413	16482.74
600.609	16820.65
600.806	16509.36
601.002	16691.63
601.198	16316.85
601.395	16349.62
601.591	16427.44
601.787	16243.12
601.984	16241.07
602.18	16441.78
602.376	15980.98
602.572	16331.19
602.769	16245.17
602.965	15825.34
603.161	15974.84
603.357	16046.52
603.553	15964.6
603.75	15835.58
603.946	15993.27
604.142	15935.93
604.338	15595.96
604.534	15677.88
604.73	15540.67
604.926	15415.74
605.122	15475.13
605.318	15575.48
605.514	15327.68
605.71	15309.25
605.906	15401.41
606.102	15358.4
606.298	15313.34
606.494	15204.8
606.69	14967.24
606.886	15161.8
607.082	14787.02
607.278	15387.07
607.474	14877.13
607.67	15098.31
607.866	14809.54
608.062	15210.95
608.257	15223.23
608.453	14883.27
608.649	14971.33
608.845	14770.63
609.041	14684.62
609.236	14817.74
609.432	14594.51
609.628	14764.49
609.824	14657.99
610.019	14465.49
610.215	14598.6
610.411	14588.36
610.606	14531.02
610.802	14426.57
610.998	14477.77
611.193	14449.1
611.389	14471.63
611.584	14506.45
611.78	14170.58
611.976	14264.78
612.171	14299.6
612.367	14037.46
612.562	14066.13
612.758	13924.82
612.953	13969.88
613.149	14113.24
613.344	14080.47
613.539	13986.26
613.735	13851.1
613.93	14012.88
614.126	13832.66
614.321	13992.41
614.517	13904.34
614.712	14008.79
614.907	13777.37
615.103	13894.1
615.298	13744.6
615.493	13910.49
615.688	13787.61
615.884	13906.39
616.079	13457.89
616.274	13709.79
616.47	13515.23
616.665	13697.5
616.86	13582.81
617.055	13416.93
617.25	13638.11
617.445	13588.96
617.641	13378.01
617.836	13521.37
618.031	13369.82
618.226	13451.74
618.421	13054.44
618.616	13433.31
618.811	12990.95
619.006	13296.1
619.201	12939.75
619.396	12929.51
619.591	12845.54
619.786	13066.72
619.981	12626.41
620.176	12956.13
620.371	12536.3
620.566	12933.61
620.761	12780.01
620.956	12802.54
621.151	12564.97
621.346	12581.35
621.541	12294.64
621.735	12335.6
621.93	12464.62
622.125	12239.34
622.32	12075.51
622.515	12452.33
622.709	12102.13
622.904	12124.66
623.099	11850.23
623.294	12085.75
623.488	11737.59
623.683	11893.24
623.878	11549.18
624.072	11848.18
624.267	11659.77
624.462	11799.03
624.656	11500.03
624.851	11434.49
625.046	11346.43
625.24	11209.22
625.435	11332.09
625.629	11184.64
625.824	11051.52
626.018	11155.97
626.213	10951.17
626.407	11053.57
626.602	10723.85
626.796	10908.16
626.991	10738.18
627.185	10508.81
627.38	10607.11
627.574	10738.18
627.768	10541.58
627.963	10381.84
628.157	10508.81
628.352	10469.9
628.546	10250.77
628.74	10334.73
628.935	10383.88
629.129	10193.42
629.323	10060.31
629.517	10035.73
629.712	10021.39
629.906	9972.24
630.1	9873.94
630.294	9984.53
630.489	9890.32
630.683	9837.08
630.877	9525.79
631.071	9697.81
631.265	9421.34
631.459	9431.58
631.653	9511.45
631.848	9574.94
632.042	9386.52
632.236	9382.43
632.43	9177.63
632.624	9296.41
632.818	9290.27
633.012	9071.14
633.206	9101.86
633.4	9294.36
633.594	8907.3
633.788	8909.35
633.982	8868.39
634.176	8954.4
634.369	8714.79
634.563	8755.75
634.757	8639.01
634.951	8663.59
635.145	8579.62
635.339	8583.72
635.533	8473.13
635.726	8559.14
635.92	8501.8
636.114	8481.32
636.308	8460.84
636.501	8391.21
636.695	8442.41
636.889	8303.15
637.083	8223.28
637.276	8139.31
637.47	8178.22
637.664	8272.43
637.857	7871.03
638.051	7928.37
638.244	8016.43
638.438	8026.67
638.632	7924.27
638.825	7699
639.019	7995.95
639.212	7658.04
639.406	7674.42
639.599	7899.7
639.793	7737.91
639.986	7504.44
640.18	7481.91
640.373	7438.91
640.567	7469.62
640.76	7371.32
640.954	7391.8
641.147	7395.9
641.34	7371.32
641.534	7209.53
641.727	7189.05
641.92	7223.87
642.114	7156.29
642.307	7006.78
642.5	7232.06
642.694	6939.2
642.887	7092.8
643.08	7168.57
643.273	6969.92
643.467	6916.67
643.66	6689.35
643.853	6847.04
644.046	6795.84
644.239	6715.97
644.432	6525.51
644.626	6707.78
644.819	6703.68
645.012	6589
645.205	6584.9
645.398	6646.34
645.591	6431.3
645.784	6404.68
645.977	6351.43
646.17	6320.71
646.363	6390.35
646.556	6363.72
646.749	6259.28
646.942	6347.34
647.135	6416.97
647.328	6158.92
647.521	6183.5
647.714	6062.67
647.907	5982.8
648.099	6203.98
648.292	5993.04
648.485	5911.12
648.678	5986.9
648.871	5864.02
649.064	5859.92
649.256	5755.47
649.449	6005.33
649.642	5605.97
649.835	5761.62
650.027	5700.18
650.22	5618.26
650.413	5708.37
650.605	5800.53
650.798	5530.2
650.991	5601.88
651.183	5497.43
651.376	5585.49
651.568	5532.25
651.761	5435.99
651.954	5481.05
652.146	5290.59
652.339	5335.64
652.531	5317.21
652.724	5339.74
652.916	5298.78
653.109	5114.46
653.301	5347.93
653.494	5388.89
653.686	5007.97
653.879	5388.89
654.071	5116.51
654.263	5155.42
654.456	5012.06
654.648	5022.3
654.84	5010.01
655.033	4921.95
655.225	4987.49
655.417	4913.76
655.61	4852.32
655.802	5044.83
655.994	4921.95
656.186	4749.92
656.379	4969.05
656.571	4725.35
656.763	4774.5
656.955	4850.27
657.148	4717.15
657.34	4723.3
657.532	4663.91
657.724	4811.36
657.916	4725.35
658.108	4627.04
658.3	4575.84
658.492	4659.81
658.684	4569.7
658.876	4577.89
659.068	4575.84
659.26	4422.25
659.452	4336.23
659.644	4430.44
659.836	4391.53
660.028	4344.42
660.22	4356.71
660.412	4258.41
660.604	4305.51
660.796	4311.66
660.988	4348.52
661.18	4342.38
661.372	4170.35
661.563	4168.3
661.755	4225.64
661.947	4182.63
662.139	4119.15
662.331	4065.9
662.522	3883.63
662.714	3947.12
662.906	4102.76
663.097	3926.64
663.289	3852.91
663.481	4010.61
663.673	3824.24
663.864	3920.49
664.056	3902.06
664.247	3963.5
664.439	3803.76
664.631	3863.15
664.822	3816.05
665.014	3795.57
665.205	3912.3
665.397	3668.59
665.588	3824.24
665.78	3717.75
665.971	3742.32
666.163	3666.55
666.354	3760.75
666.546	3689.07
666.737	3650.16
666.929	3727.99
667.12	3580.53
667.311	3570.29
667.503	3537.52
667.694	3607.16
667.885	3629.68
668.077	3629.68
668.268	3459.7
668.459	3492.47
668.651	3537.52
668.842	3408.5
669.033	3439.22
669.224	3412.6
669.416	3449.46
669.607	3388.02
669.798	3371.64
669.989	3533.43
670.18	3242.62
670.371	3324.54
670.563	3381.88
670.754	3287.67
670.945	3332.73
671.136	3367.54
671.327	3168.89
671.518	3191.42
671.709	3388.02
671.9	3226.23
672.091	3242.62
672.282	3226.23
672.473	3097.21
672.664	3228.28
672.855	3160.7
673.046	3168.89
673.237	3179.13
673.428	3168.89
673.619	3267.19
673.809	3039.87
674	3246.71
674.191	3084.92
674.382	3160.7
674.573	3052.16
674.764	3023.48
674.954	3076.73
675.145	3103.36
675.336	3007.1
675.527	2841.22
675.717	2964.09
675.908	3005.05
676.099	3066.49
676.289	3082.88
676.48	2972.29
676.671	2767.49
676.861	3007.1
677.052	3072.64
677.243	2914.94
677.433	2919.04
677.624	2986.62
677.814	2972.29
678.005	2867.84
678.195	3043.96
678.386	2771.58
678.576	2876.03
678.767	2865.79
678.957	2921.09
679.148	2929.28
679.338	2884.22
679.529	2892.41
679.719	2792.06
679.909	2857.6
680.1	2882.17
680.29	2890.37
680.481	2890.37
680.671	2751.1
680.861	2808.45
681.052	2783.87
681.242	2884.22
681.432	2855.55
681.622	2699.91
681.813	2689.67
682.003	2740.86
682.193	2757.25
682.383	2839.17
682.573	2792.06
682.764	2663.04
682.954	2751.1
683.144	2775.68
683.334	2658.95
683.524	2726.53
683.714	2673.28
683.904	2687.62
684.094	2646.66
684.284	2708.1
684.474	2663.04
684.664	2581.12
684.854	2591.36
685.044	2749.06
685.234	2599.56
685.424	2675.33
685.614	2570.88
685.804	2736.77
685.994	2650.75
686.184	2560.64
686.374	2630.27
686.564	2644.61
686.753	2628.23
686.943	2439.81
687.133	2450.05
687.323	2472.58
687.513	2527.88
687.702	2464.39
687.892	2499.2
688.082	2570.88
688.272	2392.71
688.461	2394.76
688.651	2480.77
688.841	2394.76
689.03	2493.06
689.22	2386.57
689.41	2456.2
689.599	2491.01
689.789	2300.55
689.979	2443.91
690.168	2339.46
690.358	2308.74
690.547	2343.56
690.737	2357.89
690.926	2349.7
691.116	2228.87
691.305	2310.79
691.495	2284.17
691.684	2202.25
691.874	2247.3
692.063	2310.79
692.252	2273.93
692.442	2230.92
692.631	2255.5
692.82	2251.4
693.01	2210.44
693.199	2099.85
693.388	2185.87
693.578	2185.87
693.767	2204.3
693.956	2085.51
694.146	2189.96
694.335	2214.54
694.524	2116.23
694.713	2103.95
694.902	2048.65
695.092	2095.75
695.281	2124.43
695.47	2165.39
695.659	2091.66
695.848	2034.32
696.037	2077.32
696.226	2089.61
696.415	2054.8
696.604	2034.32
696.793	2046.6
696.982	2030.22
697.171	2095.75
697.36	2030.22
697.549	2054.8
697.738	1897.1
697.927	1931.92
698.116	1997.45
698.305	1948.3
698.494	1999.5
698.683	1991.31
698.872	1985.16
699.061	2005.64
699.25	1962.64
699.438	1915.53
699.627	1942.16
699.816	1983.12
700.005	1876.62
700.193	1989.26
700.382	1901.2
700.571	1991.31
700.76	2030.22
700.948	1954.44
701.137	1983.12
701.326	1938.06
701.514	1974.92
701.703	2030.22
701.892	1942.16
702.08	1964.68
702.269	1899.15
702.457	1729.17
702.646	1919.63
702.834	1936.01
703.023	1901.2
703.212	1897.1
703.4	1956.49
703.589	1940.11
703.777	1931.92
703.965	1927.82
704.154	1866.38
704.342	1886.86
704.531	1909.39
704.719	1833.61
704.907	1946.25
705.096	1946.25
705.284	1833.61
705.472	1895.05
705.661	1843.85
705.849	1921.68
706.037	1942.16
706.226	1817.23
706.414	1968.78
706.602	1915.53
706.79	1860.24
706.979	1919.63
707.167	1868.43
707.355	1862.29
707.543	1804.94
707.731	1958.54
707.919	1847.95
708.107	1720.98
708.296	1864.33
708.484	1940.11
708.672	1862.29
708.86	1833.61
709.048	2024.08
709.236	1850
709.424	1796.75
709.612	1825.42
709.8	1858.19
709.988	1874.57
710.176	1931.92
710.364	1845.9
710.551	1868.43
710.739	1847.95
710.927	1847.95
711.115	1948.3
711.303	1841.81
711.491	1940.11
711.679	1917.58
711.866	1899.15
712.054	1921.68
712.242	1962.64
712.43	1954.44
712.617	1919.63
712.805	1862.29
712.993	1917.58
713.181	1766.03
713.368	1884.81
713.556	1866.38
713.744	1813.14
713.931	1923.73
714.119	1835.66
714.306	1944.2
714.494	1923.73
714.682	1872.53
714.869	1813.14
715.057	2005.64
715.244	1837.71
715.432	1907.34
715.619	1784.46
715.807	1776.27
715.994	1819.28
716.182	1966.73
716.369	1870.48
716.556	1852.05
716.744	1825.42
716.931	1962.64
717.119	1913.49
717.306	1944.2
717.493	1878.67
717.681	1866.38
717.868	2005.64
718.055	2030.22
718.242	1907.34
718.43	1882.77
718.617	1964.68
718.804	1950.35
718.991	1917.58
719.179	1911.44
719.366	1833.61
719.553	1936.01
719.74	1895.05
719.927	1956.49
720.114	1956.49
720.301	1825.42
720.488	1835.66
720.676	1915.53
720.863	1864.33
721.05	2003.6
721.237	1860.24
721.424	1903.25
721.611	1911.44
721.798	1811.09
721.985	1933.97
722.172	1804.94
722.358	1903.25
722.545	2069.13
722.732	1936.01
722.919	1843.85
723.106	1987.21
723.293	1956.49
723.48	2005.64
723.667	1940.11
723.853	1884.81
724.04	2026.12
724.227	1952.4
724.414	1907.34
724.6	1895.05
724.787	1962.64
724.974	2005.64
725.161	1976.97
725.347	1882.77
725.534	1843.85
725.72	1970.83
725.907	1948.3
726.094	1995.4
726.28	1852.05
726.467	1852.05
726.653	1952.4
726.84	2005.64
727.027	2005.64
727.213	1901.2
727.4	2034.32
727.586	2024.08
727.773	1972.88
727.959	1997.45
728.145	2065.04
728.332	1940.11
728.518	2040.46
728.705	1995.4
728.891	1974.92
729.077	1981.07
729.264	1831.57
729.45	2022.03
729.636	2017.93
729.823	1899.15
730.009	1882.77
730.195	2026.12
730.382	1995.4
730.568	1946.25
730.754	1993.36
730.94	1972.88
731.126	1991.31
731.313	1866.38
731.499	1872.53
731.685	2038.41
731.871	1985.16
732.057	1981.07
732.243	1989.26
732.429	1989.26
732.615	2013.84
732.801	1874.57
732.987	1901.2
733.173	1811.09
733.359	1956.49
733.545	1956.49
733.731	1997.45
733.917	2062.99
734.103	1952.4
734.289	1972.88
734.475	1921.68
734.661	2005.64
734.847	1890.96
735.033	1931.92
735.219	1966.73
735.404	1899.15
735.59	1966.73
735.776	1817.23
735.962	1878.67
736.148	2026.12
736.333	2013.84
736.519	2015.88
736.705	1884.81
736.89	1983.12
737.076	1948.3
737.262	1942.16
737.447	1972.88
737.633	1936.01
737.819	1931.92
738.004	2050.7
738.19	1933.97
738.375	2022.03
738.561	1960.59
738.747	1968.78
738.932	1886.86
739.118	2050.7
739.303	1989.26
739.489	1948.3
739.674	1854.09
739.859	1882.77
740.045	1817.23
740.23	1888.91
740.416	1755.79
740.601	1876.62
740.786	1827.47
740.972	1948.3
741.157	1825.42
741.342	1890.96
741.528	1766.03
741.713	1884.81
741.898	1843.85
742.084	1796.75
742.269	1843.85
742.454	1745.55
742.639	1909.39
742.824	1841.81
743.01	1882.77
743.195	1802.9
743.38	1866.38
743.565	1837.71
743.75	1796.75
743.935	1780.37
744.12	1770.13
744.305	1829.52
744.49	1794.7
744.675	1825.42
744.86	1743.5
745.045	1700.5
745.23	1731.22
745.415	1686.16
745.6	1729.17
745.785	1671.83
745.97	1624.72
746.155	1753.74
746.34	1749.65
746.525	1784.46
746.71	1792.66
746.895	1612.43
747.079	1628.82
747.264	1596.05
747.449	1698.45
747.634	1596.05
747.819	1626.77
748.003	1555.09
748.188	1637.01
748.373	1723.02
748.557	1569.43
748.742	1516.18
748.927	1544.85
749.111	1489.56
749.296	1516.18
749.481	1526.42
749.665	1579.67
749.85	1458.84
750.034	1608.34
750.219	1546.9
750.404	1413.78
750.588	1489.56
750.773	1530.52
750.957	1471.12
751.141	1458.84
751.326	1424.02
751.51	1329.81
751.695	1428.12
751.879	1501.84
752.064	1366.68
752.248	1407.64
752.432	1448.6
752.617	1442.45
752.801	1438.36
752.985	1383.06
753.17	1403.54
753.354	1428.12
753.538	1391.25
753.722	1297.05
753.907	1370.77
754.091	1313.43
754.275	1262.23
754.459	1383.06
754.643	1311.38
754.828	1288.86
755.012	1262.23
755.196	1303.19
755.38	1215.13
755.564	1206.94
755.748	1165.98
755.932	1251.99
756.116	1186.46
756.3	1198.74
756.484	1204.89
756.668	1321.62
756.852	1143.45
757.036	1071.77
757.22	1213.08
757.404	1090.2
757.588	1114.78
757.772	1229.46
757.956	1161.88
758.14	1059.48
758.323	1104.54
758.507	1170.07
758.691	1211.03
758.875	1188.5
759.059	1147.55
759.242	1065.63
759.426	1098.39
759.61	1057.43
759.794	1092.25
759.977	1063.58
760.161	1067.67
760.345	1079.96
760.528	1055.39
760.712	989.85
760.895	1030.81
761.079	1030.81
761.263	1012.38
761.446	961.18
761.63	1022.62
761.813	1073.82
761.997	1008.28
762.18	1006.24
762.364	993.95
762.547	932.51
762.731	944.8
762.914	877.21
763.098	1047.19
763.281	1008.28
763.464	971.42
763.648	977.56
763.831	854.69
764.015	924.32
764.198	920.22
764.381	903.84
764.564	916.12
764.748	838.3
764.931	983.71
765.114	948.89
765.297	942.75
765.481	809.63
765.664	942.75
765.847	938.65
766.03	879.26
766.213	952.99
766.397	918.17
766.58	887.45
766.763	830.11
766.946	877.21
767.129	901.79
767.312	778.91
767.495	957.08
767.678	862.88
767.861	916.12
768.044	842.4
768.227	889.5
768.41	866.97
768.593	793.25
768.776	940.7
768.959	834.21
769.142	801.44
769.324	768.67
769.507	889.5
769.69	869.02
769.873	821.92
770.056	903.84
770.239	817.82
770.421	819.87
770.604	776.86
770.787	834.21
770.97	815.77
771.152	783.01
771.335	744.1
771.518	768.67
771.7	748.19
771.883	785.05
772.066	762.53
772.248	746.14
772.431	828.06
772.613	715.42
772.796	662.18
772.978	785.05
773.161	807.58
773.343	795.29
773.526	682.66
773.708	688.8
773.891	694.94
774.073	744.1
774.256	686.75
774.438	789.15
774.621	776.86
774.803	705.18
774.985	653.98
775.168	703.14
775.35	629.41
775.532	610.98
775.715	649.89
775.897	715.42
776.079	647.84
776.261	744.1
776.444	639.65
776.626	653.98
776.808	670.37
776.99	572.07
777.173	656.03
777.355	696.99
777.537	686.75
777.719	606.88
777.901	576.16
778.083	694.94
778.265	522.91
778.447	578.21
778.629	604.83
778.811	666.27
778.993	535.2
779.175	580.26
779.357	615.07
779.539	580.26
779.721	559.78
779.903	604.83
780.085	578.21
780.267	506.53
780.449	594.59
780.631	531.11
780.812	553.63
780.994	590.5
781.176	510.63
781.358	559.78
781.54	535.2
781.721	539.3
781.903	555.68
782.085	551.59
782.267	543.39
782.448	447.14
782.63	539.3
782.812	506.53
782.993	486.05
783.175	535.2
783.357	498.34
783.538	404.13
783.72	492.2
783.901	428.71
784.083	494.24
784.264	418.47
784.446	404.13
784.627	434.85
784.809	492.2
784.99	408.23
785.172	469.67
785.353	430.76
785.535	371.37
785.716	369.32
785.897	426.66
786.079	457.38
786.26	344.74
786.441	412.32
786.623	350.89
786.804	408.23
786.985	465.57
787.167	424.61
787.348	348.84
787.529	412.32
787.71	432.8
787.891	410.28
788.073	346.79
788.254	354.98
788.435	397.99
788.616	375.46
788.797	318.12
788.978	330.41
789.159	365.22
789.34	320.17
789.522	354.98
789.703	254.63
789.884	371.37
790.065	301.73
790.246	340.65
790.427	406.18
790.607	344.74
790.788	352.93
790.969	391.84
791.15	320.17
791.331	295.59
791.512	371.37
791.693	322.21
791.874	334.5
792.054	316.07
792.235	318.12
792.416	303.78
792.597	266.92
792.778	248.49
792.958	268.97
793.139	221.86
793.32	359.08
793.5	322.21
793.681	238.25
793.862	322.21
794.042	303.78
794.223	273.06
794.404	225.96
794.584	221.86
794.765	268.97
794.945	318.12
795.126	256.68
795.306	293.54
795.487	264.87
795.667	234.15
795.848	244.39
796.028	236.2
796.209	268.97
796.389	334.5
796.57	301.73
796.75	301.73
796.93	291.49
797.111	230.06
797.291	236.2
797.471	195.24
797.652	211.62
797.832	230.06
798.012	236.2
798.192	301.73
798.373	164.52
798.553	240.3
798.733	246.44
798.913	252.58
799.093	219.82
799.274	246.44
799.454	279.21
799.634	170.66
799.814	287.4
799.994	230.06
800.174	262.82
800.354	213.67
800.534	219.82
800.714	264.87
800.894	141.99
801.074	178.86
801.254	228.01
801.434	252.58
801.614	244.39
801.794	244.39
801.974	817.82
802.154	191.14
802.334	240.3
802.514	236.2
802.693	277.16
802.873	154.28
803.053	260.77
803.233	264.87
803.413	236.2
803.592	164.52
803.772	113.32
803.952	189.1
804.131	232.1
804.311	160.42
804.491	232.1
804.67	133.8
804.85	105.13
805.03	232.1
805.209	172.71
805.389	182.95
805.568	197.29
805.748	203.43
805.928	242.34
806.107	189.1
806.287	146.09
806.466	232.1
806.646	150.18
806.825	248.49
807.004	158.38
807.184	236.2
807.363	105.13
807.543	141.99
807.722	191.14
807.901	182.95
808.081	170.66
808.26	154.28
808.439	168.62
808.619	119.46
808.798	117.42
808.977	180.9
809.156	199.34
809.336	133.8
809.515	203.43
809.694	180.9
809.873	146.09
810.052	164.52
810.231	221.86
810.411	133.8
810.59	164.52
810.769	174.76
810.948	236.2
811.127	117.42
811.306	105.13
811.485	182.95
811.664	246.44
811.843	187.05
812.022	115.37
812.201	125.61
812.38	131.75
812.559	92.84
812.737	172.71
812.916	125.61
813.095	113.32
813.274	168.62
813.453	94.89
813.632	131.75
813.811	150.18
813.989	105.13
814.168	98.99
814.347	160.42
814.526	137.9
814.704	244.39
814.883	133.8
815.062	88.75
815.24	127.66
815.419	68.27
815.598	80.55
815.776	64.17
815.955	101.03
816.133	45.74
816.312	125.61
816.49	90.79
816.669	123.56
816.847	105.13
817.026	154.28
817.204	158.38
817.383	68.27
817.561	60.07
817.74	125.61
817.918	58.03
818.097	92.84
818.275	58.03
818.453	176.81
818.632	105.13
818.81	121.51
818.988	39.59
819.167	84.65
819.345	172.71
819.523	76.46
819.701	101.03
819.879	129.7
820.058	125.61
820.236	146.09
820.414	146.09
820.592	55.98
820.77	66.22
820.948	115.37
821.127	72.36
821.305	47.79
821.483	115.37
821.661	117.42
821.839	178.86
822.017	68.27
822.195	174.76
822.373	162.47
822.551	117.42
822.729	49.83
822.907	39.59
823.085	88.75
823.262	105.13
823.44	131.75
823.618	15.02
823.796	96.94
823.974	156.33
824.152	8.87
824.329	64.17
824.507	137.9
824.685	131.75
824.863	156.33
825.04	154.28
825.218	144.04
825.396	64.17
825.574	43.69
825.751	66.22
825.929	84.65
826.107	66.22
826.284	121.51
826.462	109.23
826.639	55.98
826.817	51.88
826.994	105.13
827.172	98.99
827.349	103.08
827.527	119.46
827.704	74.41
827.882	92.84
828.059	43.69
828.237	96.94
828.414	51.88
828.591	66.22
828.769	92.84
828.946	41.64
829.124	121.51
829.301	150.18
829.478	88.75
829.655	47.79
829.833	74.41
830.01	2.73
830.187	82.6
830.364	15.02
830.542	55.98
830.719	86.7
830.896	107.18
831.073	82.6
831.25	72.36
831.427	133.8
831.604	-7.51
831.782	53.93
831.959	96.94
832.136	19.11
832.313	121.51
832.49	96.94
832.667	47.79
832.844	74.41
833.021	60.07
833.198	47.79
833.374	58.03
833.551	137.9
833.728	15.02
833.905	88.75
834.082	21.16
834.259	90.79
834.436	146.09
834.612	88.75
834.789	66.22
834.966	58.03
835.143	113.32
835.319	39.59
835.496	41.64
835.673	58.03
835.85	78.51
836.026	55.98
836.203	109.23
836.38	-7.51
836.556	33.45
836.733	-17.75
836.909	195.24
837.086	0.68
837.262	4.78
837.439	98.99
837.616	74.41
837.792	55.98
837.968	76.46
838.145	-9.56
838.321	86.7
838.498	23.21
838.674	6.83
838.851	80.55
839.027	-7.51
839.203	64.17
839.38	55.98
839.556	84.65
839.732	17.07
839.909	29.35
840.085	10.92
840.261	68.27
840.437	105.13
840.614	-1.37
840.79	55.98
840.966	8.87
841.142	39.59
841.318	19.11
841.494	-34.13
841.671	-42.32
841.847	21.16
842.023	-32.08
842.199	15.02
842.375	58.03
842.551	53.93
842.727	-27.99
842.903	117.42
843.079	45.74
843.255	58.03
843.431	55.98
843.607	49.83
843.783	-66.9
843.959	98.99
844.134	31.4
844.31	101.03
844.486	45.74
844.662	21.16
844.838	80.55
845.013	66.22
845.189	31.4
845.365	70.31
845.541	17.07
845.716	58.03
845.892	45.74
846.068	47.79
846.244	-9.56
846.419	82.6
846.595	8.87
846.77	58.03
846.946	109.23
847.122	35.5
847.297	-5.46
847.473	117.42
847.648	-23.89
847.824	15.02
847.999	-32.08
848.175	55.98
848.35	-9.56
848.526	62.12
848.701	68.27
848.876	25.26
849.052	27.31
849.227	-7.51
849.403	33.45
849.578	33.45
849.753	8.87
849.929	74.41
850.104	2.73
850.279	64.17
850.454	41.64
850.63	-3.41
850.805	64.17
850.98	2.73
851.155	55.98
851.33	39.59
851.505	68.27
851.681	84.65
851.856	45.74
852.031	-5.46
852.206	51.88
852.381	84.65
852.556	31.4
852.731	-9.56
852.906	90.79
853.081	-13.65
853.256	-15.7
853.431	33.45
853.606	55.98
853.781	-40.28
853.956	-11.61
854.131	74.41
854.305	49.83
854.48	-25.94
854.655	17.07
854.83	66.22
855.005	47.79
855.18	55.98
855.354	-9.56
855.529	-17.75
855.704	-17.75
855.879	55.98
856.053	-42.32
856.228	31.4
856.403	-9.56
856.577	31.4
856.752	-42.32
856.926	74.41
857.101	105.13
857.276	-17.75
857.45	23.21
857.625	-71
857.799	21.16
857.974	31.4
858.148	-56.66
858.323	74.41
858.497	19.11
858.672	80.55
858.846	-5.46
859.02	2.73
859.195	35.5
859.369	58.03
859.543	-17.75
859.718	6.83
859.892	6.83
860.066	0.68
860.241	10.92
860.415	-38.23
860.589	29.35
860.763	35.5
860.938	64.17
861.112	80.55
861.286	62.12
861.46	17.07
861.634	-1.37
861.808	-38.23
861.982	-1.37
862.157	92.84
862.331	45.74
862.505	-34.13
862.679	-44.37
862.853	0.68
863.027	-54.61
863.201	6.83
863.375	15.02
863.549	74.41
863.722	4.78
863.896	6.83
864.07	74.41
864.244	-46.42
864.418	27.31
864.592	-7.51
864.766	43.69
864.939	-21.84
865.113	45.74
865.287	51.88
865.461	-9.56
865.634	2.73
865.808	31.4
865.982	0.68
866.156	2.73
866.329	-7.51
866.503	105.13
866.676	15.02
866.85	-34.13
867.024	-58.71
867.197	-5.46
867.371	47.79
867.544	-25.94
867.718	-87.38
867.891	27.31
868.065	-25.94
868.238	92.84
868.412	43.69
868.585	-21.84
868.759	43.69
868.932	2.73
869.105	53.93
869.279	6.83
869.452	-9.56
869.625	-1.37
869.799	-5.46
869.972	-66.9
870.145	51.88
870.319	-21.84
870.492	15.02
870.665	-71
870.838	-54.61
871.011	-71
871.185	17.07
871.358	23.21
871.531	27.31
871.704	-11.61
871.877	-25.94
872.05	2.73
872.223	-60.76
872.396	25.26
872.569	39.59
872.742	-7.51
872.915	66.22
873.088	-25.94
873.261	-34.13
873.434	43.69
873.607	-21.84
873.78	-48.47
873.953	8.87
874.126	4.78
874.299	-25.94
874.471	-7.51
874.644	10.92
874.817	45.74
874.99	-50.52
875.163	37.55
875.335	-7.51
875.508	35.5
875.681	37.55
875.853	-36.18
876.026	-46.42
876.199	96.94
876.371	-54.61
876.544	-1.37
876.717	37.55
876.889	-13.65
877.062	35.5
877.234	-25.94
877.407	-46.42
877.579	33.45
877.752	15.02
877.924	6.83
878.097	23.21
878.269	-48.47
878.442	47.79
878.614	15.02
878.786	55.98
878.959	-56.66
879.131	84.65
879.303	-38.23
879.476	-7.51
879.648	72.36
879.82	21.16
879.993	-34.13
880.165	-7.51
880.337	-23.89
880.509	76.46
880.681	45.74
880.854	-30.04
881.026	8.87
881.198	-11.61
881.37	-15.7
881.542	-48.47
881.714	-34.13
881.886	-42.32
882.058	8.87
882.23	-66.9
882.402	2.73
882.574	-9.56
882.746	68.27
882.918	15.02
883.09	31.4
883.262	0.68
883.434	-7.51
883.606	-42.32
883.778	17.07
883.95	41.64
884.122	-7.51
884.293	25.26
884.465	72.36
884.637	-34.13
884.809	-83.28
884.98	-32.08
885.152	-21.84
885.324	39.59
885.496	82.6
885.667	-25.94
885.839	-38.23
886.011	-9.56
886.182	-1.37
886.354	41.64
886.525	-42.32
886.697	58.03
886.869	25.26
887.04	37.55
887.212	31.4
887.383	47.79
887.555	51.88
887.726	-62.8
887.897	-13.65
888.069	19.11
888.24	92.84
888.412	8.87
888.583	10.92
888.754	-17.75
888.926	-17.75
889.097	-36.18
889.268	-64.85
889.44	39.59
889.611	-1.37
889.782	-17.75
889.953	-46.42
890.125	6.83
890.296	-83.28
890.467	94.89
890.638	-46.42
890.809	25.26
890.98	-30.04
891.151	96.94
891.323	31.4
891.494	12.97
891.665	21.16
891.836	8.87
892.007	-42.32
892.178	-25.94
892.349	17.07
892.52	-40.28
892.691	-13.65
892.862	-11.61
893.032	10.92
893.203	-9.56
893.374	25.26
893.545	-64.85
893.716	-58.71
893.887	-21.84
894.057	17.07
894.228	88.75
894.399	-103.76
894.57	82.6
894.74	-50.52
894.911	0.68
895.082	-50.52
895.253	-13.65
895.423	-1.37
895.594	-3.41
895.764	19.11
895.935	-58.71
896.106	-5.46
896.276	0.68
896.447	-13.65
896.617	-44.37
896.788	-46.42
896.958	-93.52
897.129	-40.28
897.299	0.68
897.47	25.26
897.64	68.27
897.81	82.6
897.981	-9.56
898.151	-71
898.322	35.5
898.492	-44.37
898.662	0.68
898.832	-62.8
899.003	-62.8
899.173	-56.66
899.343	-60.76
899.513	2.73
