Data from USB4F104151__266__14-46-05-559.txt Node

Date: Thu Mar 13 14:46:05 EDT 2025
User: louis
Spectrometer: USB4F10415
Trigger mode: 4
Integration Time (sec): 2.000000E-2
Scans to average: 1
Electric dark correction enabled: true
Nonlinearity correction enabled: false
Boxcar width: 0
XAxis mode: Wavelengths
Number of Pixels in Spectrum: 3648
>>>>>Begin Spectral Data<<<<<
178.204	-116.39
178.424	-116.39
178.644	-116.39
178.864	-106.15
179.084	-136.87
179.304	-28.33
179.524	2.39
179.744	-24.23
179.964	-20.14
180.184	86.36
180.404	-7.85
180.624	-38.57
180.844	-65.19
181.064	-22.19
181.283	65.88
181.503	-7.85
181.723	59.73
181.943	2.39
182.163	0.34
182.383	12.63
182.602	43.35
182.822	74.07
183.042	18.77
183.262	-20.14
183.482	-32.43
183.701	-11.95
183.921	16.73
184.141	-73.39
184.361	-16.04
184.58	24.92
184.8	16.73
185.02	-69.29
185.239	33.11
185.459	53.59
185.679	-11.95
185.898	-26.28
186.118	53.59
186.338	35.16
186.557	-24.23
186.777	37.2
186.997	8.53
187.216	-24.23
187.436	41.3
187.655	51.54
187.875	33.11
188.095	14.68
188.314	72.02
188.534	45.4
188.753	61.78
188.973	29.01
189.192	41.3
189.412	53.59
189.631	61.78
189.851	-63.15
190.07	8.53
190.29	-11.95
190.509	43.35
190.729	31.06
190.948	67.92
191.168	135.51
191.387	-11.95
191.607	-97.96
191.826	65.88
192.045	72.02
192.265	-24.23
192.484	4.44
192.704	37.2
192.923	-32.43
193.142	106.84
193.362	110.93
193.581	-5.8
193.8	53.59
194.02	49.49
194.239	18.77
194.458	0.34
194.678	-36.52
194.897	49.49
195.116	26.96
195.335	98.64
195.555	74.07
195.774	-11.95
195.993	8.53
196.212	0.34
196.432	-20.14
196.651	2.39
196.87	18.77
197.089	125.27
197.308	74.07
197.528	-5.8
197.747	20.82
197.966	35.16
198.185	80.21
198.404	8.53
198.623	49.49
198.842	45.4
199.062	61.78
199.281	39.25
199.5	61.78
199.719	-26.28
199.938	57.68
200.157	24.92
200.376	4.44
200.595	94.55
200.814	119.12
201.033	16.73
201.252	72.02
201.471	61.78
201.69	-30.38
201.909	67.92
202.128	31.06
202.347	-34.47
202.566	-5.8
202.785	16.73
203.004	29.01
203.223	8.53
203.442	12.63
203.661	-13.99
203.879	16.73
204.098	94.55
204.317	41.3
204.536	57.68
204.755	-57
204.974	6.49
205.193	41.3
205.411	108.88
205.63	-11.95
205.849	8.53
206.068	10.58
206.287	41.3
206.505	98.64
206.724	90.45
206.943	39.25
207.162	67.92
207.381	67.92
207.599	76.12
207.818	22.87
208.037	-3.75
208.255	-42.67
208.474	88.4
208.693	86.36
208.911	-16.04
209.13	18.77
209.349	29.01
209.567	65.88
209.786	45.4
210.005	106.84
210.223	-7.85
210.442	-20.14
210.661	18.77
210.879	37.2
211.098	33.11
211.316	-26.28
211.535	94.55
211.753	94.55
211.972	26.96
212.191	-32.43
212.409	59.73
212.628	-3.75
212.846	37.2
213.065	31.06
213.283	57.68
213.502	18.77
213.72	-16.04
213.938	61.78
214.157	65.88
214.375	94.55
214.594	35.16
214.812	29.01
215.031	49.49
215.249	16.73
215.467	26.96
215.686	98.64
215.904	61.78
216.122	-46.76
216.341	74.07
216.559	90.45
216.778	51.54
216.996	102.74
217.214	65.88
217.432	53.59
217.651	-73.39
217.869	63.83
218.087	74.07
218.306	2.39
218.524	47.44
218.742	82.26
218.96	57.68
219.179	-3.75
219.397	8.53
219.615	43.35
219.833	67.92
220.051	37.2
220.27	67.92
220.488	37.2
220.706	16.73
220.924	-28.33
221.142	-22.19
221.36	8.53
221.578	33.11
221.796	4.44
222.015	45.4
222.233	18.77
222.451	125.27
222.669	18.77
222.887	-7.85
223.105	33.11
223.323	57.68
223.541	10.58
223.759	57.68
223.977	26.96
224.195	78.16
224.413	0.34
224.631	84.31
224.849	51.54
225.067	57.68
225.285	53.59
225.503	-9.9
225.721	-73.39
225.939	-65.19
226.157	74.07
226.375	131.41
226.592	43.35
226.81	24.92
227.028	49.49
227.246	45.4
227.464	63.83
227.682	26.96
227.9	43.35
228.117	65.88
228.335	90.45
228.553	24.92
228.771	172.37
228.989	24.92
229.206	49.49
229.424	0.34
229.642	12.63
229.86	-9.9
230.077	131.41
230.295	24.92
230.513	41.3
230.731	-16.04
230.948	10.58
231.166	-5.8
231.384	0.34
231.601	41.3
231.819	24.92
232.037	2.39
232.254	29.01
232.472	37.2
232.689	78.16
232.907	-22.19
233.125	-18.09
233.342	-52.91
233.56	35.16
233.777	57.68
233.995	-46.76
234.213	14.68
234.43	8.53
234.648	86.36
234.865	-20.14
235.083	41.3
235.3	49.49
235.518	-5.8
235.735	100.69
235.953	24.92
236.17	69.97
236.388	-42.67
236.605	-22.19
236.822	49.49
237.04	14.68
237.257	0.34
237.475	-5.8
237.692	61.78
237.909	-38.57
238.127	-24.23
238.344	0.34
238.562	49.49
238.779	-44.71
238.996	-54.95
239.214	35.16
239.431	29.01
239.648	6.49
239.865	106.84
240.083	37.2
240.3	-57
240.517	10.58
240.735	-3.75
240.952	18.77
241.169	90.45
241.386	51.54
241.603	-11.95
241.821	26.96
242.038	57.68
242.255	49.49
242.472	-48.81
242.689	12.63
242.907	2.39
243.124	-22.19
243.341	-7.85
243.558	24.92
243.775	57.68
243.992	-69.29
244.209	-3.75
244.426	8.53
244.643	41.3
244.86	-9.9
245.078	78.16
245.295	59.73
245.512	-28.33
245.729	-65.19
245.946	26.96
246.163	59.73
246.38	24.92
246.597	-7.85
246.814	8.53
247.031	-46.76
247.248	33.11
247.464	-3.75
247.681	31.06
247.898	110.93
248.115	106.84
248.332	-32.43
248.549	65.88
248.766	0.34
248.983	8.53
249.2	-11.95
249.417	92.5
249.633	37.2
249.85	45.4
250.067	16.73
250.284	53.59
250.501	98.64
250.717	41.3
250.934	-32.43
251.151	24.92
251.368	-13.99
251.585	49.49
251.801	49.49
252.018	12.63
252.235	84.31
252.451	61.78
252.668	-7.85
252.885	8.53
253.102	-42.67
253.318	-20.14
253.535	-5.8
253.752	57.68
253.968	-18.09
254.185	-9.9
254.401	-16.04
254.618	8.53
254.835	20.82
255.051	-7.85
255.268	35.16
255.484	24.92
255.701	37.2
255.917	41.3
256.134	-69.29
256.351	35.16
256.567	-65.19
256.784	18.77
257	2.39
257.217	16.73
257.433	41.3
257.65	29.01
257.866	-24.23
258.082	26.96
258.299	-87.72
258.515	16.73
258.732	24.92
258.948	35.16
259.165	63.83
259.381	-7.85
259.597	-24.23
259.814	41.3
260.03	-11.95
260.246	-7.85
260.463	24.92
260.679	139.6
260.895	41.3
261.112	90.45
261.328	33.11
261.544	49.49
261.761	43.35
261.977	8.53
262.193	-5.8
262.409	37.2
262.626	6.49
262.842	98.64
263.058	33.11
263.274	37.2
263.49	-1.71
263.707	59.73
263.923	33.11
264.139	22.87
264.355	29.01
264.571	69.97
264.787	49.49
265.004	26.96
265.22	100.69
265.436	84.31
265.652	-1.71
265.868	16.73
266.084	-13.99
266.3	18.77
266.516	-24.23
266.732	45.4
266.948	74.07
267.164	-3.75
267.38	39.25
267.596	4.44
267.812	31.06
268.028	16.73
268.244	33.11
268.46	18.77
268.676	-16.04
268.892	41.3
269.108	0.34
269.324	8.53
269.54	-52.91
269.756	65.88
269.972	4.44
270.188	41.3
270.403	31.06
270.619	20.82
270.835	43.35
271.051	26.96
271.267	-59.05
271.483	22.87
271.698	57.68
271.914	-5.8
272.13	24.92
272.346	61.78
272.562	10.58
272.777	45.4
272.993	16.73
273.209	51.54
273.425	-11.95
273.64	10.58
273.856	29.01
274.072	-11.95
274.287	41.3
274.503	65.88
274.719	61.78
274.934	35.16
275.15	4.44
275.366	61.78
275.581	-65.19
275.797	57.68
276.012	82.26
276.228	-5.8
276.444	24.92
276.659	135.51
276.875	39.25
277.09	4.44
277.306	-28.33
277.521	41.3
277.737	35.16
277.952	51.54
278.168	43.35
278.383	33.11
278.599	39.25
278.814	108.88
279.03	6.49
279.245	90.45
279.461	49.49
279.676	20.82
279.892	-11.95
280.107	-32.43
280.322	-24.23
280.538	43.35
280.753	-71.34
280.969	37.2
281.184	53.59
281.399	-28.33
281.615	22.87
281.83	74.07
282.045	20.82
282.26	47.44
282.476	-5.8
282.691	139.6
282.906	8.53
283.122	-22.19
283.337	8.53
283.552	123.22
283.767	16.73
283.983	12.63
284.198	41.3
284.413	-5.8
284.628	84.31
284.843	65.88
285.058	-26.28
285.274	65.88
285.489	-57
285.704	90.45
285.919	-3.75
286.134	141.65
286.349	53.59
286.564	-24.23
286.779	37.2
286.995	26.96
287.21	-89.77
287.425	65.88
287.64	4.44
287.855	-54.95
288.07	-24.23
288.285	49.49
288.5	92.5
288.715	0.34
288.93	-7.85
289.145	45.4
289.36	-24.23
289.575	-3.75
289.79	39.25
290.004	-26.28
290.219	84.31
290.434	-67.24
290.649	74.07
290.864	4.44
291.079	53.59
291.294	65.88
291.509	24.92
291.724	33.11
291.938	35.16
292.153	26.96
292.368	43.35
292.583	-9.9
292.798	53.59
293.012	74.07
293.227	65.88
293.442	-24.23
293.657	-52.91
293.871	24.92
294.086	-16.04
294.301	69.97
294.516	53.59
294.73	33.11
294.945	-7.85
295.16	-16.04
295.374	67.92
295.589	16.73
295.804	-46.76
296.018	0.34
296.233	20.82
296.447	41.3
296.662	43.35
296.877	26.96
297.091	67.92
297.306	33.11
297.52	0.34
297.735	26.96
297.949	102.74
298.164	14.68
298.378	4.44
298.593	-28.33
298.807	41.3
299.022	45.4
299.236	20.82
299.451	-24.23
299.665	57.68
299.88	-7.85
300.094	24.92
300.309	43.35
300.523	57.68
300.737	51.54
300.952	33.11
301.166	82.26
301.381	45.4
301.595	29.01
301.809	43.35
302.024	45.4
302.238	8.53
302.452	16.73
302.667	24.92
302.881	-28.33
303.095	47.44
303.309	6.49
303.524	12.63
303.738	-20.14
303.952	18.77
304.166	0.34
304.381	-16.04
304.595	98.64
304.809	88.4
305.023	-32.43
305.237	22.87
305.452	98.64
305.666	102.74
305.88	-7.85
306.094	41.3
306.308	-28.33
306.522	115.03
306.736	12.63
306.95	49.49
307.164	47.44
307.379	92.5
307.593	98.64
307.807	35.16
308.021	98.64
308.235	14.68
308.449	16.73
308.663	10.58
308.877	16.73
309.091	65.88
309.305	94.55
309.519	4.44
309.733	24.92
309.947	14.68
310.161	8.53
310.374	115.03
310.588	22.87
310.802	53.59
311.016	26.96
311.23	-16.04
311.444	69.97
311.658	6.49
311.872	41.3
312.085	108.88
312.299	76.12
312.513	57.68
312.727	98.64
312.941	-36.52
313.154	4.44
313.368	69.97
313.582	-26.28
313.796	6.49
314.009	55.64
314.223	-36.52
314.437	10.58
314.651	57.68
314.864	4.44
315.078	-36.52
315.292	82.26
315.505	43.35
315.719	78.16
315.933	41.3
316.146	-24.23
316.36	-16.04
316.573	108.88
316.787	16.73
317.001	57.68
317.214	-26.28
317.428	-7.85
317.641	-65.19
317.855	65.88
318.068	49.49
318.282	49.49
318.495	-44.71
318.709	57.68
318.922	0.34
319.136	84.31
319.349	41.3
319.563	24.92
319.776	59.73
319.99	4.44
320.203	45.4
320.417	-32.43
320.63	76.12
320.843	92.5
321.057	41.3
321.27	29.01
321.483	63.83
321.697	39.25
321.91	8.53
322.124	53.59
322.337	59.73
322.55	8.53
322.763	-24.23
322.977	-16.04
323.19	57.68
323.403	24.92
323.617	-22.19
323.83	24.92
324.043	4.44
324.256	18.77
324.469	-20.14
324.683	49.49
324.896	57.68
325.109	65.88
325.322	10.58
325.535	31.06
325.748	90.45
325.962	65.88
326.175	24.92
326.388	2.39
326.601	12.63
326.814	74.07
327.027	0.34
327.24	69.97
327.453	-5.8
327.666	49.49
327.879	76.12
328.092	16.73
328.305	127.32
328.518	33.11
328.731	-36.52
328.944	-40.62
329.157	10.58
329.37	41.3
329.583	37.2
329.796	43.35
330.009	33.11
330.222	51.54
330.435	16.73
330.648	12.63
330.861	20.82
331.073	67.92
331.286	125.27
331.499	-5.8
331.712	-7.85
331.925	2.39
332.138	49.49
332.35	90.45
332.563	76.12
332.776	82.26
332.989	-5.8
333.202	80.21
333.414	-16.04
333.627	16.73
333.84	2.39
334.053	94.55
334.265	12.63
334.478	35.16
334.691	16.73
334.903	67.92
335.116	-36.52
335.329	18.77
335.541	-13.99
335.754	20.82
335.966	-1.71
336.179	22.87
336.392	4.44
336.604	51.54
336.817	26.96
337.029	90.45
337.242	92.5
337.454	33.11
337.667	57.68
337.88	-5.8
338.092	49.49
338.305	67.92
338.517	-11.95
338.729	24.92
338.942	61.78
339.154	41.3
339.367	-28.33
339.579	59.73
339.792	110.93
340.004	45.4
340.217	57.68
340.429	139.6
340.641	35.16
340.854	33.11
341.066	45.4
341.278	51.54
341.491	82.26
341.703	51.54
341.915	26.96
342.128	-13.99
342.34	35.16
342.552	0.34
342.764	45.4
342.977	74.07
343.189	43.35
343.401	20.82
343.613	35.16
343.826	57.68
344.038	4.44
344.25	108.88
344.462	51.54
344.674	67.92
344.886	22.87
345.099	74.07
345.311	-3.75
345.523	90.45
345.735	-16.04
345.947	33.11
346.159	12.63
346.371	63.83
346.583	-13.99
346.795	98.64
347.007	-32.43
347.219	24.92
347.431	35.16
347.643	33.11
347.855	-22.19
348.067	100.69
348.279	-40.62
348.491	-46.76
348.703	4.44
348.915	84.31
349.127	-5.8
349.339	-24.23
349.551	-18.09
349.763	-22.19
349.975	43.35
350.187	139.6
350.399	-16.04
350.61	47.44
350.822	-48.81
351.034	8.53
351.246	41.3
351.458	-24.23
351.669	53.59
351.881	65.88
352.093	14.68
352.305	10.58
352.517	33.11
352.728	20.82
352.94	41.3
353.152	33.11
353.363	-7.85
353.575	10.58
353.787	14.68
353.999	35.16
354.21	63.83
354.422	-81.58
354.633	-16.04
354.845	4.44
355.057	0.34
355.268	67.92
355.48	135.51
355.692	-3.75
355.903	14.68
356.115	57.68
356.326	-24.23
356.538	90.45
356.749	133.46
356.961	55.64
357.172	-7.85
357.384	18.77
357.595	106.84
357.807	-40.62
358.018	57.68
358.23	-73.39
358.441	24.92
358.653	61.78
358.864	8.53
359.075	-7.85
359.287	14.68
359.498	74.07
359.709	76.12
359.921	69.97
360.132	74.07
360.344	57.68
360.555	43.35
360.766	-32.43
360.977	-38.57
361.189	94.55
361.4	41.3
361.611	106.84
361.823	55.64
362.034	78.16
362.245	4.44
362.456	33.11
362.667	59.73
362.879	-7.85
363.09	76.12
363.301	49.49
363.512	49.49
363.723	8.53
363.935	14.68
364.146	65.88
364.357	-52.91
364.568	57.68
364.779	8.53
364.99	53.59
365.201	41.3
365.412	115.03
365.623	-85.67
365.834	12.63
366.045	67.92
366.256	37.2
366.467	49.49
366.678	-32.43
366.889	-7.85
367.1	-46.76
367.311	72.02
367.522	39.25
367.733	78.16
367.944	24.92
368.155	18.77
368.366	84.31
368.577	33.11
368.788	57.68
368.999	16.73
369.209	-3.75
369.42	100.69
369.631	115.03
369.842	-1.71
370.053	22.87
370.264	12.63
370.474	76.12
370.685	12.63
370.896	57.68
371.107	59.73
371.317	90.45
371.528	12.63
371.739	49.49
371.95	0.34
372.16	63.83
372.371	33.11
372.582	-24.23
372.792	74.07
373.003	90.45
373.214	-7.85
373.424	74.07
373.635	-7.85
373.846	8.53
374.056	-9.9
374.267	51.54
374.477	69.97
374.688	33.11
374.898	33.11
375.109	24.92
375.319	-52.91
375.53	45.4
375.74	69.97
375.951	41.3
376.161	78.16
376.372	69.97
376.582	49.49
376.793	24.92
377.003	-36.52
377.214	37.2
377.424	45.4
377.635	35.16
377.845	-24.23
378.055	100.69
378.266	2.39
378.476	26.96
378.686	16.73
378.897	-13.99
379.107	41.3
379.317	51.54
379.528	-5.8
379.738	57.68
379.948	12.63
380.158	80.21
380.369	-32.43
380.579	-5.8
380.789	65.88
380.999	20.82
381.21	-16.04
381.42	106.84
381.63	-32.43
381.84	2.39
382.05	82.26
382.261	57.68
382.471	67.92
382.681	-32.43
382.891	72.02
383.101	43.35
383.311	-16.04
383.521	12.63
383.731	65.88
383.941	37.2
384.151	96.6
384.361	24.92
384.571	16.73
384.781	12.63
384.991	26.96
385.201	112.98
385.411	74.07
385.621	-5.8
385.831	16.73
386.041	51.54
386.251	82.26
386.461	57.68
386.671	8.53
386.881	-5.8
387.091	-7.85
387.301	8.53
387.511	84.31
387.72	16.73
387.93	67.92
388.14	-38.57
388.35	72.02
388.56	86.36
388.769	33.11
388.979	8.53
389.189	-16.04
389.399	33.11
389.609	90.45
389.818	86.36
390.028	26.96
390.238	49.49
390.447	53.59
390.657	16.73
390.867	65.88
391.076	-57
391.286	76.12
391.496	86.36
391.705	65.88
391.915	151.89
392.125	49.49
392.334	65.88
392.544	35.16
392.753	33.11
392.963	-7.85
393.172	137.56
393.382	16.73
393.591	141.65
393.801	67.92
394.01	61.78
394.22	78.16
394.429	10.58
394.639	74.07
394.848	131.41
395.058	100.69
395.267	-9.9
395.477	65.88
395.686	65.88
395.895	96.6
396.105	147.8
396.314	53.59
396.524	90.45
396.733	65.88
396.942	98.64
397.152	104.79
397.361	141.65
397.57	178.51
397.78	92.5
397.989	67.92
398.198	10.58
398.407	76.12
398.617	98.64
398.826	57.68
399.035	57.68
399.244	86.36
399.453	65.88
399.663	94.55
399.872	131.41
400.081	59.73
400.29	51.54
400.499	33.11
400.708	176.47
400.917	61.78
401.127	137.56
401.336	86.36
401.545	133.46
401.754	123.22
401.963	131.41
402.172	57.68
402.381	65.88
402.59	37.2
402.799	92.5
403.008	53.59
403.217	84.31
403.426	86.36
403.635	158.03
403.844	155.99
404.053	160.08
404.262	102.74
404.471	57.68
404.68	110.93
404.888	63.83
405.097	123.22
405.306	137.56
405.515	139.6
405.724	190.8
405.933	123.22
406.142	115.03
406.35	164.18
406.559	213.33
406.768	119.12
406.977	207.19
407.185	172.37
407.394	133.46
407.603	188.75
407.812	196.95
408.02	190.8
408.229	194.9
408.438	196.95
408.646	86.36
408.855	180.56
409.064	246.1
409.272	153.94
409.481	250.19
409.69	147.8
409.898	209.23
410.107	198.99
410.315	332.11
410.524	248.15
410.733	258.39
410.941	270.67
411.15	303.44
411.358	278.87
411.567	340.3
411.775	289.1
411.984	321.87
412.192	313.68
412.401	334.16
412.609	405.84
412.818	391.5
413.026	461.13
413.234	459.09
413.443	301.39
413.651	420.17
413.86	467.28
414.068	414.03
414.276	518.48
414.485	516.43
414.693	485.71
414.901	592.2
415.11	524.62
415.318	532.81
415.526	598.35
415.734	631.12
415.943	616.78
416.151	676.17
416.359	690.51
416.567	665.93
416.776	745.8
416.984	762.19
417.192	803.15
417.4	737.61
417.608	774.47
417.817	862.54
418.025	801.1
418.233	905.54
418.441	880.97
418.649	928.07
418.857	930.12
419.065	1014.09
419.273	954.69
419.481	985.41
419.689	1141.06
419.897	1081.67
420.105	1165.64
420.313	1231.17
420.521	1233.22
420.729	1231.17
420.937	1278.27
421.145	1247.55
421.353	1431.87
421.561	1542.46
421.769	1491.26
421.977	1534.27
422.185	1554.75
422.393	1622.33
422.601	1681.72
422.809	1777.98
423.017	1737.02
423.224	1753.4
423.432	1818.94
423.64	1806.65
423.848	2113.85
424.056	1952.06
424.263	2115.89
424.471	2148.66
424.679	2302.26
424.887	2236.72
425.094	2384.18
425.302	2332.98
425.51	2492.72
425.718	2609.45
425.925	2664.75
426.133	2658.6
426.341	2892.07
426.548	2924.84
426.756	2904.36
426.964	3109.16
427.171	3285.28
427.379	3305.76
427.586	3178.79
427.794	3320.1
428.001	3504.42
428.209	3596.57
428.417	3662.11
428.624	3819.8
428.832	3866.91
429.039	3834.14
429.247	3819.8
429.454	4221.2
429.662	4555.02
429.869	4227.35
430.076	4452.63
430.284	4350.23
430.491	4466.96
430.699	4679.95
430.906	4811.02
431.114	4874.51
431.321	5040.39
431.528	5193.99
431.736	5597.44
431.943	5808.38
432.15	5662.97
432.358	5751.04
432.565	6080.76
432.772	6039.8
432.979	6152.44
433.187	6314.23
433.394	6207.73
433.601	6834.41
433.808	6775.02
434.016	6856.94
434.223	6975.72
434.43	7448.8
434.637	7291.11
434.844	7909.6
435.052	7962.84
435.259	7862.49
435.466	7966.94
435.673	7856.35
435.88	8435.92
436.087	8837.33
436.294	8921.29
436.501	8634.58
436.708	8872.14
436.915	9029.84
437.122	9453.77
437.329	9547.97
437.537	9906.37
437.743	9826.5
437.95	9726.14
438.157	10469.56
438.364	10731.7
438.571	10913.97
438.778	10881.2
438.985	11643.04
439.192	11219.11
439.399	11579.56
439.606	11727.01
439.813	12132.51
440.02	12804.24
440.227	12574.87
440.433	12466.33
440.64	13054.09
440.847	12877.97
441.054	13293.71
441.261	14094.46
441.467	13811.84
441.674	13908.1
441.881	14504.06
442.088	14452.86
442.294	14465.14
442.501	15018.1
442.708	14874.74
442.914	15511.66
443.121	16238.69
443.328	15949.92
443.534	16771.16
443.741	16392.28
443.948	16281.69
444.154	17565.77
444.361	17277.01
444.568	17270.86
444.774	17514.57
444.981	17557.58
445.187	18223.17
445.394	18720.82
445.6	18776.12
445.807	20416.54
446.013	19652.65
446.22	19886.12
446.426	20635.67
446.633	20850.71
446.839	21848.07
447.046	20697.11
447.252	21889.03
447.459	22042.63
447.665	21714.95
447.871	23037.94
448.078	23529.45
448.284	22587.39
448.491	23195.64
448.697	23977.96
448.903	24750.04
449.11	24707.04
449.316	24123.37
449.522	25010.14
449.728	25495.5
449.935	25696.21
450.141	25794.51
450.347	26394.56
450.553	25554.9
450.76	25718.73
450.966	26668.99
451.172	26298.31
451.378	27350.96
451.584	26703.81
451.791	27062.2
451.997	27492.27
452.203	27568.05
452.409	27418.55
452.615	27879.34
452.821	26503.1
453.027	26359.75
453.233	27842.48
453.44	26902.46
453.646	27092.92
453.852	26994.62
454.058	27862.96
454.264	26779.58
454.47	27232.18
454.676	26644.41
454.882	27822
455.088	25235.41
455.294	25810.89
455.5	26251.2
455.705	26558.4
455.911	25157.59
456.117	24917.98
456.323	24502.24
456.529	23330.8
456.735	24408.03
456.941	23590.89
457.147	23506.93
457.352	22398.98
457.558	22497.28
457.764	22564.86
457.97	22177.79
458.176	21653.51
458.381	21430.29
458.587	20553.76
458.793	20625.43
458.999	19349.55
459.204	20922.39
459.41	20176.93
459.616	19011.64
459.821	19046.45
460.027	19007.54
460.233	18622.52
460.438	17942.6
460.644	18014.27
460.85	17442.89
461.055	17219.66
461.261	16881.75
461.466	15648.87
461.672	15001.71
461.878	16087.14
462.083	15263.85
462.289	14835.83
462.494	14549.11
462.7	14170.24
462.905	13582.47
463.111	14278.78
463.316	14354.55
463.522	14000.26
463.727	13908.1
463.932	13865.09
464.138	13967.49
464.343	14092.41
464.549	13480.07
464.754	13817.99
464.959	13674.63
465.165	13340.81
465.37	13232.27
465.575	12822.67
465.781	13125.77
465.986	13234.32
466.191	12769.43
466.397	12691.6
466.602	11659.43
466.807	12435.61
467.012	12386.46
467.218	12269.72
467.423	12202.14
467.628	12271.77
467.833	12800.15
468.038	12372.12
468.244	12034.21
468.449	12603.54
468.654	12069.02
468.859	11839.65
469.064	11806.88
469.269	11339.94
469.474	11421.86
469.679	11589.8
469.885	11485.35
470.09	11579.56
470.295	11415.72
470.5	11374.76
470.705	11331.75
470.91	11280.55
471.115	10735.79
471.32	11141.29
471.525	11219.11
471.73	10858.67
471.935	10590.39
472.139	10307.77
472.344	10487.99
472.549	10338.49
472.754	10283.19
472.959	10158.27
473.164	9963.71
473.369	9863.36
473.574	10289.34
473.778	9947.33
473.983	10014.91
474.188	9930.94
474.393	9668.8
474.598	9752.77
474.802	9550.02
475.007	9404.61
475.212	9486.53
475.417	8995.02
475.621	9019.6
475.826	9070.79
476.031	8806.61
476.235	8790.22
476.44	8855.76
476.645	8739.02
476.849	8806.61
477.054	8587.47
477.259	8472.79
477.463	8472.79
477.668	8349.91
477.872	8366.29
478.077	8243.42
478.282	8009.95
478.486	7936.22
478.691	7975.13
478.895	7942.36
479.1	7774.43
479.304	7852.25
479.509	7631.07
479.713	7788.77
479.918	7608.55
480.122	7424.23
480.326	7678.18
480.531	7553.25
480.735	7500
480.94	7477.48
481.144	7725.28
481.348	7260.39
481.553	7438.56
481.757	7274.73
481.961	7233.77
482.166	7430.37
482.37	7268.58
482.574	7149.8
482.778	7274.73
482.983	7497.95
483.187	7348.45
483.391	7256.29
483.595	7344.36
483.8	7182.57
484.004	7264.49
484.208	7370.98
484.412	7401.7
484.616	7381.22
484.821	7024.87
485.025	7096.55
485.229	7387.36
485.433	7237.86
485.637	7135.46
485.841	7248.1
486.045	7239.91
486.249	7258.34
486.453	7192.81
486.657	7170.28
486.861	7293.16
487.065	7194.86
487.269	7366.88
487.473	6979.82
487.677	7389.41
487.881	7239.91
488.085	7373.03
488.289	7274.73
488.493	7315.69
488.697	7483.62
488.901	7323.88
489.105	7219.43
489.309	7313.64
489.512	7260.39
489.716	7413.99
489.92	7411.94
490.124	7280.87
490.328	7563.49
490.531	7244.01
490.735	7528.67
490.939	7465.19
491.143	7430.37
491.346	7479.52
491.55	7688.42
491.754	7616.74
491.958	7725.28
492.161	7733.47
492.365	7696.61
492.569	7717.09
492.772	7784.67
492.976	7975.13
493.18	7776.48
493.383	7946.46
493.587	8106.2
493.79	8007.9
493.994	7880.93
494.197	8083.67
494.401	8163.54
494.605	8208.6
494.808	8435.92
495.012	8220.89
495.215	8300.76
495.419	8458.45
495.622	8175.83
495.825	8519.89
496.029	8569.04
496.232	8693.97
496.436	8634.58
496.639	8976.59
496.843	8784.08
497.046	8929.49
497.249	8911.05
497.453	9050.32
497.656	9302.22
497.859	9396.42
498.063	9482.44
498.266	9507.01
498.469	9476.29
498.673	9676.99
498.876	10027.2
499.079	9928.89
499.282	9994.43
499.485	10008.76
499.689	10170.55
499.892	10289.34
500.095	10162.36
500.298	10584.24
500.501	10393.78
500.705	10889.39
500.908	10799.28
501.111	11204.78
501.314	11215.02
501.517	11264.17
501.72	11401.38
501.923	11464.87
502.126	11692.19
502.329	11892.9
502.532	11751.59
502.735	12105.88
502.938	12288.15
503.141	12345.5
503.344	12509.33
503.547	12552.34
503.75	12767.38
503.953	12847.25
504.156	13017.23
504.359	13189.26
504.562	13197.45
504.765	13609.09
504.968	13643.91
505.17	13537.41
505.373	13564.04
505.576	14065.79
505.779	14164.09
505.982	14172.29
506.185	14485.62
506.387	14563.45
506.59	14520.44
506.793	15239.28
506.996	14968.94
507.198	15388.78
507.401	15272.04
507.604	15843.43
507.807	15849.57
508.009	15933.54
508.212	16238.69
508.415	16261.21
508.617	16371.8
508.82	16404.57
509.022	16480.35
509.225	17084.5
509.428	16982.1
509.63	17264.72
509.833	16982.1
510.035	17649.74
510.238	17397.84
510.44	17944.64
510.643	18153.54
510.845	18454.59
511.048	18487.36
511.25	18741.3
511.453	18882.61
511.655	19435.56
511.858	18964.53
512.06	19593.26
512.262	19433.52
512.465	19578.92
512.667	19902.5
512.87	20326.43
513.072	20240.42
513.274	20463.65
513.477	20733.98
513.679	20729.88
513.881	21291.02
514.084	21229.59
514.286	21434.38
514.488	21690.38
514.69	22421.5
514.893	22372.35
515.095	22509.57
515.297	22491.13
515.499	22956.02
515.701	23099.38
515.904	23070.71
516.106	23085.05
516.308	23660.52
516.51	23787.5
516.712	23842.79
516.914	24334.31
517.116	24371.17
517.318	24618.97
517.52	24688.6
517.722	24887.26
517.925	25245.65
518.127	25520.08
518.329	25872.33
518.531	25669.58
518.733	26386.37
518.935	26116.04
519.136	26279.88
519.338	26763.2
519.54	26580.93
519.742	27092.92
519.944	27275.19
520.146	27692.97
520.348	27809.71
520.55	27703.21
520.752	28473.25
520.954	28569.51
521.155	28299.17
521.357	28805.02
521.559	28729.25
521.761	29392.79
521.963	29593.49
522.164	29636.5
522.366	29810.57
522.568	30244.74
522.77	30113.67
522.971	30633.86
523.173	30523.27
523.375	30814.08
523.576	30816.13
523.778	30879.61
523.98	31186.81
524.181	31326.07
524.383	31807.34
524.584	31592.31
524.786	31883.12
524.988	31772.53
525.189	32360.3
525.391	32511.85
525.592	32530.28
525.794	32425.83
525.995	32683.87
526.197	32671.59
526.398	32616.29
526.6	33259.35
526.801	33169.24
527.003	33402.71
527.204	33566.55
527.406	33902.42
527.607	33568.6
527.808	33802.07
528.01	33410.9
528.211	33601.36
528.412	34647.88
528.614	34135.88
528.815	34352.97
529.016	34432.84
529.218	34101.07
529.419	34766.66
529.62	34658.12
529.822	34465.61
530.023	34645.83
530.224	34520.9
530.425	34492.23
530.626	34529.09
530.828	34527.05
531.029	35352.38
531.23	34602.82
531.431	34811.71
531.632	35139.39
531.833	34799.43
532.035	35114.81
532.236	35376.95
532.437	35559.22
532.638	35090.24
532.839	35376.95
533.04	35632.95
533.241	35018.56
533.442	35604.28
533.643	35112.77
533.844	35151.68
534.045	35469.11
534.246	35411.77
534.447	35540.79
534.648	35331.9
534.849	35632.95
535.05	35370.81
535.251	35516.22
535.451	35190.59
535.652	35368.76
535.853	35307.32
536.054	35774.26
536.255	35725.11
536.456	35485.5
536.657	35694.39
536.857	35432.25
537.058	35430.2
537.259	36198.19
537.46	35694.39
537.66	35473.21
537.861	35663.67
538.062	35446.58
538.263	35397.43
538.463	35604.28
538.664	35489.59
538.865	35694.39
539.065	35800.88
539.266	35206.97
539.466	35790.64
539.667	35030.85
539.868	36052.78
540.068	35088.19
540.269	35612.47
540.469	35553.08
540.67	35645.24
540.87	35483.45
541.071	35532.6
541.271	35499.83
541.472	35579.7
541.672	35563.32
541.873	35432.25
542.073	35108.67
542.274	35630.9
542.474	35618.61
542.675	35270.46
542.875	35422.01
543.075	35438.39
543.276	35063.61
543.476	35385.15
543.676	35372.86
543.877	35759.92
544.077	35481.4
544.277	35387.19
544.478	35229.5
544.678	35323.71
544.878	35260.22
545.078	35409.72
545.279	35047.23
545.479	35129.15
545.679	35360.57
545.879	35020.61
546.079	35200.83
546.28	35174.2
546.48	34959.17
546.68	35589.94
546.88	35501.88
547.08	35141.44
547.28	35161.92
547.48	34697.03
547.68	35239.74
547.88	35133.25
548.081	35071.81
548.281	35360.57
548.481	34854.72
548.681	35174.2
548.881	34936.64
549.081	35137.34
549.28	34766.66
549.48	35223.36
549.68	34924.35
549.88	35671.86
550.08	34940.74
550.28	35252.03
550.48	34887.49
550.68	35493.69
550.88	34928.45
551.08	35080
551.279	35067.71
551.479	34840.39
551.679	35249.98
551.879	34651.97
552.079	34766.66
552.278	35204.92
552.478	35145.53
552.678	34934.59
552.878	35252.03
553.077	34944.83
553.277	34451.27
553.477	35135.29
553.676	34852.67
553.876	34824
554.076	34457.42
554.275	34672.45
554.475	34238.28
554.674	34371.4
554.874	34819.91
555.074	34443.08
555.273	35018.56
555.473	34639.68
555.672	34404.17
555.872	34195.28
556.071	34879.3
556.271	34760.51
556.47	34522.95
556.67	34201.42
556.869	34434.89
557.068	34574.15
557.268	33949.52
557.467	34656.07
557.667	34137.93
557.866	34324.3
558.065	34193.23
558.265	33714
558.464	34135.88
558.663	34326.35
558.863	33967.95
559.062	34185.04
559.261	33877.84
559.461	34316.11
559.66	33668.95
559.859	33840.98
560.058	33347.42
560.258	33802.07
560.457	33441.62
560.656	33750.87
560.855	33836.88
561.054	34017.1
561.253	33318.74
561.453	33683.28
561.652	33427.29
561.851	33625.94
562.05	33470.29
562.249	33265.5
562.448	33191.77
562.647	33257.31
562.846	32997.21
563.045	33382.23
563.244	33070.94
563.443	33159
563.642	32470.89
563.841	33212.25
564.04	32913.25
564.239	32669.54
564.438	32374.63
564.637	32810.85
564.836	32798.56
565.035	32370.54
565.234	32751.46
565.432	32350.06
565.631	32411.49
565.83	32665.44
566.029	32257.9
566.228	32528.23
566.427	32132.97
566.625	32036.72
566.824	32049
567.023	32051.05
567.222	31592.31
567.42	31876.97
567.619	31520.63
567.818	31592.31
568.016	31940.46
568.215	31584.12
568.414	31813.49
568.612	31891.31
568.811	31334.26
569.01	31151.99
569.208	30990.2
569.407	31577.97
569.605	30838.65
569.804	31539.06
570.002	31008.64
570.201	30826.37
570.4	31080.32
570.598	30656.39
570.797	30508.93
570.995	30398.34
571.193	30533.51
571.392	30658.43
571.59	30420.87
571.789	30455.68
571.987	30316.42
572.186	30379.91
572.384	29910.92
572.582	30177.16
572.781	30171.02
572.979	29714.32
573.177	30111.63
573.376	29855.63
573.574	29878.16
573.772	29888.4
573.971	29638.55
574.169	29247.38
574.367	29558.67
574.565	29474.71
574.763	29523.86
574.962	29288.34
575.16	29038.49
575.358	29280.15
575.556	29101.98
575.754	29415.32
575.952	28825.5
576.151	29329.3
576.349	28934.04
576.547	29011.87
576.745	28604.32
576.943	28565.41
577.141	28616.61
577.339	28495.78
577.537	28620.7
577.735	28364.71
577.933	27991.98
578.131	28250.02
578.329	28149.67
578.527	27983.79
578.725	27840.43
578.923	28069.8
579.121	28129.19
579.319	28073.9
579.516	27865
579.714	27903.92
579.912	27365.3
580.11	27305.91
580.308	27508.66
580.506	27555.76
580.704	27092.92
580.901	27260.85
581.099	27574.19
581.297	26841.02
581.495	27035.58
581.692	27436.98
581.89	26810.3
582.088	26947.51
582.285	26718.14
582.483	26714.05
582.681	26681.28
582.878	26400.71
583.076	26208.2
583.274	26632.13
583.471	26335.17
583.669	26617.79
583.866	26261.44
584.064	26093.51
584.262	25921.48
584.459	26392.51
584.657	26173.38
584.854	26335.17
585.052	25602
585.249	25714.64
585.447	25712.59
585.644	25108.44
585.841	25495.5
586.039	25798.6
586.236	25294.8
586.434	25573.33
586.631	25182.17
586.828	25384.91
587.026	25257.94
587.223	24934.36
587.42	25249.75
587.618	25030.62
587.815	24670.17
588.012	24840.15
588.21	24590.3
588.407	25294.8
588.604	24774.62
588.801	24457.18
588.999	24641.5
589.196	24227.81
589.393	24428.51
589.59	24326.11
589.787	24072.17
589.984	24127.46
590.182	24297.44
590.379	23920.62
590.576	23844.84
590.773	23678.96
590.97	23599.09
591.167	23844.84
591.364	23910.38
591.561	23642.09
591.758	23748.59
591.955	23547.89
592.152	23640.04
592.349	23365.62
592.546	23439.34
592.743	23459.82
592.94	22841.34
593.137	23242.74
593.334	23160.82
593.531	22599.68
593.727	23039.99
593.924	23001.08
594.121	22538.24
594.318	22525.95
594.515	22499.33
594.712	22792.19
594.908	22745.08
595.105	22593.53
595.302	22157.32
595.499	22288.39
595.696	22417.41
595.892	22175.75
596.089	22067.2
596.286	22212.61
596.482	21760.01
596.679	21895.18
596.876	22030.34
597.072	21878.79
597.269	22032.39
597.466	21424.14
597.662	21602.32
597.859	21733.39
598.055	21448.72
598.252	21489.68
598.448	21311.5
598.645	21585.93
598.841	21098.52
599.038	21364.75
599.234	21295.12
599.431	20758.55
599.627	20946.97
599.824	20776.98
600.02	21018.64
600.217	21059.6
600.413	20799.51
600.609	20482.08
600.806	20600.86
601.002	20815.9
601.198	20475.93
601.395	20289.57
601.591	20447.26
601.787	20258.85
601.984	20318.24
602.18	20467.74
602.376	20054.05
602.572	20062.24
602.769	19986.47
602.965	19908.65
603.161	20166.69
603.357	19849.25
603.553	19839.01
603.75	19675.18
603.946	19533.87
604.142	19617.83
604.338	19359.79
604.534	19441.71
604.73	19447.85
604.926	19341.36
605.122	19580.97
605.318	19222.58
605.514	19167.28
605.71	18876.47
605.906	19118.13
606.102	19140.66
606.298	19077.17
606.494	18876.47
606.69	19015.73
606.886	18878.52
607.082	18552.89
607.278	18899
607.474	18448.44
607.67	18511.93
607.866	18391.1
608.062	18772.02
608.257	18563.13
608.453	18413.63
608.649	18538.55
608.845	18522.17
609.041	18311.23
609.236	18284.61
609.432	18243.65
609.628	18217.02
609.824	18309.18
610.019	17920.07
610.215	18083.91
610.411	18059.33
610.606	18008.13
610.802	18036.8
610.998	17924.16
611.193	17958.98
611.389	17711.18
611.584	17530.95
611.78	17352.78
611.976	17885.25
612.171	17901.64
612.367	17455.18
612.562	17557.58
612.758	17262.67
612.953	17596.49
613.149	17655.88
613.344	17236.05
613.539	17547.34
613.735	17547.34
613.93	17623.11
614.126	17418.32
614.321	17176.66
614.517	17541.19
614.712	17217.61
614.907	16982.1
615.103	17381.45
615.298	16914.52
615.493	17293.39
615.688	16992.34
615.884	17676.36
616.079	16773.21
616.274	17164.37
616.47	16799.83
616.665	16793.69
616.86	16801.88
617.055	16627.8
617.25	16564.31
617.445	16820.31
617.641	16607.32
617.836	16709.72
618.031	16373.85
618.226	16631.9
618.421	16480.35
618.616	16599.13
618.811	16095.33
619.006	16650.33
619.201	16185.44
619.396	16181.34
619.591	15706.21
619.786	16224.35
619.981	15839.33
620.176	16076.9
620.371	15822.95
620.566	15630.44
620.761	15759.46
620.956	15822.95
621.151	15499.37
621.346	15581.29
621.541	15482.99
621.735	15548.52
621.93	15122.54
622.125	15278.19
622.32	15270
622.515	15353.96
622.709	14930.03
622.904	14829.68
623.099	14942.32
623.294	14829.68
623.488	14659.7
623.683	14624.89
623.878	14389.37
624.072	14424.19
624.267	14391.42
624.462	14250.11
624.656	13893.76
624.851	14348.41
625.046	14174.33
625.24	14174.33
625.435	14139.52
625.629	13996.16
625.824	13752.45
626.018	13754.5
626.213	13527.17
626.407	13545.61
626.602	13428.87
626.796	13623.43
626.991	13586.57
627.185	13185.16
627.38	13131.92
627.574	13156.49
627.768	12959.89
627.963	13064.33
628.157	12974.22
628.352	12990.61
628.546	12738.71
628.74	12959.89
628.935	12402.84
629.129	12705.94
629.323	12519.57
629.517	12503.19
629.712	12427.42
629.906	12245.15
630.1	12171.42
630.294	12232.86
630.489	12208.28
630.683	12124.32
630.877	11829.41
631.071	11915.42
631.265	11911.33
631.459	11673.76
631.653	11825.31
631.848	11649.19
632.042	11776.16
632.236	11714.72
632.43	11581.6
632.624	11479.21
632.818	11382.95
633.012	11233.45
633.206	11233.45
633.4	11038.89
633.594	11069.61
633.788	11141.29
633.982	11079.85
634.176	10979.5
634.369	10926.25
634.563	10860.72
634.757	10832.05
634.951	10946.73
635.145	10653.87
635.339	10592.44
635.533	10457.27
635.726	10760.37
635.92	10461.37
636.114	10547.38
636.308	10160.31
636.501	10502.33
636.695	10275
636.889	10326.2
637.083	10023.1
637.276	10035.39
637.47	9898.17
637.664	10043.58
637.857	10037.44
638.051	9920.7
638.244	9767.1
638.438	10006.72
638.632	9605.31
638.825	9486.53
639.019	9636.03
639.212	9674.95
639.406	9568.45
639.599	9543.88
639.793	9519.3
639.986	9273.54
640.18	9412.81
640.373	9406.66
640.567	9101.51
640.76	9343.17
640.954	9167.05
641.147	9031.88
641.34	8995.02
641.534	8921.29
641.727	8904.91
641.92	8906.96
642.114	8884.43
642.307	8870.09
642.5	8687.82
642.694	8831.18
642.887	8505.56
643.08	8610
643.273	8528.08
643.467	8687.82
643.66	8425.68
643.853	8462.55
644.046	8306.9
644.239	8319.19
644.432	8235.22
644.626	8192.22
644.819	8001.76
645.012	8155.35
645.205	8138.97
645.398	7913.69
645.591	8290.52
645.784	7948.51
645.977	7930.08
646.17	7870.69
646.363	7807.2
646.556	7512.29
646.749	7635.17
646.942	7786.72
647.135	7610.59
647.328	7448.8
647.521	7651.55
647.714	7323.88
647.907	7600.35
648.099	7444.71
648.292	7432.42
648.485	7364.84
648.678	7311.59
648.871	7332.07
649.064	7301.35
649.256	7145.7
649.449	7248.1
649.642	7102.7
649.835	6953.2
650.027	7037.16
650.22	7012.59
650.413	7002.35
650.605	6926.57
650.798	6762.73
650.991	6916.33
651.183	6805.74
651.376	6701.3
651.568	6895.85
651.761	6729.97
651.954	6533.36
652.146	6758.64
652.339	6652.14
652.531	6719.73
652.724	6562.03
652.916	6568.18
653.109	6451.44
653.301	6519.03
653.494	6516.98
653.686	6271.22
653.879	6351.09
654.071	6226.17
654.263	6234.36
654.456	6240.5
654.648	6144.25
654.84	5964.03
655.033	6172.92
655.225	6017.27
655.417	5968.12
655.61	6072.57
655.802	5974.27
655.994	5998.84
656.186	5918.97
656.379	5992.7
656.571	5800.19
656.763	5812.48
656.955	5767.42
657.148	5847.29
657.34	5744.89
657.532	5480.71
657.724	5550.34
657.916	5714.17
658.108	5654.78
658.3	5556.48
658.492	5513.47
658.684	5499.14
658.876	5423.36
659.068	5286.15
659.26	5443.84
659.452	5296.39
659.644	5312.77
659.836	5232.9
660.028	5380.36
660.22	5163.27
660.412	5136.65
660.604	5081.35
660.796	5032.2
660.988	5081.35
661.18	5050.63
661.372	4989.19
661.563	4981
661.755	4884.75
661.947	4989.19
662.139	4927.75
662.331	5124.36
662.522	4940.04
662.714	4866.32
662.906	4845.84
663.097	4890.89
663.289	4774.16
663.481	4784.4
663.673	4802.83
663.864	4600.08
664.056	4688.14
664.247	4657.42
664.439	4630.8
664.631	4667.66
664.822	4614.41
665.014	4569.36
665.205	4555.02
665.397	4524.3
665.588	4532.5
665.78	4419.86
665.971	4485.39
666.163	4350.23
666.354	4335.89
666.546	4188.44
666.737	4172.05
666.929	4237.59
667.12	4253.97
667.311	4325.65
667.503	4172.05
667.694	4256.02
667.885	4243.73
668.077	4075.8
668.268	4120.85
668.459	4135.19
668.651	4073.75
668.842	3991.83
669.033	3983.64
669.224	4014.36
669.416	4063.51
669.607	3989.78
669.798	4016.41
669.989	3907.87
670.18	3922.2
670.371	3801.37
670.563	3952.92
670.754	3901.72
670.945	3875.1
671.136	3827.99
671.327	3885.34
671.518	3899.67
671.709	3735.84
671.9	3770.65
672.091	3875.1
672.282	3596.57
672.473	3701.02
672.664	3789.08
672.855	3549.47
673.046	3674.4
673.237	3799.32
673.428	3531.04
673.619	3643.68
673.809	3688.73
674	3502.37
674.191	3641.63
674.382	3514.66
674.573	3555.62
674.764	3508.51
674.954	3621.15
675.145	3389.73
675.336	3330.34
675.527	3531.04
675.717	3459.36
675.908	3391.78
676.099	3461.41
676.289	3338.53
676.48	3428.64
676.671	3432.74
676.861	3371.3
677.052	3490.08
677.243	3309.86
677.433	3397.92
677.624	3402.02
677.814	3246.37
678.005	3328.29
678.195	3416.35
678.386	3186.98
678.576	3162.41
678.767	3156.26
678.957	3227.94
679.148	3201.32
679.338	3203.36
679.529	3215.65
679.719	3277.09
679.909	3322.15
680.1	3023.14
680.29	3326.24
680.481	3127.59
680.671	3244.32
680.861	3129.64
681.052	3174.69
681.242	3060.01
681.432	3182.88
681.622	3137.83
681.813	3094.82
682.003	3170.6
682.193	3086.63
682.383	3221.8
682.573	3162.41
682.764	3025.19
682.954	2967.85
683.144	3105.06
683.334	3123.49
683.524	3123.49
683.714	3146.02
683.904	3076.39
684.094	2996.52
684.284	3080.49
684.474	3002.66
684.664	3047.72
684.854	3021.1
685.044	3057.96
685.234	2973.99
685.424	2951.46
685.614	2965.8
685.804	2939.18
685.994	2859.31
686.184	2883.88
686.374	2920.74
686.564	2750.76
686.753	2844.97
686.943	2906.41
687.133	2869.55
687.323	2908.46
687.513	2777.39
687.702	2959.66
687.892	2814.25
688.082	2892.07
688.272	2863.4
688.461	2828.59
688.651	2851.11
688.841	2814.25
689.03	2881.83
689.22	2810.15
689.41	2580.78
689.599	2728.24
689.789	2769.2
689.979	2672.94
690.168	2730.28
690.358	2728.24
690.547	2734.38
690.737	2576.69
690.926	2574.64
691.116	2607.41
691.305	2670.89
691.495	2597.17
691.684	2576.69
691.874	2588.97
692.063	2494.77
692.252	2572.59
692.442	2488.62
692.631	2490.67
692.82	2543.92
693.01	2433.33
693.199	2441.52
693.388	2486.58
693.578	2535.73
693.767	2505.01
693.956	2437.42
694.146	2396.46
694.335	2505.01
694.524	2515.25
694.713	2447.66
694.902	2445.62
695.092	2332.98
695.281	2427.18
695.47	2365.75
695.659	2564.4
695.848	2462
696.037	2347.31
696.226	2511.15
696.415	2359.6
696.604	2500.91
696.793	2392.37
696.982	2326.83
697.171	2416.94
697.36	2294.07
697.549	2421.04
697.738	2306.35
697.927	2298.16
698.116	2251.06
698.305	2294.07
698.494	2345.27
698.683	2294.07
698.872	2363.7
699.061	2238.77
699.25	2275.63
699.438	2285.87
699.627	2222.39
699.816	2259.25
700.005	2367.79
700.193	2228.53
700.382	2242.87
700.571	2191.67
700.76	2150.71
700.948	2251.06
701.137	2404.66
701.326	2261.3
701.514	2253.11
701.703	2267.44
701.892	2187.57
702.08	2304.31
702.269	2283.83
702.457	2134.32
702.646	2093.37
702.834	2146.61
703.023	2122.04
703.212	2228.53
703.4	2093.37
703.589	2130.23
703.777	2152.76
703.965	2146.61
704.154	2244.92
704.342	2085.17
704.531	2189.62
704.719	2099.51
704.907	2195.76
705.096	2177.33
705.284	2261.3
705.472	2097.46
705.661	2101.56
705.849	2165.04
706.037	2228.53
706.226	2163
706.414	2099.51
706.602	2113.85
706.79	2105.65
706.979	2058.55
707.167	2066.74
707.355	2156.85
707.543	2189.62
707.731	2181.43
707.919	2062.65
708.107	2142.52
708.296	1958.2
708.484	2040.12
708.672	2033.97
708.86	1950.01
709.048	2132.28
709.236	2023.73
709.424	2060.6
709.612	2173.24
709.8	2058.55
709.988	2081.08
710.176	2072.89
710.364	2134.32
710.551	2042.17
710.739	2007.35
710.927	2038.07
711.115	2111.8
711.303	2083.13
711.491	2048.31
711.679	1990.97
711.866	2031.93
712.054	2009.4
712.242	2107.7
712.43	2033.97
712.617	2103.61
712.805	1927.48
712.993	2011.45
713.181	2003.25
713.368	1999.16
713.556	1921.34
713.744	1902.9
713.931	2093.37
714.119	2017.59
714.306	1990.97
714.494	2122.04
714.682	1886.52
714.869	1980.73
715.057	2027.83
715.244	1968.44
715.432	2074.93
715.619	1980.73
715.807	2046.26
715.994	1943.86
716.182	2009.4
716.369	2138.42
716.556	2023.73
716.744	2033.97
716.931	1954.1
717.119	1995.06
717.306	1917.24
717.493	1927.48
717.681	1909.05
717.868	1995.06
718.055	1915.19
718.242	1984.82
718.43	2003.25
718.617	1876.28
718.804	1950.01
718.991	1968.44
719.179	1892.66
719.366	1956.15
719.553	1950.01
719.74	1900.86
719.927	1960.25
720.114	2023.73
720.301	1884.47
720.488	1818.94
720.676	1954.1
720.863	2097.46
721.05	1954.1
721.237	2025.78
721.424	1952.06
721.611	1892.66
721.798	1904.95
721.985	1880.38
722.172	1911.1
722.358	1798.46
722.545	1950.01
722.732	2011.45
722.919	1892.66
723.106	1958.2
723.293	1945.91
723.48	1853.75
723.667	1915.19
723.853	1909.05
724.04	1907
724.227	2011.45
724.414	1909.05
724.6	1917.24
724.787	1839.42
724.974	1968.44
725.161	1909.05
725.347	1935.67
725.534	1894.71
725.72	1909.05
725.907	1876.28
726.094	1798.46
726.28	1913.14
726.467	1935.67
726.653	1921.34
726.84	1945.91
727.027	1855.8
727.213	1878.33
727.4	1950.01
727.586	1911.1
727.773	1853.75
727.959	1960.25
728.145	1947.96
728.332	1847.61
728.518	1765.69
728.705	1853.75
728.891	1855.8
729.077	1950.01
729.264	1767.74
729.45	1904.95
729.636	1855.8
729.823	1831.23
730.009	1876.28
730.195	1771.83
730.382	1968.44
730.568	1753.4
730.754	1870.14
730.94	1847.61
731.126	1851.71
731.313	1833.27
731.499	1765.69
731.685	1939.77
731.871	1804.6
732.057	1771.83
732.243	1898.81
732.429	1806.65
732.615	1902.9
732.801	1882.42
732.987	1775.93
733.173	1814.84
733.359	1798.46
733.545	1814.84
733.731	1835.32
733.917	1806.65
734.103	1909.05
734.289	1796.41
734.475	1763.64
734.661	1827.13
734.847	1888.57
735.033	1853.75
735.219	1753.4
735.404	1831.23
735.59	1915.19
735.776	1696.06
735.962	1812.79
736.148	1786.17
736.333	1847.61
736.519	1753.4
736.705	1741.11
736.89	1802.55
737.076	1829.18
737.262	1796.41
737.447	1769.79
737.633	1743.16
737.819	1859.9
738.004	1681.72
738.19	1720.64
738.375	1704.25
738.561	1706.3
738.747	1790.27
738.932	1782.07
739.118	1775.93
739.303	1761.59
739.489	1728.83
739.674	1675.58
739.859	1651
740.045	1745.21
740.23	1745.21
740.416	1597.76
740.601	1708.35
740.786	1630.52
740.972	1761.59
741.157	1681.72
741.342	1556.8
741.528	1657.15
741.713	1737.02
741.898	1675.58
742.084	1616.19
742.269	1646.91
742.454	1581.37
742.639	1542.46
742.824	1698.11
743.01	1657.15
743.195	1499.45
743.38	1591.61
743.565	1573.18
743.75	1597.76
743.935	1605.95
744.12	1632.57
744.305	1640.76
744.49	1503.55
744.675	1624.38
744.86	1640.76
745.045	1560.89
745.23	1552.7
745.415	1450.3
745.6	1587.52
745.785	1548.61
745.97	1724.73
746.155	1648.96
746.34	1616.19
746.525	1478.97
746.71	1454.4
746.895	1507.65
747.079	1366.34
747.264	1442.11
747.449	1487.17
747.634	1509.69
747.819	1378.62
748.003	1380.67
748.188	1421.63
748.373	1444.16
748.557	1315.14
748.742	1352
748.927	1407.3
749.111	1458.5
749.296	1431.87
749.481	1429.82
749.665	1220.93
749.85	1339.71
750.034	1419.58
750.219	1294.66
750.404	1313.09
750.588	1413.44
750.773	1345.86
750.957	1253.7
751.141	1376.58
751.326	1304.9
751.51	1257.79
751.695	1354.05
751.879	1222.98
752.064	1321.28
752.248	1233.22
752.432	1327.43
752.617	1132.87
752.801	1304.9
752.985	1190.21
753.17	1233.22
753.354	1220.93
753.538	1171.78
753.722	1141.06
753.907	1214.79
754.091	1186.12
754.275	1075.52
754.459	1134.92
754.643	1235.27
754.828	1126.72
755.012	1120.58
755.196	1024.33
755.38	1114.44
755.564	1042.76
755.748	1171.78
755.932	1143.11
756.116	1053
756.3	1083.72
756.484	1073.48
756.668	1132.87
756.852	1024.33
757.036	1036.61
757.22	1085.76
757.404	1042.76
757.588	960.84
757.772	1085.76
757.956	1024.33
758.14	1069.38
758.323	893.26
758.507	971.08
758.691	946.5
758.875	1001.8
759.059	948.55
759.242	932.17
759.426	950.6
759.61	983.37
759.794	1057.09
759.977	1040.71
760.161	928.07
760.345	915.78
760.528	983.37
760.712	934.22
760.895	874.82
761.079	969.03
761.263	805.19
761.446	866.63
761.63	952.65
761.813	899.4
761.997	874.82
762.18	889.16
762.364	856.39
762.547	778.57
762.731	794.95
762.914	862.54
763.098	778.57
763.281	846.15
763.464	870.73
763.648	680.27
763.831	788.81
764.015	846.15
764.198	893.26
764.381	797
764.564	928.07
764.748	774.47
764.931	862.54
765.114	823.62
765.297	821.58
765.481	827.72
765.664	811.34
765.847	713.03
766.03	887.11
766.213	797
766.397	819.53
766.58	762.19
766.763	708.94
766.946	842.06
767.129	837.96
767.312	737.61
767.495	696.65
767.678	786.76
767.861	741.71
768.044	745.8
768.227	844.1
768.41	766.28
768.593	762.19
768.776	799.05
768.959	758.09
769.142	753.99
769.324	680.27
769.507	680.27
769.69	680.27
769.873	704.84
770.056	704.84
770.239	688.46
770.421	692.55
770.604	762.19
770.787	805.19
770.97	819.53
771.152	633.16
771.335	819.53
771.518	756.04
771.7	717.13
771.883	680.27
772.066	672.08
772.248	655.69
772.431	729.42
772.613	622.92
772.796	659.79
772.978	715.08
773.161	663.88
773.343	655.69
773.526	704.84
773.708	641.36
773.891	627.02
774.073	680.27
774.256	731.47
774.438	682.31
774.621	721.23
774.803	600.4
774.985	688.46
775.168	715.08
775.35	647.5
775.532	590.16
775.715	606.54
775.897	590.16
776.079	659.79
776.261	594.25
776.444	549.2
776.626	553.29
776.808	577.87
776.99	549.2
777.173	590.16
777.355	561.48
777.537	573.77
777.719	543.05
777.901	584.01
778.083	532.81
778.265	633.16
778.447	594.25
778.629	508.24
778.811	584.01
778.993	561.48
779.175	549.2
779.357	608.59
779.539	516.43
779.721	495.95
779.903	475.47
780.085	536.91
780.267	543.05
780.449	450.89
780.631	545.1
780.812	434.51
780.994	479.57
781.176	467.28
781.358	416.08
781.54	524.62
781.721	450.89
781.903	495.95
782.085	411.98
782.267	446.8
782.448	430.41
782.63	393.55
782.812	516.43
782.993	399.7
783.175	483.66
783.357	481.61
783.538	463.18
783.72	377.17
783.901	459.09
784.083	444.75
784.264	395.6
784.446	362.83
784.627	397.65
784.809	403.79
784.99	430.41
785.172	381.26
785.353	422.22
785.535	434.51
785.716	385.36
785.897	352.59
786.079	385.36
786.26	403.79
786.441	321.87
786.623	379.22
786.804	332.11
786.985	364.88
787.167	385.36
787.348	381.26
787.529	493.9
787.71	377.17
787.891	403.79
788.073	364.88
788.254	377.17
788.435	452.94
788.616	436.56
788.797	305.49
788.978	313.68
789.159	364.88
789.34	344.4
789.522	336.21
789.703	344.4
789.884	366.93
790.065	358.74
790.246	354.64
790.427	313.68
790.607	336.21
790.788	299.34
790.969	278.87
791.15	385.36
791.331	383.31
791.512	254.29
791.693	297.3
791.874	262.48
792.054	330.06
792.235	262.48
792.416	287.06
792.597	266.58
792.778	289.1
792.958	303.44
793.139	264.53
793.32	256.34
793.5	229.71
793.681	291.15
793.862	266.58
794.042	237.91
794.223	264.53
794.404	272.72
794.584	235.86
794.765	287.06
794.945	237.91
795.126	338.26
795.306	229.71
795.487	242
795.667	172.37
795.848	352.59
796.028	235.86
796.209	256.34
796.389	239.95
796.57	266.58
796.75	213.33
796.93	217.43
797.111	201.04
797.291	262.48
797.471	287.06
797.652	188.75
797.832	229.71
798.012	237.91
798.192	203.09
798.373	174.42
798.553	274.77
798.733	217.43
798.913	246.1
799.093	237.91
799.274	229.71
799.454	325.97
799.634	248.15
799.814	342.35
799.994	262.48
800.174	244.05
800.354	262.48
800.534	147.8
800.714	246.1
800.894	229.71
801.074	160.08
801.254	223.57
801.434	270.67
801.614	213.33
801.794	141.65
801.974	721.23
802.154	172.37
802.334	205.14
802.514	155.99
802.693	215.38
802.873	213.33
803.053	213.33
803.233	213.33
803.413	196.95
803.592	166.23
803.772	153.94
803.952	201.04
804.131	164.18
804.311	235.86
804.491	221.52
804.67	205.14
804.85	108.88
805.03	178.51
805.209	213.33
805.389	139.6
805.568	186.71
805.748	229.71
805.928	162.13
806.107	133.46
806.287	205.14
806.466	155.99
806.646	196.95
806.825	188.75
807.004	219.47
807.184	192.85
807.363	201.04
807.543	201.04
807.722	162.13
807.901	242
808.081	213.33
808.26	133.46
808.439	176.47
808.619	102.74
808.798	57.68
808.977	205.14
809.156	168.27
809.336	160.08
809.515	151.89
809.694	100.69
809.873	237.91
810.052	123.22
810.231	127.32
810.411	186.71
810.59	194.9
810.769	145.75
810.948	213.33
811.127	121.17
811.306	147.8
811.485	65.88
811.664	131.41
811.843	145.75
812.022	190.8
812.201	72.02
812.38	115.03
812.559	84.31
812.737	164.18
812.916	67.92
813.095	135.51
813.274	117.08
813.453	76.12
813.632	96.6
813.811	133.46
813.989	61.78
814.168	125.27
814.347	92.5
814.526	180.56
814.704	125.27
814.883	172.37
815.062	65.88
815.24	86.36
815.419	123.22
815.598	86.36
815.776	158.03
815.955	123.22
816.133	133.46
816.312	155.99
816.49	26.96
816.669	164.18
816.847	174.42
817.026	125.27
817.204	137.56
817.383	106.84
817.561	94.55
817.74	67.92
817.918	69.97
818.097	78.16
818.275	94.55
818.453	98.64
818.632	115.03
818.81	100.69
818.988	125.27
819.167	110.93
819.345	20.82
819.523	127.32
819.701	162.13
819.879	88.4
820.058	117.08
820.236	92.5
820.414	155.99
820.592	82.26
820.77	121.17
820.948	78.16
821.127	129.36
821.305	104.79
821.483	84.31
821.661	162.13
821.839	158.03
822.017	135.51
822.195	106.84
822.373	90.45
822.551	65.88
822.729	125.27
822.907	125.27
823.085	72.02
823.262	147.8
823.44	108.88
823.618	53.59
823.796	74.07
823.974	24.92
824.152	57.68
824.329	45.4
824.507	108.88
824.685	127.32
824.863	57.68
825.04	26.96
825.218	242
825.396	104.79
825.574	96.6
825.751	37.2
825.929	115.03
826.107	31.06
826.284	102.74
826.462	29.01
826.639	47.44
826.817	55.64
826.994	180.56
827.172	8.53
827.349	74.07
827.527	119.12
827.704	88.4
827.882	133.46
828.059	65.88
828.237	61.78
828.414	90.45
828.591	0.34
828.769	31.06
828.946	51.54
829.124	135.51
829.301	110.93
829.478	20.82
829.655	51.54
829.833	74.07
830.01	63.83
830.187	94.55
830.364	8.53
830.542	61.78
830.719	123.22
830.896	92.5
831.073	164.18
831.25	119.12
831.427	63.83
831.604	78.16
831.782	12.63
831.959	90.45
832.136	59.73
832.313	117.08
832.49	72.02
832.667	123.22
832.844	76.12
833.021	67.92
833.198	47.44
833.374	78.16
833.551	131.41
833.728	80.21
833.905	0.34
834.082	65.88
834.259	82.26
834.436	127.32
834.612	39.25
834.789	121.17
834.966	82.26
835.143	86.36
835.319	29.01
835.496	57.68
835.673	20.82
835.85	88.4
836.026	90.45
836.203	74.07
836.38	108.88
836.556	108.88
836.733	35.16
836.909	86.36
837.086	-24.23
837.262	18.77
837.439	94.55
837.616	69.97
837.792	10.58
837.968	82.26
838.145	20.82
838.321	33.11
838.498	45.4
838.674	119.12
838.851	94.55
839.027	45.4
839.203	63.83
839.38	0.34
839.556	69.97
839.732	90.45
839.909	74.07
840.085	18.77
840.261	-3.75
840.437	108.88
840.614	-16.04
840.79	31.06
840.966	53.59
841.142	115.03
841.318	-16.04
841.494	33.11
841.671	55.64
841.847	57.68
842.023	57.68
842.199	72.02
842.375	74.07
842.551	35.16
842.727	10.58
842.903	106.84
843.079	2.39
843.255	37.2
843.431	29.01
843.607	37.2
843.783	-16.04
843.959	35.16
844.134	10.58
844.31	16.73
844.486	84.31
844.662	-30.38
844.838	57.68
845.013	26.96
845.189	43.35
845.365	41.3
845.541	-42.67
845.716	41.3
845.892	10.58
846.068	-22.19
846.244	35.16
846.419	61.78
846.595	31.06
846.77	-11.95
846.946	49.49
847.122	14.68
847.297	49.49
847.473	51.54
847.648	-54.95
847.824	100.69
847.999	-5.8
848.175	35.16
848.35	-52.91
848.526	65.88
848.701	80.21
848.876	-22.19
849.052	82.26
849.227	49.49
849.403	-38.57
849.578	51.54
849.753	67.92
849.929	67.92
850.104	-46.76
850.279	35.16
850.454	8.53
850.63	57.68
850.805	24.92
850.98	112.98
851.155	51.54
851.33	12.63
851.505	33.11
851.681	41.3
851.856	0.34
852.031	59.73
852.206	69.97
852.381	-30.38
852.556	8.53
852.731	16.73
852.906	35.16
853.081	51.54
853.256	74.07
853.431	65.88
853.606	41.3
853.781	26.96
853.956	-7.85
854.131	16.73
854.305	53.59
854.48	18.77
854.655	41.3
854.83	39.25
855.005	31.06
855.18	20.82
855.354	6.49
855.529	24.92
855.704	-52.91
855.879	74.07
856.053	-24.23
856.228	65.88
856.403	-7.85
856.577	12.63
856.752	8.53
856.926	-65.19
857.101	20.82
857.276	90.45
857.45	82.26
857.625	76.12
857.799	-61.1
857.974	18.77
858.148	61.78
858.323	4.44
858.497	35.16
858.672	-40.62
858.846	26.96
859.02	-3.75
859.195	-11.95
859.369	102.74
859.543	-28.33
859.718	61.78
859.892	2.39
860.066	8.53
860.241	43.35
860.415	16.73
860.589	-32.43
860.763	53.59
860.938	26.96
861.112	84.31
861.286	-32.43
861.46	0.34
861.634	-13.99
861.808	35.16
861.982	-65.19
862.157	8.53
862.331	12.63
862.505	24.92
862.679	-13.99
862.853	-32.43
863.027	43.35
863.201	65.88
863.375	12.63
863.549	84.31
863.722	2.39
863.896	63.83
864.07	16.73
864.244	33.11
864.418	55.64
864.592	2.39
864.766	-38.57
864.939	-73.39
865.113	-16.04
865.287	84.31
865.461	-38.57
865.634	24.92
865.808	-73.39
865.982	63.83
866.156	-81.58
866.329	-63.15
866.503	4.44
866.676	72.02
866.85	-48.81
867.024	31.06
867.197	76.12
867.371	84.31
867.544	12.63
867.718	43.35
867.891	10.58
868.065	29.01
868.238	2.39
868.412	-13.99
868.585	-3.75
868.759	12.63
868.932	-52.91
869.105	-104.11
869.279	-16.04
869.452	-16.04
869.625	-5.8
869.799	29.01
869.972	-22.19
870.145	41.3
870.319	-1.71
870.492	14.68
870.665	82.26
870.838	33.11
871.011	-28.33
871.185	57.68
871.358	-30.38
871.531	14.68
871.704	2.39
871.877	49.49
872.05	80.21
872.223	-28.33
872.396	12.63
872.569	92.5
872.742	33.11
872.915	69.97
873.088	8.53
873.261	65.88
873.434	16.73
873.607	35.16
873.78	18.77
873.953	-18.09
874.126	4.44
874.299	26.96
874.471	-32.43
874.644	-22.19
874.817	69.97
874.99	16.73
875.163	12.63
875.335	47.44
875.508	-79.53
875.681	88.4
875.853	16.73
876.026	-40.62
876.199	45.4
876.371	29.01
876.544	0.34
876.717	-24.23
876.889	16.73
877.062	0.34
877.234	33.11
877.407	8.53
877.579	-5.8
877.752	-7.85
877.924	76.12
878.097	-26.28
878.269	-65.19
878.442	-3.75
878.614	12.63
878.786	-24.23
878.959	-40.62
879.131	24.92
879.303	-38.57
879.476	-28.33
879.648	49.49
879.82	-24.23
879.993	84.31
880.165	-59.05
880.337	-16.04
880.509	20.82
880.681	-52.91
880.854	12.63
881.026	29.01
881.198	74.07
881.37	8.53
881.542	16.73
881.714	-16.04
881.886	-7.85
882.058	35.16
882.23	-63.15
882.402	16.73
882.574	-20.14
882.746	78.16
882.918	-18.09
883.09	41.3
883.262	76.12
883.434	4.44
883.606	-40.62
883.778	20.82
883.95	49.49
884.122	-7.85
884.293	6.49
884.465	-11.95
884.637	31.06
884.809	-20.14
884.98	78.16
885.152	-20.14
885.324	33.11
885.496	67.92
885.667	31.06
885.839	-57
886.011	-13.99
886.182	-1.71
886.354	8.53
886.525	-16.04
886.697	24.92
886.869	-38.57
887.04	86.36
887.212	49.49
887.383	43.35
887.555	12.63
887.726	-18.09
887.897	-20.14
888.069	41.3
888.24	20.82
888.412	0.34
888.583	-3.75
888.754	8.53
888.926	-97.96
889.097	29.01
889.268	-57
889.44	41.3
889.611	-3.75
889.782	16.73
889.953	41.3
890.125	57.68
890.296	10.58
890.467	24.92
890.638	43.35
890.809	29.01
890.98	-40.62
891.151	-24.23
891.323	-3.75
891.494	67.92
891.665	10.58
891.836	-46.76
892.007	-52.91
892.178	37.2
892.349	-3.75
892.52	-22.19
892.691	10.58
892.862	-16.04
893.032	-40.62
893.203	10.58
893.374	-3.75
893.545	8.53
893.716	-22.19
893.887	-16.04
894.057	-30.38
894.228	-26.28
894.399	0.34
894.57	49.49
894.74	-26.28
894.911	57.68
895.082	-5.8
895.253	-5.8
895.423	-16.04
895.594	90.45
895.764	14.68
895.935	37.2
896.106	39.25
896.276	0.34
896.447	10.58
896.617	-38.57
896.788	-38.57
896.958	16.73
897.129	-40.62
897.299	-32.43
897.47	24.92
897.64	45.4
897.81	6.49
897.981	0.34
898.151	2.39
898.322	-16.04
898.492	-71.34
898.662	-73.39
898.832	57.68
899.003	-22.19
899.173	57.68
899.343	16.73
899.513	-32.43
