Data from USB4F104151__115__14-43-53-030.txt Node

Date: Thu Mar 13 14:43:53 EDT 2025
User: louis
Spectrometer: USB4F10415
Trigger mode: 4
Integration Time (sec): 2.000000E-2
Scans to average: 1
Electric dark correction enabled: true
Nonlinearity correction enabled: false
Boxcar width: 0
XAxis mode: Wavelengths
Number of Pixels in Spectrum: 3648
>>>>>Begin Spectral Data<<<<<
178.204	-161.45
178.424	-161.45
178.644	-161.45
178.864	-114.34
179.084	-126.63
179.304	-22.19
179.524	-69.29
179.744	6.49
179.964	72.02
180.184	2.39
180.404	-50.86
180.624	-36.52
180.844	26.96
181.064	-36.52
181.283	94.55
181.503	20.82
181.723	-7.85
181.943	-22.19
182.163	108.88
182.383	-9.9
182.602	37.2
182.822	33.11
183.042	20.82
183.262	51.54
183.482	-11.95
183.701	-1.71
183.921	-16.04
184.141	20.82
184.361	-3.75
184.58	29.01
184.8	20.82
185.02	102.74
185.239	39.25
185.459	31.06
185.679	61.78
185.898	37.2
186.118	65.88
186.338	69.97
186.557	49.49
186.777	20.82
186.997	-28.33
187.216	37.2
187.436	12.63
187.655	-36.52
187.875	33.11
188.095	-1.71
188.314	33.11
188.534	39.25
188.753	112.98
188.973	26.96
189.192	47.44
189.412	37.2
189.631	8.53
189.851	16.73
190.07	65.88
190.29	29.01
190.509	-75.43
190.729	102.74
190.948	88.4
191.168	203.09
191.387	121.17
191.607	-11.95
191.826	59.73
192.045	49.49
192.265	37.2
192.484	29.01
192.704	31.06
192.923	-7.85
193.142	119.12
193.362	6.49
193.581	94.55
193.8	-32.43
194.02	63.83
194.239	41.3
194.458	69.97
194.678	-16.04
194.897	20.82
195.116	20.82
195.335	45.4
195.555	53.59
195.774	6.49
195.993	63.83
196.212	29.01
196.432	12.63
196.651	49.49
196.87	29.01
197.089	86.36
197.308	8.53
197.528	127.32
197.747	12.63
197.966	53.59
198.185	26.96
198.404	53.59
198.623	112.98
198.842	57.68
199.062	53.59
199.281	41.3
199.5	-65.19
199.719	78.16
199.938	-9.9
200.157	24.92
200.376	82.26
200.595	-3.75
200.814	20.82
201.033	78.16
201.252	63.83
201.471	41.3
201.69	69.97
201.909	96.6
202.128	110.93
202.347	145.75
202.566	69.97
202.785	-5.8
203.004	47.44
203.223	63.83
203.442	37.2
203.661	82.26
203.879	37.2
204.098	55.64
204.317	-7.85
204.536	53.59
204.755	61.78
204.974	100.69
205.193	43.35
205.411	90.45
205.63	86.36
205.849	65.88
206.068	39.25
206.287	49.49
206.505	61.78
206.724	86.36
206.943	49.49
207.162	4.44
207.381	37.2
207.599	37.2
207.818	-46.76
208.037	31.06
208.255	22.87
208.474	57.68
208.693	94.55
208.911	31.06
209.13	-3.75
209.349	76.12
209.567	63.83
209.786	45.4
210.005	78.16
210.223	20.82
210.442	29.01
210.661	72.02
210.879	20.82
211.098	37.2
211.316	24.92
211.535	-1.71
211.753	57.68
211.972	-11.95
212.191	94.55
212.409	61.78
212.628	94.55
212.846	14.68
213.065	16.73
213.283	80.21
213.502	33.11
213.72	-9.9
213.938	6.49
214.157	24.92
214.375	0.34
214.594	20.82
214.812	55.64
215.031	0.34
215.249	-1.71
215.467	0.34
215.686	61.78
215.904	69.97
216.122	6.49
216.341	45.4
216.559	102.74
216.778	178.51
216.996	82.26
217.214	31.06
217.432	37.2
217.651	20.82
217.869	24.92
218.087	22.87
218.306	-26.28
218.524	69.97
218.742	37.2
218.96	-32.43
219.179	45.4
219.397	53.59
219.615	90.45
219.833	45.4
220.051	4.44
220.27	49.49
220.488	43.35
220.706	69.97
220.924	-5.8
221.142	10.58
221.36	20.82
221.578	16.73
221.796	72.02
222.015	4.44
222.233	98.64
222.451	80.21
222.669	39.25
222.887	6.49
223.105	43.35
223.323	4.44
223.541	53.59
223.759	39.25
223.977	20.82
224.195	4.44
224.413	55.64
224.631	22.87
224.849	37.2
225.067	0.34
225.285	29.01
225.503	47.44
225.721	4.44
225.939	-20.14
226.157	51.54
226.375	205.14
226.592	18.77
226.81	98.64
227.028	61.78
227.246	135.51
227.464	55.64
227.682	33.11
227.9	55.64
228.117	49.49
228.335	24.92
228.553	45.4
228.771	-34.47
228.989	65.88
229.206	94.55
229.424	90.45
229.642	-42.67
229.86	20.82
230.077	4.44
230.295	12.63
230.513	78.16
230.731	29.01
230.948	6.49
231.166	63.83
231.384	53.59
231.601	45.4
231.819	31.06
232.037	-9.9
232.254	-26.28
232.472	-28.33
232.689	-32.43
232.907	47.44
233.125	12.63
233.342	6.49
233.56	12.63
233.777	-3.75
233.995	26.96
234.213	69.97
234.43	-22.19
234.648	53.59
234.865	78.16
235.083	72.02
235.3	24.92
235.518	39.25
235.735	0.34
235.953	106.84
236.17	86.36
236.388	-3.75
236.605	53.59
236.822	123.22
237.04	-24.23
237.257	88.4
237.475	-50.86
237.692	129.36
237.909	37.2
238.127	63.83
238.344	41.3
238.562	57.68
238.779	-30.38
238.996	-3.75
239.214	-20.14
239.431	33.11
239.648	39.25
239.865	31.06
240.083	12.63
240.3	47.44
240.517	29.01
240.735	-24.23
240.952	29.01
241.169	65.88
241.386	57.68
241.603	20.82
241.821	69.97
242.038	135.51
242.255	69.97
242.472	-9.9
242.689	112.98
242.907	78.16
243.124	57.68
243.341	-7.85
243.558	61.78
243.775	55.64
243.992	4.44
244.209	45.4
244.426	47.44
244.643	102.74
244.86	0.34
245.078	135.51
245.295	86.36
245.512	16.73
245.729	-9.9
245.946	37.2
246.163	49.49
246.38	20.82
246.597	12.63
246.814	137.56
247.031	14.68
247.248	141.65
247.464	29.01
247.681	69.97
247.898	69.97
248.115	131.41
248.332	-20.14
248.549	110.93
248.766	143.7
248.983	69.97
249.2	-13.99
249.417	98.64
249.633	12.63
249.85	86.36
250.067	-22.19
250.284	94.55
250.501	-3.75
250.717	82.26
250.934	4.44
251.151	37.2
251.368	53.59
251.585	102.74
251.801	8.53
252.018	61.78
252.235	37.2
252.451	78.16
252.668	45.4
252.885	80.21
253.102	8.53
253.318	14.68
253.535	-59.05
253.752	0.34
253.968	14.68
254.185	8.53
254.401	59.73
254.618	37.2
254.835	94.55
255.051	121.17
255.268	51.54
255.484	41.3
255.701	49.49
255.917	45.4
256.134	8.53
256.351	33.11
256.567	37.2
256.784	6.49
257	-1.71
257.217	-16.04
257.433	84.31
257.65	80.21
257.866	20.82
258.082	0.34
258.299	78.16
258.515	61.78
258.732	-16.04
258.948	-3.75
259.165	102.74
259.381	72.02
259.597	33.11
259.814	49.49
260.03	37.2
260.246	14.68
260.463	86.36
260.679	69.97
260.895	6.49
261.112	88.4
261.328	69.97
261.544	14.68
261.761	121.17
261.977	65.88
262.193	57.68
262.409	86.36
262.626	31.06
262.842	-42.67
263.058	33.11
263.274	6.49
263.49	14.68
263.707	57.68
263.923	78.16
264.139	49.49
264.355	69.97
264.571	63.83
264.787	49.49
265.004	39.25
265.22	33.11
265.436	47.44
265.652	33.11
265.868	98.64
266.084	74.07
266.3	147.8
266.516	0.34
266.732	88.4
266.948	4.44
267.164	-3.75
267.38	31.06
267.596	4.44
267.812	61.78
268.028	53.59
268.244	45.4
268.46	63.83
268.676	20.82
268.892	4.44
269.108	45.4
269.324	-9.9
269.54	31.06
269.756	57.68
269.972	-20.14
270.188	141.65
270.403	-20.14
270.619	-44.71
270.835	65.88
271.051	45.4
271.267	65.88
271.483	72.02
271.698	24.92
271.914	0.34
272.13	74.07
272.346	14.68
272.562	16.73
272.777	-3.75
272.993	4.44
273.209	53.59
273.425	14.68
273.64	18.77
273.856	53.59
274.072	37.2
274.287	49.49
274.503	57.68
274.719	-11.95
274.934	78.16
275.15	20.82
275.366	155.99
275.581	-59.05
275.797	39.25
276.012	45.4
276.228	39.25
276.444	14.68
276.659	84.31
276.875	49.49
277.09	16.73
277.306	63.83
277.521	49.49
277.737	55.64
277.952	86.36
278.168	43.35
278.383	69.97
278.599	0.34
278.814	-32.43
279.03	39.25
279.245	47.44
279.461	12.63
279.676	86.36
279.892	-9.9
280.107	16.73
280.322	8.53
280.538	72.02
280.753	4.44
280.969	53.59
281.184	76.12
281.399	49.49
281.615	45.4
281.83	6.49
282.045	29.01
282.26	69.97
282.476	53.59
282.691	125.27
282.906	45.4
283.122	98.64
283.337	51.54
283.552	61.78
283.767	8.53
283.983	20.82
284.198	31.06
284.413	94.55
284.628	-18.09
284.843	20.82
285.058	55.64
285.274	61.78
285.489	-1.71
285.704	22.87
285.919	4.44
286.134	45.4
286.349	45.4
286.564	31.06
286.779	115.03
286.995	37.2
287.21	86.36
287.425	67.92
287.64	22.87
287.855	47.44
288.07	29.01
288.285	98.64
288.5	12.63
288.715	31.06
288.93	-9.9
289.145	0.34
289.36	106.84
289.575	43.35
289.79	39.25
290.004	6.49
290.219	121.17
290.434	-26.28
290.649	53.59
290.864	4.44
291.079	37.2
291.294	29.01
291.509	-32.43
291.724	37.2
291.938	86.36
292.153	53.59
292.368	69.97
292.583	96.6
292.798	76.12
293.012	43.35
293.227	69.97
293.442	39.25
293.657	86.36
293.871	94.55
294.086	96.6
294.301	86.36
294.516	69.97
294.73	72.02
294.945	22.87
295.16	53.59
295.374	41.3
295.589	127.32
295.804	18.77
296.018	47.44
296.233	63.83
296.447	59.73
296.662	41.3
296.877	112.98
297.091	69.97
297.306	80.21
297.52	-52.91
297.735	74.07
297.949	78.16
298.164	153.94
298.378	22.87
298.593	22.87
298.807	86.36
299.022	69.97
299.236	45.4
299.451	-9.9
299.665	37.2
299.88	102.74
300.094	45.4
300.309	6.49
300.523	29.01
300.737	45.4
300.952	14.68
301.166	55.64
301.381	22.87
301.595	4.44
301.809	-3.75
302.024	4.44
302.238	65.88
302.452	72.02
302.667	33.11
302.881	94.55
303.095	55.64
303.309	57.68
303.524	51.54
303.738	20.82
303.952	10.58
304.166	53.59
304.381	-9.9
304.595	47.44
304.809	12.63
305.023	86.36
305.237	61.78
305.452	80.21
305.666	80.21
305.88	0.34
306.094	78.16
306.308	47.44
306.522	41.3
306.736	74.07
306.95	63.83
307.164	72.02
307.379	12.63
307.593	112.98
307.807	65.88
308.021	49.49
308.235	57.68
308.449	39.25
308.663	-36.52
308.877	145.75
309.091	-1.71
309.305	108.88
309.519	-52.91
309.733	-1.71
309.947	37.2
310.161	24.92
310.374	4.44
310.588	74.07
310.802	37.2
311.016	0.34
311.23	22.87
311.444	45.4
311.658	74.07
311.872	78.16
312.085	119.12
312.299	26.96
312.513	45.4
312.727	31.06
312.941	-3.75
313.154	-11.95
313.368	20.82
313.582	47.44
313.796	8.53
314.009	61.78
314.223	78.16
314.437	20.82
314.651	-28.33
314.864	67.92
315.078	61.78
315.292	6.49
315.505	69.97
315.719	108.88
315.933	-11.95
316.146	35.16
316.36	-9.9
316.573	59.73
316.787	4.44
317.001	22.87
317.214	35.16
317.428	37.2
317.641	41.3
317.855	39.25
318.068	29.01
318.282	67.92
318.495	51.54
318.709	53.59
318.922	29.01
319.136	86.36
319.349	119.12
319.563	20.82
319.776	80.21
319.99	47.44
320.203	78.16
320.417	24.92
320.63	78.16
320.843	104.79
321.057	-13.99
321.27	59.73
321.483	-3.75
321.697	110.93
321.91	-20.14
322.124	35.16
322.337	84.31
322.55	-26.28
322.763	-3.75
322.977	47.44
323.19	8.53
323.403	59.73
323.617	-11.95
323.83	135.51
324.043	115.03
324.256	31.06
324.469	-9.9
324.683	31.06
324.896	61.78
325.109	49.49
325.322	29.01
325.535	102.74
325.748	35.16
325.962	39.25
326.175	39.25
326.388	37.2
326.601	45.4
326.814	45.4
327.027	-28.33
327.24	112.98
327.453	22.87
327.666	35.16
327.879	39.25
328.092	86.36
328.305	104.79
328.518	14.68
328.731	20.82
328.944	80.21
329.157	-5.8
329.37	-11.95
329.583	139.6
329.796	72.02
330.009	33.11
330.222	24.92
330.435	45.4
330.648	78.16
330.861	33.11
331.073	63.83
331.286	51.54
331.499	-9.9
331.712	20.82
331.925	90.45
332.138	88.4
332.35	78.16
332.563	39.25
332.776	37.2
332.989	16.73
333.202	45.4
333.414	29.01
333.627	-1.71
333.84	-11.95
334.053	90.45
334.265	61.78
334.478	29.01
334.691	47.44
334.903	37.2
335.116	53.59
335.329	57.68
335.541	119.12
335.754	127.32
335.966	37.2
336.179	-36.52
336.392	90.45
336.604	110.93
336.817	24.92
337.029	131.41
337.242	82.26
337.454	110.93
337.667	8.53
337.88	121.17
338.092	22.87
338.305	67.92
338.517	8.53
338.729	78.16
338.942	76.12
339.154	98.64
339.367	-28.33
339.579	33.11
339.792	31.06
340.004	88.4
340.217	-7.85
340.429	78.16
340.641	16.73
340.854	106.84
341.066	16.73
341.278	63.83
341.491	86.36
341.703	55.64
341.915	110.93
342.128	100.69
342.34	94.55
342.552	88.4
342.764	117.08
342.977	86.36
343.189	74.07
343.401	35.16
343.613	29.01
343.826	102.74
344.038	33.11
344.25	20.82
344.462	0.34
344.674	74.07
344.886	-11.95
345.099	96.6
345.311	-3.75
345.523	29.01
345.735	-11.95
345.947	102.74
346.159	10.58
346.371	94.55
346.583	37.2
346.795	61.78
347.007	96.6
347.219	37.2
347.431	20.82
347.643	102.74
347.855	82.26
348.067	86.36
348.279	26.96
348.491	8.53
348.703	55.64
348.915	29.01
349.127	49.49
349.339	53.59
349.551	-5.8
349.763	78.16
349.975	24.92
350.187	80.21
350.399	80.21
350.61	86.36
350.822	69.97
351.034	84.31
351.246	88.4
351.458	69.97
351.669	33.11
351.881	106.84
352.093	92.5
352.305	69.97
352.517	55.64
352.728	139.6
352.94	45.4
353.152	90.45
353.363	-1.71
353.575	78.16
353.787	69.97
353.999	41.3
354.21	61.78
354.422	-20.14
354.633	-20.14
354.845	-11.95
355.057	98.64
355.268	37.2
355.48	78.16
355.692	4.44
355.903	24.92
356.115	61.78
356.326	-26.28
356.538	12.63
356.749	51.54
356.961	151.89
357.172	-38.57
357.384	39.25
357.595	155.99
357.807	61.78
358.018	24.92
358.23	-9.9
358.441	104.79
358.653	117.08
358.864	16.73
359.075	14.68
359.287	18.77
359.498	86.36
359.709	47.44
359.921	53.59
360.132	102.74
360.344	47.44
360.555	39.25
360.766	57.68
360.977	53.59
361.189	55.64
361.4	108.88
361.611	20.82
361.823	98.64
362.034	8.53
362.245	14.68
362.456	141.65
362.667	47.44
362.879	69.97
363.09	-7.85
363.301	31.06
363.512	47.44
363.723	53.59
363.935	18.77
364.146	37.2
364.357	102.74
364.568	115.03
364.779	-7.85
364.99	82.26
365.201	18.77
365.412	121.17
365.623	45.4
365.834	137.56
366.045	4.44
366.256	63.83
366.467	55.64
366.678	33.11
366.889	41.3
367.1	63.83
367.311	104.79
367.522	-1.71
367.733	69.97
367.944	55.64
368.155	35.16
368.366	86.36
368.577	59.73
368.788	94.55
368.999	24.92
369.209	61.78
369.42	153.94
369.631	94.55
369.842	12.63
370.053	53.59
370.264	74.07
370.474	-11.95
370.685	-11.95
370.896	29.01
371.107	153.94
371.317	51.54
371.528	-16.04
371.739	78.16
371.95	49.49
372.16	69.97
372.371	65.88
372.582	29.01
372.792	59.73
373.003	90.45
373.214	98.64
373.424	86.36
373.635	45.4
373.846	84.31
374.056	49.49
374.267	117.08
374.477	65.88
374.688	55.64
374.898	29.01
375.109	55.64
375.319	69.97
375.53	63.83
375.74	37.2
375.951	-20.14
376.161	-18.09
376.372	61.78
376.582	-24.23
376.793	57.68
377.003	69.97
377.214	45.4
377.424	61.78
377.635	63.83
377.845	82.26
378.055	80.21
378.266	4.44
378.476	96.6
378.686	88.4
378.897	55.64
379.107	-16.04
379.317	20.82
379.528	20.82
379.738	53.59
379.948	-48.81
380.158	4.44
380.369	96.6
380.579	-3.75
380.789	-13.99
380.999	-26.28
381.21	63.83
381.42	86.36
381.63	22.87
381.84	67.92
382.05	18.77
382.261	24.92
382.471	108.88
382.681	4.44
382.891	20.82
383.101	82.26
383.311	-7.85
383.521	4.44
383.731	33.11
383.941	45.4
384.151	100.69
384.361	84.31
384.571	125.27
384.781	96.6
384.991	86.36
385.201	88.4
385.411	80.21
385.621	67.92
385.831	96.6
386.041	45.4
386.251	80.21
386.461	37.2
386.671	69.97
386.881	29.01
387.091	6.49
387.301	49.49
387.511	112.98
387.72	160.08
387.93	-34.47
388.14	39.25
388.35	53.59
388.56	112.98
388.769	31.06
388.979	76.12
389.189	-36.52
389.399	24.92
389.609	80.21
389.818	119.12
390.028	65.88
390.238	29.01
390.447	37.2
390.657	35.16
390.867	86.36
391.076	0.34
391.286	74.07
391.496	78.16
391.705	80.21
391.915	45.4
392.125	37.2
392.334	-3.75
392.544	96.6
392.753	53.59
392.963	-59.05
393.172	37.2
393.382	82.26
393.591	96.6
393.801	76.12
394.01	153.94
394.22	61.78
394.429	78.16
394.639	67.92
394.848	135.51
395.058	141.65
395.267	61.78
395.477	61.78
395.686	41.3
395.895	96.6
396.105	147.8
396.314	88.4
396.524	57.68
396.733	90.45
396.942	96.6
397.152	69.97
397.361	112.98
397.57	125.27
397.78	151.89
397.989	127.32
398.198	137.56
398.407	94.55
398.617	86.36
398.826	41.3
399.035	29.01
399.244	112.98
399.453	92.5
399.663	94.55
399.872	86.36
400.081	78.16
400.29	94.55
400.499	115.03
400.708	104.79
400.917	98.64
401.127	57.68
401.336	53.59
401.545	145.75
401.754	133.46
401.963	170.32
402.172	153.94
402.381	72.02
402.59	98.64
402.799	39.25
403.008	135.51
403.217	84.31
403.426	176.47
403.635	82.26
403.844	112.98
404.053	98.64
404.262	104.79
404.471	125.27
404.68	203.09
404.888	55.64
405.097	72.02
405.306	76.12
405.515	162.13
405.724	104.79
405.933	164.18
406.142	141.65
406.35	196.95
406.559	162.13
406.768	110.93
406.977	213.33
407.185	135.51
407.394	145.75
407.603	147.8
407.812	194.9
408.02	184.66
408.229	158.03
408.438	170.32
408.646	110.93
408.855	192.85
409.064	151.89
409.272	139.6
409.481	137.56
409.69	198.99
409.898	160.08
410.107	303.44
410.315	227.67
410.524	186.71
410.733	217.43
410.941	203.09
411.15	270.67
411.358	278.87
411.567	354.64
411.775	258.39
411.984	332.11
412.192	274.77
412.401	186.71
412.609	426.32
412.818	414.03
413.026	303.44
413.234	344.4
413.443	325.97
413.651	452.94
413.86	387.41
414.068	446.8
414.276	465.23
414.485	352.59
414.693	524.62
414.901	463.18
415.11	534.86
415.318	463.18
415.526	489.81
415.734	561.48
415.943	442.7
416.151	631.12
416.359	569.68
416.567	627.02
416.776	643.4
416.984	729.42
417.192	614.73
417.4	684.36
417.608	692.55
417.817	694.6
418.025	762.19
418.233	860.49
418.441	735.56
418.649	717.13
418.857	889.16
419.065	1009.99
419.273	889.16
419.481	862.54
419.689	946.5
419.897	1036.61
420.105	1012.04
420.313	1016.13
420.521	1126.72
420.729	1100.1
420.937	1087.81
421.145	1108.29
421.353	1161.54
421.561	1382.72
421.769	1306.95
421.977	1317.19
422.185	1253.7
422.393	1341.76
422.601	1472.83
422.809	1564.99
423.017	1511.74
423.224	1585.47
423.432	1624.38
423.64	1634.62
423.848	1741.11
424.056	1823.03
424.263	1855.8
424.471	1947.96
424.679	2066.74
424.887	1925.43
425.094	2076.98
425.302	2117.94
425.51	2156.85
425.718	2169.14
425.925	2236.72
426.133	2275.63
426.341	2306.35
426.548	2584.88
426.756	2578.73
426.964	2513.2
427.171	2840.87
427.379	2822.44
427.586	2767.15
427.794	2978.09
428.001	3037.48
428.209	3260.71
428.417	3160.36
428.624	3412.26
428.832	3365.15
429.039	3277.09
429.247	3453.22
429.454	3705.12
429.662	3946.78
429.869	3733.79
430.076	3952.92
430.284	3799.32
430.491	4036.89
430.699	4196.63
430.906	4307.22
431.114	4208.92
431.321	4288.79
431.528	4440.34
431.736	4817.16
431.943	5069.06
432.15	4788.49
432.358	4856.08
432.565	5198.09
432.772	5099.78
432.979	5470.47
433.187	5490.95
433.394	5546.24
433.601	5939.45
433.808	6134.01
434.016	5837.05
434.223	6160.63
434.43	6527.22
434.637	6332.66
434.844	6721.77
435.052	6848.75
435.259	6912.24
435.466	7028.97
435.673	6885.61
435.88	7258.34
436.087	7721.18
436.294	7659.74
436.501	7694.56
436.708	7631.07
436.915	8081.63
437.122	8188.12
437.329	8167.64
437.537	8329.43
437.743	8591.57
437.95	8421.59
438.157	8954.06
438.364	9187.53
438.571	9427.14
438.778	9304.26
438.985	10043.58
439.192	9922.75
439.399	10047.68
439.606	9793.73
439.813	10434.74
440.02	11360.42
440.227	10926.25
440.433	10696.88
440.64	11157.68
440.847	11040.94
441.054	11489.45
441.261	11911.33
441.467	11835.55
441.674	11878.56
441.881	12613.78
442.088	12167.32
442.294	12236.95
442.501	12730.52
442.708	13011.09
442.914	13242.51
443.121	13834.37
443.328	13568.13
443.534	14532.73
443.741	14004.35
443.948	13883.52
444.154	15052.91
444.361	15052.91
444.568	15165.55
444.774	15112.3
444.981	15169.65
445.187	15257.71
445.394	16072.8
445.6	16175.2
445.807	17467.47
446.013	16879.7
446.22	17145.94
446.426	17819.72
446.633	18012.23
446.839	18671.67
447.046	17547.34
447.252	18583.61
447.459	18696.25
447.665	18931.76
447.871	19415.09
448.078	20320.29
448.284	19111.99
448.491	20107.3
448.697	21063.7
448.903	21082.13
449.11	21116.95
449.316	20752.41
449.522	21350.42
449.728	21469.2
449.935	22253.57
450.141	21684.23
450.347	22458.37
450.553	21970.95
450.76	22212.61
450.966	22982.65
451.172	22482.94
451.378	23203.83
451.584	22763.51
451.791	23373.81
451.997	23148.53
452.203	23508.97
452.409	23463.92
452.615	23560.17
452.821	22726.65
453.027	22329.34
453.233	23603.18
453.44	22571
453.646	22937.59
453.852	23064.57
454.058	23433.2
454.264	22607.87
454.47	23429.1
454.676	22759.42
454.882	23447.54
455.088	21329.94
455.294	21817.35
455.5	22353.92
455.705	22507.52
455.911	21172.24
456.117	21166.1
456.323	20860.95
456.529	19566.63
456.735	20709.4
456.941	19818.53
457.147	19552.3
457.352	19216.43
457.558	19044.4
457.764	19165.23
457.97	18763.83
458.176	18325.57
458.381	18280.51
458.587	17487.95
458.793	17518.67
458.999	16478.3
459.204	17811.53
459.41	17129.55
459.616	15984.74
459.821	16380
460.027	15902.82
460.233	15751.27
460.438	15057.01
460.644	15100.01
460.85	14688.37
461.055	14280.83
461.261	14180.48
461.466	13131.92
461.672	12873.87
461.878	13684.87
462.083	12724.37
462.289	12728.47
462.494	12370.07
462.7	11702.43
462.905	11546.79
463.111	12040.35
463.316	12163.23
463.522	11700.39
463.727	11665.57
463.932	11614.37
464.138	11638.95
464.343	11423.91
464.549	11655.33
464.754	11778.21
464.959	11475.11
465.165	11485.35
465.37	11049.13
465.575	10660.02
465.781	11182.25
465.986	11086
466.191	10830
466.397	10522.8
466.602	10080.44
466.807	10444.98
467.012	10547.38
467.218	10481.85
467.423	10291.38
467.628	10197.18
467.833	10754.23
468.038	10289.34
468.244	9986.24
468.449	10361.02
468.654	10188.99
468.859	9932.99
469.064	9867.45
469.269	9554.12
469.474	9676.99
469.679	9883.84
469.885	9511.11
470.09	9699.52
470.295	9795.78
470.5	9476.29
470.705	9568.45
470.91	9302.22
471.115	9341.13
471.32	9484.48
471.525	9314.5
471.73	9070.79
471.935	8952.01
472.139	8706.26
472.344	8745.17
472.549	8605.91
472.754	8665.3
472.959	8464.6
473.164	8302.81
473.369	8239.32
473.574	8478.93
473.778	8427.73
473.983	8231.13
474.188	8345.81
474.393	7944.41
474.598	8061.15
474.802	8085.72
475.007	7876.83
475.212	7917.79
475.417	7477.48
475.621	7799.01
475.826	7641.31
476.031	7401.7
476.235	7313.64
476.44	7411.94
476.645	7280.87
476.849	7100.65
477.054	7133.42
477.259	7162.09
477.463	7139.56
477.668	7055.59
477.872	7108.84
478.077	6871.28
478.282	6689.01
478.486	6633.71
478.691	6617.33
478.895	6578.42
479.1	6551.79
479.304	6568.18
479.509	6303.99
479.713	6426.87
479.918	6273.27
480.122	6326.52
480.326	6093.05
480.531	6412.53
480.735	6338.8
480.94	6279.41
481.144	6367.48
481.348	6017.27
481.553	6140.15
481.757	5953.79
481.961	6209.78
482.166	6158.58
482.37	6076.66
482.574	6078.71
482.778	6074.62
482.983	6172.92
483.187	6111.48
483.391	6074.62
483.595	6054.14
483.8	5953.79
484.004	6084.86
484.208	6095.1
484.412	6238.45
484.616	6068.47
484.821	6066.42
485.025	6091
485.229	6043.9
485.433	6252.79
485.637	6052.09
485.841	5961.98
486.045	5904.64
486.249	5970.17
486.453	6058.23
486.657	6017.27
486.861	5968.12
487.065	5937.4
487.269	5978.36
487.473	6066.42
487.677	6107.38
487.881	6078.71
488.085	6074.62
488.289	6312.18
488.493	6019.32
488.697	6072.57
488.901	6211.83
489.105	6191.35
489.309	6117.62
489.512	6168.82
489.716	6148.34
489.92	6191.35
490.124	6009.08
490.328	6238.45
490.531	6201.59
490.735	6174.97
490.939	6385.91
491.143	6091
491.346	6326.52
491.55	6369.52
491.754	6174.97
491.958	6166.78
492.161	6246.65
492.365	6418.68
492.569	6390
492.772	6615.28
492.976	6459.63
493.18	6512.88
493.383	6445.3
493.587	6488.31
493.79	6656.24
493.994	6428.92
494.197	6770.93
494.401	6639.86
494.605	6568.18
494.808	6865.13
495.012	6820.08
495.215	7069.93
495.419	7088.36
495.622	6871.28
495.825	7031.02
496.029	6867.18
496.232	7289.06
496.436	7063.79
496.639	7557.35
496.843	7280.87
497.046	7381.22
497.249	7309.54
497.453	7475.43
497.656	7590.11
497.859	7735.52
498.063	7790.81
498.266	7919.84
498.469	7868.64
498.673	7846.11
498.876	8200.41
499.079	8093.91
499.282	8163.54
499.485	8331.48
499.689	8354.01
499.892	8315.09
500.095	8397.01
500.298	8702.16
500.501	8650.96
500.705	8839.37
500.908	9091.27
501.111	9003.21
501.314	9294.02
501.517	8966.35
501.72	9279.69
501.923	9197.77
502.126	9601.22
502.329	9760.96
502.532	9783.49
502.735	9779.39
502.938	9767.1
503.141	9867.45
503.344	10109.12
503.547	10227.9
503.75	10166.46
503.953	10391.73
504.156	10727.6
504.359	10727.6
504.562	10567.86
504.765	10774.7
504.968	10846.38
505.17	11143.34
505.373	10987.69
505.576	11481.25
505.779	11311.27
505.982	11514.02
506.185	12030.11
506.387	11739.3
506.59	12038.3
506.793	11989.15
506.996	12239
507.198	12562.58
507.401	12421.27
507.604	12695.7
507.807	12947.6
508.009	12841.11
508.212	12978.32
508.415	13189.26
508.617	13238.41
508.82	13482.12
509.022	13461.64
509.225	13734.02
509.428	13760.64
509.63	13744.26
509.833	13914.24
510.035	14104.7
510.238	14180.48
510.44	14465.14
510.643	14723.19
510.845	14983.28
511.048	14628.98
511.25	14889.07
511.453	14942.32
511.655	15593.58
511.858	15362.15
512.06	15597.67
512.262	15726.69
512.465	15728.74
512.667	15947.87
512.87	16121.95
513.072	16334.94
513.274	16533.59
513.477	16687.19
513.679	16584.79
513.881	17076.3
514.084	17262.67
514.286	17068.11
514.488	17297.49
514.69	17854.53
514.893	17524.81
515.095	17674.31
515.297	17676.36
515.499	17809.48
515.701	18528.31
515.904	18440.25
516.106	18792.5
516.308	18653.24
516.51	19073.07
516.712	19066.93
516.914	19284.02
517.116	19435.56
517.318	19488.81
517.52	19564.59
517.722	19791.91
517.925	19984.42
518.127	20281.38
518.329	20389.92
518.531	20373.53
518.733	20566.04
518.935	20901.91
519.136	21235.73
519.338	21420.05
519.54	21342.22
519.742	21647.37
519.944	21843.98
520.146	21770.25
520.348	22130.69
520.55	22261.76
520.752	22274.05
520.954	22634.49
521.155	22482.94
521.357	22788.09
521.559	23003.13
521.761	23281.65
521.963	23265.27
522.164	23322.61
522.366	23691.24
522.568	23928.81
522.77	23951.34
522.971	24399.84
523.173	24244.2
523.375	24373.22
523.576	24520.67
523.778	24330.21
523.98	24811.48
524.181	25118.68
524.383	24868.83
524.584	25636.81
524.786	25153.49
524.988	25198.55
525.189	25604.05
525.391	25747.4
525.592	25825.23
525.794	25997.26
525.995	26255.3
526.197	26195.91
526.398	26116.04
526.6	26140.61
526.801	26218.44
527.003	26517.44
527.204	26630.08
527.406	27066.3
527.607	26845.12
527.808	27033.53
528.01	26619.84
528.211	27131.83
528.412	27189.17
528.614	27320.24
528.815	27572.14
529.016	27393.97
529.218	27273.14
529.419	27430.83
529.62	27457.46
529.822	27451.31
530.023	27789.23
530.224	27869.1
530.425	27703.21
530.626	27197.37
530.828	27383.73
531.029	28028.84
531.23	27772.85
531.431	27570.1
531.632	27908.01
531.833	28260.26
532.035	28143.53
532.236	28274.6
532.437	28051.37
532.638	27981.74
532.839	28084.14
533.04	28299.17
533.241	27852.72
533.442	28159.91
533.643	28215.21
533.844	28370.85
534.045	28194.73
534.246	27957.16
534.447	28530.59
534.648	28428.2
534.849	28632.99
535.05	28174.25
535.251	28364.71
535.451	28098.47
535.652	28379.04
535.853	28061.61
536.054	28374.95
536.255	28428.2
536.456	28104.62
536.657	28299.17
536.857	28192.68
537.058	28299.17
537.259	28260.26
537.46	28379.04
537.66	28424.1
537.861	28362.66
538.062	28444.58
538.263	28456.87
538.463	28221.35
538.664	28344.23
538.865	28239.78
539.065	28579.75
539.266	28172.2
539.466	28377
539.667	28073.9
539.868	28823.45
540.068	27899.82
540.269	27865
540.469	28077.99
540.67	28127.14
540.87	27692.97
541.071	28172.2
541.271	28268.45
541.472	28032.94
541.672	28180.39
541.873	28319.65
542.073	27572.14
542.274	28143.53
542.474	28190.63
542.675	27910.06
542.875	28262.31
543.075	27975.59
543.276	27836.33
543.476	28075.94
543.676	28008.36
543.877	28327.85
544.077	28045.23
544.277	28065.71
544.478	27922.35
544.678	28104.62
544.878	28164.01
545.078	28317.61
545.279	27512.75
545.479	27983.79
545.679	28037.03
545.879	27822
546.079	28153.77
546.28	28002.22
546.48	27688.88
546.68	27901.87
546.88	27930.54
547.08	28157.86
547.28	27959.21
547.48	27690.93
547.68	27727.79
547.88	27439.03
548.081	28258.21
548.281	27670.45
548.481	27719.6
548.681	27707.31
548.881	27846.57
549.081	27686.83
549.28	27500.47
549.48	27824.04
549.68	27830.19
549.88	28077.99
550.08	27209.65
550.28	28032.94
550.48	27815.85
550.68	27799.47
550.88	27690.93
551.08	27459.51
551.279	27926.44
551.479	27547.57
551.679	27625.39
551.879	27725.74
552.079	27875.24
552.278	27445.17
552.478	27559.86
552.678	27738.03
552.878	27633.58
553.077	27420.59
553.277	27353.01
553.477	27643.82
553.676	27615.15
553.876	27705.26
554.076	27191.22
554.275	27209.65
554.475	27131.83
554.674	27330.48
554.874	27385.78
555.074	27350.96
555.273	27416.5
555.473	27406.26
555.672	27135.93
555.872	27189.17
556.071	27350.96
556.271	27154.36
556.47	27287.48
556.67	27148.22
556.869	27088.82
557.068	27244.47
557.268	26499.01
557.467	26914.75
557.667	27045.82
557.866	27455.41
558.065	26789.82
558.265	26722.24
558.464	26369.99
558.663	26886.08
558.863	26441.67
559.062	27131.83
559.261	26451.91
559.461	26761.15
559.66	26185.67
559.859	26554.3
560.058	26408.9
560.258	26283.97
560.457	26621.89
560.656	26808.25
560.855	26187.72
561.054	26345.41
561.253	26277.83
561.453	26099.66
561.652	26468.29
561.851	26066.89
562.05	25991.11
562.249	25982.92
562.448	26189.77
562.647	26099.66
562.846	25954.25
563.045	25808.84
563.244	25761.74
563.443	25880.52
563.642	25602
563.841	25753.55
564.04	25548.75
564.239	25962.44
564.438	25456.59
564.637	25212.88
564.836	25544.66
565.035	25190.36
565.234	25372.63
565.432	25382.87
565.631	25384.91
565.83	25112.53
566.029	25135.06
566.228	25042.9
566.427	24805.34
566.625	25350.1
566.824	24741.85
567.023	25059.29
567.222	24834.01
567.42	24713.18
567.619	24678.36
567.818	24885.21
568.016	24731.61
568.215	24825.82
568.414	24514.53
568.612	24653.79
568.811	24176.61
569.01	24188.9
569.208	24104.93
569.407	24356.83
569.605	24084.45
569.804	24397.79
570.002	23959.53
570.201	24197.09
570.4	24039.4
570.598	23693.29
570.797	23586.8
570.995	23685.1
571.193	23457.78
571.392	23877.61
571.59	23619.56
571.789	23615.47
571.987	23633.9
572.186	23613.42
572.384	23212.02
572.582	23492.59
572.781	23541.74
572.979	22933.5
573.177	23230.45
573.376	23386.1
573.574	22904.82
573.772	23336.95
573.971	22980.6
574.169	22851.58
574.367	22595.58
574.565	22679.55
574.763	22712.31
574.962	22661.12
575.16	22241.28
575.358	22689.79
575.556	22401.02
575.754	22640.64
575.952	22384.64
576.151	22304.77
576.349	22163.46
576.547	21903.37
576.745	22136.84
576.943	22351.87
577.141	22392.83
577.339	21878.79
577.537	21886.98
577.735	21927.94
577.933	21862.41
578.131	21874.7
578.329	21835.78
578.527	21420.05
578.725	21665.8
578.923	21878.79
579.121	21157.91
579.319	21501.97
579.516	21600.27
579.714	21428.24
579.912	21237.78
580.11	21291.02
580.308	21157.91
580.506	21209.11
580.704	20787.22
580.901	21008.4
581.099	21129.23
581.297	20713.5
581.495	20776.98
581.692	20906.01
581.89	20518.94
582.088	20736.02
582.285	20918.29
582.483	20701.21
582.681	20803.61
582.878	20394.01
583.076	20523.04
583.274	20445.21
583.471	20047.91
583.669	20553.76
583.866	20297.76
584.064	20209.7
584.262	19947.56
584.459	20353.05
584.657	19949.6
584.854	20189.22
585.052	19875.88
585.249	19820.58
585.447	19802.15
585.644	19574.83
585.841	19761.19
586.039	20152.35
586.236	19281.97
586.434	19423.28
586.631	19542.06
586.828	19464.24
587.026	19396.65
587.223	19277.87
587.42	19202.1
587.618	19232.82
587.815	19165.23
588.012	19253.3
588.21	19001.4
588.407	18997.3
588.604	18837.56
588.801	18696.25
588.999	18901.04
589.196	18620.47
589.393	18802.74
589.59	18757.69
589.787	18618.43
589.984	18550.84
590.182	18227.26
590.379	18765.88
590.576	18421.82
590.773	18300.99
590.97	18432.06
591.167	18311.23
591.364	17883.2
591.561	18292.8
591.758	18178.11
591.955	17872.96
592.152	18008.13
592.349	17858.63
592.546	18102.34
592.743	17899.59
592.94	17463.37
593.137	17702.98
593.334	17770.57
593.531	17369.16
593.727	17690.7
593.924	17563.72
594.121	17291.34
594.318	17461.32
594.515	17041.49
594.712	17248.33
594.908	17092.69
595.105	17307.73
595.302	17027.15
595.499	17133.65
595.696	17109.07
595.892	16990.29
596.089	17182.8
596.286	16990.29
596.482	17041.49
596.679	17082.45
596.876	16924.76
597.072	16722.01
597.269	16629.85
597.466	16504.92
597.662	16513.11
597.859	16566.36
598.055	16730.2
598.252	16347.23
598.448	16341.08
598.645	16412.76
598.841	16130.14
599.038	16394.33
599.234	16285.79
599.431	16035.94
599.627	16035.94
599.824	16162.91
600.02	15964.26
600.217	16078.94
600.413	15749.22
600.609	15712.36
600.806	15708.26
601.002	15937.63
601.198	15384.68
601.395	15702.12
601.591	15667.3
601.787	15636.58
601.984	15413.35
602.18	15579.24
602.376	15196.27
602.572	15331.44
602.769	15270
602.965	15159.41
603.161	15489.13
603.357	15128.69
603.553	14764.15
603.75	15239.28
603.946	14841.97
604.142	15167.6
604.338	14874.74
604.534	15083.63
604.73	14762.1
604.926	14833.78
605.122	14835.83
605.318	14551.16
605.514	14858.35
605.71	14706.8
605.906	14596.21
606.102	14282.88
606.298	14567.54
606.494	14499.96
606.69	14377.08
606.886	14489.72
607.082	14168.19
607.278	14356.6
607.474	14053.5
607.67	14172.29
607.866	14057.6
608.062	14424.19
608.257	14258.3
608.453	14041.22
608.649	14143.61
608.845	13996.16
609.041	14168.19
609.236	13963.39
609.432	13951.1
609.628	13865.09
609.824	13777.03
610.019	14012.54
610.215	13891.71
610.411	13924.48
610.606	13799.55
610.802	13807.75
610.998	13746.31
611.193	13514.89
611.389	13496.46
611.584	13496.46
611.78	13570.18
611.976	13596.81
612.171	13643.91
612.367	13525.13
612.562	13447.3
612.758	13160.59
612.953	13324.43
613.149	13371.53
613.344	13371.53
613.539	13666.44
613.735	13539.46
613.93	13398.15
614.126	13320.33
614.321	13387.91
614.517	13174.92
614.712	13299.85
614.907	13283.47
615.103	13101.2
615.298	13045.9
615.493	13103.25
615.688	12845.2
615.884	13123.73
616.079	12867.73
616.274	13125.77
616.47	12918.93
616.665	12916.88
616.86	12759.19
617.055	12886.16
617.25	12935.31
617.445	12859.54
617.641	12542.1
617.836	12535.96
618.031	12431.51
618.226	12707.99
618.421	12517.53
618.616	12552.34
618.811	12392.6
619.006	12699.8
619.201	12394.65
619.396	12337.31
619.591	12259.48
619.786	12341.4
619.981	12269.72
620.176	12392.6
620.371	12026.01
620.566	12368.02
620.761	11964.57
620.956	12122.27
621.151	11880.61
621.346	11919.52
621.541	11604.13
621.735	11837.6
621.93	11554.98
622.125	11827.36
622.32	11364.52
622.515	11614.37
622.709	11630.76
622.904	11475.11
623.099	11366.57
623.294	11399.34
623.488	11210.92
623.683	11114.67
623.878	10967.21
624.072	11174.06
624.267	10948.78
624.462	11141.29
624.656	10846.38
624.851	10971.31
625.046	10758.32
625.24	10842.29
625.435	10571.96
625.629	10733.75
625.824	10483.89
626.018	10361.02
626.213	10254.52
626.407	10324.15
626.602	10154.17
626.796	10348.73
626.991	10131.64
627.185	10260.66
627.38	10201.27
627.574	9898.17
627.768	9844.93
627.963	9988.28
628.157	9806.02
628.352	9873.6
628.546	9693.38
628.74	9900.22
628.935	9720
629.129	9834.69
629.323	9613.51
629.517	9517.25
629.712	9423.05
629.906	9541.83
630.1	9220.3
630.294	9314.5
630.489	9257.16
630.683	9404.61
630.877	9113.8
631.071	9040.08
631.265	9083.08
631.459	8890.57
631.653	8931.53
631.848	9025.74
632.042	8911.05
632.236	8976.59
632.43	8798.42
632.624	8730.83
632.818	8810.7
633.012	8630.48
633.206	8501.46
633.4	8638.67
633.594	8372.44
633.788	8550.61
633.982	8388.82
634.176	8458.45
634.369	8394.97
634.563	8331.48
634.757	8360.15
634.951	8278.23
635.145	8253.66
635.339	8216.79
635.533	8016.09
635.726	8114.39
635.92	7954.65
636.114	7925.98
636.308	7960.8
636.501	7747.81
636.695	7782.62
636.889	7811.29
637.083	7844.06
637.276	7968.99
637.47	7827.68
637.664	7581.92
637.857	7598.31
638.051	7647.46
638.244	7459.04
638.438	7459.04
638.632	7497.95
638.825	7377.12
639.019	7207.14
639.212	7221.48
639.406	7350.5
639.599	7354.6
639.793	7346.41
639.986	7129.32
640.18	7084.27
640.373	7094.51
640.567	7082.22
640.76	7170.28
640.954	7057.64
641.147	6871.28
641.34	6854.89
641.534	6891.76
641.727	6885.61
641.92	6820.08
642.114	6699.25
642.307	6750.45
642.5	6664.43
642.694	6650.1
642.887	6568.18
643.08	6615.28
643.273	6516.98
643.467	6394.1
643.66	6584.56
643.853	6402.29
644.046	6500.59
644.239	6449.39
644.432	6222.07
644.626	6209.78
644.819	6166.78
645.012	6191.35
645.205	6289.65
645.398	6185.21
645.591	6189.3
645.784	6197.49
645.977	5978.36
646.17	6279.41
646.363	6060.28
646.556	6052.09
646.749	5902.59
646.942	6013.18
647.135	5943.55
647.328	5968.12
647.521	5884.16
647.714	5667.07
647.907	5722.37
648.099	5601.54
648.292	5665.02
648.485	5755.13
648.678	5566.72
648.871	5599.49
649.064	5583.1
649.256	5675.26
649.449	5595.39
649.642	5427.46
649.835	5378.31
650.027	5261.57
650.22	5452.03
650.413	5456.13
650.605	5445.89
650.798	5380.36
650.991	5191.94
651.183	5132.55
651.376	5329.16
651.568	5171.46
651.761	5206.28
651.954	5157.13
652.146	5153.03
652.339	5136.65
652.531	5181.7
652.724	5103.88
652.916	4942.09
653.109	4944.14
653.301	4954.38
653.494	4911.37
653.686	5011.72
653.879	4985.1
654.071	4845.84
654.263	4937.99
654.456	5009.67
654.648	4837.64
654.84	4819.21
655.033	4743.44
655.225	4792.59
655.417	4604.18
655.61	4667.66
655.802	4782.35
655.994	4600.08
656.186	4733.2
656.379	4737.29
656.571	4632.85
656.763	4552.98
656.955	4491.54
657.148	4585.74
657.34	4536.59
657.532	4245.78
657.724	4479.25
657.916	4346.13
658.108	4284.69
658.3	4477.2
658.492	4313.36
658.684	4268.31
658.876	4208.92
659.068	4426
659.26	4247.83
659.452	4186.39
659.644	4262.16
659.836	4280.6
660.028	4200.73
660.22	4174.1
660.412	4157.72
660.604	3993.88
660.796	4225.3
660.988	4149.53
661.18	3987.74
661.372	3985.69
661.563	3979.54
661.755	4045.08
661.947	3877.15
662.139	3969.3
662.331	3838.23
662.522	3793.18
662.714	3881.24
662.906	3791.13
663.097	3879.19
663.289	3807.52
663.481	3832.09
663.673	3926.3
663.864	3858.71
664.056	3625.25
664.247	3830.04
664.439	3690.78
664.631	3617.05
664.822	3682.59
665.014	3805.47
665.205	3760.41
665.397	3762.46
665.588	3670.3
665.78	3526.94
665.971	3635.49
666.163	3522.85
666.354	3543.33
666.546	3428.64
666.737	3567.9
666.929	3670.3
667.12	3469.6
667.311	3473.7
667.503	3516.7
667.694	3559.71
667.885	3406.11
668.077	3395.87
668.268	3309.86
668.459	3264.8
668.651	3359.01
668.842	3365.15
669.033	3406.11
669.224	3440.93
669.416	3469.6
669.607	3494.18
669.798	3307.81
669.989	3359.01
670.18	3256.61
670.371	3264.8
670.563	3197.22
670.754	3311.91
670.945	3189.03
671.136	3207.46
671.327	3123.49
671.518	3326.24
671.709	3191.08
671.9	3191.08
672.091	3166.5
672.282	3215.65
672.473	3141.93
672.664	3045.67
672.855	3076.39
673.046	3109.16
673.237	3182.88
673.428	3131.69
673.619	3100.97
673.809	3141.93
674	3148.07
674.191	3123.49
674.382	2996.52
674.573	3152.17
674.764	3174.69
674.954	3062.05
675.145	2973.99
675.336	3027.24
675.527	2937.13
675.717	2973.99
675.908	2939.18
676.099	2947.37
676.289	2984.23
676.48	2912.55
676.671	2937.13
676.861	3027.24
677.052	2920.74
677.243	3053.86
677.433	3012.9
677.624	3055.91
677.814	2890.03
678.005	2951.46
678.195	2965.8
678.386	3027.24
678.576	2965.8
678.767	2957.61
678.957	2922.79
679.148	2930.98
679.338	2847.02
679.529	2978.09
679.719	2965.8
679.909	2900.27
680.1	2892.07
680.29	2902.31
680.481	2769.2
680.671	3060.01
680.861	2953.51
681.052	2973.99
681.242	2933.03
681.432	2965.8
681.622	2973.99
681.813	2924.84
682.003	2971.94
682.193	2734.38
682.383	2890.03
682.573	2771.24
682.764	2894.12
682.954	2914.6
683.144	2902.31
683.334	3006.76
683.524	2945.32
683.714	2834.73
683.904	2844.97
684.094	2887.98
684.284	2793.77
684.474	2838.83
684.664	2834.73
684.854	2820.39
685.044	2847.02
685.234	2726.19
685.424	2808.11
685.614	2847.02
685.804	2851.11
685.994	2685.23
686.184	2769.2
686.374	2847.02
686.564	2814.25
686.753	2701.61
686.943	2691.37
687.133	2597.17
687.323	2701.61
687.513	2738.48
687.702	2584.88
687.892	2664.75
688.082	2580.78
688.272	2701.61
688.461	2623.79
688.651	2619.69
688.841	2576.69
689.03	2642.22
689.22	2537.77
689.41	2496.82
689.599	2496.82
689.789	2490.67
689.979	2488.62
690.168	2470.19
690.358	2552.11
690.547	2500.91
690.737	2617.65
690.926	2548.01
691.116	2375.99
691.305	2478.38
691.495	2451.76
691.684	2439.47
691.874	2441.52
692.063	2552.11
692.252	2439.47
692.442	2490.67
692.631	2380.08
692.82	2515.25
693.01	2410.8
693.199	2339.12
693.388	2281.78
693.578	2343.22
693.767	2316.59
693.956	2232.63
694.146	2253.11
694.335	2330.93
694.524	2408.75
694.713	2302.26
694.902	2218.29
695.092	2314.55
695.281	2371.89
695.47	2267.44
695.659	2373.94
695.848	2199.86
696.037	2150.71
696.226	2310.45
696.415	2281.78
696.604	2203.96
696.793	2193.72
696.982	2199.86
697.171	2187.57
697.36	2152.76
697.549	2113.85
697.738	2150.71
697.927	2240.82
698.116	2085.17
698.305	2152.76
698.494	2036.02
698.683	2050.36
698.872	2148.66
699.061	2119.99
699.25	2097.46
699.438	2169.14
699.627	2093.37
699.816	2044.21
700.005	2085.17
700.193	2093.37
700.382	2093.37
700.571	1970.49
700.76	2134.32
700.948	2193.72
701.137	2013.49
701.326	2009.4
701.514	2003.25
701.703	2091.32
701.892	2056.5
702.08	2011.45
702.269	2060.6
702.457	2027.83
702.646	2099.51
702.834	2019.64
703.023	1999.16
703.212	2068.79
703.4	2007.35
703.589	2167.09
703.777	2072.89
703.965	1970.49
704.154	2027.83
704.342	1915.19
704.531	2038.07
704.719	2023.73
704.907	2040.12
705.096	2060.6
705.284	1947.96
705.472	1972.54
705.661	2044.21
705.849	2134.32
706.037	2050.36
706.226	2050.36
706.414	2072.89
706.602	2027.83
706.79	1993.01
706.979	2040.12
707.167	2122.04
707.355	1954.1
707.543	2064.69
707.731	1997.11
707.919	1995.06
708.107	1907
708.296	2011.45
708.484	1988.92
708.672	1964.34
708.86	1900.86
709.048	1980.73
709.236	2040.12
709.424	2025.78
709.612	2015.54
709.8	1999.16
709.988	2054.45
710.176	2087.22
710.364	1956.15
710.551	1880.38
710.739	1921.34
710.927	1937.72
711.115	1982.78
711.303	2007.35
711.491	2072.89
711.679	1995.06
711.866	2003.25
712.054	2091.32
712.242	1886.52
712.43	2023.73
712.617	2085.17
712.805	2038.07
712.993	2031.93
713.181	1976.63
713.368	2048.31
713.556	2036.02
713.744	1945.91
713.931	2144.56
714.119	2036.02
714.306	2027.83
714.494	2042.17
714.682	2001.21
714.869	2019.64
715.057	2132.28
715.244	1962.3
715.432	2119.99
715.619	2044.21
715.807	1997.11
715.994	2064.69
716.182	2068.79
716.369	2068.79
716.556	2146.61
716.744	2036.02
716.931	2052.41
717.119	2113.85
717.306	2134.32
717.493	2208.05
717.681	1988.92
717.868	2085.17
718.055	2060.6
718.242	2130.23
718.43	2224.44
718.617	2173.24
718.804	2060.6
718.991	2029.88
719.179	2044.21
719.366	2023.73
719.553	2093.37
719.74	2013.49
719.927	2081.08
720.114	2085.17
720.301	2111.8
720.488	2167.09
720.676	2052.41
720.863	2103.61
721.05	2193.72
721.237	2128.18
721.424	2167.09
721.611	2197.81
721.798	2193.72
721.985	2183.48
722.172	2136.37
722.358	2128.18
722.545	2271.54
722.732	2068.79
722.919	2179.38
723.106	2136.37
723.293	2136.37
723.48	2095.41
723.667	2117.94
723.853	2158.9
724.04	2146.61
724.227	2294.07
724.414	2146.61
724.6	2109.75
724.787	2117.94
724.974	2224.44
725.161	2179.38
725.347	2150.71
725.534	2318.64
725.72	2261.3
725.907	2193.72
726.094	2275.63
726.28	2212.15
726.467	2175.28
726.653	2214.2
726.84	2210.1
727.027	2253.11
727.213	2132.28
727.4	2277.68
727.586	2154.8
727.773	2300.21
727.959	2292.02
728.145	2224.44
728.332	2261.3
728.518	2183.48
728.705	2265.39
728.891	2179.38
729.077	2249.01
729.264	2208.05
729.45	2302.26
729.636	2289.97
729.823	2244.92
730.009	2306.35
730.195	2267.44
730.382	2294.07
730.568	2289.97
730.754	2318.64
730.94	2310.45
731.126	2267.44
731.313	2343.22
731.499	2357.55
731.685	2298.16
731.871	2308.4
732.057	2240.82
732.243	2244.92
732.429	2306.35
732.615	2292.02
732.801	2435.38
732.987	2339.12
733.173	2351.41
733.359	2298.16
733.545	2355.51
733.731	2375.99
733.917	2308.4
734.103	2232.63
734.289	2343.22
734.475	2314.55
734.661	2369.84
734.847	2249.01
735.033	2363.7
735.219	2253.11
735.404	2300.21
735.59	2349.36
735.776	2289.97
735.962	2337.07
736.148	2330.93
736.333	2390.32
736.519	2273.59
736.705	2359.6
736.89	2345.27
737.076	2326.83
737.262	2314.55
737.447	2310.45
737.633	2220.34
737.819	2269.49
738.004	2244.92
738.19	2345.27
738.375	2253.11
738.561	2183.48
738.747	2283.83
738.932	2289.97
739.118	2408.75
739.303	2382.13
739.489	2349.36
739.674	2326.83
739.859	2275.63
740.045	2324.79
740.23	2277.68
740.416	2177.33
740.601	2158.9
740.786	2347.31
740.972	2306.35
741.157	2275.63
741.342	2224.44
741.528	2224.44
741.713	2335.03
741.898	2257.2
742.084	2199.86
742.269	2206
742.454	2306.35
742.639	2216.24
742.824	2253.11
743.01	2294.07
743.195	2150.71
743.38	2056.5
743.565	2185.52
743.75	2173.24
743.935	2206
744.12	2150.71
744.305	2136.37
744.49	2038.07
744.675	2216.24
744.86	2099.51
745.045	2158.9
745.23	2068.79
745.415	2142.52
745.6	2017.59
745.785	2060.6
745.97	2042.17
746.155	1970.49
746.34	2048.31
746.525	1917.24
746.71	1990.97
746.895	2007.35
747.079	2068.79
747.264	1962.3
747.449	2066.74
747.634	1952.06
747.819	2062.65
748.003	1929.53
748.188	2017.59
748.373	1894.71
748.557	1986.87
748.742	1925.43
748.927	1964.34
749.111	1874.23
749.296	1935.67
749.481	1851.71
749.665	1818.94
749.85	1823.03
750.034	1806.65
750.219	1902.9
750.404	1798.46
750.588	1929.53
750.773	1806.65
750.957	1839.42
751.141	1710.4
751.326	1773.88
751.51	1689.92
751.695	1929.53
751.879	1755.45
752.064	1712.44
752.248	1841.47
752.432	1663.29
752.617	1726.78
752.801	1737.02
752.985	1784.12
753.17	1790.27
753.354	1593.66
753.538	1700.16
753.722	1706.3
753.907	1620.28
754.091	1593.66
754.275	1626.43
754.459	1524.03
754.643	1614.14
754.828	1571.13
755.012	1521.98
755.196	1513.79
755.38	1591.61
755.564	1546.56
755.748	1474.88
755.932	1567.04
756.116	1478.97
756.3	1415.49
756.484	1505.6
756.668	1452.35
756.852	1425.73
757.036	1450.3
757.22	1438.02
757.404	1421.63
757.588	1405.25
757.772	1515.84
757.956	1399.1
758.14	1397.06
758.323	1335.62
758.507	1374.53
758.691	1431.87
758.875	1372.48
759.059	1282.37
759.242	1296.71
759.426	1245.51
759.61	1265.99
759.794	1229.12
759.977	1259.84
760.161	1263.94
760.345	1257.79
760.528	1349.95
760.712	1249.6
760.895	1188.16
761.079	1292.61
761.263	1110.34
761.446	1206.59
761.63	1253.7
761.813	1235.27
761.997	1147.2
762.18	1149.25
762.364	1253.7
762.547	1239.36
762.731	1130.82
762.914	1214.79
763.098	1175.88
763.281	1145.16
763.464	1175.88
763.648	1190.21
763.831	1120.58
764.015	1134.92
764.198	1079.62
764.381	1134.92
764.564	1079.62
764.748	1034.57
764.931	1184.07
765.114	1046.85
765.297	1159.49
765.481	1007.94
765.664	1077.57
765.847	1161.54
766.03	1159.49
766.213	1130.82
766.397	1098.05
766.58	969.03
766.763	1044.81
766.946	1038.66
767.129	1061.19
767.312	995.65
767.495	1067.33
767.678	985.41
767.861	1104.2
768.044	1085.76
768.227	997.7
768.41	1073.48
768.593	964.93
768.776	1093.96
768.959	989.51
769.142	1053
769.324	1022.28
769.507	995.65
769.69	919.88
769.873	899.4
770.056	954.69
770.239	995.65
770.421	971.08
770.604	948.55
770.787	977.22
770.97	987.46
771.152	930.12
771.335	940.36
771.518	987.46
771.7	930.12
771.883	899.4
772.066	946.5
772.248	989.51
772.431	940.36
772.613	893.26
772.796	848.2
772.978	930.12
773.161	889.16
773.343	840.01
773.526	807.24
773.708	766.28
773.891	782.67
774.073	790.86
774.256	835.91
774.438	944.45
774.621	913.74
774.803	889.16
774.985	858.44
775.168	872.78
775.35	850.25
775.532	844.1
775.715	723.27
775.897	741.71
776.079	756.04
776.261	813.38
776.444	776.52
776.626	762.19
776.808	733.51
776.99	794.95
777.173	723.27
777.355	661.84
777.537	725.32
777.719	758.09
777.901	692.55
778.083	758.09
778.265	692.55
778.447	809.29
778.629	661.84
778.811	762.19
778.993	702.79
779.175	624.97
779.357	667.98
779.539	594.25
779.721	627.02
779.903	649.55
780.085	647.5
780.267	608.59
780.449	678.22
780.631	620.88
780.812	637.26
780.994	694.6
781.176	641.36
781.358	592.2
781.54	586.06
781.721	598.35
781.903	651.6
782.085	676.17
782.267	522.57
782.448	581.96
782.63	571.72
782.812	571.72
782.993	538.96
783.175	563.53
783.357	530.77
783.538	596.3
783.72	514.38
783.901	471.37
784.083	524.62
784.264	571.72
784.446	495.95
784.627	561.48
784.809	504.14
784.99	508.24
785.172	522.57
785.353	512.33
785.535	532.81
785.716	483.66
785.897	498
786.079	424.27
786.26	524.62
786.441	543.05
786.623	454.99
786.804	454.99
786.985	489.81
787.167	563.53
787.348	422.22
787.529	471.37
787.71	541.01
787.891	405.84
788.073	448.85
788.254	414.03
788.435	481.61
788.616	373.07
788.797	385.36
788.978	416.08
789.159	438.61
789.34	479.57
789.522	446.8
789.703	352.59
789.884	438.61
790.065	426.32
790.246	463.18
790.427	352.59
790.607	414.03
790.788	461.13
790.969	344.4
791.15	311.63
791.331	364.88
791.512	332.11
791.693	356.69
791.874	393.55
792.054	454.99
792.235	475.47
792.416	362.83
792.597	440.65
792.778	414.03
792.958	381.26
793.139	299.34
793.32	332.11
793.5	362.83
793.681	348.5
793.862	342.35
794.042	358.74
794.223	274.77
794.404	389.46
794.584	336.21
794.765	258.39
794.945	321.87
795.126	356.69
795.306	381.26
795.487	352.59
795.667	358.74
795.848	317.78
796.028	330.06
796.209	340.3
796.389	379.22
796.57	323.92
796.75	272.72
796.93	319.82
797.111	287.06
797.291	328.02
797.471	291.15
797.652	348.5
797.832	287.06
798.012	256.34
798.192	323.92
798.373	270.67
798.553	311.63
798.733	299.34
798.913	332.11
799.093	317.78
799.274	348.5
799.454	344.4
799.634	258.39
799.814	356.69
799.994	280.91
800.174	317.78
800.354	242
800.534	262.48
800.714	282.96
800.894	297.3
801.074	231.76
801.254	229.71
801.434	315.73
801.614	268.63
801.794	209.23
801.974	817.48
802.154	184.66
802.334	266.58
802.514	278.87
802.693	205.14
802.873	315.73
803.053	278.87
803.233	258.39
803.413	160.08
803.592	188.75
803.772	209.23
803.952	295.25
804.131	242
804.311	303.44
804.491	266.58
804.67	227.67
804.85	274.77
805.03	182.61
805.209	266.58
805.389	203.09
805.568	227.67
805.748	151.89
805.928	217.43
806.107	244.05
806.287	242
806.466	309.58
806.646	250.19
806.825	192.85
807.004	180.56
807.184	237.91
807.363	340.3
807.543	299.34
807.722	160.08
807.901	188.75
808.081	260.43
808.26	119.12
808.439	201.04
808.619	176.47
808.798	219.47
808.977	262.48
809.156	209.23
809.336	233.81
809.515	225.62
809.694	239.95
809.873	151.89
810.052	151.89
810.231	209.23
810.411	192.85
810.59	235.86
810.769	149.84
810.948	201.04
811.127	176.47
811.306	139.6
811.485	229.71
811.664	276.82
811.843	196.95
812.022	225.62
812.201	176.47
812.38	201.04
812.559	143.7
812.737	151.89
812.916	119.12
813.095	198.99
813.274	233.81
813.453	217.43
813.632	215.38
813.811	203.09
813.989	184.66
814.168	158.03
814.347	184.66
814.526	168.27
814.704	69.97
814.883	192.85
815.062	147.8
815.24	192.85
815.419	119.12
815.598	94.55
815.776	180.56
815.955	104.79
816.133	155.99
816.312	145.75
816.49	205.14
816.669	180.56
816.847	153.94
817.026	166.23
817.204	194.9
817.383	141.65
817.561	137.56
817.74	201.04
817.918	227.67
818.097	139.6
818.275	139.6
818.453	168.27
818.632	125.27
818.81	176.47
818.988	104.79
819.167	110.93
819.345	90.45
819.523	123.22
819.701	143.7
819.879	153.94
820.058	219.47
820.236	119.12
820.414	178.51
820.592	192.85
820.77	180.56
820.948	149.84
821.127	47.44
821.305	135.51
821.483	88.4
821.661	186.71
821.839	180.56
822.017	158.03
822.195	151.89
822.373	198.99
822.551	127.32
822.729	145.75
822.907	96.6
823.085	115.03
823.262	129.36
823.44	135.51
823.618	170.32
823.796	188.75
823.974	145.75
824.152	39.25
824.329	137.56
824.507	98.64
824.685	88.4
824.863	184.66
825.04	143.7
825.218	184.66
825.396	198.99
825.574	131.41
825.751	94.55
825.929	196.95
826.107	139.6
826.284	184.66
826.462	135.51
826.639	82.26
826.817	112.98
826.994	84.31
827.172	104.79
827.349	147.8
827.527	127.32
827.704	112.98
827.882	176.47
828.059	151.89
828.237	143.7
828.414	127.32
828.591	100.69
828.769	31.06
828.946	35.16
829.124	127.32
829.301	98.64
829.478	176.47
829.655	110.93
829.833	100.69
830.01	47.44
830.187	108.88
830.364	115.03
830.542	135.51
830.719	168.27
830.896	127.32
831.073	102.74
831.25	47.44
831.427	69.97
831.604	16.73
831.782	106.84
831.959	151.89
832.136	37.2
832.313	55.64
832.49	41.3
832.667	127.32
832.844	104.79
833.021	141.65
833.198	78.16
833.374	102.74
833.551	94.55
833.728	45.4
833.905	74.07
834.082	98.64
834.259	78.16
834.436	123.22
834.612	92.5
834.789	61.78
834.966	53.59
835.143	110.93
835.319	88.4
835.496	-1.71
835.673	143.7
835.85	92.5
836.026	94.55
836.203	102.74
836.38	57.68
836.556	69.97
836.733	63.83
836.909	149.84
837.086	0.34
837.262	65.88
837.439	127.32
837.616	170.32
837.792	121.17
837.968	121.17
838.145	69.97
838.321	53.59
838.498	53.59
838.674	76.12
838.851	74.07
839.027	86.36
839.203	63.83
839.38	151.89
839.556	117.08
839.732	94.55
839.909	-5.8
840.085	102.74
840.261	55.64
840.437	8.53
840.614	61.78
840.79	102.74
840.966	67.92
841.142	53.59
841.318	94.55
841.494	37.2
841.671	69.97
841.847	72.02
842.023	18.77
842.199	74.07
842.375	184.66
842.551	78.16
842.727	16.73
842.903	110.93
843.079	86.36
843.255	121.17
843.431	98.64
843.607	102.74
843.783	53.59
843.959	69.97
844.134	78.16
844.31	110.93
844.486	86.36
844.662	78.16
844.838	110.93
845.013	45.4
845.189	94.55
845.365	45.4
845.541	47.44
845.716	41.3
845.892	45.4
846.068	61.78
846.244	51.54
846.419	86.36
846.595	69.97
846.77	80.21
846.946	74.07
847.122	55.64
847.297	-9.9
847.473	80.21
847.648	16.73
847.824	22.87
847.999	72.02
848.175	-13.99
848.35	96.6
848.526	63.83
848.701	45.4
848.876	53.59
849.052	90.45
849.227	88.4
849.403	55.64
849.578	88.4
849.753	96.6
849.929	61.78
850.104	14.68
850.279	86.36
850.454	88.4
850.63	127.32
850.805	8.53
850.98	82.26
851.155	88.4
851.33	82.26
851.505	22.87
851.681	82.26
851.856	84.31
852.031	121.17
852.206	14.68
852.381	61.78
852.556	41.3
852.731	72.02
852.906	29.01
853.081	33.11
853.256	59.73
853.431	47.44
853.606	20.82
853.781	-63.15
853.956	55.64
854.131	16.73
854.305	-30.38
854.48	53.59
854.655	80.21
854.83	31.06
855.005	37.2
855.18	29.01
855.354	78.16
855.529	98.64
855.704	37.2
855.879	84.31
856.053	31.06
856.228	35.16
856.403	20.82
856.577	104.79
856.752	39.25
856.926	16.73
857.101	86.36
857.276	104.79
857.45	14.68
857.625	78.16
857.799	69.97
857.974	41.3
858.148	-7.85
858.323	80.21
858.497	69.97
858.672	-24.23
858.846	41.3
859.02	78.16
859.195	12.63
859.369	37.2
859.543	53.59
859.718	49.49
859.892	-20.14
860.066	96.6
860.241	-11.95
860.415	31.06
860.589	78.16
860.763	24.92
860.938	-34.47
861.112	24.92
861.286	33.11
861.46	69.97
861.634	55.64
861.808	61.78
861.982	-28.33
862.157	-1.71
862.331	57.68
862.505	49.49
862.679	65.88
862.853	31.06
863.027	2.39
863.201	106.84
863.375	-22.19
863.549	-28.33
863.722	22.87
863.896	78.16
864.07	12.63
864.244	12.63
864.418	88.4
864.592	29.01
864.766	14.68
864.939	41.3
865.113	-42.67
865.287	41.3
865.461	-1.71
865.634	37.2
865.808	-20.14
865.982	72.02
866.156	-1.71
866.329	-28.33
866.503	-3.75
866.676	102.74
866.85	76.12
867.024	12.63
867.197	-9.9
867.371	86.36
867.544	63.83
867.718	-20.14
867.891	53.59
868.065	-48.81
868.238	41.3
868.412	61.78
868.585	16.73
868.759	33.11
868.932	-28.33
869.105	39.25
869.279	33.11
869.452	53.59
869.625	72.02
869.799	12.63
869.972	29.01
870.145	61.78
870.319	8.53
870.492	29.01
870.665	6.49
870.838	-30.38
871.011	-28.33
871.185	-61.1
871.358	26.96
871.531	55.64
871.704	8.53
871.877	88.4
872.05	4.44
872.223	6.49
872.396	86.36
872.569	47.44
872.742	43.35
872.915	100.69
873.088	4.44
873.261	69.97
873.434	49.49
873.607	41.3
873.78	12.63
873.953	33.11
874.126	20.82
874.299	29.01
874.471	-18.09
874.644	-36.52
874.817	53.59
874.99	29.01
875.163	-11.95
875.335	37.2
875.508	-11.95
875.681	119.12
875.853	-3.75
876.026	12.63
876.199	57.68
876.371	63.83
876.544	78.16
876.717	0.34
876.889	22.87
877.062	22.87
877.234	37.2
877.407	-9.9
877.579	39.25
877.752	24.92
877.924	2.39
878.097	14.68
878.269	43.35
878.442	-24.23
878.614	37.2
878.786	112.98
878.959	33.11
879.131	94.55
879.303	-71.34
879.476	88.4
879.648	112.98
879.82	57.68
879.993	74.07
880.165	-11.95
880.337	-28.33
880.509	41.3
880.681	37.2
880.854	-83.63
881.026	98.64
881.198	55.64
881.37	-11.95
881.542	80.21
881.714	49.49
881.886	86.36
882.058	51.54
882.23	98.64
882.402	61.78
882.574	43.35
882.746	65.88
882.918	65.88
883.09	96.6
883.262	31.06
883.434	-44.71
883.606	8.53
883.778	20.82
883.95	135.51
884.122	-11.95
884.293	53.59
884.465	-57
884.637	31.06
884.809	-1.71
884.98	43.35
885.152	12.63
885.324	112.98
885.496	37.2
885.667	72.02
885.839	22.87
886.011	127.32
886.182	55.64
886.354	8.53
886.525	6.49
886.697	-24.23
886.869	53.59
887.04	14.68
887.212	139.6
887.383	45.4
887.555	35.16
887.726	78.16
887.897	-3.75
888.069	22.87
888.24	37.2
888.412	86.36
888.583	63.83
888.754	29.01
888.926	-9.9
889.097	4.44
889.268	-7.85
889.44	31.06
889.611	22.87
889.782	78.16
889.953	31.06
890.125	82.26
890.296	4.44
890.467	-57
890.638	-36.52
890.809	-30.38
890.98	29.01
891.151	61.78
891.323	104.79
891.494	57.68
891.665	55.64
891.836	-1.71
892.007	82.26
892.178	43.35
892.349	43.35
892.52	-32.43
892.691	-34.47
892.862	57.68
893.032	33.11
893.203	98.64
893.374	-24.23
893.545	90.45
893.716	24.92
893.887	65.88
894.057	33.11
894.228	102.74
894.399	-59.05
894.57	55.64
894.74	-1.71
894.911	78.16
895.082	6.49
895.253	-20.14
895.423	-24.23
895.594	78.16
895.764	-24.23
895.935	-44.71
896.106	49.49
896.276	37.2
896.447	8.53
896.617	-16.04
896.788	-1.71
896.958	63.83
897.129	-11.95
897.299	72.02
897.47	104.79
897.64	18.77
897.81	-24.23
897.981	45.4
898.151	-34.47
898.322	14.68
898.492	47.44
898.662	39.25
898.832	53.59
899.003	-24.23
899.173	29.01
899.343	29.01
899.513	24.92
