Data from USB4F104151__187__14-45-10-632.txt Node

Date: Thu Mar 13 14:45:10 EDT 2025
User: louis
Spectrometer: USB4F10415
Trigger mode: 4
Integration Time (sec): 2.000000E-2
Scans to average: 1
Electric dark correction enabled: true
Nonlinearity correction enabled: false
Boxcar width: 0
XAxis mode: Wavelengths
Number of Pixels in Spectrum: 3648
>>>>>Begin Spectral Data<<<<<
178.204	-116.9
178.424	-116.9
178.644	-116.9
178.864	-153.77
179.084	-121
179.304	34.64
179.524	32.6
179.744	20.31
179.964	1.88
180.184	24.4
180.404	-24.75
180.624	-16.55
180.844	-37.03
181.064	-26.79
181.283	44.88
181.503	-51.37
181.723	-2.22
181.943	-47.27
182.163	32.6
182.383	-92.33
182.602	-2.22
182.822	85.84
183.042	87.89
183.262	-67.75
183.482	38.74
183.701	-0.17
183.921	89.94
184.141	32.6
184.361	34.64
184.58	48.98
184.8	-43.18
185.02	-8.36
185.239	65.36
185.459	40.79
185.679	85.84
185.898	-26.79
186.118	55.12
186.338	169.81
186.557	-0.17
186.777	3.93
186.997	30.55
187.216	8.02
187.436	100.18
187.655	5.97
187.875	51.03
188.095	-2.22
188.314	100.18
188.534	55.12
188.753	-2.22
188.973	67.41
189.192	63.32
189.412	-14.51
189.631	-2.22
189.851	42.84
190.07	51.03
190.29	30.55
190.509	34.64
190.729	10.07
190.948	18.26
191.168	163.67
191.387	63.32
191.607	14.17
191.826	5.97
192.045	65.36
192.265	51.03
192.484	98.13
192.704	-26.79
192.923	32.6
193.142	65.36
193.362	34.64
193.581	65.36
193.8	-22.7
194.02	40.79
194.239	-16.55
194.458	10.07
194.678	-10.41
194.897	22.36
195.116	46.93
195.335	8.02
195.555	46.93
195.774	-30.89
195.993	-59.56
196.212	46.93
196.432	14.17
196.651	-30.89
196.87	-18.6
197.089	61.27
197.308	36.69
197.528	42.84
197.747	57.17
197.966	100.18
198.185	75.6
198.404	-39.08
198.623	106.32
198.842	46.93
199.062	59.22
199.281	30.55
199.5	20.31
199.719	-43.18
199.938	42.84
200.157	51.03
200.376	-2.22
200.595	75.6
200.814	79.7
201.033	-2.22
201.252	55.12
201.471	-24.75
201.69	16.21
201.909	-20.65
202.128	65.36
202.347	48.98
202.566	57.17
202.785	-26.79
203.004	8.02
203.223	112.47
203.442	79.7
203.661	-32.94
203.879	38.74
204.098	83.8
204.317	40.79
204.536	38.74
204.755	-2.22
204.974	79.7
205.193	-37.03
205.411	112.47
205.63	-0.17
205.849	30.55
206.068	-24.75
206.287	30.55
206.505	14.17
206.724	46.93
206.943	1.88
207.162	-43.18
207.381	42.84
207.599	20.31
207.818	-26.79
208.037	-2.22
208.255	24.4
208.474	75.6
208.693	71.51
208.911	-24.75
209.13	40.79
209.349	51.03
209.567	55.12
209.786	102.23
210.005	34.64
210.223	-20.65
210.442	-82.09
210.661	51.03
210.879	51.03
211.098	46.93
211.316	12.12
211.535	28.5
211.753	30.55
211.972	14.17
212.191	-18.6
212.409	89.94
212.628	-32.94
212.846	-16.55
213.065	22.36
213.283	5.97
213.502	-47.27
213.72	38.74
213.938	-2.22
214.157	98.13
214.375	-6.31
214.594	55.12
214.812	-28.84
215.031	73.56
215.249	26.45
215.467	32.6
215.686	-14.51
215.904	-34.99
216.122	-16.55
216.341	87.89
216.559	57.17
216.778	65.36
216.996	51.03
217.214	1.88
217.432	-8.36
217.651	32.6
217.869	65.36
218.087	-6.31
218.306	57.17
218.524	40.79
218.742	34.64
218.96	32.6
219.179	40.79
219.397	-10.41
219.615	96.08
219.833	30.55
220.051	-73.9
220.27	122.71
220.488	-112.81
220.706	16.21
220.924	20.31
221.142	-2.22
221.36	24.4
221.578	30.55
221.796	46.93
222.015	-14.51
222.233	-24.75
222.451	30.55
222.669	38.74
222.887	61.27
223.105	-61.61
223.323	46.93
223.541	-14.51
223.759	73.56
223.977	91.99
224.195	128.85
224.413	14.17
224.631	124.76
224.849	120.66
225.067	73.56
225.285	8.02
225.503	-18.6
225.721	100.18
225.939	30.55
226.157	42.84
226.375	147.28
226.592	-26.79
226.81	55.12
227.028	73.56
227.246	106.32
227.464	-37.03
227.682	-49.32
227.9	34.64
228.117	-0.17
228.335	30.55
228.553	3.93
228.771	-2.22
228.989	38.74
229.206	18.26
229.424	55.12
229.642	24.4
229.86	-18.6
230.077	18.26
230.295	1.88
230.513	18.26
230.731	8.02
230.948	87.89
231.166	34.64
231.384	24.4
231.601	-43.18
231.819	112.47
232.037	65.36
232.254	-28.84
232.472	5.97
232.689	22.36
232.907	16.21
233.125	-53.42
233.342	55.12
233.56	14.17
233.777	-47.27
233.995	-16.55
234.213	89.94
234.43	16.21
234.648	-53.42
234.865	40.79
235.083	75.6
235.3	-10.41
235.518	38.74
235.735	128.85
235.953	24.4
236.17	8.02
236.388	42.84
236.605	-10.41
236.822	40.79
237.04	34.64
237.257	89.94
237.475	38.74
237.692	38.74
237.909	1.88
238.127	-18.6
238.344	-26.79
238.562	30.55
238.779	-34.99
238.996	-20.65
239.214	48.98
239.431	-18.6
239.648	63.32
239.865	5.97
240.083	91.99
240.3	14.17
240.517	22.36
240.735	61.27
240.952	65.36
241.169	106.32
241.386	55.12
241.603	-22.7
241.821	-6.31
242.038	30.55
242.255	20.31
242.472	20.31
242.689	48.98
242.907	48.98
243.124	12.12
243.341	-16.55
243.558	-43.18
243.775	22.36
243.992	-18.6
244.209	51.03
244.426	63.32
244.643	59.22
244.86	26.45
245.078	69.46
245.295	32.6
245.512	42.84
245.729	38.74
245.946	67.41
246.163	10.07
246.38	55.12
246.597	-43.18
246.814	38.74
247.031	63.32
247.248	55.12
247.464	42.84
247.681	48.98
247.898	14.17
248.115	14.17
248.332	-45.23
248.549	12.12
248.766	-6.31
248.983	63.32
249.2	40.79
249.417	96.08
249.633	59.22
249.85	40.79
250.067	20.31
250.284	20.31
250.501	46.93
250.717	75.6
250.934	-51.37
251.151	30.55
251.368	48.98
251.585	48.98
251.801	89.94
252.018	-10.41
252.235	3.93
252.451	-8.36
252.668	83.8
252.885	46.93
253.102	42.84
253.318	51.03
253.535	5.97
253.752	-14.51
253.968	46.93
254.185	44.88
254.401	53.08
254.618	128.85
254.835	-0.17
255.051	-2.22
255.268	38.74
255.484	-0.17
255.701	46.93
255.917	24.4
256.134	18.26
256.351	44.88
256.567	5.97
256.784	30.55
257	-51.37
257.217	57.17
257.433	22.36
257.65	18.26
257.866	91.99
258.082	22.36
258.299	36.69
258.515	-22.7
258.732	46.93
258.948	8.02
259.165	34.64
259.381	-51.37
259.597	18.26
259.814	38.74
260.03	65.36
260.246	18.26
260.463	20.31
260.679	-18.6
260.895	63.32
261.112	87.89
261.328	-34.99
261.544	14.17
261.761	104.28
261.977	30.55
262.193	1.88
262.409	65.36
262.626	112.47
262.842	38.74
263.058	8.02
263.274	98.13
263.49	67.41
263.707	87.89
263.923	91.99
264.139	18.26
264.355	-10.41
264.571	59.22
264.787	-8.36
265.004	112.47
265.22	16.21
265.436	87.89
265.652	-14.51
265.868	87.89
266.084	-8.36
266.3	79.7
266.516	-0.17
266.732	-43.18
266.948	120.66
267.164	-22.7
267.38	-24.75
267.596	10.07
267.812	112.47
268.028	40.79
268.244	-41.13
268.46	26.45
268.676	14.17
268.892	71.51
269.108	-71.85
269.324	104.28
269.54	18.26
269.756	71.51
269.972	-28.84
270.188	22.36
270.403	-47.27
270.619	98.13
270.835	65.36
271.051	51.03
271.267	-18.6
271.483	81.75
271.698	48.98
271.914	-22.7
272.13	-22.7
272.346	100.18
272.562	8.02
272.777	-14.51
272.993	-4.27
273.209	22.36
273.425	91.99
273.64	67.41
273.856	63.32
274.072	5.97
274.287	30.55
274.503	137.04
274.719	3.93
274.934	-67.75
275.15	-57.51
275.366	32.6
275.581	96.08
275.797	38.74
276.012	-34.99
276.228	108.37
276.444	-26.79
276.659	132.95
276.875	-18.6
277.09	75.6
277.306	5.97
277.521	26.45
277.737	67.41
277.952	26.45
278.168	75.6
278.383	51.03
278.599	14.17
278.814	55.12
279.03	-18.6
279.245	106.32
279.461	26.45
279.676	24.4
279.892	-26.79
280.107	24.4
280.322	81.75
280.538	-43.18
280.753	71.51
280.969	91.99
281.184	40.79
281.399	67.41
281.615	8.02
281.83	98.13
282.045	-2.22
282.26	-14.51
282.476	32.6
282.691	65.36
282.906	65.36
283.122	5.97
283.337	26.45
283.552	46.93
283.767	38.74
283.983	-10.41
284.198	-34.99
284.413	30.55
284.628	5.97
284.843	75.6
285.058	14.17
285.274	-26.79
285.489	5.97
285.704	30.55
285.919	-10.41
286.134	18.26
286.349	3.93
286.564	-0.17
286.779	34.64
286.995	-37.03
287.21	5.97
287.425	34.64
287.64	14.17
287.855	65.36
288.07	46.93
288.285	-34.99
288.5	-8.36
288.715	59.22
288.93	5.97
289.145	40.79
289.36	14.17
289.575	-26.79
289.79	73.56
290.004	16.21
290.219	20.31
290.434	63.32
290.649	18.26
290.864	32.6
291.079	16.21
291.294	46.93
291.509	48.98
291.724	67.41
291.938	-37.03
292.153	79.7
292.368	46.93
292.583	67.41
292.798	104.28
293.012	100.18
293.227	40.79
293.442	-14.51
293.657	71.51
293.871	20.31
294.086	28.5
294.301	104.28
294.516	32.6
294.73	-6.31
294.945	12.12
295.16	69.46
295.374	63.32
295.589	57.17
295.804	-16.55
296.018	-4.27
296.233	34.64
296.447	55.12
296.662	-34.99
296.877	71.51
297.091	48.98
297.306	5.97
297.52	79.7
297.735	55.12
297.949	-0.17
298.164	83.8
298.378	104.28
298.593	-18.6
298.807	-6.31
299.022	-18.6
299.236	87.89
299.451	46.93
299.665	16.21
299.88	40.79
300.094	22.36
300.309	40.79
300.523	16.21
300.737	-10.41
300.952	57.17
301.166	12.12
301.381	34.64
301.595	26.45
301.809	16.21
302.024	51.03
302.238	1.88
302.452	94.04
302.667	96.08
302.881	38.74
303.095	73.56
303.309	51.03
303.524	-0.17
303.738	73.56
303.952	24.4
304.166	130.9
304.381	-41.13
304.595	83.8
304.809	5.97
305.023	63.32
305.237	71.51
305.452	5.97
305.666	28.5
305.88	40.79
306.094	14.17
306.308	51.03
306.522	65.36
306.736	79.7
306.95	55.12
307.164	75.6
307.379	51.03
307.593	141.14
307.807	48.98
308.021	14.17
308.235	44.88
308.449	48.98
308.663	22.36
308.877	46.93
309.091	46.93
309.305	-0.17
309.519	-37.03
309.733	24.4
309.947	38.74
310.161	104.28
310.374	-26.79
310.588	55.12
310.802	-47.27
311.016	30.55
311.23	98.13
311.444	8.02
311.658	-4.27
311.872	65.36
312.085	67.41
312.299	8.02
312.513	51.03
312.727	-10.41
312.941	-10.41
313.154	22.36
313.368	14.17
313.582	48.98
313.796	14.17
314.009	73.56
314.223	30.55
314.437	20.31
314.651	22.36
314.864	63.32
315.078	12.12
315.292	3.93
315.505	30.55
315.719	106.32
315.933	26.45
316.146	30.55
316.36	44.88
316.573	46.93
316.787	98.13
317.001	55.12
317.214	-51.37
317.428	122.71
317.641	24.4
317.855	32.6
318.068	46.93
318.282	18.26
318.495	63.32
318.709	96.08
318.922	46.93
319.136	34.64
319.349	-14.51
319.563	55.12
319.776	46.93
319.99	-10.41
320.203	53.08
320.417	-18.6
320.63	67.41
320.843	89.94
321.057	46.93
321.27	8.02
321.483	44.88
321.697	55.12
321.91	-22.7
322.124	40.79
322.337	1.88
322.55	51.03
322.763	71.51
322.977	24.4
323.19	-39.08
323.403	63.32
323.617	24.4
323.83	73.56
324.043	-39.08
324.256	57.17
324.469	48.98
324.683	22.36
324.896	-16.55
325.109	46.93
325.322	24.4
325.535	48.98
325.748	12.12
325.962	8.02
326.175	-0.17
326.388	38.74
326.601	55.12
326.814	48.98
327.027	38.74
327.24	63.32
327.453	3.93
327.666	38.74
327.879	24.4
328.092	8.02
328.305	10.07
328.518	-47.27
328.731	40.79
328.944	46.93
329.157	12.12
329.37	34.64
329.583	26.45
329.796	63.32
330.009	32.6
330.222	63.32
330.435	32.6
330.648	38.74
330.861	-8.36
331.073	-2.22
331.286	63.32
331.499	51.03
331.712	-51.37
331.925	-34.99
332.138	79.7
332.35	67.41
332.563	30.55
332.776	46.93
332.989	48.98
333.202	44.88
333.414	89.94
333.627	104.28
333.84	67.41
334.053	40.79
334.265	63.32
334.478	46.93
334.691	42.84
334.903	16.21
335.116	22.36
335.329	67.41
335.541	87.89
335.754	71.51
335.966	-18.6
336.179	48.98
336.392	30.55
336.604	36.69
336.817	73.56
337.029	67.41
337.242	98.13
337.454	30.55
337.667	20.31
337.88	79.7
338.092	104.28
338.305	57.17
338.517	46.93
338.729	46.93
338.942	89.94
339.154	18.26
339.367	-10.41
339.579	81.75
339.792	-26.79
340.004	110.42
340.217	38.74
340.429	81.75
340.641	87.89
340.854	14.17
341.066	63.32
341.278	106.32
341.491	120.66
341.703	36.69
341.915	-47.27
342.128	24.4
342.34	-6.31
342.552	-26.79
342.764	8.02
342.977	18.26
343.189	24.4
343.401	1.88
343.613	59.22
343.826	18.26
344.038	32.6
344.25	34.64
344.462	18.26
344.674	20.31
344.886	-39.08
345.099	120.66
345.311	38.74
345.523	18.26
345.735	22.36
345.947	81.75
346.159	-18.6
346.371	22.36
346.583	12.12
346.795	98.13
347.007	40.79
347.219	46.93
347.431	61.27
347.643	89.94
347.855	38.74
348.067	94.04
348.279	34.64
348.491	14.17
348.703	8.02
348.915	42.84
349.127	28.5
349.339	61.27
349.551	10.07
349.763	59.22
349.975	24.4
350.187	28.5
350.399	5.97
350.61	94.04
350.822	14.17
351.034	51.03
351.246	100.18
351.458	108.37
351.669	51.03
351.881	89.94
352.093	10.07
352.305	87.89
352.517	57.17
352.728	89.94
352.94	46.93
353.152	98.13
353.363	30.55
353.575	83.8
353.787	26.45
353.999	18.26
354.21	69.46
354.422	30.55
354.633	30.55
354.845	46.93
355.057	67.41
355.268	55.12
355.48	67.41
355.692	14.17
355.903	106.32
356.115	-18.6
356.326	-43.18
356.538	77.65
356.749	18.26
356.961	14.17
357.172	57.17
357.384	22.36
357.595	81.75
357.807	30.55
358.018	-34.99
358.23	38.74
358.441	22.36
358.653	22.36
358.864	5.97
359.075	38.74
359.287	75.6
359.498	112.47
359.709	91.99
359.921	120.66
360.132	71.51
360.344	81.75
360.555	55.12
360.766	55.12
360.977	22.36
361.189	42.84
361.4	63.32
361.611	122.71
361.823	-24.75
362.034	34.64
362.245	-2.22
362.456	8.02
362.667	145.24
362.879	-32.94
363.09	-51.37
363.301	73.56
363.512	55.12
363.723	30.55
363.935	32.6
364.146	30.55
364.357	57.17
364.568	53.08
364.779	22.36
364.99	24.4
365.201	40.79
365.412	32.6
365.623	-26.79
365.834	-16.55
366.045	89.94
366.256	20.31
366.467	67.41
366.678	53.08
366.889	-32.94
367.1	89.94
367.311	65.36
367.522	44.88
367.733	83.8
367.944	98.13
368.155	18.26
368.366	51.03
368.577	-12.46
368.788	77.65
368.999	5.97
369.209	40.79
369.42	71.51
369.631	180.05
369.842	75.6
370.053	40.79
370.264	114.52
370.474	22.36
370.685	83.8
370.896	79.7
371.107	126.8
371.317	42.84
371.528	112.47
371.739	63.32
371.95	12.12
372.16	38.74
372.371	55.12
372.582	32.6
372.792	26.45
373.003	89.94
373.214	22.36
373.424	55.12
373.635	51.03
373.846	124.76
374.056	-6.31
374.267	-2.22
374.477	53.08
374.688	10.07
374.898	69.46
375.109	32.6
375.319	-26.79
375.53	87.89
375.74	57.17
375.951	36.69
376.161	46.93
376.372	46.93
376.582	63.32
376.793	32.6
377.003	89.94
377.214	-0.17
377.424	91.99
377.635	59.22
377.845	34.64
378.055	22.36
378.266	53.08
378.476	67.41
378.686	67.41
378.897	59.22
379.107	22.36
379.317	51.03
379.528	-32.94
379.738	79.7
379.948	26.45
380.158	71.51
380.369	89.94
380.579	30.55
380.789	-4.27
380.999	22.36
381.21	71.51
381.42	130.9
381.63	48.98
381.84	79.7
382.05	46.93
382.261	-73.9
382.471	87.89
382.681	16.21
382.891	110.42
383.101	98.13
383.311	38.74
383.521	55.12
383.731	124.76
383.941	106.32
384.151	42.84
384.361	104.28
384.571	94.04
384.781	83.8
384.991	36.69
385.201	67.41
385.411	81.75
385.621	69.46
385.831	65.36
386.041	38.74
386.251	65.36
386.461	38.74
386.671	85.84
386.881	16.21
387.091	38.74
387.301	40.79
387.511	67.41
387.72	32.6
387.93	112.47
388.14	44.88
388.35	3.93
388.56	71.51
388.769	20.31
388.979	40.79
389.189	-18.6
389.399	108.37
389.609	-2.22
389.818	63.32
390.028	63.32
390.238	145.24
390.447	120.66
390.657	91.99
390.867	83.8
391.076	30.55
391.286	32.6
391.496	102.23
391.705	79.7
391.915	59.22
392.125	102.23
392.334	30.55
392.544	112.47
392.753	-4.27
392.963	-49.32
393.172	65.36
393.382	30.55
393.591	130.9
393.801	73.56
394.01	63.32
394.22	137.04
394.429	71.51
394.639	114.52
394.848	22.36
395.058	24.4
395.267	100.18
395.477	151.38
395.686	120.66
395.895	139.09
396.105	108.37
396.314	73.56
396.524	42.84
396.733	59.22
396.942	98.13
397.152	63.32
397.361	130.9
397.57	38.74
397.78	145.24
397.989	120.66
398.198	147.28
398.407	46.93
398.617	57.17
398.826	89.94
399.035	120.66
399.244	106.32
399.453	63.32
399.663	85.84
399.872	110.42
400.081	38.74
400.29	114.52
400.499	40.79
400.708	132.95
400.917	51.03
401.127	112.47
401.336	14.17
401.545	161.62
401.754	112.47
401.963	149.33
402.172	116.56
402.381	63.32
402.59	100.18
402.799	77.65
403.008	141.14
403.217	83.8
403.426	77.65
403.635	120.66
403.844	81.75
404.053	120.66
404.262	141.14
404.471	145.24
404.68	104.28
404.888	112.47
405.097	147.28
405.306	87.89
405.515	65.36
405.724	147.28
405.933	139.09
406.142	137.04
406.35	128.85
406.559	87.89
406.768	118.61
406.977	204.63
407.185	194.39
407.394	165.71
407.603	186.19
407.812	178
408.02	171.86
408.229	274.26
408.438	276.31
408.646	96.08
408.855	247.63
409.064	227.15
409.272	225.11
409.481	255.83
409.69	188.24
409.898	198.48
410.107	253.78
410.315	255.83
410.524	311.12
410.733	251.73
410.941	307.02
411.15	333.65
411.358	288.59
411.567	337.74
411.775	300.88
411.984	333.65
412.192	341.84
412.401	425.81
412.609	362.32
412.818	423.76
413.026	407.38
413.234	431.95
413.443	397.14
413.651	485.2
413.86	427.85
414.068	554.83
414.276	542.54
414.485	499.53
414.693	483.15
414.901	571.21
415.11	548.68
415.318	563.02
415.526	630.6
415.734	644.94
415.943	675.66
416.151	636.75
416.359	751.43
416.567	771.91
416.776	708.43
416.984	849.74
417.192	847.69
417.4	872.26
417.608	776.01
417.817	776.01
418.025	868.17
418.233	931.66
418.441	898.89
418.649	1005.38
418.857	1038.15
419.065	1136.45
419.273	1046.34
419.481	1122.12
419.689	1136.45
419.897	1181.51
420.105	1222.47
420.313	1267.52
420.521	1318.72
420.729	1277.76
420.937	1353.54
421.145	1320.77
421.353	1619.77
421.561	1548.09
421.769	1589.05
421.977	1726.27
422.185	1636.16
422.393	1808.19
422.601	1808.19
422.809	1707.84
423.017	1769.27
423.224	1998.65
423.432	1947.45
423.64	2031.41
423.848	2076.47
424.056	2242.36
424.263	2328.37
424.471	2311.99
424.679	2398
424.887	2481.97
425.094	2596.65
425.302	2651.95
425.51	2666.28
425.718	2678.57
425.925	2725.68
426.133	3032.87
426.341	3036.97
426.548	3004.2
426.756	3082.02
426.964	3299.11
427.171	3553.06
427.379	3467.04
427.586	3503.9
427.794	3581.73
428.001	3776.28
428.209	4019.99
428.417	3893.02
428.624	4124.44
428.832	4265.75
429.039	4302.61
429.247	4183.83
429.454	4429.59
429.662	4914.95
429.869	4529.94
430.076	4906.76
430.284	4708.11
430.491	4978.44
430.699	5322.5
430.906	5189.38
431.114	5269.25
431.321	5644.03
431.528	5449.47
431.736	5930.75
431.943	6256.37
432.15	5900.03
432.358	6248.18
432.565	6352.63
432.772	6231.8
432.979	6663.92
433.187	6790.89
433.394	6825.71
433.601	7436
433.808	7509.73
434.016	7331.56
434.223	7659.23
434.43	8115.93
434.637	7972.57
434.844	8298.2
435.052	8894.16
435.259	8505.04
435.466	8595.15
435.673	8517.33
435.88	9074.38
436.087	9524.93
436.294	9600.71
436.501	9445.06
436.708	9262.79
436.915	9860.8
437.122	10364.6
437.329	10294.97
437.537	10456.76
437.743	10839.73
437.95	10630.84
438.157	11220.65
438.364	11615.91
438.571	11441.83
438.778	11689.63
438.985	12891.79
439.192	12332.7
439.399	12539.54
439.606	12310.17
439.813	13368.97
440.02	13751.94
440.227	13743.75
440.433	13530.76
440.64	13887.11
440.847	13772.42
441.054	14335.61
441.261	15021.68
441.467	15023.73
441.674	15253.1
441.881	15871.59
442.088	15920.74
442.294	15646.31
442.501	16195.17
442.708	16393.82
442.914	16905.81
443.121	17634.89
443.328	17499.72
443.534	18392.64
443.741	17882.69
443.948	17743.43
444.154	18996.79
444.361	19062.32
444.568	19121.71
444.774	18871.86
444.981	19217.97
445.187	19928.61
445.394	20620.83
445.6	20502.04
445.807	22398.46
446.013	21671.43
446.22	21663.24
446.426	22937.08
446.633	23135.73
446.839	23735.79
447.046	22537.73
447.252	23956.97
447.459	23903.72
447.665	23932.39
447.871	25337.3
448.078	25949.64
448.284	24880.6
448.491	25865.67
448.697	26916.28
448.903	27100.6
449.11	27364.79
449.316	26973.63
449.522	27248.05
449.728	27731.37
449.935	28118.44
450.141	28401.06
450.347	28921.24
450.553	28179.88
450.76	28616.1
450.966	29427.09
451.172	28843.42
451.378	29775.25
451.584	29226.39
451.791	30309.77
451.997	29894.03
452.203	30289.29
452.409	30563.71
452.615	30320.01
452.821	29488.53
453.027	28968.35
453.233	31063.42
453.44	29490.58
453.646	29949.32
453.852	29805.97
454.058	30395.78
454.264	29244.82
454.47	29818.25
454.676	29248.92
454.882	30461.32
455.088	27882.92
455.294	28558.75
455.5	28726.69
455.705	29271.45
455.911	27782.57
456.117	27604.4
456.323	27086.26
456.529	25521.62
456.735	26963.39
456.941	26146.25
457.147	25628.11
457.352	25228.76
457.558	24673.76
457.764	25007.58
457.97	24788.44
458.176	24057.32
458.381	24042.98
458.587	22865.4
458.793	22963.7
458.999	21612.04
459.204	23100.92
459.41	22347.26
459.616	21356.05
459.821	21366.29
460.027	21061.14
460.233	20483.61
460.438	19766.82
460.644	19711.53
460.85	19072.56
461.055	18708.02
461.261	18503.23
461.466	17251.92
461.672	16758.36
461.878	18314.81
462.083	16907.86
462.289	16352.86
462.494	16402.01
462.7	15515.24
462.905	15214.19
463.111	15816.29
463.316	15808.1
463.522	15351.4
463.727	15375.98
463.932	15177.33
464.138	15152.75
464.343	15310.44
464.549	14802.55
464.754	15447.66
464.959	15302.25
465.165	15076.98
465.37	14415.48
465.575	14274.17
465.781	14751.35
465.986	14888.56
466.191	14450.3
466.397	13688.45
466.602	13276.81
466.807	13887.11
467.012	13661.83
467.218	13686.4
467.423	13532.81
467.628	13692.55
467.833	14321.27
468.038	13643.4
468.244	13502.09
468.449	13629.06
468.654	13287.05
468.859	13301.39
469.064	13457.03
469.269	12932.75
469.474	12887.7
469.679	13164.17
469.885	12883.6
470.09	12828.31
470.295	12826.26
470.5	12758.67
470.705	12654.23
470.91	12420.76
471.115	12115.61
471.32	12279.45
471.525	12355.22
471.73	12037.79
471.935	12021.41
472.139	11499.17
472.344	11884.19
472.549	11648.68
472.754	11478.69
472.959	11415.21
473.164	10993.33
473.369	10835.63
473.574	11413.16
473.778	11404.97
473.983	11032.24
474.188	11183.79
474.393	10598.07
474.598	10790.58
474.802	10516.15
475.007	10593.97
475.212	10665.65
475.417	10090.17
475.621	10073.79
475.826	10108.6
476.031	10004.16
476.235	9656
476.44	9983.68
476.645	9715.39
476.849	9725.63
477.054	9725.63
477.259	9529.03
477.463	9371.33
477.668	9334.47
477.872	9408.2
478.077	9160.39
478.282	8865.49
478.486	9066.19
478.691	8984.27
478.895	8963.79
479.1	8642.26
479.304	8793.81
479.509	8552.15
479.713	8591.06
479.918	8476.37
480.122	8378.07
480.326	8394.45
480.531	8609.49
480.735	8419.03
480.94	8357.59
481.144	8570.58
481.348	8263.38
481.553	8253.14
481.757	8091.35
481.961	8341.21
482.166	8324.82
482.37	8226.52
482.574	8017.63
482.778	8228.57
482.983	8201.94
483.187	8191.7
483.391	8089.31
483.595	8140.51
483.8	7911.13
484.004	8160.98
484.208	8197.85
484.412	8089.31
484.616	8134.36
484.821	8068.83
485.025	8003.29
485.229	8242.9
485.433	8050.39
485.637	8220.38
485.841	8011.48
486.045	7991
486.249	8077.02
486.453	7943.9
486.657	8222.42
486.861	8007.39
487.065	7888.6
487.269	8154.84
487.473	7929.56
487.677	8312.53
487.881	8351.45
488.085	8210.14
488.289	8230.62
488.493	8079.07
488.697	8298.2
488.901	8347.35
489.105	8314.58
489.309	8234.71
489.512	8337.11
489.716	8099.55
489.92	8146.65
490.124	8359.64
490.328	8447.7
490.531	8394.45
490.735	8498.9
490.939	8341.21
491.143	8345.3
491.346	8328.92
491.55	8595.15
491.754	8640.21
491.958	8466.13
492.161	8691.41
492.365	8799.95
492.569	8793.81
492.772	8865.49
492.976	9012.94
493.18	8505.04
493.383	8943.31
493.587	9221.83
493.79	9008.84
493.994	8812.24
494.197	9369.29
494.401	9076.43
494.605	9144.01
494.808	9553.6
495.012	9287.37
495.215	9496.26
495.419	9696.96
495.622	9559.75
495.825	9717.44
496.029	9551.56
496.232	9844.42
496.436	9647.81
496.639	10155.71
496.843	9975.49
497.046	10208.95
497.249	10340.02
497.453	10567.35
497.656	10489.53
497.859	10569.4
498.063	10954.41
498.266	11007.66
498.469	10712.75
498.673	11015.85
498.876	11191.98
499.079	11329.19
499.282	11253.42
499.485	11646.63
499.689	11609.76
499.892	11718.31
500.095	11947.68
500.298	12205.72
500.501	11925.15
500.705	12670.61
500.908	12396.18
501.111	12887.7
501.314	12957.33
501.517	13008.53
501.72	13086.35
501.923	12992.14
502.126	13461.13
502.329	13436.55
502.532	13727.36
502.735	13680.26
502.938	14048.89
503.141	14122.62
503.344	14253.69
503.547	14458.49
503.75	14618.23
503.953	14941.81
504.156	15099.5
504.359	15302.25
504.562	15388.27
504.765	15758.95
504.968	15822.44
505.17	15742.57
505.373	16090.72
505.576	16492.12
505.779	16578.14
505.982	16957.01
506.185	16944.72
506.387	17229.39
506.59	17014.35
506.793	17528.39
506.996	17530.44
507.198	18077.25
507.401	17823.3
507.604	18413.12
507.807	18718.26
508.009	18507.32
508.212	18677.3
508.415	19090.99
508.617	19043.89
508.82	19332.65
509.022	19066.42
509.225	20110.88
509.428	19971.62
509.63	20080.16
509.833	20282.91
510.035	20844.06
510.238	20631.07
510.44	21095.96
510.643	21446.16
510.845	21476.88
511.048	21622.28
511.25	22146.56
511.453	21820.94
511.655	22748.67
511.858	22629.88
512.06	22640.12
512.262	23016.95
512.465	23053.81
512.667	23721.45
512.87	23729.64
513.072	23823.85
513.274	24335.84
513.477	24565.21
513.679	24681.95
513.881	24989.14
514.084	24972.76
514.286	25175.51
514.488	25482.7
514.69	26103.24
514.893	26207.69
515.095	26359.24
515.297	26785.21
515.499	26791.36
515.701	27067.83
515.904	27311.54
516.106	27526.58
516.308	27848.11
516.51	28267.94
516.712	28317.09
516.914	28738.97
517.116	29134.23
517.318	28976.54
517.52	29394.32
517.722	29455.76
517.925	29982.09
518.127	30018.96
518.329	30825.85
518.531	30141.83
518.733	31274.36
518.935	31380.85
519.136	31343.99
519.338	31675.76
519.54	31958.38
519.742	32337.26
519.944	32439.65
520.146	32722.27
520.348	33344.86
520.55	33209.69
520.752	33334.62
520.954	33965.39
521.155	33832.27
521.357	34096.46
521.559	34549.06
521.761	34729.28
521.963	34792.77
522.164	35081.53
522.366	35532.09
522.568	35405.11
522.77	36023.6
522.971	36304.17
523.173	36265.26
523.375	36277.55
523.576	36408.62
523.778	36451.63
523.98	36883.75
524.181	37102.88
524.383	37465.37
524.584	37565.72
524.786	37485.85
524.988	37809.43
525.189	38524.17
525.391	38305.04
525.592	38606.09
525.794	38788.36
525.995	38941.96
526.197	38958.34
526.398	39206.14
526.6	38964.48
526.801	39423.23
527.003	39724.28
527.204	39544.06
527.406	39843.06
527.607	39898.36
527.808	40504.56
528.01	39867.64
528.211	40023.28
528.412	40834.28
528.614	40842.47
528.815	40758.5
529.016	41331.93
529.218	40713.45
529.419	40756.46
529.62	40633.58
529.822	41460.96
530.023	41270.5
530.224	41129.19
530.425	41135.33
530.626	41114.85
530.828	41077.99
531.029	41766.1
531.23	41372.89
531.431	41592.03
531.632	41839.83
531.833	41923.8
532.035	41710.81
532.236	41927.89
532.437	42171.6
532.638	41626.84
532.839	41872.6
533.04	41960.66
533.241	41723.1
533.442	42536.14
533.643	41923.8
533.844	42214.61
534.045	42040.53
534.246	41710.81
534.447	42407.12
534.648	41882.84
534.849	41917.65
535.05	42257.62
535.251	42468.56
535.451	42022.1
535.652	42431.69
535.853	42208.47
536.054	42282.19
536.255	42691.79
536.456	41704.66
536.657	42597.58
536.857	42374.35
537.058	41864.41
537.259	42499.28
537.46	42515.66
537.66	42409.17
537.861	42351.82
538.062	42110.16
538.263	42136.79
538.463	42206.42
538.664	41845.97
538.865	42497.23
539.065	42616.01
539.266	41669.85
539.466	42278.1
539.667	41948.37
539.868	42587.34
540.068	42204.37
540.269	42341.58
540.469	42417.36
540.67	41970.9
540.87	42470.61
541.071	42360.01
541.271	42519.76
541.472	42077.4
541.672	41954.52
541.873	42427.6
542.073	41741.53
542.274	42351.82
542.474	42077.4
542.675	42106.07
542.875	42388.69
543.075	42347.73
543.276	41598.17
543.476	42593.48
543.676	42020.05
543.877	42202.32
544.077	41848.02
544.277	42308.82
544.478	42378.45
544.678	42396.88
544.878	42392.78
545.078	41768.15
545.279	42122.45
545.479	41852.12
545.679	42302.67
545.879	42335.44
546.079	41921.75
546.28	42028.24
546.48	41653.47
546.68	41766.1
546.88	42108.11
547.08	41972.95
547.28	42065.11
547.48	41888.98
547.68	42106.07
547.88	41243.87
548.081	42517.71
548.281	41999.57
548.481	41770.2
548.681	41764.06
548.881	41766.1
549.081	41632.99
549.28	41655.51
549.48	42263.76
549.68	41837.78
549.88	42261.71
550.08	41454.81
550.28	41837.78
550.48	42067.16
550.68	42222.8
550.88	41499.87
551.08	41700.57
551.279	41845.97
551.479	41403.61
551.679	41975
551.879	41518.3
552.079	41780.44
552.278	41837.78
552.478	41639.13
552.678	41790.68
552.878	41811.16
553.077	41606.36
553.277	41243.87
553.477	41817.3
553.676	41544.92
553.876	41622.75
554.076	41624.79
554.275	41321.69
554.475	41110.75
554.674	41567.45
554.874	41518.3
555.074	41020.64
555.273	41512.16
555.473	41649.37
555.672	40797.41
555.872	41069.79
556.071	41403.61
556.271	41491.68
556.47	41098.47
556.67	40926.44
556.869	41262.3
557.068	41135.33
557.268	40666.34
557.467	41182.43
557.667	41362.65
557.866	41047.27
558.065	41110.75
558.265	40961.25
558.464	40414.44
558.663	40627.43
558.863	40766.7
559.062	40955.11
559.261	40180.98
559.461	41010.4
559.66	40262.89
559.859	40318.19
560.058	40045.81
560.258	40588.52
560.457	40047.86
560.656	40639.72
560.855	39945.46
561.054	40512.75
561.253	40082.67
561.453	40310
561.652	40353.01
561.851	40039.67
562.05	40248.56
562.249	40017.14
562.448	40467.69
562.647	39910.64
562.846	40152.3
563.045	39810.29
563.244	39130.37
563.443	39724.28
563.642	39492.86
563.841	39095.55
564.04	39337.21
564.239	39597.31
564.438	39707.9
564.637	39546.11
564.836	39345.4
565.035	38624.52
565.234	39331.07
565.432	38849.8
565.631	38810.89
565.83	39163.14
566.029	39273.73
566.228	38929.67
566.427	38810.89
566.625	38722.82
566.824	38302.99
567.023	38864.13
567.222	38003.99
567.42	38894.85
567.619	38503.69
567.818	38135.06
568.016	38151.44
568.215	38530.31
568.414	38092.05
568.612	38159.63
568.811	37782.8
569.01	38071.57
569.208	37459.23
569.407	37813.52
569.605	37383.45
569.804	37877.01
570.002	37313.82
570.201	37571.86
570.4	37283.1
570.598	37246.24
570.797	37147.93
570.995	37127.45
571.193	36676.9
571.392	37362.97
571.59	36717.86
571.789	36861.22
571.987	36793.64
572.186	36594.98
572.384	36261.16
572.582	36443.43
572.781	36695.33
572.979	36062.51
573.177	36347.18
573.376	36496.68
573.574	35921.2
573.772	36111.66
573.971	35988.78
574.169	35667.25
574.367	35833.14
574.565	35638.58
574.763	35499.32
574.962	35816.75
575.16	35028.29
575.358	35546.42
575.556	34874.69
575.754	35681.59
575.952	34803.01
576.151	35128.64
576.349	34841.92
576.547	34819.39
576.745	34954.56
576.943	34676.04
577.141	34719.04
577.339	34708.8
577.537	34461
577.735	34176.33
577.933	33883.47
578.131	34630.98
578.329	34049.36
578.527	33910.1
578.725	33992.01
578.923	34411.85
579.121	33949.01
579.319	33731.92
579.516	33740.11
579.714	33635.67
579.912	33477.97
580.11	33449.3
580.308	33547.61
580.506	33273.18
580.704	32789.86
580.901	32959.84
581.099	32916.83
581.297	32927.07
581.495	32918.88
581.692	32810.34
581.89	32492.9
582.088	32963.93
582.285	32679.27
582.483	32335.21
582.681	32290.15
582.878	32376.17
583.076	32136.55
583.274	32208.23
583.471	31982.96
583.669	31722.87
583.866	31518.07
584.064	31804.78
584.262	31642.99
584.459	31520.12
584.657	31337.85
584.854	31966.57
585.052	30926.21
585.249	31511.92
585.447	31296.89
585.644	30844.29
585.841	31102.33
586.039	31221.11
586.236	30999.93
586.434	30668.16
586.631	30336.39
586.828	30459.27
587.026	30668.16
587.223	30385.54
587.42	30190.98
587.618	30217.61
587.815	30139.79
588.012	30037.39
588.21	29943.18
588.407	30315.91
588.604	29635.99
588.801	29844.88
588.999	29789.58
589.196	29429.14
589.393	29674.9
589.59	29482.39
589.787	29728.14
589.984	29568.4
590.182	28790.17
590.379	29056.41
590.576	28788.13
590.773	29105.56
590.97	28579.23
591.167	28943.77
591.364	28657.06
591.561	28618.14
591.758	28274.09
591.955	28411.3
592.152	28505.51
592.349	28065.19
592.546	28413.35
592.743	28493.22
592.94	27856.3
593.137	28341.67
593.334	28208.55
593.531	27655.6
593.727	27917.74
593.924	27762.09
594.121	27549.1
594.318	27448.75
594.515	27295.16
594.712	27131.32
594.908	27334.07
595.105	27502
595.302	26918.33
595.499	26979.77
595.696	26973.63
595.892	26897.85
596.089	27135.42
596.286	26947
596.482	26662.33
596.679	26615.23
596.876	26748.35
597.072	26283.46
597.269	26232.26
597.466	26207.69
597.662	25753.04
597.859	26150.34
598.055	26322.37
598.252	25736.65
598.448	26146.25
598.645	25658.83
598.841	25351.63
599.038	25816.52
599.234	25658.83
599.431	25443.79
599.627	25327.06
599.824	25195.99
600.02	25234.9
600.217	25316.82
600.413	25157.08
600.609	25208.28
600.806	24767.96
601.002	24794.59
601.198	24849.88
601.395	24798.68
601.591	24714.72
601.787	24528.35
601.984	24411.62
602.18	24686.04
602.376	24354.27
602.572	24266.21
602.769	24229.35
602.965	23940.58
603.161	24018.41
603.357	24182.24
603.553	23842.28
603.75	23891.43
603.946	23676.4
604.142	23746.03
604.338	23248.37
604.534	23395.82
604.73	23438.83
604.926	23352.82
605.122	23432.69
605.318	23156.21
605.514	23281.14
605.71	23297.52
605.906	23006.71
606.102	23205.36
606.298	22996.47
606.494	22828.54
606.69	22885.88
606.886	22951.42
607.082	22476.29
607.278	22849.02
607.474	22300.16
607.67	22590.97
607.866	22283.78
608.062	22337.02
608.257	22568.44
608.453	22404.61
608.649	22480.38
608.845	22074.88
609.041	22210.05
609.236	21945.86
609.432	22087.17
609.628	22218.24
609.824	22015.49
610.019	21962.25
610.215	21876.23
610.411	21849.61
610.606	21538.32
610.802	21917.19
610.998	21655.05
611.193	21755.4
611.389	21564.94
611.584	21335.57
611.78	21587.47
611.976	21001.75
612.171	21442.06
612.367	21560.84
612.562	21384.72
612.758	20876.82
612.953	21249.55
613.149	21159.44
613.344	20913.69
613.539	21345.81
613.735	21249.55
613.93	21169.68
614.126	20819.48
614.321	21130.77
614.517	20794.9
614.712	20956.69
614.907	20545.05
615.103	20813.34
615.298	20559.39
615.493	20858.39
615.688	20260.38
615.884	20762.14
616.079	20452.89
616.274	20553.24
616.47	20655.64
616.665	20321.82
616.86	20229.66
617.055	20381.21
617.25	20110.88
617.445	20311.58
617.641	19852.84
617.836	19920.42
618.031	19654.19
618.226	20086.31
618.421	19633.71
618.616	19932.71
618.811	19660.33
619.006	19867.17
619.201	19244.59
619.396	19410.48
619.591	19056.18
619.786	19430.96
619.981	19213.87
620.176	19195.44
620.371	18914.87
620.566	19191.34
620.761	18583.1
620.956	18906.68
621.151	18603.58
621.346	18751.03
621.541	18482.75
621.735	18667.06
621.93	18107.97
622.125	18589.24
622.32	17987.14
622.515	18032.19
622.709	17849.92
622.904	18150.98
623.099	17991.23
623.294	17964.61
623.488	17622.6
623.683	17827.4
623.878	17188.43
624.072	17530.44
624.267	17567.31
624.462	17083.98
624.656	16967.25
624.851	16856.66
625.046	17077.84
625.24	16758.36
625.435	16864.85
625.629	16741.97
625.824	16604.76
626.018	16561.75
626.213	16107.1
626.407	16348.76
626.602	16254.56
626.796	16451.16
626.991	16279.13
627.185	16029.28
627.38	15726.18
627.574	15826.53
627.768	15773.28
627.963	15412.84
628.157	15601.26
628.352	15566.44
628.546	15404.65
628.74	15343.21
628.935	15083.12
629.129	15218.29
629.323	14792.31
629.517	14970.48
629.712	14810.74
629.906	14939.76
630.1	14610.04
630.294	14784.12
630.489	14714.48
630.683	14700.15
630.877	14431.87
631.071	14325.37
631.265	14302.84
631.459	14255.74
631.653	14124.67
631.848	14210.68
632.042	14128.77
632.236	14190.2
632.43	13784.71
632.624	13991.55
632.818	13721.22
633.012	13624.97
633.206	13663.88
633.4	13647.49
633.594	13198.99
633.788	13352.59
633.982	13459.08
634.176	13385.35
634.369	13391.5
634.563	13088.4
634.757	12963.47
634.951	13074.06
635.145	12887.7
635.339	13004.43
635.533	12699.28
635.726	12557.97
635.92	12467.86
636.114	12392.09
636.308	12424.86
636.501	12508.82
636.695	12359.32
636.889	12277.4
637.083	12232.35
637.276	12068.51
637.47	12164.76
637.664	11943.58
637.857	11716.26
638.051	11892.38
638.244	11792.03
638.438	11859.62
638.632	11706.02
638.825	11695.78
639.019	11591.33
639.212	11497.13
639.406	11380.39
639.599	11361.96
639.793	11386.54
639.986	11220.65
640.18	11171.5
640.373	11179.69
640.567	10895.02
640.76	11142.83
640.954	11001.52
641.147	10995.37
641.34	10813.1
641.534	10790.58
641.727	10786.48
641.92	10649.27
642.114	10456.76
642.307	10608.31
642.5	10380.98
642.694	10331.83
642.887	10108.6
643.08	10491.57
643.273	10340.02
643.467	10333.88
643.66	10045.12
643.853	10075.84
644.046	9901.76
644.239	9840.32
644.432	9895.61
644.626	9848.51
644.819	9830.08
645.012	9664.19
645.205	9471.68
645.398	9621.19
645.591	9524.93
645.784	9592.51
645.977	9313.99
646.17	9467.59
646.363	9256.65
646.556	9176.78
646.749	9064.14
646.942	9264.84
647.135	9025.23
647.328	8996.56
647.521	9053.9
647.714	8914.64
647.907	8840.91
648.099	8918.73
648.292	8922.83
648.485	8777.42
648.678	8521.43
648.871	8648.4
649.064	8697.55
649.256	8556.24
649.449	8496.85
649.642	8459.99
649.835	8369.88
650.027	8459.99
650.22	8244.95
650.413	8210.14
650.605	8275.67
650.798	8132.31
650.991	8140.51
651.183	8165.08
651.376	7927.52
651.568	8077.02
651.761	7724.77
651.954	7956.19
652.146	7784.16
652.339	7771.87
652.531	7778.01
652.724	7646.94
652.916	7792.35
653.109	7728.86
653.301	7712.48
653.494	7671.52
653.686	7526.11
653.879	7608.03
654.071	7354.09
654.263	7257.83
654.456	7526.11
654.648	7266.02
654.84	7325.41
655.033	7030.51
655.225	7184.1
655.417	7069.42
655.61	7206.63
655.802	7069.42
655.994	7116.52
656.186	6985.45
656.379	6887.15
656.571	6913.77
656.763	6772.46
656.955	6651.63
657.148	6907.63
657.34	6805.23
657.532	6518.51
657.724	6768.37
657.916	6674.16
658.108	6657.78
658.3	6428.4
658.492	6608.62
658.684	6430.45
658.876	6313.72
659.068	6391.54
659.26	6285.05
659.452	6242.04
659.644	6211.32
659.836	6162.17
660.028	6291.19
660.22	6063.86
660.412	6139.64
660.604	6082.3
660.796	5947.13
660.988	6123.26
661.18	5885.69
661.372	5887.74
661.563	5897.98
661.755	5906.17
661.947	5865.21
662.139	5840.64
662.331	5879.55
662.522	5691.13
662.714	5717.76
662.906	5609.22
663.097	5658.37
663.289	5474.05
663.481	5519.11
663.673	5576.45
663.864	5529.34
664.056	5379.84
664.247	5398.27
664.439	5187.33
664.631	5408.51
664.822	5543.68
665.014	5224.2
665.205	5281.54
665.397	5191.43
665.588	5222.15
665.78	5062.41
665.971	5158.66
666.163	5164.81
666.354	5390.08
666.546	5158.66
666.737	4953.87
666.929	4873.99
667.12	4921.1
667.311	5031.69
667.503	4974.35
667.694	4693.77
667.885	4757.26
668.077	4757.26
668.268	4830.99
668.459	4742.92
668.651	4759.31
668.842	4523.79
669.033	4486.93
669.224	4650.77
669.416	4716.3
669.607	4597.52
669.798	4560.66
669.989	4585.23
670.18	4609.81
670.371	4488.98
670.563	4466.45
670.754	4493.07
670.945	4454.16
671.136	4503.31
671.327	4486.93
671.518	4372.24
671.709	4482.83
671.9	4216.6
672.091	4298.52
672.282	4319
672.473	4237.08
672.664	4353.81
672.855	3962.65
673.046	4241.17
673.237	4249.36
673.428	4091.67
673.619	4138.77
673.809	4108.05
674	4151.06
674.191	4126.49
674.382	4165.4
674.573	4036.38
674.764	3981.08
674.954	4011.8
675.145	3987.22
675.336	3956.5
675.527	3909.4
675.717	3979.03
675.908	3880.73
676.099	3809.05
676.289	3870.49
676.48	3882.78
676.671	3823.39
676.861	3897.11
677.052	3778.33
677.243	3733.28
677.433	3637.02
677.624	3905.31
677.814	3835.67
678.005	3847.96
678.195	3770.14
678.386	3655.45
678.576	3764
678.767	3684.13
678.957	3620.64
679.148	3739.42
679.338	3684.13
679.529	3700.51
679.719	3663.65
679.909	3733.28
680.1	3766.04
680.29	3686.17
680.481	3600.16
680.671	3589.92
680.861	3618.59
681.052	3561.25
681.242	3577.63
681.432	3720.99
681.622	3596.06
681.813	3585.82
682.003	3546.91
682.193	3589.92
682.383	3677.98
682.573	3551.01
682.764	3520.29
682.954	3438.37
683.144	3417.89
683.334	3518.24
683.524	3424.03
683.714	3413.79
683.904	3501.86
684.094	3503.9
684.284	3340.07
684.474	3518.24
684.664	3387.17
684.854	3487.52
685.044	3389.22
685.234	3325.73
685.424	3419.94
685.614	3319.59
685.804	3438.37
685.994	3346.21
686.184	3348.26
686.374	3421.99
686.564	3399.46
686.753	3448.61
686.943	3241.76
687.133	3276.58
687.323	3241.76
687.513	3331.87
687.702	3096.36
687.892	3053.35
688.082	3219.24
688.272	3194.66
688.461	3258.15
688.651	3266.34
688.841	3170.08
689.03	3172.13
689.22	3186.47
689.41	3159.85
689.599	3096.36
689.789	3122.98
689.979	3182.37
690.168	3211.04
690.358	3098.41
690.547	3135.27
690.737	3094.31
690.926	3094.31
691.116	2930.47
691.305	3135.27
691.495	3096.36
691.684	3041.06
691.874	3028.78
692.063	3110.69
692.252	2893.61
692.442	3063.59
692.631	2942.76
692.82	3036.97
693.01	2955.05
693.199	2815.79
693.388	2975.53
693.578	2946.86
693.767	2881.32
693.956	3057.45
694.146	3004.2
694.335	2940.71
694.524	2744.11
694.713	3051.3
694.902	2942.76
695.092	2834.22
695.281	2914.09
695.47	2807.59
695.659	2922.28
695.848	2727.72
696.037	2950.95
696.226	2922.28
696.415	2756.4
696.604	2787.11
696.793	2889.51
696.982	2823.98
697.171	2768.68
697.36	2787.11
697.549	2881.32
697.738	2694.96
697.927	2656.04
698.116	2713.39
698.305	2811.69
698.494	2789.16
698.683	2856.75
698.872	2713.39
699.061	2701.1
699.25	2770.73
699.438	2711.34
699.627	2830.12
699.816	2807.59
700.005	2742.06
700.193	2668.33
700.382	2705.2
700.571	2639.66
700.76	2721.58
700.948	2578.22
701.137	2637.61
701.326	2635.57
701.514	2680.62
701.703	2555.69
701.892	2578.22
702.08	2701.1
702.269	2643.76
702.457	2701.1
702.646	2631.47
702.834	2494.26
703.023	2596.65
703.212	2520.88
703.4	2656.04
703.589	2590.51
703.777	2604.85
703.965	2498.35
704.154	2508.59
704.342	2682.67
704.531	2658.09
704.719	2441.01
704.907	2516.78
705.096	2434.86
705.284	2545.45
705.472	2516.78
705.661	2455.34
705.849	2576.17
706.037	2541.36
706.226	2561.84
706.414	2651.95
706.602	2627.37
706.79	2488.11
706.979	2479.92
707.167	2385.71
707.355	2426.67
707.543	2479.92
707.731	2438.96
707.919	2471.73
708.107	2428.72
708.296	2352.95
708.484	2373.43
708.672	2389.81
708.86	2459.44
709.048	2389.81
709.236	2479.92
709.424	2379.57
709.612	2428.72
709.8	2316.08
709.988	2336.56
710.176	2418.48
710.364	2357.04
710.551	2418.48
710.739	2348.85
710.927	2410.29
711.115	2299.7
711.303	2340.66
711.491	2350.9
711.679	2230.07
711.866	2252.59
712.054	2307.89
712.242	2246.45
712.43	2305.84
712.617	2320.18
712.805	2375.47
712.993	2340.66
713.181	2213.68
713.368	2350.9
713.556	2289.46
713.744	2260.79
713.931	2434.86
714.119	2230.07
714.306	2311.99
714.494	2299.7
714.682	2322.23
714.869	2176.82
715.057	2299.7
715.244	2162.48
715.432	2180.92
715.619	2203.44
715.807	2162.48
715.994	2209.59
716.182	2094.9
716.369	2238.26
716.556	2185.01
716.744	2176.82
716.931	2219.83
717.119	2262.83
717.306	2160.44
717.493	2105.14
717.681	2156.34
717.868	2228.02
718.055	2242.36
718.242	2099
718.43	2160.44
718.617	2199.35
718.804	2103.09
718.991	2070.33
719.179	2125.62
719.366	2115.38
719.553	2113.33
719.74	2144.05
719.927	2146.1
720.114	2244.4
720.301	2053.94
720.488	2055.99
720.676	2074.42
720.863	2201.4
721.05	2201.4
721.237	2045.75
721.424	2162.48
721.611	2088.76
721.798	2021.17
721.985	1990.45
722.172	2064.18
722.358	2010.93
722.545	2094.9
722.732	2012.98
722.919	2086.71
723.106	2029.37
723.293	2010.93
723.48	1949.5
723.667	2000.69
723.853	2017.08
724.04	1996.6
724.227	1996.6
724.414	1906.49
724.6	2088.76
724.787	2000.69
724.974	2129.72
725.161	1967.93
725.347	1935.16
725.534	1949.5
725.72	1990.45
725.907	2086.71
726.094	1969.98
726.28	1967.93
726.467	1963.83
726.653	1965.88
726.84	2004.79
727.027	1967.93
727.213	1916.73
727.4	1886.01
727.586	1974.07
727.773	1890.1
727.959	1918.78
728.145	1822.52
728.332	2062.13
728.518	1855.29
728.705	1963.83
728.891	1967.93
729.077	1933.11
729.264	1943.35
729.45	1910.58
729.636	1908.54
729.823	1982.26
730.009	1939.26
730.195	1967.93
730.382	1834.81
730.568	1916.73
730.754	1910.58
730.94	1808.19
731.126	2012.98
731.313	1945.4
731.499	1750.84
731.685	1908.54
731.871	1881.91
732.057	1810.23
732.243	1896.25
732.429	1898.3
732.615	1900.34
732.801	1804.09
732.987	1697.6
733.173	1779.51
733.359	1808.19
733.545	1896.25
733.731	1845.05
733.917	1820.47
734.103	1972.02
734.289	1861.43
734.475	1824.57
734.661	1816.38
734.847	1849.15
735.033	1836.86
735.219	1777.47
735.404	1802.04
735.59	1779.51
735.776	1767.23
735.962	1732.41
736.148	1677.12
736.333	1816.38
736.519	1728.31
736.705	1685.31
736.89	1763.13
737.076	1795.9
737.262	1720.12
737.447	1648.44
737.633	1808.19
737.819	1689.4
738.004	1711.93
738.19	1722.17
738.375	1834.81
738.561	1742.65
738.747	1754.94
738.932	1578.81
739.118	1720.12
739.303	1734.46
739.489	1644.35
739.674	1654.59
739.859	1650.49
740.045	1701.69
740.23	1589.05
740.416	1525.57
740.601	1754.94
740.786	1632.06
740.972	1570.62
741.157	1562.43
741.342	1441.6
741.528	1521.47
741.713	1689.4
741.898	1679.16
742.084	1589.05
742.269	1572.67
742.454	1537.85
742.639	1734.46
742.824	1587.01
743.01	1599.29
743.195	1662.78
743.38	1589.05
743.565	1546.05
743.75	1597.24
743.935	1505.09
744.12	1595.2
744.305	1482.56
744.49	1494.85
744.675	1521.47
744.86	1402.69
745.045	1462.08
745.23	1521.47
745.415	1460.03
745.6	1384.26
745.785	1449.79
745.97	1470.27
746.155	1439.55
746.34	1494.85
746.525	1439.55
746.71	1464.13
746.895	1451.84
747.079	1365.82
747.264	1390.4
747.449	1419.07
747.634	1472.32
747.819	1439.55
748.003	1294.15
748.188	1337.15
748.373	1404.74
748.557	1351.49
748.742	1410.88
748.927	1210.18
749.111	1398.59
749.296	1316.67
749.481	1271.62
749.665	1351.49
749.85	1318.72
750.034	1343.3
750.219	1304.39
750.404	1290.05
750.588	1230.66
750.773	1218.37
750.957	1259.33
751.141	1261.38
751.326	1263.43
751.51	1195.84
751.695	1206.08
751.879	1142.6
752.064	1195.84
752.248	1234.75
752.432	1238.85
752.617	1148.74
752.801	1136.45
752.985	1105.73
753.17	1193.8
753.354	1081.16
753.538	1236.8
753.722	1132.36
753.907	1142.6
754.091	1099.59
754.275	1107.78
754.459	1085.25
754.643	1091.4
754.828	1050.44
755.012	1081.16
755.196	999.24
755.38	1038.15
755.564	1025.86
755.748	978.76
755.932	1013.57
756.116	1054.53
756.3	1038.15
756.484	1005.38
756.668	1023.81
756.852	950.09
757.036	1070.92
757.22	1009.48
757.404	958.28
757.588	948.04
757.772	958.28
757.956	909.13
758.14	980.81
758.323	976.71
758.507	980.81
758.691	925.51
758.875	935.75
759.059	950.09
759.242	933.7
759.426	911.18
759.61	890.7
759.794	933.7
759.977	931.66
760.161	898.89
760.345	972.61
760.528	888.65
760.712	937.8
760.895	892.74
761.079	921.42
761.263	874.31
761.446	829.26
761.63	859.98
761.813	851.78
761.997	767.82
762.18	843.59
762.364	870.22
762.547	831.3
762.731	802.63
762.914	776.01
763.098	841.54
763.281	857.93
763.464	800.59
763.648	722.76
763.831	833.35
764.015	845.64
764.198	796.49
764.381	763.72
764.564	837.45
764.748	814.92
764.931	753.48
765.114	700.23
765.297	829.26
765.481	767.82
765.664	800.59
765.847	712.52
766.03	784.2
766.213	735.05
766.397	720.71
766.58	728.91
766.763	763.72
766.946	677.71
767.129	788.3
767.312	771.91
767.495	767.82
767.678	802.63
767.861	806.73
768.044	796.49
768.227	747.34
768.41	689.99
768.593	726.86
768.776	712.52
768.959	726.86
769.142	722.76
769.324	718.67
769.507	710.47
769.69	653.13
769.873	661.32
770.056	792.39
770.239	767.82
770.421	689.99
770.604	677.71
770.787	694.09
770.97	671.56
771.152	745.29
771.335	649.04
771.518	710.47
771.7	696.14
771.883	720.71
772.066	632.65
772.248	677.71
772.431	696.14
772.613	687.95
772.796	595.79
772.978	657.23
773.161	683.85
773.343	716.62
773.526	599.88
773.708	632.65
773.891	636.75
774.073	657.23
774.256	622.41
774.438	696.14
774.621	640.84
774.803	624.46
774.985	515.92
775.168	612.17
775.35	581.45
775.532	597.84
775.715	575.31
775.897	571.21
776.079	606.03
776.261	591.69
776.444	556.88
776.626	550.73
776.808	581.45
776.99	485.2
777.173	636.75
777.355	464.72
777.537	583.5
777.719	536.4
777.901	540.49
778.083	517.97
778.265	499.53
778.447	560.97
778.629	497.49
778.811	548.68
778.993	612.17
779.175	530.25
779.357	522.06
779.539	423.76
779.721	513.87
779.903	546.64
780.085	530.25
780.267	503.63
780.449	425.81
780.631	522.06
780.812	640.84
780.994	472.91
781.176	483.15
781.358	472.91
781.54	440.14
781.721	466.77
781.903	438.09
782.085	505.68
782.267	472.91
782.448	368.46
782.63	407.38
782.812	460.62
782.993	483.15
783.175	442.19
783.357	452.43
783.538	423.76
783.72	358.22
783.901	546.64
784.083	370.51
784.264	397.14
784.446	390.99
784.627	341.84
784.809	390.99
784.99	434
785.172	407.38
785.353	366.42
785.535	425.81
785.716	401.23
785.897	407.38
786.079	474.96
786.26	378.7
786.441	423.76
786.623	309.07
786.804	386.9
786.985	329.55
787.167	423.76
787.348	335.7
787.529	327.5
787.71	380.75
787.891	300.88
788.073	354.13
788.254	307.02
788.435	440.14
788.616	319.31
788.797	300.88
788.978	350.03
789.159	307.02
789.34	395.09
789.522	264.02
789.703	360.27
789.884	376.66
790.065	337.74
790.246	337.74
790.427	280.4
790.607	401.23
790.788	304.98
790.969	286.54
791.15	255.83
791.331	309.07
791.512	311.12
791.693	272.21
791.874	309.07
792.054	427.85
792.235	286.54
792.416	241.49
792.597	255.83
792.778	221.01
792.958	302.93
793.139	268.11
793.32	278.35
793.5	212.82
793.681	235.35
793.862	319.31
794.042	210.77
794.223	200.53
794.404	235.35
794.584	202.58
794.765	311.12
794.945	280.4
795.126	292.69
795.306	354.13
795.487	302.93
795.667	237.39
795.848	235.35
796.028	186.19
796.209	292.69
796.389	218.96
796.57	354.13
796.75	194.39
796.93	294.74
797.111	180.05
797.291	259.92
797.471	237.39
797.652	218.96
797.832	229.2
798.012	268.11
798.192	210.77
798.373	182.1
798.553	214.87
798.733	251.73
798.913	214.87
799.093	204.63
799.274	153.43
799.454	178
799.634	266.07
799.814	272.21
799.994	116.56
800.174	280.4
800.354	196.43
800.534	165.71
800.714	196.43
800.894	237.39
801.074	210.77
801.254	210.77
801.434	149.33
801.614	188.24
801.794	137.04
801.974	911.18
802.154	231.25
802.334	186.19
802.514	165.71
802.693	171.86
802.873	178
803.053	202.58
803.233	235.35
803.413	182.1
803.592	227.15
803.772	137.04
803.952	155.47
804.131	218.96
804.311	104.28
804.491	202.58
804.67	161.62
804.85	188.24
805.03	171.86
805.209	227.15
805.389	143.19
805.568	153.43
805.748	120.66
805.928	157.52
806.107	139.09
806.287	235.35
806.466	143.19
806.646	178
806.825	173.91
807.004	169.81
807.184	128.85
807.363	200.53
807.543	157.52
807.722	139.09
807.901	202.58
808.081	218.96
808.26	108.37
808.439	202.58
808.619	194.39
808.798	212.82
808.977	192.34
809.156	108.37
809.336	147.28
809.515	122.71
809.694	161.62
809.873	87.89
810.052	145.24
810.231	175.95
810.411	83.8
810.59	145.24
810.769	186.19
810.948	169.81
811.127	87.89
811.306	130.9
811.485	96.08
811.664	137.04
811.843	89.94
812.022	87.89
812.201	155.47
812.38	186.19
812.559	149.33
812.737	116.56
812.916	128.85
813.095	71.51
813.274	161.62
813.453	87.89
813.632	169.81
813.811	198.48
813.989	161.62
814.168	128.85
814.347	96.08
814.526	190.29
814.704	137.04
814.883	161.62
815.062	71.51
815.24	178
815.419	141.14
815.598	75.6
815.776	57.17
815.955	137.04
816.133	34.64
816.312	104.28
816.49	30.55
816.669	118.61
816.847	89.94
817.026	137.04
817.204	106.32
817.383	137.04
817.561	173.91
817.74	137.04
817.918	165.71
818.097	87.89
818.275	75.6
818.453	165.71
818.632	149.33
818.81	79.7
818.988	34.64
819.167	132.95
819.345	77.65
819.523	108.37
819.701	106.32
819.879	91.99
820.058	116.56
820.236	87.89
820.414	75.6
820.592	163.67
820.77	149.33
820.948	163.67
821.127	89.94
821.305	79.7
821.483	55.12
821.661	110.42
821.839	91.99
822.017	100.18
822.195	71.51
822.373	100.18
822.551	141.14
822.729	87.89
822.907	55.12
823.085	128.85
823.262	104.28
823.44	100.18
823.618	91.99
823.796	89.94
823.974	122.71
824.152	108.37
824.329	100.18
824.507	85.84
824.685	16.21
824.863	145.24
825.04	112.47
825.218	57.17
825.396	89.94
825.574	94.04
825.751	137.04
825.929	110.42
826.107	178
826.284	55.12
826.462	71.51
826.639	38.74
826.817	79.7
826.994	32.6
827.172	42.84
827.349	130.9
827.527	5.97
827.704	137.04
827.882	98.13
828.059	71.51
828.237	83.8
828.414	194.39
828.591	24.4
828.769	65.36
828.946	104.28
829.124	106.32
829.301	128.85
829.478	40.79
829.655	55.12
829.833	89.94
830.01	34.64
830.187	22.36
830.364	128.85
830.542	55.12
830.719	139.09
830.896	106.32
831.073	-10.41
831.25	79.7
831.427	73.56
831.604	108.37
831.782	112.47
831.959	48.98
832.136	98.13
832.313	98.13
832.49	67.41
832.667	122.71
832.844	51.03
833.021	67.41
833.198	104.28
833.374	102.23
833.551	79.7
833.728	122.71
833.905	96.08
834.082	55.12
834.259	87.89
834.436	132.95
834.612	28.5
834.789	122.71
834.966	81.75
835.143	100.18
835.319	48.98
835.496	59.22
835.673	165.71
835.85	94.04
836.026	36.69
836.203	51.03
836.38	87.89
836.556	-2.22
836.733	-2.22
836.909	63.32
837.086	67.41
837.262	24.4
837.439	89.94
837.616	79.7
837.792	38.74
837.968	63.32
838.145	-12.46
838.321	106.32
838.498	28.5
838.674	94.04
838.851	83.8
839.027	18.26
839.203	16.21
839.38	94.04
839.556	26.45
839.732	96.08
839.909	59.22
840.085	96.08
840.261	87.89
840.437	14.17
840.614	-10.41
840.79	40.79
840.966	46.93
841.142	48.98
841.318	30.55
841.494	24.4
841.671	40.79
841.847	57.17
842.023	91.99
842.199	57.17
842.375	55.12
842.551	-16.55
842.727	-10.41
842.903	91.99
843.079	-14.51
843.255	108.37
843.431	38.74
843.607	1.88
843.783	28.5
843.959	51.03
844.134	51.03
844.31	69.46
844.486	24.4
844.662	22.36
844.838	59.22
845.013	44.88
845.189	38.74
845.365	81.75
845.541	44.88
845.716	100.18
845.892	100.18
846.068	96.08
846.244	-30.89
846.419	24.4
846.595	55.12
846.77	-0.17
846.946	71.51
847.122	-0.17
847.297	44.88
847.473	69.46
847.648	10.07
847.824	-10.41
847.999	8.02
848.175	-18.6
848.35	73.56
848.526	65.36
848.701	71.51
848.876	116.56
849.052	1.88
849.227	79.7
849.403	16.21
849.578	46.93
849.753	83.8
849.929	-18.6
850.104	5.97
850.279	10.07
850.454	59.22
850.63	38.74
850.805	69.46
850.98	-41.13
851.155	46.93
851.33	40.79
851.505	-53.42
851.681	73.56
851.856	38.74
852.031	40.79
852.206	55.12
852.381	30.55
852.556	-6.31
852.731	65.36
852.906	67.41
853.081	63.32
853.256	75.6
853.431	51.03
853.606	42.84
853.781	63.32
853.956	44.88
854.131	30.55
854.305	30.55
854.48	87.89
854.655	-41.13
854.83	20.31
855.005	10.07
855.18	63.32
855.354	-2.22
855.529	5.97
855.704	-43.18
855.879	81.75
856.053	-18.6
856.228	26.45
856.403	-0.17
856.577	18.26
856.752	-34.99
856.926	102.23
857.101	-18.6
857.276	-53.42
857.45	63.32
857.625	61.27
857.799	-14.51
857.974	53.08
858.148	-16.55
858.323	-10.41
858.497	30.55
858.672	-10.41
858.846	14.17
859.02	20.31
859.195	-0.17
859.369	-2.22
859.543	-57.51
859.718	85.84
859.892	8.02
860.066	59.22
860.241	40.79
860.415	75.6
860.589	38.74
860.763	28.5
860.938	-57.51
861.112	-39.08
861.286	-24.75
861.46	73.56
861.634	-26.79
861.808	51.03
861.982	20.31
862.157	-41.13
862.331	-18.6
862.505	-0.17
862.679	-59.56
862.853	32.6
863.027	55.12
863.201	106.32
863.375	-18.6
863.549	5.97
863.722	26.45
863.896	18.26
864.07	24.4
864.244	30.55
864.418	38.74
864.592	30.55
864.766	-2.22
864.939	40.79
865.113	42.84
865.287	96.08
865.461	-55.47
865.634	40.79
865.808	-2.22
865.982	48.98
866.156	-8.36
866.329	-6.31
866.503	-59.56
866.676	42.84
866.85	32.6
867.024	14.17
867.197	8.02
867.371	20.31
867.544	14.17
867.718	-67.75
867.891	16.21
868.065	-16.55
868.238	44.88
868.412	5.97
868.585	22.36
868.759	30.55
868.932	30.55
869.105	24.4
869.279	-47.27
869.452	-16.55
869.625	-30.89
869.799	-30.89
869.972	-34.99
870.145	38.74
870.319	-18.6
870.492	-6.31
870.665	-6.31
870.838	-51.37
871.011	-18.6
871.185	26.45
871.358	-0.17
871.531	26.45
871.704	-22.7
871.877	38.74
872.05	-47.27
872.223	-41.13
872.396	16.21
872.569	22.36
872.742	-30.89
872.915	3.93
873.088	20.31
873.261	44.88
873.434	1.88
873.607	-47.27
873.78	40.79
873.953	-16.55
874.126	24.4
874.299	5.97
874.471	69.46
874.644	18.26
874.817	67.41
874.99	38.74
875.163	8.02
875.335	38.74
875.508	-22.7
875.681	55.12
875.853	14.17
876.026	30.55
876.199	40.79
876.371	14.17
876.544	-51.37
876.717	63.32
876.889	-39.08
877.062	22.36
877.234	-77.99
877.407	-6.31
877.579	-51.37
877.752	5.97
877.924	34.64
878.097	59.22
878.269	-16.55
878.442	-55.47
878.614	18.26
878.786	85.84
878.959	46.93
879.131	-8.36
879.303	-41.13
879.476	59.22
879.648	42.84
879.82	-10.41
879.993	-10.41
880.165	32.6
880.337	-2.22
880.509	-16.55
880.681	-47.27
880.854	3.93
881.026	-10.41
881.198	48.98
881.37	-2.22
881.542	14.17
881.714	40.79
881.886	10.07
882.058	12.12
882.23	8.02
882.402	5.97
882.574	63.32
882.746	32.6
882.918	24.4
883.09	75.6
883.262	12.12
883.434	-59.56
883.606	-8.36
883.778	-6.31
883.95	34.64
884.122	-22.7
884.293	-24.75
884.465	-53.42
884.637	48.98
884.809	-8.36
884.98	-14.51
885.152	67.41
885.324	40.79
885.496	20.31
885.667	-18.6
885.839	-26.79
886.011	108.37
886.182	40.79
886.354	8.02
886.525	34.64
886.697	-2.22
886.869	-84.14
887.04	-18.6
887.212	32.6
887.383	22.36
887.555	-49.32
887.726	79.7
887.897	-34.99
888.069	-18.6
888.24	-18.6
888.412	1.88
888.583	14.17
888.754	38.74
888.926	-26.79
889.097	14.17
889.268	-67.75
889.44	22.36
889.611	-55.47
889.782	-43.18
889.953	5.97
890.125	-6.31
890.296	18.26
890.467	-26.79
890.638	-55.47
890.809	-63.66
890.98	-16.55
891.151	-32.94
891.323	8.02
891.494	-6.31
891.665	18.26
891.836	87.89
892.007	-49.32
892.178	77.65
892.349	34.64
892.52	-20.65
892.691	32.6
892.862	-10.41
893.032	-2.22
893.203	8.02
893.374	-30.89
893.545	10.07
893.716	-100.52
893.887	-10.41
894.057	-20.65
894.228	-2.22
894.399	-71.85
894.57	34.64
894.74	40.79
894.911	-49.32
895.082	3.93
895.253	5.97
895.423	57.17
895.594	18.26
895.764	-43.18
895.935	5.97
896.106	22.36
896.276	3.93
896.447	-0.17
896.617	24.4
896.788	65.36
896.958	-6.31
897.129	-10.41
897.299	8.02
897.47	16.21
897.64	-14.51
897.81	22.36
897.981	-39.08
898.151	-18.6
898.322	22.36
898.492	30.55
898.662	-51.37
898.832	-59.56
899.003	69.46
899.173	46.93
899.343	-8.36
899.513	1.88
