Data from USB4F104151__200__14-45-17-730.txt Node

Date: Thu Mar 13 14:45:17 EDT 2025
User: louis
Spectrometer: USB4F10415
Trigger mode: 4
Integration Time (sec): 2.000000E-2
Scans to average: 1
Electric dark correction enabled: true
Nonlinearity correction enabled: false
Boxcar width: 0
XAxis mode: Wavelengths
Number of Pixels in Spectrum: 3648
>>>>>Begin Spectral Data<<<<<
178.204	-104.96
178.424	-104.96
178.644	-104.96
178.864	-90.62
179.084	-70.14
179.304	-16.9
179.524	-25.09
179.744	-41.47
179.964	-8.7
180.184	15.87
180.404	15.87
180.624	60.93
180.844	42.5
181.064	-98.81
181.283	-45.57
181.503	44.54
181.723	56.83
181.943	-86.53
182.163	42.5
182.383	13.82
182.602	-31.23
182.822	52.74
183.042	69.12
183.262	-18.94
183.482	-47.62
183.701	17.92
183.921	44.54
184.141	-70.14
184.361	-0.51
184.58	-23.04
184.8	5.63
185.02	-25.09
185.239	28.16
185.459	30.21
185.679	67.07
185.898	9.73
186.118	105.98
186.338	13.82
186.557	56.83
186.777	-16.9
186.997	-10.75
187.216	-8.7
187.436	56.83
187.655	38.4
187.875	105.98
188.095	69.12
188.314	50.69
188.534	50.69
188.753	-0.51
188.973	-47.62
189.192	62.98
189.412	-0.51
189.631	-25.09
189.851	7.68
190.07	50.69
190.29	-8.7
190.509	24.06
190.729	-25.09
190.948	9.73
191.168	112.13
191.387	130.56
191.607	58.88
191.826	9.73
192.045	40.45
192.265	17.92
192.484	-4.61
192.704	36.35
192.923	11.78
193.142	108.03
193.362	15.87
193.581	83.45
193.8	48.64
194.02	19.97
194.239	19.97
194.458	7.68
194.678	19.97
194.897	9.73
195.116	89.6
195.335	48.64
195.555	-18.94
195.774	65.02
195.993	65.02
196.212	3.58
196.432	75.26
196.651	7.68
196.87	36.35
197.089	73.21
197.308	52.74
197.528	13.82
197.747	-64
197.966	-20.99
198.185	50.69
198.404	-45.57
198.623	99.84
198.842	101.89
199.062	-14.85
199.281	48.64
199.5	-6.66
199.719	65.02
199.938	15.87
200.157	11.78
200.376	93.69
200.595	-0.51
200.814	97.79
201.033	-31.23
201.252	73.21
201.471	40.45
201.69	81.41
201.909	17.92
202.128	48.64
202.347	32.26
202.566	32.26
202.785	-64
203.004	-16.9
203.223	126.46
203.442	48.64
203.661	11.78
203.879	38.4
204.098	163.33
204.317	-18.94
204.536	1.54
204.755	-0.51
204.974	65.02
205.193	60.93
205.411	52.74
205.63	32.26
205.849	42.5
206.068	36.35
206.287	97.79
206.505	36.35
206.724	-12.8
206.943	48.64
207.162	7.68
207.381	-8.7
207.599	11.78
207.818	1.54
208.037	19.97
208.255	-23.04
208.474	34.3
208.693	15.87
208.911	40.45
209.13	22.02
209.349	-6.66
209.567	-20.99
209.786	73.21
210.005	114.17
210.223	-0.51
210.442	-29.18
210.661	48.64
210.879	-18.94
211.098	-25.09
211.316	3.58
211.535	44.54
211.753	-33.28
211.972	-0.51
212.191	48.64
212.409	-20.99
212.628	42.5
212.846	9.73
213.065	108.03
213.283	99.84
213.502	65.02
213.72	-25.09
213.938	11.78
214.157	50.69
214.375	9.73
214.594	13.82
214.812	-10.75
215.031	1.54
215.249	17.92
215.467	34.3
215.686	-14.85
215.904	32.26
216.122	52.74
216.341	7.68
216.559	22.02
216.778	58.88
216.996	71.17
217.214	-29.18
217.432	36.35
217.651	15.87
217.869	34.3
218.087	22.02
218.306	1.54
218.524	40.45
218.742	3.58
218.96	24.06
219.179	-47.62
219.397	19.97
219.615	110.08
219.833	19.97
220.051	34.3
220.27	-27.14
220.488	28.16
220.706	34.3
220.924	32.26
221.142	73.21
221.36	56.83
221.578	52.74
221.796	3.58
222.015	1.54
222.233	3.58
222.451	58.88
222.669	-121.34
222.887	36.35
223.105	-0.51
223.323	-2.56
223.541	-4.61
223.759	9.73
223.977	17.92
224.195	58.88
224.413	67.07
224.631	77.31
224.849	-49.66
225.067	114.17
225.285	56.83
225.503	9.73
225.721	-25.09
225.939	13.82
226.157	-49.66
226.375	30.21
226.592	1.54
226.81	67.07
227.028	77.31
227.246	1.54
227.464	-6.66
227.682	62.98
227.9	28.16
228.117	79.36
228.335	67.07
228.553	-4.61
228.771	69.12
228.989	46.59
229.206	89.6
229.424	-4.61
229.642	42.5
229.86	-16.9
230.077	48.64
230.295	56.83
230.513	34.3
230.731	42.5
230.948	81.41
231.166	42.5
231.384	-0.51
231.601	34.3
231.819	60.93
232.037	32.26
232.254	44.54
232.472	77.31
232.689	1.54
232.907	32.26
233.125	-41.47
233.342	38.4
233.56	91.65
233.777	-0.51
233.995	34.3
234.213	97.79
234.43	7.68
234.648	22.02
234.865	-4.61
235.083	-8.7
235.3	-33.28
235.518	42.5
235.735	114.17
235.953	44.54
236.17	3.58
236.388	-49.66
236.605	-20.99
236.822	15.87
237.04	17.92
237.257	32.26
237.475	15.87
237.692	-16.9
237.909	38.4
238.127	-29.18
238.344	40.45
238.562	28.16
238.779	-8.7
238.996	26.11
239.214	71.17
239.431	60.93
239.648	65.02
239.865	65.02
240.083	36.35
240.3	26.11
240.517	-20.99
240.735	67.07
240.952	42.5
241.169	22.02
241.386	7.68
241.603	19.97
241.821	-45.57
242.038	50.69
242.255	44.54
242.472	65.02
242.689	99.84
242.907	24.06
243.124	7.68
243.341	81.41
243.558	36.35
243.775	26.11
243.992	-88.57
244.209	17.92
244.426	40.45
244.643	58.88
244.86	-41.47
245.078	-8.7
245.295	52.74
245.512	56.83
245.729	-8.7
245.946	32.26
246.163	-8.7
246.38	48.64
246.597	7.68
246.814	91.65
247.031	-6.66
247.248	26.11
247.464	-37.38
247.681	44.54
247.898	42.5
248.115	130.56
248.332	-113.15
248.549	91.65
248.766	24.06
248.983	73.21
249.2	73.21
249.417	73.21
249.633	-0.51
249.85	7.68
250.067	11.78
250.284	19.97
250.501	50.69
250.717	26.11
250.934	-4.61
251.151	-16.9
251.368	60.93
251.585	67.07
251.801	56.83
252.018	3.58
252.235	24.06
252.451	15.87
252.668	-2.56
252.885	-0.51
253.102	3.58
253.318	15.87
253.535	-23.04
253.752	48.64
253.968	56.83
254.185	9.73
254.401	5.63
254.618	77.31
254.835	-51.71
255.051	163.33
255.268	60.93
255.484	46.59
255.701	9.73
255.917	15.87
256.134	-8.7
256.351	73.21
256.567	17.92
256.784	-16.9
257	-20.99
257.217	77.31
257.433	19.97
257.65	73.21
257.866	56.83
258.082	-0.51
258.299	-57.86
258.515	17.92
258.732	-12.8
258.948	-8.7
259.165	15.87
259.381	30.21
259.597	116.22
259.814	17.92
260.03	28.16
260.246	-4.61
260.463	11.78
260.679	114.17
260.895	-74.24
261.112	19.97
261.328	34.3
261.544	7.68
261.761	48.64
261.977	26.11
262.193	-41.47
262.409	44.54
262.626	-16.9
262.842	28.16
263.058	-39.42
263.274	32.26
263.49	50.69
263.707	9.73
263.923	13.82
264.139	11.78
264.355	-8.7
264.571	114.17
264.787	34.3
265.004	7.68
265.22	7.68
265.436	36.35
265.652	-6.66
265.868	1.54
266.084	-2.56
266.3	40.45
266.516	-41.47
266.732	48.64
266.948	26.11
267.164	89.6
267.38	85.5
267.596	56.83
267.812	116.22
268.028	36.35
268.244	54.78
268.46	19.97
268.676	32.26
268.892	44.54
269.108	26.11
269.324	9.73
269.54	58.88
269.756	-8.7
269.972	-16.9
270.188	40.45
270.403	-4.61
270.619	44.54
270.835	-4.61
271.051	-16.9
271.267	-12.8
271.483	19.97
271.698	17.92
271.914	60.93
272.13	56.83
272.346	24.06
272.562	-16.9
272.777	9.73
272.993	9.73
273.209	36.35
273.425	79.36
273.64	46.59
273.856	-25.09
274.072	30.21
274.287	32.26
274.503	50.69
274.719	110.08
274.934	56.83
275.15	32.26
275.366	-20.99
275.581	-47.62
275.797	5.63
276.012	26.11
276.228	81.41
276.444	44.54
276.659	101.89
276.875	97.79
277.09	34.3
277.306	-49.66
277.521	-51.71
277.737	56.83
277.952	77.31
278.168	-14.85
278.383	30.21
278.599	30.21
278.814	32.26
279.03	-25.09
279.245	97.79
279.461	-0.51
279.676	79.36
279.892	-8.7
280.107	11.78
280.322	9.73
280.538	19.97
280.753	-23.04
280.969	73.21
281.184	7.68
281.399	69.12
281.615	105.98
281.83	58.88
282.045	24.06
282.26	15.87
282.476	-8.7
282.691	36.35
282.906	73.21
283.122	34.3
283.337	110.08
283.552	48.64
283.767	5.63
283.983	48.64
284.198	-61.95
284.413	50.69
284.628	-14.85
284.843	81.41
285.058	34.3
285.274	1.54
285.489	-0.51
285.704	69.12
285.919	24.06
286.134	-16.9
286.349	48.64
286.564	26.11
286.779	110.08
286.995	-31.23
287.21	-18.94
287.425	24.06
287.64	9.73
287.855	17.92
288.07	-31.23
288.285	-2.56
288.5	7.68
288.715	44.54
288.93	32.26
289.145	81.41
289.36	15.87
289.575	13.82
289.79	75.26
290.004	-0.51
290.219	83.45
290.434	-59.9
290.649	17.92
290.864	-0.51
291.079	38.4
291.294	-23.04
291.509	130.56
291.724	65.02
291.938	48.64
292.153	44.54
292.368	-2.56
292.583	-0.51
292.798	28.16
293.012	-0.51
293.227	9.73
293.442	-14.85
293.657	40.45
293.871	17.92
294.086	75.26
294.301	95.74
294.516	89.6
294.73	26.11
294.945	17.92
295.16	36.35
295.374	73.21
295.589	7.68
295.804	-16.9
296.018	15.87
296.233	99.84
296.447	81.41
296.662	56.83
296.877	22.02
297.091	24.06
297.306	56.83
297.52	40.45
297.735	44.54
297.949	151.04
298.164	83.45
298.378	3.58
298.593	-0.51
298.807	3.58
299.022	79.36
299.236	79.36
299.451	-29.18
299.665	56.83
299.88	69.12
300.094	-25.09
300.309	42.5
300.523	81.41
300.737	110.08
300.952	108.03
301.166	-29.18
301.381	28.16
301.595	-12.8
301.809	65.02
302.024	38.4
302.238	-25.09
302.452	89.6
302.667	3.58
302.881	114.17
303.095	15.87
303.309	-57.86
303.524	15.87
303.738	-33.28
303.952	24.06
304.166	97.79
304.381	1.54
304.595	99.84
304.809	24.06
305.023	-14.85
305.237	-8.7
305.452	91.65
305.666	5.63
305.88	32.26
306.094	58.88
306.308	7.68
306.522	50.69
306.736	89.6
306.95	7.68
307.164	19.97
307.379	-6.66
307.593	91.65
307.807	11.78
308.021	19.97
308.235	40.45
308.449	-4.61
308.663	56.83
308.877	71.17
309.091	77.31
309.305	24.06
309.519	32.26
309.733	81.41
309.947	-31.23
310.161	97.79
310.374	122.37
310.588	73.21
310.802	-78.33
311.016	13.82
311.23	-0.51
311.444	-23.04
311.658	26.11
311.872	-0.51
312.085	73.21
312.299	-0.51
312.513	69.12
312.727	97.79
312.941	-0.51
313.154	42.5
313.368	-33.28
313.582	65.02
313.796	81.41
314.009	67.07
314.223	56.83
314.437	34.3
314.651	5.63
314.864	52.74
315.078	-20.99
315.292	89.6
315.505	-4.61
315.719	13.82
315.933	67.07
316.146	32.26
316.36	48.64
316.573	85.5
316.787	7.68
317.001	85.5
317.214	15.87
317.428	46.59
317.641	-57.86
317.855	40.45
318.068	24.06
318.282	28.16
318.495	7.68
318.709	36.35
318.922	3.58
319.136	87.55
319.349	56.83
319.563	11.78
319.776	36.35
319.99	40.45
320.203	42.5
320.417	75.26
320.63	56.83
320.843	73.21
321.057	9.73
321.27	19.97
321.483	81.41
321.697	116.22
321.91	-8.7
322.124	58.88
322.337	7.68
322.55	9.73
322.763	17.92
322.977	24.06
323.19	-39.42
323.403	7.68
323.617	44.54
323.83	40.45
324.043	91.65
324.256	24.06
324.469	-23.04
324.683	32.26
324.896	-33.28
325.109	81.41
325.322	9.73
325.535	85.5
325.748	85.5
325.962	1.54
326.175	32.26
326.388	9.73
326.601	93.69
326.814	52.74
327.027	-39.42
327.24	89.6
327.453	26.11
327.666	67.07
327.879	95.74
328.092	36.35
328.305	24.06
328.518	26.11
328.731	-10.75
328.944	24.06
329.157	48.64
329.37	48.64
329.583	52.74
329.796	110.08
330.009	36.35
330.222	22.02
330.435	50.69
330.648	34.3
330.861	48.64
331.073	7.68
331.286	32.26
331.499	7.68
331.712	-31.23
331.925	77.31
332.138	-23.04
332.35	11.78
332.563	48.64
332.776	42.5
332.989	-66.05
333.202	26.11
333.414	54.78
333.627	114.17
333.84	19.97
334.053	44.54
334.265	62.98
334.478	52.74
334.691	30.21
334.903	71.17
335.116	99.84
335.329	-16.9
335.541	65.02
335.754	120.32
335.966	-12.8
336.179	-6.66
336.392	26.11
336.604	85.5
336.817	13.82
337.029	40.45
337.242	42.5
337.454	81.41
337.667	58.88
337.88	48.64
338.092	34.3
338.305	75.26
338.517	83.45
338.729	44.54
338.942	81.41
339.154	24.06
339.367	-25.09
339.579	142.85
339.792	-0.51
340.004	40.45
340.217	-4.61
340.429	7.68
340.641	40.45
340.854	26.11
341.066	-29.18
341.278	19.97
341.491	173.57
341.703	-8.7
341.915	15.87
342.128	89.6
342.34	73.21
342.552	-27.14
342.764	65.02
342.977	44.54
343.189	62.98
343.401	87.55
343.613	-35.33
343.826	-16.9
344.038	26.11
344.25	91.65
344.462	52.74
344.674	15.87
344.886	97.79
345.099	75.26
345.311	-16.9
345.523	32.26
345.735	9.73
345.947	48.64
346.159	40.45
346.371	42.5
346.583	24.06
346.795	67.07
347.007	-31.23
347.219	19.97
347.431	54.78
347.643	-6.66
347.855	56.83
348.067	99.84
348.279	-27.14
348.491	36.35
348.703	83.45
348.915	13.82
349.127	83.45
349.339	42.5
349.551	52.74
349.763	26.11
349.975	-4.61
350.187	26.11
350.399	73.21
350.61	81.41
350.822	54.78
351.034	11.78
351.246	36.35
351.458	40.45
351.669	1.54
351.881	65.02
352.093	69.12
352.305	69.12
352.517	108.03
352.728	67.07
352.94	-8.7
353.152	97.79
353.363	19.97
353.575	97.79
353.787	32.26
353.999	15.87
354.21	69.12
354.422	60.93
354.633	32.26
354.845	69.12
355.057	77.31
355.268	17.92
355.48	-14.85
355.692	-35.33
355.903	56.83
356.115	97.79
356.326	5.63
356.538	50.69
356.749	73.21
356.961	52.74
357.172	-23.04
357.384	11.78
357.595	105.98
357.807	34.3
358.018	-25.09
358.23	40.45
358.441	105.98
358.653	32.26
358.864	73.21
359.075	-14.85
359.287	-4.61
359.498	110.08
359.709	54.78
359.921	-39.42
360.132	54.78
360.344	56.83
360.555	-16.9
360.766	110.08
360.977	22.02
361.189	85.5
361.4	60.93
361.611	-14.85
361.823	28.16
362.034	32.26
362.245	36.35
362.456	69.12
362.667	62.98
362.879	-37.38
363.09	73.21
363.301	11.78
363.512	69.12
363.723	32.26
363.935	19.97
364.146	58.88
364.357	26.11
364.568	-37.38
364.779	5.63
364.99	40.45
365.201	-8.7
365.412	83.45
365.623	28.16
365.834	77.31
366.045	69.12
366.256	17.92
366.467	97.79
366.678	17.92
366.889	81.41
367.1	26.11
367.311	46.59
367.522	56.83
367.733	54.78
367.944	-25.09
368.155	-16.9
368.366	105.98
368.577	60.93
368.788	122.37
368.999	-10.75
369.209	40.45
369.42	99.84
369.631	73.21
369.842	69.12
370.053	42.5
370.264	116.22
370.474	-33.28
370.685	124.41
370.896	56.83
371.107	71.17
371.317	17.92
371.528	112.13
371.739	73.21
371.95	103.93
372.16	44.54
372.371	28.16
372.582	50.69
372.792	108.03
373.003	67.07
373.214	48.64
373.424	91.65
373.635	42.5
373.846	26.11
374.056	-64
374.267	-8.7
374.477	75.26
374.688	40.45
374.898	81.41
375.109	1.54
375.319	73.21
375.53	30.21
375.74	-2.56
375.951	42.5
376.161	24.06
376.372	22.02
376.582	60.93
376.793	-16.9
377.003	9.73
377.214	32.26
377.424	52.74
377.635	-45.57
377.845	40.45
378.055	142.85
378.266	36.35
378.476	-23.04
378.686	26.11
378.897	91.65
379.107	85.5
379.317	32.26
379.528	-14.85
379.738	101.89
379.948	1.54
380.158	95.74
380.369	91.65
380.579	81.41
380.789	52.74
380.999	83.45
381.21	28.16
381.42	128.51
381.63	-4.61
381.84	32.26
382.05	7.68
382.261	71.17
382.471	81.41
382.681	38.4
382.891	48.64
383.101	56.83
383.311	17.92
383.521	105.98
383.731	120.32
383.941	48.64
384.151	73.21
384.361	40.45
384.571	-8.7
384.781	101.89
384.991	30.21
385.201	77.31
385.411	65.02
385.621	93.69
385.831	116.22
386.041	122.37
386.251	81.41
386.461	183.81
386.671	159.23
386.881	142.85
387.091	22.02
387.301	99.84
387.511	-0.51
387.72	97.79
387.93	101.89
388.14	-90.62
388.35	83.45
388.56	7.68
388.769	132.61
388.979	42.5
389.189	-35.33
389.399	58.88
389.609	95.74
389.818	116.22
390.028	44.54
390.238	17.92
390.447	54.78
390.657	54.78
390.867	50.69
391.076	52.74
391.286	17.92
391.496	7.68
391.705	44.54
391.915	97.79
392.125	32.26
392.334	56.83
392.544	95.74
392.753	99.84
392.963	17.92
393.172	85.5
393.382	52.74
393.591	114.17
393.801	58.88
394.01	122.37
394.22	-20.99
394.429	142.85
394.639	101.89
394.848	58.88
395.058	93.69
395.267	65.02
395.477	171.52
395.686	93.69
395.895	93.69
396.105	140.8
396.314	95.74
396.524	97.79
396.733	36.35
396.942	198.14
397.152	19.97
397.361	58.88
397.57	153.09
397.78	75.26
397.989	52.74
398.198	134.65
398.407	126.46
398.617	134.65
398.826	81.41
399.035	69.12
399.244	116.22
399.453	58.88
399.663	122.37
399.872	112.13
400.081	110.08
400.29	148.99
400.499	87.55
400.708	148.99
400.917	130.56
401.127	93.69
401.336	91.65
401.545	105.98
401.754	81.41
401.963	48.64
402.172	140.8
402.381	130.56
402.59	101.89
402.799	85.5
403.008	159.23
403.217	81.41
403.426	89.6
403.635	62.98
403.844	198.14
404.053	85.5
404.262	155.13
404.471	189.95
404.68	118.27
404.888	148.99
405.097	81.41
405.306	85.5
405.515	169.47
405.724	222.72
405.933	171.52
406.142	161.28
406.35	241.15
406.559	165.37
406.768	62.98
406.977	130.56
407.185	187.9
407.394	179.71
407.603	214.52
407.812	220.67
408.02	220.67
408.229	192
408.438	165.37
408.646	222.72
408.855	202.24
409.064	218.62
409.272	282.11
409.481	294.4
409.69	253.44
409.898	310.78
410.107	359.93
410.315	267.77
410.524	298.49
410.733	404.99
410.941	376.31
411.15	398.84
411.358	382.46
411.567	419.32
411.775	302.59
411.984	396.79
412.192	400.89
412.401	388.6
412.609	458.23
412.818	499.19
413.026	435.71
413.234	433.66
413.443	466.42
413.651	458.23
413.86	476.66
414.068	597.49
414.276	677.37
414.485	607.73
414.693	648.69
414.901	755.19
415.11	691.7
415.318	636.41
415.526	763.38
415.734	714.23
415.943	763.38
416.151	790
416.359	708.09
416.567	808.44
416.776	828.92
416.984	867.83
417.192	990.7
417.4	941.55
417.608	878.07
417.817	1011.18
418.025	1015.28
418.233	1089.01
418.441	1043.95
418.649	1228.27
418.857	1228.27
419.065	1277.42
419.273	1228.27
419.481	1328.62
419.689	1353.2
419.897	1424.87
420.105	1506.79
420.313	1566.18
420.521	1596.9
420.729	1590.76
420.937	1517.03
421.145	1744.36
421.353	1758.69
421.561	1826.28
421.769	2002.4
421.977	1957.35
422.185	1981.92
422.393	2115.04
422.601	2088.42
422.809	2178.53
423.017	2184.67
423.224	2203.1
423.432	2366.94
423.64	2461.15
423.848	2678.23
424.056	2571.74
424.263	2704.85
424.471	2743.77
424.679	2901.46
424.887	2921.94
425.094	2981.33
425.302	3081.68
425.51	3276.24
425.718	3395.02
425.925	3216.85
426.133	3315.15
426.341	3538.38
426.548	3700.17
426.756	3802.57
426.964	3890.63
427.171	4072.9
427.379	4195.78
427.586	4398.52
427.794	4296.13
428.001	4601.27
428.209	4689.34
428.417	4638.14
428.624	5060.02
428.832	5021.11
429.039	5113.27
429.247	5117.36
429.454	5481.9
429.662	5819.82
429.869	5627.31
430.076	5774.76
430.284	5721.51
430.491	5983.65
430.699	6204.83
430.906	6129.06
431.114	6354.34
431.321	6495.64
431.528	6585.76
431.736	7097.75
431.943	7644.56
432.15	7183.76
432.358	7413.13
432.565	7761.29
432.772	7835.02
432.979	8234.37
433.187	8396.16
433.394	8297.86
433.601	8996.21
433.808	8926.58
434.016	8918.39
434.223	9231.73
434.43	9844.07
434.637	9608.56
434.844	10171.75
435.052	10173.8
435.259	10186.08
435.466	10345.83
435.673	10245.48
435.88	10851.67
436.087	11527.5
436.294	11468.11
436.501	11435.35
436.708	11517.26
436.915	11779.4
437.122	12457.28
437.329	12533.06
437.537	12756.29
437.743	12811.58
437.95	12696.89
438.157	13671.73
438.364	13890.86
438.571	14132.52
438.778	13958.44
438.985	15361.3
439.192	14820.64
439.399	15015.19
439.606	15027.48
439.813	15922.45
440.02	16637.19
440.227	16364.81
440.433	16026.89
440.64	17102.08
440.847	16674.05
441.054	17100.03
441.261	18277.61
441.467	18193.64
441.674	18087.15
441.881	19047.65
442.088	19152.09
442.294	19072.22
442.501	19096.8
442.708	19856.59
442.914	20618.44
443.121	21345.47
443.328	20530.37
443.534	22199.47
443.741	21765.3
443.948	21544.12
444.154	23094.43
444.361	23014.56
444.568	22822.05
444.774	22742.18
444.981	23217.31
445.187	24095.89
445.394	24601.74
445.6	24480.91
445.807	26905.7
446.013	25814.13
446.22	26436.72
446.426	27282.53
446.633	27735.13
446.839	28597.32
447.046	27343.97
447.252	28814.41
447.459	29049.92
447.665	28570.7
447.871	29914.17
448.078	31429.66
448.284	29561.92
448.491	30770.22
448.697	31812.63
448.903	32355.35
449.11	32777.23
449.316	32240.66
449.522	32529.42
449.728	33104.9
449.935	33711.1
450.141	33858.56
450.347	34802.67
450.553	33199.11
450.76	34010.11
450.966	35167.21
451.172	34989.03
451.378	35593.18
451.584	34937.83
451.791	36074.46
451.997	35824.61
452.203	36197.34
452.409	36543.44
452.615	36369.37
452.821	34952.17
453.027	34331.64
453.233	36412.37
453.44	34976.75
453.646	35511.27
453.852	35398.63
454.058	36393.94
454.264	35116.01
454.47	36049.88
454.676	34872.3
454.882	36047.83
455.088	33139.72
455.294	33747.97
455.5	34499.57
455.705	34448.37
455.911	33278.98
456.117	32572.43
456.323	32017.43
456.529	30467.12
456.735	32019.48
456.941	31118.37
457.147	30798.89
457.352	29723.71
457.558	29748.28
457.764	29230.15
457.97	29004.87
458.176	28214.35
458.381	28216.4
458.587	26954.85
458.793	26903.65
458.999	25980.02
459.204	27540.57
459.41	26741.86
459.616	25042.05
459.821	25214.08
460.027	24927.36
460.233	24689.8
460.438	23319.71
460.644	23598.23
460.85	22240.43
461.055	22101.17
461.261	21957.81
461.466	20534.47
461.672	19889.36
461.878	21177.53
462.083	20030.67
462.289	19619.03
462.494	19389.66
462.7	18382.06
462.905	17808.62
463.111	18500.84
463.316	18779.36
463.522	18355.43
463.727	18257.13
463.932	18238.7
464.138	18132.2
464.343	18207.98
464.549	17616.12
464.754	18195.69
464.959	17958.13
465.165	17939.69
465.37	17323.26
465.575	16866.56
465.781	17380.6
465.986	17476.85
466.191	16815.36
466.397	16739.58
466.602	15846.67
466.807	16358.66
467.012	16440.58
467.218	16383.24
467.423	16094.47
467.628	16393.48
467.833	17032.44
468.038	16456.96
468.244	15793.42
468.449	16577.8
468.654	15942.92
468.859	16008.46
469.064	15875.34
469.269	15101.21
469.474	15398.17
469.679	15768.85
469.885	14984.48
470.09	15285.53
470.295	15166.74
470.5	15090.97
470.705	14978.33
470.91	14681.38
471.115	14574.88
471.32	14697.76
471.525	14708
471.73	14413.09
471.935	14466.34
472.139	13827.37
472.344	14105.9
472.549	13825.33
472.754	13806.89
472.959	13557.04
473.164	13176.12
473.369	12864.83
473.574	13745.45
473.778	13016.38
473.983	13112.63
474.188	12987.71
474.393	12463.43
474.598	12737.85
474.802	12647.74
475.007	12459.33
475.212	12522.82
475.417	12014.92
475.621	12080.46
475.826	12066.12
476.031	11763.02
476.235	11683.15
476.44	11732.3
476.645	11771.21
476.849	11656.53
477.054	11533.65
477.259	11193.69
477.463	11402.58
477.668	10755.42
477.872	10839.39
478.077	10968.41
478.282	10775.9
478.486	10544.48
478.691	10601.82
478.895	10585.44
479.1	10433.89
479.304	10335.59
479.509	10302.82
479.713	10427.74
479.918	10059.11
480.122	10143.08
480.326	10067.3
480.531	10243.43
480.735	10093.93
480.94	9543.02
481.144	10167.65
481.348	9782.63
481.553	10020.2
481.757	9489.78
481.961	9715.05
482.166	9756.01
482.37	9788.78
482.574	9561.45
482.778	9665.9
482.983	9911.66
483.187	9766.25
483.391	9723.24
483.595	9739.63
483.8	9534.83
484.004	9672.04
484.208	10048.87
484.412	9829.74
484.616	9715.05
484.821	9735.53
485.025	9407.86
485.229	9682.28
485.433	9653.61
485.637	9596.27
485.841	9661.8
486.045	9733.48
486.249	9780.59
486.453	9502.06
486.657	9626.99
486.861	9756.01
487.065	9567.6
487.269	9862.51
487.473	9567.6
487.677	9633.13
487.881	9960.81
488.085	9852.27
488.289	10018.15
488.493	9616.75
488.697	9741.68
488.901	9901.42
489.105	9735.53
489.309	10061.16
489.512	9870.7
489.716	9885.03
489.92	9799.02
490.124	9788.78
490.328	10001.77
490.531	9979.24
490.735	10177.89
490.939	10265.96
491.143	10181.99
491.346	10198.37
491.55	10173.8
491.754	10192.23
491.958	10341.73
492.161	10196.32
492.365	10386.79
492.569	10304.87
492.772	10470.75
492.976	10493.28
493.18	10487.14
493.383	10524
493.587	10739.04
493.79	10939.74
493.994	10765.66
494.197	10886.49
494.401	10968.41
494.605	11144.53
494.808	11222.36
495.012	11072.86
495.215	11414.87
495.419	11351.38
495.622	11316.56
495.825	11605.33
496.029	11410.77
496.232	11752.78
496.436	11779.4
496.639	12027.21
496.843	12045.64
497.046	12217.67
497.249	12580.16
497.453	12381.51
497.656	12494.15
497.859	12559.68
498.063	12688.7
498.266	13075.77
498.469	12885.31
498.673	13165.88
498.876	13161.78
499.079	13380.92
499.282	13622.58
499.485	13733.17
499.689	13972.78
499.892	13905.2
500.095	13878.57
500.298	14452
500.501	14648.61
500.705	14806.3
500.908	14943.52
501.111	15127.83
501.314	15387.93
501.517	15224.09
501.72	15523.09
501.923	15617.3
502.126	16024.84
502.329	16186.63
502.532	16233.74
502.735	16362.76
502.938	16745.73
503.141	16870.65
503.344	17114.36
503.547	17079.55
503.75	17761.52
503.953	17943.79
504.156	18058.48
504.359	18232.55
504.562	18289.9
504.765	18515.17
504.968	18871.52
505.17	18939.1
505.373	18951.39
505.576	19201.24
505.779	19463.38
505.982	19725.52
506.185	19969.23
506.387	20249.8
506.59	20405.45
506.793	20950.21
506.996	20712.64
507.198	21185.72
507.401	21277.88
507.604	21607.61
507.807	21644.47
508.009	21918.9
508.212	22455.47
508.415	22445.23
508.617	22901.92
508.82	23104.67
509.022	22666.41
509.225	23375
509.428	23557.27
509.63	23903.38
509.833	24032.4
510.035	24347.79
510.238	24409.23
510.44	24870.02
510.643	25152.64
510.845	25472.12
511.048	25304.19
511.25	25822.33
511.453	25818.23
511.655	27145.31
511.858	26395.76
512.06	26913.89
512.262	27106.4
512.465	27200.61
512.667	27518.04
512.87	28003.41
513.072	28171.35
513.274	28466.25
513.477	28695.63
513.679	28881.99
513.881	29484.09
514.084	29764.67
514.286	29719.61
514.488	30063.67
514.69	30833.71
514.893	30911.53
515.095	30755.88
515.297	31304.74
515.499	31243.3
515.701	31583.26
515.904	32164.89
516.106	32439.31
516.308	32930.83
516.51	33080.33
516.712	33063.94
516.914	33180.68
517.116	34151.41
517.318	33872.89
517.52	34477.04
517.722	34561.01
517.925	34618.35
518.127	35130.34
518.329	35449.83
518.531	35163.11
518.733	36056.03
518.935	36611.03
519.136	36379.6
519.338	37282.76
519.54	36811.73
519.742	37295.05
519.944	37469.12
520.146	38400.95
520.348	38190.01
520.55	38456.25
520.752	38407.09
520.954	39431.08
521.155	38992.81
521.357	39719.84
521.559	39855.01
521.761	40479.64
521.963	40151.96
522.164	40485.78
522.366	40938.38
522.568	41008.01
522.77	41298.83
522.971	42083.2
523.173	41501.57
523.375	42001.28
523.576	42036.09
523.778	42369.91
523.98	43252.59
524.181	43168.62
524.383	43029.36
524.584	43357.03
524.786	43371.37
524.988	43336.55
525.189	43518.82
525.391	44231.52
525.592	44284.76
525.794	44573.53
525.995	44694.36
526.197	44819.28
526.398	44493.66
526.6	45142.86
526.801	45448.01
527.003	45314.89
527.204	45339.47
527.406	45955.91
527.607	45755.21
527.808	46420.8
528.01	45513.55
528.211	46164.8
528.412	46469.95
528.614	46537.53
528.815	46680.89
529.016	47037.23
529.218	46527.29
529.419	46840.63
529.62	46900.02
529.822	47182.64
530.023	47026.99
530.224	47278.89
530.425	47010.61
530.626	47059.76
530.828	47063.86
531.029	48190.24
531.23	47375.15
531.431	47596.33
531.632	47756.07
531.833	47772.46
532.035	47657.77
532.236	47594.28
532.437	47608.62
532.638	47629.1
532.839	48180
533.04	48237.34
533.241	47631.15
533.442	48599.83
533.643	48048.93
533.844	47833.89
534.045	48122.66
534.246	47608.62
534.447	48229.15
534.648	47924
534.849	48261.92
535.05	47307.57
535.251	48071.46
535.451	48026.4
535.652	48444.19
535.853	47852.33
536.054	48036.64
536.255	48229.15
536.456	48143.14
536.657	48958.23
536.857	48300.83
537.058	48003.88
537.259	48263.97
537.46	48421.66
537.66	48098.08
537.861	48218.91
538.062	47981.35
538.263	48417.57
538.463	48120.61
538.664	48186.14
538.865	48714.52
539.065	48266.02
539.266	47536.94
539.466	48423.71
539.667	48108.32
539.868	48270.11
540.068	47827.75
540.269	48044.83
540.469	48470.81
540.67	47686.44
540.87	48102.18
541.071	48065.31
541.271	48048.93
541.472	47739.69
541.672	47829.8
541.873	48022.31
542.073	47495.98
542.274	48532.25
542.474	48073.51
542.675	47878.95
542.875	48362.27
543.075	48290.59
543.276	47557.42
543.476	48093.99
543.676	47784.74
543.877	48202.53
544.077	47850.28
544.277	48184.1
544.478	47905.57
544.678	48431.9
544.878	47852.33
545.078	47938.34
545.279	47584.04
545.479	47784.74
545.679	47854.37
545.879	47782.69
546.079	48012.07
546.28	47825.7
546.48	47518.51
546.68	47846.18
546.88	47852.33
547.08	48132.9
547.28	47782.69
547.48	47231.79
547.68	47731.5
547.88	47076.15
548.081	47964.96
548.281	47897.38
548.481	47393.58
548.681	47729.45
548.881	47901.48
549.081	47442.73
549.28	47326
549.48	47764.26
549.68	47170.35
549.88	48173.86
550.08	47592.23
550.28	47508.27
550.48	47850.28
550.68	47420.2
550.88	47092.53
551.08	47827.75
551.279	47575.85
551.479	47551.27
551.679	47559.47
551.879	47297.33
552.079	48110.37
552.278	47444.78
552.478	47141.68
552.678	47610.67
552.878	47819.56
553.077	47493.93
553.277	46859.06
553.477	47829.8
553.676	46820.15
553.876	46971.7
554.076	47244.08
554.275	47018.8
554.475	46932.79
554.674	47024.95
554.874	46965.56
555.074	46807.86
555.273	47121.2
555.473	47285.04
555.672	46541.63
555.872	46551.87
556.071	46607.16
556.271	47301.42
556.47	47072.05
556.67	46441.28
556.869	46848.82
557.068	46816.05
557.268	46615.35
557.467	46545.72
557.667	46555.96
557.866	46648.12
558.065	46768.95
558.265	46582.59
558.464	46289.73
558.663	46355.26
558.863	45716.29
559.062	46701.37
559.261	46019.39
559.461	46658.36
559.66	45861.7
559.859	46125.89
560.058	45583.18
560.258	46170.94
560.457	45704.01
560.656	46195.52
560.855	45806.41
561.054	46248.77
561.253	45519.69
561.453	45876.04
561.652	45718.34
561.851	45810.5
562.05	45151.06
562.249	45253.45
562.448	46134.08
562.647	45529.93
562.846	45355.85
563.045	45820.74
563.244	45120.34
563.443	45409.1
563.642	44479.32
563.841	45159.25
564.04	45300.56
564.239	45568.84
564.438	44954.45
564.637	44653.4
564.836	44901.2
565.035	44467.03
565.234	44897.11
565.432	44243.8
565.631	44440.41
565.83	44999.51
566.029	44223.33
566.228	44346.2
566.427	44268.38
566.625	43768.68
566.824	43934.56
567.023	44622.68
567.222	43367.27
567.42	44098.4
567.619	43895.65
567.818	43246.44
568.016	43692.9
568.215	44090.21
568.414	43508.58
568.612	43561.83
568.811	43299.69
569.01	43234.16
569.208	42681.2
569.407	43158.38
569.605	43098.99
569.804	43230.06
570.002	42595.19
570.201	43053.94
570.4	42660.73
570.598	42658.68
570.797	42490.74
570.995	42847.09
571.193	41886.59
571.392	42386.3
571.59	42349.43
571.789	42369.91
571.987	42136.45
572.186	41800.58
572.384	42216.32
572.582	42046.33
572.781	42036.09
572.979	41388.94
573.177	41534.34
573.376	41411.46
573.574	40989.58
573.772	41388.94
573.971	41436.04
574.169	41085.84
574.367	40780.69
574.565	41401.22
574.763	40831.89
574.962	40512.41
575.16	40510.36
575.358	40704.91
575.556	40217.5
575.754	40801.17
575.952	39895.97
576.151	40471.45
576.349	39918.49
576.547	39906.21
576.745	40057.76
576.943	40323.99
577.141	39848.86
577.339	39979.93
577.537	39777.19
577.735	39725.99
577.933	39181.23
578.131	39441.32
578.329	39322.54
578.527	39164.84
578.725	39246.76
578.923	39340.97
579.121	38861.74
579.319	38783.92
579.516	38783.92
579.714	38677.43
579.912	38497.2
580.11	38439.86
580.308	38312.89
580.506	38384.57
580.704	37757.89
580.901	37809.09
581.099	38333.37
581.297	37458.88
581.495	37999.55
581.692	38126.52
581.89	37395.4
582.088	37848
582.285	37360.58
582.483	37643.2
582.681	37401.54
582.878	37249.99
583.076	36996.04
583.274	37309.38
583.471	36844.49
583.669	36873.17
583.866	36518.87
584.064	36881.36
584.262	36320.21
584.459	36842.45
584.657	36455.38
584.854	36473.81
585.052	35666.91
585.249	36293.59
585.447	36494.29
585.644	36029.4
585.841	35888.09
586.039	36373.46
586.236	35501.03
586.434	35394.53
586.631	35224.55
586.828	35453.92
587.026	35392.48
587.223	35107.82
587.42	34755.57
587.618	35081.19
587.815	34804.72
588.012	34714.61
588.21	34683.89
588.407	34921.45
588.604	34485.23
588.801	34108.41
588.999	34262.01
589.196	34153.46
589.393	34288.63
589.59	34284.53
589.787	33700.86
589.984	33713.15
590.182	33469.44
590.379	33817.6
590.576	33565.7
590.773	33420.29
590.97	33522.69
591.167	33465.35
591.364	33088.52
591.561	33231.88
591.758	33051.66
591.955	32961.55
592.152	33205.25
592.349	32590.86
592.546	32881.67
592.743	32723.98
592.94	32400.4
593.137	32281.62
593.334	32580.62
593.531	32214.04
593.727	32062.49
593.924	32300.05
594.121	31994.9
594.318	32035.86
594.515	31673.37
594.712	31851.55
594.908	31427.62
595.105	31915.03
595.302	31454.24
595.499	31611.93
595.696	31210.53
595.892	30868.52
596.089	31298.59
596.286	31452.19
596.482	31011.88
596.679	30712.88
596.876	30546.99
597.072	31036.45
597.269	30544.94
597.466	30297.14
597.662	30491.69
597.859	30432.3
598.055	30198.84
598.252	30102.58
598.448	30104.63
598.645	30227.51
598.841	29938.74
599.038	29633.6
599.234	29862.97
599.431	29461.57
599.627	29672.51
599.824	29502.53
600.02	29056.07
600.217	29381.7
600.413	29328.45
600.609	29068.36
600.806	29019.21
601.002	29142.08
601.198	28544.08
601.395	28922.95
601.591	28771.4
601.787	28595.28
601.984	28529.74
602.18	28580.94
602.376	28548.17
602.572	28347.47
602.769	28163.15
602.965	28050.52
603.161	28372.05
603.357	27653.21
603.553	27974.74
603.75	27743.32
603.946	27417.69
604.142	27882.58
604.338	27567.2
604.534	27427.93
604.73	27223.14
604.926	27065.44
605.122	27247.71
605.318	26809.45
605.514	27210.85
605.71	26879.08
605.906	26768.49
606.102	27114.59
606.298	26467.44
606.494	26700.9
606.69	26567.79
606.886	26508.4
607.082	26299.5
607.278	26729.58
607.474	26066.03
607.67	26532.97
607.866	25789.56
608.062	26336.37
608.257	26152.05
608.453	26209.39
608.649	25951.35
608.845	25601.15
609.041	25787.51
609.236	25947.25
609.432	25810.04
609.628	25859.19
609.824	25310.33
610.019	25289.85
610.215	25386.11
610.411	25545.85
610.606	25183.36
610.802	25363.58
610.998	25353.34
611.193	25154.69
611.389	25287.81
611.584	24904.84
611.78	25111.68
611.976	25193.6
612.171	24820.87
612.367	24870.02
612.562	24638.6
612.758	24372.36
612.953	24505.48
613.149	24607.88
613.344	24540.3
613.539	24951.94
613.735	24253.58
613.93	24347.79
614.126	24323.21
614.321	24693.9
614.517	24327.31
614.712	24276.11
614.907	24013.97
615.103	24415.37
615.298	24001.68
615.493	24296.59
615.688	23962.77
615.884	24376.46
616.079	23721.11
616.274	24431.76
616.47	23989.39
616.665	23919.76
616.86	23694.49
617.055	23688.34
617.25	23436.44
617.445	23626.9
617.641	23205.02
617.836	23516.31
618.031	23135.39
618.226	23565.46
618.421	23125.15
618.616	23635.1
618.811	22758.56
619.006	23180.45
619.201	22498.47
619.396	22916.26
619.591	22619.3
619.786	23108.77
619.981	22150.32
620.176	22570.15
620.371	22338.73
620.566	22240.43
620.761	22305.96
620.956	22326.44
621.151	21810.36
621.346	22068.4
621.541	21630.13
621.735	21685.43
621.93	21527.74
622.125	21501.11
622.32	21167.29
622.515	21292.22
622.709	20978.88
622.904	20874.43
623.099	20796.61
623.294	20774.08
623.488	20387.02
623.683	20726.98
623.878	20059.34
624.072	20409.54
624.267	20307.15
624.462	20395.21
624.656	19975.38
624.851	19879.12
625.046	19733.71
625.24	19741.91
625.435	19649.75
625.629	19596.5
625.824	19442.9
626.018	19502.29
626.213	18980.06
626.407	19209.43
626.602	18781.41
626.796	18957.53
626.991	19076.32
627.185	18693.35
627.38	18595.04
627.574	18224.36
627.768	18521.32
627.963	18328.81
628.157	18171.11
628.352	18117.87
628.546	17954.03
628.74	18019.57
628.935	17906.93
629.129	17822.96
629.323	17366.26
629.517	17640.69
629.712	17204.47
629.906	17409.27
630.1	17155.32
630.294	16956.67
630.489	17126.65
630.683	17183.99
630.877	16579.84
631.071	16655.62
631.265	16600.32
631.459	16547.08
631.653	16487.68
631.848	16581.89
632.042	16428.29
632.236	16459.01
632.43	16209.16
632.624	16248.07
632.818	16198.92
633.012	15906.06
633.206	16043.28
633.4	15861.01
633.594	15412.5
633.788	15660.31
633.982	15897.87
634.176	15512.85
634.369	15531.28
634.563	15342.87
634.757	15203.61
634.951	15273.24
635.145	15123.74
635.339	14935.32
635.533	15043.87
635.726	15064.35
635.92	14732.58
636.114	14929.18
636.308	14720.29
636.501	14679.33
636.695	14310.69
636.889	14214.44
637.083	14243.11
637.276	14157.1
637.47	14153
637.664	14171.43
637.857	13870.38
638.051	14112.04
638.244	13917.48
638.438	13659.44
638.632	13751.6
638.825	13471.03
639.019	13493.55
639.212	13301.05
639.406	13679.92
639.599	13593.9
639.793	13264.18
639.986	13143.35
640.18	13258.04
640.373	13225.27
640.567	12891.45
640.76	13026.62
640.954	12686.65
641.147	12731.71
641.34	12797.24
641.534	12725.57
641.727	12602.69
641.92	12594.5
642.114	12625.22
642.307	12508.48
642.5	12156.23
642.694	12301.64
642.887	11978.06
643.08	12074.31
643.273	12029.26
643.467	11957.58
643.66	11926.86
643.853	11978.06
644.046	11656.53
644.239	11631.95
644.432	11625.81
644.626	11449.68
644.819	11410.77
645.012	11634
645.205	11371.86
645.398	11165.01
645.591	11345.23
645.784	11373.91
645.977	11212.12
646.17	10984.79
646.363	10976.6
646.556	10831.19
646.749	10792.28
646.942	10743.13
647.135	10722.65
647.328	10794.33
647.521	10710.36
647.714	10616.16
647.907	10470.75
648.099	10491.23
648.292	10409.31
648.485	10329.44
648.678	10296.67
648.871	10368.35
649.064	10036.58
649.256	10159.46
649.449	10247.52
649.642	10173.8
649.835	9823.59
650.027	9891.18
650.22	9782.63
650.413	9825.64
650.605	9788.78
650.798	9702.76
650.991	9317.75
651.183	9694.57
651.376	9332.08
651.568	9514.35
651.761	9452.91
651.954	9414
652.146	9428.34
652.339	9170.29
652.531	9061.75
652.724	8961.4
652.916	9002.36
653.109	8967.54
653.301	8971.64
653.494	9176.44
653.686	8754.55
653.879	8854.9
654.071	8682.88
654.263	8648.06
654.456	8748.41
654.648	8699.26
654.84	8605.05
655.033	8629.63
655.225	8578.43
655.417	8476.03
655.61	8646.01
655.802	8553.85
655.994	8263.04
656.186	8418.69
656.379	8281.47
656.571	8240.51
656.763	8062.34
656.955	8084.87
657.148	8113.54
657.34	7988.61
657.532	8035.72
657.724	7906.7
657.916	7871.88
658.108	7783.82
658.3	7746.95
658.492	7867.78
658.684	7652.75
658.876	7878.02
659.068	7519.63
659.26	7441.81
659.452	7609.74
659.644	7470.48
659.836	7351.7
660.028	7241.11
660.22	7325.07
660.412	7212.43
660.604	7142.8
660.796	7298.45
660.988	7183.76
661.18	7099.8
661.372	7036.31
661.563	7071.12
661.755	6960.53
661.947	6962.58
662.139	6940.05
662.331	6823.32
662.522	6864.28
662.714	6710.68
662.906	6651.29
663.097	6856.09
663.289	6641.05
663.481	6602.14
663.673	6733.21
663.864	6555.04
664.056	6464.93
664.247	6342.05
664.439	6376.86
664.631	6563.23
664.822	6446.49
665.014	6423.97
665.205	6192.55
665.397	6243.74
665.588	6176.16
665.78	6110.63
665.971	6077.86
666.163	6188.45
666.354	6131.11
666.546	5918.12
666.737	5922.21
666.929	5873.06
667.12	6049.19
667.311	5995.94
667.503	5924.26
667.694	5795.24
667.885	5846.44
668.077	5834.15
668.268	5653.93
668.459	5684.65
668.651	5537.2
668.842	5586.35
669.033	5524.91
669.224	5541.29
669.416	5547.44
669.607	5533.1
669.798	5330.35
669.989	5610.92
670.18	5348.78
670.371	5266.86
670.563	5195.18
670.754	5471.66
670.945	5160.37
671.136	5350.83
671.327	5344.69
671.518	5211.57
671.709	5072.31
671.9	5088.69
672.091	5262.77
672.282	4894.13
672.473	5197.23
672.664	5127.6
672.855	5031.35
673.046	5000.63
673.237	4918.71
673.428	5012.92
673.619	4943.28
673.809	4941.24
674	4906.42
674.191	4910.52
674.382	4812.21
674.573	4836.79
674.764	4789.69
674.954	4752.82
675.145	4722.1
675.336	4668.86
675.527	4771.26
675.717	4726.2
675.908	4652.47
676.099	4693.43
676.289	4599.23
676.48	4615.61
676.671	4574.65
676.861	4586.94
677.052	4545.98
677.243	4533.69
677.433	4570.55
677.624	4548.03
677.814	4488.64
678.005	4556.22
678.195	4476.35
678.386	4482.49
678.576	4402.62
678.767	4390.33
678.957	4480.44
679.148	4439.48
679.338	4492.73
679.529	4281.79
679.719	4320.7
679.909	4296.13
680.1	4302.27
680.29	4296.13
680.481	4230.59
680.671	4271.55
680.861	4144.58
681.052	4203.97
681.242	4281.79
681.432	4255.17
681.622	4220.35
681.813	4120
682.003	4103.62
682.193	4062.66
682.383	4185.54
682.573	3999.17
682.764	4060.61
682.954	4064.71
683.144	4113.86
683.334	4056.51
683.524	4021.7
683.714	4040.13
683.904	3933.64
684.094	3972.55
684.284	3950.02
684.474	4097.47
684.664	3904.96
684.854	3874.24
685.044	3993.03
685.234	3761.61
685.424	3978.69
685.614	3855.81
685.804	3874.24
685.994	3976.64
686.184	3941.83
686.374	3769.8
686.564	3980.74
686.753	3732.94
686.943	3808.71
687.133	3831.24
687.323	3853.77
687.513	3698.12
687.702	3841.48
687.892	3753.41
688.082	3671.5
688.272	3888.58
688.461	3532.23
688.651	3884.48
688.841	3706.31
689.03	3767.75
689.22	3653.06
689.41	3546.57
689.599	3550.67
689.789	3634.63
689.979	3589.58
690.168	3581.39
690.358	3556.81
690.547	3550.67
690.737	3491.27
690.926	3638.73
691.116	3464.65
691.305	3511.75
691.495	3370.44
691.684	3466.7
691.874	3325.39
692.063	3382.73
692.252	3392.97
692.442	3392.97
692.631	3442.12
692.82	3407.31
693.01	3392.97
693.199	3378.64
693.388	3423.69
693.578	3403.21
693.767	3464.65
693.956	3311.05
694.146	3286.48
694.335	3214.8
694.524	3392.97
694.713	3300.81
694.902	3218.89
695.092	3407.31
695.281	3274.19
695.47	3296.72
695.659	3270.09
695.848	3227.09
696.037	3163.6
696.226	3147.22
696.415	3198.42
696.604	3120.59
696.793	3171.79
696.982	3186.13
697.171	3270.09
697.36	3218.89
697.549	3079.63
697.738	3091.92
697.927	3100.11
698.116	3190.22
698.305	3007.95
698.494	3112.4
698.683	2991.57
698.872	3098.06
699.061	3124.69
699.25	3081.68
699.438	3165.65
699.627	3108.3
699.816	3091.92
700.005	3059.15
700.193	2905.56
700.382	3108.3
700.571	2960.85
700.76	3044.82
700.948	3063.25
701.137	3010
701.326	2989.52
701.514	2932.18
701.703	2903.51
701.892	2956.75
702.08	3075.54
702.269	2895.32
702.457	2893.27
702.646	2901.46
702.834	2923.99
703.023	2860.5
703.212	2895.32
703.4	2926.04
703.589	2760.15
703.777	2850.26
703.965	2780.63
704.154	2856.4
704.342	2786.77
704.531	2635.22
704.719	2665.94
704.907	2850.26
705.096	2842.07
705.284	2762.2
705.472	2727.38
705.661	2733.53
705.849	2663.9
706.037	2813.4
706.226	2735.57
706.414	2713.05
706.602	2663.9
706.79	2827.73
706.979	2678.23
707.167	2629.08
707.355	2596.31
707.543	2661.85
707.731	2706.9
707.919	2751.96
708.107	2631.13
708.296	2657.75
708.484	2680.28
708.672	2596.31
708.86	2731.48
709.048	2637.27
709.236	2516.44
709.424	2608.6
709.612	2516.44
709.8	2489.82
709.988	2512.35
710.176	2655.7
710.364	2510.3
710.551	2549.21
710.739	2489.82
710.927	2459.1
711.115	2452.95
711.303	2475.48
711.491	2514.39
711.679	2514.39
711.866	2414.04
712.054	2487.77
712.242	2428.38
712.43	2629.08
712.617	2555.35
712.805	2414.04
712.993	2346.46
713.181	2268.64
713.368	2514.39
713.556	2420.19
713.744	2438.62
713.931	2418.14
714.119	2547.16
714.306	2239.97
714.494	2342.36
714.682	2285.02
714.869	2383.32
715.057	2360.8
715.244	2205.15
715.432	2342.36
715.619	2416.09
715.807	2301.4
715.994	2307.55
716.182	2303.45
716.369	2399.71
716.556	2303.45
716.744	2280.93
716.931	2221.53
717.119	2336.22
717.306	2227.68
717.493	2313.69
717.681	2178.53
717.868	2246.11
718.055	2176.48
718.242	2239.97
718.43	2293.21
718.617	2192.86
718.804	2346.46
718.991	2153.95
719.179	2309.6
719.366	2096.61
719.553	2196.96
719.74	2162.14
719.927	2104.8
720.114	2186.72
720.301	2239.97
720.488	2149.86
720.676	2260.45
720.863	2147.81
721.05	2123.23
721.237	2133.47
721.424	2274.78
721.611	2178.53
721.798	2020.83
721.985	2129.38
722.172	2139.62
722.358	2137.57
722.545	2153.95
722.732	2026.98
722.919	2080.22
723.106	2125.28
723.293	2153.95
723.48	2172.38
723.667	2063.84
723.853	2112.99
724.04	2000.35
724.227	2047.46
724.414	2141.66
724.6	2031.07
724.787	2072.03
724.974	1983.97
725.161	2061.79
725.347	2031.07
725.534	2117.09
725.72	2022.88
725.907	2000.35
726.094	1961.44
726.28	1895.91
726.467	2022.88
726.653	1957.35
726.84	1983.97
727.027	1990.11
727.213	2055.65
727.4	1977.83
727.586	1940.96
727.773	1983.97
727.959	2039.26
728.145	2026.98
728.332	1904.1
728.518	1916.39
728.705	2022.88
728.891	1842.66
729.077	1975.78
729.264	1916.39
729.45	1977.83
729.636	1891.81
729.823	1932.77
730.009	1877.48
730.195	1977.83
730.382	1908.19
730.568	1961.44
730.754	1900
730.94	1838.56
731.126	1875.43
731.313	1859.04
731.499	1842.66
731.685	1818.08
731.871	1895.91
732.057	1916.39
732.243	1809.89
732.429	1932.77
732.615	1756.65
732.801	1809.89
732.987	1824.23
733.173	1924.58
733.359	1840.61
733.545	1863.14
733.731	1775.08
733.917	1809.89
734.103	1744.36
734.289	1834.47
734.475	1719.78
734.661	1748.45
734.847	1682.92
735.033	1852.9
735.219	1797.6
735.404	1811.94
735.59	1773.03
735.776	1744.36
735.962	1799.65
736.148	1793.51
736.333	1813.99
736.519	1746.41
736.705	1830.37
736.89	1781.22
737.076	1766.89
737.262	1639.91
737.447	1707.49
737.633	1654.25
737.819	1689.06
738.004	1697.25
738.19	1695.21
738.375	1637.86
738.561	1699.3
738.747	1670.63
738.932	1680.87
739.118	1744.36
739.303	1670.63
739.489	1656.29
739.674	1613.29
739.859	1654.25
740.045	1576.42
740.23	1682.92
740.416	1584.62
740.601	1666.53
740.786	1615.34
740.972	1555.94
741.157	1564.14
741.342	1590.76
741.528	1621.48
741.713	1590.76
741.898	1603.05
742.084	1560.04
742.269	1502.7
742.454	1553.9
742.639	1551.85
742.824	1527.27
743.01	1584.62
743.195	1598.95
743.38	1457.64
743.565	1474.03
743.75	1471.98
743.935	1426.92
744.12	1441.26
744.305	1506.79
744.49	1476.07
744.675	1457.64
744.86	1428.97
745.045	1459.69
745.23	1469.93
745.415	1455.59
745.6	1443.31
745.785	1498.6
745.97	1422.83
746.155	1318.38
746.34	1353.2
746.525	1287.66
746.71	1396.2
746.895	1345
747.079	1338.86
747.264	1334.76
747.449	1336.81
747.634	1330.67
747.819	1328.62
748.003	1351.15
748.188	1310.19
748.373	1211.89
748.557	1275.37
748.742	1164.78
748.927	1302
749.111	1261.04
749.296	1246.7
749.481	1314.28
749.665	1271.28
749.85	1252.84
750.034	1195.5
750.219	1236.46
750.404	1123.82
750.588	1158.64
750.773	1148.4
750.957	1203.69
751.141	1277.42
751.326	1162.73
751.51	1228.27
751.695	1189.36
751.879	1162.73
752.064	1172.97
752.248	1060.34
752.432	1205.74
752.617	1175.02
752.801	1099.25
752.985	1048.05
753.17	1261.04
753.354	1109.49
753.538	1115.63
753.722	996.85
753.907	1095.15
754.091	1050.1
754.275	1019.38
754.459	1007.09
754.643	1074.67
754.828	1146.35
755.012	1132.01
755.196	1029.62
755.38	1082.86
755.564	1121.77
755.748	933.36
755.932	976.37
756.116	1084.91
756.3	1058.29
756.484	949.75
756.668	863.73
756.852	1043.95
757.036	970.23
757.22	992.75
757.404	927.22
757.588	1011.18
757.772	929.27
757.956	949.75
758.14	949.75
758.323	878.07
758.507	972.27
758.691	869.87
758.875	994.8
759.059	892.4
759.242	929.27
759.426	884.21
759.61	859.63
759.794	892.4
759.977	876.02
760.161	937.46
760.345	990.7
760.528	966.13
760.712	951.79
760.895	835.06
761.079	886.26
761.263	812.53
761.446	839.16
761.63	863.73
761.813	853.49
761.997	759.28
762.18	851.44
762.364	867.83
762.547	767.48
762.731	818.68
762.914	779.76
763.098	763.38
763.281	757.24
763.464	765.43
763.648	706.04
763.831	785.91
764.015	728.56
764.198	728.56
764.381	722.42
764.564	689.65
764.748	738.8
764.931	747
765.114	703.99
765.297	794.1
765.481	687.61
765.664	775.67
765.847	738.8
766.03	755.19
766.213	747
766.397	712.18
766.58	712.18
766.763	781.81
766.946	732.66
767.129	673.27
767.312	802.29
767.495	687.61
767.678	775.67
767.861	730.61
768.044	706.04
768.227	730.61
768.41	656.89
768.593	757.24
768.776	738.8
768.959	718.33
769.142	747
769.324	714.23
769.507	695.8
769.69	663.03
769.873	747
770.056	757.24
770.239	634.36
770.421	712.18
770.604	736.76
770.787	656.89
770.97	714.23
771.152	607.73
771.335	695.8
771.518	667.13
771.7	597.49
771.883	708.09
772.066	607.73
772.248	650.74
772.431	615.93
772.613	648.69
772.796	699.89
772.978	638.45
773.161	626.17
773.343	622.07
773.526	581.11
773.708	624.12
773.891	654.84
774.073	577.02
774.256	648.69
774.438	638.45
774.621	593.4
774.803	609.78
774.985	574.97
775.168	605.69
775.35	531.96
775.532	617.97
775.715	667.13
775.897	583.16
776.079	515.58
776.261	556.54
776.444	597.49
776.626	583.16
776.808	507.38
776.99	581.11
777.173	558.58
777.355	613.88
777.537	587.26
777.719	544.25
777.901	523.77
778.083	577.02
778.265	478.71
778.447	548.34
778.629	466.42
778.811	493.05
778.993	534.01
779.175	458.23
779.357	536.06
779.539	531.96
779.721	468.47
779.903	536.06
780.085	429.56
780.267	515.58
780.449	507.38
780.631	474.62
780.812	462.33
780.994	388.6
781.176	466.42
781.358	476.66
781.54	450.04
781.721	400.89
781.903	536.06
782.085	435.71
782.267	468.47
782.448	384.51
782.63	402.94
782.812	460.28
782.993	417.27
783.175	411.13
783.357	407.03
783.538	429.56
783.72	421.37
783.901	345.59
784.083	439.8
784.264	400.89
784.446	345.59
784.627	439.8
784.809	427.51
784.99	376.31
785.172	394.75
785.353	425.47
785.535	380.41
785.716	359.93
785.897	370.17
786.079	359.93
786.26	312.83
786.441	372.22
786.623	267.77
786.804	404.99
786.985	359.93
787.167	329.21
787.348	325.12
787.529	351.74
787.71	368.12
787.891	435.71
788.073	298.49
788.254	284.16
788.435	450.04
788.616	267.77
788.797	323.07
788.978	265.72
789.159	241.15
789.34	306.68
789.522	331.26
789.703	302.59
789.884	329.21
790.065	286.2
790.246	302.59
790.427	255.48
790.607	288.25
790.788	216.57
790.969	327.16
791.15	310.78
791.331	249.34
791.512	306.68
791.693	273.92
791.874	341.5
792.054	312.83
792.235	255.48
792.416	257.53
792.597	257.53
792.778	314.88
792.958	241.15
793.139	253.44
793.32	302.59
793.5	237.05
793.681	327.16
793.862	255.48
794.042	208.38
794.223	230.91
794.404	230.91
794.584	290.3
794.765	273.92
794.945	179.71
795.126	273.92
795.306	284.16
795.487	245.24
795.667	216.57
795.848	255.48
796.028	245.24
796.209	163.33
796.389	247.29
796.57	261.63
796.75	130.56
796.93	286.2
797.111	220.67
797.291	155.13
797.471	253.44
797.652	206.33
797.832	222.72
798.012	228.86
798.192	181.76
798.373	163.33
798.553	171.52
798.733	253.44
798.913	177.66
799.093	144.89
799.274	245.24
799.454	146.94
799.634	198.14
799.814	321.02
799.994	216.57
800.174	224.76
800.354	206.33
800.534	255.48
800.714	142.85
800.894	159.23
801.074	226.81
801.254	189.95
801.434	169.47
801.614	165.37
801.794	189.95
801.974	888.31
802.154	146.94
802.334	210.43
802.514	173.57
802.693	228.86
802.873	237.05
803.053	232.96
803.233	208.38
803.413	181.76
803.592	105.98
803.772	140.8
803.952	151.04
804.131	122.37
804.311	134.65
804.491	218.62
804.67	210.43
804.85	148.99
805.03	105.98
805.209	220.67
805.389	163.33
805.568	165.37
805.748	83.45
805.928	142.85
806.107	97.79
806.287	148.99
806.466	228.86
806.646	132.61
806.825	148.99
807.004	85.5
807.184	159.23
807.363	247.29
807.543	146.94
807.722	89.6
807.901	155.13
808.081	148.99
808.26	83.45
808.439	198.14
808.619	187.9
808.798	155.13
808.977	105.98
809.156	134.65
809.336	140.8
809.515	146.94
809.694	122.37
809.873	75.26
810.052	122.37
810.231	144.89
810.411	130.56
810.59	132.61
810.769	165.37
810.948	67.07
811.127	101.89
811.306	138.75
811.485	101.89
811.664	181.76
811.843	46.59
812.022	181.76
812.201	105.98
812.38	157.18
812.559	120.32
812.737	179.71
812.916	91.65
813.095	97.79
813.274	232.96
813.453	97.79
813.632	83.45
813.811	155.13
813.989	-4.61
814.168	22.02
814.347	67.07
814.526	48.64
814.704	161.28
814.883	163.33
815.062	89.6
815.24	138.75
815.419	24.06
815.598	40.45
815.776	85.5
815.955	65.02
816.133	60.93
816.312	108.03
816.49	60.93
816.669	83.45
816.847	138.75
817.026	114.17
817.204	116.22
817.383	69.12
817.561	91.65
817.74	120.32
817.918	155.13
818.097	122.37
818.275	73.21
818.453	73.21
818.632	50.69
818.81	85.5
818.988	60.93
819.167	65.02
819.345	105.98
819.523	81.41
819.701	73.21
819.879	159.23
820.058	40.45
820.236	128.51
820.414	81.41
820.592	101.89
820.77	73.21
820.948	34.3
821.127	83.45
821.305	24.06
821.483	114.17
821.661	83.45
821.839	110.08
822.017	81.41
822.195	122.37
822.373	114.17
822.551	7.68
822.729	122.37
822.907	65.02
823.085	171.52
823.262	103.93
823.44	81.41
823.618	73.21
823.796	99.84
823.974	71.17
824.152	71.17
824.329	134.65
824.507	77.31
824.685	22.02
824.863	67.07
825.04	126.46
825.218	89.6
825.396	105.98
825.574	13.82
825.751	122.37
825.929	91.65
826.107	-8.7
826.284	69.12
826.462	81.41
826.639	87.55
826.817	69.12
826.994	40.45
827.172	99.84
827.349	148.99
827.527	114.17
827.704	22.02
827.882	85.5
828.059	89.6
828.237	11.78
828.414	114.17
828.591	89.6
828.769	60.93
828.946	62.98
829.124	136.7
829.301	97.79
829.478	40.45
829.655	17.92
829.833	99.84
830.01	-23.04
830.187	44.54
830.364	93.69
830.542	42.5
830.719	40.45
830.896	97.79
831.073	128.51
831.25	81.41
831.427	116.22
831.604	-0.51
831.782	15.87
831.959	46.59
832.136	24.06
832.313	79.36
832.49	73.21
832.667	60.93
832.844	36.35
833.021	83.45
833.198	-8.7
833.374	79.36
833.551	38.4
833.728	114.17
833.905	122.37
834.082	48.64
834.259	44.54
834.436	52.74
834.612	11.78
834.789	81.41
834.966	30.21
835.143	-33.28
835.319	26.11
835.496	65.02
835.673	48.64
835.85	50.69
836.026	42.5
836.203	81.41
836.38	34.3
836.556	97.79
836.733	1.54
836.909	-0.51
837.086	-16.9
837.262	-16.9
837.439	-29.18
837.616	79.36
837.792	36.35
837.968	-8.7
838.145	7.68
838.321	114.17
838.498	26.11
838.674	151.04
838.851	60.93
839.027	60.93
839.203	50.69
839.38	65.02
839.556	65.02
839.732	32.26
839.909	46.59
840.085	97.79
840.261	28.16
840.437	34.3
840.614	19.97
840.79	28.16
840.966	-12.8
841.142	69.12
841.318	32.26
841.494	69.12
841.671	42.5
841.847	50.69
842.023	-0.51
842.199	89.6
842.375	30.21
842.551	-18.94
842.727	-49.66
842.903	93.69
843.079	-39.42
843.255	79.36
843.431	-39.42
843.607	116.22
843.783	52.74
843.959	65.02
844.134	-10.75
844.31	71.17
844.486	11.78
844.662	-16.9
844.838	-0.51
845.013	83.45
845.189	34.3
845.365	65.02
845.541	9.73
845.716	-33.28
845.892	34.3
846.068	-16.9
846.244	85.5
846.419	28.16
846.595	89.6
846.77	30.21
846.946	97.79
847.122	62.98
847.297	9.73
847.473	56.83
847.648	-0.51
847.824	58.88
847.999	-25.09
848.175	42.5
848.35	-0.51
848.526	62.98
848.701	13.82
848.876	22.02
849.052	24.06
849.227	-14.85
849.403	32.26
849.578	-33.28
849.753	-90.62
849.929	9.73
850.104	38.4
850.279	67.07
850.454	44.54
850.63	32.26
850.805	28.16
850.98	79.36
851.155	-18.94
851.33	73.21
851.505	-39.42
851.681	81.41
851.856	-16.9
852.031	83.45
852.206	32.26
852.381	81.41
852.556	44.54
852.731	56.83
852.906	15.87
853.081	1.54
853.256	138.75
853.431	69.12
853.606	81.41
853.781	9.73
853.956	-8.7
854.131	7.68
854.305	-2.56
854.48	11.78
854.655	44.54
854.83	32.26
855.005	-12.8
855.18	-0.51
855.354	34.3
855.529	-31.23
855.704	15.87
855.879	22.02
856.053	15.87
856.228	58.88
856.403	-20.99
856.577	19.97
856.752	-6.66
856.926	73.21
857.101	58.88
857.276	40.45
857.45	-14.85
857.625	97.79
857.799	-20.99
857.974	65.02
858.148	26.11
858.323	48.64
858.497	26.11
858.672	122.37
858.846	48.64
859.02	65.02
859.195	-57.86
859.369	34.3
859.543	48.64
859.718	-2.56
859.892	-31.23
860.066	24.06
860.241	40.45
860.415	-45.57
860.589	3.58
860.763	42.5
860.938	13.82
861.112	-41.47
861.286	32.26
861.46	46.59
861.634	69.12
861.808	-33.28
861.982	-33.28
862.157	-23.04
862.331	-0.51
862.505	22.02
862.679	-90.62
862.853	-8.7
863.027	-14.85
863.201	50.69
863.375	3.58
863.549	56.83
863.722	26.11
863.896	11.78
864.07	-0.51
864.244	11.78
864.418	28.16
864.592	19.97
864.766	-55.81
864.939	-25.09
865.113	-31.23
865.287	9.73
865.461	46.59
865.634	-8.7
865.808	-14.85
865.982	-27.14
866.156	17.92
866.329	42.5
866.503	-47.62
866.676	36.35
866.85	24.06
867.024	24.06
867.197	-49.66
867.371	17.92
867.544	-10.75
867.718	-29.18
867.891	73.21
868.065	-41.47
868.238	-25.09
868.412	1.54
868.585	17.92
868.759	65.02
868.932	-12.8
869.105	-31.23
869.279	7.68
869.452	15.87
869.625	28.16
869.799	-49.66
869.972	32.26
870.145	-4.61
870.319	95.74
870.492	-57.86
870.665	-66.05
870.838	-8.7
871.011	-115.2
871.185	15.87
871.358	-23.04
871.531	-90.62
871.704	73.21
871.877	34.3
872.05	-41.47
872.223	32.26
872.396	24.06
872.569	-33.28
872.742	-4.61
872.915	-4.61
873.088	-33.28
873.261	-6.66
873.434	28.16
873.607	65.02
873.78	-29.18
873.953	9.73
874.126	91.65
874.299	11.78
874.471	-8.7
874.644	-14.85
874.817	32.26
874.99	-8.7
875.163	9.73
875.335	52.74
875.508	19.97
875.681	-0.51
875.853	65.02
876.026	26.11
876.199	-47.62
876.371	69.12
876.544	-6.66
876.717	3.58
876.889	-35.33
877.062	99.84
877.234	15.87
877.407	-10.75
877.579	15.87
877.752	-41.47
877.924	24.06
878.097	-59.9
878.269	-53.76
878.442	56.83
878.614	3.58
878.786	13.82
878.959	17.92
879.131	38.4
879.303	-57.86
879.476	-37.38
879.648	69.12
879.82	26.11
879.993	-25.09
880.165	1.54
880.337	-43.52
880.509	17.92
880.681	-66.05
880.854	32.26
881.026	17.92
881.198	-6.66
881.37	36.35
881.542	-14.85
881.714	22.02
881.886	-47.62
882.058	-35.33
882.23	48.64
882.402	-29.18
882.574	91.65
882.746	-35.33
882.918	42.5
883.09	-25.09
883.262	-14.85
883.434	-57.86
883.606	-53.76
883.778	-14.85
883.95	50.69
884.122	-107.01
884.293	65.02
884.465	73.21
884.637	32.26
884.809	1.54
884.98	5.63
885.152	-37.38
885.324	24.06
885.496	-109.05
885.667	-41.47
885.839	-4.61
886.011	24.06
886.182	-29.18
886.354	22.02
886.525	15.87
886.697	-33.28
886.869	-25.09
887.04	40.45
887.212	15.87
887.383	93.69
887.555	26.11
887.726	36.35
887.897	-64
888.069	17.92
888.24	-25.09
888.412	42.5
888.583	19.97
888.754	73.21
888.926	-57.86
889.097	-39.42
889.268	-55.81
889.44	28.16
889.611	-66.05
889.782	-6.66
889.953	11.78
890.125	73.21
890.296	1.54
890.467	3.58
890.638	28.16
890.809	-20.99
890.98	-33.28
891.151	52.74
891.323	73.21
891.494	-20.99
891.665	-33.28
891.836	-47.62
892.007	7.68
892.178	-25.09
892.349	26.11
892.52	-43.52
892.691	-64
892.862	-8.7
893.032	-66.05
893.203	1.54
893.374	3.58
893.545	-31.23
893.716	-12.8
893.887	36.35
894.057	28.16
894.228	17.92
894.399	-43.52
894.57	65.02
894.74	93.69
894.911	-47.62
895.082	-64
895.253	15.87
895.423	-37.38
895.594	81.41
895.764	24.06
895.935	-53.76
896.106	40.45
896.276	-78.33
896.447	-72.19
896.617	-14.85
896.788	40.45
896.958	-39.42
897.129	-84.48
897.299	-29.18
897.47	-20.99
897.64	48.64
897.81	22.02
897.981	-41.47
898.151	-49.66
898.322	56.83
898.492	32.26
898.662	-25.09
898.832	-53.76
899.003	-57.86
899.173	-18.94
899.343	17.92
899.513	-29.18
