Data from USB4F104151__215__14-45-28-388.txt Node

Date: Thu Mar 13 14:45:28 EDT 2025
User: louis
Spectrometer: USB4F10415
Trigger mode: 4
Integration Time (sec): 2.000000E-2
Scans to average: 1
Electric dark correction enabled: true
Nonlinearity correction enabled: false
Boxcar width: 0
XAxis mode: Wavelengths
Number of Pixels in Spectrum: 3648
>>>>>Begin Spectral Data<<<<<
178.204	-102.4
178.424	-102.4
178.644	-102.4
178.864	-120.83
179.084	-108.54
179.304	20.48
179.524	-45.06
179.744	16.38
179.964	63.49
180.184	-36.86
180.404	-55.3
180.624	-8.19
180.844	4.1
181.064	0
181.283	18.43
181.503	-4.1
181.723	26.62
181.943	-22.53
182.163	34.82
182.383	55.3
182.602	55.3
182.822	14.34
183.042	69.63
183.262	38.91
183.482	-4.1
183.701	20.48
183.921	61.44
184.141	-51.2
184.361	75.77
184.58	26.62
184.8	-8.19
185.02	2.05
185.239	96.25
185.459	26.62
185.679	67.58
185.898	-38.91
186.118	81.92
186.338	22.53
186.557	40.96
186.777	79.87
186.997	22.53
187.216	-22.53
187.436	40.96
187.655	26.62
187.875	159.74
188.095	-14.34
188.314	12.29
188.534	75.77
188.753	2.05
188.973	14.34
189.192	110.59
189.412	6.14
189.631	0
189.851	112.64
190.07	126.97
190.29	-26.62
190.509	16.38
190.729	-30.72
190.948	43.01
191.168	184.32
191.387	-6.14
191.607	2.05
191.826	67.58
192.045	-18.43
192.265	-30.72
192.484	96.25
192.704	61.44
192.923	-53.25
193.142	75.77
193.362	22.53
193.581	69.63
193.8	43.01
194.02	10.24
194.239	26.62
194.458	55.3
194.678	-67.58
194.897	75.77
195.116	59.39
195.335	2.05
195.555	26.62
195.774	100.35
195.993	-4.1
196.212	94.21
196.432	106.49
196.651	71.68
196.87	18.43
197.089	137.21
197.308	67.58
197.528	34.82
197.747	30.72
197.966	65.54
198.185	79.87
198.404	63.49
198.623	75.77
198.842	75.77
199.062	-49.15
199.281	67.58
199.5	116.73
199.719	28.67
199.938	38.91
200.157	51.2
200.376	75.77
200.595	157.69
200.814	32.77
201.033	69.63
201.252	75.77
201.471	63.49
201.69	59.39
201.909	59.39
202.128	4.1
202.347	30.72
202.566	18.43
202.785	75.77
203.004	-16.38
203.223	26.62
203.442	69.63
203.661	-47.1
203.879	75.77
204.098	92.16
204.317	43.01
204.536	47.1
204.755	51.2
204.974	6.14
205.193	4.1
205.411	100.35
205.63	71.68
205.849	22.53
206.068	36.86
206.287	86.01
206.505	47.1
206.724	12.29
206.943	47.1
207.162	59.39
207.381	47.1
207.599	-6.14
207.818	63.49
208.037	-22.53
208.255	18.43
208.474	-4.1
208.693	67.58
208.911	92.16
209.13	-8.19
209.349	92.16
209.567	86.01
209.786	102.4
210.005	53.25
210.223	59.39
210.442	-10.24
210.661	75.77
210.879	38.91
211.098	-4.1
211.316	-22.53
211.535	4.1
211.753	26.62
211.972	83.97
212.191	-12.29
212.409	51.2
212.628	81.92
212.846	26.62
213.065	55.3
213.283	45.06
213.502	26.62
213.72	83.97
213.938	104.45
214.157	0
214.375	38.91
214.594	32.77
214.812	4.1
215.031	28.67
215.249	75.77
215.467	47.1
215.686	20.48
215.904	100.35
216.122	55.3
216.341	59.39
216.559	14.34
216.778	108.54
216.996	67.58
217.214	-61.44
217.432	-18.43
217.651	34.82
217.869	-12.29
218.087	67.58
218.306	20.48
218.524	34.82
218.742	26.62
218.96	10.24
219.179	77.82
219.397	-14.34
219.615	104.45
219.833	67.58
220.051	43.01
220.27	86.01
220.488	59.39
220.706	4.1
220.924	16.38
221.142	67.58
221.36	73.73
221.578	51.2
221.796	26.62
222.015	20.48
222.233	96.25
222.451	94.21
222.669	-26.62
222.887	69.63
223.105	18.43
223.323	-24.58
223.541	14.34
223.759	-4.1
223.977	36.86
224.195	45.06
224.413	71.68
224.631	38.91
224.849	116.73
225.067	49.15
225.285	-10.24
225.503	30.72
225.721	-47.1
225.939	16.38
226.157	75.77
226.375	104.45
226.592	-26.62
226.81	71.68
227.028	75.77
227.246	43.01
227.464	36.86
227.682	53.25
227.9	28.67
228.117	10.24
228.335	59.39
228.553	63.49
228.771	26.62
228.989	-6.14
229.206	104.45
229.424	-6.14
229.642	14.34
229.86	26.62
230.077	10.24
230.295	34.82
230.513	69.63
230.731	30.72
230.948	53.25
231.166	59.39
231.384	-4.1
231.601	71.68
231.819	69.63
232.037	43.01
232.254	67.58
232.472	77.82
232.689	20.48
232.907	92.16
233.125	77.82
233.342	63.49
233.56	20.48
233.777	20.48
233.995	53.25
234.213	81.92
234.43	-8.19
234.648	108.54
234.865	2.05
235.083	30.72
235.3	-36.86
235.518	63.49
235.735	139.26
235.953	51.2
236.17	79.87
236.388	-22.53
236.605	77.82
236.822	102.4
237.04	32.77
237.257	4.1
237.475	75.77
237.692	86.01
237.909	71.68
238.127	-22.53
238.344	14.34
238.562	100.35
238.779	-4.1
238.996	36.86
239.214	24.58
239.431	36.86
239.648	-59.39
239.865	36.86
240.083	51.2
240.3	18.43
240.517	-22.53
240.735	45.06
240.952	30.72
241.169	108.54
241.386	51.2
241.603	96.25
241.821	-18.43
242.038	20.48
242.255	67.58
242.472	-10.24
242.689	-14.34
242.907	71.68
243.124	-2.05
243.341	47.1
243.558	10.24
243.775	28.67
243.992	40.96
244.209	120.83
244.426	88.06
244.643	53.25
244.86	4.1
245.078	79.87
245.295	38.91
245.512	59.39
245.729	-14.34
245.946	47.1
246.163	51.2
246.38	30.72
246.597	53.25
246.814	57.34
247.031	69.63
247.248	-30.72
247.464	20.48
247.681	83.97
247.898	63.49
248.115	102.4
248.332	10.24
248.549	36.86
248.766	59.39
248.983	45.06
249.2	43.01
249.417	75.77
249.633	67.58
249.85	32.77
250.067	120.83
250.284	26.62
250.501	65.54
250.717	65.54
250.934	-6.14
251.151	-26.62
251.368	45.06
251.585	43.01
251.801	-43.01
252.018	-30.72
252.235	79.87
252.451	-38.91
252.668	2.05
252.885	79.87
253.102	-10.24
253.318	92.16
253.535	14.34
253.752	0
253.968	4.1
254.185	63.49
254.401	45.06
254.618	22.53
254.835	16.38
255.051	108.54
255.268	36.86
255.484	-12.29
255.701	-28.67
255.917	69.63
256.134	51.2
256.351	59.39
256.567	-12.29
256.784	77.82
257	26.62
257.217	47.1
257.433	73.73
257.65	22.53
257.866	118.78
258.082	-6.14
258.299	4.1
258.515	36.86
258.732	-47.1
258.948	59.39
259.165	53.25
259.381	57.34
259.597	53.25
259.814	-47.1
260.03	43.01
260.246	34.82
260.463	110.59
260.679	63.49
260.895	77.82
261.112	61.44
261.328	0
261.544	-2.05
261.761	69.63
261.977	67.58
262.193	4.1
262.409	26.62
262.626	67.58
262.842	77.82
263.058	-2.05
263.274	32.77
263.49	4.1
263.707	67.58
263.923	18.43
264.139	10.24
264.355	61.44
264.571	38.91
264.787	63.49
265.004	104.45
265.22	-47.1
265.436	-10.24
265.652	26.62
265.868	6.14
266.084	45.06
266.3	24.58
266.516	34.82
266.732	45.06
266.948	32.77
267.164	28.67
267.38	18.43
267.596	83.97
267.812	120.83
268.028	75.77
268.244	77.82
268.46	100.35
268.676	83.97
268.892	114.69
269.108	47.1
269.324	-6.14
269.54	-12.29
269.756	83.97
269.972	20.48
270.188	40.96
270.403	-10.24
270.619	4.1
270.835	61.44
271.051	-38.91
271.267	36.86
271.483	28.67
271.698	51.2
271.914	135.17
272.13	16.38
272.346	-47.1
272.562	14.34
272.777	104.45
272.993	4.1
273.209	51.2
273.425	26.62
273.64	4.1
273.856	28.67
274.072	26.62
274.287	22.53
274.503	43.01
274.719	-10.24
274.934	55.3
275.15	77.82
275.366	36.86
275.581	-30.72
275.797	-6.14
276.012	-59.39
276.228	34.82
276.444	0
276.659	-12.29
276.875	6.14
277.09	59.39
277.306	53.25
277.521	55.3
277.737	18.43
277.952	30.72
278.168	86.01
278.383	53.25
278.599	16.38
278.814	30.72
279.03	47.1
279.245	157.69
279.461	71.68
279.676	63.49
279.892	-4.1
280.107	-14.34
280.322	-18.43
280.538	-36.86
280.753	34.82
280.969	20.48
281.184	34.82
281.399	47.1
281.615	47.1
281.83	55.3
282.045	43.01
282.26	-18.43
282.476	53.25
282.691	18.43
282.906	14.34
283.122	-20.48
283.337	104.45
283.552	108.54
283.767	51.2
283.983	83.97
284.198	59.39
284.413	51.2
284.628	12.29
284.843	75.77
285.058	71.68
285.274	73.73
285.489	12.29
285.704	18.43
285.919	12.29
286.134	22.53
286.349	10.24
286.564	26.62
286.779	83.97
286.995	14.34
287.21	-63.49
287.425	-20.48
287.64	47.1
287.855	112.64
288.07	18.43
288.285	59.39
288.5	63.49
288.715	161.79
288.93	36.86
289.145	43.01
289.36	53.25
289.575	73.73
289.79	94.21
290.004	61.44
290.219	108.54
290.434	8.19
290.649	-30.72
290.864	47.1
291.079	-24.58
291.294	67.58
291.509	-4.1
291.724	59.39
291.938	34.82
292.153	129.02
292.368	12.29
292.583	38.91
292.798	75.77
293.012	59.39
293.227	49.15
293.442	26.62
293.657	114.69
293.871	112.64
294.086	-30.72
294.301	77.82
294.516	88.06
294.73	65.54
294.945	4.1
295.16	47.1
295.374	47.1
295.589	98.3
295.804	18.43
296.018	36.86
296.233	24.58
296.447	75.77
296.662	79.87
296.877	90.11
297.091	75.77
297.306	4.1
297.52	38.91
297.735	18.43
297.949	10.24
298.164	30.72
298.378	14.34
298.593	79.87
298.807	-55.3
299.022	16.38
299.236	63.49
299.451	-18.43
299.665	2.05
299.88	47.1
300.094	34.82
300.309	88.06
300.523	47.1
300.737	43.01
300.952	47.1
301.166	77.82
301.381	-14.34
301.595	26.62
301.809	12.29
302.024	28.67
302.238	-10.24
302.452	141.31
302.667	18.43
302.881	77.82
303.095	55.3
303.309	75.77
303.524	-8.19
303.738	32.77
303.952	-38.91
304.166	26.62
304.381	73.73
304.595	102.4
304.809	2.05
305.023	116.73
305.237	18.43
305.452	10.24
305.666	43.01
305.88	34.82
306.094	26.62
306.308	67.58
306.522	112.64
306.736	36.86
306.95	57.34
307.164	28.67
307.379	53.25
307.593	100.35
307.807	51.2
308.021	98.3
308.235	-20.48
308.449	10.24
308.663	-14.34
308.877	83.97
309.091	43.01
309.305	40.96
309.519	-63.49
309.733	36.86
309.947	51.2
310.161	38.91
310.374	-2.05
310.588	96.25
310.802	51.2
311.016	63.49
311.23	6.14
311.444	47.1
311.658	92.16
311.872	92.16
312.085	36.86
312.299	38.91
312.513	81.92
312.727	159.74
312.941	4.1
313.154	51.2
313.368	0
313.582	43.01
313.796	26.62
314.009	124.93
314.223	83.97
314.437	-6.14
314.651	-22.53
314.864	75.77
315.078	145.41
315.292	47.1
315.505	-22.53
315.719	51.2
315.933	47.1
316.146	55.3
316.36	12.29
316.573	100.35
316.787	51.2
317.001	12.29
317.214	51.2
317.428	92.16
317.641	12.29
317.855	43.01
318.068	59.39
318.282	12.29
318.495	141.31
318.709	92.16
318.922	32.77
319.136	92.16
319.349	59.39
319.563	104.45
319.776	20.48
319.99	34.82
320.203	86.01
320.417	38.91
320.63	26.62
320.843	67.58
321.057	59.39
321.27	69.63
321.483	36.86
321.697	18.43
321.91	51.2
322.124	20.48
322.337	75.77
322.55	6.14
322.763	94.21
322.977	18.43
323.19	20.48
323.403	55.3
323.617	-22.53
323.83	106.49
324.043	22.53
324.256	12.29
324.469	10.24
324.683	22.53
324.896	110.59
325.109	18.43
325.322	22.53
325.535	36.86
325.748	-16.38
325.962	63.49
326.175	-16.38
326.388	51.2
326.601	88.06
326.814	43.01
327.027	92.16
327.24	124.93
327.453	-10.24
327.666	55.3
327.879	116.73
328.092	92.16
328.305	26.62
328.518	14.34
328.731	114.69
328.944	63.49
329.157	92.16
329.37	34.82
329.583	32.77
329.796	38.91
330.009	120.83
330.222	83.97
330.435	71.68
330.648	102.4
330.861	96.25
331.073	65.54
331.286	59.39
331.499	6.14
331.712	6.14
331.925	2.05
332.138	-34.82
332.35	157.69
332.563	-47.1
332.776	34.82
332.989	28.67
333.202	-38.91
333.414	10.24
333.627	49.15
333.84	-22.53
334.053	51.2
334.265	14.34
334.478	6.14
334.691	47.1
334.903	45.06
335.116	18.43
335.329	65.54
335.541	-4.1
335.754	55.3
335.966	-2.05
336.179	63.49
336.392	112.64
336.604	14.34
336.817	67.58
337.029	104.45
337.242	57.34
337.454	120.83
337.667	4.1
337.88	90.11
338.092	47.1
338.305	10.24
338.517	55.3
338.729	53.25
338.942	116.73
339.154	12.29
339.367	-16.38
339.579	86.01
339.792	81.92
340.004	47.1
340.217	-63.49
340.429	45.06
340.641	14.34
340.854	36.86
341.066	-75.77
341.278	116.73
341.491	83.97
341.703	45.06
341.915	71.68
342.128	36.86
342.34	47.1
342.552	47.1
342.764	2.05
342.977	110.59
343.189	63.49
343.401	102.4
343.613	-38.91
343.826	14.34
344.038	4.1
344.25	18.43
344.462	59.39
344.674	88.06
344.886	18.43
345.099	34.82
345.311	-6.14
345.523	-4.1
345.735	-18.43
345.947	100.35
346.159	12.29
346.371	110.59
346.583	-26.62
346.795	102.4
347.007	10.24
347.219	59.39
347.431	-4.1
347.643	43.01
347.855	30.72
348.067	57.34
348.279	26.62
348.491	26.62
348.703	49.15
348.915	26.62
349.127	36.86
349.339	59.39
349.551	34.82
349.763	0
349.975	100.35
350.187	53.25
350.399	-12.29
350.61	14.34
350.822	22.53
351.034	47.1
351.246	143.36
351.458	83.97
351.669	47.1
351.881	94.21
352.093	-10.24
352.305	69.63
352.517	14.34
352.728	14.34
352.94	65.54
353.152	122.88
353.363	81.92
353.575	45.06
353.787	126.97
353.999	34.82
354.21	67.58
354.422	47.1
354.633	-22.53
354.845	51.2
355.057	18.43
355.268	86.01
355.48	92.16
355.692	55.3
355.903	-38.91
356.115	51.2
356.326	-10.24
356.538	-12.29
356.749	69.63
356.961	34.82
357.172	-14.34
357.384	-77.82
357.595	100.35
357.807	43.01
358.018	30.72
358.23	38.91
358.441	94.21
358.653	124.93
358.864	126.97
359.075	45.06
359.287	18.43
359.498	49.15
359.709	75.77
359.921	32.77
360.132	4.1
360.344	47.1
360.555	38.91
360.766	20.48
360.977	-30.72
361.189	34.82
361.4	51.2
361.611	86.01
361.823	26.62
362.034	34.82
362.245	61.44
362.456	36.86
362.667	61.44
362.879	-36.86
363.09	69.63
363.301	53.25
363.512	114.69
363.723	43.01
363.935	22.53
364.146	133.12
364.357	-73.73
364.568	141.31
364.779	34.82
364.99	59.39
365.201	-16.38
365.412	147.45
365.623	53.25
365.834	67.58
366.045	0
366.256	83.97
366.467	139.26
366.678	-6.14
366.889	92.16
367.1	88.06
367.311	28.67
367.522	-10.24
367.733	18.43
367.944	67.58
368.155	-16.38
368.366	49.15
368.577	96.25
368.788	110.59
368.999	20.48
369.209	-4.1
369.42	49.15
369.631	104.45
369.842	75.77
370.053	69.63
370.264	34.82
370.474	-28.67
370.685	83.97
370.896	26.62
371.107	100.35
371.317	26.62
371.528	69.63
371.739	47.1
371.95	36.86
372.16	51.2
372.371	53.25
372.582	86.01
372.792	43.01
373.003	118.78
373.214	6.14
373.424	75.77
373.635	34.82
373.846	88.06
374.056	-36.86
374.267	75.77
374.477	100.35
374.688	10.24
374.898	18.43
375.109	96.25
375.319	6.14
375.53	28.67
375.74	63.49
375.951	75.77
376.161	34.82
376.372	77.82
376.582	69.63
376.793	61.44
377.003	-2.05
377.214	34.82
377.424	75.77
377.635	-6.14
377.845	-2.05
378.055	118.78
378.266	-65.53
378.476	26.62
378.686	16.38
378.897	51.2
379.107	73.73
379.317	53.25
379.528	69.63
379.738	40.96
379.948	26.62
380.158	67.58
380.369	22.53
380.579	118.78
380.789	36.86
380.999	49.15
381.21	92.16
381.42	126.97
381.63	43.01
381.84	63.49
382.05	79.87
382.261	59.39
382.471	75.77
382.681	73.73
382.891	69.63
383.101	34.82
383.311	-2.05
383.521	43.01
383.731	49.15
383.941	65.54
384.151	34.82
384.361	63.49
384.571	96.25
384.781	108.54
384.991	81.92
385.201	133.12
385.411	34.82
385.621	79.87
385.831	-55.3
386.041	51.2
386.251	38.91
386.461	43.01
386.671	86.01
386.881	55.3
387.091	43.01
387.301	36.86
387.511	67.58
387.72	47.1
387.93	75.77
388.14	16.38
388.35	24.58
388.56	137.21
388.769	77.82
388.979	108.54
389.189	106.49
389.399	94.21
389.609	65.54
389.818	47.1
390.028	92.16
390.238	75.77
390.447	12.29
390.657	94.21
390.867	2.05
391.076	6.14
391.286	8.19
391.496	53.25
391.705	36.86
391.915	118.78
392.125	124.93
392.334	10.24
392.544	69.63
392.753	34.82
392.963	2.05
393.172	108.54
393.382	71.68
393.591	141.31
393.801	30.72
394.01	100.35
394.22	77.82
394.429	38.91
394.639	57.34
394.848	108.54
395.058	139.26
395.267	59.39
395.477	104.45
395.686	90.11
395.895	126.97
396.105	143.36
396.314	63.49
396.524	75.77
396.733	65.54
396.942	102.4
397.152	106.49
397.361	131.07
397.57	47.1
397.78	18.43
397.989	86.01
398.198	124.93
398.407	34.82
398.617	104.45
398.826	45.06
399.035	38.91
399.244	124.93
399.453	2.05
399.663	59.39
399.872	2.05
400.081	57.34
400.29	133.12
400.499	88.06
400.708	122.88
400.917	34.82
401.127	165.89
401.336	75.77
401.545	75.77
401.754	43.01
401.963	153.6
402.172	83.97
402.381	-26.62
402.59	67.58
402.799	112.64
403.008	124.93
403.217	116.73
403.426	20.48
403.635	59.39
403.844	73.73
404.053	141.31
404.262	79.87
404.471	149.5
404.68	75.77
404.888	10.24
405.097	100.35
405.306	92.16
405.515	124.93
405.724	110.59
405.933	143.36
406.142	190.46
406.35	131.07
406.559	112.64
406.768	83.97
406.977	98.3
407.185	122.88
407.394	174.08
407.603	137.21
407.812	77.82
408.02	151.55
408.229	202.75
408.438	190.46
408.646	174.08
408.855	196.61
409.064	153.6
409.272	124.93
409.481	131.07
409.69	172.03
409.898	135.17
410.107	227.32
410.315	178.17
410.524	206.84
410.733	290.81
410.941	217.08
411.15	294.91
411.358	235.52
411.567	262.14
411.775	268.28
411.984	260.09
412.192	231.42
412.401	280.57
412.609	272.38
412.818	305.15
413.026	321.53
413.234	325.63
413.443	370.68
413.651	307.2
413.86	350.2
414.068	333.82
414.276	380.92
414.485	389.11
414.693	370.68
414.901	479.22
415.11	428.03
415.318	421.88
415.526	444.41
415.734	436.22
415.943	468.98
416.151	493.56
416.359	571.38
416.567	540.66
416.776	473.08
416.984	526.33
417.192	632.82
417.4	509.94
417.608	518.14
417.817	684.02
418.025	608.25
418.233	690.17
418.441	638.97
418.649	745.46
418.857	757.75
419.065	751.6
419.273	782.32
419.481	782.32
419.689	888.82
419.897	892.91
420.105	878.58
420.313	937.97
420.521	1110
420.729	1071.09
420.937	970.74
421.145	1005.55
421.353	1165.29
421.561	1239.02
421.769	1132.53
421.977	1320.94
422.185	1325.04
422.393	1290.22
422.601	1519.59
422.809	1398.76
423.017	1333.23
423.224	1482.73
423.432	1568.74
423.64	1499.11
423.848	1675.24
424.056	1710.05
424.263	1777.64
424.471	1734.63
424.679	1781.73
424.887	1849.32
425.094	1943.52
425.302	1988.58
425.51	2088.93
425.718	2111.46
425.925	2074.59
426.133	2320.35
426.341	2418.65
426.548	2527.19
426.756	2533.34
426.964	2385.88
427.171	2576.34
427.379	2648.02
427.586	2574.3
427.794	2934.74
428.001	3035.09
428.209	3106.77
428.417	3067.86
428.624	3311.57
428.832	3035.09
429.039	3125.2
429.247	3213.26
429.454	3538.89
429.662	3712.97
429.869	3561.42
430.076	3803.08
430.284	3547.08
430.491	3827.65
430.699	4018.11
430.906	4048.83
431.114	4009.92
431.321	4245.44
431.528	4196.29
431.736	4556.73
431.943	4855.73
432.15	4657.08
432.358	4790.2
432.565	4982.71
432.772	4931.51
432.979	5199.79
433.187	5318.57
433.394	5296.05
433.601	5838.76
433.808	5754.79
434.016	5797.8
434.223	5783.46
434.43	6307.74
434.637	6051.75
434.844	6662.04
435.052	6623.13
435.259	6498.2
435.466	6600.6
435.673	6623.13
435.88	6811.54
436.087	7501.71
436.294	7387.02
436.501	7221.14
436.708	7505.81
436.915	7743.37
437.122	7956.36
437.329	8122.24
437.537	8124.29
437.743	8349.57
437.95	8220.55
438.157	8626.04
438.364	9023.35
438.571	8908.66
438.778	9123.7
438.985	9848.68
439.192	9615.21
439.399	9838.44
439.606	9545.58
439.813	10026.85
440.02	10766.17
440.227	10637.15
440.433	10372.96
440.64	10827.61
440.847	10743.64
441.054	11063.13
441.261	11650.89
441.467	11611.98
441.674	11734.86
441.881	12068.68
442.088	12093.26
442.294	12199.75
442.501	12400.45
442.708	12801.85
442.914	12967.74
443.121	13590.32
443.328	13549.36
443.534	14149.42
443.741	13786.93
443.948	13578.03
444.154	14645.02
444.361	14432.04
444.568	14606.11
444.774	14685.98
444.981	14987.04
445.187	15456.02
445.394	15906.57
445.6	15906.57
445.807	17518.32
446.013	16367.37
446.22	16604.93
446.426	17362.68
446.633	17598.2
446.839	18310.89
447.046	17561.33
447.252	18464.49
447.459	18554.6
447.665	18310.89
447.871	19281.63
448.078	19932.88
448.284	19021.53
448.491	19734.23
448.697	20516.55
448.903	20803.27
449.11	20682.44
449.316	20598.47
449.522	21006.02
449.728	21378.75
449.935	21982.9
450.141	21724.85
450.347	22066.86
450.553	21296.83
450.76	22021.81
450.966	22427.31
451.172	22156.97
451.378	22888.1
451.584	22298.28
451.791	22990.5
451.997	23174.81
452.203	23680.66
452.409	23271.07
452.615	23064.22
452.821	22101.68
453.027	21884.59
453.233	23086.75
453.44	22378.15
453.646	22617.77
453.852	22869.67
454.058	23217.82
454.264	22660.77
454.47	23017.12
454.676	22449.83
454.882	23334.56
455.088	21264.06
455.294	21702.32
455.5	22159.02
455.705	22070.96
455.911	21188.28
456.117	20639.43
456.323	20592.33
456.529	19609.3
456.735	20448.97
456.941	19715.8
457.147	19359.45
457.352	18896.61
457.558	18663.14
457.764	18679.52
457.97	18269.93
458.176	17891.06
458.381	18204.39
458.587	17239.8
458.793	17399.54
458.999	16158.47
459.204	17508.08
459.41	17293.05
459.616	15857.42
459.821	15957.77
460.027	15812.37
460.233	15750.93
460.438	14821.15
460.644	15243.03
460.85	14241.57
461.055	14163.75
461.261	14159.66
461.466	12912.44
461.672	12668.73
461.878	13522.74
462.083	12777.28
462.289	12277.57
462.494	12453.7
462.7	11888.46
462.905	11454.29
463.111	11810.64
463.316	11874.12
463.522	11816.78
463.727	11816.78
463.932	11614.03
464.138	11800.4
464.343	11630.41
464.549	11364.18
464.754	11544.4
464.959	11525.97
465.165	11554.64
465.37	10983.26
465.575	10860.38
465.781	11206.48
465.986	11102.04
466.191	10884.95
466.397	10596.19
466.602	10125.16
466.807	10532.7
467.012	10481.5
467.218	10598.24
467.423	10504.03
467.628	10358.63
467.833	10766.17
468.038	10631.01
468.244	10194.79
468.449	10542.94
468.654	10301.28
468.859	10205.03
469.064	10073.96
469.269	9801.58
469.474	9828.2
469.679	9979.75
469.885	9668.46
470.09	9897.83
470.295	9734
470.5	9459.57
470.705	9611.12
470.91	9437.04
471.115	9154.42
471.32	9664.36
471.525	9408.37
471.73	9391.98
471.935	9078.65
472.139	8746.87
472.344	9035.64
472.549	8697.72
472.754	8851.32
472.959	8632.19
473.164	8490.88
473.369	8359.81
473.574	8671.1
473.778	8466.3
473.983	8497.02
474.188	8609.66
474.393	8236.93
474.598	8220.55
474.802	7950.21
475.007	8101.76
475.212	7991.17
475.417	7808.9
475.621	7907.21
475.826	7944.07
476.031	7415.69
476.235	7325.58
476.44	7802.76
476.645	7311.25
476.849	7505.81
477.054	7249.81
477.259	7141.27
477.463	7298.96
477.668	7077.78
477.872	7090.07
478.077	7014.29
478.282	6711.19
478.486	6827.93
478.691	6760.34
478.895	6754.2
479.1	6836.12
479.304	6752.15
479.509	6426.53
479.713	6641.56
479.918	6637.47
480.122	6250.4
480.326	6498.2
480.531	6520.73
480.735	6455.2
480.94	6317.98
481.144	6547.36
481.348	6186.91
481.553	6424.48
481.757	6395.81
481.961	6399.9
482.166	6449.05
482.37	6363.04
482.574	6193.06
482.778	6231.97
482.983	6440.86
483.187	6188.96
483.391	6360.99
483.595	6248.35
483.8	6088.61
484.004	6293.41
484.208	6344.61
484.412	6350.75
484.616	6354.85
484.821	6123.43
485.025	6289.31
485.229	6305.7
485.433	6219.68
485.637	6252.45
485.841	6207.39
486.045	6287.26
486.249	6229.92
486.453	6141.86
486.657	6139.81
486.861	6289.31
487.065	6186.91
487.269	6287.26
487.473	6188.96
487.677	6367.13
487.881	6328.22
488.085	6377.37
488.289	6342.56
488.493	6340.51
488.697	6363.04
488.901	6277.02
489.105	6258.59
489.309	6410.14
489.512	6418.33
489.716	6463.39
489.92	6498.2
490.124	6416.29
490.328	6596.51
490.531	6547.36
490.735	6635.42
490.939	6516.64
491.143	6369.18
491.346	6418.33
491.55	6694.81
491.754	6602.65
491.958	6711.19
492.161	6711.19
492.365	6760.34
492.569	6813.59
492.772	6731.67
492.976	6891.41
493.18	6719.39
493.383	6895.51
493.587	6946.71
493.79	7131.03
493.994	6918.04
494.197	7036.82
494.401	7284.62
494.605	7038.87
494.808	7325.58
495.012	7141.27
495.215	7395.22
495.419	7495.57
495.622	7333.78
495.825	7434.13
496.029	7448.46
496.232	7622.54
496.436	7567.24
496.639	8023.94
496.843	7788.43
497.046	7884.68
497.249	8032.13
497.453	8198.02
497.656	8226.69
497.859	8204.16
498.063	8458.11
498.266	8636.28
498.469	8431.49
498.673	8419.2
498.876	8599.42
499.079	8939.38
499.282	8712.06
499.485	9021.3
499.689	9074.55
499.892	9090.93
500.095	9310.07
500.298	9394.03
500.501	9367.41
500.705	9742.19
500.908	9824.11
501.111	9723.76
501.314	9996.14
501.517	10049.38
501.72	10200.93
501.923	10137.45
502.126	10211.17
502.329	10489.7
502.532	10620.77
502.735	10678.11
502.938	10876.76
503.141	10995.54
503.344	11202.39
503.547	11048.79
503.75	11288.4
503.953	11593.55
504.156	11568.98
504.359	11808.59
504.562	11910.99
504.765	12003.14
504.968	11822.92
505.17	12420.93
505.373	12322.63
505.576	12685.12
505.779	12717.89
505.982	12986.17
506.185	12937.02
506.387	13240.12
506.59	13395.76
506.793	13301.56
506.996	13455.15
507.198	13909.8
507.401	13772.59
507.604	13936.43
507.807	14442.28
508.009	14354.21
508.212	14321.45
508.415	14624.54
508.617	14780.19
508.82	14778.14
509.022	14991.13
509.225	15673.1
509.428	15281.94
509.63	15656.72
509.833	15517.46
510.035	15847.18
510.238	15986.44
510.44	16105.23
510.643	16420.61
510.845	16725.76
511.048	16496.39
511.25	17010.43
511.453	16881.41
511.655	17352.44
511.858	17385.21
512.06	17626.87
512.262	17837.81
512.465	17774.32
512.667	18169.58
512.87	18192.11
513.072	18376.42
513.274	18499.3
513.477	18925.28
513.679	19015.39
513.881	18966.24
514.084	19326.68
514.286	19445.46
514.488	19695.32
514.69	20168.4
514.893	20156.11
515.095	20313.8
515.297	20393.67
515.499	20848.32
515.701	20862.66
515.904	21114.56
516.106	20981.44
516.308	21425.85
516.51	21866.16
516.712	21526.2
516.914	22048.43
517.116	22634.15
517.318	22288.04
517.52	22662.82
517.722	22793.89
517.925	23105.18
518.127	23248.54
518.329	23502.49
518.531	23410.33
518.733	23899.8
518.935	23799.44
519.136	23977.62
519.338	24274.57
519.54	24485.51
519.742	24483.47
519.944	24872.58
520.146	25323.13
520.348	25284.22
520.55	25335.42
520.752	25613.95
520.954	26093.17
521.155	25947.76
521.357	26191.47
521.559	26322.54
521.761	26605.16
521.963	26732.14
522.164	26994.28
522.366	27364.96
522.568	27479.64
522.77	27350.62
522.971	27745.88
523.173	27659.87
523.375	27838.04
523.576	28249.68
523.778	27954.77
523.98	28493.39
524.181	28745.29
524.383	28393.04
524.584	29077.06
524.786	28866.12
524.988	29079.11
525.189	29576.76
525.391	29163.07
525.592	29300.29
525.794	29695.55
525.995	29646.4
526.197	29570.62
526.398	29750.84
526.6	29957.69
526.801	30101.04
527.003	30301.75
527.204	30574.13
527.406	30496.3
527.607	30639.66
527.808	31051.3
528.01	30690.86
528.211	30971.43
528.412	31112.74
528.614	30850.6
528.815	30864.94
529.016	31274.53
529.218	30924.33
529.419	31131.17
529.62	31487.52
529.822	31903.26
530.023	31690.27
530.224	31407.65
530.425	31483.42
530.626	31198.76
530.828	31450.66
531.029	32003.61
531.23	31051.3
531.431	31645.21
531.632	31893.02
531.833	31817.24
532.035	32046.61
532.236	31798.81
532.437	31938.07
532.638	31544.86
532.839	31827.48
533.04	31880.73
533.241	32171.54
533.442	31913.5
533.643	32253.46
533.844	32366.1
534.045	32110.1
534.246	31917.59
534.447	32458.26
534.648	32038.42
534.849	32263.7
535.05	32149.01
535.251	32140.82
535.451	31917.59
535.652	32450.06
535.853	32292.37
536.054	32339.47
536.255	32198.16
536.456	32108.05
536.657	32742.92
536.857	32372.24
537.058	31933.98
537.259	32509.46
537.46	32353.81
537.66	32327.19
537.861	32163.35
538.062	31970.84
538.263	32519.7
538.463	32290.32
538.664	32323.09
538.865	32413.2
539.065	32398.87
539.266	32044.57
539.466	32136.73
539.667	32050.71
539.868	32550.42
540.068	32200.21
540.269	32232.98
540.469	32120.34
540.67	32230.93
540.87	32214.55
541.071	32058.9
541.271	32296.47
541.472	32456.21
541.672	32103.96
541.873	32411.15
542.073	32093.72
542.274	32587.28
542.474	32351.76
542.675	32316.95
542.875	32308.76
543.075	32122.39
543.276	31733.28
543.476	32448.02
543.676	31985.18
543.877	32284.18
544.077	32413.2
544.277	32163.35
544.478	32278.04
544.678	32474.64
544.878	32079.38
545.078	32122.39
545.279	31567.39
545.479	32122.39
545.679	32003.61
545.879	32112.15
546.079	31903.26
546.28	31976.98
546.48	32081.43
546.68	32095.77
546.88	32271.89
547.08	31991.32
547.28	32093.72
547.48	31862.3
547.68	32507.41
547.88	31956.5
548.081	31942.17
548.281	32075.29
548.481	31993.37
548.681	32208.4
548.881	32015.9
549.081	31854.11
549.28	32073.24
549.48	32038.42
549.68	32124.44
549.88	32415.25
550.08	31872.54
550.28	32005.66
550.48	31749.66
550.68	31903.26
550.88	31710.75
551.08	31995.42
551.279	32097.81
551.479	31972.89
551.679	31700.51
551.879	31813.15
552.079	31878.68
552.278	31890.97
552.478	31739.42
552.678	31723.04
552.878	32114.2
553.077	31936.02
553.277	31546.91
553.477	32349.71
553.676	31714.84
553.876	31553.05
554.076	31651.36
554.275	31553.05
554.475	31237.67
554.674	31839.77
554.874	31675.93
555.074	31344.16
555.273	31745.56
555.473	31651.36
555.672	31485.47
555.872	31383.07
556.071	31290.91
556.271	31772.19
556.47	31587.87
556.67	31307.3
556.869	31137.32
557.068	31577.63
557.268	31305.25
557.467	31262.24
557.667	31151.65
557.866	31211.04
558.065	31151.65
558.265	30729.77
558.464	31131.17
558.663	31454.75
558.863	30864.94
559.062	31385.12
559.261	30948.9
559.461	31331.87
559.66	30928.42
559.859	31110.69
560.058	30580.27
560.258	30631.47
560.457	30797.35
560.656	31014.44
560.855	30901.8
561.054	30709.29
561.253	30398
561.453	30426.67
561.652	30752.3
561.851	30774.83
562.05	30651.95
562.249	30389.81
562.448	30797.35
562.647	30289.46
562.846	30459.44
563.045	30406.19
563.244	30592.56
563.443	30529.07
563.642	29996.6
563.841	30228.02
564.04	30146.1
564.239	30563.89
564.438	29816.38
564.637	30213.68
564.836	30215.73
565.035	30021.17
565.234	29961.78
565.432	30086.71
565.631	29871.67
565.83	30195.25
566.029	30031.41
566.228	30055.99
566.427	29648.44
566.625	29726.27
566.824	29419.07
567.023	29785.66
567.222	29142.6
567.42	29666.88
567.619	29451.84
567.818	29326.91
568.016	29261.38
568.215	29222.47
568.414	29267.52
568.612	29269.57
568.811	29023.81
569.01	29124.16
569.208	28882.5
569.407	29478.46
569.605	28583.5
569.804	28991.05
570.002	28603.98
570.201	28759.63
570.4	28360.27
570.598	28517.96
570.797	28540.49
570.995	28776.01
571.193	28290.64
571.392	28501.58
571.59	28243.54
571.789	28120.66
571.987	28089.94
572.186	28044.88
572.384	28040.79
572.582	27838.04
572.781	28073.56
572.979	27483.74
573.177	28071.51
573.376	28032.6
573.574	27473.5
573.772	28010.07
573.971	27496.03
574.169	27477.6
574.367	27493.98
574.565	27614.81
574.763	27434.59
574.962	27168.35
575.16	27057.76
575.358	26920.55
575.556	26762.86
575.754	27217.5
575.952	27254.37
576.151	26938.98
576.349	26852.97
576.547	26754.66
576.745	26490.48
576.943	26756.71
577.141	26523.24
577.339	26623.59
577.537	26406.51
577.735	26265.2
577.933	26177.14
578.131	26383.98
578.329	26162.8
578.527	26250.86
578.725	26037.87
578.923	26115.7
579.121	25874.04
579.319	25665.14
579.516	26052.21
579.714	25652.86
579.912	25822.84
580.11	25380.48
580.308	25804.41
580.506	25751.16
580.704	25204.35
580.901	25722.49
581.099	25470.59
581.297	25255.55
581.495	25409.15
581.692	25276.03
581.89	24913.54
582.088	25216.64
582.285	25192.06
582.483	25120.38
582.681	24774.28
582.878	24745.61
583.076	24577.67
583.274	24870.53
583.471	24311.44
583.669	24540.81
583.866	24458.89
584.064	24864.39
584.262	24372.88
584.459	24288.91
584.657	24206.99
584.854	24465.03
585.052	23961.23
585.249	23725.72
585.447	24288.91
585.644	23985.81
585.841	23934.61
586.039	23819.92
586.236	23506.59
586.434	23740.05
586.631	23445.15
586.828	23533.21
587.026	23441.05
587.223	23430.81
587.42	23404.19
587.618	23260.83
587.815	22976.16
588.012	23168.67
588.21	23107.23
588.407	23455.39
588.604	23017.12
588.801	22775.46
588.999	22836.9
589.196	22896.29
589.393	22658.73
589.59	22644.39
589.787	22261.42
589.984	22441.64
590.182	22116.01
590.379	22732.45
590.576	22468.27
590.773	22455.98
590.97	22349.48
591.167	22169.26
591.364	21728.95
591.561	22109.87
591.758	21814.96
591.955	21864.11
592.152	21919.41
592.349	21698.23
592.546	22046.38
592.743	21921.46
592.94	21366.46
593.137	21892.79
593.334	21868.21
593.531	21434.04
593.727	21604.02
593.924	21417.66
594.121	21524.15
594.318	21464.76
594.515	20684.48
594.712	21431.99
594.908	21081.79
595.105	21012.16
595.302	21008.06
595.499	20915.9
595.696	20631.24
595.892	20793.03
596.089	20686.53
596.286	20782.79
596.482	20530.89
596.679	20770.5
596.876	20489.93
597.072	20524.74
597.269	20268.75
597.466	20133.58
597.662	20324.04
597.859	20190.92
598.055	20006.61
598.252	19994.32
598.448	20018.89
598.645	19936.98
598.841	19949.26
599.038	19977.94
599.234	20106.96
599.431	19908.3
599.627	19719.89
599.824	19726.03
600.02	19336.92
600.217	19615.44
600.413	19582.68
600.609	19375.83
600.806	19269.34
601.002	19461.85
601.198	19252.95
601.395	18939.61
601.591	19076.83
601.787	18968.29
601.984	19029.73
602.18	19011.29
602.376	18839.26
602.572	18794.21
602.769	18716.39
602.965	18591.46
603.161	18679.52
603.357	18239.21
603.553	18493.16
603.75	18638.56
603.946	18312.94
604.142	18325.22
604.338	18239.21
604.534	18239.21
604.73	18134.76
604.926	18089.71
605.122	18050.8
605.318	17862.38
605.514	17843.95
605.71	17876.72
605.906	17921.77
606.102	17821.42
606.298	17747.7
606.494	17966.83
606.69	17663.73
606.886	17702.64
607.082	17553.14
607.278	17811.18
607.474	17209.08
607.67	17743.6
607.866	17141.5
608.062	17364.73
608.257	17475.32
608.453	17200.89
608.649	17303.29
608.845	16989.95
609.041	16883.45
609.236	17272.57
609.432	17149.69
609.628	17069.82
609.824	16774.91
610.019	17102.59
610.215	16914.17
610.411	16881.41
610.606	16772.86
610.802	16740.1
610.998	16750.34
611.193	16766.72
611.389	16789.25
611.584	16619.27
611.78	16731.9
611.976	16414.47
612.171	16746.24
612.367	16514.82
612.562	16348.93
612.758	16072.46
612.953	16303.88
613.149	16400.13
613.344	16500.48
613.539	16516.87
613.735	16307.98
613.93	16039.69
614.126	16125.71
614.321	16183.05
614.517	16215.82
614.712	16076.55
614.907	16062.22
615.103	16289.54
615.298	15902.48
615.493	16385.8
615.688	15853.33
615.884	16269.06
616.079	15755.02
616.274	15931.15
616.47	15972.11
616.665	15787.79
616.86	15746.83
617.055	15728.4
617.25	15650.58
617.445	15748.88
617.641	15443.73
617.836	15779.6
618.031	15351.57
618.226	15283.99
618.421	15288.09
618.616	15501.08
618.811	15144.73
619.006	15277.85
619.201	15148.82
619.396	15234.84
619.591	15212.31
619.786	15138.58
619.981	14726.94
620.176	15036.19
620.371	14829.34
620.566	14755.61
620.761	14708.51
620.956	14823.2
621.151	14595.87
621.346	14538.53
621.541	14534.43
621.735	14677.79
621.93	14194.47
622.125	14399.27
622.32	14288.68
622.515	14260.01
622.709	14276.39
622.904	14028.59
623.099	13813.55
623.294	13836.08
623.488	13618.99
623.683	13823.79
623.878	13666.1
624.072	13465.39
624.267	13571.89
624.462	13406
624.656	13371.19
624.851	13479.73
625.046	13049.66
625.24	13135.67
625.435	12918.59
625.629	12945.21
625.824	12959.55
626.018	12691.26
626.213	12500.8
626.407	12437.31
626.602	12668.73
626.796	12674.88
626.991	12500.8
627.185	12384.07
627.38	12408.64
627.574	12267.33
627.768	12023.62
627.963	12128.07
628.157	12306.24
628.352	12121.93
628.546	11769.68
628.74	11910.99
628.935	11874.12
629.129	11949.9
629.323	11620.17
629.517	11532.11
629.712	11593.55
629.906	11435.86
630.1	11435.86
630.294	11708.24
630.489	11294.55
630.683	11476.82
630.877	11181.91
631.071	11028.31
631.265	11413.33
631.459	11067.22
631.653	11136.85
631.848	10905.43
632.042	10897.24
632.236	11032.41
632.43	10717.02
632.624	10958.68
632.818	10678.11
633.012	10762.08
633.206	10639.2
633.4	10659.68
633.594	10440.54
633.788	10258.28
633.982	10225.51
634.176	10282.85
634.369	10299.23
634.563	10217.32
634.757	9987.94
634.951	10205.03
635.145	10012.52
635.339	9813.87
635.533	10125.16
635.726	9942.89
635.92	9725.8
636.114	9797.48
636.308	9811.82
636.501	9779.05
636.695	9860.97
636.889	9535.34
637.083	9373.55
637.276	9285.49
637.47	9402.22
637.664	9426.8
637.857	9152.37
638.051	9217.91
638.244	9146.23
638.438	9027.45
638.632	9103.22
638.825	9115.51
639.019	9035.64
639.212	8931.19
639.406	8986.49
639.599	8873.85
639.793	9004.92
639.986	8804.22
640.18	8767.35
640.373	8824.7
640.567	8513.41
640.76	8685.44
640.954	8679.29
641.147	8374.14
641.34	8339.33
641.534	8458.11
641.727	8300.42
641.92	8279.94
642.114	8247.17
642.307	8279.94
642.5	8261.51
642.694	7972.74
642.887	7886.73
643.08	8017.8
643.273	7946.12
643.467	7991.17
643.66	8028.04
643.853	7792.52
644.046	7688.07
644.239	7714.7
644.432	7735.18
644.626	7649.16
644.819	7686.03
645.012	7509.9
645.205	7534.48
645.398	7800.71
645.591	7497.61
645.784	7464.85
645.977	7403.41
646.17	7290.77
646.363	7200.66
646.556	6924.18
646.749	7051.16
646.942	7251.86
647.135	7251.86
647.328	7104.4
647.521	7090.07
647.714	6946.71
647.907	6938.52
648.099	7069.59
648.292	6997.91
648.485	6797.21
648.678	6789.02
648.871	6690.71
649.064	6649.75
649.256	6735.77
649.449	6502.3
649.642	6584.22
649.835	6666.14
650.027	6569.88
650.22	6498.2
650.413	6465.44
650.605	6461.34
650.798	6225.82
650.991	6354.85
651.183	6254.5
651.376	6358.94
651.568	6293.41
651.761	6313.89
651.954	6244.26
652.146	5916.58
652.339	6205.35
652.531	6182.82
652.724	6455.2
652.916	5908.39
653.109	5959.59
653.301	5998.5
653.494	5900.2
653.686	5990.31
653.879	5992.36
654.071	5810.09
654.263	5750.7
654.456	5885.86
654.648	5707.69
654.84	5744.55
655.033	5533.61
655.225	5754.79
655.417	5599.15
655.61	5541.8
655.802	5539.76
655.994	5461.93
656.186	5427.12
656.379	5361.58
656.571	5392.3
656.763	5187.5
656.955	5429.17
657.148	5341.1
657.34	5310.38
657.532	5339.05
657.724	5068.72
657.916	5095.35
658.108	5150.64
658.3	5179.31
658.492	5158.83
658.684	5144.5
658.876	5003.19
659.068	4995
659.26	4900.79
659.452	4974.52
659.644	4933.56
659.836	4894.65
660.028	4880.31
660.22	4831.16
660.412	4825.01
660.604	4777.91
660.796	4728.76
660.988	4667.32
661.18	4536.25
661.372	4595.64
661.563	4671.42
661.755	4556.73
661.947	4818.87
662.139	4517.82
662.331	4466.62
662.522	4655.03
662.714	4462.52
662.906	4362.17
663.097	4360.13
663.289	4470.72
663.481	4272.06
663.673	4335.55
663.864	4157.38
664.056	4341.69
664.247	4237.25
664.439	4165.57
664.631	4212.67
664.822	4253.63
665.014	4265.92
665.205	4147.14
665.397	4024.26
665.588	4009.92
665.78	3966.92
665.971	4048.83
666.163	4059.07
666.354	3925.96
666.546	3942.34
666.737	4044.74
666.929	3786.69
667.12	3905.48
667.311	3850.18
667.503	3868.61
667.694	3841.99
667.885	3753.93
668.077	3680.2
668.268	3710.92
668.459	3635.14
668.651	3788.74
668.842	3778.5
669.033	3706.82
669.224	3592.14
669.416	3696.58
669.607	3680.2
669.798	3598.28
669.989	3622.86
670.18	3661.77
670.371	3516.36
670.563	3577.8
670.754	3663.82
670.945	3409.87
671.136	3483.59
671.327	3422.16
671.518	3479.5
671.709	3639.24
671.9	3313.61
672.091	3463.12
672.282	3383.24
672.473	3452.88
672.664	3362.76
672.855	3338.19
673.046	3418.06
673.237	3155.92
673.428	3299.28
673.619	3200.98
673.809	3305.42
674	3172.3
674.191	3065.81
674.382	3168.21
674.573	3178.45
674.764	3194.83
674.954	3065.81
675.145	3131.34
675.336	2944.98
675.527	2975.7
675.717	3196.88
675.908	2979.79
676.099	2959.31
676.289	3100.62
676.48	3071.95
676.671	2918.36
676.861	3065.81
677.052	3057.62
677.243	3016.66
677.433	2869.2
677.624	2824.15
677.814	2963.41
678.005	2879.44
678.195	2901.97
678.386	2951.12
678.576	2897.88
678.767	2738.13
678.957	2879.44
679.148	2871.25
679.338	2818.01
679.529	2750.42
679.719	2824.15
679.909	2805.72
680.1	2770.9
680.29	2813.91
680.481	2789.33
680.671	2865.11
680.861	2772.95
681.052	2658.26
681.242	2787.29
681.432	2736.09
681.622	2664.41
681.813	2697.17
682.003	2709.46
682.193	2699.22
682.383	2789.33
682.573	2738.13
682.764	2475.99
682.954	2523.1
683.144	2715.61
683.334	2562.01
683.524	2566.1
683.714	2582.49
683.904	2625.5
684.094	2598.87
684.284	2598.87
684.474	2639.83
684.664	2439.13
684.854	2637.78
685.044	2459.61
685.234	2463.71
685.424	2525.15
685.614	2574.3
685.804	2426.84
685.994	2473.95
686.184	2447.32
686.374	2367.45
686.564	2500.57
686.753	2594.78
686.943	2306.01
687.133	2443.23
687.323	2404.32
687.513	2496.47
687.702	2344.92
687.892	2363.36
688.082	2408.41
688.272	2455.51
688.461	2297.82
688.651	2422.75
688.841	2295.77
689.03	2260.96
689.22	2371.55
689.41	2293.73
689.599	2418.65
689.789	2316.25
689.979	2240.48
690.168	2258.91
690.358	2179.04
690.547	2267.1
690.737	2312.16
690.926	2271.2
691.116	2263.01
691.305	2283.49
691.495	2234.33
691.684	2238.43
691.874	2263.01
692.063	2369.5
692.252	2263.01
692.442	2410.46
692.631	2158.56
692.82	2281.44
693.01	2256.86
693.199	2152.42
693.388	2222.05
693.578	2004.96
693.767	2174.94
693.956	2215.9
694.146	2150.37
694.335	2117.6
694.524	2111.46
694.713	2119.65
694.902	2136.03
695.092	2045.92
695.281	2127.84
695.47	2050.02
695.659	2072.54
695.848	2070.5
696.037	2027.49
696.226	2154.46
696.415	2179.04
696.604	2146.27
696.793	2115.55
696.982	2099.17
697.171	2095.07
697.36	2015.2
697.549	1988.58
697.738	2074.59
697.927	1984.48
698.116	1959.91
698.305	2058.21
698.494	2033.63
698.683	1986.53
698.872	1994.72
699.061	2041.82
699.25	2076.64
699.438	2013.15
699.627	1951.71
699.816	1912.8
700.005	1910.75
700.193	1910.75
700.382	1935.33
700.571	1978.34
700.76	1931.23
700.948	1953.76
701.137	1980.39
701.326	1986.53
701.514	1855.46
701.703	1980.39
701.892	1906.66
702.08	1904.61
702.269	1800.16
702.457	1779.68
702.646	1804.26
702.834	1847.27
703.023	1902.56
703.212	1886.18
703.4	1896.42
703.589	1927.14
703.777	1869.8
703.965	1871.84
704.154	1812.45
704.342	1734.63
704.531	1869.8
704.719	1822.69
704.907	1927.14
705.096	1716.2
705.284	1826.79
705.472	1796.07
705.661	1718.25
705.849	1742.82
706.037	1742.82
706.226	1716.2
706.414	1779.68
706.602	1673.19
706.79	1822.69
706.979	1767.4
707.167	1853.41
707.355	1761.25
707.543	1802.21
707.731	1804.26
707.919	1705.96
708.107	1746.92
708.296	1675.24
708.484	1673.19
708.672	1755.11
708.86	1685.48
709.048	1705.96
709.236	1615.85
709.424	1644.52
709.612	1683.43
709.8	1673.19
709.988	1566.7
710.176	1771.49
710.364	1591.27
710.551	1689.57
710.739	1705.96
710.927	1714.15
711.115	1742.82
711.303	1492.97
711.491	1710.05
711.679	1560.55
711.866	1689.57
712.054	1724.39
712.242	1570.79
712.43	1599.46
712.617	1679.33
712.805	1574.89
712.993	1554.41
713.181	1642.47
713.368	1615.85
713.556	1589.22
713.744	1529.83
713.931	1599.46
714.119	1714.15
714.306	1517.54
714.494	1535.98
714.682	1540.07
714.869	1576.94
715.057	1501.16
715.244	1437.67
715.432	1558.5
715.619	1554.41
715.807	1501.16
715.994	1566.7
716.182	1411.05
716.369	1566.7
716.556	1517.54
716.744	1503.21
716.931	1492.97
717.119	1441.77
717.306	1550.31
717.493	1521.64
717.681	1503.21
717.868	1470.44
718.055	1476.59
718.242	1423.34
718.43	1443.82
718.617	1519.59
718.804	1417.19
718.991	1370.09
719.179	1542.12
719.366	1325.04
719.553	1476.59
719.74	1376.23
719.927	1368.04
720.114	1474.54
720.301	1382.38
720.488	1361.9
720.676	1429.48
720.863	1460.2
721.05	1370.09
721.237	1335.28
721.424	1325.04
721.611	1357.8
721.798	1296.36
721.985	1331.18
722.172	1382.38
722.358	1314.8
722.545	1372.14
722.732	1249.26
722.919	1402.86
723.106	1306.6
723.293	1341.42
723.48	1402.86
723.667	1337.32
723.853	1361.9
724.04	1322.99
724.227	1421.29
724.414	1226.73
724.6	1271.79
724.787	1322.99
724.974	1304.56
725.161	1267.69
725.347	1175.53
725.534	1255.4
725.72	1314.8
725.907	1273.84
726.094	1288.17
726.28	1255.4
726.467	1304.56
726.653	1124.33
726.84	1357.8
727.027	1267.69
727.213	1247.21
727.4	1214.45
727.586	1255.4
727.773	1255.4
727.959	1206.25
728.145	1314.8
728.332	1255.4
728.518	1210.35
728.705	1198.06
728.891	1284.08
729.077	1296.36
729.264	1099.76
729.45	1140.72
729.636	1284.08
729.823	1282.03
730.009	1196.01
730.195	1118.19
730.382	1189.87
730.568	1132.53
730.754	1103.86
730.94	1128.43
731.126	1150.96
731.313	1193.97
731.499	1161.2
731.685	1257.45
731.871	1034.22
732.057	1112.05
732.243	1153.01
732.429	1062.9
732.615	1122.29
732.801	1181.68
732.987	1079.28
733.173	1099.76
733.359	1173.49
733.545	1052.66
733.731	1193.97
733.917	1087.47
734.103	1116.14
734.289	1089.52
734.475	1148.91
734.661	1120.24
734.847	1069.04
735.033	1081.33
735.219	1124.33
735.404	1105.9
735.59	1034.22
735.776	1103.86
735.962	989.17
736.148	1048.56
736.333	1099.76
736.519	1097.71
736.705	1069.04
736.89	1099.76
737.076	1066.99
737.262	960.5
737.447	989.17
737.633	1003.5
737.819	1013.74
738.004	993.26
738.19	976.88
738.375	978.93
738.561	1085.42
738.747	1060.85
738.932	1026.03
739.118	1060.85
739.303	940.02
739.489	1036.27
739.674	946.16
739.859	970.74
740.045	1017.84
740.23	948.21
740.416	880.63
740.601	1001.46
740.786	970.74
740.972	956.4
741.157	937.97
741.342	870.39
741.528	968.69
741.713	1001.46
741.898	917.49
742.084	946.16
742.269	923.63
742.454	878.58
742.639	849.91
742.824	980.98
743.01	937.97
743.195	964.59
743.38	841.72
743.565	942.07
743.75	960.5
743.935	944.11
744.12	931.83
744.305	849.91
744.49	964.59
744.675	882.67
744.86	888.82
745.045	833.52
745.23	919.54
745.415	829.43
745.6	821.24
745.785	854
745.97	899.06
746.155	804.85
746.34	800.76
746.525	831.48
746.71	759.8
746.895	833.52
747.079	839.67
747.264	796.66
747.449	765.94
747.634	849.91
747.819	890.87
748.003	813.04
748.188	788.47
748.373	749.56
748.557	839.67
748.742	862.19
748.927	708.6
749.111	743.41
749.296	823.28
749.481	806.9
749.665	806.9
749.85	747.51
750.034	749.56
750.219	684.02
750.404	702.45
750.588	747.51
750.773	673.78
750.957	722.93
751.141	657.4
751.326	747.51
751.51	702.45
751.695	686.07
751.879	714.74
752.064	718.84
752.248	702.45
752.432	698.36
752.617	669.69
752.801	684.02
752.985	698.36
753.17	669.69
753.354	671.73
753.538	657.4
753.722	602.1
753.907	604.15
754.091	649.21
754.275	720.88
754.459	634.87
754.643	583.67
754.828	624.63
755.012	649.21
755.196	567.29
755.38	577.53
755.564	608.25
755.748	595.96
755.932	555
756.116	612.34
756.3	557.05
756.484	643.06
756.668	626.68
756.852	579.58
757.036	577.53
757.22	567.29
757.404	575.48
757.588	575.48
757.772	550.9
757.956	509.94
758.14	473.08
758.323	481.27
758.507	579.58
758.691	573.43
758.875	528.38
759.059	645.11
759.242	483.32
759.426	530.42
759.61	542.71
759.794	530.42
759.977	466.94
760.161	632.82
760.345	503.8
760.528	511.99
760.712	522.23
760.895	577.53
761.079	571.38
761.263	446.46
761.446	477.18
761.63	569.34
761.813	468.98
761.997	452.6
762.18	479.22
762.364	499.7
762.547	464.89
762.731	477.18
762.914	528.38
763.098	491.51
763.281	456.7
763.464	446.46
763.648	491.51
763.831	425.98
764.015	522.23
764.198	528.38
764.381	444.41
764.564	550.9
764.748	430.07
764.931	419.83
765.114	417.79
765.297	481.27
765.481	505.85
765.664	436.22
765.847	520.18
766.03	489.46
766.213	430.07
766.397	452.6
766.58	471.03
766.763	444.41
766.946	423.93
767.129	407.55
767.312	407.55
767.495	399.35
767.678	432.12
767.861	528.38
768.044	452.6
768.227	395.26
768.41	489.46
768.593	438.27
768.776	456.7
768.959	503.8
769.142	468.98
769.324	360.44
769.507	378.87
769.69	411.64
769.873	440.31
770.056	448.51
770.239	432.12
770.421	485.37
770.604	511.99
770.787	370.68
770.97	382.97
771.152	448.51
771.335	428.03
771.518	378.87
771.7	468.98
771.883	419.83
772.066	501.75
772.248	438.27
772.431	430.07
772.613	391.16
772.796	368.63
772.978	448.51
773.161	446.46
773.343	401.4
773.526	428.03
773.708	268.28
773.891	391.16
774.073	393.21
774.256	337.91
774.438	425.98
774.621	413.69
774.803	405.5
774.985	325.63
775.168	323.58
775.35	368.63
775.532	397.31
775.715	391.16
775.897	315.39
776.079	303.1
776.261	329.72
776.444	413.69
776.626	382.97
776.808	387.07
776.99	387.07
777.173	389.11
777.355	346.11
777.537	305.15
777.719	405.5
777.901	382.97
778.083	280.57
778.265	342.01
778.447	331.77
778.629	337.91
778.811	382.97
778.993	356.35
779.175	387.07
779.357	309.24
779.539	266.24
779.721	329.72
779.903	366.59
780.085	305.15
780.267	376.83
780.449	356.35
780.631	348.15
780.812	331.77
780.994	286.72
781.176	313.34
781.358	305.15
781.54	206.84
781.721	231.42
781.903	323.58
782.085	237.56
782.267	362.49
782.448	288.76
782.63	249.85
782.812	258.04
782.993	264.19
783.175	321.53
783.357	278.52
783.538	296.96
783.72	239.61
783.901	296.96
784.083	274.43
784.264	301.05
784.446	294.91
784.627	284.67
784.809	202.75
784.99	321.53
785.172	256
785.353	296.96
785.535	378.87
785.716	225.28
785.897	247.8
786.079	243.71
786.26	276.48
786.441	206.84
786.623	217.08
786.804	313.34
786.985	251.9
787.167	245.76
787.348	266.24
787.529	272.38
787.71	235.52
787.891	219.13
788.073	233.47
788.254	210.94
788.435	206.84
788.616	247.8
788.797	223.23
788.978	256
789.159	202.75
789.34	262.14
789.522	231.42
789.703	194.56
789.884	118.78
790.065	256
790.246	161.79
790.427	198.65
790.607	260.09
790.788	231.42
790.969	159.74
791.15	190.46
791.331	104.45
791.512	184.32
791.693	182.27
791.874	210.94
792.054	225.28
792.235	227.32
792.416	124.93
792.597	110.59
792.778	215.04
792.958	212.99
793.139	141.31
793.32	149.5
793.5	198.65
793.681	237.56
793.862	247.8
794.042	151.55
794.223	129.02
794.404	174.08
794.584	116.73
794.765	198.65
794.945	241.66
795.126	194.56
795.306	182.27
795.487	184.32
795.667	190.46
795.848	157.69
796.028	104.45
796.209	155.65
796.389	223.23
796.57	182.27
796.75	131.07
796.93	143.36
797.111	210.94
797.291	100.35
797.471	126.97
797.652	192.51
797.832	98.3
798.012	223.23
798.192	90.11
798.373	176.13
798.553	149.5
798.733	157.69
798.913	165.89
799.093	124.93
799.274	239.61
799.454	229.37
799.634	141.31
799.814	143.36
799.994	141.31
800.174	102.4
800.354	169.98
800.534	102.4
800.714	190.46
800.894	88.06
801.074	126.97
801.254	124.93
801.434	153.6
801.614	169.98
801.794	151.55
801.974	763.89
802.154	116.73
802.334	110.59
802.514	200.7
802.693	126.97
802.873	137.21
803.053	180.22
803.233	186.37
803.413	141.31
803.592	133.12
803.772	151.55
803.952	131.07
804.131	141.31
804.311	81.92
804.491	161.79
804.67	118.78
804.85	108.54
805.03	190.46
805.209	159.74
805.389	83.97
805.568	108.54
805.748	92.16
805.928	165.89
806.107	116.73
806.287	141.31
806.466	210.94
806.646	124.93
806.825	133.12
807.004	141.31
807.184	104.45
807.363	102.4
807.543	77.82
807.722	143.36
807.901	100.35
808.081	198.65
808.26	124.93
808.439	106.49
808.619	114.69
808.798	92.16
808.977	88.06
809.156	112.64
809.336	75.77
809.515	157.69
809.694	116.73
809.873	126.97
810.052	153.6
810.231	190.46
810.411	110.59
810.59	69.63
810.769	182.27
810.948	75.77
811.127	79.87
811.306	145.41
811.485	141.31
811.664	122.88
811.843	116.73
812.022	129.02
812.201	92.16
812.38	116.73
812.559	77.82
812.737	67.58
812.916	86.01
813.095	120.83
813.274	124.93
813.453	190.46
813.632	120.83
813.811	67.58
813.989	96.25
814.168	114.69
814.347	47.1
814.526	151.55
814.704	143.36
814.883	192.51
815.062	112.64
815.24	149.5
815.419	96.25
815.598	104.45
815.776	92.16
815.955	88.06
816.133	0
816.312	100.35
816.49	67.58
816.669	124.93
816.847	59.39
817.026	108.54
817.204	43.01
817.383	104.45
817.561	112.64
817.74	116.73
817.918	96.25
818.097	102.4
818.275	116.73
818.453	94.21
818.632	133.12
818.81	63.49
818.988	69.63
819.167	45.06
819.345	100.35
819.523	67.58
819.701	36.86
819.879	133.12
820.058	92.16
820.236	133.12
820.414	40.96
820.592	86.01
820.77	65.54
820.948	124.93
821.127	94.21
821.305	141.31
821.483	55.3
821.661	94.21
821.839	75.77
822.017	124.93
822.195	43.01
822.373	67.58
822.551	73.73
822.729	98.3
822.907	65.54
823.085	143.36
823.262	71.68
823.44	83.97
823.618	77.82
823.796	96.25
823.974	108.54
824.152	34.82
824.329	92.16
824.507	75.77
824.685	96.25
824.863	83.97
825.04	104.45
825.218	131.07
825.396	36.86
825.574	145.41
825.751	63.49
825.929	118.78
826.107	45.06
826.284	61.44
826.462	53.25
826.639	20.48
826.817	26.62
826.994	88.06
827.172	59.39
827.349	79.87
827.527	129.02
827.704	4.1
827.882	36.86
828.059	79.87
828.237	10.24
828.414	120.83
828.591	24.58
828.769	30.72
828.946	-4.1
829.124	133.12
829.301	129.02
829.478	45.06
829.655	69.63
829.833	10.24
830.01	-10.24
830.187	10.24
830.364	34.82
830.542	131.07
830.719	57.34
830.896	104.45
831.073	73.73
831.25	141.31
831.427	100.35
831.604	83.97
831.782	81.92
831.959	75.77
832.136	100.35
832.313	81.92
832.49	14.34
832.667	4.1
832.844	38.91
833.021	67.58
833.198	75.77
833.374	47.1
833.551	83.97
833.728	61.44
833.905	110.59
834.082	110.59
834.259	100.35
834.436	63.49
834.612	24.58
834.789	55.3
834.966	83.97
835.143	75.77
835.319	43.01
835.496	67.58
835.673	20.48
835.85	43.01
836.026	20.48
836.203	67.58
836.38	-14.34
836.556	-2.05
836.733	-2.05
836.909	135.17
837.086	55.3
837.262	24.58
837.439	88.06
837.616	-6.14
837.792	49.15
837.968	106.49
838.145	12.29
838.321	38.91
838.498	40.96
838.674	53.25
838.851	110.59
839.027	67.58
839.203	38.91
839.38	53.25
839.556	-6.14
839.732	51.2
839.909	118.78
840.085	51.2
840.261	-8.19
840.437	83.97
840.614	47.1
840.79	94.21
840.966	110.59
841.142	69.63
841.318	22.53
841.494	71.68
841.671	43.01
841.847	102.4
842.023	4.1
842.199	49.15
842.375	26.62
842.551	-2.05
842.727	14.34
842.903	98.3
843.079	18.43
843.255	45.06
843.431	16.38
843.607	61.44
843.783	4.1
843.959	67.58
844.134	61.44
844.31	108.54
844.486	4.1
844.662	-55.3
844.838	86.01
845.013	67.58
845.189	40.96
845.365	36.86
845.541	22.53
845.716	14.34
845.892	86.01
846.068	92.16
846.244	-18.43
846.419	86.01
846.595	32.77
846.77	-26.62
846.946	83.97
847.122	12.29
847.297	26.62
847.473	79.87
847.648	30.72
847.824	88.06
847.999	53.25
848.175	83.97
848.35	83.97
848.526	26.62
848.701	92.16
848.876	51.2
849.052	38.91
849.227	-36.86
849.403	118.78
849.578	-38.91
849.753	-6.14
849.929	20.48
850.104	-75.77
850.279	38.91
850.454	69.63
850.63	116.73
850.805	-26.62
850.98	67.58
851.155	-2.05
851.33	59.39
851.505	75.77
851.681	75.77
851.856	-14.34
852.031	47.1
852.206	38.91
852.381	4.1
852.556	28.67
852.731	69.63
852.906	104.45
853.081	10.24
853.256	45.06
853.431	67.58
853.606	26.62
853.781	69.63
853.956	-22.53
854.131	69.63
854.305	-14.34
854.48	18.43
854.655	14.34
854.83	-38.91
855.005	30.72
855.18	43.01
855.354	-8.19
855.529	47.1
855.704	43.01
855.879	120.83
856.053	-43.01
856.228	-26.62
856.403	26.62
856.577	73.73
856.752	53.25
856.926	6.14
857.101	26.62
857.276	126.97
857.45	24.58
857.625	51.2
857.799	51.2
857.974	10.24
858.148	18.43
858.323	77.82
858.497	92.16
858.672	51.2
858.846	75.77
859.02	94.21
859.195	-22.53
859.369	69.63
859.543	79.87
859.718	30.72
859.892	20.48
860.066	92.16
860.241	96.25
860.415	43.01
860.589	73.73
860.763	51.2
860.938	-22.53
861.112	81.92
861.286	83.97
861.46	22.53
861.634	102.4
861.808	102.4
861.982	4.1
862.157	30.72
862.331	-18.43
862.505	2.05
862.679	-55.3
862.853	20.48
863.027	73.73
863.201	38.91
863.375	-43.01
863.549	0
863.722	-2.05
863.896	92.16
864.07	-22.53
864.244	47.1
864.418	34.82
864.592	22.53
864.766	2.05
864.939	110.59
865.113	-2.05
865.287	126.97
865.461	53.25
865.634	65.54
865.808	12.29
865.982	26.62
866.156	-22.53
866.329	12.29
866.503	102.4
866.676	6.14
866.85	6.14
867.024	10.24
867.197	34.82
867.371	92.16
867.544	26.62
867.718	-22.53
867.891	-6.14
868.065	-28.67
868.238	34.82
868.412	-2.05
868.585	-12.29
868.759	49.15
868.932	30.72
869.105	26.62
869.279	-14.34
869.452	28.67
869.625	67.58
869.799	28.67
869.972	79.87
870.145	43.01
870.319	22.53
870.492	10.24
870.665	-14.34
870.838	12.29
871.011	-34.82
871.185	28.67
871.358	-28.67
871.531	75.77
871.704	20.48
871.877	18.43
872.05	67.58
872.223	2.05
872.396	69.63
872.569	86.01
872.742	-38.91
872.915	28.67
873.088	53.25
873.261	-14.34
873.434	61.44
873.607	40.96
873.78	61.44
873.953	10.24
874.126	22.53
874.299	59.39
874.471	43.01
874.644	77.82
874.817	61.44
874.99	100.35
875.163	14.34
875.335	88.06
875.508	10.24
875.681	10.24
875.853	63.49
876.026	47.1
876.199	4.1
876.371	110.59
876.544	-30.72
876.717	2.05
876.889	45.06
877.062	63.49
877.234	-34.82
877.407	6.14
877.579	-12.29
877.752	55.3
877.924	53.25
878.097	18.43
878.269	26.62
878.442	22.53
878.614	47.1
878.786	-30.72
878.959	43.01
879.131	63.49
879.303	-16.38
879.476	-12.29
879.648	118.78
879.82	53.25
879.993	4.1
880.165	34.82
880.337	28.67
880.509	12.29
880.681	14.34
880.854	-14.34
881.026	53.25
881.198	30.72
881.37	34.82
881.542	51.2
881.714	-32.77
881.886	26.62
882.058	-47.1
882.23	92.16
882.402	49.15
882.574	10.24
882.746	61.44
882.918	12.29
883.09	34.82
883.262	2.05
883.434	-26.62
883.606	55.3
883.778	83.97
883.95	55.3
884.122	112.64
884.293	12.29
884.465	18.43
884.637	-2.05
884.809	10.24
884.98	4.1
885.152	-14.34
885.324	34.82
885.496	-14.34
885.667	36.86
885.839	49.15
886.011	94.21
886.182	61.44
886.354	26.62
886.525	63.49
886.697	47.1
886.869	18.43
887.04	-2.05
887.212	-14.34
887.383	67.58
887.555	-22.53
887.726	-47.1
887.897	22.53
888.069	24.58
888.24	18.43
888.412	-4.1
888.583	6.14
888.754	-6.14
888.926	-36.86
889.097	61.44
889.268	-67.58
889.44	12.29
889.611	47.1
889.782	-26.62
889.953	28.67
890.125	14.34
890.296	-51.2
890.467	-20.48
890.638	63.49
890.809	92.16
890.98	18.43
891.151	96.25
891.323	18.43
891.494	-14.34
891.665	6.14
891.836	28.67
892.007	6.14
892.178	14.34
892.349	30.72
892.52	63.49
892.691	-12.29
892.862	30.72
893.032	-61.44
893.203	20.48
893.374	51.2
893.545	55.3
893.716	6.14
893.887	26.62
894.057	18.43
894.228	20.48
894.399	-45.06
894.57	114.69
894.74	36.86
894.911	43.01
895.082	126.97
895.253	12.29
895.423	59.39
895.594	-12.29
895.764	-71.68
895.935	49.15
896.106	36.86
896.276	-18.43
896.447	59.39
896.617	24.58
896.788	-75.77
896.958	4.1
897.129	-22.53
897.299	32.77
897.47	22.53
897.64	14.34
897.81	-30.72
897.981	2.05
898.151	-53.25
898.322	108.54
898.492	-4.1
898.662	-4.1
898.832	67.58
899.003	14.34
899.173	-2.05
899.343	-30.72
899.513	67.58
