Data from USB4F104151__314__14-46-45-889.txt Node

Date: Thu Mar 13 14:46:45 EDT 2025
User: louis
Spectrometer: USB4F10415
Trigger mode: 4
Integration Time (sec): 2.000000E-2
Scans to average: 1
Electric dark correction enabled: true
Nonlinearity correction enabled: false
Boxcar width: 0
XAxis mode: Wavelengths
Number of Pixels in Spectrum: 3648
>>>>>Begin Spectral Data<<<<<
178.204	-153.43
178.424	-153.43
178.644	-153.43
178.864	-196.43
179.084	-143.19
179.304	24.75
179.524	-8.02
179.744	22.7
179.964	104.62
180.184	14.51
180.404	37.03
180.624	18.6
180.844	-57.17
181.064	-61.27
181.283	24.75
181.503	-63.32
181.723	-57.17
181.943	6.31
182.163	57.51
182.383	20.65
182.602	-8.02
182.822	166.06
183.042	20.65
183.262	-3.93
183.482	4.27
183.701	-22.36
183.921	41.13
184.141	63.66
184.361	57.51
184.58	-16.21
184.8	-26.45
185.02	-65.36
185.239	55.47
185.459	8.36
185.679	55.47
185.898	26.79
186.118	34.99
186.338	49.32
186.557	32.94
186.777	0.17
186.997	49.32
187.216	16.55
187.436	84.14
187.655	16.55
187.875	51.37
188.095	-24.4
188.314	114.86
188.534	57.51
188.753	-5.97
188.973	-1.88
189.192	69.8
189.412	-28.5
189.631	51.37
189.851	10.41
190.07	73.9
190.29	-16.21
190.509	-32.6
190.729	8.36
190.948	51.37
191.168	104.62
191.387	41.13
191.607	-28.5
191.826	32.94
192.045	65.71
192.265	8.36
192.484	80.04
192.704	59.56
192.923	34.99
193.142	73.9
193.362	10.41
193.581	-26.45
193.8	-3.93
194.02	63.66
194.239	12.46
194.458	-10.07
194.678	82.09
194.897	41.13
195.116	69.8
195.335	-8.02
195.555	47.27
195.774	63.66
195.993	8.36
196.212	-94.04
196.432	-40.79
196.651	24.75
196.87	10.41
197.089	116.9
197.308	-3.93
197.528	41.13
197.747	-16.21
197.966	49.32
198.185	34.99
198.404	28.84
198.623	-1.88
198.842	-89.94
199.062	4.27
199.281	51.37
199.5	63.66
199.719	24.75
199.938	24.75
200.157	49.32
200.376	53.42
200.595	26.79
200.814	-18.26
201.033	34.99
201.252	-36.69
201.471	73.9
201.69	57.51
201.909	96.43
202.128	55.47
202.347	-12.12
202.566	32.94
202.785	-34.64
203.004	10.41
203.223	59.56
203.442	4.27
203.661	-18.26
203.879	45.23
204.098	131.24
204.317	61.61
204.536	37.03
204.755	16.55
204.974	51.37
205.193	82.09
205.411	98.47
205.63	55.47
205.849	39.08
206.068	-16.21
206.287	65.71
206.505	65.71
206.724	18.6
206.943	41.13
207.162	-40.79
207.381	-18.26
207.599	24.75
207.818	0.17
208.037	-32.6
208.255	37.03
208.474	8.36
208.693	41.13
208.911	45.23
209.13	75.95
209.349	2.22
209.567	86.19
209.786	155.82
210.005	-16.21
210.223	22.7
210.442	14.51
210.661	16.55
210.879	94.38
211.098	-40.79
211.316	8.36
211.535	77.99
211.753	-20.31
211.972	57.51
212.191	4.27
212.409	32.94
212.628	16.55
212.846	0.17
213.065	39.08
213.283	18.6
213.502	59.56
213.72	100.52
213.938	-5.97
214.157	-24.4
214.375	24.75
214.594	8.36
214.812	8.36
215.031	26.79
215.249	18.6
215.467	41.13
215.686	-32.6
215.904	73.9
216.122	22.7
216.341	67.75
216.559	-61.27
216.778	-12.12
216.996	26.79
217.214	16.55
217.432	41.13
217.651	-20.31
217.869	-57.17
218.087	41.13
218.306	-16.21
218.524	43.18
218.742	6.31
218.96	49.32
219.179	45.23
219.397	41.13
219.615	90.28
219.833	4.27
220.051	-24.4
220.27	69.8
220.488	-16.21
220.706	55.47
220.924	28.84
221.142	-32.6
221.36	-42.84
221.578	-38.74
221.796	65.71
222.015	-14.17
222.233	51.37
222.451	82.09
222.669	-79.7
222.887	90.28
223.105	-14.17
223.323	18.6
223.541	26.79
223.759	59.56
223.977	51.37
224.195	-10.07
224.413	26.79
224.631	-24.4
224.849	14.51
225.067	94.38
225.285	20.65
225.503	-51.03
225.721	-71.51
225.939	86.19
226.157	10.41
226.375	39.08
226.592	-3.93
226.81	-12.12
227.028	6.31
227.246	75.95
227.464	-53.08
227.682	114.86
227.9	-8.02
228.117	24.75
228.335	2.22
228.553	32.94
228.771	10.41
228.989	51.37
229.206	45.23
229.424	65.71
229.642	4.27
229.86	-12.12
230.077	57.51
230.295	41.13
230.513	24.75
230.731	69.8
230.948	16.55
231.166	53.42
231.384	-28.5
231.601	-5.97
231.819	16.55
232.037	-71.51
232.254	-32.6
232.472	-32.6
232.689	-12.12
232.907	100.52
233.125	-8.02
233.342	16.55
233.56	4.27
233.777	-28.5
233.995	-1.88
234.213	71.85
234.43	-16.21
234.648	49.32
234.865	-81.75
235.083	69.8
235.3	-36.69
235.518	55.47
235.735	51.37
235.953	37.03
236.17	20.65
236.388	0.17
236.605	41.13
236.822	59.56
237.04	20.65
237.257	8.36
237.475	-1.88
237.692	-1.88
237.909	67.75
238.127	49.32
238.344	2.22
238.562	8.36
238.779	-3.93
238.996	-5.97
239.214	-22.36
239.431	71.85
239.648	30.89
239.865	67.75
240.083	28.84
240.3	-14.17
240.517	10.41
240.735	37.03
240.952	32.94
241.169	-18.26
241.386	32.94
241.603	4.27
241.821	-55.12
242.038	32.94
242.255	59.56
242.472	-1.88
242.689	24.75
242.907	10.41
243.124	90.28
243.341	94.38
243.558	73.9
243.775	-22.36
243.992	-61.27
244.209	61.61
244.426	98.47
244.643	123.05
244.86	45.23
245.078	32.94
245.295	-16.21
245.512	0.17
245.729	-8.02
245.946	77.99
246.163	18.6
246.38	0.17
246.597	47.27
246.814	57.51
247.031	57.51
247.248	34.99
247.464	45.23
247.681	0.17
247.898	49.32
248.115	30.89
248.332	34.99
248.549	32.94
248.766	53.42
248.983	59.56
249.2	41.13
249.417	8.36
249.633	41.13
249.85	-28.5
250.067	45.23
250.284	10.41
250.501	34.99
250.717	82.09
250.934	-40.79
251.151	26.79
251.368	-40.79
251.585	90.28
251.801	-55.12
252.018	8.36
252.235	8.36
252.451	20.65
252.668	32.94
252.885	-8.02
253.102	82.09
253.318	-48.98
253.535	6.31
253.752	-57.17
253.968	18.6
254.185	-59.22
254.401	-22.36
254.618	73.9
254.835	43.18
255.051	41.13
255.268	26.79
255.484	4.27
255.701	8.36
255.917	16.55
256.134	-28.5
256.351	24.75
256.567	2.22
256.784	45.23
257	-22.36
257.217	84.14
257.433	0.17
257.65	16.55
257.866	67.75
258.082	18.6
258.299	28.84
258.515	123.05
258.732	8.36
258.948	0.17
259.165	-26.45
259.381	-22.36
259.597	24.75
259.814	26.79
260.03	65.71
260.246	16.55
260.463	-44.88
260.679	82.09
260.895	20.65
261.112	16.55
261.328	10.41
261.544	16.55
261.761	108.71
261.977	47.27
262.193	-46.93
262.409	0.17
262.626	32.94
262.842	86.19
263.058	-24.4
263.274	57.51
263.49	-16.21
263.707	4.27
263.923	57.51
264.139	-26.45
264.355	0.17
264.571	8.36
264.787	12.46
265.004	123.05
265.22	10.41
265.436	-3.93
265.652	0.17
265.868	123.05
266.084	4.27
266.3	65.71
266.516	82.09
266.732	-26.45
266.948	-24.4
267.164	-16.21
267.38	96.43
267.596	24.75
267.812	90.28
268.028	-57.17
268.244	49.32
268.46	2.22
268.676	-16.21
268.892	-67.41
269.108	32.94
269.324	-32.6
269.54	-73.56
269.756	73.9
269.972	22.7
270.188	28.84
270.403	-38.74
270.619	-22.36
270.835	20.65
271.051	80.04
271.267	8.36
271.483	4.27
271.698	32.94
271.914	77.99
272.13	-28.5
272.346	16.55
272.562	-32.6
272.777	28.84
272.993	20.65
273.209	20.65
273.425	73.9
273.64	0.17
273.856	-16.21
274.072	114.86
274.287	-1.88
274.503	51.37
274.719	-32.6
274.934	22.7
275.15	4.27
275.366	-5.97
275.581	18.6
275.797	26.79
276.012	18.6
276.228	-48.98
276.444	-55.12
276.659	-16.21
276.875	-5.97
277.09	84.14
277.306	-8.02
277.521	-28.5
277.737	8.36
277.952	65.71
278.168	32.94
278.383	8.36
278.599	26.79
278.814	16.55
279.03	57.51
279.245	75.95
279.461	-20.31
279.676	67.75
279.892	-3.93
280.107	28.84
280.322	37.03
280.538	-65.36
280.753	-34.64
280.969	-20.31
281.184	-3.93
281.399	57.51
281.615	-42.84
281.83	20.65
282.045	-16.21
282.26	-40.79
282.476	32.94
282.691	53.42
282.906	-28.5
283.122	18.6
283.337	-36.69
283.552	41.13
283.767	-18.26
283.983	26.79
284.198	-20.31
284.413	88.23
284.628	-3.93
284.843	39.08
285.058	24.75
285.274	73.9
285.489	37.03
285.704	10.41
285.919	43.18
286.134	-32.6
286.349	2.22
286.564	-12.12
286.779	26.79
286.995	-14.17
287.21	-55.12
287.425	53.42
287.64	34.99
287.855	96.43
288.07	-30.55
288.285	18.6
288.5	-3.93
288.715	6.31
288.93	2.22
289.145	51.37
289.36	92.33
289.575	2.22
289.79	71.85
290.004	-24.4
290.219	84.14
290.434	30.89
290.649	-24.4
290.864	-38.74
291.079	32.94
291.294	49.32
291.509	73.9
291.724	-3.93
291.938	-3.93
292.153	73.9
292.368	20.65
292.583	43.18
292.798	43.18
293.012	12.46
293.227	8.36
293.442	18.6
293.657	-14.17
293.871	51.37
294.086	84.14
294.301	45.23
294.516	67.75
294.73	8.36
294.945	24.75
295.16	34.99
295.374	2.22
295.589	-16.21
295.804	34.99
296.018	4.27
296.233	49.32
296.447	34.99
296.662	18.6
296.877	-10.07
297.091	-22.36
297.306	49.32
297.52	49.32
297.735	49.32
297.949	18.6
298.164	57.51
298.378	-55.12
298.593	-59.22
298.807	-1.88
299.022	37.03
299.236	4.27
299.451	18.6
299.665	43.18
299.88	24.75
300.094	26.79
300.309	53.42
300.523	43.18
300.737	104.62
300.952	37.03
301.166	131.24
301.381	0.17
301.595	28.84
301.809	45.23
302.024	67.75
302.238	49.32
302.452	32.94
302.667	-8.02
302.881	61.61
303.095	28.84
303.309	55.47
303.524	-12.12
303.738	-44.88
303.952	-14.17
304.166	32.94
304.381	41.13
304.595	106.67
304.809	-16.21
305.023	102.57
305.237	41.13
305.452	-10.07
305.666	6.31
305.88	77.99
306.094	-10.07
306.308	41.13
306.522	-28.5
306.736	92.33
306.95	41.13
307.164	65.71
307.379	-69.46
307.593	26.79
307.807	2.22
308.021	65.71
308.235	34.99
308.449	-44.88
308.663	49.32
308.877	86.19
309.091	55.47
309.305	80.04
309.519	-22.36
309.733	77.99
309.947	75.95
310.161	0.17
310.374	82.09
310.588	106.67
310.802	12.46
311.016	-12.12
311.23	37.03
311.444	49.32
311.658	-5.97
311.872	-36.69
312.085	59.56
312.299	34.99
312.513	86.19
312.727	84.14
312.941	34.99
313.154	32.94
313.368	61.61
313.582	16.55
313.796	-26.45
314.009	43.18
314.223	20.65
314.437	24.75
314.651	39.08
314.864	-36.69
315.078	22.7
315.292	10.41
315.505	8.36
315.719	-34.64
315.933	-67.41
316.146	45.23
316.36	-5.97
316.573	75.95
316.787	-24.4
317.001	55.47
317.214	-57.17
317.428	20.65
317.641	-38.74
317.855	14.51
318.068	-22.36
318.282	82.09
318.495	-5.97
318.709	71.85
318.922	26.79
319.136	49.32
319.349	24.75
319.563	45.23
319.776	-51.03
319.99	-57.17
320.203	16.55
320.417	-10.07
320.63	75.95
320.843	32.94
321.057	51.37
321.27	24.75
321.483	45.23
321.697	49.32
321.91	37.03
322.124	41.13
322.337	-8.02
322.55	-40.79
322.763	-40.79
322.977	4.27
323.19	10.41
323.403	73.9
323.617	90.28
323.83	20.65
324.043	-28.5
324.256	43.18
324.469	65.71
324.683	32.94
324.896	-38.74
325.109	-32.6
325.322	49.32
325.535	73.9
325.748	26.79
325.962	57.51
326.175	-1.88
326.388	47.27
326.601	65.71
326.814	45.23
327.027	59.56
327.24	108.71
327.453	6.31
327.666	32.94
327.879	75.95
328.092	8.36
328.305	37.03
328.518	10.41
328.731	0.17
328.944	84.14
329.157	-32.6
329.37	53.42
329.583	55.47
329.796	92.33
330.009	-40.79
330.222	75.95
330.435	24.75
330.648	45.23
330.861	41.13
331.073	-77.65
331.286	94.38
331.499	-38.74
331.712	8.36
331.925	84.14
332.138	-22.36
332.35	137.38
332.563	16.55
332.776	106.67
332.989	6.31
333.202	8.36
333.414	-32.6
333.627	10.41
333.84	49.32
334.053	32.94
334.265	-3.93
334.478	2.22
334.691	47.27
334.903	-3.93
335.116	12.46
335.329	16.55
335.541	102.57
335.754	88.23
335.966	0.17
336.179	41.13
336.392	65.71
336.604	51.37
336.817	26.79
337.029	24.75
337.242	49.32
337.454	98.47
337.667	20.65
337.88	82.09
338.092	100.52
338.305	0.17
338.517	49.32
338.729	-8.02
338.942	94.38
339.154	18.6
339.367	28.84
339.579	41.13
339.792	49.32
340.004	125.1
340.217	26.79
340.429	30.89
340.641	18.6
340.854	-3.93
341.066	41.13
341.278	125.1
341.491	77.99
341.703	24.75
341.915	16.55
342.128	49.32
342.34	26.79
342.552	49.32
342.764	26.79
342.977	43.18
343.189	-40.79
343.401	47.27
343.613	-48.98
343.826	34.99
344.038	-34.64
344.25	14.51
344.462	49.32
344.674	34.99
344.886	41.13
345.099	-8.02
345.311	26.79
345.523	82.09
345.735	-16.21
345.947	8.36
346.159	0.17
346.371	16.55
346.583	41.13
346.795	63.66
347.007	73.9
347.219	-20.31
347.431	45.23
347.643	37.03
347.855	-8.02
348.067	32.94
348.279	-28.5
348.491	14.51
348.703	53.42
348.915	14.51
349.127	-18.26
349.339	73.9
349.551	6.31
349.763	49.32
349.975	16.55
350.187	16.55
350.399	43.18
350.61	24.75
350.822	43.18
351.034	41.13
351.246	14.51
351.458	39.08
351.669	47.27
351.881	71.85
352.093	34.99
352.305	43.18
352.517	32.94
352.728	51.37
352.94	-1.88
353.152	47.27
353.363	4.27
353.575	24.75
353.787	104.62
353.999	57.51
354.21	34.99
354.422	8.36
354.633	104.62
354.845	26.79
355.057	-48.98
355.268	-16.21
355.48	22.7
355.692	-14.17
355.903	0.17
356.115	-79.7
356.326	-67.41
356.538	106.67
356.749	26.79
356.961	82.09
357.172	86.19
357.384	-8.02
357.595	108.71
357.807	-1.88
358.018	-8.02
358.23	-57.17
358.441	32.94
358.653	51.37
358.864	75.95
359.075	-8.02
359.287	71.85
359.498	71.85
359.709	2.22
359.921	73.9
360.132	-28.5
360.344	82.09
360.555	16.55
360.766	127.14
360.977	4.27
361.189	65.71
361.4	57.51
361.611	-1.88
361.823	90.28
362.034	-14.17
362.245	49.32
362.456	-24.4
362.667	90.28
362.879	30.89
363.09	88.23
363.301	41.13
363.512	37.03
363.723	0.17
363.935	22.7
364.146	92.33
364.357	-16.21
364.568	28.84
364.779	26.79
364.99	127.14
365.201	6.31
365.412	20.65
365.623	12.46
365.834	88.23
366.045	77.99
366.256	0.17
366.467	121
366.678	73.9
366.889	-32.6
367.1	98.47
367.311	73.9
367.522	22.7
367.733	-1.88
367.944	77.99
368.155	-20.31
368.366	-24.4
368.577	26.79
368.788	24.75
368.999	51.37
369.209	10.41
369.42	90.28
369.631	73.9
369.842	69.8
370.053	-8.02
370.264	24.75
370.474	-16.21
370.685	-44.88
370.896	34.99
371.107	59.56
371.317	57.51
371.528	4.27
371.739	84.14
371.95	37.03
372.16	34.99
372.371	164.01
372.582	-61.27
372.792	57.51
373.003	94.38
373.214	24.75
373.424	32.94
373.635	-1.88
373.846	26.79
374.056	75.95
374.267	77.99
374.477	32.94
374.688	45.23
374.898	2.22
375.109	18.6
375.319	73.9
375.53	61.61
375.74	28.84
375.951	-73.56
376.161	-5.97
376.372	114.86
376.582	73.9
376.793	84.14
377.003	10.41
377.214	73.9
377.424	61.61
377.635	24.75
377.845	-12.12
378.055	86.19
378.266	4.27
378.476	65.71
378.686	73.9
378.897	57.51
379.107	84.14
379.317	16.55
379.528	43.18
379.738	65.71
379.948	57.51
380.158	51.37
380.369	20.65
380.579	53.42
380.789	2.22
380.999	37.03
381.21	-32.6
381.42	43.18
381.63	-3.93
381.84	90.28
382.05	41.13
382.261	32.94
382.471	24.75
382.681	32.94
382.891	18.6
383.101	41.13
383.311	-28.5
383.521	94.38
383.731	32.94
383.941	24.75
384.151	114.86
384.361	41.13
384.571	77.99
384.781	114.86
384.991	90.28
385.201	127.14
385.411	30.89
385.621	82.09
385.831	49.32
386.041	18.6
386.251	57.51
386.461	22.7
386.671	51.37
386.881	32.94
387.091	4.27
387.301	8.36
387.511	98.47
387.72	43.18
387.93	73.9
388.14	-1.88
388.35	16.55
388.56	75.95
388.769	90.28
388.979	51.37
389.189	102.57
389.399	65.71
389.609	37.03
389.818	100.52
390.028	22.7
390.238	55.47
390.447	0.17
390.657	12.46
390.867	26.79
391.076	90.28
391.286	75.95
391.496	53.42
391.705	73.9
391.915	92.33
392.125	77.99
392.334	18.6
392.544	57.51
392.753	110.76
392.963	-40.79
393.172	57.51
393.382	45.23
393.591	112.81
393.801	16.55
394.01	75.95
394.22	112.81
394.429	51.37
394.639	67.75
394.848	94.38
395.058	-16.21
395.267	65.71
395.477	94.38
395.686	100.52
395.895	65.71
396.105	57.51
396.314	149.67
396.524	77.99
396.733	41.13
396.942	71.85
397.152	10.41
397.361	143.53
397.57	22.7
397.78	73.9
397.989	84.14
398.198	137.38
398.407	71.85
398.617	59.56
398.826	67.75
399.035	102.57
399.244	92.33
399.453	100.52
399.663	135.34
399.872	188.58
400.081	110.76
400.29	108.71
400.499	75.95
400.708	88.23
400.917	41.13
401.127	133.29
401.336	92.33
401.545	180.39
401.754	49.32
401.963	92.33
402.172	86.19
402.381	65.71
402.59	88.23
402.799	55.47
403.008	157.86
403.217	108.71
403.426	116.9
403.635	106.67
403.844	73.9
404.053	84.14
404.262	155.82
404.471	123.05
404.68	137.38
404.888	127.14
405.097	90.28
405.306	116.9
405.515	145.58
405.724	133.29
405.933	176.3
406.142	143.53
406.35	77.99
406.559	77.99
406.768	198.82
406.977	164.01
407.185	125.1
407.394	204.97
407.603	102.57
407.812	213.16
408.02	192.68
408.229	229.54
408.438	180.39
408.646	155.82
408.855	270.5
409.064	180.39
409.272	225.45
409.481	331.94
409.69	237.74
409.898	264.36
410.107	235.69
410.315	299.17
410.524	299.17
410.733	336.04
410.941	272.55
411.15	352.42
411.358	327.85
411.567	299.17
411.775	258.21
411.984	309.41
412.192	397.48
412.401	323.75
412.609	397.48
412.818	450.72
413.026	368.81
413.234	442.53
413.443	331.94
413.651	477.35
413.86	469.16
414.068	463.01
414.276	446.63
414.485	479.4
414.693	573.6
414.901	657.57
415.11	589.99
415.318	682.14
415.526	665.76
415.734	622.75
415.943	700.58
416.151	739.49
416.359	684.19
416.567	729.25
416.776	807.07
416.984	802.97
417.192	876.7
417.4	774.3
417.608	823.45
417.817	884.89
418.025	921.76
418.233	946.33
418.441	964.76
418.649	1034.39
418.857	1093.79
419.065	1138.84
419.273	1075.35
419.481	1140.89
419.689	1216.66
419.897	1261.72
420.105	1208.47
420.313	1300.63
420.521	1394.84
420.729	1431.7
420.937	1433.75
421.145	1452.18
421.353	1482.9
421.561	1601.68
421.769	1622.16
421.977	1669.27
422.185	1699.98
422.393	1857.68
422.601	1933.45
422.809	1886.35
423.017	1992.84
423.224	2031.76
423.432	2007.18
423.64	2156.68
423.848	2271.37
424.056	2156.68
424.263	2334.86
424.471	2424.97
424.679	2427.01
424.887	2648.19
425.094	2617.47
425.302	2650.24
425.51	2707.59
425.718	2736.26
425.925	2900.09
426.133	3039.36
426.341	3180.67
426.548	3270.78
426.756	3266.68
426.964	3311.74
427.171	3453.05
427.379	3643.51
427.586	3653.75
427.794	3715.19
428.001	3917.93
428.209	4057.2
428.417	3944.56
428.624	4268.14
428.832	4237.42
429.039	4391.02
429.247	4169.84
429.454	4735.07
429.662	4907.1
429.869	4604
430.076	4952.16
430.284	5001.31
430.491	5079.13
430.699	5204.06
430.906	5210.2
431.114	5359.7
431.321	5615.7
431.528	5664.85
431.736	6105.17
431.943	6332.49
432.15	6148.17
432.358	6115.41
432.565	6721.6
432.772	6463.56
432.979	6787.14
433.187	7057.47
433.394	7049.28
433.601	7417.91
433.808	7733.3
434.016	7329.85
434.223	7749.68
434.43	8210.48
434.637	8237.1
434.844	8548.39
435.052	8816.68
435.259	8837.16
435.466	8769.57
435.673	8517.67
435.88	9363.48
436.087	9682.97
436.294	9699.35
436.501	9533.47
436.708	9699.35
436.915	10024.98
437.122	10401.8
437.329	10627.08
437.537	10600.46
437.743	10715.14
437.95	10645.51
438.157	11304.96
438.364	11759.61
438.571	11833.33
438.778	11878.39
438.985	13010.92
439.192	12441.58
439.399	13031.4
439.606	12500.97
439.813	13213.67
440.02	14026.71
440.227	13873.11
440.433	13606.88
440.64	14006.23
440.847	14082
441.054	14385.1
441.261	15419.33
441.467	15206.34
441.674	15327.17
441.881	16080.82
442.088	15886.26
442.294	15775.67
442.501	16097.21
442.708	16654.25
442.914	17194.92
443.121	17840.03
443.328	17524.64
443.534	18812.81
443.741	17874.84
443.948	17708.96
444.154	19144.58
444.361	19097.48
444.568	18837.39
444.774	19054.47
444.981	19337.09
445.187	19922.81
445.394	20879.21
445.6	20567.92
445.807	22249.3
446.013	21385.06
446.22	21761.89
446.426	22583.12
446.633	22812.49
446.839	23568.2
447.046	22814.54
447.252	23789.38
447.459	24022.84
447.665	23772.99
447.871	24960.81
448.078	25833.25
448.284	24463.16
448.491	25751.33
448.697	26244.89
448.903	26500.89
449.11	26793.75
449.316	26435.35
449.522	26873.62
449.728	27850.5
449.935	27840.26
450.141	27936.51
450.347	28526.33
450.553	27610.89
450.76	28315.39
450.966	29228.78
451.172	28874.48
451.378	29646.57
451.584	29202.16
451.791	29558.5
451.997	29658.85
452.203	29789.92
452.409	29775.59
452.615	30045.92
452.821	28645.11
453.027	28526.33
453.233	30273.24
453.44	28856.05
453.646	29546.22
453.852	29427.43
454.058	29800.16
454.264	28976.88
454.47	29867.75
454.676	29124.33
454.882	30058.21
455.088	27592.45
455.294	27543.3
455.5	28059.39
455.705	28294.91
455.911	27279.11
456.117	26863.38
456.323	26789.65
456.529	25265.96
456.735	26148.64
456.941	25659.17
457.147	25519.91
457.352	24919.85
457.558	24311.61
457.764	24461.11
457.97	24153.91
458.176	23353.16
458.381	23519.04
458.587	22124.38
458.793	22398.8
458.999	21165.93
459.204	22673.23
459.41	22015.83
459.616	20424.56
459.821	20780.91
460.027	20694.89
460.233	20313.97
460.438	19201.93
460.644	19644.29
460.85	18474.9
461.055	18227.09
461.261	18247.57
461.466	16887.72
461.672	16439.22
461.878	17481.63
462.083	16492.46
462.289	16086.97
462.494	15712.19
462.7	15448
462.905	14747.59
463.111	15308.74
463.316	15296.45
463.522	14913.48
463.727	15083.46
463.932	15138.76
464.138	14954.44
464.343	15040.45
464.549	14426.06
464.754	14974.92
464.959	14821.32
465.165	14727.11
465.37	14010.32
465.575	13682.65
465.781	14225.36
465.986	14098.39
466.191	13570.01
466.397	13217.76
466.602	13053.92
466.807	13422.56
467.012	13369.31
467.218	13369.31
467.423	13090.79
467.628	13215.71
467.833	13713.37
468.038	13133.79
468.244	12904.42
468.449	13397.98
468.654	12814.31
468.859	12822.5
469.064	12550.12
469.269	12312.56
469.474	12400.62
469.679	12658.67
469.885	12195.82
470.09	12414.96
470.295	12406.77
470.5	12247.02
470.705	12244.98
470.91	11984.88
471.115	11755.51
471.32	11995.12
471.525	11954.16
471.73	11761.66
471.935	11597.82
472.139	11132.93
472.344	11321.34
472.549	11284.48
472.754	11044.87
472.959	10831.88
473.164	10721.29
473.369	10702.86
473.574	10803.21
473.778	10756.1
473.983	10764.29
474.188	10539.02
474.393	10149.9
474.598	10264.59
474.802	10141.71
475.007	9977.87
475.212	10106.9
475.417	9750.55
475.621	9799.7
475.826	9783.32
476.031	9455.64
476.235	9328.67
476.44	9420.83
476.645	9351.2
476.849	9371.68
477.054	9087.01
477.259	9015.33
477.463	9234.46
477.668	8777.76
477.872	9013.28
478.077	8921.12
478.282	8486.95
478.486	8564.78
478.691	8511.53
478.895	8491.05
479.1	8454.19
479.304	8525.86
479.509	8103.98
479.713	8298.54
479.918	8177.71
480.122	7899.19
480.326	7966.77
480.531	8183.85
480.735	7956.53
480.94	7823.41
481.144	8396.84
481.348	7890.99
481.553	7964.72
481.757	7661.62
481.961	7917.62
482.166	7940.15
482.37	7897.14
482.574	7948.34
482.778	7731.25
482.983	7852.08
483.187	7743.54
483.391	7825.46
483.595	7768.12
483.8	7577.66
484.004	7839.8
484.208	7704.63
484.412	7897.14
484.616	7745.59
484.821	7913.52
485.025	7624.76
485.229	7807.03
485.433	7727.16
485.637	7647.29
485.841	7620.66
486.045	7712.82
486.249	7610.42
486.453	7616.57
486.657	7745.59
486.861	7917.62
487.065	7442.49
487.269	7876.66
487.473	7575.61
487.677	7616.57
487.881	7929.91
488.085	7778.36
488.289	7739.44
488.493	7911.47
488.697	7862.32
488.901	7690.29
489.105	7813.17
489.309	7729.2
489.512	7798.84
489.716	7811.12
489.92	7909.43
490.124	7700.53
490.328	7948.34
490.531	7847.99
490.735	8042.54
490.939	7962.67
491.143	7981.1
491.346	7843.89
491.55	8149.04
491.754	8103.98
491.958	8056.88
492.161	8110.13
492.365	8136.75
492.569	8060.98
492.772	7989.3
492.976	8151.09
493.18	8282.16
493.383	8335.4
493.587	8282.16
493.79	8173.61
493.994	8245.29
494.197	8532.01
494.401	8482.86
494.605	8470.57
494.808	8675.37
495.012	9005.09
495.215	8661.03
495.419	8806.44
495.622	8808.48
495.825	9084.96
496.029	8835.11
496.232	9017.38
496.436	8978.47
496.639	9179.17
496.843	9330.72
497.046	9381.92
497.249	9308.19
497.453	9486.36
497.656	9660.44
497.859	9412.64
498.063	9703.45
498.266	10108.94
498.469	9904.15
498.673	9787.41
498.876	10158.1
499.079	10166.29
499.282	10215.44
499.485	10657.8
499.689	10715.14
499.892	10600.46
500.095	10715.14
500.298	11067.39
500.501	10815.49
500.705	11091.97
500.908	11378.69
501.111	11462.65
501.314	11409.4
501.517	11503.61
501.72	11649.02
501.923	11810.81
502.126	12132.34
502.329	12005.36
502.532	12161.01
502.735	12376.05
502.938	12599.27
503.141	12658.67
503.344	12779.5
503.547	12824.55
503.75	12967.91
503.953	13342.69
504.156	13289.44
504.359	13461.47
504.562	13385.69
504.765	13754.33
504.968	13973.46
505.17	14108.63
505.373	14512.08
505.576	14180.31
505.779	14600.14
505.982	14649.29
506.185	14938.05
506.387	14968.77
506.59	14933.96
506.793	15421.38
506.996	15314.88
507.198	15740.86
507.401	15706.04
507.604	15736.76
507.807	16324.53
508.009	16398.26
508.212	16433.07
508.415	16418.74
508.617	16760.75
508.82	16811.95
509.022	16859.05
509.225	17141.67
509.428	17375.14
509.63	17416.1
509.833	17684.38
510.035	17936.28
510.238	18081.69
510.44	18364.31
510.643	18298.77
510.845	18450.32
511.048	18677.65
511.25	19111.82
511.453	18804.62
511.655	19562.37
511.858	19218.31
512.06	19363.72
512.262	19976.06
512.465	19629.95
512.667	20105.08
512.87	20273.01
513.072	20336.5
513.274	20703.09
513.477	21145.45
513.679	21184.36
513.881	21319.53
514.084	21413.73
514.286	21495.65
514.488	21639.01
514.69	22288.21
514.893	22132.57
515.095	22413.14
515.297	22859.6
515.499	22914.89
515.701	23250.76
515.904	23236.42
516.106	23375.69
516.308	23971.64
516.51	24235.83
516.712	23830.34
516.914	24389.43
517.116	24674.1
517.318	24954.67
517.52	24799.02
517.722	25378.6
517.925	25286.44
518.127	25536.29
518.329	25630.5
518.531	25798.43
518.733	26406.68
518.935	26414.87
519.136	26533.65
519.338	26644.24
519.54	27021.07
519.742	27248.39
519.944	27168.52
520.146	27561.73
520.348	27948.8
520.55	28024.58
520.752	28184.32
520.954	28399.35
521.155	28348.15
521.357	28866.29
521.559	29189.87
521.761	29546.22
521.963	29150.96
522.164	29621.99
522.366	29834.98
522.568	30258.91
522.77	30191.33
522.971	30850.77
523.173	30201.57
523.375	30869.2
523.576	30711.51
523.778	30899.92
523.98	31631.05
524.181	31196.88
524.383	31725.25
524.584	31909.57
524.786	32005.83
524.988	31737.54
525.189	32433.85
525.391	32270.01
525.592	32638.65
525.794	32462.52
525.995	33136.31
526.197	32763.57
526.398	33013.43
526.6	33109.68
526.801	33144.5
527.003	33754.79
527.204	33697.45
527.406	33623.72
527.607	33732.26
527.808	33967.78
528.01	33623.72
528.211	33828.52
528.412	34066.08
528.614	34076.32
528.815	34401.95
529.016	34428.57
529.218	34356.89
529.419	34754.2
529.62	34449.05
529.822	34578.08
530.023	34668.19
530.224	34526.88
530.425	34633.37
530.626	34600.6
530.828	34746.01
531.029	35067.54
531.23	35126.93
531.431	34784.92
531.632	34975.38
531.833	35333.78
532.035	34983.57
532.236	35294.86
532.437	35524.24
532.638	35305.1
532.839	35708.55
533.04	35753.61
533.241	35010.2
533.442	35571.34
533.643	35475.09
533.844	35387.02
534.045	35845.77
534.246	35190.42
534.447	35686.03
534.648	35769.99
534.849	35481.23
535.05	35380.88
535.251	35542.67
535.451	35200.66
535.652	35391.12
535.853	35477.13
536.054	35649.16
536.255	35618.44
536.456	35387.02
536.657	35993.22
536.857	35397.26
537.058	35341.97
537.259	35405.45
537.46	35698.31
537.66	35622.54
537.861	35894.92
538.062	35640.97
538.263	35571.34
538.463	35419.79
538.664	35387.02
538.865	35741.32
539.065	35843.72
539.266	35069.59
539.466	35630.73
539.667	35141.27
539.868	35774.09
540.068	35487.37
540.269	35753.61
540.469	35794.57
540.67	35655.31
540.87	35454.61
541.071	35739.27
541.271	35606.16
541.472	35499.66
541.672	35337.87
541.873	35137.17
542.073	34993.81
542.274	36105.86
542.474	35384.97
542.675	35438.22
542.875	35749.51
543.075	35260.05
543.276	34895.51
543.476	35415.69
543.676	34963.09
543.877	35630.73
544.077	35567.24
544.277	34981.52
544.478	35221.14
544.678	35378.83
544.878	35282.58
545.078	35382.93
545.279	34950.81
545.479	35034.77
545.679	35473.04
545.879	35047.06
546.079	35139.22
546.28	35225.23
546.48	34512.54
546.68	35319.44
546.88	35065.49
547.08	35208.85
547.28	35155.6
547.48	34487.96
547.68	35120.79
547.88	34748.06
548.081	35438.22
548.281	34901.65
548.481	34455.2
548.681	35344.02
548.881	35317.39
549.081	35274.38
549.28	35184.27
549.48	35387.02
549.68	35077.78
549.88	35378.83
550.08	34748.06
550.28	34918.04
550.48	35102.36
550.68	35489.42
550.88	34705.05
551.08	34948.76
551.279	34905.75
551.479	34455.2
551.679	35114.64
551.879	34928.28
552.079	35014.29
552.278	34651.8
552.478	34686.62
552.678	34723.48
552.878	34614.94
553.077	35045.01
553.277	34565.79
553.477	35260.05
553.676	34987.67
553.876	34731.67
554.076	34739.86
554.275	34485.92
554.475	34102.95
554.674	34582.17
554.874	34746.01
555.074	34328.22
555.273	34911.89
555.473	34612.89
555.672	34399.9
555.872	34508.44
556.071	34530.97
556.271	34567.84
556.47	34176.67
556.67	34131.62
556.869	34205.34
557.068	34025.12
557.268	34281.12
557.467	34172.58
557.667	33898.15
557.866	34182.82
558.065	34010.79
558.265	33982.12
558.464	33879.72
558.663	33849
558.863	33500.84
559.062	34377.37
559.261	33701.54
559.461	34236.06
559.66	33664.68
559.859	33590.95
560.058	33289.9
560.258	33707.69
560.457	33248.94
560.656	33359.53
560.855	33117.87
561.054	33650.35
561.253	33349.29
561.453	33140.4
561.652	33314.48
561.851	33490.6
562.05	33564.33
562.249	32663.22
562.448	33466.03
562.647	33025.71
562.846	33013.43
563.045	33218.22
563.244	32700.09
563.443	33228.46
563.642	32626.36
563.841	32657.08
564.04	32464.57
564.239	32835.25
564.438	32468.67
564.637	32747.19
564.836	32341.69
565.035	32321.21
565.234	32495.29
565.432	32468.67
565.631	31706.82
565.83	32206.53
566.029	31923.91
566.228	31831.75
566.427	31778.5
566.625	31313.61
566.824	31532.75
567.023	31971.01
567.222	31051.47
567.42	31577.8
567.619	31760.07
567.818	31338.19
568.016	31661.77
568.215	31669.96
568.414	31262.41
568.612	31532.75
568.811	31164.11
569.01	31446.73
569.208	31012.56
569.407	31092.43
569.605	30770.9
569.804	31045.33
570.002	30645.98
570.201	30834.39
570.4	30746.33
570.598	30430.94
570.797	30070.5
570.995	30410.46
571.193	30273.24
571.392	30570.2
571.59	30123.74
571.789	30267.1
571.987	30379.74
572.186	30060.26
572.384	29849.32
572.582	30070.5
572.781	29802.21
572.979	29177.58
573.177	29472.49
573.376	29517.54
573.574	29042.42
573.772	29531.88
573.971	29230.83
574.169	29085.42
574.367	29046.51
574.565	29351.66
574.763	29056.75
574.962	29034.22
575.16	28788.47
575.358	28694.26
575.556	28499.7
575.754	29097.71
575.952	28577.53
576.151	28976.88
576.349	28593.91
576.547	28438.26
576.745	28561.14
576.943	28430.07
577.141	28288.76
577.339	28073.73
577.537	27760.39
577.735	27840.26
577.933	27789.06
578.131	28192.51
578.329	27584.26
578.527	27182.86
578.725	28163.84
578.923	27870.98
579.121	27461.38
579.319	27592.45
579.516	27653.89
579.714	27432.71
579.912	26994.45
580.11	27053.84
580.308	27037.45
580.506	26758.93
580.704	26724.11
580.901	26879.76
581.099	27084.56
581.297	26803.99
581.495	26582.81
581.692	26691.35
581.89	26550.04
582.088	26529.56
582.285	26304.28
582.483	26388.25
582.681	26404.63
582.878	26302.23
583.076	26009.37
583.274	26038.05
583.471	26341.14
583.669	25974.56
583.866	25718.56
584.064	26040.09
584.262	25507.62
584.459	25829.15
584.657	25704.23
584.854	25476.9
585.052	25085.74
585.249	25431.85
585.447	25351.98
585.644	25124.65
585.841	25540.39
586.039	25796.39
586.236	24618.8
586.434	24926
586.631	24495.92
586.828	25196.33
587.026	24692.53
587.223	24749.87
587.42	24909.61
587.618	25089.84
587.815	24639.28
588.012	24287.03
588.21	24258.36
588.407	24674.1
588.604	24315.7
588.801	24174.39
588.999	23895.87
589.196	23734.08
589.393	23973.69
589.59	23990.08
589.787	23899.97
589.984	23795.52
590.182	23633.73
590.379	23842.62
590.576	23490.37
590.773	23320.39
590.97	23527.24
591.167	23508.8
591.364	23084.87
591.561	23129.93
591.758	23170.89
591.955	23381.83
592.152	23115.59
592.349	23222.09
592.546	23068.49
592.743	23007.05
592.94	22699.86
593.137	22771.54
593.334	22832.97
593.531	22626.13
593.727	22730.58
593.924	22554.45
594.121	22255.45
594.318	22484.82
594.515	22257.5
594.712	22466.39
594.908	22079.32
595.105	22251.35
595.302	22171.48
595.499	22007.64
595.696	22024.03
595.892	21792.61
596.089	21911.39
596.286	21886.81
596.482	21546.85
596.679	21503.84
596.876	21677.92
597.072	21409.64
597.269	21466.98
597.466	21471.08
597.662	21319.53
597.859	21444.45
598.055	21526.37
598.252	21100.39
598.448	21161.83
598.645	20977.51
598.841	20871.02
599.038	20936.56
599.234	21139.3
599.431	20596.59
599.627	20582.26
599.824	20606.83
600.02	20211.57
600.217	20572.02
600.413	20305.78
600.609	20449.14
600.806	20440.95
601.002	20055.93
601.198	20088.7
601.395	20088.7
601.591	20027.26
601.787	20129.66
601.984	19910.52
602.18	20146.04
602.376	19777.4
602.572	19783.55
602.769	19615.62
602.965	19363.72
603.161	19670.91
603.357	19371.91
603.553	19343.24
603.75	19406.72
603.946	19066.76
604.142	19464.07
604.338	19191.69
604.534	19134.34
604.73	18972.55
604.926	19214.21
605.122	19079.05
605.318	18845.58
605.514	18904.97
605.71	18743.18
605.906	18800.52
606.102	18728.84
606.298	18708.37
606.494	18569.1
606.69	18884.49
606.886	18519.95
607.082	18407.31
607.278	18368.4
607.474	18245.52
607.67	18372.5
607.866	18061.21
608.062	18511.76
608.257	18341.78
608.453	18153.37
608.649	18128.79
608.845	18046.87
609.041	17889.18
609.236	18026.39
609.432	17944.47
609.628	17907.61
609.824	17840.03
610.019	17872.79
610.215	17899.42
610.411	17880.99
610.606	17760.16
610.802	17854.36
610.998	17282.98
611.193	17620.89
611.389	17624.99
611.584	17538.98
611.78	17256.36
611.976	17498.02
612.171	17375.14
612.367	17534.88
612.562	17412
612.758	17229.73
612.953	17248.16
613.149	17160.1
613.344	17235.88
613.539	17287.07
613.735	16983.98
613.93	17158.05
614.126	17084.33
614.321	17190.82
614.517	17084.33
614.712	16967.59
614.907	16842.67
615.103	16920.49
615.298	16945.06
615.493	17094.57
615.688	16701.36
615.884	17135.53
616.079	16719.79
616.274	16797.61
616.47	16742.32
616.665	16953.26
616.86	16744.36
617.055	16555.95
617.25	16373.68
617.445	16447.41
617.641	16299.95
617.836	16717.74
618.031	16170.93
618.226	16496.56
618.421	16261.04
618.616	16424.88
618.811	16007.09
619.006	16547.76
619.201	15816.63
619.396	15656.89
619.591	15959.99
619.786	16043.96
619.981	15859.64
620.176	15677.37
620.371	15691.71
620.566	15912.89
620.761	15456.19
620.956	15507.39
621.151	15511.49
621.346	15450.05
621.541	15128.52
621.735	15329.22
621.93	15165.38
622.125	14968.77
622.32	14784.46
622.515	14987.21
622.709	14716.87
622.904	14596.04
623.099	14583.76
623.294	14671.82
623.488	14446.54
623.683	14561.23
623.878	14444.49
624.072	14294.99
624.267	14303.18
624.462	14294.99
624.656	14084.05
624.851	14227.41
625.046	14057.43
625.24	13664.22
625.435	13625.31
625.629	13705.18
625.824	13565.92
626.018	13739.99
626.213	13273.06
626.407	13547.48
626.602	13090.79
626.796	13389.79
626.991	13125.6
627.185	13246.43
627.38	13053.92
627.574	13121.51
627.768	12926.95
627.963	12916.71
628.157	12861.41
628.352	12922.85
628.546	12455.92
628.74	12589.03
628.935	12404.72
629.129	12720.1
629.323	12238.83
629.517	12273.65
629.712	12357.61
629.906	12191.73
630.1	12109.81
630.294	12210.16
630.489	11638.78
630.683	11968.5
630.877	11708.41
631.071	11741.18
631.265	11812.85
631.459	11702.26
631.653	11550.71
631.848	11667.45
632.042	11501.56
632.236	11513.85
632.43	11347.97
632.624	11350.01
632.818	11159.55
633.012	11335.68
633.206	11266.05
633.4	11083.78
633.594	11100.16
633.788	10932.23
633.982	11094.02
634.176	10921.99
634.369	10856.45
634.563	10723.34
634.757	10936.32
634.951	10817.54
635.145	10543.11
635.339	10659.85
635.533	10455.05
635.726	10518.54
635.92	10362.89
636.114	10375.18
636.308	10362.89
636.501	10194.96
636.695	10158.1
636.889	10059.79
637.083	10158.1
637.276	10317.84
637.47	10078.22
637.664	10053.65
637.857	10027.03
638.051	9822.23
638.244	9621.53
638.438	9816.08
638.632	9658.39
638.825	9545.75
639.019	9441.31
639.212	9492.51
639.406	9478.17
639.599	9447.45
639.793	9381.92
639.986	9119.78
640.18	9179.17
640.373	9259.04
640.567	9150.5
640.76	9226.27
640.954	9246.75
641.147	8998.95
641.34	8882.21
641.534	8839.2
641.727	8851.49
641.92	8906.79
642.114	8654.89
642.307	8794.15
642.5	8699.94
642.694	8677.41
642.887	8593.45
643.08	8544.3
643.273	8622.12
643.467	8366.12
643.66	8400.94
643.853	8560.68
644.046	8218.67
644.239	8138.8
644.432	8093.74
644.626	8224.81
644.819	8194.09
645.012	8108.08
645.205	8171.57
645.398	7993.39
645.591	7989.3
645.784	7950.39
645.977	7956.53
646.17	8005.68
646.363	7825.46
646.556	7610.42
646.749	7585.85
646.942	7860.27
647.135	7589.94
647.328	7835.7
647.521	7696.44
647.714	7620.66
647.907	7532.6
648.099	7450.68
648.292	7604.28
648.485	7319.61
648.678	7209.02
648.871	7200.83
649.064	7206.97
649.256	7315.52
649.449	7151.68
649.642	7200.83
649.835	7077.95
650.027	6987.84
650.22	7014.46
650.413	7100.48
650.605	7018.56
650.798	6924.35
650.991	6811.71
651.183	6856.77
651.376	6754.37
651.568	6699.08
651.761	6488.14
651.954	6701.12
652.146	6451.27
652.339	6717.51
652.531	6701.12
652.724	6600.77
652.916	6412.36
653.109	6490.18
653.301	6520.9
653.494	6496.33
653.686	6180.94
653.879	6545.48
654.071	6082.64
654.263	6238.28
654.456	6176.84
654.648	6359.11
654.84	6092.88
655.033	6144.08
655.225	6080.59
655.417	5888.08
655.61	6029.39
655.802	6101.07
655.994	6043.73
656.186	5830.74
656.379	5914.7
656.571	5732.44
656.763	5955.66
656.955	5787.73
657.148	5685.33
657.34	5847.12
657.532	5744.72
657.724	5714
657.916	5578.84
658.108	5566.55
658.3	5621.84
658.492	5664.85
658.684	5539.93
658.876	5417.05
659.068	5445.72
659.26	5605.46
659.452	5501.01
659.644	5480.54
659.836	5333.08
660.028	5374.04
660.22	5316.7
660.412	5288.03
660.604	5130.33
660.796	5261.4
660.988	5191.77
661.18	5075.04
661.372	5103.71
661.563	5142.62
661.755	5171.29
661.947	4980.83
662.139	5058.65
662.331	4948.06
662.522	4950.11
662.714	5075.04
662.906	4808.8
663.097	4941.92
663.289	4800.61
663.481	4780.13
663.673	4890.72
663.864	4823.14
664.056	4794.47
664.247	4739.17
664.439	4769.89
664.631	4819.04
664.822	4714.59
665.014	4655.2
665.205	4542.57
665.397	4751.46
665.588	4528.23
665.78	4554.85
665.971	4499.56
666.163	4563.05
666.354	4444.26
666.546	4431.98
666.737	4423.78
666.929	4401.26
667.12	4419.69
667.311	4403.3
667.503	4223.08
667.694	4370.54
667.885	4485.22
668.077	4278.38
668.268	4239.47
668.459	4280.43
668.651	4204.65
668.842	4288.62
669.033	4182.12
669.224	4112.49
669.416	4175.98
669.607	4098.16
669.798	4180.07
669.989	4071.53
670.18	4014.19
670.371	4073.58
670.563	3891.31
670.754	4036.72
670.945	3915.89
671.136	4010.09
671.327	3889.26
671.518	3973.23
671.709	3829.87
671.9	3981.42
672.091	4049
672.282	3833.97
672.473	3821.68
672.664	3799.15
672.855	3670.13
673.046	3864.69
673.237	3838.06
673.428	3928.17
673.619	3799.15
673.809	3694.71
674	3633.27
674.191	3731.57
674.382	3522.68
674.573	3747.95
674.764	3690.61
674.954	3606.64
675.145	3643.51
675.336	3573.88
675.527	3600.5
675.717	3645.56
675.908	3565.68
676.099	3561.59
676.289	3494.01
676.48	3473.53
676.671	3465.33
676.861	3616.88
677.052	3522.68
677.243	3426.42
677.433	3512.44
677.624	3469.43
677.814	3442.81
678.005	3385.46
678.195	3479.67
678.386	3389.56
678.576	3260.54
678.767	3346.55
678.957	3260.54
679.148	3428.47
679.338	3301.5
679.529	3180.67
679.719	3303.54
679.909	3354.74
680.1	3238.01
680.29	3285.11
680.481	3195
680.671	3151.99
680.861	3309.69
681.052	3342.46
681.242	3295.35
681.432	3299.45
681.622	3147.9
681.813	3178.62
682.003	3207.29
682.193	3168.38
682.383	3254.39
682.573	3037.31
682.764	3213.43
682.954	3164.28
683.144	3025.02
683.334	3156.09
683.524	3068.03
683.714	3145.85
683.904	3043.45
684.094	3111.04
684.284	3168.38
684.474	3141.75
684.664	3006.59
684.854	3106.94
685.044	3022.97
685.234	2957.44
685.424	3018.88
685.614	3020.92
685.804	3059.84
685.994	3080.32
686.184	3078.27
686.374	2885.76
686.564	3008.64
686.753	2990.21
686.943	2930.81
687.133	2898.05
687.323	2822.27
687.513	2850.94
687.702	2787.46
687.892	2781.31
688.082	2869.37
688.272	2773.12
688.461	2904.19
688.651	2922.62
688.841	2719.87
689.03	2721.92
689.22	2713.73
689.41	2795.65
689.599	2822.27
689.789	2738.3
689.979	2678.91
690.168	2771.07
690.358	2678.91
690.547	2754.69
690.737	2752.64
690.926	2609.28
691.116	2588.8
691.305	2654.34
691.495	2695.3
691.684	2629.76
691.874	2607.23
692.063	2613.38
692.252	2623.62
692.442	2613.38
692.631	2558.08
692.82	2590.85
693.01	2572.42
693.199	2556.04
693.388	2556.04
693.578	2490.5
693.767	2527.36
693.956	2400.39
694.146	2433.16
694.335	2457.73
694.524	2646.15
694.713	2435.21
694.902	2443.4
695.092	2355.33
695.281	2463.88
695.47	2506.88
695.659	2402.44
695.848	2490.5
696.037	2334.86
696.226	2427.01
696.415	2349.19
696.604	2480.26
696.793	2402.44
696.982	2326.66
697.171	2361.48
697.36	2386.05
697.549	2349.19
697.738	2416.77
697.927	2408.58
698.116	2326.66
698.305	2211.98
698.494	2269.32
698.683	2304.14
698.872	2400.39
699.061	2269.32
699.25	2279.56
699.438	2238.6
699.627	2353.29
699.816	2392.2
700.005	2310.28
700.193	2297.99
700.382	2351.24
700.571	2343.05
700.76	2263.18
700.948	2306.18
701.137	2211.98
701.326	2384.01
701.514	2297.99
701.703	2287.75
701.892	2306.18
702.08	2353.29
702.269	2211.98
702.457	2228.36
702.646	2224.26
702.834	2224.26
703.023	2142.35
703.212	2236.55
703.4	2269.32
703.589	2138.25
703.777	2232.46
703.965	2199.69
704.154	2357.38
704.342	2300.04
704.531	2191.5
704.719	2158.73
704.907	2211.98
705.096	2138.25
705.284	2156.68
705.472	2236.55
705.661	2078.86
705.849	2252.94
706.037	2156.68
706.226	2269.32
706.414	2220.17
706.602	2168.97
706.79	2263.18
706.979	2197.64
707.167	2203.79
707.355	2003.08
707.543	2263.18
707.731	2175.11
707.919	2015.37
708.107	2263.18
708.296	2148.49
708.484	2121.87
708.672	2195.59
708.86	2156.68
709.048	2074.76
709.236	2113.67
709.424	2410.63
709.612	2105.48
709.8	2099.34
709.988	2089.1
710.176	2230.41
710.364	2244.74
710.551	2187.4
710.739	2072.72
710.927	2031.76
711.115	2082.95
711.303	2093.19
711.491	2115.72
711.679	2048.14
711.866	2123.91
712.054	2154.63
712.242	2177.16
712.43	2121.87
712.617	2115.72
712.805	2085
712.993	2105.48
713.181	2187.4
713.368	2173.07
713.556	2117.77
713.744	2103.43
713.931	2308.23
714.119	2134.15
714.306	2156.68
714.494	2058.38
714.682	2173.07
714.869	2082.95
715.057	2175.11
715.244	2005.13
715.432	2058.38
715.619	2158.73
715.807	2193.55
715.994	2107.53
716.182	2007.18
716.369	2031.76
716.556	2107.53
716.744	2121.87
716.931	2160.78
717.119	2068.62
717.306	2037.9
717.493	2082.95
717.681	2068.62
717.868	2082.95
718.055	1968.27
718.242	2148.49
718.43	2021.52
718.617	2080.91
718.804	2080.91
718.991	2042
719.179	2019.47
719.366	2142.35
719.553	2089.1
719.74	2072.72
719.927	2195.59
720.114	2111.63
720.301	2066.57
720.488	2146.44
720.676	2107.53
720.863	2046.09
721.05	2091.15
721.237	2025.61
721.424	2056.33
721.611	2125.96
721.798	2019.47
721.985	2039.95
722.172	2097.29
722.358	2181.26
722.545	1966.22
722.732	2039.95
722.919	1990.8
723.106	2107.53
723.293	2076.81
723.48	2031.76
723.667	1962.12
723.853	1958.03
724.04	2140.3
724.227	2074.76
724.414	2066.57
724.6	2033.8
724.787	2064.52
724.974	2130.06
725.161	2052.24
725.347	2044.04
725.534	2007.18
725.72	2007.18
725.907	2068.62
726.094	2050.19
726.28	2058.38
726.467	2025.61
726.653	1974.41
726.84	2076.81
727.027	2042
727.213	2005.13
727.4	2015.37
727.586	1958.03
727.773	2023.56
727.959	2070.67
728.145	1941.65
728.332	2015.37
728.518	1910.93
728.705	2080.91
728.891	2052.24
729.077	2107.53
729.264	2101.39
729.45	2031.76
729.636	2039.95
729.823	1884.3
730.009	2048.14
730.195	1976.46
730.382	2136.2
730.568	1960.08
730.754	2064.52
730.94	1974.41
731.126	2066.57
731.313	2068.62
731.499	2060.43
731.685	2101.39
731.871	2183.31
732.057	2027.66
732.243	1925.26
732.429	2080.91
732.615	2076.81
732.801	1919.12
732.987	1960.08
733.173	2068.62
733.359	2021.52
733.545	2056.33
733.731	2009.23
733.917	1884.3
734.103	1996.94
734.289	1966.22
734.475	1990.8
734.661	2052.24
734.847	2031.76
735.033	1966.22
735.219	1992.84
735.404	1917.07
735.59	1935.5
735.776	1910.93
735.962	1941.65
736.148	1960.08
736.333	1867.92
736.519	1921.17
736.705	1894.54
736.89	1935.5
737.076	2007.18
737.262	1960.08
737.447	1941.65
737.633	1970.32
737.819	1917.07
738.004	1929.36
738.19	1853.58
738.375	1925.26
738.561	2023.56
738.747	1859.73
738.932	1939.6
739.118	1976.46
739.303	1939.6
739.489	1851.53
739.674	1806.48
739.859	1890.45
740.045	1927.31
740.23	1812.62
740.416	1894.54
740.601	1818.77
740.786	1843.34
740.972	1835.15
741.157	1835.15
741.342	1859.73
741.528	1851.53
741.713	1816.72
741.898	1792.14
742.084	1912.97
742.269	1849.49
742.454	1777.81
742.639	1904.78
742.824	1753.23
743.01	1818.77
743.195	1765.52
743.38	1802.38
743.565	1720.46
743.75	1747.09
743.935	1724.56
744.12	1650.83
744.305	1648.79
744.49	1745.04
744.675	1769.62
744.86	1634.45
745.045	1691.79
745.23	1671.31
745.415	1638.55
745.6	1616.02
745.785	1634.45
745.97	1714.32
746.155	1755.28
746.34	1697.94
746.525	1697.94
746.71	1661.07
746.895	1564.82
747.079	1638.55
747.264	1558.67
747.449	1597.59
747.634	1607.83
747.819	1642.64
748.003	1616.02
748.188	1579.15
748.373	1575.06
748.557	1425.56
748.742	1507.48
748.927	1534.1
749.111	1591.44
749.296	1450.13
749.481	1462.42
749.665	1380.5
749.85	1357.97
750.034	1425.56
750.219	1484.95
750.404	1511.57
750.588	1527.96
750.773	1343.64
750.957	1452.18
751.141	1396.89
751.326	1400.98
751.51	1474.71
751.695	1427.6
751.879	1450.13
752.064	1425.56
752.248	1394.84
752.432	1398.93
752.617	1400.98
752.801	1384.6
752.985	1345.69
753.17	1269.91
753.354	1364.12
753.538	1163.42
753.722	1335.45
753.907	1296.53
754.091	1245.34
754.275	1347.73
754.459	1220.76
754.643	1255.58
754.828	1239.19
755.012	1247.38
755.196	1198.23
755.38	1192.09
755.564	1159.32
755.748	1237.14
755.932	1241.24
756.116	1319.06
756.3	1255.58
756.484	1138.84
756.668	1190.04
756.852	999.58
757.036	1212.57
757.22	1179.8
757.404	1165.46
757.588	1048.73
757.772	1099.93
757.956	1179.8
758.14	1122.46
758.323	1175.7
758.507	1048.73
758.691	1106.07
758.875	1138.84
759.059	1122.46
759.242	1036.44
759.426	1005.72
759.61	1022.11
759.794	1001.63
759.977	1036.44
760.161	1056.92
760.345	1042.59
760.528	1007.77
760.712	1081.5
760.895	1026.2
761.079	968.86
761.263	1032.35
761.446	954.52
761.63	878.75
761.813	950.43
761.997	970.91
762.18	956.57
762.364	1083.55
762.547	893.09
762.731	925.85
762.914	893.09
763.098	938.14
763.281	966.81
763.464	983.2
763.648	860.32
763.831	874.65
764.015	909.47
764.198	895.13
764.381	864.41
764.564	862.37
764.748	790.69
764.931	958.62
765.114	944.28
765.297	975
765.481	956.57
765.664	909.47
765.847	860.32
766.03	942.24
766.213	843.93
766.397	907.42
766.58	897.18
766.763	882.85
766.946	817.31
767.129	825.5
767.312	880.8
767.495	821.41
767.678	870.56
767.861	829.6
768.044	860.32
768.227	780.45
768.41	901.28
768.593	942.24
768.776	843.93
768.959	848.03
769.142	831.65
769.324	786.59
769.507	805.02
769.69	786.59
769.873	800.93
770.056	929.95
770.239	807.07
770.421	856.22
770.604	798.88
770.787	786.59
770.97	811.17
771.152	708.77
771.335	809.12
771.518	700.58
771.7	688.29
771.883	788.64
772.066	721.06
772.248	786.59
772.431	780.45
772.613	741.54
772.796	737.44
772.978	721.06
773.161	723.1
773.343	755.87
773.526	786.59
773.708	592.03
773.891	618.66
774.073	729.25
774.256	721.06
774.438	780.45
774.621	680.1
774.803	630.95
774.985	647.33
775.168	667.81
775.35	577.7
775.532	632.99
775.715	573.6
775.897	673.95
776.079	622.75
776.261	639.14
776.444	688.29
776.626	731.3
776.808	669.86
776.99	561.31
777.173	641.18
777.355	524.45
777.537	624.8
777.719	632.99
777.901	575.65
778.083	616.61
778.265	446.63
778.447	641.18
778.629	538.79
778.811	622.75
778.993	561.31
779.175	573.6
779.357	630.95
779.539	501.92
779.721	602.27
779.903	536.74
780.085	528.55
780.267	549.03
780.449	526.5
780.631	542.88
780.812	569.51
780.994	514.21
781.176	469.16
781.358	442.53
781.54	460.96
781.721	516.26
781.903	526.5
782.085	522.4
782.267	491.68
782.448	510.11
782.63	530.59
782.812	501.92
782.993	463.01
783.175	426.15
783.357	524.45
783.538	403.62
783.72	434.34
783.901	442.53
784.083	452.77
784.264	413.86
784.446	327.85
784.627	483.49
784.809	401.57
784.99	463.01
785.172	483.49
785.353	403.62
785.535	434.34
785.716	331.94
785.897	471.2
786.079	426.15
786.26	368.81
786.441	407.72
786.623	379.04
786.804	452.77
786.985	340.13
787.167	321.7
787.348	409.76
787.529	338.09
787.71	377
787.891	467.11
788.073	366.76
788.254	338.09
788.435	469.16
788.616	389.28
788.797	385.19
788.978	354.47
789.159	331.94
789.34	377
789.522	311.46
789.703	336.04
789.884	256.17
790.065	469.16
790.246	374.95
790.427	346.28
790.607	295.08
790.788	295.08
790.969	379.04
791.15	362.66
791.331	342.18
791.512	313.51
791.693	327.85
791.874	307.37
792.054	327.85
792.235	336.04
792.416	254.12
792.597	311.46
792.778	272.55
792.958	256.17
793.139	303.27
793.32	303.27
793.5	272.55
793.681	379.04
793.862	239.78
794.042	352.42
794.223	209.06
794.404	303.27
794.584	235.69
794.765	315.56
794.945	237.74
795.126	336.04
795.306	262.31
795.487	321.7
795.667	264.36
795.848	321.7
796.028	166.06
796.209	311.46
796.389	286.89
796.57	225.45
796.75	231.59
796.93	217.26
797.111	254.12
797.291	272.55
797.471	290.98
797.652	270.5
797.832	229.54
798.012	319.65
798.192	139.43
798.373	215.21
798.553	270.5
798.733	237.74
798.913	147.62
799.093	235.69
799.274	180.39
799.454	272.55
799.634	211.11
799.814	295.08
799.994	307.37
800.174	155.82
800.354	178.34
800.534	254.12
800.714	180.39
800.894	157.86
801.074	151.72
801.254	168.1
801.434	168.1
801.614	194.73
801.794	229.54
801.974	811.17
802.154	182.44
802.334	207.02
802.514	225.45
802.693	200.87
802.873	229.54
803.053	262.31
803.233	223.4
803.413	213.16
803.592	168.1
803.772	159.91
803.952	131.24
804.131	176.3
804.311	141.48
804.491	161.96
804.67	108.71
804.85	164.01
805.03	200.87
805.209	176.3
805.389	86.19
805.568	155.82
805.748	200.87
805.928	172.2
806.107	133.29
806.287	116.9
806.466	118.95
806.646	116.9
806.825	178.34
807.004	80.04
807.184	164.01
807.363	237.74
807.543	100.52
807.722	198.82
807.901	161.96
808.081	204.97
808.26	73.9
808.439	225.45
808.619	161.96
808.798	182.44
808.977	151.72
809.156	121
809.336	141.48
809.515	125.1
809.694	116.9
809.873	114.86
810.052	139.43
810.231	196.78
810.411	239.78
810.59	69.8
810.769	90.28
810.948	215.21
811.127	90.28
811.306	161.96
811.485	180.39
811.664	155.82
811.843	145.58
812.022	123.05
812.201	145.58
812.38	141.48
812.559	104.62
812.737	215.21
812.916	67.75
813.095	123.05
813.274	112.81
813.453	198.82
813.632	168.1
813.811	141.48
813.989	131.24
814.168	77.99
814.347	90.28
814.526	73.9
814.704	172.2
814.883	149.67
815.062	135.34
815.24	125.1
815.419	49.32
815.598	164.01
815.776	37.03
815.955	51.37
816.133	67.75
816.312	143.53
816.49	98.47
816.669	143.53
816.847	98.47
817.026	196.78
817.204	75.95
817.383	131.24
817.561	57.51
817.74	129.19
817.918	53.42
818.097	145.58
818.275	53.42
818.453	4.27
818.632	32.94
818.81	59.56
818.988	139.43
819.167	147.62
819.345	131.24
819.523	155.82
819.701	75.95
819.879	188.58
820.058	131.24
820.236	98.47
820.414	90.28
820.592	108.71
820.77	108.71
820.948	43.18
821.127	43.18
821.305	100.52
821.483	147.62
821.661	213.16
821.839	88.23
822.017	59.56
822.195	129.19
822.373	133.29
822.551	90.28
822.729	75.95
822.907	133.29
823.085	106.67
823.262	45.23
823.44	84.14
823.618	4.27
823.796	67.75
823.974	108.71
824.152	57.51
824.329	125.1
824.507	84.14
824.685	131.24
824.863	65.71
825.04	90.28
825.218	98.47
825.396	28.84
825.574	98.47
825.751	104.62
825.929	88.23
826.107	65.71
826.284	53.42
826.462	86.19
826.639	49.32
826.817	55.47
826.994	90.28
827.172	110.76
827.349	112.81
827.527	141.48
827.704	57.51
827.882	84.14
828.059	114.86
828.237	43.18
828.414	65.71
828.591	8.36
828.769	75.95
828.946	20.65
829.124	143.53
829.301	133.29
829.478	41.13
829.655	94.38
829.833	86.19
830.01	32.94
830.187	77.99
830.364	102.57
830.542	69.8
830.719	168.1
830.896	18.6
831.073	63.66
831.25	149.67
831.427	24.75
831.604	2.22
831.782	37.03
831.959	102.57
832.136	71.85
832.313	69.8
832.49	102.57
832.667	80.04
832.844	73.9
833.021	133.29
833.198	32.94
833.374	151.72
833.551	57.51
833.728	8.36
833.905	37.03
834.082	73.9
834.259	90.28
834.436	123.05
834.612	71.85
834.789	45.23
834.966	92.33
835.143	133.29
835.319	-3.93
835.496	90.28
835.673	102.57
835.85	108.71
836.026	92.33
836.203	26.79
836.38	82.09
836.556	39.08
836.733	92.33
836.909	131.24
837.086	118.95
837.262	57.51
837.439	-3.93
837.616	82.09
837.792	104.62
837.968	69.8
838.145	53.42
838.321	77.99
838.498	65.71
838.674	16.55
838.851	59.56
839.027	82.09
839.203	20.65
839.38	69.8
839.556	-16.21
839.732	69.8
839.909	106.67
840.085	82.09
840.261	53.42
840.437	8.36
840.614	90.28
840.79	65.71
840.966	55.47
841.142	96.43
841.318	43.18
841.494	57.51
841.671	100.52
841.847	47.27
842.023	45.23
842.199	77.99
842.375	34.99
842.551	30.89
842.727	-44.88
842.903	125.1
843.079	24.75
843.255	141.48
843.431	28.84
843.607	73.9
843.783	4.27
843.959	30.89
844.134	10.41
844.31	65.71
844.486	37.03
844.662	-8.02
844.838	-32.6
845.013	176.3
845.189	32.94
845.365	-20.31
845.541	-8.02
845.716	10.41
845.892	43.18
846.068	-28.5
846.244	28.84
846.419	49.32
846.595	92.33
846.77	-32.6
846.946	43.18
847.122	32.94
847.297	92.33
847.473	53.42
847.648	41.13
847.824	65.71
847.999	-53.08
848.175	57.51
848.35	116.9
848.526	24.75
848.701	24.75
848.876	41.13
849.052	-20.31
849.227	69.8
849.403	-5.97
849.578	34.99
849.753	6.31
849.929	28.84
850.104	-16.21
850.279	2.22
850.454	-1.88
850.63	75.95
850.805	-3.93
850.98	10.41
851.155	53.42
851.33	8.36
851.505	86.19
851.681	53.42
851.856	57.51
852.031	34.99
852.206	94.38
852.381	-24.4
852.556	28.84
852.731	-8.02
852.906	34.99
853.081	96.43
853.256	49.32
853.431	39.08
853.606	100.52
853.781	43.18
853.956	-67.41
854.131	77.99
854.305	37.03
854.48	-8.02
854.655	-38.74
854.83	-36.69
855.005	-22.36
855.18	67.75
855.354	43.18
855.529	57.51
855.704	10.41
855.879	2.22
856.053	18.6
856.228	102.57
856.403	-28.5
856.577	90.28
856.752	6.31
856.926	2.22
857.101	18.6
857.276	-40.79
857.45	16.55
857.625	-16.21
857.799	41.13
857.974	6.31
858.148	-40.79
858.323	0.17
858.497	10.41
858.672	61.61
858.846	-16.21
859.02	-24.4
859.195	34.99
859.369	-8.02
859.543	51.37
859.718	32.94
859.892	24.75
860.066	-32.6
860.241	-40.79
860.415	-24.4
860.589	4.27
860.763	-20.31
860.938	-83.8
861.112	-10.07
861.286	73.9
861.46	4.27
861.634	-46.93
861.808	26.79
861.982	16.55
862.157	45.23
862.331	-16.21
862.505	-73.56
862.679	30.89
862.853	49.32
863.027	39.08
863.201	16.55
863.375	51.37
863.549	-30.55
863.722	-16.21
863.896	2.22
864.07	16.55
864.244	28.84
864.418	57.51
864.592	12.46
864.766	20.65
864.939	0.17
865.113	-30.55
865.287	-40.79
865.461	-18.26
865.634	51.37
865.808	-16.21
865.982	14.51
866.156	-20.31
866.329	49.32
866.503	69.8
866.676	43.18
866.85	61.61
867.024	49.32
867.197	-8.02
867.371	0.17
867.544	-22.36
867.718	-73.56
867.891	43.18
868.065	-55.12
868.238	-38.74
868.412	0.17
868.585	-18.26
868.759	16.55
868.932	-5.97
869.105	-53.08
869.279	34.99
869.452	-8.02
869.625	32.94
869.799	28.84
869.972	-40.79
870.145	37.03
870.319	-61.27
870.492	-40.79
870.665	-46.93
870.838	-30.55
871.011	-77.65
871.185	-73.56
871.358	57.51
871.531	32.94
871.704	26.79
871.877	-22.36
872.05	-36.69
872.223	32.94
872.396	-20.31
872.569	16.55
872.742	8.36
872.915	-3.93
873.088	-1.88
873.261	-59.22
873.434	-1.88
873.607	59.56
873.78	10.41
873.953	-12.12
874.126	43.18
874.299	51.37
874.471	-71.51
874.644	53.42
874.817	59.56
874.99	49.32
875.163	-57.17
875.335	61.61
875.508	18.6
875.681	-8.02
875.853	41.13
876.026	12.46
876.199	26.79
876.371	-32.6
876.544	-18.26
876.717	-3.93
876.889	-53.08
877.062	26.79
877.234	-38.74
877.407	26.79
877.579	-28.5
877.752	16.55
877.924	10.41
878.097	34.99
878.269	41.13
878.442	32.94
878.614	16.55
878.786	34.99
878.959	8.36
879.131	53.42
879.303	-24.4
879.476	-36.69
879.648	75.95
879.82	-65.36
879.993	-40.79
880.165	-5.97
880.337	24.75
880.509	16.55
880.681	-40.79
880.854	-24.4
881.026	45.23
881.198	86.19
881.37	-36.69
881.542	-5.97
881.714	-73.56
881.886	69.8
882.058	-30.55
882.23	-81.75
882.402	-24.4
882.574	32.94
882.746	-1.88
882.918	0.17
883.09	65.71
883.262	37.03
883.434	-48.98
883.606	-38.74
883.778	-12.12
883.95	8.36
884.122	0.17
884.293	-16.21
884.465	-24.4
884.637	32.94
884.809	-71.51
884.98	86.19
885.152	-46.93
885.324	10.41
885.496	16.55
885.667	4.27
885.839	53.42
886.011	0.17
886.182	43.18
886.354	8.36
886.525	6.31
886.697	-38.74
886.869	-24.4
887.04	4.27
887.212	16.55
887.383	57.51
887.555	16.55
887.726	8.36
887.897	-20.31
888.069	69.8
888.24	49.32
888.412	41.13
888.583	-8.02
888.754	-30.55
888.926	-38.74
889.097	26.79
889.268	-53.08
889.44	-32.6
889.611	-53.08
889.782	-8.02
889.953	-55.12
890.125	24.75
890.296	-57.17
890.467	32.94
890.638	-91.99
890.809	53.42
890.98	-57.17
891.151	-3.93
891.323	-3.93
891.494	-18.26
891.665	-1.88
891.836	-65.36
892.007	-26.45
892.178	18.6
892.349	43.18
892.52	-8.02
892.691	-18.26
892.862	18.6
893.032	-20.31
893.203	8.36
893.374	8.36
893.545	43.18
893.716	-38.74
893.887	65.71
894.057	-24.4
894.228	12.46
894.399	14.51
894.57	53.42
894.74	8.36
894.911	90.28
895.082	-30.55
895.253	0.17
895.423	118.95
895.594	65.71
895.764	8.36
895.935	10.41
896.106	-14.17
896.276	-16.21
896.447	12.46
896.617	-94.04
896.788	-38.74
896.958	-98.13
897.129	2.22
897.299	-32.6
897.47	20.65
897.64	-26.45
897.81	106.67
897.981	0.17
898.151	-48.98
898.322	-10.07
898.492	41.13
898.662	20.65
898.832	2.22
899.003	18.6
899.173	18.6
899.343	26.79
899.513	-87.89
