Data from USB4F104151__190__14-45-11-572.txt Node

Date: Thu Mar 13 14:45:11 EDT 2025
User: louis
Spectrometer: USB4F10415
Trigger mode: 4
Integration Time (sec): 2.000000E-2
Scans to average: 1
Electric dark correction enabled: true
Nonlinearity correction enabled: false
Boxcar width: 0
XAxis mode: Wavelengths
Number of Pixels in Spectrum: 3648
>>>>>Begin Spectral Data<<<<<
178.204	-119.64
178.424	-119.64
178.644	-119.64
178.864	-150.36
179.084	-111.44
179.304	-50
179.524	-62.29
179.744	-37.72
179.964	76.97
180.184	-35.67
180.404	-41.81
180.624	68.78
180.844	134.31
181.064	-56.15
181.283	-9.05
181.503	-13.14
181.723	25.77
181.943	27.82
182.163	29.87
182.383	-7
182.602	3.24
182.822	40.11
183.042	-4.95
183.262	-9.05
183.482	79.02
183.701	101.55
183.921	-2.9
184.141	13.48
184.361	-0.85
184.58	15.53
184.8	11.43
185.02	23.72
185.239	-29.52
185.459	64.68
185.679	56.49
185.898	21.67
186.118	79.02
186.338	-13.14
186.557	5.29
186.777	44.2
186.997	11.43
187.216	23.72
187.436	68.78
187.655	13.48
187.875	36.01
188.095	23.72
188.314	25.77
188.534	54.44
188.753	25.77
188.973	91.31
189.192	21.67
189.412	-70.48
189.631	48.3
189.851	-9.05
190.07	60.59
190.29	-39.76
190.509	27.82
190.729	40.11
190.948	107.69
191.168	148.65
191.387	62.63
191.607	15.53
191.826	46.25
192.045	40.11
192.265	79.02
192.484	-21.33
192.704	-4.95
192.923	36.01
193.142	52.39
193.362	48.3
193.581	13.48
193.8	5.29
194.02	29.87
194.239	-2.9
194.458	60.59
194.678	48.3
194.897	-43.86
195.116	11.43
195.335	-2.9
195.555	7.34
195.774	-2.9
195.993	109.74
196.212	-13.14
196.432	-17.24
196.651	-19.29
196.87	-74.58
197.089	68.78
197.308	21.67
197.528	95.4
197.747	-2.9
197.966	-9.05
198.185	44.2
198.404	79.02
198.623	74.92
198.842	68.78
199.062	19.63
199.281	68.78
199.5	54.44
199.719	93.35
199.938	-19.29
200.157	87.21
200.376	93.35
200.595	-9.05
200.814	52.39
201.033	1.19
201.252	68.78
201.471	56.49
201.69	52.39
201.909	58.54
202.128	-2.9
202.347	5.29
202.566	56.49
202.785	-54.1
203.004	-13.14
203.223	85.16
203.442	52.39
203.661	46.25
203.879	-4.95
204.098	68.78
204.317	17.58
204.536	101.55
204.755	13.48
204.974	29.87
205.193	70.83
205.411	79.02
205.63	136.36
205.849	21.67
206.068	-2.9
206.287	5.29
206.505	52.39
206.724	-29.52
206.943	-29.52
207.162	72.87
207.381	21.67
207.599	52.39
207.818	7.34
208.037	19.63
208.255	31.91
208.474	56.49
208.693	23.72
208.911	-27.48
209.13	76.97
209.349	72.87
209.567	-4.95
209.786	27.82
210.005	3.24
210.223	29.87
210.442	36.01
210.661	36.01
210.879	46.25
211.098	11.43
211.316	-72.53
211.535	70.83
211.753	70.83
211.972	79.02
212.191	17.58
212.409	27.82
212.628	152.74
212.846	-95.06
213.065	52.39
213.283	126.12
213.502	-17.24
213.72	124.07
213.938	-13.14
214.157	40.11
214.375	33.96
214.594	-29.52
214.812	-37.72
215.031	70.83
215.249	27.82
215.467	60.59
215.686	58.54
215.904	-33.62
216.122	46.25
216.341	83.11
216.559	-2.9
216.778	85.16
216.996	36.01
217.214	87.21
217.432	-45.91
217.651	-27.48
217.869	89.26
218.087	-43.86
218.306	3.24
218.524	44.2
218.742	-52.05
218.96	76.97
219.179	11.43
219.397	11.43
219.615	19.63
219.833	-4.95
220.051	-13.14
220.27	117.93
220.488	9.39
220.706	25.77
220.924	19.63
221.142	70.83
221.36	7.34
221.578	15.53
221.796	38.06
222.015	36.01
222.233	-35.67
222.451	117.93
222.669	72.87
222.887	44.2
223.105	76.97
223.323	-0.85
223.541	-21.33
223.759	13.48
223.977	81.07
224.195	89.26
224.413	1.19
224.631	76.97
224.849	13.48
225.067	70.83
225.285	11.43
225.503	-45.91
225.721	27.82
225.939	-21.33
226.157	-19.29
226.375	128.17
226.592	19.63
226.81	-11.09
227.028	79.02
227.246	66.73
227.464	74.92
227.682	13.48
227.9	36.01
228.117	13.48
228.335	23.72
228.553	1.19
228.771	56.49
228.989	68.78
229.206	29.87
229.424	11.43
229.642	46.25
229.86	-13.14
230.077	7.34
230.295	-0.85
230.513	25.77
230.731	36.01
230.948	68.78
231.166	56.49
231.384	-17.24
231.601	27.82
231.819	46.25
232.037	-29.52
232.254	5.29
232.472	50.35
232.689	-4.95
232.907	44.2
233.125	36.01
233.342	70.83
233.56	-33.62
233.777	93.35
233.995	79.02
234.213	62.63
234.43	44.2
234.648	-27.48
234.865	11.43
235.083	46.25
235.3	11.43
235.518	54.44
235.735	68.78
235.953	76.97
236.17	29.87
236.388	62.63
236.605	72.87
236.822	117.93
237.04	60.59
237.257	-54.1
237.475	27.82
237.692	44.2
237.909	3.24
238.127	-35.67
238.344	36.01
238.562	48.3
238.779	56.49
238.996	36.01
239.214	38.06
239.431	79.02
239.648	40.11
239.865	3.24
240.083	81.07
240.3	52.39
240.517	21.67
240.735	33.96
240.952	79.02
241.169	27.82
241.386	-37.72
241.603	5.29
241.821	-62.29
242.038	46.25
242.255	40.11
242.472	15.53
242.689	23.72
242.907	9.39
243.124	97.45
243.341	95.4
243.558	-19.29
243.775	97.45
243.992	17.58
244.209	64.68
244.426	48.3
244.643	13.48
244.86	13.48
245.078	36.01
245.295	56.49
245.512	83.11
245.729	62.63
245.946	-45.91
246.163	3.24
246.38	27.82
246.597	29.87
246.814	-13.14
247.031	-37.72
247.248	-13.14
247.464	15.53
247.681	56.49
247.898	42.15
248.115	60.59
248.332	-19.29
248.549	93.35
248.766	-11.09
248.983	85.16
249.2	7.34
249.417	46.25
249.633	95.4
249.85	-17.24
250.067	72.87
250.284	19.63
250.501	46.25
250.717	72.87
250.934	70.83
251.151	89.26
251.368	117.93
251.585	76.97
251.801	85.16
252.018	-9.05
252.235	76.97
252.451	-37.72
252.668	36.01
252.885	33.96
253.102	40.11
253.318	79.02
253.535	54.44
253.752	109.74
253.968	19.63
254.185	7.34
254.401	-21.33
254.618	31.91
254.835	31.91
255.051	48.3
255.268	52.39
255.484	23.72
255.701	46.25
255.917	72.87
256.134	-4.95
256.351	134.31
256.567	-11.09
256.784	60.59
257	36.01
257.217	33.96
257.433	136.36
257.65	93.35
257.866	91.31
258.082	38.06
258.299	3.24
258.515	40.11
258.732	19.63
258.948	-2.9
259.165	79.02
259.381	-15.19
259.597	68.78
259.814	31.91
260.03	-11.09
260.246	-11.09
260.463	52.39
260.679	60.59
260.895	52.39
261.112	25.77
261.328	-54.1
261.544	68.78
261.761	76.97
261.977	60.59
262.193	-4.95
262.409	27.82
262.626	117.93
262.842	-4.95
263.058	-21.33
263.274	36.01
263.49	11.43
263.707	101.55
263.923	33.96
264.139	23.72
264.355	54.44
264.571	70.83
264.787	36.01
265.004	64.68
265.22	29.87
265.436	29.87
265.652	-2.9
265.868	15.53
266.084	-45.91
266.3	60.59
266.516	52.39
266.732	-0.85
266.948	36.01
267.164	40.11
267.38	60.59
267.596	3.24
267.812	44.2
268.028	13.48
268.244	21.67
268.46	-25.43
268.676	-11.09
268.892	70.83
269.108	-13.14
269.324	-2.9
269.54	-9.05
269.756	54.44
269.972	-52.05
270.188	-37.72
270.403	-17.24
270.619	36.01
270.835	5.29
271.051	31.91
271.267	-23.38
271.483	95.4
271.698	36.01
271.914	87.21
272.13	19.63
272.346	60.59
272.562	11.43
272.777	38.06
272.993	40.11
273.209	-4.95
273.425	103.59
273.64	56.49
273.856	48.3
274.072	83.11
274.287	23.72
274.503	-4.95
274.719	23.72
274.934	52.39
275.15	-9.05
275.366	13.48
275.581	-23.38
275.797	68.78
276.012	44.2
276.228	36.01
276.444	23.72
276.659	29.87
276.875	9.39
277.09	44.2
277.306	52.39
277.521	64.68
277.737	23.72
277.952	33.96
278.168	15.53
278.383	119.98
278.599	5.29
278.814	40.11
279.03	17.58
279.245	29.87
279.461	25.77
279.676	68.78
279.892	-15.19
280.107	54.44
280.322	85.16
280.538	23.72
280.753	52.39
280.969	109.74
281.184	27.82
281.399	122.02
281.615	-4.95
281.83	21.67
282.045	5.29
282.26	-27.48
282.476	36.01
282.691	68.78
282.906	76.97
283.122	52.39
283.337	-27.48
283.552	60.59
283.767	36.01
283.983	52.39
284.198	85.16
284.413	-25.43
284.628	-29.52
284.843	31.91
285.058	76.97
285.274	44.2
285.489	44.2
285.704	29.87
285.919	-9.05
286.134	-4.95
286.349	46.25
286.564	19.63
286.779	87.21
286.995	36.01
287.21	62.63
287.425	31.91
287.64	81.07
287.855	15.53
288.07	-25.43
288.285	167.08
288.5	15.53
288.715	95.4
288.93	11.43
289.145	-9.05
289.36	-4.95
289.575	-4.95
289.79	13.48
290.004	111.78
290.219	91.31
290.434	-13.14
290.649	36.01
290.864	-2.9
291.079	40.11
291.294	-4.95
291.509	48.3
291.724	-21.33
291.938	31.91
292.153	23.72
292.368	44.2
292.583	5.29
292.798	109.74
293.012	52.39
293.227	76.97
293.442	97.45
293.657	91.31
293.871	128.17
294.086	-60.24
294.301	95.4
294.516	52.39
294.73	-52.05
294.945	-50
295.16	23.72
295.374	52.39
295.589	-7
295.804	40.11
296.018	52.39
296.233	-19.29
296.447	23.72
296.662	-25.43
296.877	7.34
297.091	101.55
297.306	79.02
297.52	79.02
297.735	-2.9
297.949	62.63
298.164	-11.09
298.378	27.82
298.593	11.43
298.807	74.92
299.022	93.35
299.236	40.11
299.451	19.63
299.665	31.91
299.88	-13.14
300.094	-41.81
300.309	13.48
300.523	3.24
300.737	-9.05
300.952	27.82
301.166	50.35
301.381	21.67
301.595	5.29
301.809	40.11
302.024	7.34
302.238	36.01
302.452	50.35
302.667	40.11
302.881	54.44
303.095	7.34
303.309	101.55
303.524	7.34
303.738	9.39
303.952	5.29
304.166	44.2
304.381	68.78
304.595	95.4
304.809	46.25
305.023	21.67
305.237	-4.95
305.452	-56.15
305.666	42.15
305.88	142.5
306.094	134.31
306.308	101.55
306.522	64.68
306.736	72.87
306.95	85.16
307.164	27.82
307.379	38.06
307.593	52.39
307.807	126.12
308.021	79.02
308.235	72.87
308.449	66.73
308.663	7.34
308.877	109.74
309.091	-11.09
309.305	93.35
309.519	-33.62
309.733	79.02
309.947	-13.14
310.161	52.39
310.374	128.17
310.588	13.48
310.802	60.59
311.016	-74.58
311.23	87.21
311.444	7.34
311.658	36.01
311.872	48.3
312.085	38.06
312.299	64.68
312.513	38.06
312.727	44.2
312.941	23.72
313.154	60.59
313.368	-4.95
313.582	13.48
313.796	31.91
314.009	81.07
314.223	74.92
314.437	44.2
314.651	13.48
314.864	40.11
315.078	54.44
315.292	-62.29
315.505	54.44
315.719	36.01
315.933	60.59
316.146	64.68
316.36	-56.15
316.573	-25.43
316.787	68.78
317.001	128.17
317.214	62.63
317.428	-13.14
317.641	-29.52
317.855	13.48
318.068	-0.85
318.282	87.21
318.495	58.54
318.709	76.97
318.922	13.48
319.136	85.16
319.349	13.48
319.563	40.11
319.776	27.82
319.99	-47.96
320.203	58.54
320.417	44.2
320.63	19.63
320.843	19.63
321.057	36.01
321.27	36.01
321.483	70.83
321.697	72.87
321.91	46.25
322.124	76.97
322.337	95.4
322.55	40.11
322.763	40.11
322.977	87.21
323.19	36.01
323.403	68.78
323.617	60.59
323.83	46.25
324.043	-11.09
324.256	40.11
324.469	-17.24
324.683	68.78
324.896	-0.85
325.109	-4.95
325.322	31.91
325.535	91.31
325.748	40.11
325.962	54.44
326.175	93.35
326.388	68.78
326.601	119.98
326.814	60.59
327.027	83.11
327.24	142.5
327.453	13.48
327.666	7.34
327.879	44.2
328.092	105.64
328.305	44.2
328.518	21.67
328.731	17.58
328.944	25.77
329.157	58.54
329.37	27.82
329.583	87.21
329.796	109.74
330.009	-29.52
330.222	7.34
330.435	3.24
330.648	58.54
330.861	60.59
331.073	97.45
331.286	93.35
331.499	1.19
331.712	74.92
331.925	74.92
332.138	89.26
332.35	21.67
332.563	1.19
332.776	46.25
332.989	23.72
333.202	44.2
333.414	13.48
333.627	7.34
333.84	19.63
334.053	79.02
334.265	-50
334.478	52.39
334.691	36.01
334.903	70.83
335.116	76.97
335.329	-0.85
335.541	91.31
335.754	93.35
335.966	85.16
336.179	48.3
336.392	36.01
336.604	52.39
336.817	-13.14
337.029	117.93
337.242	5.29
337.454	101.55
337.667	85.16
337.88	64.68
338.092	87.21
338.305	128.17
338.517	29.87
338.729	76.97
338.942	56.49
339.154	-78.68
339.367	3.24
339.579	68.78
339.792	-2.9
340.004	44.2
340.217	27.82
340.429	38.06
340.641	27.82
340.854	48.3
341.066	3.24
341.278	85.16
341.491	46.25
341.703	93.35
341.915	-11.09
342.128	31.91
342.34	15.53
342.552	-33.62
342.764	68.78
342.977	21.67
343.189	101.55
343.401	79.02
343.613	-9.05
343.826	117.93
344.038	111.78
344.25	-9.05
344.462	107.69
344.674	87.21
344.886	42.15
345.099	95.4
345.311	85.16
345.523	11.43
345.735	-43.86
345.947	76.97
346.159	15.53
346.371	36.01
346.583	36.01
346.795	144.55
347.007	27.82
347.219	36.01
347.431	91.31
347.643	76.97
347.855	-62.29
348.067	117.93
348.279	-60.24
348.491	36.01
348.703	38.06
348.915	101.55
349.127	27.82
349.339	70.83
349.551	89.26
349.763	36.01
349.975	9.39
350.187	93.35
350.399	109.74
350.61	93.35
350.822	21.67
351.034	54.44
351.246	72.87
351.458	44.2
351.669	64.68
351.881	93.35
352.093	27.82
352.305	101.55
352.517	21.67
352.728	56.49
352.94	87.21
353.152	76.97
353.363	27.82
353.575	76.97
353.787	68.78
353.999	21.67
354.21	70.83
354.422	-4.95
354.633	-0.85
354.845	46.25
355.057	95.4
355.268	5.29
355.48	115.88
355.692	27.82
355.903	62.63
356.115	-4.95
356.326	-0.85
356.538	66.73
356.749	60.59
356.961	81.07
357.172	23.72
357.384	19.63
357.595	95.4
357.807	-37.72
358.018	36.01
358.23	93.35
358.441	109.74
358.653	101.55
358.864	68.78
359.075	50.35
359.287	60.59
359.498	21.67
359.709	76.97
359.921	89.26
360.132	11.43
360.344	52.39
360.555	48.3
360.766	95.4
360.977	-4.95
361.189	27.82
361.4	42.15
361.611	66.73
361.823	-17.24
362.034	81.07
362.245	-11.09
362.456	27.82
362.667	33.96
362.879	1.19
363.09	38.06
363.301	44.2
363.512	19.63
363.723	68.78
363.935	-11.09
364.146	52.39
364.357	52.39
364.568	62.63
364.779	44.2
364.99	89.26
365.201	-50
365.412	119.98
365.623	85.16
365.834	103.59
366.045	5.29
366.256	48.3
366.467	38.06
366.678	7.34
366.889	36.01
367.1	40.11
367.311	72.87
367.522	27.82
367.733	44.2
367.944	11.43
368.155	68.78
368.366	70.83
368.577	91.31
368.788	52.39
368.999	11.43
369.209	87.21
369.42	134.31
369.631	105.64
369.842	60.59
370.053	-70.48
370.264	115.88
370.474	60.59
370.685	40.11
370.896	95.4
371.107	36.01
371.317	79.02
371.528	33.96
371.739	117.93
371.95	42.15
372.16	23.72
372.371	64.68
372.582	5.29
372.792	21.67
373.003	109.74
373.214	117.93
373.424	23.72
373.635	19.63
373.846	109.74
374.056	85.16
374.267	46.25
374.477	107.69
374.688	36.01
374.898	93.35
375.109	93.35
375.319	87.21
375.53	87.21
375.74	9.39
375.951	21.67
376.161	23.72
376.372	68.78
376.582	27.82
376.793	54.44
377.003	19.63
377.214	52.39
377.424	21.67
377.635	25.77
377.845	23.72
378.055	109.74
378.266	-4.95
378.476	25.77
378.686	109.74
378.897	40.11
379.107	60.59
379.317	19.63
379.528	48.3
379.738	64.68
379.948	-25.43
380.158	103.59
380.369	52.39
380.579	-0.85
380.789	119.98
380.999	89.26
381.21	93.35
381.42	111.78
381.63	95.4
381.84	130.22
382.05	36.01
382.261	38.06
382.471	93.35
382.681	83.11
382.891	68.78
383.101	89.26
383.311	21.67
383.521	50.35
383.731	60.59
383.941	126.12
384.151	64.68
384.361	76.97
384.571	76.97
384.781	76.97
384.991	101.55
385.201	171.18
385.411	119.98
385.621	76.97
385.831	95.4
386.041	79.02
386.251	54.44
386.461	52.39
386.671	31.91
386.881	87.21
387.091	68.78
387.301	76.97
387.511	46.25
387.72	11.43
387.93	36.01
388.14	79.02
388.35	38.06
388.56	130.22
388.769	19.63
388.979	142.5
389.189	17.58
389.399	76.97
389.609	97.45
389.818	85.16
390.028	44.2
390.238	115.88
390.447	13.48
390.657	64.68
390.867	27.82
391.076	97.45
391.286	58.54
391.496	76.97
391.705	76.97
391.915	60.59
392.125	52.39
392.334	113.83
392.544	74.92
392.753	111.78
392.963	-11.09
393.172	83.11
393.382	54.44
393.591	76.97
393.801	58.54
394.01	152.74
394.22	126.12
394.429	91.31
394.639	36.01
394.848	89.26
395.058	128.17
395.267	109.74
395.477	142.5
395.686	142.5
395.895	169.13
396.105	144.55
396.314	-29.52
396.524	93.35
396.733	42.15
396.942	99.5
397.152	87.21
397.361	68.78
397.57	36.01
397.78	101.55
397.989	85.16
398.198	85.16
398.407	70.83
398.617	44.2
398.826	95.4
399.035	91.31
399.244	95.4
399.453	117.93
399.663	89.26
399.872	79.02
400.081	85.16
400.29	126.12
400.499	58.54
400.708	21.67
400.917	113.83
401.127	179.37
401.336	144.55
401.545	167.08
401.754	103.59
401.963	154.79
402.172	117.93
402.381	31.91
402.59	40.11
402.799	134.31
403.008	138.41
403.217	136.36
403.426	60.59
403.635	52.39
403.844	150.7
404.053	70.83
404.262	162.98
404.471	220.33
404.68	152.74
404.888	91.31
405.097	150.7
405.306	195.75
405.515	177.32
405.724	111.78
405.933	85.16
406.142	208.04
406.35	187.56
406.559	142.5
406.768	99.5
406.977	144.55
407.185	126.12
407.394	91.31
407.603	167.08
407.812	203.94
408.02	177.32
408.229	187.56
408.438	199.85
408.646	117.93
408.855	292.01
409.064	259.24
409.272	230.57
409.481	210.09
409.69	191.66
409.898	292.01
410.107	271.53
410.315	249
410.524	236.71
410.733	283.81
410.941	265.38
411.15	281.77
411.358	373.92
411.567	365.73
411.775	251.05
411.984	271.53
412.192	349.35
412.401	404.64
412.609	343.21
412.818	400.55
413.026	416.93
413.234	496.8
413.443	447.65
413.651	421.03
413.86	494.76
414.068	459.94
414.276	474.28
414.485	461.99
414.693	570.53
414.901	568.48
415.11	511.14
415.318	613.54
415.526	595.11
415.734	631.97
415.943	674.98
416.151	679.07
416.359	748.7
416.567	558.24
416.776	773.28
416.984	707.74
417.192	785.57
417.4	746.66
417.608	775.33
417.817	855.2
418.025	855.2
418.233	920.73
418.441	898.2
418.649	949.4
418.857	904.35
419.065	1094.81
419.273	1078.43
419.481	1080.47
419.689	1162.39
419.897	1150.11
420.105	1158.3
420.313	1240.22
420.521	1352.85
420.729	1332.37
420.937	1336.47
421.145	1469.59
421.353	1424.53
421.561	1436.82
421.769	1524.88
421.977	1588.37
422.185	1496.21
422.393	1633.43
422.601	1842.32
422.809	1819.79
423.017	1821.84
423.224	1911.95
423.432	2061.45
423.64	1944.72
423.848	2110.6
424.056	2071.69
424.263	2301.06
424.471	2169.99
424.679	2354.31
424.887	2356.36
425.094	2501.76
425.302	2385.03
425.51	2546.82
425.718	2638.98
425.925	2704.51
426.133	2790.53
426.341	2890.88
426.548	3120.25
426.756	3116.16
426.964	3144.83
427.171	3220.6
427.379	3394.68
427.586	3419.25
427.794	3525.75
428.001	3767.41
428.209	3822.7
428.417	3779.7
428.624	4045.93
428.832	4115.56
429.039	4074.6
429.247	4062.32
429.454	4508.77
429.662	4662.37
429.869	4363.37
430.076	4639.84
430.284	4617.32
430.491	4908.13
430.699	5018.72
430.906	5022.81
431.114	4963.42
431.321	5373.02
431.528	5452.89
431.736	5741.65
431.943	6038.61
432.15	5936.21
432.358	5909.58
432.565	6145.1
432.772	6194.25
432.979	6653
433.187	6724.68
433.394	6589.51
433.601	7138.37
433.808	7214.14
434.016	7150.65
434.223	7351.35
434.43	7812.15
434.637	7617.59
434.844	8203.31
435.052	8301.61
435.259	8395.82
435.466	8283.18
435.673	8352.81
435.88	8916
436.087	9260.06
436.294	9335.84
436.501	9069.6
436.708	9172
436.915	9802.77
437.122	10136.59
437.329	10013.71
437.537	10304.53
437.743	10472.46
437.95	10507.27
438.157	11115.52
438.364	11422.72
438.571	11160.58
438.778	11193.34
438.985	12383.21
439.192	11979.76
439.399	12291.06
439.606	12106.74
439.813	12598.25
440.02	13544.41
440.227	13378.53
440.433	12987.36
440.64	13687.77
440.847	13464.54
441.054	13792.22
441.261	14693.32
441.467	14494.67
441.674	14691.27
441.881	15422.4
442.088	15002.57
442.294	14896.07
442.501	15594.43
442.708	16044.98
442.914	16333.75
443.121	17148.84
443.328	16829.35
443.534	17787.8
443.741	17277.86
443.948	17314.72
444.154	18426.77
444.361	18211.73
444.568	18410.39
444.774	18574.22
444.981	18641.81
445.187	19135.37
445.394	20073.34
445.6	19833.72
445.807	22018.91
446.013	20847.47
446.22	21076.84
446.426	22076.25
446.633	22328.15
446.839	23106.38
447.046	22098.78
447.252	23036.75
447.459	23415.62
447.665	23458.63
447.871	24816.43
448.078	25449.25
448.284	24138.55
448.491	24916.78
448.697	25701.15
448.903	26084.12
449.11	26370.84
449.316	25766.69
449.522	26563.35
449.728	27300.62
449.935	27314.95
450.141	27544.33
450.347	28078.85
450.553	27147.02
450.76	27593.48
450.966	28660.47
451.172	28031.74
451.378	29281
451.584	28300.03
451.791	29094.64
451.997	29115.12
452.203	29651.69
452.409	29473.51
452.615	29704.93
452.821	28625.65
453.027	28123.9
453.233	29897.44
453.44	28703.48
453.646	28932.85
453.852	29141.74
454.058	29922.02
454.264	28490.49
454.47	29346.54
454.676	28576.5
454.882	29577.96
455.088	27050.77
455.294	27622.15
455.5	28021.5
455.705	28029.69
455.911	27261.71
456.117	26635.03
456.323	26358.55
456.529	24734.51
456.735	26356.5
456.941	25271.08
457.147	25203.5
457.352	24566.58
457.558	24017.72
457.764	24292.15
457.97	23728.96
458.176	23450.44
458.381	22985.55
458.587	22217.56
458.793	22182.74
458.999	21007.21
459.204	22604.63
459.41	21865.31
459.616	20487.03
459.821	20503.41
460.027	20446.07
460.233	20249.46
460.438	18994.06
460.644	19092.36
460.85	18396.05
461.055	18066.33
461.261	18260.88
461.466	16825.26
461.672	16337.84
461.878	17572.77
462.083	16167.86
462.289	16036.79
462.494	15971.25
462.7	15152.07
462.905	14773.19
463.111	15293.38
463.316	15233.99
463.522	15137.73
463.727	14959.56
463.932	14808.01
464.138	14795.72
464.343	14891.98
464.549	14511.05
464.754	14578.64
464.959	14670.79
465.165	14562.25
465.37	14062.55
465.575	13749.21
465.781	14390.22
465.986	14291.92
466.191	13765.59
466.397	13560.8
466.602	12809.19
466.807	13376.48
467.012	13456.35
467.218	13333.47
467.423	13157.35
467.628	13306.85
467.833	13716.44
468.038	13194.21
468.244	12770.28
468.449	13468.64
468.654	13093.86
468.859	12841.96
469.064	12815.34
469.269	12305.39
469.474	12561.39
469.679	12684.27
469.885	12418.03
470.09	12616.68
470.295	12340.21
470.5	12131.31
470.705	12448.75
470.91	12254.19
471.115	11914.23
471.32	12215.28
471.525	12049.39
471.73	11627.51
471.935	11564.03
472.139	11228.16
472.344	11516.92
472.549	11258.88
472.754	11303.93
472.959	10947.59
473.164	10562.57
473.369	10748.93
473.574	11367.42
473.778	10843.14
473.983	10765.32
474.188	10806.28
474.393	10245.13
474.598	10294.29
474.802	10159.12
475.007	10062.87
475.212	10361.87
475.417	9747.48
475.621	10136.59
475.826	9915.41
476.031	9618.46
476.235	9380.89
476.44	9942.03
476.645	9305.12
476.849	9483.29
477.054	9239.58
477.259	9024.54
477.463	9249.82
477.668	8997.92
477.872	8995.87
478.077	8965.15
478.282	8821.8
478.486	8651.81
478.691	8662.05
478.895	8612.9
479.1	8592.42
479.304	8631.33
479.509	8385.58
479.713	8610.86
479.918	8309.8
480.122	8068.14
480.326	8426.54
480.531	8186.93
480.735	8002.61
480.94	7965.75
481.144	8264.75
481.348	7871.54
481.553	8078.38
481.757	7916.59
481.961	8213.55
482.166	8123.44
482.37	7978.03
482.574	7801.91
482.778	7982.13
482.983	8018.99
483.187	7908.4
483.391	7967.79
483.595	7771.19
483.8	7900.21
484.004	7873.59
484.208	7943.22
484.412	7902.26
484.616	7924.79
484.821	8035.38
485.025	7703.61
485.229	7930.93
485.433	7838.77
485.637	7959.6
485.841	7705.65
486.045	7853.11
486.249	7896.11
486.453	7711.8
486.657	7961.65
486.861	7957.55
487.065	7527.48
487.269	7785.52
487.473	7834.68
487.677	7930.93
487.881	7949.36
488.085	8055.86
488.289	8074.29
488.493	7883.83
488.697	8070.19
488.901	7875.63
489.105	7912.5
489.309	8100.91
489.512	7957.55
489.716	8258.6
489.92	7990.32
490.124	8203.31
490.328	8309.8
490.531	8088.62
490.735	8254.51
490.939	8246.32
491.143	8115.25
491.346	8186.93
491.55	8379.43
491.754	8244.27
491.958	8420.39
492.161	8453.16
492.365	8518.7
492.569	8553.51
492.772	8508.46
492.976	8565.8
493.18	8541.22
493.383	8844.32
493.587	8836.13
493.79	8719.4
493.994	8727.59
494.197	8776.74
494.401	8969.25
494.605	8879.14
494.808	9143.33
495.012	9016.35
495.215	9094.18
495.419	9180.19
495.622	9219.1
495.825	9485.34
496.029	9454.62
496.232	9696.28
496.436	9792.53
496.639	9743.38
496.843	9704.47
497.046	10079.25
497.249	10263.57
497.453	10265.61
497.656	10312.72
497.859	10146.83
498.063	10472.46
498.266	10771.46
498.469	10521.61
498.673	10693.64
498.876	10961.92
499.079	10925.06
499.282	10900.48
499.485	11506.68
499.689	11168.77
499.892	11463.68
500.095	11385.85
500.298	11543.55
500.501	11799.54
500.705	12008.44
500.908	12317.68
501.111	12323.82
501.314	12600.3
501.517	12571.63
501.72	12704.74
501.923	12585.96
502.126	12938.21
502.329	13351.9
502.532	13347.81
502.735	13317.09
502.938	13757.4
503.141	13958.1
503.344	14113.75
503.547	13841.37
503.75	14314.45
503.953	14552.01
504.156	14494.67
504.359	14891.98
504.562	14758.86
504.765	15082.44
504.968	15461.31
505.17	15494.08
505.373	15606.72
505.576	15850.42
505.779	16151.48
505.982	16268.21
506.185	16391.09
506.387	16468.91
506.59	16489.39
506.793	16894.89
506.996	16864.17
507.198	17349.54
507.401	17466.27
507.604	17845.15
507.807	18127.77
508.009	18123.67
508.212	18326.42
508.415	18676.62
508.617	18793.36
508.82	18715.53
509.022	18733.96
509.225	19340.16
509.428	19702.65
509.63	19803
509.833	19897.21
510.035	20386.68
510.238	20208.5
510.44	20501.36
510.643	21029.74
510.845	20755.31
511.048	20763.5
511.25	21365.6
511.453	21289.83
511.655	22195.03
511.858	21719.9
512.06	22154.07
512.262	22434.64
512.465	22356.82
512.667	23010.12
512.87	23089.99
513.072	23358.28
513.274	23692.1
513.477	23661.38
513.679	24089.4
513.881	24443.7
514.084	24552.24
514.286	24374.07
514.488	24781.62
514.69	25381.67
514.893	25490.21
515.095	25854.75
515.297	25985.82
515.499	25705.25
515.701	26434.33
515.904	26379.03
516.106	27061.01
516.308	27167.5
516.51	27448.07
516.712	27138.83
516.914	27820.8
517.116	28039.93
517.318	28420.86
517.52	28556.02
517.722	28836.59
517.925	28875.51
518.127	29541.1
518.329	29729.51
518.531	29571.82
518.733	30233.31
518.935	30208.73
519.136	30556.89
519.338	31122.13
519.54	30993.11
519.742	31482.57
519.944	31609.54
520.146	31935.17
520.348	32197.31
520.55	32381.63
520.752	32500.41
520.954	32926.39
521.155	32987.83
521.357	33321.65
521.559	33587.88
521.761	34079.39
521.963	33798.82
522.164	34210.46
522.366	34345.63
522.568	34382.49
522.77	34792.09
522.971	35107.47
523.173	35326.61
523.375	35504.78
523.576	35322.51
523.778	35672.71
523.98	36407.94
524.181	36407.94
524.383	36276.87
524.584	36612.73
524.786	37159.54
524.988	36788.86
525.189	37005.94
525.391	37440.11
525.592	37689.96
525.794	37636.72
525.995	37888.62
526.197	37880.42
526.398	37945.96
526.6	38337.12
526.801	38476.38
527.003	38625.89
527.204	38410.85
527.406	38967.9
527.607	38881.88
527.808	39000.66
528.01	38500.96
528.211	39066.2
528.412	39504.46
528.614	39668.3
528.815	39596.62
529.016	40133.19
529.218	39811.66
529.419	39920.2
529.62	40133.19
529.822	39828.04
530.023	40059.46
530.224	39959.11
530.425	40186.44
530.626	40043.08
530.828	39905.87
531.029	40827.45
531.23	40530.5
531.431	40374.85
531.632	40639.04
531.833	40882.75
532.035	40620.61
532.236	40837.69
532.437	40692.29
532.638	40299.08
532.839	40958.52
533.04	41058.87
533.241	40559.17
533.442	41654.83
533.643	41075.26
533.844	40462.91
534.045	41267.76
534.246	40972.86
534.447	41161.27
534.648	40467.01
534.849	41130.55
535.05	40917.56
535.251	41101.88
535.451	40979
535.652	41343.54
535.853	41269.81
536.054	41052.73
536.255	41447.99
536.456	41378.36
536.657	41431.6
536.857	41331.25
537.058	40716.86
537.259	41380.4
537.46	41054.78
537.66	41361.97
537.861	41218.61
538.062	41003.58
538.263	41435.7
538.463	41364.02
538.664	41359.92
538.865	41327.16
539.065	41374.26
539.266	40868.41
539.466	41429.55
539.667	40933.95
539.868	41372.21
540.068	41120.31
540.269	41161.27
540.469	41556.53
540.67	41130.55
540.87	41398.83
541.071	41019.96
541.271	41183.8
541.472	41022.01
541.672	41069.11
541.873	40946.23
542.073	40434.24
542.274	41423.41
542.474	41058.87
542.675	41159.22
542.875	41497.14
543.075	41230.9
543.276	40823.36
543.476	41124.41
543.676	40770.11
543.877	41132.6
544.077	41206.33
544.277	41105.98
544.478	41245.24
544.678	41261.62
544.878	40684.09
545.078	41271.86
545.279	41122.36
545.479	40958.52
545.679	41032.25
545.879	40884.79
546.079	41001.53
546.28	40618.56
546.48	40497.73
546.68	41259.57
546.88	41384.5
547.08	40735.29
547.28	40770.11
547.48	40737.34
547.68	40774.2
547.88	40522.3
548.081	40989.24
548.281	40858.17
548.481	40655.42
548.681	41130.55
548.881	40962.62
549.081	41228.85
549.28	40516.16
549.48	41114.17
549.68	40720.96
549.88	41005.62
550.08	40636.99
550.28	40960.57
550.48	40825.4
550.68	41042.49
550.88	40854.08
551.08	40622.65
551.279	40673.85
551.479	40188.49
551.679	40626.75
551.879	40528.45
552.079	40788.54
552.278	40598.08
552.478	40729.15
552.678	40696.38
552.878	40970.81
553.077	40659.52
553.277	40393.28
553.477	40804.92
553.676	40211.01
553.876	40395.33
554.076	40542.78
554.275	40067.66
554.475	40077.9
554.674	40751.68
554.874	40516.16
555.074	40356.42
555.273	40221.25
555.473	40688.19
555.672	39844.43
555.872	40436.29
556.071	40110.66
556.271	40411.71
556.47	39731.79
556.67	39969.35
556.869	39940.68
557.068	40034.89
557.268	40153.67
557.467	40079.94
557.667	39725.64
557.866	39578.19
558.065	39969.35
558.265	39742.03
558.464	39524.94
558.663	40061.51
558.863	39518.8
559.062	39944.78
559.261	39305.81
559.461	39932.49
559.66	39422.55
559.859	39817.8
560.058	38965.85
560.258	39559.76
560.457	39033.43
560.656	39305.81
560.855	39150.17
561.054	39201.36
561.253	39135.83
561.453	39109.21
561.652	38980.18
561.851	39592.53
562.05	39195.22
562.249	38629.98
562.448	39019.1
562.647	38920.79
562.846	38890.07
563.045	39049.81
563.244	38406.75
563.443	39062.1
563.642	38150.76
563.841	38496.86
564.04	38255.2
564.239	38564.45
564.438	38423.14
564.637	38306.4
564.836	38449.76
565.035	37823.08
565.234	38257.25
565.432	38107.75
565.631	38034.02
565.83	38150.76
566.029	37599.85
566.228	37751.4
566.427	37655.15
566.625	37438.06
566.824	37448.3
567.023	37837.42
567.222	37200.5
567.42	37761.64
567.619	36964.98
567.818	37249.65
568.016	37036.66
568.215	37409.39
568.414	37350
568.612	37567.09
568.811	36545.15
569.01	36948.6
569.208	36514.43
569.407	36891.26
569.605	36498.05
569.804	36711.03
570.002	36438.65
570.201	36735.61
570.4	36082.31
570.598	35832.46
570.797	35861.13
570.995	35775.11
571.193	35814.02
571.392	36213.38
571.59	35506.83
571.789	35654.28
571.987	35797.64
572.186	35562.12
572.384	35330.7
572.582	35496.59
572.781	35660.43
572.979	35306.13
573.177	35154.58
573.376	35316.37
573.574	34890.39
573.772	35250.83
573.971	34929.3
574.169	35080.85
574.367	34593.43
574.565	35252.88
574.763	34763.42
574.962	34581.15
575.16	33954.47
575.358	34667.16
575.556	33936.04
575.754	34529.95
575.952	34192.03
576.151	34308.77
576.349	33895.08
576.547	34017.96
576.745	33624.75
576.943	33860.26
577.141	33729.19
577.339	34183.84
577.537	33698.47
577.735	33479.34
577.933	33297.07
578.131	33546.92
578.329	33112.75
578.527	32932.53
578.725	33120.95
578.923	33049.27
579.121	32649.91
579.319	32699.06
579.516	32756.41
579.714	32959.16
579.912	32651.96
580.11	32551.61
580.308	32307.9
580.506	32365.24
580.704	31847.11
580.901	32195.26
581.099	32158.4
581.297	31824.58
581.495	31965.89
581.692	32291.52
581.89	31894.21
582.088	31849.16
582.285	31826.63
582.483	31531.72
582.681	31533.77
582.878	31507.15
583.076	31222.48
583.274	31388.36
583.471	30857.94
583.669	30966.48
583.866	30751.45
584.064	31138.51
584.262	30345.95
584.459	30884.56
584.657	30642.9
584.854	30997.2
585.052	30272.22
585.249	30794.45
585.447	30466.78
585.644	30001.89
585.841	30290.65
586.039	30317.28
586.236	29653.73
586.434	29915.87
586.631	29833.96
586.828	29981.41
587.026	29911.78
587.223	29821.67
587.42	29653.73
587.618	29356.78
587.815	29407.98
588.012	29340.39
588.21	29293.29
588.407	29356.78
588.604	29020.91
588.801	29156.08
588.999	29057.78
589.196	28678.9
589.393	28728.05
589.59	29172.46
589.787	28771.06
589.984	28226.3
590.182	28158.72
590.379	28504.82
590.576	28080.89
590.773	28189.44
590.97	28093.18
591.167	28232.44
591.364	27753.22
591.561	28123.9
591.758	27421.45
591.955	27609.86
592.152	27632.39
592.349	27458.31
592.546	27329.29
592.743	27542.28
592.94	27192.08
593.137	27210.51
593.334	27833.09
593.531	27114.25
593.727	27276.04
593.924	27144.97
594.121	26768.15
594.318	27126.54
594.515	26518.29
594.712	26848.02
594.908	26438.42
595.105	26479.38
595.302	26270.49
595.499	26192.67
595.696	25918.24
595.892	25858.85
596.089	26370.84
596.286	26102.56
596.482	25807.65
596.679	26112.8
596.876	25946.91
597.072	25668.39
597.269	25662.24
597.466	25539.36
597.662	25389.86
597.859	25498.41
598.055	25598.76
598.252	25254.7
598.448	25144.11
598.645	25019.18
598.841	24744.75
599.038	24967.98
599.234	24877.87
599.431	24492.85
599.627	24509.24
599.824	24822.58
600.02	24490.8
600.217	24582.96
600.413	24677.17
600.609	24384.31
600.806	24265.53
601.002	24660.79
601.198	24087.36
601.395	23886.65
601.591	23864.13
601.787	24113.98
601.984	23870.27
602.18	24073.02
602.376	23661.38
602.572	23552.84
602.769	23757.63
602.965	23294.79
603.161	23505.73
603.357	23380.81
603.553	23266.12
603.75	23298.89
603.946	23006.03
604.142	23194.44
604.338	22915.92
604.534	22954.83
604.73	22983.5
604.926	22518.61
605.122	22946.64
605.318	22600.53
605.514	22696.78
605.71	22371.16
605.906	22410.07
606.102	22395.73
606.298	22606.67
606.494	22457.17
606.69	22342.49
606.886	22397.78
607.082	22246.23
607.278	22195.03
607.474	22145.88
607.67	22213.46
607.866	21717.86
608.062	21975.9
608.257	21590.88
608.453	21900.12
608.649	21707.62
608.845	21719.9
609.041	21429.09
609.236	21597.03
609.432	21646.18
609.628	21398.37
609.824	21220.2
610.019	21031.79
610.215	21412.71
610.411	21586.79
610.606	20992.87
610.802	21285.73
610.998	21173.1
611.193	21128.04
611.389	20953.96
611.584	20802.41
611.78	20829.04
611.976	21031.79
612.171	21123.94
612.367	20999.02
612.562	20796.27
612.758	20605.81
612.953	20444.02
613.149	20470.64
613.344	20194.17
613.539	20730.73
613.735	20566.9
613.93	20417.4
614.126	20130.68
614.321	20675.44
614.517	20306.8
614.712	20278.13
614.907	20028.28
615.103	19987.32
615.298	20362.1
615.493	20474.74
615.688	19970.94
615.884	20351.86
616.079	19923.83
616.274	20032.38
616.47	19880.83
616.665	19594.11
616.86	19626.88
617.055	19579.78
617.25	19585.92
617.445	19653.5
617.641	19379.07
617.836	19460.99
618.031	19307.4
618.226	19497.86
618.421	19116.93
618.616	19284.87
618.811	18912.14
619.006	19200.9
619.201	18965.39
619.396	18803.6
619.591	18582.42
619.786	18891.66
619.981	18738.06
620.176	18781.07
620.371	18307.99
620.566	18570.13
620.761	18467.73
620.956	18551.7
621.151	18357.14
621.346	18312.08
621.541	17918.87
621.735	18328.47
621.93	17800.09
622.125	17791.9
622.32	17484.7
622.515	17642.4
622.709	17380.26
622.904	17341.35
623.099	17429.41
623.294	17468.32
623.488	17181.6
623.683	17212.32
623.878	16972.71
624.072	17253.28
624.267	16933.8
624.462	16804.78
624.656	16843.69
624.851	16599.98
625.046	16255.92
625.24	16440.24
625.435	16139.19
625.629	16157.62
625.824	15887.29
626.018	16108.47
626.213	15924.15
626.407	16184.24
626.602	15764.41
626.796	15827.9
626.991	15608.76
627.185	15365.06
627.38	15469.5
627.574	15403.97
627.768	15301.57
627.963	15240.13
628.157	15014.85
628.352	15160.26
628.546	14756.81
628.74	15008.71
628.935	14769.1
629.129	14719.95
629.323	14640.08
629.517	14521.29
629.712	14648.27
629.906	14470.09
630.1	14257.11
630.294	14126.04
630.489	14142.42
630.683	14177.23
630.877	13769.69
631.071	13892.57
631.265	14011.35
631.459	13919.19
631.653	13884.37
631.848	13800.41
632.042	13513.69
632.236	13437.92
632.43	13544.41
632.624	13474.78
632.818	13333.47
633.012	13226.98
633.206	13159.39
633.4	13132.77
633.594	12897.25
633.788	13079.52
633.982	13020.13
634.176	13278.18
634.369	12749.8
634.563	12778.47
634.757	12700.65
634.951	12829.67
635.145	12647.4
635.339	12651.5
635.533	12217.33
635.726	12334.06
635.92	12063.73
636.114	12260.34
636.308	12209.14
636.501	12295.15
636.695	12080.11
636.889	11801.59
637.083	11795.45
637.276	11799.54
637.47	11871.22
637.664	11664.38
637.857	11975.67
638.051	11734.01
638.244	11330.56
638.438	11324.41
638.632	11316.22
638.825	11277.31
639.019	11125.76
639.212	11197.44
639.406	11359.23
639.599	11117.57
639.793	10980.36
639.986	10892.29
640.18	11136
640.373	11009.03
640.567	10785.8
640.76	10755.08
640.954	10509.32
641.147	10480.65
641.34	10537.99
641.534	10552.33
641.727	10607.62
641.92	10320.91
642.114	10308.62
642.307	10279.95
642.5	10161.17
642.694	9835.54
642.887	9903.12
643.08	10169.36
643.273	9997.33
643.467	9976.85
643.66	9686.04
643.853	9792.53
644.046	9657.37
644.239	9567.26
644.432	9804.82
644.626	9417.75
644.819	9436.19
645.012	9530.39
645.205	9280.54
645.398	9348.12
645.591	9227.29
645.784	9227.29
645.977	9002.02
646.17	9085.98
646.363	8948.77
646.556	9010.21
646.749	8932.39
646.942	9147.42
647.135	8924.19
647.328	8813.6
647.521	8782.88
647.714	8653.86
647.907	8815.65
648.099	8625.19
648.292	8649.77
648.485	8592.42
648.678	8375.34
648.871	8522.79
649.064	8305.71
649.256	8268.84
649.449	8367.15
649.642	8285.23
649.835	8162.35
650.027	8293.42
650.22	8117.29
650.413	8002.61
650.605	8047.66
650.798	8035.38
650.991	7932.98
651.183	7736.37
651.376	7851.06
651.568	7994.42
651.761	7808.05
651.954	7676.98
652.146	7670.84
652.339	7736.37
652.531	7547.96
652.724	7664.69
652.916	7396.41
653.109	7588.92
653.301	7451.7
653.494	7382.07
653.686	7277.63
653.879	7431.23
654.071	7220.28
654.263	7148.61
654.456	7357.5
654.648	7255.1
654.84	7005.25
655.033	7113.79
655.225	7042.11
655.417	6880.32
655.61	6876.23
655.802	6956.1
655.994	6720.58
656.186	6816.83
656.379	6726.72
656.571	6720.58
656.763	6480.97
656.955	6595.65
657.148	6493.26
657.34	6614.09
657.532	6399.05
657.724	6761.54
657.916	6417.48
658.108	6491.21
658.3	6304.84
658.492	6556.74
658.684	6306.89
658.876	6208.59
659.068	6294.6
659.26	6173.77
659.452	6220.88
659.644	5958.74
659.836	6003.79
660.028	6007.89
660.22	5966.93
660.412	6216.78
660.604	5885.01
660.796	6044.75
660.988	5993.55
661.18	5790.8
661.372	5729.36
661.563	5680.21
661.755	5657.68
661.947	5766.23
662.139	5649.49
662.331	5579.86
662.522	5463.13
662.714	5663.83
662.906	5465.18
663.097	5420.12
663.289	5373.02
663.481	5311.58
663.673	5330.01
663.864	5409.88
664.056	5205.08
664.247	5256.28
664.439	5114.97
664.631	5184.6
664.822	5041.25
665.014	5045.34
665.205	5088.35
665.397	5010.53
665.588	5028.96
665.78	4951.14
665.971	5119.07
666.163	4992.09
666.354	4922.46
666.546	4789.35
666.737	4926.56
666.929	4803.68
667.12	4854.88
667.311	4885.6
667.503	4602.98
667.694	4838.5
667.885	4721.76
668.077	4750.43
668.268	4598.88
668.459	4547.69
668.651	4623.46
668.842	4525.16
669.033	4449.38
669.224	4553.83
669.416	4519.01
669.607	4433
669.798	4312.17
669.989	4531.3
670.18	4349.03
670.371	4299.88
670.563	4322.41
670.754	4351.08
670.945	4357.22
671.136	4263.02
671.327	4263.02
671.518	4418.66
671.709	4385.9
671.9	4263.02
672.091	4209.77
672.282	4156.52
672.473	4041.84
672.664	4226.15
672.855	4041.84
673.046	4117.61
673.237	4199.53
673.428	4054.12
673.619	4076.65
673.809	4084.84
674	4101.23
674.191	4156.52
674.382	3853.42
674.573	3968.11
674.764	3853.42
674.954	4115.56
675.145	3880.05
675.336	3861.62
675.527	3863.66
675.717	3896.43
675.908	3816.56
676.099	3753.07
676.289	3812.46
676.48	3646.58
676.671	3964.01
676.861	3804.27
677.052	3820.66
677.243	3757.17
677.433	3771.51
677.624	3695.73
677.814	3779.7
678.005	3691.63
678.195	3705.97
678.386	3636.34
678.576	3566.71
678.767	3544.18
678.957	3746.93
679.148	3599.48
679.338	3513.46
679.529	3646.58
679.719	3587.19
679.909	3546.23
680.1	3460.21
680.29	3478.65
680.481	3501.17
680.671	3562.61
680.861	3486.84
681.052	3517.56
681.242	3413.11
681.432	3566.71
681.622	3394.68
681.813	3513.46
682.003	3460.21
682.193	3449.97
682.383	3501.17
682.573	3490.93
682.764	3398.77
682.954	3509.37
683.144	3390.58
683.334	3382.39
683.524	3378.3
683.714	3443.83
683.904	3345.53
684.094	3308.66
684.284	3273.85
684.474	3445.88
684.664	3349.62
684.854	3386.49
685.044	3355.77
685.234	3320.95
685.424	3372.15
685.614	3271.8
685.804	3230.84
685.994	3333.24
686.184	3361.91
686.374	3169.4
686.564	3288.18
686.753	3208.31
686.943	3267.7
687.133	3279.99
687.323	3288.18
687.513	3161.21
687.702	3247.23
687.892	3134.59
688.082	3249.27
688.272	3198.07
688.461	3112.06
688.651	3241.08
688.841	3101.82
689.03	3157.11
689.22	3036.28
689.41	3120.25
689.599	3011.71
689.789	3124.35
689.979	3118.2
690.168	3013.76
690.358	3007.61
690.547	3007.61
690.737	3093.63
690.926	3134.59
691.116	2980.99
691.305	3116.16
691.495	2817.15
691.684	2985.09
691.874	3007.61
692.063	3087.48
692.252	2976.89
692.442	3042.43
692.631	2919.55
692.82	2976.89
693.01	2954.37
693.199	2849.92
693.388	2851.97
693.578	2849.92
693.767	2948.22
693.956	2911.36
694.146	2952.32
694.335	2845.82
694.524	2854.02
694.713	2796.67
694.902	2847.87
695.092	2894.97
695.281	2837.63
695.47	2796.67
695.659	2759.81
695.848	2829.44
696.037	2692.23
696.226	2706.56
696.415	2839.68
696.604	2815.1
696.793	2731.14
696.982	2763.9
697.171	2724.99
697.36	2776.19
697.549	2802.82
697.738	2731.14
697.927	2714.75
698.116	2772.1
698.305	2681.99
698.494	2798.72
698.683	2673.79
698.872	2710.66
699.061	2694.27
699.25	2559.11
699.438	2661.51
699.627	2770.05
699.816	2686.08
700.005	2649.22
700.193	2632.83
700.382	2694.27
700.571	2659.46
700.76	2608.26
700.948	2702.47
701.137	2638.98
701.326	2727.04
701.514	2620.55
701.703	2573.44
701.892	2536.58
702.08	2731.14
702.269	2444.42
702.457	2579.59
702.646	2495.62
702.834	2485.38
703.023	2598.02
703.212	2620.55
703.4	2598.02
703.589	2532.48
703.777	2540.68
703.965	2643.07
704.154	2385.03
704.342	2460.81
704.531	2575.49
704.719	2440.33
704.907	2616.45
705.096	2436.23
705.284	2413.7
705.472	2520.2
705.661	2575.49
705.849	2489.48
706.037	2495.62
706.226	2395.27
706.414	2542.72
706.602	2452.61
706.79	2503.81
706.979	2403.46
707.167	2493.57
707.355	2296.97
707.543	2432.13
707.731	2382.98
707.919	2489.48
708.107	2370.69
708.296	2348.17
708.484	2382.98
708.672	2391.17
708.86	2301.06
709.048	2452.61
709.236	2352.26
709.424	2409.61
709.612	2475.14
709.8	2440.33
709.988	2305.16
710.176	2346.12
710.364	2469
710.551	2364.55
710.739	2339.97
710.927	2280.58
711.115	2362.5
711.303	2382.98
711.491	2321.54
711.679	2301.06
711.866	2364.55
712.054	2315.4
712.242	2206.86
712.43	2303.11
712.617	2321.54
712.805	2315.4
712.993	2206.86
713.181	2301.06
713.368	2278.54
713.556	2206.86
713.744	2247.82
713.931	2276.49
714.119	2210.95
714.306	2194.57
714.494	2178.19
714.682	2251.91
714.869	2200.71
715.057	2184.33
715.244	2059.4
715.432	2335.88
715.619	2217.1
715.807	2247.82
715.994	2141.32
716.182	2292.87
716.369	2247.82
716.556	2186.38
716.744	2088.07
716.931	2288.78
717.119	2219.14
717.306	2133.13
717.493	2208.9
717.681	2178.19
717.868	2176.14
718.055	2206.86
718.242	2192.52
718.43	2294.92
718.617	2329.74
718.804	2159.75
718.991	2198.67
719.179	2217.1
719.366	2063.5
719.553	2198.67
719.74	1948.81
719.927	2135.18
720.114	2100.36
720.301	1977.48
720.488	2100.36
720.676	2071.69
720.863	2047.12
721.05	2098.31
721.237	2096.27
721.424	2157.71
721.611	2000.01
721.798	1963.15
721.985	2053.26
722.172	2004.11
722.358	1961.1
722.545	2077.83
722.732	2059.4
722.919	1944.72
723.106	2038.92
723.293	1971.34
723.48	1936.53
723.667	2016.4
723.853	1975.44
724.04	2114.7
724.227	2059.4
724.414	1985.68
724.6	2000.01
724.787	2055.31
724.974	2069.64
725.161	1954.96
725.347	1995.92
725.534	1993.87
725.72	1928.33
725.907	2038.92
726.094	2045.07
726.28	1969.29
726.467	1918.09
726.653	2004.11
726.84	1997.96
727.027	2083.98
727.213	1971.34
727.4	1911.95
727.586	1967.24
727.773	1979.53
727.959	1895.57
728.145	2004.11
728.332	1920.14
728.518	1889.42
728.705	1940.62
728.891	1916.05
729.077	1838.22
729.264	1944.72
729.45	1954.96
729.636	1930.38
729.823	1973.39
730.009	2032.78
730.195	1920.14
730.382	1866.89
730.568	1905.81
730.754	1858.7
730.94	1883.28
731.126	1961.1
731.313	1922.19
731.499	1827.98
731.685	2018.44
731.871	1875.09
732.057	1903.76
732.243	1797.26
732.429	1879.18
732.615	1875.09
732.801	1858.7
732.987	1895.57
733.173	1805.46
733.359	1813.65
733.545	1840.27
733.731	1860.75
733.917	1848.46
734.103	1774.74
734.289	1852.56
734.475	1862.8
734.661	1860.75
734.847	1879.18
735.033	1815.69
735.219	1907.85
735.404	1848.46
735.59	1850.51
735.776	1834.13
735.962	1870.99
736.148	1805.46
736.333	1801.36
736.519	1821.84
736.705	1772.69
736.89	1776.78
737.076	1862.8
737.262	1723.54
737.447	1688.72
737.633	1776.78
737.819	1731.73
738.004	1754.26
738.19	1809.55
738.375	1678.48
738.561	1741.97
738.747	1846.41
738.932	1719.44
739.118	1733.78
739.303	1672.34
739.489	1690.77
739.674	1680.53
739.859	1608.85
740.045	1662.1
740.23	1701.01
740.416	1594.51
740.601	1731.73
740.786	1682.58
740.972	1606.8
741.157	1584.27
741.342	1660.05
741.528	1588.37
741.713	1741.97
741.898	1629.33
742.084	1643.67
742.269	1629.33
742.454	1651.86
742.639	1635.47
742.824	1563.79
743.01	1631.38
743.195	1553.55
743.38	1576.08
743.565	1528.98
743.75	1563.79
743.935	1610.9
744.12	1641.62
744.305	1531.03
744.49	1520.79
744.675	1490.07
744.86	1496.21
745.045	1571.99
745.23	1512.6
745.415	1471.64
745.6	1485.97
745.785	1420.44
745.97	1490.07
746.155	1563.79
746.34	1428.63
746.525	1432.72
746.71	1492.12
746.895	1477.78
747.079	1346.71
747.264	1449.11
747.449	1541.27
747.634	1373.33
747.819	1436.82
748.003	1361.05
748.188	1408.15
748.373	1528.98
748.557	1299.61
748.742	1332.37
748.927	1336.47
749.111	1250.46
749.296	1334.42
749.481	1283.22
749.665	1375.38
749.85	1311.89
750.034	1283.22
750.219	1318.04
750.404	1240.22
750.588	1203.35
750.773	1275.03
750.957	1277.08
751.141	1289.37
751.326	1215.64
751.51	1223.83
751.695	1236.12
751.879	1299.61
752.064	1291.41
752.248	1176.73
752.432	1207.45
752.617	1148.06
752.801	1223.83
752.985	1166.49
753.17	1195.16
753.354	1199.26
753.538	1236.12
753.722	1121.43
753.907	1143.96
754.091	1031.32
754.275	1113.24
754.459	1059.99
754.643	1178.78
754.828	1203.35
755.012	1086.62
755.196	1143.96
755.38	1082.52
755.564	1090.71
755.748	1051.8
755.932	969.88
756.116	1131.67
756.3	1047.71
756.484	1039.51
756.668	1035.42
756.852	943.26
757.036	990.36
757.22	1006.75
757.404	971.93
757.588	1006.75
757.772	1023.13
757.956	953.5
758.14	988.32
758.323	957.6
758.507	1029.27
758.691	1029.27
758.875	994.46
759.059	933.02
759.242	937.12
759.426	937.12
759.61	922.78
759.794	996.51
759.977	957.6
760.161	994.46
760.345	953.5
760.528	961.69
760.712	971.93
760.895	896.16
761.079	857.25
761.263	826.53
761.446	771.23
761.63	863.39
761.813	990.36
761.997	789.66
762.18	933.02
762.364	914.59
762.547	773.28
762.731	806.05
762.914	920.73
763.098	881.82
763.281	879.77
763.464	824.48
763.648	920.73
763.831	849.05
764.015	920.73
764.198	830.62
764.381	904.35
764.564	879.77
764.748	773.28
764.931	871.58
765.114	806.05
765.297	875.68
765.481	711.84
765.664	756.9
765.847	765.09
766.03	781.47
766.213	799.9
766.397	709.79
766.58	773.28
766.763	758.94
766.946	756.9
767.129	847.01
767.312	822.43
767.495	810.14
767.678	658.59
767.861	793.76
768.044	760.99
768.227	744.61
768.41	773.28
768.593	758.94
768.776	730.27
768.959	674.98
769.142	701.6
769.324	738.46
769.507	724.13
769.69	660.64
769.873	726.18
770.056	810.14
770.239	769.18
770.421	779.42
770.604	691.36
770.787	720.03
770.97	640.16
771.152	713.89
771.335	728.22
771.518	625.83
771.7	693.41
771.883	717.98
772.066	601.25
772.248	625.83
772.431	699.55
772.613	625.83
772.796	629.92
772.978	707.74
773.161	760.99
773.343	679.07
773.526	650.4
773.708	554.15
773.891	584.87
774.073	660.64
774.256	617.63
774.438	593.06
774.621	582.82
774.803	568.48
774.985	634.02
775.168	683.17
775.35	564.39
775.532	617.63
775.715	531.62
775.897	652.45
776.079	537.76
776.261	539.81
776.444	564.39
776.626	650.4
776.808	582.82
776.99	552.1
777.173	545.95
777.355	650.4
777.537	586.91
777.719	574.63
777.901	572.58
778.083	496.8
778.265	588.96
778.447	562.34
778.629	629.92
778.811	484.52
778.993	513.19
779.175	584.87
779.357	439.46
779.539	543.91
779.721	519.33
779.903	502.95
780.085	515.23
780.267	576.67
780.449	539.81
780.631	533.67
780.812	488.61
780.994	543.91
781.176	386.21
781.358	496.8
781.54	461.99
781.721	484.52
781.903	527.52
782.085	423.08
782.267	388.26
782.448	371.88
782.63	482.47
782.812	476.32
782.993	447.65
783.175	437.41
783.357	478.37
783.538	388.26
783.72	416.93
783.901	398.5
784.083	365.73
784.264	482.47
784.446	455.84
784.627	353.45
784.809	466.08
784.99	359.59
785.172	412.84
785.353	404.64
785.535	347.3
785.716	365.73
785.897	425.12
786.079	347.3
786.26	357.54
786.441	382.12
786.623	300.2
786.804	414.88
786.985	335.01
787.167	367.78
787.348	339.11
787.529	380.07
787.71	423.08
787.891	357.54
788.073	292.01
788.254	326.82
788.435	365.73
788.616	330.92
788.797	335.01
788.978	322.73
789.159	337.06
789.34	349.35
789.522	332.97
789.703	355.49
789.884	353.45
790.065	306.34
790.246	353.45
790.427	273.57
790.607	337.06
790.788	357.54
790.969	318.63
791.15	249
791.331	359.59
791.512	267.43
791.693	279.72
791.874	261.29
792.054	294.05
792.235	345.25
792.416	285.86
792.597	273.57
792.778	249
792.958	292.01
793.139	216.23
793.32	257.19
793.5	265.38
793.681	267.43
793.862	269.48
794.042	253.09
794.223	269.48
794.404	273.57
794.584	273.57
794.765	318.63
794.945	298.15
795.126	224.42
795.306	269.48
795.487	224.42
795.667	249
795.848	232.62
796.028	193.7
796.209	240.81
796.389	257.19
796.57	271.53
796.75	146.6
796.93	228.52
797.111	224.42
797.291	289.96
797.471	320.68
797.652	251.05
797.832	283.81
798.012	257.19
798.192	253.09
798.373	349.35
798.553	306.34
798.733	265.38
798.913	224.42
799.093	240.81
799.274	197.8
799.454	265.38
799.634	220.33
799.814	335.01
799.994	195.75
800.174	203.94
800.354	189.61
800.534	216.23
800.714	193.7
800.894	289.96
801.074	162.98
801.254	169.13
801.434	195.75
801.614	220.33
801.794	185.51
801.974	732.32
802.154	240.81
802.334	281.77
802.514	179.37
802.693	134.31
802.873	191.66
803.053	132.26
803.233	173.22
803.413	242.85
803.592	142.5
803.772	267.43
803.952	97.45
804.131	44.2
804.311	281.77
804.491	210.09
804.67	109.74
804.85	136.36
805.03	191.66
805.209	240.81
805.389	154.79
805.568	160.94
805.748	158.89
805.928	169.13
806.107	226.47
806.287	76.97
806.466	134.31
806.646	173.22
806.825	122.02
807.004	165.03
807.184	181.42
807.363	236.71
807.543	240.81
807.722	144.55
807.901	167.08
808.081	208.04
808.26	154.79
808.439	177.32
808.619	146.6
808.798	251.05
808.977	83.11
809.156	146.6
809.336	187.56
809.515	187.56
809.694	97.45
809.873	60.59
810.052	62.63
810.231	177.32
810.411	126.12
810.59	124.07
810.769	150.7
810.948	191.66
811.127	142.5
811.306	132.26
811.485	167.08
811.664	185.51
811.843	158.89
812.022	85.16
812.201	109.74
812.38	165.03
812.559	128.17
812.737	101.55
812.916	68.78
813.095	130.22
813.274	126.12
813.453	97.45
813.632	56.49
813.811	191.66
813.989	91.31
814.168	142.5
814.347	93.35
814.526	126.12
814.704	146.6
814.883	191.66
815.062	148.65
815.24	138.41
815.419	25.77
815.598	162.98
815.776	68.78
815.955	79.02
816.133	199.85
816.312	130.22
816.49	85.16
816.669	154.79
816.847	136.36
817.026	42.15
817.204	64.68
817.383	171.18
817.561	58.54
817.74	97.45
817.918	99.5
818.097	79.02
818.275	46.25
818.453	142.5
818.632	124.07
818.81	66.73
818.988	85.16
819.167	169.13
819.345	152.74
819.523	107.69
819.701	72.87
819.879	97.45
820.058	177.32
820.236	83.11
820.414	136.36
820.592	109.74
820.77	95.4
820.948	31.91
821.127	117.93
821.305	29.87
821.483	68.78
821.661	109.74
821.839	95.4
822.017	66.73
822.195	19.63
822.373	68.78
822.551	117.93
822.729	103.59
822.907	91.31
823.085	93.35
823.262	142.5
823.44	117.93
823.618	68.78
823.796	76.97
823.974	113.83
824.152	158.89
824.329	130.22
824.507	97.45
824.685	87.21
824.863	23.72
825.04	160.94
825.218	95.4
825.396	117.93
825.574	126.12
825.751	93.35
825.929	119.98
826.107	87.21
826.284	103.59
826.462	62.63
826.639	111.78
826.817	48.3
826.994	70.83
827.172	60.59
827.349	136.36
827.527	11.43
827.704	138.41
827.882	60.59
828.059	150.7
828.237	54.44
828.414	89.26
828.591	-9.05
828.769	68.78
828.946	38.06
829.124	93.35
829.301	74.92
829.478	117.93
829.655	128.17
829.833	76.97
830.01	44.2
830.187	142.5
830.364	44.2
830.542	36.01
830.719	109.74
830.896	117.93
831.073	13.48
831.25	46.25
831.427	144.55
831.604	40.11
831.782	38.06
831.959	52.39
832.136	97.45
832.313	68.78
832.49	60.59
832.667	48.3
832.844	68.78
833.021	165.03
833.198	-4.95
833.374	27.82
833.551	17.58
833.728	85.16
833.905	132.26
834.082	-17.24
834.259	150.7
834.436	85.16
834.612	81.07
834.789	60.59
834.966	130.22
835.143	134.31
835.319	109.74
835.496	40.11
835.673	109.74
835.85	40.11
836.026	117.93
836.203	52.39
836.38	85.16
836.556	46.25
836.733	87.21
836.909	60.59
837.086	-11.09
837.262	11.43
837.439	36.01
837.616	46.25
837.792	56.49
837.968	93.35
838.145	83.11
838.321	-29.52
838.498	54.44
838.674	64.68
838.851	29.87
839.027	76.97
839.203	29.87
839.38	56.49
839.556	27.82
839.732	126.12
839.909	-13.14
840.085	56.49
840.261	-4.95
840.437	76.97
840.614	72.87
840.79	38.06
840.966	93.35
841.142	50.35
841.318	31.91
841.494	5.29
841.671	119.98
841.847	-17.24
842.023	93.35
842.199	70.83
842.375	132.26
842.551	36.01
842.727	68.78
842.903	113.83
843.079	68.78
843.255	109.74
843.431	29.87
843.607	27.82
843.783	-29.52
843.959	150.7
844.134	13.48
844.31	85.16
844.486	68.78
844.662	72.87
844.838	19.63
845.013	68.78
845.189	44.2
845.365	93.35
845.541	44.2
845.716	31.91
845.892	52.39
846.068	17.58
846.244	29.87
846.419	29.87
846.595	97.45
846.77	62.63
846.946	36.01
847.122	85.16
847.297	64.68
847.473	107.69
847.648	-13.14
847.824	-9.05
847.999	42.15
848.175	23.72
848.35	13.48
848.526	48.3
848.701	29.87
848.876	31.91
849.052	36.01
849.227	-31.57
849.403	68.78
849.578	31.91
849.753	13.48
849.929	54.44
850.104	-21.33
850.279	19.63
850.454	19.63
850.63	97.45
850.805	-11.09
850.98	15.53
851.155	27.82
851.33	179.37
851.505	-72.53
851.681	48.3
851.856	-39.76
852.031	87.21
852.206	25.77
852.381	44.2
852.556	83.11
852.731	60.59
852.906	3.24
853.081	64.68
853.256	66.73
853.431	60.59
853.606	60.59
853.781	52.39
853.956	85.16
854.131	38.06
854.305	11.43
854.48	44.2
854.655	-4.95
854.83	-25.43
855.005	27.82
855.18	113.83
855.354	93.35
855.529	11.43
855.704	111.78
855.879	83.11
856.053	38.06
856.228	46.25
856.403	-4.95
856.577	-25.43
856.752	-0.85
856.926	29.87
857.101	-13.14
857.276	48.3
857.45	15.53
857.625	46.25
857.799	36.01
857.974	103.59
858.148	-4.95
858.323	74.92
858.497	13.48
858.672	46.25
858.846	21.67
859.02	19.63
859.195	-15.19
859.369	11.43
859.543	52.39
859.718	19.63
859.892	-31.57
860.066	-4.95
860.241	-9.05
860.415	27.82
860.589	3.24
860.763	54.44
860.938	-21.33
861.112	19.63
861.286	-7
861.46	21.67
861.634	101.55
861.808	38.06
861.982	-11.09
862.157	44.2
862.331	38.06
862.505	-4.95
862.679	11.43
862.853	-29.52
863.027	-15.19
863.201	64.68
863.375	9.39
863.549	-0.85
863.722	-31.57
863.896	3.24
864.07	-31.57
864.244	91.31
864.418	-13.14
864.592	-2.9
864.766	36.01
864.939	11.43
865.113	-0.85
865.287	46.25
865.461	27.82
865.634	72.87
865.808	-9.05
865.982	-9.05
866.156	-58.2
866.329	-35.67
866.503	83.11
866.676	60.59
866.85	31.91
867.024	25.77
867.197	5.29
867.371	68.78
867.544	19.63
867.718	-35.67
867.891	-45.91
868.065	-45.91
868.238	70.83
868.412	19.63
868.585	15.53
868.759	40.11
868.932	27.82
869.105	-43.86
869.279	-9.05
869.452	-2.9
869.625	29.87
869.799	-2.9
869.972	-82.77
870.145	68.78
870.319	-11.09
870.492	44.2
870.665	-29.52
870.838	7.34
871.011	60.59
871.185	-4.95
871.358	19.63
871.531	44.2
871.704	-29.52
871.877	46.25
872.05	17.58
872.223	7.34
872.396	-29.52
872.569	40.11
872.742	31.91
872.915	93.35
873.088	-70.48
873.261	36.01
873.434	-4.95
873.607	-9.05
873.78	40.11
873.953	36.01
874.126	-4.95
874.299	-19.29
874.471	36.01
874.644	42.15
874.817	5.29
874.99	101.55
875.163	29.87
875.335	-13.14
875.508	11.43
875.681	89.26
875.853	27.82
876.026	31.91
876.199	-45.91
876.371	60.59
876.544	-2.9
876.717	68.78
876.889	-11.09
877.062	-21.33
877.234	44.2
877.407	-13.14
877.579	29.87
877.752	101.55
877.924	3.24
878.097	162.98
878.269	-54.1
878.442	-13.14
878.614	17.58
878.786	42.15
878.959	33.96
879.131	15.53
879.303	-43.86
879.476	27.82
879.648	9.39
879.82	-52.05
879.993	-9.05
880.165	60.59
880.337	-19.29
880.509	19.63
880.681	-21.33
880.854	3.24
881.026	76.97
881.198	111.78
881.37	-50
881.542	11.43
881.714	-0.85
881.886	-17.24
882.058	3.24
882.23	-17.24
882.402	36.01
882.574	5.29
882.746	25.77
882.918	31.91
883.09	11.43
883.262	-23.38
883.434	-43.86
883.606	13.48
883.778	19.63
883.95	52.39
884.122	33.96
884.293	5.29
884.465	27.82
884.637	81.07
884.809	13.48
884.98	48.3
885.152	17.58
885.324	46.25
885.496	3.24
885.667	52.39
885.839	-21.33
886.011	72.87
886.182	15.53
886.354	-37.72
886.525	-2.9
886.697	19.63
886.869	-47.96
887.04	44.2
887.212	40.11
887.383	95.4
887.555	56.49
887.726	117.93
887.897	29.87
888.069	38.06
888.24	138.41
888.412	-4.95
888.583	1.19
888.754	-43.86
888.926	36.01
889.097	-7
889.268	29.87
889.44	48.3
889.611	11.43
889.782	-47.96
889.953	11.43
890.125	7.34
890.296	60.59
890.467	-27.48
890.638	40.11
890.809	-11.09
890.98	-13.14
891.151	-19.29
891.323	27.82
891.494	23.72
891.665	11.43
891.836	44.2
892.007	76.97
892.178	-35.67
892.349	64.68
892.52	19.63
892.691	11.43
892.862	-13.14
893.032	-11.09
893.203	21.67
893.374	-4.95
893.545	64.68
893.716	-43.86
893.887	52.39
894.057	19.63
894.228	-9.05
894.399	19.63
894.57	87.21
894.74	9.39
894.911	19.63
895.082	-33.62
895.253	-35.67
895.423	19.63
895.594	38.06
895.764	81.07
895.935	-0.85
896.106	-52.05
896.276	-27.48
896.447	-2.9
896.617	33.96
896.788	-2.9
896.958	25.77
897.129	-9.05
897.299	-13.14
897.47	44.2
897.64	36.01
897.81	13.48
897.981	-4.95
898.151	-58.2
898.322	27.82
898.492	-2.9
898.662	-17.24
898.832	-4.95
899.003	5.29
899.173	52.39
899.343	-19.29
899.513	-17.24
