Data from USB4F104151__164__14-44-46-657.txt Node

Date: Thu Mar 13 14:44:46 EDT 2025
User: louis
Spectrometer: USB4F10415
Trigger mode: 4
Integration Time (sec): 2.000000E-2
Scans to average: 1
Electric dark correction enabled: true
Nonlinearity correction enabled: false
Boxcar width: 0
XAxis mode: Wavelengths
Number of Pixels in Spectrum: 3648
>>>>>Begin Spectral Data<<<<<
178.204	-116.05
178.424	-116.05
178.644	-116.05
178.864	-120.15
179.084	-159.06
179.304	-32.08
179.524	-32.08
179.744	37.55
179.964	45.74
180.184	15.02
180.404	66.22
180.624	-21.85
180.844	-91.48
181.064	-85.33
181.283	47.79
181.503	12.97
181.723	37.55
181.943	45.74
182.163	96.94
182.383	-36.18
182.602	55.98
182.822	17.07
183.042	10.92
183.262	-11.61
183.482	31.4
183.701	-36.18
183.921	-15.7
184.141	-23.89
184.361	15.02
184.58	70.31
184.8	21.16
185.02	-58.71
185.239	19.11
185.459	21.16
185.679	33.45
185.898	-25.94
186.118	72.36
186.338	-42.32
186.557	12.97
186.777	-64.85
186.997	-36.18
187.216	-27.99
187.436	53.93
187.655	-32.08
187.875	15.02
188.095	21.16
188.314	-23.89
188.534	-21.85
188.753	-11.61
188.973	-1.37
189.192	31.4
189.412	41.64
189.631	12.97
189.851	-1.37
190.07	76.46
190.29	-48.47
190.509	15.02
190.729	37.55
190.948	74.41
191.168	70.31
191.387	47.79
191.607	-3.41
191.826	25.26
192.045	37.55
192.265	58.03
192.484	-3.41
192.704	21.16
192.923	-15.7
193.142	103.08
193.362	-64.85
193.581	45.74
193.8	111.27
194.02	62.12
194.239	-11.61
194.458	45.74
194.678	55.98
194.897	-7.51
195.116	45.74
195.335	12.97
195.555	33.45
195.774	12.97
195.993	-7.51
196.212	-9.56
196.432	21.16
196.651	62.12
196.87	-44.37
197.089	49.83
197.308	21.16
197.528	-3.41
197.747	0.68
197.966	-11.61
198.185	39.59
198.404	21.16
198.623	131.75
198.842	-46.42
199.062	-19.8
199.281	39.59
199.5	-15.7
199.719	29.35
199.938	10.92
200.157	-7.51
200.376	-3.41
200.595	8.87
200.814	17.07
201.033	21.16
201.252	43.69
201.471	33.45
201.69	17.07
201.909	33.45
202.128	66.22
202.347	49.83
202.566	6.83
202.785	37.55
203.004	-40.28
203.223	39.59
203.442	-11.61
203.661	2.73
203.879	-23.89
204.098	86.7
204.317	-9.56
204.536	53.93
204.755	23.21
204.974	45.74
205.193	4.78
205.411	66.22
205.63	37.55
205.849	62.12
206.068	60.07
206.287	-40.28
206.505	70.31
206.724	15.02
206.943	49.83
207.162	-11.61
207.381	-11.61
207.599	23.21
207.818	-27.99
208.037	88.75
208.255	-19.8
208.474	-17.75
208.693	60.07
208.911	47.79
209.13	58.03
209.349	43.69
209.567	-27.99
209.786	-5.46
210.005	74.41
210.223	86.7
210.442	-81.24
210.661	-15.7
210.879	23.21
211.098	45.74
211.316	62.12
211.535	35.5
211.753	-27.99
211.972	49.83
212.191	-7.51
212.409	37.55
212.628	45.74
212.846	-9.56
213.065	119.46
213.283	55.98
213.502	-32.08
213.72	29.35
213.938	70.31
214.157	25.26
214.375	37.55
214.594	21.16
214.812	21.16
215.031	31.4
215.249	-15.7
215.467	49.83
215.686	15.02
215.904	70.31
216.122	12.97
216.341	74.41
216.559	74.41
216.778	39.59
216.996	78.51
217.214	6.83
217.432	-15.7
217.651	-40.28
217.869	12.97
218.087	-42.32
218.306	-23.89
218.524	23.21
218.742	-40.28
218.96	-36.18
219.179	4.78
219.397	-5.46
219.615	31.4
219.833	70.31
220.051	47.79
220.27	92.84
220.488	45.74
220.706	-36.18
220.924	55.98
221.142	21.16
221.36	2.73
221.578	12.97
221.796	70.31
222.015	-11.61
222.233	58.03
222.451	45.74
222.669	19.11
222.887	47.79
223.105	-52.56
223.323	-11.61
223.541	-7.51
223.759	144.04
223.977	35.5
224.195	45.74
224.413	58.03
224.631	31.4
224.849	121.51
225.067	45.74
225.285	-58.71
225.503	62.12
225.721	33.45
225.939	-7.51
226.157	74.41
226.375	96.94
226.592	27.31
226.81	-17.75
227.028	74.41
227.246	96.94
227.464	12.97
227.682	4.78
227.9	15.02
228.117	-1.37
228.335	55.98
228.553	23.21
228.771	-87.38
228.989	53.93
229.206	53.93
229.424	-3.41
229.642	-25.94
229.86	21.16
230.077	105.13
230.295	-19.8
230.513	-3.41
230.731	4.78
230.948	70.31
231.166	-11.61
231.384	33.45
231.601	-5.46
231.819	35.5
232.037	4.78
232.254	39.59
232.472	-25.94
232.689	-32.08
232.907	-50.52
233.125	17.07
233.342	45.74
233.56	53.93
233.777	-1.37
233.995	29.35
234.213	41.64
234.43	-7.51
234.648	53.93
234.865	35.5
235.083	94.89
235.3	-7.51
235.518	70.31
235.735	12.97
235.953	60.07
236.17	53.93
236.388	-23.89
236.605	70.31
236.822	47.79
237.04	4.78
237.257	39.59
237.475	45.74
237.692	88.75
237.909	49.83
238.127	8.87
238.344	-11.61
238.562	21.16
238.779	53.93
238.996	21.16
239.214	37.55
239.431	12.97
239.648	60.07
239.865	29.35
240.083	121.51
240.3	45.74
240.517	-19.8
240.735	119.46
240.952	111.27
241.169	45.74
241.386	37.55
241.603	68.27
241.821	-3.41
242.038	82.6
242.255	29.35
242.472	17.07
242.689	72.36
242.907	45.74
243.124	90.79
243.341	37.55
243.558	-7.51
243.775	-77.14
243.992	-27.99
244.209	62.12
244.426	55.98
244.643	-11.61
244.86	-17.75
245.078	70.31
245.295	39.59
245.512	64.17
245.729	-36.18
245.946	-17.75
246.163	-25.94
246.38	-66.9
246.597	-9.56
246.814	60.07
247.031	-68.95
247.248	47.79
247.464	-15.7
247.681	23.21
247.898	-3.41
248.115	29.35
248.332	-52.56
248.549	6.83
248.766	86.7
248.983	37.55
249.2	62.12
249.417	72.36
249.633	12.97
249.85	53.93
250.067	51.88
250.284	6.83
250.501	66.22
250.717	4.78
250.934	47.79
251.151	37.55
251.368	10.92
251.585	-25.94
251.801	70.31
252.018	78.51
252.235	15.02
252.451	29.35
252.668	12.97
252.885	4.78
253.102	-42.32
253.318	-71
253.535	27.31
253.752	-52.56
253.968	-52.56
254.185	45.74
254.401	53.93
254.618	41.64
254.835	-36.18
255.051	86.7
255.268	66.22
255.484	-40.28
255.701	23.21
255.917	86.7
256.134	-23.89
256.351	37.55
256.567	-66.9
256.784	-15.7
257	-9.56
257.217	-21.85
257.433	39.59
257.65	21.16
257.866	2.73
258.082	-34.13
258.299	49.83
258.515	33.45
258.732	45.74
258.948	39.59
259.165	-48.47
259.381	-101.72
259.597	29.35
259.814	-21.85
260.03	0.68
260.246	6.83
260.463	12.97
260.679	78.51
260.895	-7.51
261.112	53.93
261.328	12.97
261.544	21.16
261.761	37.55
261.977	-7.51
262.193	-68.95
262.409	21.16
262.626	31.4
262.842	105.13
263.058	37.55
263.274	25.26
263.49	-3.41
263.707	94.89
263.923	12.97
264.139	21.16
264.355	107.18
264.571	58.03
264.787	53.93
265.004	-1.37
265.22	41.64
265.436	6.83
265.652	105.13
265.868	-17.75
266.084	-5.46
266.3	21.16
266.516	-1.37
266.732	53.93
266.948	74.41
267.164	62.12
267.38	-81.24
267.596	8.87
267.812	86.7
268.028	-17.75
268.244	17.07
268.46	41.64
268.676	21.16
268.892	-19.8
269.108	47.79
269.324	29.35
269.54	66.22
269.756	98.99
269.972	0.68
270.188	12.97
270.403	-30.04
270.619	41.64
270.835	31.4
271.051	31.4
271.267	-46.42
271.483	19.11
271.698	76.46
271.914	12.97
272.13	70.31
272.346	101.03
272.562	49.83
272.777	-23.89
272.993	45.74
273.209	6.83
273.425	29.35
273.64	-5.46
273.856	53.93
274.072	-11.61
274.287	37.55
274.503	45.74
274.719	-34.13
274.934	31.4
275.15	-30.04
275.366	25.26
275.581	4.78
275.797	21.16
276.012	45.74
276.228	8.87
276.444	-19.8
276.659	15.02
276.875	-40.28
277.09	-19.8
277.306	6.83
277.521	80.55
277.737	29.35
277.952	8.87
278.168	15.02
278.383	21.16
278.599	37.55
278.814	84.65
279.03	47.79
279.245	66.22
279.461	-50.52
279.676	-5.46
279.892	-7.51
280.107	37.55
280.322	-52.56
280.538	45.74
280.753	-66.9
280.969	2.73
281.184	-1.37
281.399	82.6
281.615	15.02
281.83	37.55
282.045	-3.41
282.26	-17.75
282.476	70.31
282.691	115.37
282.906	-23.89
283.122	23.21
283.337	64.17
283.552	-15.7
283.767	-7.51
283.983	21.16
284.198	-11.61
284.413	23.21
284.628	45.74
284.843	74.41
285.058	66.22
285.274	-40.28
285.489	-60.76
285.704	-7.51
285.919	-7.51
286.134	19.11
286.349	45.74
286.564	-15.7
286.779	80.55
286.995	-64.85
287.21	12.97
287.425	-36.18
287.64	64.17
287.855	-52.56
288.07	-105.81
288.285	23.21
288.5	80.55
288.715	21.16
288.93	-23.89
289.145	31.4
289.36	58.03
289.575	-3.41
289.79	55.98
290.004	6.83
290.219	10.92
290.434	-25.94
290.649	-58.71
290.864	6.83
291.079	45.74
291.294	-1.37
291.509	-62.8
291.724	45.74
291.938	47.79
292.153	62.12
292.368	-40.28
292.583	-21.85
292.798	113.32
293.012	-11.61
293.227	45.74
293.442	12.97
293.657	0.68
293.871	15.02
294.086	58.03
294.301	51.88
294.516	103.08
294.73	47.79
294.945	-23.89
295.16	15.02
295.374	-46.42
295.589	64.17
295.804	8.87
296.018	-42.32
296.233	0.68
296.447	74.41
296.662	29.35
296.877	-3.41
297.091	31.4
297.306	12.97
297.52	33.45
297.735	70.31
297.949	45.74
298.164	111.27
298.378	53.93
298.593	-9.56
298.807	-25.94
299.022	72.36
299.236	21.16
299.451	-25.94
299.665	53.93
299.88	47.79
300.094	53.93
300.309	-27.99
300.523	4.78
300.737	-3.41
300.952	-27.99
301.166	2.73
301.381	12.97
301.595	15.02
301.809	-15.7
302.024	60.07
302.238	-1.37
302.452	70.31
302.667	60.07
302.881	62.12
303.095	21.16
303.309	96.94
303.524	29.35
303.738	33.45
303.952	-25.94
304.166	29.35
304.381	-17.75
304.595	15.02
304.809	-3.41
305.023	-32.08
305.237	62.12
305.452	-36.18
305.666	78.51
305.88	154.28
306.094	2.73
306.308	105.13
306.522	53.93
306.736	53.93
306.95	-7.51
307.164	45.74
307.379	-7.51
307.593	53.93
307.807	-36.18
308.021	94.89
308.235	51.88
308.449	-75.09
308.663	107.18
308.877	45.74
309.091	-32.08
309.305	86.7
309.519	-30.04
309.733	37.55
309.947	29.35
310.161	45.74
310.374	4.78
310.588	45.74
310.802	-3.41
311.016	27.31
311.23	49.83
311.444	21.16
311.658	47.79
311.872	74.41
312.085	125.61
312.299	12.97
312.513	88.75
312.727	-1.37
312.941	29.35
313.154	4.78
313.368	33.45
313.582	0.68
313.796	-73.04
314.009	-36.18
314.223	12.97
314.437	-13.65
314.651	78.51
314.864	-23.89
315.078	37.55
315.292	-1.37
315.505	-15.7
315.719	105.13
315.933	-3.41
316.146	94.89
316.36	-44.37
316.573	37.55
316.787	82.6
317.001	31.4
317.214	23.21
317.428	76.46
317.641	33.45
317.855	-23.89
318.068	-9.56
318.282	111.27
318.495	82.6
318.709	29.35
318.922	-17.75
319.136	154.28
319.349	-21.85
319.563	15.02
319.776	45.74
319.99	-34.13
320.203	78.51
320.417	12.97
320.63	-58.71
320.843	107.18
321.057	55.98
321.27	70.31
321.483	45.74
321.697	41.64
321.91	41.64
322.124	-7.51
322.337	90.79
322.55	4.78
322.763	55.98
322.977	29.35
323.19	12.97
323.403	-52.56
323.617	49.83
323.83	15.02
324.043	64.17
324.256	-73.04
324.469	0.68
324.683	-30.04
324.896	-19.8
325.109	37.55
325.322	-71
325.535	37.55
325.748	66.22
325.962	-3.41
326.175	84.65
326.388	92.84
326.601	45.74
326.814	-17.75
327.027	12.97
327.24	86.7
327.453	49.83
327.666	12.97
327.879	-15.7
328.092	31.4
328.305	70.31
328.518	-1.37
328.731	39.59
328.944	-3.41
329.157	80.55
329.37	-15.7
329.583	96.94
329.796	23.21
330.009	39.59
330.222	94.89
330.435	6.83
330.648	21.16
330.861	4.78
331.073	62.12
331.286	29.35
331.499	31.4
331.712	4.78
331.925	37.55
332.138	23.21
332.35	8.87
332.563	12.97
332.776	55.98
332.989	55.98
333.202	45.74
333.414	41.64
333.627	10.92
333.84	8.87
334.053	45.74
334.265	-1.37
334.478	17.07
334.691	-34.13
334.903	-3.41
335.116	21.16
335.329	23.21
335.541	64.17
335.754	70.31
335.966	-3.41
336.179	-44.37
336.392	10.92
336.604	-3.41
336.817	43.69
337.029	12.97
337.242	-68.95
337.454	39.59
337.667	58.03
337.88	21.16
338.092	27.31
338.305	-7.51
338.517	29.35
338.729	53.93
338.942	41.64
339.154	17.07
339.367	60.07
339.579	86.7
339.792	25.26
340.004	41.64
340.217	23.21
340.429	-27.99
340.641	21.16
340.854	-60.76
341.066	-1.37
341.278	62.12
341.491	141.99
341.703	4.78
341.915	-11.61
342.128	-40.28
342.34	-1.37
342.552	6.83
342.764	78.51
342.977	21.16
343.189	64.17
343.401	113.32
343.613	45.74
343.826	33.45
344.038	-42.32
344.25	25.26
344.462	-11.61
344.674	88.75
344.886	0.68
345.099	-11.61
345.311	-36.18
345.523	31.4
345.735	68.27
345.947	45.74
346.159	-40.28
346.371	37.55
346.583	25.26
346.795	78.51
347.007	27.31
347.219	80.55
347.431	-15.7
347.643	29.35
347.855	45.74
348.067	8.87
348.279	2.73
348.491	12.97
348.703	-1.37
348.915	17.07
349.127	-27.99
349.339	33.45
349.551	-68.95
349.763	55.98
349.975	17.07
350.187	74.41
350.399	74.41
350.61	17.07
350.822	15.02
351.034	8.87
351.246	23.21
351.458	127.66
351.669	103.08
351.881	64.17
352.093	47.79
352.305	103.08
352.517	86.7
352.728	80.55
352.94	4.78
353.152	37.55
353.363	-34.13
353.575	-19.8
353.787	12.97
353.999	53.93
354.21	144.04
354.422	55.98
354.633	-48.47
354.845	-3.41
355.057	88.75
355.268	72.36
355.48	37.55
355.692	-77.14
355.903	53.93
356.115	-19.8
356.326	29.35
356.538	96.94
356.749	55.98
356.961	39.59
357.172	-13.65
357.384	62.12
357.595	76.46
357.807	29.35
358.018	29.35
358.23	41.64
358.441	62.12
358.653	39.59
358.864	-9.56
359.075	23.21
359.287	33.45
359.498	105.13
359.709	45.74
359.921	105.13
360.132	80.55
360.344	55.98
360.555	23.21
360.766	0.68
360.977	-50.52
361.189	115.37
361.4	39.59
361.611	70.31
361.823	-3.41
362.034	4.78
362.245	-11.61
362.456	41.64
362.667	66.22
362.879	23.21
363.09	168.62
363.301	64.17
363.512	45.74
363.723	23.21
363.935	-1.37
364.146	62.12
364.357	35.5
364.568	4.78
364.779	-101.72
364.99	37.55
365.201	4.78
365.412	47.79
365.623	-44.37
365.834	6.83
366.045	47.79
366.256	103.08
366.467	78.51
366.678	53.93
366.889	19.11
367.1	-64.85
367.311	-23.89
367.522	25.26
367.733	66.22
367.944	74.41
368.155	-3.41
368.366	-40.28
368.577	-3.41
368.788	45.74
368.999	23.21
369.209	12.97
369.42	131.75
369.631	111.27
369.842	-9.56
370.053	86.7
370.264	80.55
370.474	-1.37
370.685	111.27
370.896	-11.61
371.107	78.51
371.317	53.93
371.528	-11.61
371.739	53.93
371.95	21.16
372.16	-5.46
372.371	-60.76
372.582	78.51
372.792	31.4
373.003	21.16
373.214	31.4
373.424	70.31
373.635	12.97
373.846	41.64
374.056	113.32
374.267	148.14
374.477	53.93
374.688	8.87
374.898	31.4
375.109	-3.41
375.319	113.32
375.53	103.08
375.74	68.27
375.951	-13.65
376.161	23.21
376.372	15.02
376.582	68.27
376.793	21.16
377.003	4.78
377.214	37.55
377.424	33.45
377.635	17.07
377.845	33.45
378.055	47.79
378.266	4.78
378.476	72.36
378.686	-7.51
378.897	-17.75
379.107	37.55
379.317	-15.7
379.528	-19.8
379.738	62.12
379.948	-15.7
380.158	53.93
380.369	53.93
380.579	29.35
380.789	0.68
380.999	23.21
381.21	80.55
381.42	135.85
381.63	94.89
381.84	88.75
382.05	74.41
382.261	39.59
382.471	53.93
382.681	45.74
382.891	64.17
383.101	53.93
383.311	62.12
383.521	35.5
383.731	21.16
383.941	60.07
384.151	55.98
384.361	17.07
384.571	-3.41
384.781	58.03
384.991	35.5
385.201	70.31
385.411	103.08
385.621	37.55
385.831	-19.8
386.041	-3.41
386.251	62.12
386.461	94.89
386.671	39.59
386.881	47.79
387.091	10.92
387.301	45.74
387.511	70.31
387.72	8.87
387.93	33.45
388.14	-3.41
388.35	55.98
388.56	37.55
388.769	82.6
388.979	25.26
389.189	35.5
389.399	58.03
389.609	146.09
389.818	111.27
390.028	88.75
390.238	29.35
390.447	-13.65
390.657	62.12
390.867	51.88
391.076	70.31
391.286	94.89
391.496	86.7
391.705	78.51
391.915	70.31
392.125	58.03
392.334	21.16
392.544	72.36
392.753	39.59
392.963	31.4
393.172	41.64
393.382	15.02
393.591	92.84
393.801	86.7
394.01	80.55
394.22	141.99
394.429	37.55
394.639	47.79
394.848	29.35
395.058	58.03
395.267	-13.65
395.477	17.07
395.686	135.85
395.895	119.46
396.105	162.47
396.314	64.17
396.524	41.64
396.733	-32.08
396.942	90.79
397.152	58.03
397.361	172.71
397.57	39.59
397.78	119.46
397.989	168.62
398.198	90.79
398.407	86.7
398.617	-60.76
398.826	156.33
399.035	107.18
399.244	45.74
399.453	98.99
399.663	64.17
399.872	78.51
400.081	53.93
400.29	121.51
400.499	53.93
400.708	129.7
400.917	74.41
401.127	68.27
401.336	49.83
401.545	94.89
401.754	74.41
401.963	101.03
402.172	96.94
402.381	21.16
402.59	90.79
402.799	60.07
403.008	152.23
403.217	-1.37
403.426	135.85
403.635	141.99
403.844	31.4
404.053	27.31
404.262	49.83
404.471	238.25
404.68	53.93
404.888	129.7
405.097	144.04
405.306	150.18
405.515	135.85
405.724	101.03
405.933	121.51
406.142	96.94
406.35	154.28
406.559	209.58
406.768	98.99
406.977	125.61
407.185	160.42
407.394	168.62
407.603	70.31
407.812	209.58
408.02	217.77
408.229	201.38
408.438	228.01
408.646	119.46
408.855	158.38
409.064	250.53
409.272	217.77
409.481	201.38
409.69	219.82
409.898	201.38
410.107	162.47
410.315	299.69
410.524	301.73
410.733	283.3
410.941	209.58
411.15	324.26
411.358	340.65
411.567	283.3
411.775	369.32
411.984	326.31
412.192	416.42
412.401	375.46
412.609	455.33
412.818	391.84
413.026	336.55
413.234	389.8
413.443	471.72
413.651	457.38
413.86	406.18
414.068	445.09
414.276	522.91
414.485	524.96
414.693	590.5
414.901	631.46
415.11	539.3
415.318	586.4
415.526	623.27
415.734	586.4
415.943	684.7
416.151	733.86
416.359	692.9
416.567	709.28
416.776	789.15
416.984	766.62
417.192	789.15
417.4	713.38
417.608	832.16
417.817	905.88
418.025	889.5
418.233	938.65
418.441	1055.39
418.649	924.32
418.857	1061.53
419.065	1057.43
419.273	1036.95
419.481	1141.4
419.689	1161.88
419.897	1241.75
420.105	1268.38
420.313	1206.94
420.521	1288.85
420.729	1331.86
420.937	1340.05
421.145	1495.7
421.353	1430.16
421.561	1647.25
421.769	1522.32
421.977	1610.39
422.185	1577.62
422.393	1630.87
422.601	1833.61
422.809	1741.46
423.017	1897.1
423.224	1852.05
423.432	2013.84
423.64	2126.47
423.848	2210.44
424.056	2046.6
424.263	2185.87
424.471	2327.18
424.679	2314.89
424.887	2382.47
425.094	2503.3
425.302	2622.08
425.51	2757.25
425.718	2685.57
425.925	2724.48
426.133	2822.78
426.341	3015.29
426.548	3119.74
426.756	3078.78
426.964	3275.38
427.171	3248.76
427.379	3517.05
427.586	3543.67
427.794	3654.26
428.001	3797.62
428.209	3961.45
428.417	3889.78
428.624	4223.59
428.832	4096.62
429.039	4045.42
429.247	4127.34
429.454	4457.06
429.662	4731.49
429.869	4571.75
430.076	4784.74
430.284	4647.52
430.491	4981.34
430.699	5141.08
430.906	5110.36
431.114	5356.12
431.321	5483.1
431.528	5638.74
431.736	5935.7
431.943	6257.23
432.15	6163.02
432.358	6103.63
432.565	6451.78
432.772	6357.58
432.979	6685.25
433.187	6810.18
433.394	6908.48
433.601	7381.56
433.808	7459.38
434.016	7291.45
434.223	7631.41
434.43	8077.87
434.637	7832.12
434.844	8372.78
435.052	8600.1
435.259	8507.94
435.466	8520.23
435.673	8262.19
435.88	9001.51
436.087	9581.08
436.294	9507.35
436.501	9175.58
436.708	9447.96
436.915	10025.49
437.122	10261.01
437.329	10269.2
437.537	10396.17
437.743	10629.64
437.95	10717.7
438.157	11031.04
438.364	11448.83
438.571	11362.81
438.778	11569.66
438.985	12769.77
439.192	12184.05
439.399	12587.5
439.606	12161.52
439.813	12993
440.02	13693.4
440.227	13597.15
440.433	13423.07
440.64	13853.14
440.847	13769.18
441.054	14068.18
441.261	14891.46
441.467	14887.37
441.674	15081.92
441.881	15491.52
442.088	15464.89
442.294	15503.81
442.501	15671.74
442.708	16273.84
442.914	16818.6
443.121	17443.23
443.328	16970.15
443.534	18090.39
443.741	17879.45
443.948	17340.83
444.154	18573.71
444.361	18448.79
444.568	18762.12
444.774	18899.34
444.981	19052.94
445.187	19454.34
445.394	20328.82
445.6	20085.11
445.807	21815.65
446.013	21188.97
446.22	21393.76
446.426	22151.51
446.633	22892.88
446.839	23300.42
447.046	22237.53
447.252	23308.61
447.459	23597.38
447.665	23523.65
447.871	24820.02
448.078	25700.64
448.284	24361.27
448.491	25090.35
448.697	26100
448.903	26378.52
449.11	26556.69
449.316	25870.62
449.522	26501.4
449.728	27146.51
449.935	27492.62
450.141	27670.79
450.347	28254.46
450.553	27205.9
450.76	27900.16
450.966	28551.41
451.172	28049.66
451.378	28963.06
451.584	28481.78
451.791	29237.48
451.997	29229.29
452.203	29712.61
452.409	29706.47
452.615	29559.02
452.821	28397.82
453.027	28066.05
453.233	29665.51
453.44	28590.33
453.646	28901.62
453.852	29174
454.058	29575.4
454.264	28692.72
454.47	29083.89
454.676	28463.35
454.882	29565.16
455.088	27154.7
455.294	27627.78
455.5	27867.39
455.705	27926.78
455.911	26915.09
456.117	26659.09
456.323	25880.86
456.529	24922.41
456.735	25944.35
456.941	25198.89
457.147	25071.92
457.352	24291.64
457.558	24080.7
457.764	23880
457.97	23615.81
458.176	23097.67
458.381	23304.52
458.587	22057.31
458.793	21848.41
458.999	20797.81
459.204	22501.72
459.41	21846.37
459.616	20203.89
459.821	20347.25
460.027	20298.1
460.233	19782.01
460.438	18925.96
460.644	18997.64
460.85	18182.55
461.055	18022.81
461.261	17807.77
461.466	16581.04
461.672	16040.37
461.878	17160.61
462.083	16150.96
462.289	15698.36
462.494	15395.26
462.7	14825.93
462.905	14580.17
463.111	15122.88
463.316	15088.07
463.522	14840.26
463.727	14531.02
463.932	14762.44
464.138	14563.79
464.343	14705.1
464.549	14135.76
464.754	14580.17
464.959	14633.42
465.165	14397.9
465.37	13959.64
465.575	13324.77
465.781	13984.21
465.986	14086.61
466.191	13394.4
466.397	13320.67
466.602	12792.3
466.807	13122.02
467.012	13326.82
467.218	12984.8
467.423	12734.95
467.628	12935.65
467.833	13517.28
468.038	12980.71
468.244	12632.55
468.449	13054.44
468.654	12646.89
468.859	12438
469.064	12591.59
469.269	12116.47
469.474	12251.63
469.679	12511.72
469.885	12179.95
470.09	12145.14
470.295	12255.73
470.5	11944.44
470.705	11858.42
470.91	11549.18
471.115	11741.69
471.32	11719.16
471.525	11723.26
471.73	11342.33
471.935	11289.09
472.139	10863.11
472.344	11172.35
472.549	11022.85
472.754	10824.2
472.959	10670.6
473.164	10676.74
473.369	10322.45
473.574	10801.67
473.778	10625.54
473.983	10469.9
474.188	10410.51
474.393	9957.91
474.598	10080.78
474.802	10088.98
475.007	9966.1
475.212	9884.18
475.417	9818.64
475.621	9605.66
475.826	9556.5
476.031	9552.41
476.235	9353.76
476.44	9503.26
476.645	9067.04
476.849	9234.97
477.054	9003.55
477.259	8821.28
477.463	8942.11
477.668	8587.82
477.872	8679.97
478.077	8696.36
478.282	8553
478.486	8471.08
478.691	8315.44
478.895	8335.92
479.1	8256.04
479.304	8229.42
479.509	8297
479.713	8147.5
479.918	8014.38
480.122	7877.17
480.326	7979.57
480.531	7959.09
480.735	7969.33
480.94	7660.09
481.144	8204.85
481.348	7709.24
481.553	7696.95
481.757	7596.6
481.961	7830.07
482.166	7711.28
482.37	7871.03
482.574	7723.57
482.778	7676.47
482.983	7854.64
483.187	7713.33
483.391	7713.33
483.595	7494.2
483.8	7447.1
484.004	7692.85
484.208	7723.57
484.412	7643.7
484.616	7696.95
484.821	7633.46
485.025	7608.89
485.229	7651.89
485.433	7584.31
485.637	7557.69
485.841	7594.55
486.045	7658.04
486.249	7631.41
486.453	7500.34
486.657	7510.58
486.861	7649.85
487.065	7342.65
487.269	7361.08
487.473	7565.88
487.677	7549.5
487.881	7797.3
488.085	7537.21
488.289	7817.78
488.493	7582.26
488.697	7590.45
488.901	7813.68
489.105	7662.13
489.309	7893.55
489.512	7725.62
489.716	7653.94
489.92	7762.48
490.124	7739.96
490.328	7701.05
490.531	7780.92
490.735	7914.03
490.939	7930.42
491.143	7868.98
491.346	7830.07
491.55	8032.82
491.754	7948.85
491.958	8153.65
492.161	8022.58
492.365	8165.93
492.569	7795.25
492.772	8053.3
492.976	8237.61
493.18	8184.37
493.383	8294.96
493.587	8254
493.79	8493.61
493.994	8292.91
494.197	8321.58
494.401	8548.9
494.605	8542.76
494.808	8524.33
495.012	8581.67
495.215	8733.22
495.419	8770.08
495.622	8909.35
495.825	8890.91
496.029	9007.65
496.232	9013.79
496.436	9204.25
496.639	9294.36
496.843	9087.52
497.046	9476.63
497.249	9472.54
497.453	9458.2
497.656	9538.07
497.859	9581.08
498.063	9708.05
498.266	9904.66
498.469	10072.59
498.673	10148.37
498.876	10058.26
499.079	10220.05
499.282	10347.02
499.485	10510.86
499.689	10342.92
499.892	10805.77
500.095	10686.98
500.298	10992.13
500.501	10891.78
500.705	11248.13
500.908	11280.89
501.111	11573.75
501.314	11553.27
501.517	11543.03
501.72	11751.93
501.923	11833.85
502.126	12028.4
502.329	12268.02
502.532	12175.86
502.735	12339.69
502.938	12440.04
503.141	12597.74
503.344	12845.54
503.547	12882.41
503.75	12978.66
503.953	13165.03
504.156	13322.72
504.359	13378.01
504.562	13545.95
504.765	13820.38
504.968	13998.55
505.17	14166.48
505.373	14252.5
505.576	14522.83
505.779	14367.18
505.982	14459.34
506.185	15024.58
506.387	14926.28
506.59	15034.82
506.793	15155.65
506.996	15149.51
507.198	15772.09
507.401	15786.43
507.604	15884.73
507.807	16292.27
508.009	16282.03
508.212	16447.92
508.415	16642.48
508.617	16923.05
508.82	16988.58
509.022	16863.66
509.225	17420.7
509.428	17297.83
509.63	17721.76
509.833	17662.37
510.035	18168.21
510.238	18168.21
510.44	18278.8
510.643	18694.54
510.845	18608.53
511.048	18524.56
511.25	19024.26
511.453	19151.24
511.655	19485.06
511.858	19548.54
512.06	19616.13
512.262	19892.6
512.465	19974.52
512.667	19964.28
512.87	20498.8
513.072	20443.51
513.274	21215.59
513.477	21102.95
513.679	21207.4
513.881	21598.56
514.084	21684.58
514.286	21639.52
514.488	21887.32
514.69	22585.68
514.893	22288.73
515.095	22706.51
515.297	22876.49
515.499	22993.23
515.701	22997.32
515.904	23583.04
516.106	23435.59
516.308	23816.51
516.51	24113.47
516.712	23968.06
516.914	24580.4
517.116	24742.19
517.318	24918.32
517.52	25215.27
517.722	24908.08
517.925	25188.65
518.127	25977.12
518.329	26009.89
518.531	25739.55
518.733	26573.08
518.935	26716.43
519.136	26634.52
519.338	27091.21
519.54	27185.42
519.742	27324.68
519.944	27586.82
520.146	27957.5
520.348	28119.29
520.55	28291.32
520.752	28223.74
520.954	28754.16
521.155	28756.21
521.357	28969.2
521.559	29049.07
521.761	29706.47
521.963	29673.7
522.164	30015.71
522.366	30081.25
522.568	30222.56
522.77	30390.49
522.971	31049.94
523.173	30550.23
523.375	30996.69
523.576	31260.88
523.778	30998.74
523.98	31365.32
524.181	31615.18
524.383	31557.83
524.584	32118.98
524.786	31709.38
524.988	31725.77
525.189	32757.94
525.391	32282.81
525.592	32991.41
525.794	32759.99
525.995	33130.67
526.197	33050.8
526.398	33228.98
526.6	33325.23
526.801	33646.76
527.003	33687.72
527.204	33786.02
527.406	33892.52
527.607	34087.07
527.808	34341.02
528.01	33867.94
528.211	34072.74
528.412	34678.94
528.614	34465.95
528.815	34508.96
529.016	34760.86
529.218	34918.55
529.419	34869.4
529.62	34844.82
529.822	34836.63
530.023	34965.65
530.224	34726.04
530.425	34873.49
530.626	34691.23
530.828	34762.9
531.029	35283.09
531.23	34924.69
531.431	35322
531.632	35434.64
531.833	35664.01
532.035	35293.33
532.236	35584.14
532.437	35448.97
532.638	35227.79
532.839	35467.41
533.04	35582.09
533.241	35471.5
533.442	36225.15
533.643	35725.45
533.844	35551.37
534.045	35838.09
534.246	35528.84
534.447	35747.98
534.648	35727.5
534.849	35795.08
535.05	35647.63
535.251	35610.76
535.451	35438.73
535.652	35917.96
535.853	35694.73
536.054	36079.75
536.255	35983.49
536.456	35578
536.657	36210.82
536.857	35631.24
537.058	35879.05
537.259	36075.65
537.46	36118.66
537.66	35784.84
537.861	35897.48
538.062	35782.79
538.263	35883.14
538.463	35807.37
538.664	35655.82
538.865	35842.18
539.065	36001.93
539.266	35743.88
539.466	36038.79
539.667	35512.46
539.868	36059.27
540.068	35569.8
540.269	35729.55
540.469	36038.79
540.67	35790.98
540.87	35612.81
541.071	35768.46
541.271	35645.58
541.472	35426.45
541.672	35946.63
541.873	35809.42
542.073	35653.77
542.274	35711.11
542.474	35487.89
542.675	35786.89
542.875	36087.94
543.075	35743.88
543.276	35274.9
543.476	35637.39
543.676	35465.36
543.877	35944.58
544.077	35661.96
544.277	35448.97
544.478	35414.16
544.678	35596.43
544.878	35592.33
545.078	35389.58
545.279	35383.44
545.479	35539.08
545.679	35381.39
545.879	35481.74
546.079	35584.14
546.28	35426.45
546.48	35414.16
546.68	35319.95
546.88	35709.07
547.08	35240.08
547.28	35465.36
547.48	35307.66
547.68	36065.41
547.88	35319.95
548.081	35862.66
548.281	35397.77
548.481	35129.49
548.681	35324.05
548.881	35516.56
549.081	35608.72
549.28	35199.12
549.48	35223.7
549.68	35338.38
549.88	35668.11
550.08	35203.22
550.28	35395.73
550.48	35285.14
550.68	35461.26
550.88	35176.59
551.08	34947.22
551.279	35621
551.479	34896.02
551.679	35205.27
551.879	35066
552.079	35426.45
552.278	35156.11
552.478	35055.76
552.678	35229.84
552.878	35168.4
553.077	34726.04
553.277	34820.25
553.477	35412.11
553.676	34654.36
553.876	34582.68
554.076	34826.39
554.275	34742.42
554.475	34379.93
554.674	35078.29
554.874	34674.84
555.074	34730.14
555.273	34932.89
555.473	34906.26
555.672	34324.64
555.872	34644.12
556.071	34441.37
556.271	34916.5
556.47	34441.37
556.67	34373.79
556.869	34678.94
557.068	34465.95
557.268	34226.34
557.467	34263.2
557.667	33999.01
557.866	34623.64
558.065	34447.52
558.265	33861.8
558.464	33806.5
558.663	34539.68
558.863	33898.66
559.062	34240.67
559.261	33937.57
559.461	34255.01
559.66	33745.06
559.859	33984.68
560.058	33460.4
560.258	34121.89
560.457	33294.51
560.656	33724.58
560.855	33628.33
561.054	33634.47
561.253	33286.32
561.453	33339.57
561.652	33657
561.851	33685.67
562.05	33419.44
562.249	33065.14
562.448	33564.84
562.647	33120.43
562.846	33052.85
563.045	33249.46
563.244	33097.91
563.443	33386.67
563.642	32608.44
563.841	33130.67
564.04	32600.25
564.239	33061.04
564.438	32583.87
564.637	32872.63
564.836	32831.67
565.035	32370.88
565.234	32977.08
565.432	32039.11
565.631	32522.43
565.83	32417.98
566.029	32452.8
566.228	32002.24
566.427	31924.42
566.625	32116.93
566.824	31723.72
567.023	32311.49
567.222	31477.96
567.42	32288.96
567.619	31705.29
567.818	31928.52
568.016	31584.46
568.215	31695.05
568.414	31467.72
568.612	31551.69
568.811	30990.55
569.01	31461.58
569.208	31099.09
569.407	31402.19
569.605	30701.78
569.804	31154.38
570.002	30775.51
570.201	31267.02
570.4	30953.68
570.598	30511.32
570.797	30587.1
570.995	30763.22
571.193	30580.95
571.392	30777.56
571.59	30349.53
571.789	30361.82
571.987	30140.64
572.186	30284
572.384	29898.98
572.582	30025.95
572.781	30124.25
572.979	29843.68
573.177	29913.31
573.376	29837.54
573.574	29538.54
573.772	29868.26
573.971	29311.21
574.169	29366.51
574.367	28977.39
574.565	29300.97
574.763	29389.03
574.962	28883.19
575.16	29339.88
575.358	29196.53
575.556	29026.54
575.754	29118.7
575.952	28954.86
576.151	29034.74
576.349	28434.68
576.547	28457.21
576.745	28381.43
576.943	28637.43
577.141	28414.2
577.339	28619
577.537	28281.08
577.735	28049.66
577.933	27789.57
578.131	28266.75
578.329	28068.09
578.527	28080.38
578.725	28006.66
578.923	27758.85
579.121	27801.86
579.319	27490.57
579.516	27556.1
579.714	27687.17
579.912	27392.26
580.11	27242.76
580.308	27341.07
580.506	27023.63
580.704	26655
580.901	27171.08
581.099	27177.23
581.297	26751.25
581.495	26630.42
581.692	26974.48
581.89	26339.61
582.088	26867.98
582.285	26714.39
582.483	26741.01
582.681	26321.18
582.878	26745.11
583.076	26159.39
583.274	26411.29
583.471	26007.84
583.669	26214.68
583.866	26128.67
584.064	26323.22
584.262	26304.79
584.459	26016.03
584.657	26007.84
584.854	25989.41
585.052	25442.6
585.249	25788.71
585.447	25772.32
585.644	25547.04
585.841	25520.42
586.039	25702.69
586.236	25336.1
586.434	25321.77
586.631	25035.05
586.828	25047.34
587.026	24846.64
587.223	25028.91
587.42	24637.75
587.618	24762.67
587.815	24629.55
588.012	24498.48
588.21	24772.91
588.407	24695.09
588.604	24326.46
588.801	24230.2
588.999	24084.8
589.196	24283.45
589.393	23990.59
589.59	24211.77
589.787	24170.81
589.984	24064.32
590.182	23728.45
590.379	23871.81
590.576	23898.43
590.773	23613.76
590.97	23210.31
591.167	23945.53
591.364	23517.51
591.561	23494.98
591.758	23325
591.955	23513.41
592.152	23746.88
592.349	22999.37
592.546	23331.14
592.743	23169.35
592.94	22778.19
593.137	23077.19
593.334	23003.47
593.531	22505.81
593.727	22864.21
593.924	22606.16
594.121	22122.84
594.318	22577.49
594.515	22704.46
594.712	22700.37
594.908	22081.88
595.105	22475.09
595.302	22141.27
595.499	22333.78
595.696	21836.13
595.892	22014.3
596.089	22303.06
596.286	21967.2
596.482	22094.17
596.679	21965.15
596.876	22032.73
597.072	21543.27
597.269	21645.66
597.466	21475.68
597.662	21338.47
597.859	21334.37
598.055	21320.04
598.252	21082.47
598.448	21334.37
598.645	21246.31
598.841	20953.45
599.038	20951.4
599.234	21094.76
599.431	20781.42
599.627	20629.87
599.824	21121.38
600.02	20738.41
600.217	20633.97
600.413	20552.05
600.609	20642.16
600.806	20320.63
601.002	20605.3
601.198	20414.84
601.395	20195.7
601.591	20228.47
601.787	20031.86
601.984	20074.87
602.18	20214.13
602.376	19896.7
602.572	19792.25
602.769	19814.78
602.965	19714.43
603.161	19534.21
603.357	19597.7
603.553	19599.74
603.75	19790.2
603.946	19394.95
604.142	19509.63
604.338	18964.87
604.534	19331.46
604.73	19095.94
604.926	19214.73
605.122	19093.9
605.318	18913.67
605.514	18856.33
605.71	18706.83
605.906	18696.59
606.102	18975.11
606.298	18989.45
606.494	18813.32
606.69	18831.76
606.886	18813.32
607.082	18440.59
607.278	18852.23
607.474	18184.6
607.67	18596.24
607.866	18241.94
608.062	18547.09
608.257	18385.3
608.453	18342.29
608.649	18243.99
608.845	18057.62
609.041	18178.45
609.236	18483.6
609.432	18002.33
609.628	17987.99
609.824	18215.32
610.019	17947.03
610.215	17721.76
610.411	17887.64
610.606	17779.1
610.802	17881.5
610.998	17555.87
611.193	17824.15
611.389	17578.4
611.584	17793.44
611.78	17592.73
611.976	17592.73
612.171	17514.91
612.367	17486.24
612.562	17459.62
612.758	17099.17
612.953	17301.92
613.149	17662.37
613.344	17054.12
613.539	17330.59
613.735	17146.28
613.93	17267.11
614.126	17222.05
614.321	17449.38
614.517	17232.29
614.712	17103.27
614.907	17105.32
615.103	17144.23
615.298	16789.93
615.493	16972.2
615.688	16961.96
615.884	17117.61
616.079	16955.82
616.274	16673.2
616.47	17054.12
616.665	16656.81
616.86	16662.96
617.055	16728.49
617.25	16533.93
617.445	16642.48
617.641	16372.14
617.836	16705.96
618.031	16310.71
618.226	16472.5
618.421	16271.79
618.616	16513.45
618.811	16019.89
619.006	16128.44
619.201	15972.79
619.396	16148.92
619.591	15745.47
619.786	16128.44
619.981	15661.5
620.176	15905.21
620.371	15649.21
620.566	15741.37
620.761	15636.92
620.956	15559.1
621.151	15370.69
621.346	15317.44
621.541	15276.48
621.735	15561.15
621.93	14741.96
622.125	15061.44
622.32	15043.01
622.515	14944.71
622.709	15004.1
622.904	14764.49
623.099	14653.9
623.294	14594.51
623.488	14418.38
623.683	14387.66
623.878	14295.5
624.072	14223.83
624.267	14346.7
624.462	14309.84
624.656	14209.49
624.851	14184.91
625.046	14004.69
625.24	13957.59
625.435	13865.43
625.629	13724.12
625.824	13744.6
626.018	13709.79
626.213	13341.15
626.407	13636.06
626.602	13101.54
626.796	13292
626.991	13203.94
627.185	13156.83
627.38	13234.66
627.574	13097.44
627.768	12823.01
627.963	12909.03
628.157	12880.36
628.352	13070.82
628.546	12548.59
628.74	12720.62
628.935	12401.13
629.129	12587.5
629.323	12394.99
629.517	12425.71
629.712	12120.56
629.906	12241.39
630.1	11999.73
630.294	12077.55
630.489	12159.47
630.683	12014.07
630.877	11989.49
631.071	11819.51
631.265	11710.97
631.459	11651.58
631.653	11655.67
631.848	11581.95
632.042	11459.07
632.236	11762.17
632.43	11276.8
632.624	11432.44
632.818	11465.21
633.012	11117.06
633.206	11188.74
633.4	11229.7
633.594	11047.43
633.788	11117.06
633.982	11104.77
634.176	10850.82
634.369	10951.17
634.563	10893.83
634.757	10742.28
634.951	10893.83
635.145	10605.06
635.339	10592.78
635.533	10498.57
635.726	10594.82
635.92	10232.33
636.114	10506.76
636.308	10248.72
636.501	10330.64
636.695	10279.44
636.889	10203.66
637.083	10027.54
637.276	10052.11
637.47	10050.07
637.664	10031.63
637.857	9931.28
638.051	9785.88
638.244	9798.17
638.438	9775.64
638.632	9736.73
638.825	9478.68
639.019	9755.16
639.212	9581.08
639.406	9683.48
639.599	9419.29
639.793	9374.24
639.986	9204.25
640.18	9288.22
640.373	9230.88
640.567	9099.81
640.76	9148.96
640.954	9087.52
641.147	8940.07
641.34	9009.7
641.534	8854.05
641.727	9114.14
641.92	8747.56
642.114	8632.87
642.307	8866.34
642.5	8743.46
642.694	8518.18
642.887	8657.45
643.08	8413.74
643.273	8450.6
643.467	8497.7
643.66	8536.62
643.853	8213.04
644.046	8225.33
644.239	8383.02
644.432	8229.42
644.626	8172.08
644.819	8075.82
645.012	8122.93
645.205	8243.76
645.398	8112.69
645.591	7957.04
645.784	7987.76
645.977	7963.19
646.17	7967.28
646.363	7830.07
646.556	7576.12
646.749	7649.85
646.942	7561.78
647.135	7674.42
647.328	7459.38
647.521	7445.05
647.714	7361.08
647.907	7602.74
648.099	7551.54
648.292	7531.06
648.485	7262.78
648.678	7412.28
648.871	7230.01
649.064	7189.05
649.256	7287.36
649.449	7180.86
649.642	7047.74
649.835	7019.07
650.027	7078.46
650.22	6926.91
650.413	6910.53
650.605	7025.22
650.798	6724.16
650.991	6834.75
651.183	6689.35
651.376	6707.78
651.568	6687.3
651.761	6697.54
651.954	6646.34
652.146	6541.89
652.339	6443.59
652.531	6584.9
652.724	6609.48
652.916	6300.23
653.109	6695.49
653.301	6406.73
653.494	6378.06
653.686	6371.91
653.879	6482.5
654.071	6183.5
654.263	6224.46
654.456	6304.33
654.648	6265.42
654.84	6126.16
655.033	6085.2
655.225	6140.49
655.417	5890.64
655.61	6156.88
655.802	6034
655.994	6101.58
656.186	5968.46
656.379	5988.94
656.571	5894.74
656.763	5757.52
656.955	5970.51
657.148	5767.76
657.34	5737.04
657.532	5710.42
657.724	5722.71
657.916	5587.54
658.108	5616.21
658.3	5435.99
658.492	5620.31
658.684	5325.4
658.876	5511.77
659.068	5575.25
659.26	5511.77
659.452	5575.25
659.644	5294.68
659.836	5513.81
660.028	5313.11
660.22	5190.24
660.412	5321.31
660.604	5292.63
660.796	5321.31
660.988	5349.98
661.18	5190.24
661.372	5263.96
661.563	5298.78
661.755	5061.21
661.947	5100.12
662.139	5028.45
662.331	5116.51
662.522	5126.75
662.714	4885.09
662.906	4856.42
663.097	4954.72
663.289	4897.38
663.481	4860.51
663.673	4813.41
663.864	4782.69
664.056	4825.7
664.247	4639.33
664.439	4657.76
664.631	4813.41
664.822	4594.28
665.014	4639.33
665.205	4670.05
665.397	4653.67
665.588	4627.04
665.78	4485.73
665.971	4534.89
666.163	4409.96
666.354	4518.5
666.546	4698.72
666.737	4430.44
666.929	4369
667.12	4366.95
667.311	4340.33
667.503	4514.41
667.694	4522.6
667.885	4242.03
668.077	4174.44
668.268	4160.11
668.459	4229.74
668.651	4303.47
668.842	4141.68
669.033	4207.21
669.224	4166.25
669.416	4160.11
669.607	4190.83
669.798	4022.89
669.989	4233.83
670.18	4149.87
670.371	4121.2
670.563	3973.74
670.754	4029.04
670.945	4067.95
671.136	4090.48
671.327	3920.49
671.518	3943.02
671.709	4047.47
671.9	3949.17
672.091	3998.32
672.282	3945.07
672.473	3922.54
672.664	4039.28
672.855	3781.23
673.046	3940.97
673.237	3906.16
673.428	3848.82
673.619	3732.08
673.809	3865.2
674	3830.38
674.191	3721.84
674.382	3799.66
674.573	3701.36
674.764	3871.34
674.954	3760.75
675.145	3666.55
675.336	3596.92
675.527	3584.63
675.717	3822.19
675.908	3691.12
676.099	3578.48
676.289	3515
676.48	3629.68
676.671	3756.66
676.861	3701.36
677.052	3471.99
677.243	3453.56
677.433	3478.13
677.624	3670.64
677.814	3543.67
678.005	3488.37
678.195	3529.33
678.386	3455.61
678.576	3437.17
678.767	3445.37
678.957	3519.09
679.148	3562.1
679.338	3564.15
679.529	3527.28
679.719	3445.37
679.909	3433.08
680.1	3445.37
680.29	3529.33
680.481	3396.21
680.671	3412.6
680.861	3486.33
681.052	3529.33
681.242	3379.83
681.432	3408.5
681.622	3385.98
681.813	3379.83
682.003	3437.17
682.193	3215.99
682.383	3414.65
682.573	3254.9
682.764	3228.28
682.954	3291.77
683.144	3302.01
683.334	3195.51
683.524	3193.47
683.714	3248.76
683.904	3256.95
684.094	3281.53
684.284	3170.94
684.474	3328.63
684.664	3453.56
684.854	3285.62
685.044	3256.95
685.234	3158.65
685.424	3297.91
685.614	3134.07
685.804	3228.28
685.994	3291.77
686.184	3144.31
686.374	3201.66
686.564	3011.2
686.753	3248.76
686.943	3021.44
687.133	3027.58
687.323	3068.54
687.513	3076.73
687.702	2904.7
687.892	3162.75
688.082	3142.27
688.272	3080.83
688.461	2994.81
688.651	3146.36
688.841	2898.56
689.03	2984.57
689.22	3031.68
689.41	3035.77
689.599	2964.09
689.789	3007.1
689.979	2824.83
690.168	2945.66
690.358	2822.78
690.547	2773.63
690.737	2916.99
690.926	2830.98
691.116	2781.82
691.305	2871.93
691.495	2740.86
691.684	2751.1
691.874	2818.69
692.063	2853.5
692.252	2806.4
692.442	2740.86
692.631	2824.83
692.82	2744.96
693.01	2675.33
693.199	2577.03
693.388	2572.93
693.578	2628.23
693.767	2609.79
693.956	2677.38
694.146	2560.64
694.335	2546.31
694.524	2626.18
694.713	2689.67
694.902	2617.99
695.092	2554.5
695.281	2507.4
695.47	2603.65
695.659	2429.57
695.848	2609.79
696.037	2538.12
696.226	2511.49
696.415	2478.72
696.604	2587.27
696.793	2407.05
696.982	2523.78
697.171	2488.96
697.36	2517.64
697.549	2519.68
697.738	2386.57
697.927	2380.42
698.116	2482.82
698.305	2570.88
698.494	2540.16
698.683	2376.33
698.872	2536.07
699.061	2411.14
699.25	2566.79
699.438	2540.16
699.627	2331.27
699.816	2445.96
700.005	2366.09
700.193	2200.2
700.382	2394.76
700.571	2499.2
700.76	2519.68
700.948	2511.49
701.137	2450.05
701.326	2390.66
701.514	2347.65
701.703	2357.89
701.892	2284.17
702.08	2433.67
702.269	2275.98
702.457	2290.31
702.646	2316.94
702.834	2347.65
703.023	2280.07
703.212	2392.71
703.4	2220.68
703.589	2286.22
703.777	2222.73
703.965	2329.22
704.154	2226.82
704.342	2327.18
704.531	2357.89
704.719	2329.22
704.907	2374.28
705.096	2370.18
705.284	2298.5
705.472	2405
705.661	2235.02
705.849	2308.74
706.037	2366.09
706.226	2273.93
706.414	2316.94
706.602	2257.54
706.79	2339.46
706.979	2187.91
707.167	2265.74
707.355	2359.94
707.543	2273.93
707.731	2380.42
707.919	2228.87
708.107	2103.95
708.296	2232.97
708.484	2333.32
708.672	2292.36
708.86	2292.36
709.048	2183.82
709.236	2249.35
709.424	2282.12
709.612	2316.94
709.8	2294.41
709.988	2194.06
710.176	2218.63
710.364	2243.21
710.551	2194.06
710.739	2259.59
710.927	2273.93
711.115	2194.06
711.303	2237.06
711.491	2228.87
711.679	2224.78
711.866	2243.21
712.054	2290.31
712.242	2226.82
712.43	2296.46
712.617	2304.65
712.805	2249.35
712.993	2298.5
713.181	2269.83
713.368	2163.34
713.556	2286.22
713.744	2249.35
713.931	2339.46
714.119	2273.93
714.306	2273.93
714.494	2247.3
714.682	2169.48
714.869	2224.78
715.057	2212.49
715.244	2093.71
715.432	2247.3
715.619	2282.12
715.807	2192.01
715.994	2220.68
716.182	2200.2
716.369	2323.08
716.556	2253.45
716.744	2177.67
716.931	2366.09
717.119	2292.36
717.306	2286.22
717.493	2204.3
717.681	2169.48
717.868	2196.11
718.055	2159.24
718.242	2032.27
718.43	2210.44
718.617	2298.5
718.804	2204.3
718.991	2308.74
719.179	2095.75
719.366	2114.19
719.553	2376.33
719.74	2208.39
719.927	2329.22
720.114	2208.39
720.301	2245.26
720.488	2146.95
720.676	2284.17
720.863	2302.6
721.05	2067.08
721.237	2105.99
721.424	2292.36
721.611	2175.63
721.798	2263.69
721.985	2095.75
722.172	2290.31
722.358	2093.71
722.545	2214.54
722.732	2196.11
722.919	2126.47
723.106	2189.96
723.293	2280.07
723.48	2179.72
723.667	2196.11
723.853	2110.09
724.04	2253.45
724.227	2308.74
724.414	2198.15
724.6	2159.24
724.787	2290.31
724.974	2226.82
725.161	2204.3
725.347	2177.67
725.534	2216.58
725.72	2060.94
725.907	2198.15
726.094	2241.16
726.28	2251.4
726.467	2249.35
726.653	2171.53
726.84	2130.57
727.027	2269.83
727.213	2200.2
727.4	2298.5
727.586	2208.39
727.773	2232.97
727.959	2167.43
728.145	2155.15
728.332	2134.67
728.518	2192.01
728.705	2251.4
728.891	2192.01
729.077	2179.72
729.264	2251.4
729.45	2169.48
729.636	2323.08
729.823	2249.35
730.009	2302.6
730.195	2175.63
730.382	2218.63
730.568	2169.48
730.754	2153.1
730.94	2179.72
731.126	2243.21
731.313	2275.98
731.499	2200.2
731.685	2253.45
731.871	2278.02
732.057	2218.63
732.243	2331.27
732.429	2235.02
732.615	2220.68
732.801	2325.13
732.987	2202.25
733.173	2177.67
733.359	2212.49
733.545	2101.9
733.731	2142.86
733.917	2245.26
734.103	2126.47
734.289	2331.27
734.475	2187.91
734.661	2325.13
734.847	2185.87
735.033	2144.91
735.219	2249.35
735.404	2079.37
735.59	2216.58
735.776	2216.58
735.962	2314.89
736.148	2237.06
736.333	2089.61
736.519	2167.43
736.705	2110.09
736.89	2112.14
737.076	2167.43
737.262	2138.76
737.447	2251.4
737.633	2062.99
737.819	2134.67
738.004	2112.14
738.19	2192.01
738.375	2095.75
738.561	2163.34
738.747	2075.27
738.932	2050.7
739.118	2200.2
739.303	2192.01
739.489	2136.71
739.674	2081.42
739.859	2024.08
740.045	2071.18
740.23	2095.75
740.416	1907.34
740.601	2161.29
740.786	2007.69
740.972	1946.25
741.157	1983.12
741.342	1989.26
741.528	2005.64
741.713	2095.75
741.898	2046.6
742.084	2011.79
742.269	2089.61
742.454	1991.31
742.639	2075.27
742.824	2015.88
743.01	1983.12
743.195	1981.07
743.38	1964.68
743.565	2019.98
743.75	1948.3
743.935	1835.66
744.12	2003.6
744.305	1876.62
744.49	1933.97
744.675	1997.45
744.86	2011.79
745.045	1893.01
745.23	1993.36
745.415	1843.85
745.6	2081.42
745.785	1970.83
745.97	1792.66
746.155	1850
746.34	1931.92
746.525	1751.7
746.71	1819.28
746.895	1915.53
747.079	1837.71
747.264	1893.01
747.449	1878.67
747.634	1766.03
747.819	1845.9
748.003	1755.79
748.188	1811.09
748.373	1813.13
748.557	1768.08
748.742	1784.46
748.927	1694.35
749.111	1735.31
749.296	1759.89
749.481	1667.73
749.665	1675.92
749.85	1634.96
750.034	1692.3
750.219	1661.59
750.404	1577.62
750.588	1604.24
750.773	1663.63
750.957	1542.8
751.141	1680.02
751.326	1581.71
751.51	1675.92
751.695	1614.48
751.879	1663.63
752.064	1555.09
752.248	1448.6
752.432	1587.86
752.617	1516.18
752.801	1577.62
752.985	1520.28
753.17	1477.27
753.354	1530.52
753.538	1424.02
753.722	1452.69
753.907	1473.17
754.091	1381.01
754.275	1391.25
754.459	1430.16
754.643	1446.55
754.828	1458.84
755.012	1454.74
755.196	1342.1
755.38	1342.1
755.564	1428.12
755.748	1260.18
755.932	1381.01
756.116	1426.07
756.3	1325.72
756.484	1280.66
756.668	1344.15
756.852	1329.81
757.036	1307.29
757.22	1219.22
757.404	1241.75
757.588	1208.98
757.772	1288.85
757.956	1221.27
758.14	1323.67
758.323	1227.42
758.507	1176.22
758.691	1180.31
758.875	1178.26
759.059	1260.18
759.242	1159.83
759.426	1221.27
759.61	1194.65
759.794	1208.98
759.977	1149.59
760.161	1223.32
760.345	1139.35
760.528	1032.86
760.712	1102.49
760.895	1082.01
761.079	1075.87
761.263	1120.92
761.446	1161.88
761.63	1106.59
761.813	1077.91
761.997	1047.19
762.18	1145.5
762.364	1127.07
762.547	1098.39
762.731	1000.09
762.914	1045.15
763.098	1006.24
763.281	1082.01
763.464	973.47
763.648	1077.91
763.831	1032.86
764.015	952.99
764.198	1012.38
764.381	1065.63
764.564	1053.34
764.748	1096.35
764.931	987.8
765.114	1028.76
765.297	977.56
765.481	887.45
765.664	959.13
765.847	996
766.03	1061.53
766.213	909.98
766.397	946.84
766.58	979.61
766.763	1026.71
766.946	938.65
767.129	905.88
767.312	938.65
767.495	932.51
767.678	914.08
767.861	891.55
768.044	983.71
768.227	942.75
768.41	946.84
768.593	899.74
768.776	889.5
768.959	848.54
769.142	914.08
769.324	877.21
769.507	963.23
769.69	946.84
769.873	889.5
770.056	948.89
770.239	840.35
770.421	877.21
770.604	838.3
770.787	905.88
770.97	932.51
771.152	787.1
771.335	881.31
771.518	901.79
771.7	840.35
771.883	791.2
772.066	809.63
772.248	766.62
772.431	832.16
772.613	901.79
772.796	760.48
772.978	832.16
773.161	852.64
773.343	793.25
773.526	799.39
773.708	828.06
773.891	752.29
774.073	688.8
774.256	766.62
774.438	877.21
774.621	807.58
774.803	768.67
774.985	807.58
775.168	776.86
775.35	664.22
775.532	817.82
775.715	721.57
775.897	731.81
776.079	725.66
776.261	703.14
776.444	680.61
776.626	735.9
776.808	680.61
776.99	627.36
777.173	674.46
777.355	676.51
777.537	680.61
777.719	750.24
777.901	709.28
778.083	719.52
778.265	610.98
778.447	668.32
778.629	613.03
778.811	731.81
778.993	641.7
779.175	660.13
779.357	598.69
779.539	662.18
779.721	660.13
779.903	627.36
780.085	594.59
780.267	641.7
780.449	545.44
780.631	703.14
780.812	514.72
780.994	647.84
781.176	606.88
781.358	553.63
781.54	471.72
781.721	516.77
781.903	627.36
782.085	623.27
782.267	668.32
782.448	531.11
782.63	432.8
782.812	512.67
782.993	471.72
783.175	522.91
783.357	496.29
783.538	520.87
783.72	441
783.901	520.87
784.083	461.48
784.264	484
784.446	498.34
784.627	455.33
784.809	443.04
784.99	463.52
785.172	459.43
785.353	426.66
785.535	447.14
785.716	418.47
785.897	416.42
786.079	406.18
786.26	457.38
786.441	467.62
786.623	426.66
786.804	397.99
786.985	426.66
787.167	459.43
787.348	463.52
787.529	350.89
787.71	463.52
787.891	447.14
788.073	342.69
788.254	262.82
788.435	498.34
788.616	465.57
788.797	342.69
788.978	361.13
789.159	381.6
789.34	410.28
789.522	324.26
789.703	334.5
789.884	379.56
790.065	363.17
790.246	463.52
790.427	350.89
790.607	389.8
790.788	373.41
790.969	340.65
791.15	340.65
791.331	359.08
791.512	389.8
791.693	359.08
791.874	326.31
792.054	391.84
792.235	295.59
792.416	287.4
792.597	293.54
792.778	385.7
792.958	387.75
793.139	379.56
793.32	324.26
793.5	328.36
793.681	334.5
793.862	416.42
794.042	348.84
794.223	324.26
794.404	307.88
794.584	254.63
794.765	277.16
794.945	303.78
795.126	311.97
795.306	309.93
795.487	275.11
795.667	293.54
795.848	277.16
796.028	268.97
796.209	264.87
796.389	359.08
796.57	268.97
796.75	266.92
796.93	262.82
797.111	209.58
797.291	205.48
797.471	254.63
797.652	254.63
797.832	221.86
798.012	336.55
798.192	215.72
798.373	258.73
798.553	199.34
798.733	320.17
798.913	141.99
799.093	271.01
799.274	225.96
799.454	332.45
799.634	285.35
799.814	225.96
799.994	334.5
800.174	299.69
800.354	240.29
800.534	242.34
800.714	279.21
800.894	211.62
801.074	271.01
801.254	273.06
801.434	260.77
801.614	215.72
801.794	189.1
801.974	815.77
802.154	324.26
802.334	232.1
802.514	197.29
802.693	230.06
802.873	299.69
803.053	228.01
803.233	332.45
803.413	219.82
803.592	152.23
803.772	193.19
803.952	307.88
804.131	283.3
804.311	238.25
804.491	264.87
804.67	203.43
804.85	189.1
805.03	162.47
805.209	225.96
805.389	217.77
805.568	135.85
805.748	223.91
805.928	197.29
806.107	258.73
806.287	94.89
806.466	185
806.646	217.77
806.825	131.75
807.004	158.38
807.184	232.1
807.363	152.23
807.543	230.06
807.722	234.15
807.901	144.04
808.081	211.62
808.26	162.47
808.439	144.04
808.619	90.79
808.798	185
808.977	185
809.156	242.34
809.336	74.41
809.515	119.46
809.694	176.81
809.873	209.58
810.052	129.7
810.231	234.15
810.411	199.34
810.59	240.29
810.769	127.66
810.948	146.09
811.127	115.37
811.306	119.46
811.485	152.23
811.664	185
811.843	240.29
812.022	160.42
812.201	166.57
812.38	213.67
812.559	164.52
812.737	156.33
812.916	117.42
813.095	144.04
813.274	211.62
813.453	160.42
813.632	168.62
813.811	148.14
813.989	41.64
814.168	68.27
814.347	123.56
814.526	201.38
814.704	209.58
814.883	168.62
815.062	111.27
815.24	160.42
815.419	170.66
815.598	148.14
815.776	66.22
815.955	123.56
816.133	129.7
816.312	111.27
816.49	80.55
816.669	111.27
816.847	131.75
817.026	182.95
817.204	141.99
817.383	113.32
817.561	121.51
817.74	164.52
817.918	66.22
818.097	119.46
818.275	103.08
818.453	96.94
818.632	146.09
818.81	33.45
818.988	41.64
819.167	103.08
819.345	45.74
819.523	113.32
819.701	119.46
819.879	131.75
820.058	123.56
820.236	90.79
820.414	37.55
820.592	166.57
820.77	111.27
820.948	78.51
821.127	113.32
821.305	162.47
821.483	144.04
821.661	103.08
821.839	119.46
822.017	76.46
822.195	21.16
822.373	127.66
822.551	92.84
822.729	152.23
822.907	105.13
823.085	180.9
823.262	98.99
823.44	88.75
823.618	90.79
823.796	152.23
823.974	111.27
824.152	139.94
824.329	135.85
824.507	45.74
824.685	90.79
824.863	31.4
825.04	105.13
825.218	86.7
825.396	60.07
825.574	96.94
825.751	49.83
825.929	31.4
826.107	94.89
826.284	76.46
826.462	123.56
826.639	15.02
826.817	10.92
826.994	37.55
827.172	12.97
827.349	70.31
827.527	137.9
827.704	45.74
827.882	103.08
828.059	78.51
828.237	105.13
828.414	121.51
828.591	96.94
828.769	45.74
828.946	53.93
829.124	127.66
829.301	90.79
829.478	47.79
829.655	74.41
829.833	72.36
830.01	37.55
830.187	94.89
830.364	94.89
830.542	107.18
830.719	80.55
830.896	135.85
831.073	78.51
831.25	137.9
831.427	137.9
831.604	45.74
831.782	62.12
831.959	58.03
832.136	86.7
832.313	55.98
832.49	70.31
832.667	80.55
832.844	45.74
833.021	105.13
833.198	62.12
833.374	127.66
833.551	41.64
833.728	107.18
833.905	41.64
834.082	-17.75
834.259	29.35
834.436	113.32
834.612	0.68
834.789	62.12
834.966	45.74
835.143	47.79
835.319	19.11
835.496	78.51
835.673	94.89
835.85	105.13
836.026	39.59
836.203	58.03
836.38	115.37
836.556	35.5
836.733	-3.41
836.909	94.89
837.086	-66.9
837.262	-1.37
837.439	125.61
837.616	-34.13
837.792	37.55
837.968	53.93
838.145	62.12
838.321	39.59
838.498	66.22
838.674	80.55
838.851	96.94
839.027	62.12
839.203	-1.37
839.38	0.68
839.556	19.11
839.732	78.51
839.909	72.36
840.085	-19.8
840.261	64.17
840.437	86.7
840.614	-42.32
840.79	33.45
840.966	103.08
841.142	74.41
841.318	4.78
841.494	90.79
841.671	31.4
841.847	98.99
842.023	-11.61
842.199	68.27
842.375	90.79
842.551	29.35
842.727	-32.08
842.903	70.31
843.079	39.59
843.255	105.13
843.431	-1.37
843.607	55.98
843.783	-25.94
843.959	41.64
844.134	-1.37
844.31	144.04
844.486	53.93
844.662	74.41
844.838	17.07
845.013	74.41
845.189	78.51
845.365	17.07
845.541	33.45
845.716	8.87
845.892	17.07
846.068	-19.8
846.244	21.16
846.419	4.78
846.595	35.5
846.77	-19.8
846.946	15.02
847.122	37.55
847.297	94.89
847.473	17.07
847.648	37.55
847.824	-17.75
847.999	-11.61
848.175	74.41
848.35	12.97
848.526	15.02
848.701	74.41
848.876	105.13
849.052	49.83
849.227	84.65
849.403	72.36
849.578	-73.04
849.753	103.08
849.929	41.64
850.104	-17.75
850.279	-25.94
850.454	45.74
850.63	37.55
850.805	31.4
850.98	62.12
851.155	19.11
851.33	6.83
851.505	64.17
851.681	53.93
851.856	53.93
852.031	80.55
852.206	-3.41
852.381	31.4
852.556	-19.8
852.731	4.78
852.906	-7.51
853.081	8.87
853.256	82.6
853.431	-27.99
853.606	45.74
853.781	-111.96
853.956	21.16
854.131	53.93
854.305	-17.75
854.48	78.51
854.655	-71
854.83	39.59
855.005	62.12
855.18	121.51
855.354	23.21
855.529	70.31
855.704	-11.61
855.879	35.5
856.053	-11.61
856.228	12.97
856.403	25.26
856.577	25.26
856.752	-27.99
856.926	12.97
857.101	62.12
857.276	21.16
857.45	-11.61
857.625	92.84
857.799	111.27
857.974	-60.76
858.148	-89.43
858.323	55.98
858.497	-40.28
858.672	21.16
858.846	0.68
859.02	41.64
859.195	12.97
859.369	66.22
859.543	-48.47
859.718	-1.37
859.892	0.68
860.066	21.16
860.241	33.45
860.415	70.31
860.589	-60.76
860.763	47.79
860.938	8.87
861.112	62.12
861.286	2.73
861.46	-30.04
861.634	35.5
861.808	-9.56
861.982	2.73
862.157	-27.99
862.331	78.51
862.505	-9.56
862.679	2.73
862.853	45.74
863.027	45.74
863.201	21.16
863.375	47.79
863.549	17.07
863.722	0.68
863.896	23.21
864.07	10.92
864.244	47.79
864.418	-17.75
864.592	82.6
864.766	4.78
864.939	-56.66
865.113	29.35
865.287	70.31
865.461	-93.52
865.634	-23.89
865.808	12.97
865.982	37.55
866.156	-27.99
866.329	-50.52
866.503	-9.56
866.676	39.59
866.85	39.59
867.024	-25.94
867.197	25.26
867.371	47.79
867.544	-32.08
867.718	17.07
867.891	31.4
868.065	-27.99
868.238	-19.8
868.412	21.16
868.585	33.45
868.759	-64.85
868.932	-15.7
869.105	25.26
869.279	-50.52
869.452	41.64
869.625	-38.23
869.799	78.51
869.972	-1.37
870.145	-71
870.319	-1.37
870.492	-11.61
870.665	70.31
870.838	6.83
871.011	-75.09
871.185	-79.19
871.358	15.02
871.531	37.55
871.704	-48.47
871.877	82.6
872.05	-5.46
872.223	-38.23
872.396	47.79
872.569	8.87
872.742	-32.08
872.915	2.73
873.088	-64.85
873.261	-19.8
873.434	31.4
873.607	31.4
873.78	88.75
873.953	-11.61
874.126	55.98
874.299	23.21
874.471	-56.66
874.644	39.59
874.817	49.83
874.99	25.26
875.163	-3.41
875.335	29.35
875.508	-3.41
875.681	-77.14
875.853	-13.65
876.026	45.74
876.199	10.92
876.371	-48.47
876.544	-7.51
876.717	23.21
876.889	4.78
877.062	-60.76
877.234	-71
877.407	-27.99
877.579	-36.18
877.752	8.87
877.924	66.22
878.097	-1.37
878.269	-42.32
878.442	70.31
878.614	-23.89
878.786	-11.61
878.959	-1.37
879.131	-25.94
879.303	-114
879.476	-60.76
879.648	-34.13
879.82	-68.95
879.993	-1.37
880.165	-1.37
880.337	-32.08
880.509	15.02
880.681	-44.37
880.854	15.02
881.026	53.93
881.198	58.03
881.37	-71
881.542	35.5
881.714	-23.89
881.886	-52.56
882.058	12.97
882.23	62.12
882.402	4.78
882.574	-1.37
882.746	17.07
882.918	66.22
883.09	66.22
883.262	-27.99
883.434	-44.37
883.606	29.35
883.778	-48.47
883.95	8.87
884.122	-11.61
884.293	12.97
884.465	-32.08
884.637	74.41
884.809	4.78
884.98	12.97
885.152	-58.71
885.324	6.83
885.496	-19.8
885.667	-36.18
885.839	-32.08
886.011	4.78
886.182	29.35
886.354	25.26
886.525	-7.51
886.697	6.83
886.869	-27.99
887.04	66.22
887.212	86.7
887.383	64.17
887.555	33.45
887.726	-42.32
887.897	62.12
888.069	-32.08
888.24	21.16
888.412	70.31
888.583	58.03
888.754	17.07
888.926	17.07
889.097	-30.04
889.268	-3.41
889.44	8.87
889.611	-5.46
889.782	6.83
889.953	-11.61
890.125	47.79
890.296	12.97
890.467	-34.13
890.638	-21.85
890.809	-27.99
890.98	-58.71
891.151	-64.85
891.323	-44.37
891.494	-23.89
891.665	10.92
891.836	-36.18
892.007	-19.8
892.178	-60.76
892.349	8.87
892.52	-19.8
892.691	-60.76
892.862	-34.13
893.032	-97.62
893.203	4.78
893.374	47.79
893.545	33.45
893.716	-109.91
893.887	45.74
894.057	-17.75
894.228	-19.8
894.399	-19.8
894.57	4.78
894.74	21.16
894.911	4.78
895.082	-11.61
895.253	-52.56
895.423	-27.99
895.594	47.79
895.764	-60.76
895.935	-77.14
896.106	12.97
896.276	4.78
896.447	8.87
896.617	-44.37
896.788	-54.61
896.958	-40.28
897.129	-50.52
897.299	-36.18
897.47	-32.08
897.64	88.75
897.81	-1.37
897.981	23.21
898.151	-11.61
898.322	55.98
898.492	12.97
898.662	17.07
898.832	10.92
899.003	-7.51
899.173	-7.51
899.343	-68.95
899.513	17.07
