Data from USB4F104151__235__14-45-40-445.txt Node

Date: Thu Mar 13 14:45:40 EDT 2025
User: louis
Spectrometer: USB4F10415
Trigger mode: 4
Integration Time (sec): 2.000000E-2
Scans to average: 1
Electric dark correction enabled: true
Nonlinearity correction enabled: false
Boxcar width: 0
XAxis mode: Wavelengths
Number of Pixels in Spectrum: 3648
>>>>>Begin Spectral Data<<<<<
178.204	-105.13
178.424	-105.13
178.644	-105.13
178.864	-92.84
179.084	-86.7
179.304	-27.31
179.524	-39.59
179.744	-62.12
179.964	-6.83
180.184	17.75
180.404	-17.07
180.624	-2.73
180.844	23.89
181.064	40.28
181.283	79.19
181.503	-27.31
181.723	21.85
181.943	-51.88
182.163	107.86
182.383	66.9
182.602	34.13
182.822	25.94
183.042	-25.26
183.262	42.32
183.482	40.28
183.701	62.8
183.921	89.43
184.141	81.24
184.361	89.43
184.58	97.62
184.8	66.9
185.02	62.8
185.239	5.46
185.459	-49.83
185.679	64.85
185.898	-101.03
186.118	-2.73
186.338	15.7
186.557	120.15
186.777	-25.26
186.997	-2.73
187.216	23.89
187.436	124.24
187.655	36.18
187.875	40.28
188.095	23.89
188.314	36.18
188.534	89.43
188.753	54.61
188.973	54.61
189.192	56.66
189.412	114
189.631	34.13
189.851	46.42
190.07	97.62
190.29	38.23
190.509	79.19
190.729	38.23
190.948	30.04
191.168	103.76
191.387	38.23
191.607	38.23
191.826	-19.11
192.045	44.37
192.265	21.85
192.484	19.8
192.704	105.81
192.923	-19.11
193.142	185.68
193.362	46.42
193.581	66.9
193.8	66.9
194.02	32.08
194.239	23.89
194.458	42.32
194.678	36.18
194.897	114
195.116	87.38
195.335	25.94
195.555	56.66
195.774	66.9
195.993	87.38
196.212	-6.83
196.432	36.18
196.651	23.89
196.87	75.09
197.089	144.72
197.308	81.24
197.528	140.63
197.747	91.48
197.966	-2.73
198.185	101.72
198.404	46.42
198.623	109.91
198.842	109.91
199.062	81.24
199.281	30.04
199.5	5.46
199.719	21.85
199.938	34.13
200.157	122.2
200.376	62.8
200.595	66.9
200.814	71
201.033	25.94
201.252	138.58
201.471	187.73
201.69	42.32
201.909	48.47
202.128	48.47
202.347	34.13
202.566	5.46
202.785	-43.69
203.004	87.38
203.223	103.76
203.442	101.72
203.661	15.7
203.879	36.18
204.098	34.13
204.317	-2.73
204.536	79.19
204.755	58.71
204.974	103.76
205.193	136.53
205.411	128.34
205.63	124.24
205.849	81.24
206.068	-58.03
206.287	23.89
206.505	62.8
206.724	54.61
206.943	38.23
207.162	79.19
207.381	36.18
207.599	21.85
207.818	73.04
208.037	73.04
208.255	32.08
208.474	48.47
208.693	105.81
208.911	54.61
209.13	54.61
209.349	32.08
209.567	97.62
209.786	64.85
210.005	77.14
210.223	34.13
210.442	-8.87
210.661	99.67
210.879	21.85
211.098	38.23
211.316	120.15
211.535	62.8
211.753	71
211.972	46.42
212.191	75.09
212.409	85.33
212.628	56.66
212.846	21.85
213.065	25.94
213.283	124.24
213.502	66.9
213.72	-6.83
213.938	13.65
214.157	21.85
214.375	111.96
214.594	64.85
214.812	54.61
215.031	62.8
215.249	23.89
215.467	50.52
215.686	42.32
215.904	87.38
216.122	34.13
216.341	54.61
216.559	109.91
216.778	40.28
216.996	30.04
217.214	5.46
217.432	79.19
217.651	34.13
217.869	32.08
218.087	64.85
218.306	38.23
218.524	17.75
218.742	15.7
218.96	46.42
219.179	21.85
219.397	107.86
219.615	138.58
219.833	50.52
220.051	25.94
220.27	32.08
220.488	71
220.706	38.23
220.924	79.19
221.142	66.9
221.36	-12.97
221.578	15.7
221.796	30.04
222.015	17.75
222.233	73.04
222.451	79.19
222.669	9.56
222.887	114
223.105	30.04
223.323	48.47
223.541	21.85
223.759	114
223.977	23.89
224.195	30.04
224.413	103.76
224.631	138.58
224.849	54.61
225.067	42.32
225.285	5.46
225.503	66.9
225.721	-29.35
225.939	71
226.157	56.66
226.375	103.76
226.592	132.44
226.81	3.41
227.028	95.57
227.246	95.57
227.464	66.9
227.682	30.04
227.9	62.8
228.117	56.66
228.335	34.13
228.553	87.38
228.771	7.51
228.989	44.37
229.206	64.85
229.424	-0.68
229.642	52.56
229.86	48.47
230.077	21.85
230.295	-33.45
230.513	71
230.731	64.85
230.948	42.32
231.166	132.44
231.384	-2.73
231.601	71
231.819	79.19
232.037	95.57
232.254	-53.93
232.472	103.76
232.689	-33.45
232.907	107.86
233.125	75.09
233.342	30.04
233.56	-0.68
233.777	38.23
233.995	-29.35
234.213	23.89
234.43	75.09
234.648	64.85
234.865	99.67
235.083	81.24
235.3	48.47
235.518	54.61
235.735	75.09
235.953	42.32
236.17	11.61
236.388	85.33
236.605	-19.11
236.822	87.38
237.04	99.67
237.257	30.04
237.475	15.7
237.692	85.33
237.909	79.19
238.127	17.75
238.344	38.23
238.562	77.14
238.779	5.46
238.996	64.85
239.214	7.51
239.431	42.32
239.648	79.19
239.865	79.19
240.083	87.38
240.3	46.42
240.517	46.42
240.735	36.18
240.952	75.09
241.169	81.24
241.386	46.42
241.603	30.04
241.821	-10.92
242.038	79.19
242.255	60.76
242.472	-10.92
242.689	111.96
242.907	56.66
243.124	46.42
243.341	75.09
243.558	27.99
243.775	1.37
243.992	5.46
244.209	64.85
244.426	136.53
244.643	58.71
244.86	36.18
245.078	68.95
245.295	21.85
245.512	111.96
245.729	-15.02
245.946	68.95
246.163	87.38
246.38	30.04
246.597	21.85
246.814	15.7
247.031	66.9
247.248	56.66
247.464	60.76
247.681	52.56
247.898	64.85
248.115	38.23
248.332	-2.73
248.549	116.05
248.766	46.42
248.983	138.58
249.2	79.19
249.417	-2.73
249.633	50.52
249.85	34.13
250.067	46.42
250.284	27.99
250.501	38.23
250.717	62.8
250.934	58.71
251.151	30.04
251.368	-19.11
251.585	73.04
251.801	38.23
252.018	-15.02
252.235	75.09
252.451	50.52
252.668	58.71
252.885	79.19
253.102	99.67
253.318	21.85
253.535	11.61
253.752	-10.92
253.968	40.28
254.185	-25.26
254.401	13.65
254.618	54.61
254.835	68.95
255.051	97.62
255.268	60.76
255.484	21.85
255.701	7.51
255.917	105.81
256.134	38.23
256.351	48.47
256.567	-10.92
256.784	87.38
257	-4.78
257.217	34.13
257.433	85.33
257.65	62.8
257.866	23.89
258.082	17.75
258.299	64.85
258.515	34.13
258.732	-6.83
258.948	21.85
259.165	30.04
259.381	7.51
259.597	34.13
259.814	66.9
260.03	30.04
260.246	66.9
260.463	130.39
260.679	79.19
260.895	38.23
261.112	5.46
261.328	21.85
261.544	101.72
261.761	152.92
261.977	17.75
262.193	19.8
262.409	-33.45
262.626	58.71
262.842	81.24
263.058	52.56
263.274	54.61
263.49	83.28
263.707	87.38
263.923	109.91
264.139	27.99
264.355	50.52
264.571	140.63
264.787	62.8
265.004	3.41
265.22	38.23
265.436	83.28
265.652	64.85
265.868	87.38
266.084	11.61
266.3	40.28
266.516	60.76
266.732	103.76
266.948	62.8
267.164	75.09
267.38	-2.73
267.596	83.28
267.812	54.61
268.028	5.46
268.244	40.28
268.46	54.61
268.676	44.37
268.892	73.04
269.108	46.42
269.324	101.72
269.54	13.65
269.756	54.61
269.972	40.28
270.188	32.08
270.403	46.42
270.619	81.24
270.835	54.61
271.051	-4.78
271.267	-2.73
271.483	75.09
271.698	140.63
271.914	32.08
272.13	-6.83
272.346	75.09
272.562	-8.87
272.777	87.38
272.993	58.71
273.209	-37.55
273.425	124.24
273.64	17.75
273.856	73.04
274.072	15.7
274.287	42.32
274.503	132.44
274.719	38.23
274.934	40.28
275.15	15.7
275.366	62.8
275.581	-37.55
275.797	-4.78
276.012	71
276.228	38.23
276.444	38.23
276.659	60.76
276.875	19.8
277.09	54.61
277.306	50.52
277.521	44.37
277.737	56.66
277.952	91.48
278.168	46.42
278.383	87.38
278.599	38.23
278.814	23.89
279.03	56.66
279.245	95.57
279.461	9.56
279.676	64.85
279.892	79.19
280.107	-6.83
280.322	111.96
280.538	5.46
280.753	83.28
280.969	54.61
281.184	13.65
281.399	23.89
281.615	54.61
281.83	114
282.045	1.37
282.26	56.66
282.476	54.61
282.691	132.44
282.906	56.66
283.122	134.48
283.337	-17.07
283.552	87.38
283.767	27.99
283.983	42.32
284.198	34.13
284.413	75.09
284.628	48.47
284.843	40.28
285.058	15.7
285.274	-2.73
285.489	-8.87
285.704	23.89
285.919	46.42
286.134	62.8
286.349	91.48
286.564	38.23
286.779	136.53
286.995	54.61
287.21	64.85
287.425	52.56
287.64	-19.11
287.855	54.61
288.07	-39.59
288.285	-25.26
288.5	64.85
288.715	60.76
288.93	-6.83
289.145	-35.5
289.36	66.9
289.575	9.56
289.79	91.48
290.004	66.9
290.219	30.04
290.434	-6.83
290.649	-19.11
290.864	15.7
291.079	58.71
291.294	46.42
291.509	19.8
291.724	103.76
291.938	81.24
292.153	75.09
292.368	46.42
292.583	79.19
292.798	-51.88
293.012	99.67
293.227	79.19
293.442	42.32
293.657	99.67
293.871	99.67
294.086	91.48
294.301	21.85
294.516	111.96
294.73	79.19
294.945	30.04
295.16	40.28
295.374	89.43
295.589	161.11
295.804	48.47
296.018	73.04
296.233	32.08
296.447	-2.73
296.662	44.37
296.877	81.24
297.091	128.34
297.306	64.85
297.52	46.42
297.735	161.11
297.949	23.89
298.164	46.42
298.378	81.24
298.593	68.95
298.807	30.04
299.022	64.85
299.236	99.67
299.451	13.65
299.665	62.8
299.88	25.94
300.094	85.33
300.309	13.65
300.523	40.28
300.737	64.85
300.952	58.71
301.166	93.52
301.381	19.8
301.595	30.04
301.809	103.76
302.024	32.08
302.238	30.04
302.452	91.48
302.667	116.05
302.881	34.13
303.095	79.19
303.309	157.01
303.524	44.37
303.738	7.51
303.952	73.04
304.166	62.8
304.381	-68.27
304.595	103.76
304.809	66.9
305.023	71
305.237	38.23
305.452	95.57
305.666	103.76
305.88	75.09
306.094	54.61
306.308	91.48
306.522	1.37
306.736	97.62
306.95	89.43
307.164	62.8
307.379	58.71
307.593	144.72
307.807	146.77
308.021	103.76
308.235	81.24
308.449	48.47
308.663	-29.35
308.877	56.66
309.091	38.23
309.305	89.43
309.519	54.61
309.733	38.23
309.947	44.37
310.161	38.23
310.374	73.04
310.588	-10.92
310.802	101.72
311.016	15.7
311.23	56.66
311.444	13.65
311.658	-0.68
311.872	58.71
312.085	122.2
312.299	9.56
312.513	171.35
312.727	128.34
312.941	40.28
313.154	15.7
313.368	21.85
313.582	68.95
313.796	44.37
314.009	-6.83
314.223	124.24
314.437	107.86
314.651	95.57
314.864	34.13
315.078	-6.83
315.292	21.85
315.505	62.8
315.719	95.57
315.933	13.65
316.146	77.14
316.36	87.38
316.573	87.38
316.787	99.67
317.001	140.63
317.214	21.85
317.428	66.9
317.641	21.85
317.855	13.65
318.068	66.9
318.282	73.04
318.495	56.66
318.709	73.04
318.922	13.65
319.136	93.52
319.349	122.2
319.563	46.42
319.776	40.28
319.99	111.96
320.203	124.24
320.417	15.7
320.63	42.32
320.843	128.34
321.057	46.42
321.27	50.52
321.483	-17.07
321.697	71
321.91	23.89
322.124	30.04
322.337	36.18
322.55	27.99
322.763	25.94
322.977	7.51
323.19	73.04
323.403	38.23
323.617	122.2
323.83	109.91
324.043	23.89
324.256	44.37
324.469	103.76
324.683	46.42
324.896	132.44
325.109	83.28
325.322	-10.92
325.535	56.66
325.748	87.38
325.962	15.7
326.175	58.71
326.388	64.85
326.601	144.72
326.814	25.94
327.027	120.15
327.24	122.2
327.453	13.65
327.666	87.38
327.879	120.15
328.092	75.09
328.305	27.99
328.518	50.52
328.731	79.19
328.944	73.04
329.157	21.85
329.37	48.47
329.583	124.24
329.796	44.37
330.009	54.61
330.222	54.61
330.435	56.66
330.648	111.96
330.861	46.42
331.073	34.13
331.286	95.57
331.499	71
331.712	87.38
331.925	71
332.138	103.76
332.35	91.48
332.563	46.42
332.776	91.48
332.989	34.13
333.202	66.9
333.414	66.9
333.627	46.42
333.84	64.85
334.053	77.14
334.265	34.13
334.478	17.75
334.691	34.13
334.903	-10.92
335.116	58.71
335.329	54.61
335.541	103.76
335.754	58.71
335.966	48.47
336.179	87.38
336.392	87.38
336.604	40.28
336.817	-2.73
337.029	71
337.242	38.23
337.454	75.09
337.667	-19.11
337.88	56.66
338.092	21.85
338.305	87.38
338.517	9.56
338.729	17.75
338.942	54.61
339.154	23.89
339.367	17.75
339.579	105.81
339.792	23.89
340.004	144.72
340.217	46.42
340.429	62.8
340.641	79.19
340.854	30.04
341.066	66.9
341.278	62.8
341.491	91.48
341.703	62.8
341.915	-23.21
342.128	118.1
342.34	38.23
342.552	71
342.764	136.53
342.977	75.09
343.189	68.95
343.401	62.8
343.613	54.61
343.826	30.04
344.038	7.51
344.25	23.89
344.462	71
344.674	-6.83
344.886	73.04
345.099	79.19
345.311	73.04
345.523	-8.87
345.735	46.42
345.947	60.76
346.159	62.8
346.371	-2.73
346.583	30.04
346.795	126.29
347.007	32.08
347.219	50.52
347.431	87.38
347.643	75.09
347.855	50.52
348.067	52.56
348.279	66.9
348.491	85.33
348.703	62.8
348.915	58.71
349.127	34.13
349.339	46.42
349.551	56.66
349.763	36.18
349.975	114
350.187	91.48
350.399	60.76
350.61	-2.73
350.822	75.09
351.034	62.8
351.246	62.8
351.458	7.51
351.669	56.66
351.881	73.04
352.093	83.28
352.305	81.24
352.517	91.48
352.728	128.34
352.94	7.51
353.152	81.24
353.363	120.15
353.575	34.13
353.787	103.76
353.999	75.09
354.21	48.47
354.422	25.94
354.633	-35.5
354.845	114
355.057	15.7
355.268	13.65
355.48	75.09
355.692	83.28
355.903	120.15
356.115	15.7
356.326	30.04
356.538	48.47
356.749	52.56
356.961	87.38
357.172	79.19
357.384	134.48
357.595	109.91
357.807	46.42
358.018	-2.73
358.23	73.04
358.441	54.61
358.653	97.62
358.864	56.66
359.075	17.75
359.287	58.71
359.498	128.34
359.709	58.71
359.921	13.65
360.132	46.42
360.344	120.15
360.555	30.04
360.766	-33.45
360.977	95.57
361.189	138.58
361.4	48.47
361.611	105.81
361.823	89.43
362.034	111.96
362.245	9.56
362.456	40.28
362.667	140.63
362.879	5.46
363.09	40.28
363.301	56.66
363.512	130.39
363.723	34.13
363.935	79.19
364.146	7.51
364.357	50.52
364.568	95.57
364.779	-2.73
364.99	105.81
365.201	-2.73
365.412	81.24
365.623	-10.92
365.834	27.99
366.045	87.38
366.256	97.62
366.467	34.13
366.678	48.47
366.889	87.38
367.1	21.85
367.311	17.75
367.522	13.65
367.733	132.44
367.944	95.57
368.155	38.23
368.366	111.96
368.577	105.81
368.788	52.56
368.999	60.76
369.209	93.52
369.42	93.52
369.631	140.63
369.842	15.7
370.053	75.09
370.264	81.24
370.474	38.23
370.685	71
370.896	64.85
371.107	48.47
371.317	79.19
371.528	77.14
371.739	136.53
371.95	5.46
372.16	54.61
372.371	-4.78
372.582	79.19
372.792	146.77
373.003	17.75
373.214	-4.78
373.424	23.89
373.635	66.9
373.846	152.92
374.056	23.89
374.267	50.52
374.477	109.91
374.688	40.28
374.898	97.62
375.109	95.57
375.319	30.04
375.53	73.04
375.74	75.09
375.951	105.81
376.161	79.19
376.372	79.19
376.582	85.33
376.793	99.67
377.003	46.42
377.214	56.66
377.424	75.09
377.635	71
377.845	64.85
378.055	103.76
378.266	-15.02
378.476	13.65
378.686	21.85
378.897	1.37
379.107	120.15
379.317	132.44
379.528	-6.83
379.738	120.15
379.948	5.46
380.158	60.76
380.369	87.38
380.579	97.62
380.789	32.08
380.999	79.19
381.21	107.86
381.42	144.72
381.63	81.24
381.84	79.19
382.05	101.72
382.261	7.51
382.471	87.38
382.681	-6.83
382.891	163.15
383.101	132.44
383.311	23.89
383.521	132.44
383.731	-15.02
383.941	60.76
384.151	58.71
384.361	116.05
384.571	38.23
384.781	83.28
384.991	114
385.201	169.3
385.411	79.19
385.621	73.04
385.831	103.76
386.041	71
386.251	58.71
386.461	71
386.671	38.23
386.881	36.18
387.091	5.46
387.301	7.51
387.511	89.43
387.72	128.34
387.93	44.37
388.14	52.56
388.35	130.39
388.56	111.96
388.769	95.57
388.979	58.71
389.189	42.32
389.399	138.58
389.609	128.34
389.818	140.63
390.028	64.85
390.238	71
390.447	11.61
390.657	71
390.867	87.38
391.076	23.89
391.286	83.28
391.496	40.28
391.705	101.72
391.915	114
392.125	64.85
392.334	107.86
392.544	83.28
392.753	50.52
392.963	54.61
393.172	46.42
393.382	-2.73
393.591	111.96
393.801	91.48
394.01	218.45
394.22	144.72
394.429	124.24
394.639	54.61
394.848	91.48
395.058	83.28
395.267	109.91
395.477	85.33
395.686	107.86
395.895	120.15
396.105	124.24
396.314	154.96
396.524	13.65
396.733	71
396.942	103.76
397.152	97.62
397.361	130.39
397.57	79.19
397.78	161.11
397.989	144.72
398.198	124.24
398.407	189.78
398.617	107.86
398.826	128.34
399.035	83.28
399.244	99.67
399.453	64.85
399.663	148.82
399.872	161.11
400.081	101.72
400.29	83.28
400.499	81.24
400.708	13.65
400.917	89.43
401.127	105.81
401.336	73.04
401.545	144.72
401.754	193.87
401.963	97.62
402.172	138.58
402.381	120.15
402.59	152.92
402.799	105.81
403.008	116.05
403.217	173.39
403.426	132.44
403.635	136.53
403.844	148.82
404.053	114
404.262	89.43
404.471	195.92
404.68	114
404.888	87.38
405.097	179.54
405.306	191.83
405.515	181.59
405.724	159.06
405.933	177.49
406.142	206.16
406.35	161.11
406.559	224.59
406.768	210.26
406.977	210.26
407.185	169.3
407.394	197.97
407.603	200.02
407.812	245.07
408.02	212.31
408.229	116.05
408.438	204.11
408.646	189.78
408.855	275.79
409.064	234.83
409.272	218.45
409.481	267.6
409.69	245.07
409.898	283.99
410.107	292.18
410.315	367.95
410.524	308.56
410.733	294.22
410.941	294.22
411.15	304.46
411.358	382.29
411.567	392.53
411.775	349.52
411.984	333.14
412.192	378.19
412.401	353.62
412.609	361.81
412.818	439.63
413.026	427.34
413.234	433.49
413.443	429.39
413.651	503.12
413.86	408.91
414.068	456.01
414.276	505.17
414.485	435.53
414.693	603.47
414.901	621.9
415.11	480.59
415.318	611.66
415.526	564.56
415.734	660.81
415.943	736.59
416.151	763.21
416.359	734.54
416.567	648.52
416.776	728.39
416.984	841.03
417.192	875.85
417.4	951.62
417.608	755.02
417.817	898.38
418.025	927.05
418.233	978.25
418.441	918.86
418.649	984.39
418.857	1033.54
419.065	1105.22
419.273	963.91
419.481	1111.36
419.689	1162.56
419.897	1189.19
420.105	1303.87
420.313	1221.95
420.521	1279.3
420.729	1381.7
420.937	1396.03
421.145	1422.66
421.353	1537.34
421.561	1537.34
421.769	1561.92
421.977	1637.69
422.185	1588.54
422.393	1709.37
422.601	1910.07
422.809	1828.15
423.017	1801.53
423.224	1834.3
423.432	1975.61
423.64	1938.74
423.848	2268.47
424.056	2159.92
424.263	2372.91
424.471	2227.51
424.679	2399.54
424.887	2491.7
425.094	2479.41
425.302	2516.27
425.51	2667.82
425.718	2549.04
425.925	2655.53
426.133	2815.27
426.341	2987.3
426.548	3032.36
426.756	3249.44
426.964	3155.24
427.171	3228.96
427.379	3503.39
427.586	3470.62
427.794	3607.84
428.001	3638.56
428.209	3970.33
428.417	3808.54
428.624	4158.74
428.832	4109.59
429.039	4166.93
429.247	4144.41
429.454	4498.7
429.662	4846.86
429.869	4427.03
430.076	4726.03
430.284	4609.3
430.491	4793.61
430.699	5059.85
430.906	5141.77
431.114	5395.72
431.321	5416.19
431.528	5375.24
431.736	5723.39
431.943	5979.39
432.15	5946.62
432.358	5995.77
432.565	6399.22
432.772	6161.66
432.979	6491.38
433.187	6706.41
433.394	6907.12
433.601	7109.86
433.808	7394.53
434.016	7257.32
434.223	7453.92
434.43	7863.52
434.637	7845.09
434.844	8309.97
435.052	8307.93
435.259	8533.2
435.466	8557.78
435.673	8289.49
435.88	8922.32
436.087	9315.53
436.294	9325.77
436.501	9196.74
436.708	9360.58
436.915	9864.38
437.122	10032.32
437.329	10204.35
437.537	10335.42
437.743	10417.33
437.95	10511.54
438.157	10978.48
438.364	11252.91
438.571	11392.17
438.778	11513
438.985	12342.42
439.192	12049.57
439.399	12385.43
439.606	12035.23
439.813	12782.74
440.02	13472.9
440.227	13401.22
440.433	13325.45
440.64	13640.84
440.847	13554.82
441.054	13792.39
441.261	14673.01
441.467	14677.11
441.674	14834.8
441.881	15619.17
442.088	15580.26
442.294	15182.96
442.501	15484.01
442.708	15852.64
442.914	16477.27
443.121	17503.31
443.328	16690.26
443.534	17626.18
443.741	17382.48
443.948	17237.07
444.154	18676.79
444.361	18365.5
444.568	18562.11
444.774	18506.81
444.981	18576.44
445.187	19483.69
445.394	19979.3
445.6	19776.55
445.807	21879.82
446.013	20673.56
446.22	21042.2
446.426	22062.08
446.633	22207.49
446.839	23196.66
447.046	22006.79
447.252	23286.77
447.459	23000.05
447.665	23217.14
447.871	24277.99
448.078	25494.48
448.284	24009.7
448.491	24648.67
448.697	25387.99
448.903	26252.23
449.11	26422.21
449.316	25875.4
449.522	26303.43
449.728	26971.07
449.935	27186.1
450.141	27141.05
450.347	27892.65
450.553	27194.29
450.76	27470.77
450.966	28457.89
451.172	27866.03
451.378	28892.06
451.584	28115.88
451.791	28982.17
451.997	28791.71
452.203	29172.63
452.409	29469.59
452.615	29367.19
452.821	27945.9
453.027	27986.86
453.233	29600.66
453.44	28070.82
453.646	28922.78
453.852	28777.37
454.058	29490.07
454.264	28281.77
454.47	29105.05
454.676	28165.03
454.882	29438.87
455.088	26692.54
455.294	27329.46
455.5	27806.64
455.705	28244.9
455.911	26772.41
456.117	26440.64
456.323	26211.27
456.529	24673.24
456.735	25918.41
456.941	25121.75
457.147	24894.43
457.352	23976.94
457.558	24079.33
457.764	24050.66
457.97	23481.33
458.176	23096.31
458.381	23151.6
458.587	21722.12
458.793	22127.62
458.999	20853.78
459.204	22361.09
459.41	21500.94
459.616	20036.64
459.821	20263.97
460.027	20309.02
460.233	20079.65
460.438	18840.63
460.644	19440.68
460.85	18351.17
461.055	17767.49
461.261	18203.71
461.466	16745.56
461.672	16135.26
461.878	17347.66
462.083	16168.03
462.289	15963.23
462.494	15694.95
462.7	14908.53
462.905	14742.64
463.111	14963.82
463.316	15012.98
463.522	14871.67
463.727	14783.6
463.932	14822.52
464.138	14435.45
464.343	14511.22
464.549	14347.39
464.754	14795.89
464.959	14439.54
465.165	14337.15
465.37	13880.45
465.575	13591.69
465.781	13890.69
465.986	14169.21
466.191	13550.73
466.397	13356.17
466.602	12756.11
466.807	13331.59
467.012	13173.9
467.218	13083.79
467.423	12801.17
467.628	13120.65
467.833	13419.66
468.038	13075.6
468.244	12768.4
468.449	13257.87
468.654	12868.75
468.859	12584.09
469.064	12760.21
469.269	12264.6
469.474	12074.14
469.679	12661.91
469.885	11910.3
470.09	12248.22
470.295	12139.68
470.5	12033.18
470.705	12172.44
470.91	11693.22
471.115	11760.8
471.32	11566.24
471.525	11728.03
471.73	11531.43
471.935	11365.54
472.139	11119.79
472.344	11222.19
472.549	11269.29
472.754	11179.18
472.959	10927.28
473.164	10394.81
473.369	10179.77
473.574	10833.07
473.778	10603.7
473.983	10425.53
474.188	10609.84
474.393	9970.88
474.598	10155.19
474.802	10003.64
475.007	10122.43
475.212	10028.22
475.417	9508.04
475.621	9741.5
475.826	9675.97
476.031	9426.12
476.235	9401.54
476.44	9344.2
476.645	9194.7
476.849	9180.36
477.054	9131.21
477.259	9051.34
477.463	8907.98
477.668	8688.85
477.872	8891.6
478.077	8735.95
478.282	8514.77
478.486	8455.38
478.691	8553.68
478.895	8451.28
479.1	8334.55
479.304	8420.56
479.509	8092.89
479.713	8297.69
479.918	7978.2
480.122	7978.2
480.326	8142.04
480.531	8105.18
480.735	8008.92
480.94	7896.28
481.144	8117.47
481.348	7793.89
481.553	7726.3
481.757	7617.76
481.961	7812.32
482.166	7871.71
482.37	7853.28
482.574	7589.09
482.778	7765.21
482.983	7849.18
483.187	7757.02
483.391	7853.28
483.595	7707.87
483.8	7527.65
484.004	7779.55
484.208	7716.06
484.412	7750.88
484.616	7931.1
484.821	7754.97
485.025	7589.09
485.229	7711.97
485.433	7664.86
485.637	7484.64
485.841	7601.38
486.045	7693.54
486.249	7656.67
486.453	7611.62
486.657	7812.32
486.861	7759.07
487.065	7494.88
487.269	7759.07
487.473	7322.85
487.677	7906.52
487.881	7709.92
488.085	7679.2
488.289	7857.37
488.493	7584.99
488.697	7830.75
488.901	7847.13
489.105	7498.98
489.309	7795.93
489.512	7861.47
489.716	7937.24
489.92	7939.29
490.124	7707.87
490.328	8047.83
490.531	7935.2
490.735	7961.82
490.939	7976.16
491.143	7945.44
491.346	7705.82
491.55	8162.52
491.754	7984.35
491.958	8105.18
492.161	8111.32
492.365	8107.23
492.569	8271.06
492.772	8058.07
492.976	8283.35
493.18	8279.26
493.383	8494.29
493.587	8369.37
493.79	8660.18
493.994	8447.19
494.197	8477.91
494.401	8654.03
494.605	8559.83
494.808	8787.15
495.012	8983.76
495.215	8744.14
495.419	9016.52
495.622	8723.66
495.825	9135.31
496.029	8803.53
496.232	9135.31
496.436	9135.31
496.639	9462.98
496.843	9438.41
497.046	9458.88
497.249	9606.34
497.453	9733.31
497.656	9942.21
497.859	9673.92
498.063	10048.7
498.266	10175.67
498.469	10153.15
498.673	10306.74
498.876	10278.07
499.079	10552.5
499.282	10544.31
499.485	10798.26
499.689	10779.82
499.892	11109.55
500.095	10857.65
500.298	11232.43
500.501	11109.55
500.705	11531.43
500.908	11504.81
501.111	11703.46
501.314	11832.48
501.517	12020.89
501.72	12207.26
501.923	11971.74
502.126	12457.11
502.329	12539.03
502.532	12516.5
502.735	12754.07
502.938	12962.96
503.141	12760.21
503.344	13280.39
503.547	13319.31
503.75	13390.99
503.953	13587.59
504.156	13622.41
504.359	13935.74
504.562	13898.88
504.765	14265.47
504.968	14537.85
505.17	14697.59
505.373	14816.37
505.576	14881.91
505.779	14996.59
505.982	15215.73
506.185	15570.02
506.387	15340.65
506.59	15604.84
506.793	16118.88
506.996	15723.62
507.198	16381.02
507.401	16512.09
507.604	16516.19
507.807	16815.19
508.009	16893.01
508.212	17077.33
508.415	17294.41
508.617	17570.89
508.82	17525.83
509.022	17677.38
509.225	18076.74
509.428	18228.29
509.63	18572.35
509.833	18500.67
510.035	19029.04
510.238	18623.55
510.44	19117.11
510.643	19401.77
510.845	19625
511.048	19625
511.25	19837.99
511.453	19987.49
511.655	20786.2
511.858	20644.89
512.06	20651.03
512.262	20921.37
512.465	21034
512.667	21271.57
512.87	21357.58
513.072	21488.65
513.274	22236.16
513.477	22123.52
513.679	22365.18
513.881	22670.33
514.084	22752.25
514.286	22977.53
514.488	22719.48
514.69	23591.92
514.893	23679.98
515.095	23747.56
515.297	23864.3
515.499	23995.37
515.701	24269.79
515.904	24720.35
516.106	24828.89
516.308	25160.66
516.51	25396.18
516.712	25457.62
516.914	25623.5
517.116	26078.15
517.318	26479.55
517.52	26442.69
517.722	26727.36
517.925	26817.47
518.127	27225.01
518.329	27356.08
518.531	27075.51
518.733	27790.25
518.935	28273.57
519.136	28095.4
519.338	28541.86
519.54	28812.19
519.742	28820.38
519.944	29156.25
520.146	29555.6
520.348	29940.62
520.55	29827.98
520.752	30081.93
520.954	30407.56
521.155	30235.53
521.357	31028.09
521.559	30866.3
521.761	31353.72
521.963	31392.63
522.164	31681.39
522.366	31892.33
522.568	32312.17
522.77	32271.21
522.971	32650.08
523.173	32357.22
523.375	32949.09
523.576	32719.71
523.778	33262.43
523.98	33344.34
524.181	33798.99
524.383	33502.04
524.584	34165.58
524.786	33958.74
524.988	33796.95
525.189	34255.69
525.391	34769.73
525.592	34865.99
525.794	34900.8
525.995	35068.73
526.197	34956.1
526.398	35275.58
526.6	35312.44
526.801	35457.85
527.003	35736.37
527.204	35769.14
527.406	36072.24
527.607	35883.83
527.808	36186.93
528.01	35982.13
528.211	36346.67
528.412	36768.55
528.614	36797.22
528.815	36995.87
529.016	36827.94
529.218	36496.17
529.419	36784.93
529.62	37135.13
529.822	37155.61
530.023	37155.61
530.224	37327.64
530.425	37063.46
530.626	37167.9
530.828	36866.85
531.029	37966.61
531.23	37522.2
531.431	37567.26
531.632	37274.4
531.833	37542.68
532.035	37710.61
532.236	37747.48
532.437	37628.7
532.638	37681.94
532.839	38132.5
533.04	37853.97
533.241	37669.65
533.442	38437.64
533.643	38333.2
533.844	37892.88
534.045	38116.11
534.246	37610.26
534.447	38071.06
534.648	37993.23
534.849	38214.41
535.05	37919.51
535.251	38286.09
535.451	38144.78
535.652	38329.1
535.853	38445.83
536.054	37765.91
536.255	38546.19
536.456	37798.68
536.657	38451.98
536.857	38066.96
537.058	38095.63
537.259	38286.09
537.46	38341.39
537.66	37980.95
537.861	38011.67
538.062	38054.67
538.263	38066.96
538.463	38120.21
538.664	37454.62
538.865	38109.97
539.065	37976.85
539.266	37944.08
539.466	38155.02
539.667	37858.07
539.868	38509.32
540.068	38302.48
540.269	37980.95
540.469	38126.35
540.67	37710.61
540.87	38214.41
541.071	38171.41
541.271	38179.6
541.472	37845.78
541.672	37942.03
541.873	38206.22
542.073	37626.65
542.274	38144.78
542.474	37888.79
542.675	38003.47
542.875	38238.99
543.075	38187.79
543.276	37372.7
543.476	38161.17
543.676	37690.13
543.877	37679.89
544.077	37829.4
544.277	38251.28
544.478	37901.08
544.678	38298.38
544.878	37483.29
545.078	38169.36
545.279	37978.9
545.479	38304.52
545.679	37890.84
545.879	37763.86
546.079	37595.93
546.28	37888.79
546.48	37358.36
546.68	37739.29
546.88	38036.24
547.08	37862.16
547.28	37720.85
547.48	37112.61
547.68	37626.65
547.88	37384.99
548.081	37960.47
548.281	37952.27
548.481	37554.97
548.681	37960.47
548.881	37933.84
549.081	37808.92
549.28	37438.23
549.48	37890.84
549.68	37817.11
549.88	37761.81
550.08	37401.37
550.28	38003.47
550.48	37544.73
550.68	37473.05
550.88	37608.22
551.08	37698.33
551.279	37583.64
551.479	37233.44
551.679	37608.22
551.879	37608.22
552.079	37405.47
552.278	37667.61
552.478	37604.12
552.678	37296.92
552.878	37819.16
553.077	37456.67
553.277	37055.26
553.477	37847.83
553.676	37509.91
553.876	37114.65
554.076	37196.57
554.275	37444.38
554.475	36610.85
554.674	37626.65
554.874	37255.96
555.074	37284.64
555.273	37563.16
555.473	37524.25
555.672	37266.2
555.872	36948.77
556.071	37366.56
556.271	37540.63
556.47	37032.74
556.67	36836.13
556.869	36641.57
557.068	36954.91
557.268	36764.45
557.467	36594.47
557.667	36999.97
557.866	36686.63
558.065	37065.5
558.265	36584.23
558.464	36334.38
558.663	36780.84
558.863	35992.37
559.062	37010.21
559.261	36105.01
559.461	36571.94
559.66	36383.53
559.859	36354.86
560.058	36051.76
560.258	36440.87
560.457	35924.79
560.656	36414.25
560.855	35965.74
561.054	36115.25
561.253	35975.98
561.453	35767.09
561.652	35969.84
561.851	35914.55
562.05	36166.45
562.249	35408.7
562.448	36088.62
562.647	35830.58
562.846	35932.98
563.045	35492.66
563.244	35003.2
563.443	35558.2
563.642	35330.87
563.841	35414.84
564.04	35220.28
564.239	35640.12
564.438	34835.27
564.637	35146.56
564.836	35404.6
565.035	34937.66
565.234	35185.47
565.432	34911.04
565.631	34593.61
565.83	34945.86
566.029	34511.69
566.228	34726.72
566.427	34777.92
566.625	34423.62
566.824	34118.48
567.023	34489.16
567.222	33946.45
567.42	34693.96
567.619	34329.42
567.818	34286.41
568.016	33958.74
568.215	34356.04
568.414	33895.25
568.612	34464.58
568.811	33651.54
569.01	33856.34
569.208	33473.37
569.407	33577.81
569.605	33129.31
569.804	33403.74
570.002	33022.81
570.201	33368.92
570.4	32981.85
570.598	33123.16
570.797	32832.35
570.995	33063.77
571.193	32656.23
571.392	33033.05
571.59	32336.74
571.789	32881.5
571.987	32482.15
572.186	32648.04
572.384	32260.97
572.582	32428.9
572.781	32822.11
572.979	32170.86
573.177	32220.01
573.376	31869.81
573.574	31830.9
573.772	31949.68
573.971	31896.43
574.169	31572.85
574.367	31349.62
574.565	31374.2
574.763	31656.82
574.962	31437.69
575.16	31284.09
575.358	31699.83
575.556	30937.98
575.754	31712.11
575.952	31017.85
576.151	31529.84
576.349	31210.36
576.547	30679.94
576.745	30886.78
576.943	30761.86
577.141	30698.37
577.339	30671.75
577.537	30684.03
577.735	30493.57
577.933	29920.14
578.131	30380.93
578.329	30436.23
578.527	30118.79
578.725	30258.06
578.923	30217.1
579.121	29608.85
579.319	30274.44
579.516	29608.85
579.714	29817.74
579.912	29758.35
580.11	29715.34
580.308	29731.73
580.506	29647.76
580.704	29119.38
580.901	29410.2
581.099	29250.45
581.297	29039.51
581.495	29092.76
581.692	29244.31
581.89	28861.34
582.088	28918.68
582.285	28814.24
582.483	28847.01
582.681	28801.95
582.878	28470.18
583.076	28480.42
583.274	28603.3
583.471	28269.48
583.669	28038.06
583.866	27763.63
584.064	28111.78
584.262	27960.23
584.459	28105.64
584.657	27661.23
584.854	27677.61
585.052	27335.6
585.249	27575.22
585.447	27456.43
585.644	27165.62
585.841	27341.75
586.039	27616.18
586.236	26950.59
586.434	27274.17
586.631	26905.53
586.828	27186.1
587.026	27077.56
587.223	26934.2
587.42	26815.42
587.618	26774.46
587.815	26442.69
588.012	26581.95
588.21	26389.44
588.407	26522.56
588.604	26172.36
588.801	26309.57
588.999	26266.56
589.196	25861.07
589.393	26096.58
589.59	25811.92
589.787	25871.31
589.984	25912.27
590.182	25701.33
590.379	25885.64
590.576	25263.06
590.773	25308.12
590.97	25402.32
591.167	25752.52
591.364	25152.47
591.561	25379.79
591.758	25082.84
591.955	24939.48
592.152	25074.65
592.349	25136.09
592.546	25011.16
592.743	25027.54
592.94	24343.52
593.137	24851.42
593.334	24767.45
593.531	24396.77
593.727	24462.3
593.924	24484.83
594.121	24386.53
594.318	24232.93
594.515	24226.79
594.712	24368.1
594.908	23958.5
595.105	24112.1
595.302	23921.64
595.499	23933.93
595.696	23780.33
595.892	23811.05
596.089	23686.12
596.286	23774.19
596.482	23759.85
596.679	23403.5
596.876	23354.35
597.072	23114.74
597.269	23360.5
597.466	23466.99
597.662	23081.97
597.859	23391.22
598.055	23079.93
598.252	22950.9
598.448	22844.41
598.645	22868.98
598.841	22440.96
599.038	22805.5
599.234	22680.57
599.431	22371.33
599.627	22434.81
599.824	22561.79
600.02	22164.48
600.217	22590.46
600.413	22279.17
600.609	22201.35
600.806	22101
601.002	21937.16
601.198	21906.44
601.395	21918.73
601.591	21877.77
601.787	21683.21
601.984	21668.87
602.18	21937.16
602.376	21601.29
602.572	21214.23
602.769	21644.3
602.965	20980.76
603.161	21394.45
603.357	21273.62
603.553	21304.34
603.75	20962.33
603.946	20892.69
604.142	20806.68
604.338	20831.26
604.534	20644.89
604.73	20347.93
604.926	20626.46
605.122	20669.47
605.318	20292.64
605.514	20153.38
605.71	20356.13
605.906	20268.06
606.102	20374.56
606.298	20306.98
606.494	20093.99
606.69	19964.96
606.886	20210.72
607.082	20124.71
607.278	19973.16
607.474	19852.33
607.67	20085.79
607.866	19657.77
608.062	19770.41
608.257	19571.75
608.453	19377.2
608.649	19559.47
608.845	19661.87
609.041	19803.18
609.236	19612.71
609.432	19479.6
609.628	19430.44
609.824	19465.26
610.019	19002.42
610.215	19366.96
610.411	19244.08
610.606	19242.03
610.802	19192.88
610.998	19295.28
611.193	18873.4
611.389	18969.65
611.584	18734.14
611.78	18877.49
611.976	18998.32
612.171	19094.58
612.367	18732.09
612.562	18707.51
612.758	18551.87
612.953	18486.33
613.149	18732.09
613.344	18299.97
613.539	18715.7
613.735	18467.9
613.93	18383.93
614.126	18304.06
614.321	18428.99
614.517	18310.21
614.712	18582.59
614.907	18398.27
615.103	18297.92
615.298	18103.36
615.493	18242.62
615.688	18226.24
615.884	18158.66
616.079	17962.05
616.274	18160.7
616.47	18142.27
616.665	18052.16
616.86	17933.38
617.055	17873.99
617.25	17642.57
617.445	18035.78
617.641	17484.87
617.836	17843.27
618.031	17337.42
618.226	17566.79
618.421	17572.94
618.616	17615.94
618.811	17323.08
619.006	17595.46
619.201	17167.44
619.396	17196.11
619.591	16938.07
619.786	17339.47
619.981	16929.88
620.176	17036.37
620.371	16878.68
620.566	17136.72
620.761	16737.37
620.956	16776.28
621.151	16538.71
621.346	16632.92
621.541	16401.5
621.735	16440.41
621.93	16188.51
622.125	16067.68
622.32	16129.12
622.515	16227.42
622.709	15664.23
622.904	16082.02
623.099	15860.84
623.294	15725.67
623.488	15385.71
623.683	15582.31
623.878	15297.64
624.072	15402.09
624.267	15148.14
624.462	15090.8
624.656	15185.01
624.851	15252.59
625.046	15041.65
625.24	15037.55
625.435	14898.29
625.629	14750.84
625.824	14619.77
626.018	14650.49
626.213	14378.11
626.407	14193.79
626.602	14351.48
626.796	14150.78
626.991	14308.47
627.185	14390.39
627.38	14107.77
627.574	13907.07
627.768	13882.5
627.963	13829.25
628.157	13890.69
628.352	13653.12
628.546	13407.37
628.74	13718.66
628.935	13493.38
629.129	13495.43
629.323	13034.64
629.517	13223.05
629.712	13317.26
629.906	13405.32
630.1	12860.56
630.294	13139.08
630.489	12954.77
630.683	12967.06
630.877	12799.12
631.071	12377.24
631.265	12508.31
631.459	12623
631.653	12539.03
631.848	12231.83
632.042	12407.96
632.236	12397.72
632.43	12147.87
632.624	12360.86
632.818	11885.73
633.012	12184.73
633.206	11998.37
633.4	11986.08
633.594	11986.08
633.788	11873.44
633.982	11756.71
634.176	11549.86
634.369	11437.22
634.563	11519.14
634.757	11556.01
634.951	11314.34
635.145	11494.57
635.339	11388.07
635.533	11152.56
635.726	11195.56
635.92	10990.77
636.114	10994.86
636.308	11056.3
636.501	11140.27
636.695	10878.13
636.889	10898.61
637.083	10716.34
637.276	10673.33
637.47	10589.36
637.664	10570.93
637.857	10482.87
638.051	10548.4
638.244	10353.85
638.438	10273.98
638.632	10351.8
638.825	10204.35
639.019	10245.31
639.212	10097.85
639.406	10161.34
639.599	9958.59
639.793	10167.48
639.986	9893.05
640.18	9911.49
640.373	10024.12
640.567	9878.72
640.76	9829.57
640.954	9733.31
641.147	9495.75
641.34	9510.08
641.534	9454.79
641.727	9467.08
641.92	9540.8
642.114	9391.3
642.307	9395.4
642.5	9311.43
642.694	9206.98
642.887	9196.74
643.08	9223.37
643.273	9276.62
643.467	8852.69
643.66	8959.18
643.853	8856.78
644.046	8672.47
644.239	8971.47
644.432	8619.22
644.626	8783.06
644.819	8688.85
645.012	8529.11
645.205	8508.63
645.398	8506.58
645.591	8486.1
645.784	8232.15
645.977	8340.69
646.17	8410.33
646.363	8420.56
646.556	8242.39
646.749	8066.27
646.942	8248.54
647.135	8051.93
647.328	8164.57
647.521	7871.71
647.714	8129.75
647.907	7910.62
648.099	7836.89
648.292	7877.85
648.485	7838.94
648.678	7861.47
648.871	7656.67
649.064	7589.09
649.256	7611.62
649.449	7552.23
649.642	7566.56
649.835	7443.68
650.027	7437.54
650.22	7421.16
650.413	7308.52
650.605	7353.57
650.798	7189.74
650.991	7335.14
651.183	7126.25
651.376	7116.01
651.568	7189.74
651.761	7075.05
651.954	7097.58
652.146	7007.47
652.339	6911.21
652.531	6960.36
652.724	6991.08
652.916	6628.59
653.109	6817.01
653.301	6845.68
653.494	6681.84
653.686	6647.02
653.879	6812.91
654.071	6636.78
654.263	6518
654.456	6665.46
654.648	6540.53
654.84	6333.68
655.033	6407.41
655.225	6370.55
655.417	6561.01
655.61	6245.62
655.802	6366.45
655.994	6388.98
656.186	6528.24
656.379	6358.26
656.571	6175.99
656.763	6151.42
656.955	6100.22
657.148	6159.61
657.34	6128.89
657.532	5987.58
657.724	6051.06
657.916	5993.72
658.108	5903.61
658.3	5780.73
658.492	5924.09
658.684	5864.7
658.876	5887.23
659.068	5825.79
659.26	5731.58
659.452	5549.31
659.644	5709.05
659.836	5606.66
660.028	5649.66
660.22	5479.68
660.412	5477.63
660.604	5303.56
660.796	5489.92
660.988	5256.45
661.18	5375.24
661.372	5362.95
661.563	5262.6
661.755	5289.22
661.947	5262.6
662.139	5242.12
662.331	5149.96
662.522	5141.77
662.714	5217.54
662.906	5037.32
663.097	5195.01
663.289	5039.37
663.481	4910.35
663.673	5176.58
663.864	4910.35
664.056	4908.3
664.247	4836.62
664.439	4709.65
664.631	4842.76
664.822	4736.27
665.014	4932.87
665.205	4758.8
665.397	4560.14
665.588	4797.71
665.78	4668.69
665.971	4691.21
666.163	4650.25
666.354	4660.49
666.546	4517.14
666.737	4662.54
666.929	4652.3
667.12	4486.42
667.311	4510.99
667.503	4461.84
667.694	4404.5
667.885	4314.39
668.077	4439.31
668.268	4406.55
668.459	4228.37
668.651	4373.78
668.842	4359.44
669.033	4250.9
669.224	4207.89
669.416	4289.81
669.607	4193.56
669.798	4052.25
669.989	4203.8
670.18	4193.56
670.371	4330.77
670.563	4142.36
670.754	4175.13
670.945	4025.62
671.136	4093.21
671.327	3953.94
671.518	4056.34
671.709	4062.49
671.9	4070.68
672.091	3898.65
672.282	4019.48
672.473	3910.94
672.664	3980.57
672.855	3775.77
673.046	3933.47
673.237	3896.6
673.428	3902.75
673.619	3845.4
673.809	3851.55
674	3847.45
674.191	3796.25
674.382	3700
674.573	3904.79
674.764	3839.26
674.954	3900.7
675.145	3716.38
675.336	3734.81
675.527	3708.19
675.717	3634.46
675.908	3652.89
676.099	3618.08
676.289	3538.21
676.48	3482.91
676.671	3601.69
676.861	3708.19
677.052	3659.04
677.243	3562.78
677.433	3507.49
677.624	3638.56
677.814	3536.16
678.005	3568.93
678.195	3675.42
678.386	3548.45
678.576	3452.19
678.767	3527.97
678.957	3454.24
679.148	3491.1
679.338	3482.91
679.529	3540.26
679.719	3462.43
679.909	3464.48
680.1	3423.52
680.29	3321.12
680.481	3372.32
680.671	3478.82
680.861	3374.37
681.052	3319.07
681.242	3423.52
681.432	3392.8
681.622	3265.83
681.813	3310.88
682.003	3314.98
682.193	3218.72
682.383	3333.41
682.573	3153.19
682.764	3298.6
682.954	3360.03
683.144	3386.66
683.334	3290.4
683.524	3308.83
683.714	3282.21
683.904	3208.48
684.094	3235.11
684.284	3153.19
684.474	3167.52
684.664	3220.77
684.854	3159.33
685.044	3267.88
685.234	3118.37
685.424	3142.95
685.614	3142.95
685.804	3163.43
685.994	3161.38
686.184	3104.04
686.374	3112.23
686.564	3052.84
686.753	3089.7
686.943	3101.99
687.133	3038.5
687.323	3259.68
687.513	2989.35
687.702	3048.74
687.892	2952.49
688.082	3018.02
688.272	3091.75
688.461	2983.21
688.651	2970.92
688.841	2925.86
689.03	2958.63
689.22	2891.05
689.41	2856.23
689.599	2860.33
689.789	2897.19
689.979	3013.93
690.168	2823.47
690.358	2868.52
690.547	2848.04
690.737	2819.37
690.926	2901.29
691.116	2901.29
691.305	2927.91
691.495	2889
691.684	2897.19
691.874	2856.23
692.063	2780.46
692.252	2809.13
692.442	2764.08
692.631	2700.59
692.82	2729.26
693.01	2684.2
693.199	2673.96
693.388	2655.53
693.578	2637.1
693.767	2725.16
693.956	2692.4
694.146	2583.85
694.335	2725.16
694.524	2618.67
694.713	2753.84
694.902	2544.94
695.092	2538.8
695.281	2624.81
695.47	2637.1
695.659	2630.96
695.848	2487.6
696.037	2692.4
696.226	2581.81
696.415	2590
696.604	2678.06
696.793	2551.09
696.982	2458.93
697.171	2585.9
697.36	2516.27
697.549	2438.45
697.738	2585.9
697.927	2549.04
698.116	2487.6
698.305	2538.8
698.494	2407.73
698.683	2422.06
698.872	2577.71
699.061	2512.18
699.25	2602.29
699.438	2512.18
699.627	2395.44
699.816	2510.13
700.005	2426.16
700.193	2315.57
700.382	2407.73
700.571	2473.26
700.76	2485.55
700.948	2448.69
701.137	2405.68
701.326	2323.76
701.514	2471.22
701.703	2401.58
701.892	2364.72
702.08	2450.74
702.269	2389.3
702.457	2399.54
702.646	2397.49
702.834	2397.49
703.023	2368.82
703.212	2483.5
703.4	2354.48
703.589	2350.39
703.777	2274.61
703.965	2340.15
704.154	2311.47
704.342	2274.61
704.531	2307.38
704.719	2323.76
704.907	2483.5
705.096	2417.97
705.284	2252.08
705.472	2342.19
705.661	2356.53
705.849	2323.76
706.037	2448.69
706.226	2241.84
706.414	2331.95
706.602	2174.26
706.79	2266.42
706.979	2266.42
707.167	2264.37
707.355	2311.47
707.543	2280.75
707.731	2237.75
707.919	2250.03
708.107	2266.42
708.296	2315.57
708.484	2188.6
708.672	2164.02
708.86	2202.93
709.048	2368.82
709.236	2258.23
709.424	2211.12
709.612	2352.43
709.8	2207.03
709.988	2256.18
710.176	2264.37
710.364	2276.66
710.551	2254.13
710.739	2237.75
710.927	2290.99
711.115	2227.51
711.303	2293.04
711.491	2260.27
711.679	2123.06
711.866	2213.17
712.054	2243.89
712.242	2262.32
712.43	2252.08
712.617	2256.18
712.805	2204.98
712.993	2264.37
713.181	2155.83
713.368	2243.89
713.556	2315.57
713.744	2250.03
713.931	2194.74
714.119	2178.36
714.306	2194.74
714.494	2293.04
714.682	2211.12
714.869	2000.18
715.057	2245.94
715.244	2110.77
715.432	2112.82
715.619	2262.32
715.807	2227.51
715.994	2286.9
716.182	2186.55
716.369	2233.65
716.556	2161.97
716.744	2102.58
716.931	2106.68
717.119	2159.92
717.306	2233.65
717.493	2075.96
717.681	2094.39
717.868	2071.86
718.055	2133.3
718.242	2080.05
718.43	1994.04
718.617	2176.31
718.804	2129.2
718.991	2151.73
719.179	2166.07
719.366	2151.73
719.553	2127.16
719.74	2037.05
719.927	2106.68
720.114	2098.49
720.301	2071.86
720.488	2069.81
720.676	2129.2
720.863	2071.86
721.05	2123.06
721.237	2170.16
721.424	1987.89
721.611	2063.67
721.798	2020.66
721.985	2102.58
722.172	2057.53
722.358	1971.51
722.545	2039.09
722.732	2102.58
722.919	1989.94
723.106	2184.5
723.293	2102.58
723.48	2051.38
723.667	2118.97
723.853	2118.97
724.04	2028.85
724.227	2037.05
724.414	2118.97
724.6	2061.62
724.787	2069.81
724.974	2215.22
725.161	2151.73
725.347	2051.38
725.534	2028.85
725.72	1963.32
725.907	2127.16
726.094	2051.38
726.28	2127.16
726.467	1924.41
726.653	2059.57
726.84	2090.29
727.027	2110.77
727.213	2057.53
727.4	2088.25
727.586	2110.77
727.773	1916.22
727.959	2067.77
728.145	2090.29
728.332	1987.89
728.518	2006.33
728.705	2151.73
728.891	1996.09
729.077	2028.85
729.264	1996.09
729.45	1946.94
729.636	2053.43
729.823	1940.79
730.009	2127.16
730.195	2106.68
730.382	2061.62
730.568	1977.66
730.754	1994.04
730.94	2067.77
731.126	2008.37
731.313	2078.01
731.499	2149.68
731.685	1975.61
731.871	2004.28
732.057	2043.19
732.243	2008.37
732.429	1987.89
732.615	2135.35
732.801	1987.89
732.987	1905.98
733.173	1979.7
733.359	2106.68
733.545	2030.9
733.731	1955.13
733.917	2082.1
734.103	2088.25
734.289	2106.68
734.475	2049.33
734.661	1934.65
734.847	1893.69
735.033	1932.6
735.219	1955.13
735.404	2045.24
735.59	1991.99
735.776	1877.3
735.962	2037.05
736.148	1865.02
736.333	1922.36
736.519	1897.78
736.705	1942.84
736.89	1908.02
737.076	1996.09
737.262	1799.48
737.447	1893.69
737.633	1922.36
737.819	1905.98
738.004	1826.11
738.19	1963.32
738.375	1774.91
738.561	1883.45
738.747	1883.45
738.932	1926.46
739.118	2010.42
739.303	1905.98
739.489	1953.08
739.674	1887.54
739.859	1832.25
740.045	1828.15
740.23	1830.2
740.416	1826.11
740.601	1801.53
740.786	1770.81
740.972	1819.96
741.157	1920.31
741.342	1787.19
741.528	1762.62
741.713	1783.1
741.898	1865.02
742.084	1758.52
742.269	1807.67
742.454	1789.24
742.639	1824.06
742.824	1836.35
743.01	1807.67
743.195	1791.29
743.38	1680.7
743.565	1742.14
743.75	1758.52
743.935	1684.8
744.12	1697.08
744.305	1668.41
744.49	1746.23
744.675	1719.61
744.86	1639.74
745.045	1619.26
745.23	1668.41
745.415	1721.66
745.6	1682.75
745.785	1668.41
745.97	1635.64
746.155	1611.07
746.34	1703.23
746.525	1637.69
746.71	1695.04
746.895	1625.4
747.079	1594.68
747.264	1588.54
747.449	1688.89
747.634	1506.62
747.819	1611.07
748.003	1492.29
748.188	1541.44
748.373	1502.53
748.557	1494.33
748.742	1484.09
748.927	1465.66
749.111	1498.43
749.296	1480
749.481	1529.15
749.665	1451.33
749.85	1488.19
750.034	1373.5
750.219	1426.75
750.404	1381.7
750.588	1512.77
750.773	1391.94
750.957	1475.9
751.141	1340.74
751.326	1496.38
751.51	1316.16
751.695	1406.27
751.879	1383.74
752.064	1375.55
752.248	1258.82
752.432	1336.64
752.617	1381.7
752.801	1400.13
752.985	1385.79
753.17	1287.49
753.354	1324.35
753.538	1373.5
753.722	1316.16
753.907	1267.01
754.091	1201.47
754.275	1275.2
754.459	1285.44
754.643	1221.95
754.828	1260.87
755.012	1170.76
755.196	1275.2
755.38	1156.42
755.564	1242.43
755.748	1195.33
755.932	1215.81
756.116	1242.43
756.3	1201.47
756.484	1156.42
756.668	1176.9
756.852	1103.17
757.036	1064.26
757.22	1162.56
757.404	1105.22
757.588	1201.47
757.772	1103.17
757.956	1170.76
758.14	1090.88
758.323	1105.22
758.507	1164.61
758.691	1062.21
758.875	1097.03
759.059	1004.87
759.242	1008.97
759.426	1023.3
759.61	1037.64
759.794	945.48
759.977	1121.6
760.161	1084.74
760.345	1013.06
760.528	1047.88
760.712	1015.11
760.895	955.72
761.079	859.46
761.263	912.71
761.446	1008.97
761.63	996.68
761.813	1017.16
761.997	996.68
762.18	982.34
762.364	931.14
762.547	949.57
762.731	947.53
762.914	1031.49
763.098	892.23
763.281	857.42
763.464	990.53
763.648	890.18
763.831	947.53
764.015	851.27
764.198	900.42
764.381	894.28
764.564	933.19
764.748	943.43
764.931	912.71
765.114	886.09
765.297	988.49
765.481	939.34
765.664	881.99
765.847	900.42
766.03	925
766.213	804.17
766.397	908.62
766.58	918.86
766.763	873.8
766.946	742.73
767.129	836.94
767.312	820.55
767.495	869.7
767.678	861.51
767.861	929.1
768.044	824.65
768.227	775.5
768.41	851.27
768.593	826.7
768.776	843.08
768.959	793.93
769.142	847.18
769.324	857.42
769.507	789.83
769.69	752.97
769.873	937.29
770.056	761.16
770.239	818.5
770.421	814.41
770.604	755.02
770.787	841.03
770.97	812.36
771.152	677.2
771.335	795.98
771.518	736.59
771.7	851.27
771.883	890.18
772.066	795.98
772.248	750.92
772.431	783.69
772.613	785.74
772.796	795.98
772.978	804.17
773.161	808.26
773.343	744.78
773.526	570.7
773.708	707.91
773.891	734.54
774.073	816.46
774.256	742.73
774.438	742.73
774.621	636.24
774.803	714.06
774.985	677.2
775.168	638.28
775.35	652.62
775.532	691.53
775.715	644.43
775.897	652.62
776.079	656.72
776.261	669
776.444	726.35
776.626	644.43
776.808	669
776.99	607.56
777.173	671.05
777.355	613.71
777.537	572.75
777.719	654.67
777.901	562.51
778.083	572.75
778.265	490.83
778.447	531.79
778.629	566.6
778.811	585.04
778.993	570.7
779.175	652.62
779.357	673.1
779.539	546.12
779.721	546.12
779.903	591.18
780.085	546.12
780.267	621.9
780.449	570.7
780.631	533.84
780.812	511.31
780.994	458.06
781.176	539.98
781.358	472.4
781.54	558.41
781.721	564.56
781.903	568.65
782.085	525.65
782.267	537.93
782.448	501.07
782.63	431.44
782.812	554.32
782.993	499.02
783.175	496.97
783.357	443.73
783.538	476.49
783.72	464.21
783.901	501.07
784.083	398.67
784.264	533.84
784.446	458.06
784.627	488.78
784.809	417.1
784.99	466.25
785.172	398.67
785.353	460.11
785.535	447.82
785.716	378.19
785.897	333.14
786.079	433.49
786.26	476.49
786.441	548.17
786.623	431.44
786.804	390.48
786.985	480.59
787.167	396.62
787.348	525.65
787.529	421.2
787.71	435.53
787.891	466.25
788.073	398.67
788.254	390.48
788.435	482.64
788.616	394.58
788.797	410.96
788.978	415.06
789.159	320.85
789.34	378.19
789.522	370
789.703	339.28
789.884	394.58
790.065	308.56
790.246	394.58
790.427	333.14
790.607	345.42
790.788	386.38
790.969	318.8
791.15	365.9
791.331	261.46
791.512	361.81
791.693	308.56
791.874	345.42
792.054	322.9
792.235	349.52
792.416	294.22
792.597	353.62
792.778	326.99
792.958	458.06
793.139	347.47
793.32	320.85
793.5	263.51
793.681	406.86
793.862	308.56
794.042	341.33
794.223	308.56
794.404	269.65
794.584	316.75
794.765	398.67
794.945	267.6
795.126	275.79
795.306	324.94
795.487	308.56
795.667	261.46
795.848	292.18
796.028	281.94
796.209	269.65
796.389	312.66
796.57	292.18
796.75	286.03
796.93	292.18
797.111	249.17
797.291	267.6
797.471	324.94
797.652	210.26
797.832	269.65
798.012	333.14
798.192	230.74
798.373	279.89
798.553	290.13
798.733	292.18
798.913	200.02
799.093	271.7
799.274	269.65
799.454	337.23
799.634	226.64
799.814	316.75
799.994	202.07
800.174	263.51
800.354	234.83
800.534	191.83
800.714	320.85
800.894	318.8
801.074	247.12
801.254	189.78
801.434	345.42
801.614	267.6
801.794	206.16
801.974	808.26
802.154	152.92
802.334	255.31
802.514	165.2
802.693	259.41
802.873	265.55
803.053	316.75
803.233	263.51
803.413	171.35
803.592	214.35
803.772	283.99
803.952	265.55
804.131	212.31
804.311	159.06
804.491	349.52
804.67	290.13
804.85	206.16
805.03	220.5
805.209	187.73
805.389	195.92
805.568	120.15
805.748	216.4
805.928	245.07
806.107	208.21
806.287	275.79
806.466	181.59
806.646	220.5
806.825	181.59
807.004	214.35
807.184	238.93
807.363	255.31
807.543	173.39
807.722	120.15
807.901	210.26
808.081	191.83
808.26	75.09
808.439	185.68
808.619	126.29
808.798	185.68
808.977	58.71
809.156	218.45
809.336	214.35
809.515	253.27
809.694	126.29
809.873	195.92
810.052	130.39
810.231	183.63
810.411	144.72
810.59	210.26
810.769	130.39
810.948	220.5
811.127	83.28
811.306	114
811.485	210.26
811.664	179.54
811.843	183.63
812.022	136.53
812.201	161.11
812.38	175.44
812.559	120.15
812.737	144.72
812.916	124.24
813.095	185.68
813.274	138.58
813.453	128.34
813.632	148.82
813.811	222.55
813.989	114
814.168	159.06
814.347	132.44
814.526	71
814.704	238.93
814.883	267.6
815.062	128.34
815.24	210.26
815.419	132.44
815.598	214.35
815.776	120.15
815.955	187.73
816.133	118.1
816.312	130.39
816.49	152.92
816.669	140.63
816.847	171.35
817.026	105.81
817.204	140.63
817.383	99.67
817.561	64.85
817.74	206.16
817.918	91.48
818.097	142.68
818.275	128.34
818.453	140.63
818.632	126.29
818.81	152.92
818.988	23.89
819.167	81.24
819.345	140.63
819.523	157.01
819.701	138.58
819.879	142.68
820.058	95.57
820.236	150.87
820.414	126.29
820.592	95.57
820.77	230.74
820.948	187.73
821.127	64.85
821.305	169.3
821.483	46.42
821.661	148.82
821.839	79.19
822.017	136.53
822.195	66.9
822.373	95.57
822.551	50.52
822.729	79.19
822.907	103.76
823.085	38.23
823.262	118.1
823.44	163.15
823.618	87.38
823.796	111.96
823.974	87.38
824.152	71
824.329	116.05
824.507	124.24
824.685	161.11
824.863	146.77
825.04	116.05
825.218	120.15
825.396	62.8
825.574	83.28
825.751	128.34
825.929	154.96
826.107	77.14
826.284	105.81
826.462	130.39
826.639	15.7
826.817	105.81
826.994	42.32
827.172	77.14
827.349	210.26
827.527	95.57
827.704	64.85
827.882	116.05
828.059	122.2
828.237	105.81
828.414	128.34
828.591	38.23
828.769	140.63
828.946	42.32
829.124	116.05
829.301	103.76
829.478	97.62
829.655	71
829.833	73.04
830.01	60.76
830.187	107.86
830.364	83.28
830.542	140.63
830.719	109.91
830.896	103.76
831.073	46.42
831.25	120.15
831.427	114
831.604	54.61
831.782	73.04
831.959	144.72
832.136	62.8
832.313	60.76
832.49	48.47
832.667	79.19
832.844	116.05
833.021	91.48
833.198	83.28
833.374	97.62
833.551	71
833.728	122.2
833.905	99.67
834.082	152.92
834.259	97.62
834.436	62.8
834.612	54.61
834.789	144.72
834.966	9.56
835.143	124.24
835.319	-51.88
835.496	73.04
835.673	62.8
835.85	95.57
836.026	132.44
836.203	101.72
836.38	132.44
836.556	60.76
836.733	46.42
836.909	124.24
837.086	48.47
837.262	42.32
837.439	3.41
837.616	50.52
837.792	105.81
837.968	152.92
838.145	87.38
838.321	71
838.498	132.44
838.674	58.71
838.851	79.19
839.027	34.13
839.203	62.8
839.38	79.19
839.556	-6.83
839.732	126.29
839.909	73.04
840.085	140.63
840.261	79.19
840.437	81.24
840.614	87.38
840.79	38.23
840.966	126.29
841.142	30.04
841.318	3.41
841.494	54.61
841.671	134.48
841.847	62.8
842.023	79.19
842.199	138.58
842.375	99.67
842.551	-8.87
842.727	75.09
842.903	62.8
843.079	52.56
843.255	105.81
843.431	87.38
843.607	71
843.783	48.47
843.959	144.72
844.134	5.46
844.31	85.33
844.486	30.04
844.662	66.9
844.838	-41.64
845.013	42.32
845.189	64.85
845.365	68.95
845.541	25.94
845.716	46.42
845.892	120.15
846.068	25.94
846.244	9.56
846.419	99.67
846.595	5.46
846.77	42.32
846.946	62.8
847.122	140.63
847.297	5.46
847.473	111.96
847.648	46.42
847.824	97.62
847.999	13.65
848.175	-10.92
848.35	38.23
848.526	165.2
848.701	38.23
848.876	21.85
849.052	122.2
849.227	81.24
849.403	64.85
849.578	120.15
849.753	81.24
849.929	46.42
850.104	103.76
850.279	124.24
850.454	32.08
850.63	79.19
850.805	66.9
850.98	52.56
851.155	105.81
851.33	38.23
851.505	17.75
851.681	81.24
851.856	40.28
852.031	99.67
852.206	27.99
852.381	-21.16
852.556	15.7
852.731	124.24
852.906	52.56
853.081	95.57
853.256	13.65
853.431	7.51
853.606	1.37
853.781	48.47
853.956	7.51
854.131	7.51
854.305	30.04
854.48	99.67
854.655	89.43
854.83	1.37
855.005	-17.07
855.18	-12.97
855.354	30.04
855.529	114
855.704	71
855.879	71
856.053	30.04
856.228	46.42
856.403	32.08
856.577	52.56
856.752	46.42
856.926	13.65
857.101	-15.02
857.276	40.28
857.45	62.8
857.625	97.62
857.799	87.38
857.974	32.08
858.148	-8.87
858.323	54.61
858.497	95.57
858.672	-6.83
858.846	-4.78
859.02	46.42
859.195	-25.26
859.369	-10.92
859.543	42.32
859.718	13.65
859.892	34.13
860.066	99.67
860.241	21.85
860.415	99.67
860.589	71
860.763	46.42
860.938	73.04
861.112	21.85
861.286	13.65
861.46	-2.73
861.634	5.46
861.808	81.24
861.982	21.85
862.157	-2.73
862.331	-51.88
862.505	17.75
862.679	42.32
862.853	120.15
863.027	40.28
863.201	13.65
863.375	30.04
863.549	81.24
863.722	15.7
863.896	15.7
864.07	38.23
864.244	-10.92
864.418	-23.21
864.592	30.04
864.766	-8.87
864.939	-2.73
865.113	75.09
865.287	130.39
865.461	77.14
865.634	-0.68
865.808	-15.02
865.982	-4.78
866.156	38.23
866.329	42.32
866.503	5.46
866.676	13.65
866.85	54.61
867.024	5.46
867.197	89.43
867.371	54.61
867.544	95.57
867.718	62.8
867.891	-33.45
868.065	-10.92
868.238	-2.73
868.412	-0.68
868.585	95.57
868.759	-17.07
868.932	19.8
869.105	9.56
869.279	77.14
869.452	91.48
869.625	87.38
869.799	-2.73
869.972	-47.79
870.145	30.04
870.319	83.28
870.492	40.28
870.665	50.52
870.838	66.9
871.011	-0.68
871.185	48.47
871.358	50.52
871.531	114
871.704	38.23
871.877	30.04
872.05	62.8
872.223	9.56
872.396	52.56
872.569	32.08
872.742	-23.21
872.915	71
873.088	9.56
873.261	73.04
873.434	13.65
873.607	-27.31
873.78	109.91
873.953	71
874.126	-15.02
874.299	50.52
874.471	48.47
874.644	7.51
874.817	13.65
874.99	58.71
875.163	89.43
875.335	21.85
875.508	62.8
875.681	114
875.853	23.89
876.026	38.23
876.199	81.24
876.371	54.61
876.544	5.46
876.717	97.62
876.889	42.32
877.062	64.85
877.234	71
877.407	54.61
877.579	34.13
877.752	38.23
877.924	62.8
878.097	56.66
878.269	38.23
878.442	50.52
878.614	44.37
878.786	58.71
878.959	116.05
879.131	9.56
879.303	-47.79
879.476	79.19
879.648	66.9
879.82	17.75
879.993	95.57
880.165	-10.92
880.337	-2.73
880.509	56.66
880.681	17.75
880.854	21.85
881.026	79.19
881.198	114
881.37	-21.16
881.542	62.8
881.714	58.71
881.886	11.61
882.058	56.66
882.23	25.94
882.402	54.61
882.574	11.61
882.746	-17.07
882.918	103.76
883.09	5.46
883.262	42.32
883.434	-15.02
883.606	9.56
883.778	-35.5
883.95	128.34
884.122	30.04
884.293	19.8
884.465	87.38
884.637	73.04
884.809	11.61
884.98	19.8
885.152	75.09
885.324	87.38
885.496	-19.11
885.667	-4.78
885.839	46.42
886.011	21.85
886.182	27.99
886.354	30.04
886.525	38.23
886.697	95.57
886.869	5.46
887.04	9.56
887.212	-2.73
887.383	64.85
887.555	-17.07
887.726	-10.92
887.897	44.37
888.069	-0.68
888.24	13.65
888.412	3.41
888.583	-10.92
888.754	-6.83
888.926	13.65
889.097	71
889.268	-12.97
889.44	42.32
889.611	-0.68
889.782	66.9
889.953	15.7
890.125	13.65
890.296	52.56
890.467	-19.11
890.638	-17.07
890.809	52.56
890.98	-0.68
891.151	50.52
891.323	40.28
891.494	42.32
891.665	15.7
891.836	-43.69
892.007	-6.83
892.178	21.85
892.349	-4.78
892.52	-10.92
892.691	21.85
892.862	15.7
893.032	-4.78
893.203	66.9
893.374	62.8
893.545	54.61
893.716	32.08
893.887	5.46
894.057	-6.83
894.228	81.24
894.399	34.13
894.57	122.2
894.74	-23.21
894.911	124.24
895.082	5.46
895.253	17.75
895.423	73.04
895.594	75.09
895.764	-0.68
895.935	-27.31
896.106	54.61
896.276	50.52
896.447	54.61
896.617	-17.07
896.788	-21.16
896.958	23.89
897.129	85.33
897.299	15.7
897.47	-4.78
897.64	103.76
897.81	38.23
897.981	7.51
898.151	-19.11
898.322	87.38
898.492	-41.64
898.662	66.9
898.832	50.52
899.003	30.04
899.173	34.13
899.343	15.7
899.513	21.85
