Data from USB4F104151__159__14-44-41-838.txt Node

Date: Thu Mar 13 14:44:41 EDT 2025
User: louis
Spectrometer: USB4F10415
Trigger mode: 4
Integration Time (sec): 2.000000E-2
Scans to average: 1
Electric dark correction enabled: true
Nonlinearity correction enabled: false
Boxcar width: 0
XAxis mode: Wavelengths
Number of Pixels in Spectrum: 3648
>>>>>Begin Spectral Data<<<<<
178.204	-84.31
178.424	-84.31
178.644	-84.31
178.864	-125.27
179.084	-69.97
179.304	-20.82
179.524	-10.58
179.744	-45.4
179.964	63.15
180.184	42.67
180.404	20.14
180.624	-6.49
180.844	1.71
181.064	-10.58
181.283	-4.44
181.503	-10.58
181.723	-18.77
181.943	-90.45
182.163	57
182.383	-76.12
182.602	7.85
182.822	30.38
183.042	7.85
183.262	38.57
183.482	40.62
183.701	-94.55
183.921	-45.4
184.141	3.75
184.361	-0.34
184.58	28.33
184.8	28.33
185.02	-26.96
185.239	59.05
185.459	7.85
185.679	-4.44
185.898	-49.49
186.118	44.71
186.338	40.62
186.557	28.33
186.777	13.99
186.997	-0.34
187.216	-16.73
187.436	52.91
187.655	-49.49
187.875	36.52
188.095	-12.63
188.314	7.85
188.534	18.09
188.753	-76.12
188.973	57
189.192	52.91
189.412	-53.59
189.631	-4.44
189.851	-45.4
190.07	110.25
190.29	-57.68
190.509	-45.4
190.729	-26.96
190.948	28.33
191.168	79.53
191.387	-57.68
191.607	-61.78
191.826	-12.63
192.045	57
192.265	13.99
192.484	-26.96
192.704	-16.73
192.923	-45.4
193.142	36.52
193.362	-49.49
193.581	22.19
193.8	-12.63
194.02	-0.34
194.239	-65.88
194.458	32.43
194.678	30.38
194.897	16.04
195.116	-16.73
195.335	38.57
195.555	38.57
195.774	1.71
195.993	36.52
196.212	11.95
196.432	22.19
196.651	-63.83
196.87	-59.73
197.089	16.04
197.308	61.1
197.528	57
197.747	36.52
197.966	13.99
198.185	61.1
198.404	63.15
198.623	16.04
198.842	16.04
199.062	52.91
199.281	28.33
199.5	11.95
199.719	5.8
199.938	48.81
200.157	32.43
200.376	-0.34
200.595	63.15
200.814	-26.96
201.033	-26.96
201.252	52.91
201.471	24.23
201.69	42.67
201.909	-20.82
202.128	57
202.347	18.09
202.566	-12.63
202.785	-33.11
203.004	-31.06
203.223	11.95
203.442	20.14
203.661	-18.77
203.879	-61.78
204.098	11.95
204.317	-57.68
204.536	40.62
204.755	73.39
204.974	-12.63
205.193	11.95
205.411	54.95
205.63	-12.63
205.849	69.29
206.068	-35.16
206.287	18.09
206.505	89.77
206.724	-45.4
206.943	50.86
207.162	-33.11
207.381	11.95
207.599	-29.01
207.818	18.09
208.037	-4.44
208.255	-37.2
208.474	65.19
208.693	9.9
208.911	3.75
209.13	-24.92
209.349	32.43
209.567	-2.39
209.786	7.85
210.005	61.1
210.223	-29.01
210.442	5.8
210.661	24.23
210.879	-4.44
211.098	-16.73
211.316	3.75
211.535	38.57
211.753	34.47
211.972	-4.44
212.191	5.8
212.409	24.23
212.628	-8.53
212.846	28.33
213.065	46.76
213.283	85.67
213.502	7.85
213.72	11.95
213.938	-6.49
214.157	-24.92
214.375	1.71
214.594	-53.59
214.812	24.23
215.031	81.58
215.249	-8.53
215.467	-12.63
215.686	-39.25
215.904	65.19
216.122	-6.49
216.341	32.43
216.559	-4.44
216.778	28.33
216.996	16.04
217.214	20.14
217.432	-55.64
217.651	28.33
217.869	-53.59
218.087	-2.39
218.306	-80.21
218.524	69.29
218.742	38.57
218.96	81.58
219.179	77.48
219.397	5.8
219.615	32.43
219.833	11.95
220.051	-31.06
220.27	48.81
220.488	3.75
220.706	32.43
220.924	36.52
221.142	-37.2
221.36	24.23
221.578	22.19
221.796	-20.82
222.015	-2.39
222.233	-4.44
222.451	40.62
222.669	-57.68
222.887	48.81
223.105	-18.77
223.323	5.8
223.541	24.23
223.759	3.75
223.977	5.8
224.195	77.48
224.413	-29.01
224.631	-37.2
224.849	-0.34
225.067	77.48
225.285	-67.92
225.503	61.1
225.721	-86.36
225.939	-20.82
226.157	5.8
226.375	77.48
226.592	-22.87
226.81	32.43
227.028	16.04
227.246	69.29
227.464	-31.06
227.682	20.14
227.9	3.75
228.117	-0.34
228.335	54.95
228.553	-2.39
228.771	44.71
228.989	38.57
229.206	-41.3
229.424	9.9
229.642	87.72
229.86	-0.34
230.077	48.81
230.295	3.75
230.513	32.43
230.731	3.75
230.948	63.15
231.166	-4.44
231.384	-63.83
231.601	-59.73
231.819	22.19
232.037	81.58
232.254	11.95
232.472	5.8
232.689	9.9
232.907	26.28
233.125	-51.54
233.342	73.39
233.56	-35.16
233.777	-2.39
233.995	57
234.213	36.52
234.43	40.62
234.648	-26.96
234.865	20.14
235.083	5.8
235.3	20.14
235.518	77.48
235.735	20.14
235.953	-37.2
236.17	-4.44
236.388	87.72
236.605	9.9
236.822	46.76
237.04	48.81
237.257	61.1
237.475	-6.49
237.692	-26.96
237.909	-16.73
238.127	-29.01
238.344	28.33
238.562	-12.63
238.779	-29.01
238.996	38.57
239.214	-35.16
239.431	13.99
239.648	77.48
239.865	54.95
240.083	3.75
240.3	59.05
240.517	-49.49
240.735	50.86
240.952	20.14
241.169	-29.01
241.386	46.76
241.603	24.23
241.821	-61.78
242.038	-2.39
242.255	11.95
242.472	-49.49
242.689	13.99
242.907	32.43
243.124	-4.44
243.341	-41.3
243.558	-80.21
243.775	30.38
243.992	-37.2
244.209	79.53
244.426	44.71
244.643	20.14
244.86	20.14
245.078	34.47
245.295	36.52
245.512	26.28
245.729	-47.44
245.946	42.67
246.163	30.38
246.38	-0.34
246.597	52.91
246.814	-16.73
247.031	89.77
247.248	63.15
247.464	-37.2
247.681	-12.63
247.898	-2.39
248.115	11.95
248.332	1.71
248.549	48.81
248.766	69.29
248.983	44.71
249.2	-8.53
249.417	-0.34
249.633	-14.68
249.85	5.8
250.067	-12.63
250.284	-33.11
250.501	52.91
250.717	48.81
250.934	5.8
251.151	38.57
251.368	-29.01
251.585	-16.73
251.801	-0.34
252.018	-26.96
252.235	54.95
252.451	38.57
252.668	57
252.885	16.04
253.102	16.04
253.318	57
253.535	48.81
253.752	20.14
253.968	-14.68
254.185	24.23
254.401	44.71
254.618	5.8
254.835	-12.63
255.051	11.95
255.268	-12.63
255.484	-33.11
255.701	-12.63
255.917	-10.58
256.134	-24.92
256.351	11.95
256.567	13.99
256.784	-14.68
257	-110.93
257.217	71.34
257.433	-14.68
257.65	77.48
257.866	-29.01
258.082	-106.84
258.299	-88.4
258.515	-20.82
258.732	-49.49
258.948	13.99
259.165	-10.58
259.381	16.04
259.597	20.14
259.814	-10.58
260.03	-10.58
260.246	32.43
260.463	7.85
260.679	93.87
260.895	11.95
261.112	16.04
261.328	-10.58
261.544	-31.06
261.761	46.76
261.977	-0.34
262.193	-16.73
262.409	-2.39
262.626	28.33
262.842	40.62
263.058	13.99
263.274	7.85
263.49	61.1
263.707	-6.49
263.923	-45.4
264.139	-26.96
264.355	11.95
264.571	52.91
264.787	38.57
265.004	63.15
265.22	20.14
265.436	-0.34
265.652	-47.44
265.868	69.29
266.084	-43.35
266.3	-20.82
266.516	3.75
266.732	-4.44
266.948	-2.39
267.164	-45.4
267.38	67.24
267.596	11.95
267.812	-37.2
268.028	5.8
268.244	7.85
268.46	-49.49
268.676	48.81
268.892	28.33
269.108	22.19
269.324	40.62
269.54	-45.4
269.756	-14.68
269.972	-65.88
270.188	-61.78
270.403	-18.77
270.619	-35.16
270.835	46.76
271.051	5.8
271.267	50.86
271.483	-10.58
271.698	20.14
271.914	52.91
272.13	61.1
272.346	-0.34
272.562	-14.68
272.777	5.8
272.993	-100.69
273.209	28.33
273.425	48.81
273.64	-33.11
273.856	59.05
274.072	-61.78
274.287	-16.73
274.503	-6.49
274.719	-4.44
274.934	5.8
275.15	-16.73
275.366	-33.11
275.581	-12.63
275.797	3.75
276.012	-29.01
276.228	32.43
276.444	-53.59
276.659	69.29
276.875	-65.88
277.09	22.19
277.306	-35.16
277.521	79.53
277.737	-53.59
277.952	67.24
278.168	-0.34
278.383	9.9
278.599	-2.39
278.814	36.52
279.03	54.95
279.245	50.86
279.461	34.47
279.676	-20.82
279.892	-39.25
280.107	-39.25
280.322	11.95
280.538	-20.82
280.753	-55.64
280.969	34.47
281.184	-4.44
281.399	71.34
281.615	-51.54
281.83	-10.58
282.045	-12.63
282.26	77.48
282.476	7.85
282.691	-16.73
282.906	32.43
283.122	11.95
283.337	-2.39
283.552	26.28
283.767	-29.01
283.983	54.95
284.198	-20.82
284.413	7.85
284.628	-137.56
284.843	-29.01
285.058	-14.68
285.274	-24.92
285.489	-20.82
285.704	-35.16
285.919	83.63
286.134	-45.4
286.349	-12.63
286.564	11.95
286.779	13.99
286.995	3.75
287.21	-43.35
287.425	110.25
287.64	-20.82
287.855	-18.77
288.07	-22.87
288.285	20.14
288.5	-10.58
288.715	20.14
288.93	-16.73
289.145	-45.4
289.36	52.91
289.575	22.19
289.79	95.91
290.004	11.95
290.219	59.05
290.434	13.99
290.649	5.8
290.864	-69.97
291.079	61.1
291.294	36.52
291.509	-53.59
291.724	-24.92
291.938	79.53
292.153	24.23
292.368	24.23
292.583	57
292.798	44.71
293.012	9.9
293.227	-29.01
293.442	28.33
293.657	1.71
293.871	38.57
294.086	32.43
294.301	20.14
294.516	-29.01
294.73	3.75
294.945	69.29
295.16	-4.44
295.374	65.19
295.589	26.28
295.804	-26.96
296.018	-8.53
296.233	61.1
296.447	16.04
296.662	3.75
296.877	67.24
297.091	-0.34
297.306	-2.39
297.52	40.62
297.735	-20.82
297.949	24.23
298.164	-12.63
298.378	-47.44
298.593	-10.58
298.807	30.38
299.022	-8.53
299.236	13.99
299.451	13.99
299.665	-39.25
299.88	-29.01
300.094	-86.36
300.309	16.04
300.523	13.99
300.737	-12.63
300.952	61.1
301.166	73.39
301.381	-41.3
301.595	-43.35
301.809	-43.35
302.024	-8.53
302.238	-24.92
302.452	38.57
302.667	38.57
302.881	79.53
303.095	-53.59
303.309	71.34
303.524	3.75
303.738	36.52
303.952	22.19
304.166	7.85
304.381	-20.82
304.595	36.52
304.809	-4.44
305.023	28.33
305.237	106.15
305.452	-29.01
305.666	-2.39
305.88	46.76
306.094	93.87
306.308	-4.44
306.522	104.11
306.736	30.38
306.95	-6.49
307.164	-8.53
307.379	48.81
307.593	52.91
307.807	61.1
308.021	36.52
308.235	36.52
308.449	-10.58
308.663	-26.96
308.877	32.43
309.091	-29.01
309.305	28.33
309.519	-24.92
309.733	65.19
309.947	-16.73
310.161	85.67
310.374	32.43
310.588	-16.73
310.802	-84.31
311.016	52.91
311.23	30.38
311.444	42.67
311.658	-12.63
311.872	5.8
312.085	18.09
312.299	69.29
312.513	63.15
312.727	-12.63
312.941	-2.39
313.154	-35.16
313.368	52.91
313.582	-2.39
313.796	-61.78
314.009	93.87
314.223	61.1
314.437	22.19
314.651	38.57
314.864	48.81
315.078	-2.39
315.292	-24.92
315.505	-14.68
315.719	-37.2
315.933	5.8
316.146	-37.2
316.36	-8.53
316.573	93.87
316.787	-20.82
317.001	52.91
317.214	-35.16
317.428	22.19
317.641	93.87
317.855	-45.4
318.068	24.23
318.282	-29.01
318.495	-26.96
318.709	-16.73
318.922	-20.82
319.136	71.34
319.349	77.48
319.563	48.81
319.776	32.43
319.99	40.62
320.203	40.62
320.417	110.25
320.63	71.34
320.843	44.71
321.057	32.43
321.27	46.76
321.483	104.11
321.697	-22.87
321.91	3.75
322.124	-39.25
322.337	-20.82
322.55	3.75
322.763	-26.96
322.977	52.91
323.19	16.04
323.403	24.23
323.617	54.95
323.83	36.52
324.043	40.62
324.256	5.8
324.469	-41.3
324.683	52.91
324.896	-65.88
325.109	-14.68
325.322	-0.34
325.535	71.34
325.748	-20.82
325.962	-45.4
326.175	54.95
326.388	-4.44
326.601	-10.58
326.814	48.81
327.027	36.52
327.24	38.57
327.453	-55.64
327.666	44.71
327.879	61.1
328.092	-29.01
328.305	-16.73
328.518	11.95
328.731	-49.49
328.944	11.95
329.157	5.8
329.37	-53.59
329.583	104.11
329.796	79.53
330.009	-59.73
330.222	104.11
330.435	-8.53
330.648	-45.4
330.861	48.81
331.073	28.33
331.286	83.63
331.499	44.71
331.712	-82.26
331.925	71.34
332.138	-57.68
332.35	61.1
332.563	-43.35
332.776	3.75
332.989	-10.58
333.202	-20.82
333.414	20.14
333.627	-20.82
333.84	20.14
334.053	65.19
334.265	52.91
334.478	22.19
334.691	-18.77
334.903	77.48
335.116	-37.2
335.329	13.99
335.541	52.91
335.754	71.34
335.966	11.95
336.179	22.19
336.392	-16.73
336.604	-6.49
336.817	18.09
337.029	-20.82
337.242	11.95
337.454	116.39
337.667	-20.82
337.88	97.96
338.092	-10.58
338.305	-8.53
338.517	52.91
338.729	24.23
338.942	28.33
339.154	-24.92
339.367	-69.97
339.579	22.19
339.792	16.04
340.004	-4.44
340.217	-16.73
340.429	-82.26
340.641	-76.12
340.854	28.33
341.066	89.77
341.278	32.43
341.491	-22.87
341.703	-4.44
341.915	3.75
342.128	102.06
342.34	-20.82
342.552	32.43
342.764	9.9
342.977	-61.78
343.189	-31.06
343.401	9.9
343.613	-78.16
343.826	1.71
344.038	-37.2
344.25	151.21
344.462	-51.54
344.674	-12.63
344.886	-59.73
345.099	16.04
345.311	11.95
345.523	-8.53
345.735	-12.63
345.947	1.71
346.159	63.15
346.371	71.34
346.583	30.38
346.795	36.52
347.007	50.86
347.219	-4.44
347.431	40.62
347.643	9.9
347.855	18.09
348.067	63.15
348.279	11.95
348.491	38.57
348.703	59.05
348.915	-2.39
349.127	-20.82
349.339	3.75
349.551	44.71
349.763	5.8
349.975	63.15
350.187	44.71
350.399	52.91
350.61	63.15
350.822	22.19
351.034	3.75
351.246	20.14
351.458	11.95
351.669	-43.35
351.881	-0.34
352.093	13.99
352.305	104.11
352.517	77.48
352.728	28.33
352.94	3.75
353.152	61.1
353.363	-53.59
353.575	44.71
353.787	73.39
353.999	13.99
354.21	52.91
354.422	-43.35
354.633	-6.49
354.845	16.04
355.057	54.95
355.268	9.9
355.48	16.04
355.692	-35.16
355.903	5.8
356.115	5.8
356.326	-31.06
356.538	71.34
356.749	16.04
356.961	52.91
357.172	-63.83
357.384	5.8
357.595	73.39
357.807	22.19
358.018	-41.3
358.23	-20.82
358.441	28.33
358.653	32.43
358.864	-20.82
359.075	-45.4
359.287	20.14
359.498	69.29
359.709	50.86
359.921	65.19
360.132	-0.34
360.344	28.33
360.555	7.85
360.766	52.91
360.977	-37.2
361.189	-16.73
361.4	5.8
361.611	38.57
361.823	1.71
362.034	85.67
362.245	-37.2
362.456	22.19
362.667	-33.11
362.879	-10.58
363.09	-12.63
363.301	-41.3
363.512	28.33
363.723	57
363.935	-90.45
364.146	73.39
364.357	-49.49
364.568	11.95
364.779	-10.58
364.99	46.76
365.201	13.99
365.412	20.14
365.623	-61.78
365.834	77.48
366.045	-18.77
366.256	59.05
366.467	-20.82
366.678	-8.53
366.889	-43.35
367.1	5.8
367.311	97.96
367.522	-4.44
367.733	-26.96
367.944	36.52
368.155	-4.44
368.366	44.71
368.577	63.15
368.788	3.75
368.999	11.95
369.209	61.1
369.42	93.87
369.631	93.87
369.842	30.38
370.053	-26.96
370.264	85.67
370.474	22.19
370.685	28.33
370.896	61.1
371.107	48.81
371.317	97.96
371.528	54.95
371.739	52.91
371.95	38.57
372.16	-20.82
372.371	-18.77
372.582	9.9
372.792	28.33
373.003	54.95
373.214	87.72
373.424	44.71
373.635	-20.82
373.846	71.34
374.056	5.8
374.267	54.95
374.477	65.19
374.688	24.23
374.898	77.48
375.109	-10.58
375.319	-29.01
375.53	63.15
375.74	61.1
375.951	54.95
376.161	7.85
376.372	7.85
376.582	-12.63
376.793	28.33
377.003	-39.25
377.214	-35.16
377.424	20.14
377.635	48.81
377.845	54.95
378.055	69.29
378.266	54.95
378.476	38.57
378.686	97.96
378.897	-4.44
379.107	77.48
379.317	28.33
379.528	-65.88
379.738	-4.44
379.948	-2.39
380.158	85.67
380.369	67.24
380.579	-31.06
380.789	46.76
380.999	24.23
381.21	54.95
381.42	44.71
381.63	-0.34
381.84	-10.58
382.05	7.85
382.261	24.23
382.471	63.15
382.681	24.23
382.891	24.23
383.101	-12.63
383.311	-12.63
383.521	32.43
383.731	-59.73
383.941	32.43
384.151	50.86
384.361	28.33
384.571	89.77
384.781	32.43
384.991	28.33
385.201	102.06
385.411	59.05
385.621	3.75
385.831	-6.49
386.041	32.43
386.251	13.99
386.461	108.2
386.671	16.04
386.881	1.71
387.091	-20.82
387.301	61.1
387.511	13.99
387.72	71.34
387.93	63.15
388.14	-10.58
388.35	-35.16
388.56	85.67
388.769	-14.68
388.979	77.48
389.189	11.95
389.399	65.19
389.609	20.14
389.818	104.11
390.028	7.85
390.238	89.77
390.447	3.75
390.657	54.95
390.867	28.33
391.076	16.04
391.286	13.99
391.496	42.67
391.705	9.9
391.915	-0.34
392.125	-12.63
392.334	52.91
392.544	28.33
392.753	28.33
392.963	73.39
393.172	38.57
393.382	65.19
393.591	73.39
393.801	-12.63
394.01	42.67
394.22	36.52
394.429	52.91
394.639	114.34
394.848	5.8
395.058	87.72
395.267	71.34
395.477	52.91
395.686	-69.97
395.895	149.16
396.105	77.48
396.314	52.91
396.524	44.71
396.733	30.38
396.942	138.92
397.152	24.23
397.361	93.87
397.57	67.24
397.78	11.95
397.989	87.72
398.198	65.19
398.407	28.33
398.617	65.19
398.826	87.72
399.035	28.33
399.244	95.91
399.453	13.99
399.663	-2.39
399.872	97.96
400.081	-0.34
400.29	52.91
400.499	-12.63
400.708	77.48
400.917	24.23
401.127	63.15
401.336	61.1
401.545	147.11
401.754	73.39
401.963	149.16
402.172	48.81
402.381	114.34
402.59	122.54
402.799	100.01
403.008	79.53
403.217	110.25
403.426	61.1
403.635	118.44
403.844	44.71
404.053	73.39
404.262	108.2
404.471	153.26
404.68	110.25
404.888	63.15
405.097	100.01
405.306	136.87
405.515	106.15
405.724	153.26
405.933	132.78
406.142	159.4
406.35	122.54
406.559	134.82
406.768	157.35
406.977	130.73
407.185	83.63
407.394	143.02
407.603	77.48
407.812	163.5
408.02	196.26
408.229	175.78
408.438	196.26
408.646	179.88
408.855	134.82
409.064	261.8
409.272	147.11
409.481	198.31
409.69	202.41
409.898	210.6
410.107	186.02
410.315	235.18
410.524	204.46
410.733	276.13
410.941	235.18
411.15	274.09
411.358	321.19
411.567	374.44
411.775	315.05
411.984	280.23
412.192	292.52
412.401	282.28
412.609	409.25
412.818	388.77
413.026	315.05
413.234	364.2
413.443	321.19
413.651	405.16
413.86	386.72
414.068	489.12
414.276	503.46
414.485	435.88
414.693	458.4
414.901	511.65
415.11	507.55
415.318	439.97
415.526	509.6
415.734	614.05
415.943	556.71
416.151	718.5
416.359	642.72
416.567	652.96
416.776	693.92
416.984	736.93
417.192	839.33
417.4	661.15
417.608	695.97
417.817	775.84
418.025	911
418.233	908.96
418.441	845.47
418.649	900.76
418.857	1009.31
419.065	1023.64
419.273	964.25
419.481	1009.31
419.689	1097.37
419.897	1044.12
420.105	1152.67
420.313	1169.05
420.521	1226.39
420.729	1265.3
420.937	1339.03
421.145	1248.92
421.353	1361.56
421.561	1504.92
421.769	1474.2
421.977	1543.83
422.185	1445.52
422.393	1660.56
422.601	1742.48
422.809	1752.72
423.017	1724.05
423.224	1896.08
423.432	1887.89
423.64	1865.36
423.848	2039.44
424.056	2008.72
424.263	2051.72
424.471	2088.59
424.679	2256.52
424.887	2256.52
425.094	2399.88
425.302	2510.47
425.51	2430.6
425.718	2619.01
425.925	2559.62
426.133	2735.74
426.341	2848.38
426.548	2952.83
426.756	3038.84
426.964	3069.56
427.171	3110.52
427.379	3255.93
427.586	3348.09
427.794	3411.57
428.001	3606.13
428.209	3612.28
428.417	3747.44
428.624	3929.71
428.832	4066.92
429.039	3886.7
429.247	3845.74
429.454	4294.25
429.662	4456.04
429.869	4290.15
430.076	4550.25
430.284	4474.47
430.491	4726.37
430.699	4939.36
430.906	4787.81
431.114	4935.26
431.321	5174.88
431.528	5238.36
431.736	5516.89
431.943	5758.55
432.15	5602.9
432.358	5705.3
432.565	6008.4
432.772	6004.3
432.979	6114.89
433.187	6360.65
433.394	6452.81
433.601	6854.21
433.808	6680.13
434.016	6952.51
434.223	7149.12
434.43	7499.32
434.637	7253.56
434.844	8005.17
435.052	7855.67
435.259	7966.26
435.466	7939.63
435.673	7921.2
435.88	8498.73
436.087	8795.68
436.294	8859.17
436.501	8781.35
436.708	9053.73
436.915	9397.79
437.122	9657.88
437.329	9432.6
437.537	9868.82
437.743	9877.01
437.95	9801.24
438.157	10477.07
438.364	10743.3
438.571	10835.46
438.778	10776.07
438.985	11822.58
439.192	11406.84
439.399	11810.29
439.606	11488.76
439.813	11914.74
440.02	12797.42
440.227	12668.39
440.433	12285.42
440.64	13004.26
440.847	12703.21
441.054	13043.17
441.261	13946.33
441.467	13897.17
441.674	14159.31
441.881	14587.34
442.088	14550.48
442.294	14267.86
442.501	14675.4
442.708	15037.89
442.914	15570.37
443.121	16311.73
443.328	16053.69
443.534	16860.59
443.741	16475.57
443.948	16061.88
444.154	17307.04
444.361	17425.82
444.568	17415.58
444.774	17702.3
444.981	17685.92
445.187	18296.21
445.394	18603.41
445.6	18853.26
445.807	20510.07
446.013	19568
446.22	19826.04
446.426	20860.27
446.633	21095.78
446.839	21716.32
447.046	20415.86
447.252	22048.09
447.459	21984.6
447.665	21812.57
447.871	22877.52
448.078	23645.51
448.284	22793.55
448.491	23057.74
448.697	23997.76
448.903	24728.88
449.11	24692.02
449.316	24030.52
449.522	24886.57
449.728	25281.83
449.935	25857.31
450.141	25539.88
450.347	26135.84
450.553	25539.88
450.76	25822.5
450.966	26682.64
451.172	26565.91
451.378	26993.93
451.584	26406.17
451.791	26815.76
451.997	27047.18
452.203	27297.03
452.409	27391.24
452.615	27401.48
452.821	26144.03
453.027	25926.94
453.233	27534.6
453.44	26647.83
453.646	26586.39
453.852	26979.6
454.058	27059.47
454.264	26285.34
454.47	27151.63
454.676	26527
454.882	27114.76
455.088	25015.6
455.294	25417
455.5	25705.76
455.705	26086.68
455.911	24816.94
456.117	24618.29
456.323	24110.39
456.529	23211.34
456.735	23924.03
456.941	23512.39
457.147	23106.89
457.352	22488.4
457.558	21955.93
457.764	22414.68
457.97	21523.81
458.176	21224.81
458.381	21519.71
458.587	20135.29
458.793	20278.65
458.999	19129.73
459.204	20573.55
459.41	20032.89
459.616	18720.14
459.821	18783.63
460.027	18619.79
460.233	18529.68
460.438	17358.24
460.644	17530.27
460.85	16655.79
461.055	16420.27
461.261	16528.81
461.466	15334.85
461.672	14775.75
461.878	15664.57
462.083	14900.68
462.289	14388.69
462.494	14267.86
462.7	13856.22
462.905	13524.44
463.111	13737.43
463.316	13776.34
463.522	13592.03
463.727	13612.51
463.932	13549.02
464.138	13280.74
464.343	13479.39
464.549	12963.3
464.754	13536.73
464.959	13409.76
465.165	13213.15
465.37	12766.7
465.575	12482.03
465.781	12824.04
465.986	13084.13
466.191	12375.53
466.397	12334.57
466.602	11711.99
466.807	12086.77
467.012	11918.84
467.218	12047.86
467.423	11912.69
467.628	11937.27
467.833	12439.02
468.038	12021.24
468.244	11593.21
468.449	12152.31
468.654	11800.05
468.859	11480.57
469.064	11490.81
469.269	11046.4
469.474	11070.98
469.679	11392.51
469.885	11075.07
470.09	11544.06
470.295	11353.6
470.5	10786.31
470.705	11140.61
470.91	10731.01
471.115	10716.68
471.32	10976.77
471.525	10763.78
471.73	10505.74
471.935	10368.52
472.139	10006.03
472.344	10186.26
472.549	10288.65
472.754	9989.65
472.959	9733.65
473.164	9657.88
473.369	9647.64
473.574	9934.36
473.778	9704.98
473.983	9547.29
474.188	9565.72
474.393	9111.07
474.598	9082.4
474.802	9326.11
475.007	9207.33
475.212	8965.67
475.417	8746.53
475.621	8945.19
475.826	8830.5
476.031	8605.22
476.235	8543.78
476.44	8508.97
476.645	8404.52
476.849	8486.44
477.054	8261.16
477.259	7958.07
477.463	8130.09
477.668	8060.46
477.872	8123.95
478.077	7990.83
478.282	7786.04
478.486	7673.4
478.691	7691.83
478.895	7609.91
479.1	7614.01
479.304	7587.38
479.509	7614.01
479.713	7472.7
479.918	7435.83
480.122	7065.15
480.326	7495.22
480.531	7343.67
480.735	7190.08
480.94	7171.65
481.144	7540.28
481.348	7114.3
481.553	7296.57
481.757	6846.02
481.961	7016
482.166	7294.52
482.37	7079.49
482.574	7018.05
482.778	6960.7
482.983	7016
483.187	7104.06
483.391	7073.34
483.595	7097.92
483.8	6852.16
484.004	7063.1
484.208	7102.01
484.412	6995.52
484.616	7179.84
484.821	6993.47
485.025	6876.74
485.229	6950.46
485.433	6993.47
485.637	7003.71
485.841	7106.11
486.045	7022.14
486.249	6958.66
486.453	6977.09
486.657	6874.69
486.861	7016
487.065	6835.78
487.269	6827.59
487.473	6753.86
487.677	6897.22
487.881	7212.6
488.085	7032.38
488.289	7179.84
488.493	7067.2
488.697	7110.21
488.901	7208.51
489.105	6970.94
489.309	7122.49
489.512	7265.85
489.716	7056.96
489.92	7106.11
490.124	7050.82
490.328	7245.37
490.531	7083.58
490.735	7104.06
490.939	7142.97
491.143	7274.04
491.346	7269.95
491.55	7355.96
491.754	7462.46
491.958	7265.85
492.161	7329.34
492.365	7476.79
492.569	7315
492.772	7435.83
492.976	7450.17
493.18	7499.32
493.383	7476.79
493.587	7659.06
493.79	7626.29
493.994	7630.39
494.197	7384.63
494.401	7747.12
494.605	7851.57
494.808	7800.37
495.012	7829.04
495.215	7927.35
495.419	8005.17
495.622	8164.91
495.825	8011.31
496.029	7990.83
496.232	8197.68
496.436	8107.57
496.639	8500.78
496.843	8515.11
497.046	8644.13
497.249	8713.77
497.453	8844.84
497.656	8785.44
497.859	8588.84
498.063	8865.32
498.266	9299.48
498.469	8980
498.673	8963.62
498.876	9227.81
499.079	9508.38
499.282	9315.87
499.485	9412.12
499.689	9510.43
499.892	9717.27
500.095	9817.62
500.298	10096.14
500.501	9969.17
500.705	10034.71
500.908	10468.87
501.111	10411.53
501.314	10399.24
501.517	10622.47
501.72	10663.43
501.923	10612.23
502.126	10968.58
502.329	11070.98
502.532	11165.18
502.735	11480.57
502.938	11771.38
503.141	11482.62
503.344	11628.03
503.547	11654.65
503.75	11871.73
503.953	11943.41
504.156	12250.61
504.359	12195.31
504.562	12266.99
504.765	12727.78
504.968	12811.75
505.17	12840.42
505.373	12758.5
505.576	13125.09
505.779	13270.5
505.982	13454.81
506.185	13606.36
506.387	13710.81
506.59	13645.27
506.793	14169.55
506.996	14022.1
507.198	14337.49
507.401	14239.19
507.604	14460.37
507.807	14724.55
508.009	15017.41
508.212	14980.55
508.415	15193.54
508.617	15248.83
508.82	15330.75
509.022	15310.27
509.225	16010.68
509.428	16086.45
509.63	16055.73
509.833	16233.91
510.035	16504.24
510.238	16711.08
510.44	16575.92
510.643	16956.84
510.845	17073.57
511.048	16999.85
511.25	17190.31
511.453	17481.12
511.655	18144.66
511.858	17788.32
512.06	18060.7
512.262	18138.52
512.465	18066.84
512.667	18781.58
512.87	18810.25
513.072	18691.47
513.274	19170.69
513.477	19271.04
513.679	19404.16
513.881	19598.72
514.084	20063.61
514.286	19973.5
514.488	19850.62
514.69	20532.59
514.893	20712.81
515.095	20608.37
515.297	20934
515.499	21040.49
515.701	21626.21
515.904	21519.71
516.106	21767.52
516.308	22003.03
516.51	22463.83
516.712	22140.25
516.914	22461.78
517.116	22861.13
517.318	23074.12
517.52	22965.58
517.722	23020.88
517.925	23336.26
518.127	23934.27
518.329	24110.39
518.531	23950.65
518.733	24165.69
518.935	24431.93
519.136	24599.86
519.338	24958.25
519.54	25189.67
519.742	25115.95
519.944	25427.24
520.146	26070.3
520.348	26387.74
520.55	26336.54
520.752	26070.3
520.954	26782.99
521.155	26629.4
521.357	27108.62
521.559	27208.97
521.761	27401.48
521.963	27448.58
522.164	27774.21
522.366	28081.41
522.568	27956.48
522.77	28560.63
522.971	28577.01
523.173	28415.23
523.375	29123.82
523.576	28685.56
523.778	29279.47
523.98	29435.11
524.181	29580.52
524.383	29500.65
524.584	30149.85
524.786	30188.77
524.988	30057.7
525.189	30401.75
525.391	30565.59
525.592	30842.07
525.794	30680.28
525.995	30971.09
526.197	30801.11
526.398	30907.6
526.6	31104.21
526.801	31407.31
527.003	31399.12
527.204	31456.46
527.406	31921.35
527.607	31657.16
527.808	32074.95
528.01	31861.96
528.211	31722.69
528.412	32691.38
528.614	32322.75
528.815	32576.7
529.016	32945.33
529.218	32402.62
529.419	32382.14
529.62	32910.52
529.822	32535.74
530.023	33010.87
530.224	32949.43
530.425	32826.55
530.626	32738.49
530.828	32720.06
531.029	33313.97
531.23	33141.94
531.431	33338.54
531.632	33662.12
531.833	33293.49
532.035	32982.2
532.236	33279.15
532.437	33326.25
532.638	33670.31
532.839	33504.43
533.04	33758.38
533.241	33385.65
533.442	34028.71
533.643	33717.42
533.844	33758.38
534.045	33637.55
534.246	33629.35
534.447	33707.18
534.648	33408.17
534.849	34030.76
535.05	33424.56
535.251	33524.91
535.451	33543.34
535.652	33963.17
535.853	33907.88
536.054	33698.98
536.255	33866.92
536.456	33641.64
536.657	34137.25
536.857	33481.9
537.058	33416.36
537.259	34016.42
537.46	34327.71
537.66	33778.86
537.861	33723.56
538.062	33655.98
538.263	34346.14
538.463	33514.67
538.664	33752.23
538.865	34079.91
539.065	34266.27
539.266	33590.44
539.466	34006.18
539.667	33590.44
539.868	34462.88
540.068	33766.57
540.269	33582.25
540.469	33942.69
540.67	33717.42
540.87	33615.02
541.071	33830.05
541.271	33739.94
541.472	33189.04
541.672	33686.7
541.873	33537.19
542.073	33193.14
542.274	33971.36
542.474	33615.02
542.675	33592.49
542.875	33901.73
543.075	33533.1
543.276	33662.12
543.476	34028.71
543.676	33711.27
543.877	33619.11
544.077	33893.54
544.277	33727.66
544.478	33539.24
544.678	33805.48
544.878	33653.93
545.078	33600.68
545.279	33348.78
545.479	33469.61
545.679	33617.07
545.879	33735.85
546.079	33698.98
546.28	33330.35
546.48	33279.15
546.68	33438.89
546.88	33594.54
547.08	33393.84
547.28	33600.68
547.48	33309.87
547.68	33531.05
547.88	33205.42
548.081	33563.82
548.281	33621.16
548.481	33217.71
548.681	33905.83
548.881	33666.22
549.081	33549.48
549.28	33103.03
549.48	33547.43
549.68	33408.17
549.88	33987.75
550.08	33236.14
550.28	33412.27
550.48	33336.49
550.68	33819.81
550.88	33385.65
551.08	33162.42
551.279	33342.64
551.479	33168.56
551.679	33240.24
551.879	33014.96
552.079	33432.75
552.278	32953.52
552.478	33195.18
552.678	33246.38
552.878	33520.81
553.077	33412.27
553.277	32988.34
553.477	33512.62
553.676	32812.21
553.876	33045.68
554.076	32959.67
554.275	32898.23
554.475	32636.09
554.674	32881.84
554.874	32969.91
555.074	32754.87
555.273	32744.63
555.473	33399.98
555.672	32912.56
555.872	32507.07
556.071	32822.45
556.271	33225.9
556.47	32548.03
556.67	32468.16
556.869	32566.46
557.068	32466.11
557.268	32476.35
557.467	32480.44
557.667	32769.21
557.866	32441.53
558.065	32447.68
558.265	32505.02
558.464	31876.29
558.663	32433.34
558.863	32115.9
559.062	32519.35
559.261	31943.88
559.461	32615.61
559.66	31620.3
559.859	32242.88
560.058	31415.5
560.258	32097.47
560.457	31507.66
560.656	31966.4
560.855	31610.06
561.054	31630.54
561.253	31497.42
561.453	31737.03
561.652	31593.67
561.851	31532.23
562.05	31462.6
562.249	31089.87
562.448	31366.35
562.647	31120.59
562.846	31235.28
563.045	31292.62
563.244	31083.73
563.443	31087.82
563.642	30713.05
563.841	31044.82
564.04	30751.96
564.239	31122.64
564.438	30411.99
564.637	31018.19
564.836	30520.54
565.035	30483.67
565.234	30475.48
565.432	30356.7
565.631	30219.49
565.83	30313.69
566.029	30024.93
566.228	30469.34
566.427	30078.18
566.625	30033.12
566.824	30000.35
567.023	29986.02
567.222	29320.43
567.42	30184.67
567.619	29742.31
567.818	29721.83
568.016	29510.89
568.215	29799.65
568.414	29551.85
568.612	29793.51
568.811	29095.15
569.01	29332.72
569.208	29177.07
569.407	29320.43
569.605	29199.6
569.804	29213.93
570.002	28658.93
570.201	28943.6
570.4	28845.3
570.598	28275.96
570.797	28400.89
570.995	28417.27
571.193	28314.87
571.392	28740.85
571.59	28052.73
571.789	28108.03
571.987	28046.59
572.186	27946.24
572.384	27931.9
572.582	28028.16
572.781	27819.27
572.979	27641.09
573.177	27759.88
573.376	27858.18
573.574	27579.65
573.772	27622.66
573.971	27178.25
574.169	27028.75
574.367	27065.61
574.565	27403.53
574.763	27153.68
574.962	27049.23
575.16	26701.08
575.358	26828.05
575.556	26371.35
575.754	27047.18
575.952	26377.5
576.151	27079.95
576.349	26338.58
576.547	26381.59
576.745	26443.03
576.943	26453.27
577.141	26242.33
577.339	26139.93
577.537	26264.86
577.735	26066.2
577.933	25699.62
578.131	26160.41
578.329	25969.95
578.527	25668.9
578.725	25824.54
578.923	25965.85
579.121	25564.45
579.319	25494.82
579.516	25341.22
579.714	25451.81
579.912	25236.78
580.11	25220.39
580.308	25304.36
580.506	25011.5
580.704	24868.14
580.901	25333.03
581.099	24804.66
581.297	24831.28
581.495	24747.31
581.692	24859.95
581.89	24677.68
582.088	24974.64
582.285	24151.35
582.483	24661.3
582.681	24401.21
582.878	24497.46
583.076	23919.93
583.274	24300.86
583.471	23950.65
583.669	24302.9
583.866	23795.01
584.064	24048.96
584.262	23565.64
584.459	24294.71
584.657	23885.12
584.854	23913.79
585.052	23387.46
585.249	23412.04
585.447	23205.19
585.644	23213.38
585.841	23549.25
586.039	23512.39
586.236	23385.41
586.434	22988.11
586.631	23055.69
586.828	23186.76
587.026	22973.77
587.223	22834.51
587.42	22539.6
587.618	22771.02
587.815	22572.37
588.012	22431.06
588.21	22752.59
588.407	22689.1
588.604	22261.08
588.801	22381.91
588.999	22386.01
589.196	22226.26
589.393	22406.48
589.59	22168.92
589.787	21874.01
589.984	22046.04
590.182	21550.43
590.379	22152.54
590.576	21677.41
590.773	21894.49
590.97	21472.61
591.167	21671.26
591.364	21196.14
591.561	21577.06
591.758	21126.5
591.955	21198.18
592.152	21247.33
592.349	21114.22
592.546	21208.42
592.743	21169.51
592.94	20807.02
593.137	20946.28
593.334	21005.67
593.531	20725.1
593.727	20964.71
593.924	20862.32
594.121	20690.29
594.318	20637.04
594.515	20239.73
594.712	20852.08
594.908	20598.13
595.105	20462.96
595.302	20100.47
595.499	20352.37
595.696	20202.87
595.892	19860.86
596.089	20086.14
596.286	20172.15
596.482	20034.94
596.679	19817.85
596.876	19842.43
597.072	19590.53
597.269	19742.08
597.466	19645.82
597.662	19651.97
597.859	19291.52
598.055	19412.35
598.252	19269
598.448	19486.08
598.645	19416.45
598.841	18920.84
599.038	19148.17
599.234	19283.33
599.431	18931.08
599.627	18963.85
599.824	19416.45
600.02	18910.6
600.217	18877.83
600.413	18883.98
600.609	18523.54
600.806	18611.6
601.002	18607.5
601.198	18263.44
601.395	18427.28
601.591	18548.11
601.787	18412.95
601.984	18476.43
602.18	18640.27
602.376	18171.29
602.572	17974.68
602.769	18066.84
602.965	17839.51
603.161	17948.06
603.357	17964.44
603.553	17862.04
603.75	18175.38
603.946	17542.56
604.142	17632.67
604.338	17366.43
604.534	17411.49
604.73	17479.07
604.926	17479.07
605.122	17649.05
605.318	17235.36
605.514	17225.12
605.71	17253.8
605.906	17153.44
606.102	17280.42
606.298	17202.6
606.494	17356.19
606.69	17085.86
606.886	17057.19
607.082	16823.72
607.278	17051.05
607.474	16745.9
607.67	17092.01
607.866	16649.64
608.062	16862.63
608.257	16739.76
608.453	16479.66
608.649	16772.52
608.845	16526.77
609.041	16424.37
609.236	16588.21
609.432	16690.6
609.628	16469.42
609.824	16154.04
610.019	16543.15
610.215	16133.56
610.411	16248.24
610.606	16430.51
610.802	16192.95
610.998	16281.01
611.193	16242.1
611.389	16078.26
611.584	15967.67
611.78	15719.87
611.976	15889.85
612.171	16149.94
612.367	15945.14
612.562	15805.88
612.758	15850.94
612.953	15611.32
613.149	15547.84
613.344	15543.74
613.539	15738.3
613.735	15660.48
613.93	15664.57
614.126	15769.02
614.321	15717.82
614.517	15467.97
614.712	15691.2
614.907	15498.69
615.103	15545.79
615.298	15375.81
615.493	15594.94
615.688	15125.96
615.884	15238.59
616.079	15007.17
616.274	15171.01
616.47	15130.05
616.665	15269.31
616.86	15216.07
617.055	15044.04
617.25	15078.85
617.445	15185.35
617.641	14943.69
617.836	14906.82
618.031	14747.08
618.226	14841.29
618.421	15001.03
618.616	14755.27
618.811	14630.35
619.006	14716.36
619.201	14458.32
619.396	14824.9
619.591	14339.54
619.786	14515.66
619.981	14167.51
620.176	14388.69
620.371	14048.72
620.566	14204.37
620.761	14149.07
620.956	14151.12
621.151	13891.03
621.346	14149.07
621.541	13784.54
621.735	13929.94
621.93	13401.57
622.125	13839.83
622.32	13487.58
622.515	13614.55
622.709	13333.98
622.904	13428.19
623.099	13424.09
623.294	13407.71
623.488	13114.85
623.683	13010.4
623.878	12991.97
624.072	13250.02
624.267	12824.04
624.462	13000.16
624.656	12701.16
624.851	12643.82
625.046	12588.52
625.24	12561.9
625.435	12371.44
625.629	12512.75
625.824	12334.57
626.018	12389.87
626.213	12240.37
626.407	12301.81
626.602	12072.43
626.796	12240.37
626.991	12260.85
627.185	12011
627.38	11759.1
627.574	11730.42
627.768	11730.42
627.963	11703.8
628.157	11441.66
628.352	11558.39
628.546	11462.14
628.74	11509.24
628.935	11273.73
629.129	11216.38
629.323	11038.21
629.517	11095.55
629.712	11175.42
629.906	11068.93
630.1	11066.88
630.294	11257.34
630.489	10771.97
630.683	10841.61
630.877	10698.25
631.071	10688.01
631.265	10718.73
631.459	10661.38
631.653	10522.12
631.848	10569.23
632.042	10573.32
632.236	10475.02
632.43	10298.89
632.624	10198.54
632.818	10055.19
633.012	10165.78
633.206	9973.27
633.4	10245.65
633.594	9973.27
633.788	9977.36
633.982	9911.83
634.176	9879.06
634.369	9803.29
634.563	9643.54
634.757	9612.82
634.951	9678.36
635.145	9596.44
635.339	9608.73
635.533	9750.04
635.726	9606.68
635.92	9498.14
636.114	9401.88
636.308	9434.65
636.501	9209.37
636.695	9428.51
636.889	9170.46
637.083	9156.13
637.276	8941.09
637.47	9016.87
637.664	9008.67
637.857	9156.13
638.051	8871.46
638.244	8695.33
638.438	8769.06
638.632	8746.53
638.825	8476.2
639.019	8615.46
639.212	8605.22
639.406	8707.62
639.599	8480.3
639.793	8476.2
639.986	8398.38
640.18	8431.15
640.373	8345.13
640.567	8345.13
640.76	8212.01
640.954	8343.08
641.147	7951.92
641.34	8144.43
641.534	8171.05
641.727	8015.41
641.92	8078.9
642.114	7945.78
642.307	7878.19
642.5	7829.04
642.694	7716.4
642.887	7800.37
643.08	7755.32
643.273	7417.4
643.467	7749.17
643.66	7474.74
643.853	7198.27
644.046	7515.7
644.239	7405.11
644.432	7376.44
644.626	7474.74
644.819	7304.76
645.012	7263.8
645.205	7212.6
645.398	7267.9
645.591	7097.92
645.784	7065.15
645.977	7102.01
646.17	6995.52
646.363	6966.85
646.556	6790.72
646.749	7069.25
646.942	6897.22
647.135	6737.48
647.328	6698.56
647.521	6704.71
647.714	6581.83
647.907	6702.66
648.099	6600.26
648.292	6653.51
648.485	6667.84
648.678	6585.93
648.871	6532.68
649.064	6428.23
649.256	6495.82
649.449	6538.82
649.642	6342.22
649.835	6452.81
650.027	6372.94
650.22	6270.54
650.413	6229.58
650.605	6264.4
650.798	6104.65
650.991	6127.18
651.183	6016.59
651.376	6248.01
651.568	6190.67
651.761	5989.97
651.954	6012.49
652.146	6014.54
652.339	5946.96
652.531	5893.71
652.724	5928.53
652.916	5639.76
653.109	5740.12
653.301	5854.8
653.494	5912.14
653.686	5584.47
653.879	5760.59
654.071	5582.42
654.263	5543.51
654.456	5541.46
654.648	5639.76
654.84	5490.26
655.033	5506.65
655.225	5379.67
655.417	5484.12
655.61	5338.71
655.802	5297.75
655.994	5574.23
656.186	5328.47
656.379	5230.17
656.571	5267.03
656.763	5267.03
656.955	5224.03
657.148	5238.36
657.34	5201.5
657.532	5123.68
657.724	5049.95
657.916	5025.37
658.108	5041.76
658.3	5049.95
658.492	5101.15
658.684	4832.86
658.876	4963.93
659.068	4906.59
659.26	4939.36
659.452	4853.34
659.644	4980.32
659.836	4802.15
660.028	4683.36
660.22	4841.06
660.412	4656.74
660.604	4658.79
660.796	4650.6
660.988	4615.78
661.18	4660.84
661.372	4671.08
661.563	4644.45
661.755	4595.3
661.947	4677.22
662.139	4619.88
662.331	4437.61
662.522	4552.29
662.714	4478.57
662.906	4353.64
663.097	4363.88
663.289	4515.43
663.481	4470.37
663.673	4281.96
663.864	4312.68
664.056	4228.71
664.247	4361.83
664.439	4255.34
664.631	4200.04
664.822	4279.91
665.014	4284.01
665.205	4181.61
665.397	4249.19
665.588	4126.32
665.78	4181.61
665.971	4175.47
666.163	4060.78
666.354	4140.65
666.546	4120.17
666.737	4136.56
666.929	3944.05
667.12	4028.01
667.311	3896.94
667.503	4091.5
667.694	4118.12
667.885	3837.55
668.077	3872.37
668.268	3976.81
668.459	3839.6
668.651	3929.71
668.842	3845.74
669.033	3837.55
669.224	3716.72
669.416	3874.42
669.607	3825.26
669.798	3772.02
669.989	3731.06
670.18	3782.26
670.371	3847.79
670.563	3614.32
670.754	3716.72
670.945	3616.37
671.136	3720.82
671.327	3686
671.518	3608.18
671.709	3683.95
671.9	3567.22
672.091	3692.15
672.282	3608.18
672.473	3677.81
672.664	3518.07
672.855	3544.69
673.046	3530.36
673.237	3460.73
673.428	3460.73
673.619	3622.52
673.809	3522.16
674	3427.96
674.191	3456.63
674.382	3452.53
674.573	3378.81
674.764	3436.15
674.954	3325.56
675.145	3321.46
675.336	3331.7
675.527	3298.94
675.717	3358.33
675.908	3288.7
676.099	3343.99
676.289	3370.62
676.48	3319.42
676.671	3313.27
676.861	3290.74
677.052	3257.98
677.243	3245.69
677.433	3214.97
677.624	3421.81
677.814	3155.58
678.005	3346.04
678.195	3208.83
678.386	3223.16
678.576	3149.43
678.767	3223.16
678.957	3280.5
679.148	3194.49
679.338	3141.24
679.529	3151.48
679.719	3235.45
679.909	3092.09
680.1	3165.82
680.29	3042.94
680.481	3131
680.671	3102.33
680.861	3262.07
681.052	3149.43
681.242	3104.38
681.432	3018.36
681.622	3059.32
681.813	3075.71
682.003	3083.9
682.193	3124.86
682.383	3075.71
682.573	3112.57
682.764	3167.87
682.954	3075.71
683.144	3110.52
683.334	3001.98
683.524	2932.35
683.714	3049.08
683.904	2936.45
684.094	3024.51
684.284	3030.65
684.474	3075.71
684.664	2948.73
684.854	3051.13
685.044	2936.45
685.234	2903.68
685.424	3026.56
685.614	2907.77
685.804	3004.03
685.994	2997.88
686.184	2926.21
686.374	2938.49
686.564	2856.58
686.753	2918.01
686.943	2764.42
687.133	2780.8
687.323	2786.94
687.513	2905.73
687.702	2793.09
687.892	2915.97
688.082	2854.53
688.272	2854.53
688.461	2887.29
688.651	2887.29
688.841	2756.22
689.03	2696.83
689.22	2709.12
689.41	2768.51
689.599	2752.13
689.789	2625.15
689.979	2745.98
690.168	2621.06
690.358	2576
690.547	2629.25
690.737	2684.55
690.926	2733.7
691.116	2616.96
691.305	2627.2
691.495	2600.58
691.684	2643.59
691.874	2524.8
692.063	2608.77
692.252	2653.83
692.442	2602.63
692.631	2471.56
692.82	2477.7
693.01	2590.34
693.199	2512.52
693.388	2461.32
693.578	2487.94
693.767	2551.43
693.956	2485.89
694.146	2395.78
694.335	2444.93
694.524	2432.65
694.713	2436.74
694.902	2461.32
695.092	2352.77
695.281	2481.8
695.47	2408.07
695.659	2424.45
695.848	2440.84
696.037	2477.7
696.226	2346.63
696.415	2350.73
696.604	2299.53
696.793	2461.32
696.982	2248.33
697.171	2373.25
697.36	2365.06
697.549	2373.25
697.738	2348.68
697.927	2346.63
698.116	2371.21
698.305	2371.21
698.494	2313.86
698.683	2397.83
698.872	2416.26
699.061	2348.68
699.25	2350.73
699.438	2231.94
699.627	2358.92
699.816	2324.1
700.005	2371.21
700.193	2209.42
700.382	2344.58
700.571	2254.47
700.76	2383.49
700.948	2281.1
701.137	2281.1
701.326	2256.52
701.514	2266.76
701.703	2209.42
701.892	2373.25
702.08	2342.53
702.269	2313.86
702.457	2199.18
702.646	2250.38
702.834	2225.8
703.023	2277
703.212	2297.48
703.4	2281.1
703.589	2156.17
703.777	2248.33
703.965	2215.56
704.154	2287.24
704.342	2213.51
704.531	2260.62
704.719	2233.99
704.907	2256.52
705.096	2287.24
705.284	2305.67
705.472	2270.86
705.661	2190.99
705.849	2240.14
706.037	2317.96
706.226	2342.53
706.414	2203.27
706.602	2381.45
706.79	2221.7
706.979	2344.58
707.167	2264.71
707.355	2332.3
707.543	2274.95
707.731	2379.4
707.919	2256.52
708.107	2250.38
708.296	2264.71
708.484	2213.51
708.672	2201.23
708.86	2397.83
709.048	2152.07
709.236	2086.54
709.424	2272.9
709.612	2229.9
709.8	2240.14
709.988	2221.7
710.176	2184.84
710.364	2324.1
710.551	2281.1
710.739	2328.2
710.927	2256.52
711.115	2264.71
711.303	2223.75
711.491	2127.5
711.679	2260.62
711.866	2277
712.054	2297.48
712.242	2199.18
712.43	2227.85
712.617	2305.67
712.805	2215.56
712.993	2217.61
713.181	2248.33
713.368	2303.62
713.556	2248.33
713.744	2293.38
713.931	2350.73
714.119	2150.03
714.306	2293.38
714.494	2244.23
714.682	2084.49
714.869	2246.28
715.057	2215.56
715.244	2244.23
715.432	2256.52
715.619	2199.18
715.807	2109.07
715.994	2291.34
716.182	2236.04
716.369	2242.18
716.556	2317.96
716.744	2150.03
716.931	2137.74
717.119	2313.86
717.306	2311.82
717.493	2268.81
717.681	2233.99
717.868	2264.71
718.055	2303.62
718.242	2223.75
718.43	2186.89
718.617	2201.23
718.804	2297.48
718.991	2215.56
719.179	2231.94
719.366	2223.75
719.553	2231.94
719.74	2117.26
719.927	2242.18
720.114	2201.23
720.301	2326.15
720.488	2193.03
720.676	2299.53
720.863	2150.03
721.05	2315.91
721.237	2277
721.424	2270.86
721.611	2291.34
721.798	2240.14
721.985	2219.66
722.172	2231.94
722.358	2193.03
722.545	2346.63
722.732	2104.97
722.919	2190.99
723.106	2299.53
723.293	2193.03
723.48	2178.7
723.667	2231.94
723.853	2297.48
724.04	2264.71
724.227	2285.19
724.414	2279.05
724.6	2272.9
724.787	2365.06
724.974	2199.18
725.161	2326.15
725.347	2184.84
725.534	2240.14
725.72	2184.84
725.907	2365.06
726.094	2299.53
726.28	2233.99
726.467	2242.18
726.653	2160.27
726.84	2342.53
727.027	2346.63
727.213	2279.05
727.4	2293.38
727.586	2242.18
727.773	2266.76
727.959	2158.22
728.145	2160.27
728.332	2367.11
728.518	2190.99
728.705	2277
728.891	2170.51
729.077	2260.62
729.264	2139.79
729.45	2143.88
729.636	2248.33
729.823	2145.93
730.009	2215.56
730.195	2295.43
730.382	2195.08
730.568	2197.13
730.754	2272.9
730.94	2231.94
731.126	2240.14
731.313	2342.53
731.499	2238.09
731.685	2289.29
731.871	2315.91
732.057	2256.52
732.243	2231.94
732.429	2346.63
732.615	2301.58
732.801	2277
732.987	2209.42
733.173	2201.23
733.359	2182.79
733.545	2211.46
733.731	2158.22
733.917	2322.06
734.103	2158.22
734.289	2385.54
734.475	2264.71
734.661	2227.85
734.847	2248.33
735.033	2154.12
735.219	2291.34
735.404	2248.33
735.59	2053.77
735.776	2141.83
735.962	2096.78
736.148	2160.27
736.333	2135.69
736.519	2186.89
736.705	2268.81
736.89	2190.99
737.076	2193.03
737.262	2119.31
737.447	2186.89
737.633	2094.73
737.819	2233.99
738.004	2172.55
738.19	2176.65
738.375	2096.78
738.561	2174.6
738.747	2197.13
738.932	2080.39
739.118	2182.79
739.303	2168.46
739.489	2207.37
739.674	2061.96
739.859	2094.73
740.045	2158.22
740.23	2133.64
740.416	2102.92
740.601	2086.54
740.786	2047.63
740.972	2035.34
741.157	2182.79
741.342	2076.3
741.528	2012.81
741.713	2002.57
741.898	2092.68
742.084	2068.11
742.269	2117.26
742.454	1998.48
742.639	1994.38
742.824	2092.68
743.01	2068.11
743.195	1920.65
743.38	1967.76
743.565	1957.52
743.75	1937.04
743.935	1930.89
744.12	2006.67
744.305	2027.15
744.49	1873.55
744.675	1887.89
744.86	1990.28
745.045	1965.71
745.23	1810.06
745.415	2027.15
745.6	1875.6
745.785	1924.75
745.97	1941.13
746.155	1932.94
746.34	1937.04
746.525	1762.96
746.71	1916.56
746.895	1822.35
747.079	1851.02
747.264	1855.12
747.449	1769.1
747.634	1814.16
747.819	1834.64
748.003	1715.86
748.188	1767.06
748.373	1707.66
748.557	1746.58
748.742	1748.62
748.927	1717.9
749.111	1674.9
749.296	1722
749.481	1726.1
749.665	1742.48
749.85	1736.34
750.034	1672.85
750.219	1644.18
750.404	1621.65
750.588	1658.51
750.773	1576.59
750.957	1695.38
751.141	1588.88
751.326	1666.71
751.51	1601.17
751.695	1494.68
751.879	1494.68
752.064	1599.12
752.248	1537.68
752.432	1644.18
752.617	1576.59
752.801	1533.59
752.985	1509.01
753.17	1414.81
753.354	1504.92
753.538	1459.86
753.722	1439.38
753.907	1437.33
754.091	1328.79
754.275	1396.37
754.459	1488.53
754.643	1339.03
754.828	1423
755.012	1259.16
755.196	1431.19
755.38	1273.5
755.564	1289.88
755.748	1322.65
755.932	1326.74
756.116	1425.04
756.3	1246.87
756.484	1267.35
756.668	1265.3
756.852	1306.26
757.036	1234.58
757.22	1308.31
757.404	1300.12
757.588	1207.96
757.772	1269.4
757.956	1291.93
758.14	1314.45
758.323	1201.82
758.507	1212.06
758.691	1109.66
758.875	1144.47
759.059	1216.15
759.242	1150.62
759.426	1060.51
759.61	1095.32
759.794	1080.99
759.977	1150.62
760.161	1158.81
760.345	1177.24
760.528	1158.81
760.712	1207.96
760.895	1037.98
761.079	1068.7
761.263	1005.21
761.446	1060.51
761.63	1089.18
761.813	1197.72
761.997	1109.66
762.18	1072.79
762.364	1052.31
762.547	1044.12
762.731	1128.09
762.914	943.77
763.098	1078.94
763.281	1019.55
763.464	1048.22
763.648	986.78
763.831	1011.36
764.015	1019.55
764.198	1019.55
764.381	988.83
764.564	958.11
764.748	978.59
764.931	956.06
765.114	1015.45
765.297	1013.4
765.481	980.64
765.664	990.88
765.847	1060.51
766.03	997.02
766.213	962.2
766.397	954.01
766.58	1019.55
766.763	990.88
766.946	888.48
767.129	913.05
767.312	921.24
767.495	945.82
767.678	931.48
767.861	937.63
768.044	923.29
768.227	906.91
768.41	906.91
768.593	999.07
768.776	923.29
768.959	1023.64
769.142	851.61
769.324	904.86
769.507	886.43
769.69	863.9
769.873	913.05
770.056	886.43
770.239	773.79
770.421	857.76
770.604	847.52
770.787	839.33
770.97	800.41
771.152	724.64
771.335	839.33
771.518	904.86
771.7	837.28
771.883	804.51
772.066	999.07
772.248	808.61
772.431	827.04
772.613	835.23
772.796	753.31
772.978	824.99
773.161	784.03
773.343	781.98
773.526	822.94
773.708	790.17
773.891	728.74
774.073	818.85
774.256	741.02
774.438	949.92
774.621	724.64
774.803	784.03
774.985	659.1
775.168	700.06
775.35	655.01
775.532	671.39
775.715	642.72
775.897	726.69
776.079	667.3
776.261	685.73
776.444	671.39
776.626	612
776.808	650.91
776.99	609.95
777.173	663.2
777.355	671.39
777.537	640.67
777.719	661.15
777.901	659.1
778.083	597.67
778.265	646.82
778.447	624.29
778.629	560.8
778.811	700.06
778.993	575.14
779.175	650.91
779.357	667.3
779.539	577.19
779.721	614.05
779.903	628.39
780.085	642.72
780.267	583.33
780.449	585.38
780.631	497.32
780.812	607.91
780.994	560.8
781.176	528.03
781.358	573.09
781.54	503.46
781.721	536.23
781.903	519.84
782.085	577.19
782.267	544.42
782.448	468.64
782.63	482.98
782.812	585.38
782.993	485.03
783.175	536.23
783.357	548.51
783.538	456.36
783.72	528.03
783.901	513.7
784.083	503.46
784.264	523.94
784.446	454.31
784.627	495.27
784.809	437.92
784.99	442.02
785.172	433.83
785.353	456.36
785.535	396.96
785.716	454.31
785.897	405.16
786.079	384.68
786.26	456.36
786.441	437.92
786.623	341.67
786.804	335.53
786.985	442.02
787.167	409.25
787.348	429.73
787.529	323.24
787.71	405.16
787.891	347.81
788.073	421.54
788.254	360.1
788.435	351.91
788.616	421.54
788.797	253.61
788.978	356.01
789.159	333.48
789.34	413.35
789.522	335.53
789.703	380.58
789.884	325.29
790.065	323.24
790.246	333.48
790.427	366.25
790.607	374.44
790.788	343.72
790.969	298.66
791.15	290.47
791.331	300.71
791.512	278.18
791.693	261.8
791.874	317.09
792.054	347.81
792.235	372.39
792.416	439.97
792.597	349.86
792.778	358.05
792.958	356.01
793.139	358.05
793.32	315.05
793.5	267.94
793.681	370.34
793.862	343.72
794.042	308.9
794.223	276.13
794.404	267.94
794.584	229.03
794.765	229.03
794.945	331.43
795.126	278.18
795.306	349.86
795.487	294.57
795.667	302.76
795.848	302.76
796.028	251.56
796.209	212.65
796.389	282.28
796.57	224.94
796.75	259.75
796.93	274.09
797.111	237.22
797.291	249.51
797.471	319.14
797.652	204.46
797.832	241.32
798.012	249.51
798.192	208.55
798.373	186.02
798.553	315.05
798.733	226.98
798.913	261.8
799.093	200.36
799.274	175.78
799.454	241.32
799.634	208.55
799.814	179.88
799.994	259.75
800.174	321.19
800.354	167.59
800.534	249.51
800.714	257.7
800.894	241.32
801.074	204.46
801.254	216.74
801.434	267.94
801.614	212.65
801.794	183.98
801.974	749.22
802.154	196.26
802.334	276.13
802.514	255.65
802.693	212.65
802.873	210.6
803.053	177.83
803.233	200.36
803.413	204.46
803.592	239.27
803.772	200.36
803.952	163.5
804.131	128.68
804.311	218.79
804.491	210.6
804.67	167.59
804.85	163.5
805.03	226.98
805.209	308.9
805.389	183.98
805.568	200.36
805.748	241.32
805.928	177.83
806.107	159.4
806.287	110.25
806.466	110.25
806.646	128.68
806.825	151.21
807.004	104.11
807.184	130.73
807.363	155.3
807.543	143.02
807.722	167.59
807.901	167.59
808.081	183.98
808.26	120.49
808.439	224.94
808.619	147.11
808.798	143.02
808.977	147.11
809.156	136.87
809.336	102.06
809.515	147.11
809.694	116.39
809.873	149.16
810.052	229.03
810.231	183.98
810.411	175.78
810.59	233.13
810.769	138.92
810.948	210.6
811.127	48.81
811.306	145.06
811.485	136.87
811.664	208.55
811.843	186.02
812.022	224.94
812.201	97.96
812.38	120.49
812.559	106.15
812.737	151.21
812.916	120.49
813.095	167.59
813.274	143.02
813.453	102.06
813.632	71.34
813.811	210.6
813.989	104.11
814.168	130.73
814.347	120.49
814.526	87.72
814.704	95.91
814.883	171.69
815.062	57
815.24	71.34
815.419	36.52
815.598	118.44
815.776	77.48
815.955	186.02
816.133	128.68
816.312	110.25
816.49	95.91
816.669	126.63
816.847	69.29
817.026	145.06
817.204	167.59
817.383	120.49
817.561	3.75
817.74	102.06
817.918	157.35
818.097	104.11
818.275	100.01
818.453	126.63
818.632	102.06
818.81	120.49
818.988	61.1
819.167	159.4
819.345	93.87
819.523	48.81
819.701	87.72
819.879	122.54
820.058	155.3
820.236	163.5
820.414	143.02
820.592	89.77
820.77	126.63
820.948	112.3
821.127	102.06
821.305	169.64
821.483	54.95
821.661	124.58
821.839	30.38
822.017	59.05
822.195	126.63
822.373	151.21
822.551	71.34
822.729	85.67
822.907	97.96
823.085	167.59
823.262	77.48
823.44	104.11
823.618	57
823.796	132.78
823.974	28.33
824.152	63.15
824.329	120.49
824.507	91.82
824.685	69.29
824.863	44.71
825.04	116.39
825.218	93.87
825.396	118.44
825.574	93.87
825.751	81.58
825.929	71.34
826.107	122.54
826.284	79.53
826.462	126.63
826.639	44.71
826.817	77.48
826.994	69.29
827.172	-16.73
827.349	134.82
827.527	97.96
827.704	106.15
827.882	36.52
828.059	54.95
828.237	63.15
828.414	102.06
828.591	-45.4
828.769	118.44
828.946	44.71
829.124	57
829.301	48.81
829.478	57
829.655	69.29
829.833	16.04
830.01	36.52
830.187	61.1
830.364	87.72
830.542	93.87
830.719	26.28
830.896	87.72
831.073	52.91
831.25	50.86
831.427	16.04
831.604	87.72
831.782	52.91
831.959	73.39
832.136	46.76
832.313	36.52
832.49	44.71
832.667	77.48
832.844	18.09
833.021	28.33
833.198	-4.44
833.374	5.8
833.551	73.39
833.728	40.62
833.905	93.87
834.082	69.29
834.259	30.38
834.436	118.44
834.612	73.39
834.789	34.47
834.966	22.19
835.143	22.19
835.319	52.91
835.496	81.58
835.673	44.71
835.85	24.23
836.026	44.71
836.203	102.06
836.38	79.53
836.556	20.14
836.733	3.75
836.909	93.87
837.086	5.8
837.262	-59.73
837.439	81.58
837.616	9.9
837.792	59.05
837.968	59.05
838.145	-69.97
838.321	44.71
838.498	81.58
838.674	77.48
838.851	13.99
839.027	3.75
839.203	38.57
839.38	-0.34
839.556	7.85
839.732	112.3
839.909	71.34
840.085	40.62
840.261	63.15
840.437	30.38
840.614	52.91
840.79	38.57
840.966	118.44
841.142	30.38
841.318	-57.68
841.494	3.75
841.671	30.38
841.847	-29.01
842.023	-4.44
842.199	61.1
842.375	20.14
842.551	-35.16
842.727	20.14
842.903	32.43
843.079	44.71
843.255	104.11
843.431	-26.96
843.607	85.67
843.783	20.14
843.959	73.39
844.134	22.19
844.31	97.96
844.486	85.67
844.662	-84.31
844.838	7.85
845.013	69.29
845.189	36.52
845.365	83.63
845.541	44.71
845.716	118.44
845.892	54.95
846.068	11.95
846.244	-35.16
846.419	36.52
846.595	-8.53
846.77	32.43
846.946	61.1
847.122	-18.77
847.297	-33.11
847.473	1.71
847.648	-10.58
847.824	-2.39
847.999	-6.49
848.175	-12.63
848.35	-26.96
848.526	114.34
848.701	59.05
848.876	16.04
849.052	73.39
849.227	63.15
849.403	-12.63
849.578	-14.68
849.753	16.04
849.929	48.81
850.104	71.34
850.279	-4.44
850.454	-20.82
850.63	22.19
850.805	22.19
850.98	36.52
851.155	57
851.33	50.86
851.505	-10.58
851.681	13.99
851.856	40.62
852.031	16.04
852.206	-4.44
852.381	-2.39
852.556	-14.68
852.731	83.63
852.906	22.19
853.081	65.19
853.256	65.19
853.431	-0.34
853.606	-24.92
853.781	71.34
853.956	-59.73
854.131	40.62
854.305	28.33
854.48	7.85
854.655	7.85
854.83	-12.63
855.005	-10.58
855.18	-18.77
855.354	-20.82
855.529	-20.82
855.704	40.62
855.879	-4.44
856.053	38.57
856.228	38.57
856.403	-37.2
856.577	11.95
856.752	-82.26
856.926	73.39
857.101	36.52
857.276	-33.11
857.45	3.75
857.625	-2.39
857.799	24.23
857.974	-2.39
858.148	42.67
858.323	85.67
858.497	79.53
858.672	-8.53
858.846	-20.82
859.02	-2.39
859.195	-61.78
859.369	13.99
859.543	26.28
859.718	16.04
859.892	-69.97
860.066	-29.01
860.241	-12.63
860.415	-8.53
860.589	28.33
860.763	20.14
860.938	-35.16
861.112	44.71
861.286	28.33
861.46	-10.58
861.634	-2.39
861.808	69.29
861.982	11.95
862.157	-18.77
862.331	-12.63
862.505	-2.39
862.679	-37.2
862.853	-119.12
863.027	-20.82
863.201	36.52
863.375	20.14
863.549	42.67
863.722	95.91
863.896	44.71
864.07	-29.01
864.244	77.48
864.418	13.99
864.592	5.8
864.766	-8.53
864.939	28.33
865.113	-35.16
865.287	71.34
865.461	-37.2
865.634	63.15
865.808	-33.11
865.982	-4.44
866.156	-41.3
866.329	-29.01
866.503	38.57
866.676	-18.77
866.85	28.33
867.024	-24.92
867.197	5.8
867.371	28.33
867.544	-18.77
867.718	-43.35
867.891	36.52
868.065	-74.07
868.238	-35.16
868.412	-31.06
868.585	13.99
868.759	-39.25
868.932	-24.92
869.105	-102.74
869.279	52.91
869.452	24.23
869.625	-12.63
869.799	-0.34
869.972	22.19
870.145	36.52
870.319	-51.54
870.492	-37.2
870.665	20.14
870.838	-69.97
871.011	-45.4
871.185	-2.39
871.358	-20.82
871.531	9.9
871.704	-88.4
871.877	-35.16
872.05	16.04
872.223	5.8
872.396	-61.78
872.569	61.1
872.742	-53.59
872.915	28.33
873.088	52.91
873.261	50.86
873.434	-16.73
873.607	5.8
873.78	-39.25
873.953	-29.01
874.126	1.71
874.299	-22.87
874.471	-10.58
874.644	-12.63
874.817	9.9
874.99	46.76
875.163	44.71
875.335	-14.68
875.508	3.75
875.681	-26.96
875.853	-53.59
876.026	-29.01
876.199	5.8
876.371	93.87
876.544	5.8
876.717	16.04
876.889	38.57
877.062	100.01
877.234	-69.97
877.407	-76.12
877.579	-14.68
877.752	-69.97
877.924	-33.11
878.097	71.34
878.269	11.95
878.442	1.71
878.614	28.33
878.786	52.91
878.959	-24.92
879.131	38.57
879.303	-26.96
879.476	-49.49
879.648	-8.53
879.82	59.05
879.993	91.82
880.165	-8.53
880.337	-26.96
880.509	-45.4
880.681	-49.49
880.854	-39.25
881.026	7.85
881.198	69.29
881.37	-37.2
881.542	-10.58
881.714	-20.82
881.886	-115.03
882.058	-33.11
882.23	-53.59
882.402	-98.64
882.574	7.85
882.746	48.81
882.918	7.85
883.09	-4.44
883.262	-8.53
883.434	-67.92
883.606	24.23
883.778	5.8
883.95	79.53
884.122	42.67
884.293	9.9
884.465	-43.35
884.637	100.01
884.809	20.14
884.98	-45.4
885.152	-16.73
885.324	-26.96
885.496	-4.44
885.667	44.71
885.839	-78.16
886.011	-53.59
886.182	-49.49
886.354	7.85
886.525	-29.01
886.697	7.85
886.869	52.91
887.04	24.23
887.212	13.99
887.383	40.62
887.555	-18.77
887.726	-16.73
887.897	-69.97
888.069	-10.58
888.24	48.81
888.412	20.14
888.583	-47.44
888.754	5.8
888.926	-41.3
889.097	5.8
889.268	3.75
889.44	-26.96
889.611	38.57
889.782	-33.11
889.953	-65.88
890.125	77.48
890.296	-65.88
890.467	-35.16
890.638	-47.44
890.809	-0.34
890.98	-29.01
891.151	-69.97
891.323	16.04
891.494	-61.78
891.665	20.14
891.836	50.86
892.007	-16.73
892.178	28.33
892.349	-39.25
892.52	-43.35
892.691	-16.73
892.862	-51.54
893.032	-100.69
893.203	-37.2
893.374	-35.16
893.545	38.57
893.716	-16.73
893.887	20.14
894.057	-45.4
894.228	-33.11
894.399	57
894.57	69.29
894.74	9.9
894.911	-4.44
895.082	11.95
895.253	-45.4
895.423	13.99
895.594	3.75
895.764	-43.35
895.935	-86.36
896.106	-0.34
896.276	-41.3
896.447	-53.59
896.617	-4.44
896.788	40.62
896.958	9.9
897.129	-29.01
897.299	20.14
897.47	-119.12
897.64	1.71
897.81	-45.4
897.981	-35.16
898.151	-39.25
898.322	-29.01
898.492	-12.63
898.662	-76.12
898.832	-86.36
899.003	-4.44
899.173	48.81
899.343	-84.31
899.513	-45.4
