Data from USB4F104151__6__14-42-30-710.txt Node

Date: Thu Mar 13 14:42:30 EDT 2025
User: louis
Spectrometer: USB4F10415
Trigger mode: 4
Integration Time (sec): 2.000000E-2
Scans to average: 1
Electric dark correction enabled: true
Nonlinearity correction enabled: false
Boxcar width: 0
XAxis mode: Wavelengths
Number of Pixels in Spectrum: 3648
>>>>>Begin Spectral Data<<<<<
178.204	-98.47
178.424	-98.47
178.644	-98.47
178.864	-164.01
179.084	-47.27
179.304	12.12
179.524	-41.13
179.744	-121
179.964	24.4
180.184	69.46
180.404	-6.31
180.624	42.84
180.844	26.45
181.064	-77.99
181.283	8.02
181.503	-39.08
181.723	102.23
181.943	-12.46
182.163	59.22
182.383	59.22
182.602	65.36
182.822	46.93
183.042	59.22
183.262	24.4
183.482	36.69
183.701	-16.55
183.921	-6.31
184.141	-8.36
184.361	-20.65
184.58	18.26
184.8	1.88
185.02	12.12
185.239	57.17
185.459	34.64
185.679	8.02
185.898	-47.27
186.118	-0.17
186.338	-37.03
186.557	67.41
186.777	-0.17
186.997	59.22
187.216	-8.36
187.436	20.31
187.655	-6.31
187.875	16.21
188.095	-6.31
188.314	81.75
188.534	40.79
188.753	-65.71
188.973	59.22
189.192	55.12
189.412	-41.13
189.631	-18.6
189.851	51.03
190.07	59.22
190.29	-41.13
190.509	42.84
190.729	-43.18
190.948	42.84
191.168	143.19
191.387	65.36
191.607	22.36
191.826	1.88
192.045	-16.55
192.265	32.6
192.484	-8.36
192.704	42.84
192.923	16.21
193.142	94.04
193.362	110.42
193.581	85.84
193.8	89.94
194.02	46.93
194.239	-0.17
194.458	8.02
194.678	16.21
194.897	71.51
195.116	67.41
195.335	73.56
195.555	8.02
195.774	12.12
195.993	-6.31
196.212	-0.17
196.432	-2.22
196.651	42.84
196.87	20.31
197.089	94.04
197.308	48.98
197.528	67.41
197.747	-0.17
197.966	-6.31
198.185	73.56
198.404	-32.94
198.623	22.36
198.842	40.79
199.062	57.17
199.281	40.79
199.5	53.08
199.719	-22.7
199.938	55.12
200.157	14.17
200.376	26.45
200.595	67.41
200.814	36.69
201.033	-65.71
201.252	1.88
201.471	34.64
201.69	55.12
201.909	32.6
202.128	73.56
202.347	71.51
202.566	38.74
202.785	34.64
203.004	-0.17
203.223	57.17
203.442	51.03
203.661	18.26
203.879	38.74
204.098	40.79
204.317	57.17
204.536	8.02
204.755	79.7
204.974	-12.46
205.193	12.12
205.411	18.26
205.63	89.94
205.849	32.6
206.068	42.84
206.287	-20.65
206.505	34.64
206.724	-24.75
206.943	-0.17
207.162	65.36
207.381	42.84
207.599	-8.36
207.818	1.88
208.037	34.64
208.255	26.45
208.474	73.56
208.693	91.99
208.911	-24.75
209.13	18.26
209.349	51.03
209.567	16.21
209.786	69.46
210.005	-47.27
210.223	12.12
210.442	-14.51
210.661	24.4
210.879	53.08
211.098	114.52
211.316	-45.23
211.535	91.99
211.753	24.4
211.972	61.27
212.191	36.69
212.409	53.08
212.628	77.65
212.846	38.74
213.065	20.31
213.283	98.13
213.502	14.17
213.72	81.75
213.938	40.79
214.157	30.55
214.375	102.23
214.594	18.26
214.812	18.26
215.031	26.45
215.249	-14.51
215.467	100.18
215.686	42.84
215.904	85.84
216.122	1.88
216.341	85.84
216.559	32.6
216.778	24.4
216.996	59.22
217.214	-39.08
217.432	-14.51
217.651	16.21
217.869	81.75
218.087	20.31
218.306	48.98
218.524	34.64
218.742	10.07
218.96	-10.41
219.179	36.69
219.397	40.79
219.615	96.08
219.833	24.4
220.051	5.97
220.27	53.08
220.488	163.67
220.706	-24.75
220.924	10.07
221.142	48.98
221.36	-32.94
221.578	81.75
221.796	83.8
222.015	16.21
222.233	14.17
222.451	71.51
222.669	32.6
222.887	51.03
223.105	-26.79
223.323	26.45
223.541	44.88
223.759	8.02
223.977	24.4
224.195	94.04
224.413	-24.75
224.631	24.4
224.849	-82.09
225.067	5.97
225.285	65.36
225.503	24.4
225.721	-14.51
225.939	75.6
226.157	130.9
226.375	100.18
226.592	-20.65
226.81	20.31
227.028	91.99
227.246	83.8
227.464	38.74
227.682	67.41
227.9	40.79
228.117	94.04
228.335	73.56
228.553	-37.03
228.771	42.84
228.989	48.98
229.206	-20.65
229.424	10.07
229.642	-37.03
229.86	81.75
230.077	16.21
230.295	32.6
230.513	51.03
230.731	102.23
230.948	61.27
231.166	10.07
231.384	8.02
231.601	42.84
231.819	65.36
232.037	-14.51
232.254	-16.55
232.472	63.32
232.689	1.88
232.907	26.45
233.125	-22.7
233.342	-34.99
233.56	-12.46
233.777	-0.17
233.995	42.84
234.213	61.27
234.43	106.32
234.648	91.99
234.865	32.6
235.083	24.4
235.3	-30.89
235.518	73.56
235.735	69.46
235.953	20.31
236.17	42.84
236.388	108.37
236.605	122.71
236.822	38.74
237.04	67.41
237.257	16.21
237.475	5.97
237.692	-49.32
237.909	22.36
238.127	18.26
238.344	26.45
238.562	114.52
238.779	36.69
238.996	-24.75
239.214	-39.08
239.431	14.17
239.648	-0.17
239.865	20.31
240.083	83.8
240.3	-0.17
240.517	20.31
240.735	48.98
240.952	75.6
241.169	30.55
241.386	73.56
241.603	1.88
241.821	-12.46
242.038	5.97
242.255	77.65
242.472	48.98
242.689	30.55
242.907	-12.46
243.124	18.26
243.341	32.6
243.558	-41.13
243.775	-12.46
243.992	79.7
244.209	-16.55
244.426	61.27
244.643	51.03
244.86	-24.75
245.078	85.84
245.295	51.03
245.512	61.27
245.729	-53.42
245.946	100.18
246.163	57.17
246.38	32.6
246.597	-24.75
246.814	53.08
247.031	22.36
247.248	75.6
247.464	32.6
247.681	51.03
247.898	40.79
248.115	61.27
248.332	24.4
248.549	20.31
248.766	59.22
248.983	69.46
249.2	-16.55
249.417	51.03
249.633	-57.51
249.85	87.89
250.067	91.99
250.284	-6.31
250.501	26.45
250.717	32.6
250.934	24.4
251.151	-16.55
251.368	32.6
251.585	16.21
251.801	32.6
252.018	59.22
252.235	53.08
252.451	-8.36
252.668	-43.18
252.885	73.56
253.102	36.69
253.318	12.12
253.535	5.97
253.752	-59.56
253.968	10.07
254.185	-10.41
254.401	-65.71
254.618	36.69
254.835	24.4
255.051	8.02
255.268	69.46
255.484	98.13
255.701	10.07
255.917	26.45
256.134	26.45
256.351	65.36
256.567	-0.17
256.784	59.22
257	14.17
257.217	12.12
257.433	61.27
257.65	114.52
257.866	57.17
258.082	16.21
258.299	-26.79
258.515	18.26
258.732	-10.41
258.948	-8.36
259.165	-0.17
259.381	24.4
259.597	22.36
259.814	83.8
260.03	40.79
260.246	48.98
260.463	34.64
260.679	73.56
260.895	114.52
261.112	73.56
261.328	32.6
261.544	61.27
261.761	114.52
261.977	3.93
262.193	-2.22
262.409	18.26
262.626	-32.94
262.842	40.79
263.058	-30.89
263.274	128.85
263.49	-8.36
263.707	108.37
263.923	75.6
264.139	-0.17
264.355	-8.36
264.571	163.67
264.787	-24.75
265.004	20.31
265.22	10.07
265.436	61.27
265.652	-8.36
265.868	40.79
266.084	-34.99
266.3	48.98
266.516	-30.89
266.732	18.26
266.948	-41.13
267.164	81.75
267.38	-12.46
267.596	-0.17
267.812	36.69
268.028	28.5
268.244	5.97
268.46	24.4
268.676	40.79
268.892	14.17
269.108	42.84
269.324	8.02
269.54	-12.46
269.756	81.75
269.972	34.64
270.188	18.26
270.403	-14.51
270.619	81.75
270.835	8.02
271.051	65.36
271.267	-14.51
271.483	14.17
271.698	-34.99
271.914	89.94
272.13	8.02
272.346	-32.94
272.562	-14.51
272.777	122.71
272.993	-26.79
273.209	51.03
273.425	85.84
273.64	18.26
273.856	53.08
274.072	1.88
274.287	51.03
274.503	67.41
274.719	94.04
274.934	61.27
275.15	53.08
275.366	42.84
275.581	-41.13
275.797	12.12
276.012	-16.55
276.228	10.07
276.444	8.02
276.659	77.65
276.875	-12.46
277.09	69.46
277.306	83.8
277.521	42.84
277.737	24.4
277.952	8.02
278.168	22.36
278.383	-26.79
278.599	59.22
278.814	48.98
279.03	-12.46
279.245	57.17
279.461	8.02
279.676	67.41
279.892	20.31
280.107	100.18
280.322	12.12
280.538	5.97
280.753	48.98
280.969	40.79
281.184	44.88
281.399	20.31
281.615	-26.79
281.83	116.56
282.045	-14.51
282.26	57.17
282.476	51.03
282.691	16.21
282.906	51.03
283.122	34.64
283.337	26.45
283.552	73.56
283.767	57.17
283.983	40.79
284.198	8.02
284.413	-37.03
284.628	-61.61
284.843	-4.27
285.058	73.56
285.274	12.12
285.489	12.12
285.704	81.75
285.919	36.69
286.134	65.36
286.349	32.6
286.564	59.22
286.779	8.02
286.995	51.03
287.21	-0.17
287.425	26.45
287.64	10.07
287.855	-14.51
288.07	3.93
288.285	14.17
288.5	79.7
288.715	73.56
288.93	61.27
289.145	67.41
289.36	59.22
289.575	-6.31
289.79	48.98
290.004	-12.46
290.219	77.65
290.434	89.94
290.649	-28.84
290.864	-0.17
291.079	79.7
291.294	-30.89
291.509	8.02
291.724	59.22
291.938	10.07
292.153	77.65
292.368	32.6
292.583	-14.51
292.798	55.12
293.012	-0.17
293.227	32.6
293.442	28.5
293.657	16.21
293.871	69.46
294.086	24.4
294.301	75.6
294.516	-2.22
294.73	24.4
294.945	-41.13
295.16	34.64
295.374	8.02
295.589	87.89
295.804	20.31
296.018	44.88
296.233	89.94
296.447	34.64
296.662	8.02
296.877	83.8
297.091	38.74
297.306	106.32
297.52	10.07
297.735	-20.65
297.949	-2.22
298.164	-28.84
298.378	24.4
298.593	24.4
298.807	18.26
299.022	42.84
299.236	40.79
299.451	40.79
299.665	8.02
299.88	40.79
300.094	61.27
300.309	128.85
300.523	51.03
300.737	75.6
300.952	-16.55
301.166	-22.7
301.381	-41.13
301.595	40.79
301.809	42.84
302.024	20.31
302.238	-20.65
302.452	98.13
302.667	-16.55
302.881	1.88
303.095	48.98
303.309	40.79
303.524	61.27
303.738	77.65
303.952	-12.46
304.166	12.12
304.381	-53.42
304.595	102.23
304.809	5.97
305.023	67.41
305.237	-6.31
305.452	34.64
305.666	-4.27
305.88	89.94
306.094	65.36
306.308	38.74
306.522	-8.36
306.736	16.21
306.95	118.61
307.164	98.13
307.379	-41.13
307.593	18.26
307.807	-41.13
308.021	89.94
308.235	73.56
308.449	20.31
308.663	-8.36
308.877	91.99
309.091	57.17
309.305	79.7
309.519	-82.09
309.733	73.56
309.947	-49.32
310.161	65.36
310.374	81.75
310.588	57.17
310.802	57.17
311.016	96.08
311.23	8.02
311.444	20.31
311.658	12.12
311.872	48.98
312.085	42.84
312.299	81.75
312.513	71.51
312.727	20.31
312.941	1.88
313.154	73.56
313.368	34.64
313.582	59.22
313.796	53.08
314.009	-2.22
314.223	65.36
314.437	-41.13
314.651	69.46
314.864	53.08
315.078	-4.27
315.292	-49.32
315.505	-18.6
315.719	24.4
315.933	16.21
316.146	-4.27
316.36	36.69
316.573	65.36
316.787	-24.75
317.001	28.5
317.214	65.36
317.428	34.64
317.641	-8.36
317.855	57.17
318.068	51.03
318.282	26.45
318.495	98.13
318.709	108.37
318.922	28.5
319.136	16.21
319.349	44.88
319.563	14.17
319.776	69.46
319.99	63.32
320.203	61.27
320.417	22.36
320.63	51.03
320.843	65.36
321.057	16.21
321.27	59.22
321.483	-4.27
321.697	108.37
321.91	34.64
322.124	61.27
322.337	-0.17
322.55	-57.51
322.763	12.12
322.977	83.8
323.19	48.98
323.403	-20.65
323.617	102.23
323.83	51.03
324.043	-53.42
324.256	65.36
324.469	-6.31
324.683	108.37
324.896	8.02
325.109	8.02
325.322	-16.55
325.535	89.94
325.748	26.45
325.962	-6.31
326.175	-8.36
326.388	98.13
326.601	48.98
326.814	20.31
327.027	-4.27
327.24	8.02
327.453	-39.08
327.666	51.03
327.879	32.6
328.092	8.02
328.305	1.88
328.518	1.88
328.731	8.02
328.944	36.69
329.157	1.88
329.37	59.22
329.583	83.8
329.796	85.84
330.009	20.31
330.222	12.12
330.435	135
330.648	57.17
330.861	53.08
331.073	-12.46
331.286	3.93
331.499	-41.13
331.712	5.97
331.925	3.93
332.138	28.5
332.35	85.84
332.563	81.75
332.776	55.12
332.989	75.6
333.202	-0.17
333.414	81.75
333.627	24.4
333.84	40.79
334.053	34.64
334.265	-16.55
334.478	42.84
334.691	94.04
334.903	26.45
335.116	77.65
335.329	36.69
335.541	65.36
335.754	57.17
335.966	40.79
336.179	42.84
336.392	51.03
336.604	12.12
336.817	79.7
337.029	51.03
337.242	-30.89
337.454	34.64
337.667	79.7
337.88	91.99
338.092	48.98
338.305	44.88
338.517	-6.31
338.729	100.18
338.942	-22.7
339.154	-16.55
339.367	75.6
339.579	73.56
339.792	-0.17
340.004	46.93
340.217	28.5
340.429	3.93
340.641	67.41
340.854	-41.13
341.066	-41.13
341.278	16.21
341.491	122.71
341.703	24.4
341.915	16.21
342.128	139.09
342.34	42.84
342.552	-24.75
342.764	22.36
342.977	94.04
343.189	24.4
343.401	65.36
343.613	55.12
343.826	75.6
344.038	-77.99
344.25	100.18
344.462	16.21
344.674	26.45
344.886	12.12
345.099	53.08
345.311	42.84
345.523	38.74
345.735	-28.84
345.947	67.41
346.159	-8.36
346.371	75.6
346.583	20.31
346.795	100.18
347.007	34.64
347.219	106.32
347.431	10.07
347.643	69.46
347.855	51.03
348.067	122.71
348.279	-4.27
348.491	-0.17
348.703	126.8
348.915	24.4
349.127	53.08
349.339	65.36
349.551	32.6
349.763	46.93
349.975	32.6
350.187	63.32
350.399	-22.7
350.61	83.8
350.822	71.51
351.034	1.88
351.246	63.32
351.458	100.18
351.669	-28.84
351.881	12.12
352.093	40.79
352.305	24.4
352.517	36.69
352.728	-8.36
352.94	8.02
353.152	18.26
353.363	59.22
353.575	59.22
353.787	75.6
353.999	81.75
354.21	100.18
354.422	8.02
354.633	24.4
354.845	16.21
355.057	-16.55
355.268	28.5
355.48	-8.36
355.692	26.45
355.903	10.07
356.115	-0.17
356.326	40.79
356.538	42.84
356.749	61.27
356.961	57.17
357.172	102.23
357.384	-6.31
357.595	81.75
357.807	20.31
358.018	28.5
358.23	61.27
358.441	79.7
358.653	65.36
358.864	63.32
359.075	106.32
359.287	-14.51
359.498	51.03
359.709	69.46
359.921	3.93
360.132	51.03
360.344	-32.94
360.555	44.88
360.766	16.21
360.977	-28.84
361.189	-24.75
361.4	-43.18
361.611	51.03
361.823	89.94
362.034	46.93
362.245	12.12
362.456	-4.27
362.667	32.6
362.879	16.21
363.09	91.99
363.301	32.6
363.512	85.84
363.723	53.08
363.935	32.6
364.146	57.17
364.357	16.21
364.568	44.88
364.779	28.5
364.99	44.88
365.201	-4.27
365.412	65.36
365.623	8.02
365.834	73.56
366.045	98.13
366.256	51.03
366.467	-24.75
366.678	40.79
366.889	53.08
367.1	34.64
367.311	18.26
367.522	79.7
367.733	81.75
367.944	83.8
368.155	48.98
368.366	96.08
368.577	34.64
368.788	8.02
368.999	-26.79
369.209	65.36
369.42	53.08
369.631	42.84
369.842	55.12
370.053	40.79
370.264	26.45
370.474	16.21
370.685	57.17
370.896	89.94
371.107	48.98
371.317	36.69
371.528	1.88
371.739	61.27
371.95	40.79
372.16	38.74
372.371	24.4
372.582	-0.17
372.792	77.65
373.003	61.27
373.214	-2.22
373.424	16.21
373.635	69.46
373.846	1.88
374.056	75.6
374.267	57.17
374.477	77.65
374.688	3.93
374.898	81.75
375.109	34.64
375.319	20.31
375.53	18.26
375.74	94.04
375.951	73.56
376.161	44.88
376.372	126.8
376.582	16.21
376.793	83.8
377.003	-8.36
377.214	57.17
377.424	108.37
377.635	30.55
377.845	-0.17
378.055	114.52
378.266	48.98
378.476	79.7
378.686	32.6
378.897	46.93
379.107	-16.55
379.317	18.26
379.528	24.4
379.738	98.13
379.948	57.17
380.158	18.26
380.369	73.56
380.579	20.31
380.789	24.4
380.999	14.17
381.21	22.36
381.42	100.18
381.63	-32.94
381.84	40.79
382.05	77.65
382.261	28.5
382.471	46.93
382.681	-20.65
382.891	61.27
383.101	10.07
383.311	-4.27
383.521	83.8
383.731	94.04
383.941	26.45
384.151	81.75
384.361	40.79
384.571	69.46
384.781	-0.17
384.991	106.32
385.201	36.69
385.411	89.94
385.621	28.5
385.831	91.99
386.041	57.17
386.251	69.46
386.461	73.56
386.671	-28.84
386.881	143.19
387.091	83.8
387.301	24.4
387.511	40.79
387.72	42.84
387.93	40.79
388.14	-20.65
388.35	73.56
388.56	24.4
388.769	110.42
388.979	67.41
389.189	139.09
389.399	65.36
389.609	-2.22
389.818	83.8
390.028	77.65
390.238	65.36
390.447	-8.36
390.657	36.69
390.867	20.31
391.076	-32.94
391.286	28.5
391.496	32.6
391.705	-24.75
391.915	40.79
392.125	12.12
392.334	-24.75
392.544	71.51
392.753	59.22
392.963	-41.13
393.172	116.56
393.382	38.74
393.591	30.55
393.801	69.46
394.01	81.75
394.22	108.37
394.429	71.51
394.639	16.21
394.848	139.09
395.058	36.69
395.267	8.02
395.477	77.65
395.686	98.13
395.895	110.42
396.105	59.22
396.314	5.97
396.524	81.75
396.733	57.17
396.942	147.28
397.152	108.37
397.361	65.36
397.57	139.09
397.78	3.93
397.989	81.75
398.198	71.51
398.407	24.4
398.617	57.17
398.826	73.56
399.035	69.46
399.244	81.75
399.453	124.76
399.663	65.36
399.872	57.17
400.081	67.41
400.29	77.65
400.499	14.17
400.708	65.36
400.917	147.28
401.127	102.23
401.336	69.46
401.545	126.8
401.754	24.4
401.963	91.99
402.172	61.27
402.381	51.03
402.59	91.99
402.799	34.64
403.008	42.84
403.217	100.18
403.426	102.23
403.635	79.7
403.844	83.8
404.053	65.36
404.262	126.8
404.471	180.05
404.68	114.52
404.888	83.8
405.097	184.15
405.306	91.99
405.515	114.52
405.724	94.04
405.933	106.32
406.142	139.09
406.35	120.66
406.559	85.84
406.768	130.9
406.977	124.76
407.185	98.13
407.394	204.63
407.603	141.14
407.812	159.57
408.02	237.39
408.229	135
408.438	223.06
408.646	114.52
408.855	171.86
409.064	167.76
409.272	157.52
409.481	159.57
409.69	206.67
409.898	212.82
410.107	175.95
410.315	165.71
410.524	218.96
410.733	204.63
410.941	229.2
411.15	229.2
411.358	294.74
411.567	296.78
411.775	325.46
411.984	278.35
412.192	286.54
412.401	288.59
412.609	307.02
412.818	284.5
413.026	290.64
413.234	356.18
413.443	333.65
413.651	341.84
413.86	382.8
414.068	368.46
414.276	479.05
414.485	434
414.693	409.42
414.901	515.92
415.11	434
415.318	532.3
415.526	509.77
415.734	438.09
415.943	497.49
416.151	606.03
416.359	507.73
416.567	677.71
416.776	622.41
416.984	567.12
417.192	671.56
417.4	669.52
417.608	646.99
417.817	671.56
418.025	667.47
418.233	712.52
418.441	689.99
418.649	741.19
418.857	835.4
419.065	780.11
419.273	821.06
419.481	788.3
419.689	952.13
419.897	919.37
420.105	950.09
420.313	941.89
420.521	986.95
420.729	1001.29
420.937	1060.68
421.145	1089.35
421.353	1208.13
421.561	1218.37
421.769	1277.76
421.977	1210.18
422.185	1238.85
422.393	1376.06
422.601	1431.36
422.809	1523.52
423.017	1476.41
423.224	1500.99
423.432	1492.8
423.64	1630.01
423.848	1746.75
424.056	1756.99
424.263	1826.62
424.471	1744.7
424.679	1871.67
424.887	1990.45
425.094	1998.65
425.302	2090.81
425.51	2088.76
425.718	2123.57
425.925	2099
426.133	2191.16
426.341	2457.39
426.548	2404.14
426.756	2494.26
426.964	2508.59
427.171	2678.57
427.379	2748.2
427.586	2780.97
427.794	2817.83
428.001	3039.01
428.209	3106.6
428.417	3104.55
428.624	3229.48
428.832	3270.44
429.039	3419.94
429.247	3303.2
429.454	3616.54
429.662	3956.5
429.869	3497.76
430.076	3817.24
430.284	3694.36
430.491	3919.64
430.699	4054.81
430.906	4128.53
431.114	4163.35
431.321	4419.35
431.528	4384.53
431.736	4495.12
431.943	4978.44
432.15	4603.66
432.358	4695.82
432.565	5093.13
432.772	5013.26
432.979	5295.88
433.187	5414.66
433.394	5369.6
433.601	5687.04
433.808	5848.83
434.016	5752.57
434.223	5943.03
434.43	6338.29
434.637	6221.56
434.844	6602.48
435.052	6831.85
435.259	6665.97
435.466	6684.4
435.673	6815.47
435.88	7141.1
436.087	7446.24
436.294	7519.97
436.501	7360.23
436.708	7376.61
436.915	7816.93
437.122	8019.67
437.329	7904.99
437.537	8218.33
437.743	8326.87
437.95	8265.43
438.157	8715.98
438.364	9047.76
438.571	9086.67
438.778	9119.43
438.985	9823.94
439.192	9494.21
439.399	9940.67
439.606	9524.93
439.813	10237.63
440.02	10956.46
440.227	10739.38
440.433	10317.5
440.64	11040.43
440.847	10784.43
441.054	11202.22
441.261	11773.6
441.467	11583.14
441.674	11638.44
441.881	12308.12
442.088	12287.64
442.294	12369.56
442.501	12474.01
442.708	12582.55
442.914	13180.56
443.121	13672.07
443.328	13459.08
443.534	14106.24
443.741	14001.79
443.948	13584.01
444.154	14982.77
444.361	14728.82
444.568	14896.75
444.774	14761.59
444.981	14952.05
445.187	15500.9
445.394	16160.35
445.6	15773.28
445.807	17180.24
446.013	16660.06
446.22	16895.57
446.426	17698.38
446.633	17747.53
446.839	18665.02
447.046	17579.59
447.252	18595.39
447.459	18495.04
447.665	18501.18
447.871	19299.89
448.078	20317.73
448.284	19351.09
448.491	19803.69
448.697	20631.07
448.903	20821.53
449.11	21036.56
449.316	20907.54
449.522	21159.44
449.728	21548.56
449.935	22185.47
450.141	21806.6
450.347	22392.32
450.553	21693.96
450.76	21952.01
450.966	22451.71
451.172	22339.07
451.378	22879.74
451.584	22525.44
451.791	23068.15
451.997	23127.54
452.203	23268.85
452.409	23723.5
452.615	23557.61
452.821	22312.45
453.027	22228.48
453.233	23617
453.44	22814.2
453.646	22693.37
453.852	22980.09
454.058	23424.5
454.264	22543.87
454.47	23217.65
454.676	22492.67
454.882	23576.05
455.088	21251.6
455.294	21638.67
455.5	22017.54
455.705	22525.44
455.911	21145.11
456.117	20766.23
456.323	20450.85
456.529	19441.2
456.735	20495.9
456.941	19750.44
457.147	19553.83
457.352	18796.09
457.558	18847.29
457.764	18884.15
457.97	18396.73
458.176	18054.72
458.381	18196.03
458.587	17227.34
458.793	17133.14
458.999	16543.32
459.204	17512.01
459.41	16895.57
459.616	16039.52
459.821	16223.84
460.027	16158.3
460.233	15488.62
460.438	14755.44
460.644	15191.66
460.85	14282.36
461.055	14038.66
461.261	14096
461.466	13123.21
461.672	12791.44
461.878	13598.34
462.083	12682.9
462.289	12545.69
462.494	12508.82
462.7	11763.36
462.905	11552.42
463.111	12033.69
463.316	11830.94
463.522	11630.24
463.727	11568.8
463.932	11777.7
464.138	11445.93
464.343	11474.6
464.549	11263.66
464.754	11388.58
464.959	11562.66
465.165	11249.32
465.37	11005.61
465.575	10630.84
465.781	11200.17
465.986	11093.68
466.191	10813.1
466.397	10434.23
466.602	10038.97
466.807	10567.35
467.012	10370.74
467.218	10249.91
467.423	10176.19
467.628	10211
467.833	10632.88
468.038	10335.93
468.244	10200.76
468.449	10501.81
468.654	10133.18
468.859	10170.04
469.064	10010.3
469.269	9518.79
469.474	9578.18
469.679	9852.61
469.885	9576.13
470.09	9709.25
470.295	9615.04
470.5	9293.51
470.705	9438.92
470.91	9150.15
471.115	9248.46
471.32	9258.7
471.525	9432.77
471.73	9006.8
471.935	8949.45
472.139	8580.82
472.344	8855.25
472.549	8629.97
472.754	8584.91
472.959	8711.89
473.164	8496.85
473.369	8062.68
473.574	8586.96
473.778	8378.07
473.983	8349.4
474.188	8261.34
474.393	7843.55
474.598	8130.27
474.802	7896.8
475.007	7876.32
475.212	7900.89
475.417	7513.83
475.621	7671.52
475.826	7644.9
476.031	7487.2
476.235	7223.02
476.44	7550.69
476.645	7302.89
476.849	7300.84
477.054	7272.17
477.259	7003.88
477.463	7196.39
477.668	6991.59
477.872	7163.62
478.077	6856.43
478.282	6786.8
478.486	6647.54
478.691	6579.95
478.895	6606.58
479.1	6579.95
479.304	6606.58
479.509	6504.18
479.713	6446.83
479.918	6334.2
480.122	6285.05
480.326	6332.15
480.531	6414.07
480.735	6348.53
480.94	6364.92
481.144	6381.3
481.348	6192.89
481.553	6156.02
481.757	6113.02
481.961	6299.38
482.166	6246.13
482.37	6209.27
482.574	6235.89
482.778	6076.15
482.983	6090.49
483.187	6094.58
483.391	6186.74
483.595	6010.62
483.8	6182.65
484.004	6053.62
484.208	6194.93
484.412	5959.42
484.616	5990.14
484.821	6080.25
485.025	6012.67
485.229	6180.6
485.433	6063.86
485.637	5959.42
485.841	6137.59
486.045	6063.86
486.249	6041.34
486.453	6000.38
486.657	6041.34
486.861	6145.78
487.065	5938.94
487.269	6020.86
487.473	5992.19
487.677	6129.4
487.881	6225.65
488.085	6104.82
488.289	6205.17
488.493	6084.34
488.697	6239.99
488.901	6020.86
489.105	6213.37
489.309	6301.43
489.512	6295.29
489.716	6129.4
489.92	6160.12
490.124	6121.21
490.328	6219.51
490.531	6145.78
490.735	6360.82
490.939	6266.61
491.143	6356.72
491.346	6192.89
491.55	6665.97
491.754	6430.45
491.958	6555.38
492.161	6387.44
492.365	6414.07
492.569	6315.76
492.772	6506.23
492.976	6522.61
493.18	6641.39
493.383	6721.26
493.587	6727.41
493.79	6815.47
493.994	6729.45
494.197	6825.71
494.401	6987.5
494.605	6774.51
494.808	7036.65
495.012	6858.48
495.215	7089.9
495.419	7065.32
495.622	7159.53
495.825	7315.17
496.029	7276.26
496.232	7395.04
496.436	7167.72
496.639	7565.03
496.843	7425.76
497.046	7405.28
497.249	7675.62
497.453	7782.11
497.656	7800.54
497.859	7806.69
498.063	7802.59
498.266	8066.78
498.469	7952.09
498.673	8259.29
498.876	8117.98
499.079	8285.91
499.282	8396.5
499.485	8670.93
499.689	8478.42
499.892	8474.32
500.095	8740.56
500.298	9043.66
500.501	8654.55
500.705	9043.66
500.908	9223.88
501.111	9236.17
501.314	9395.91
501.517	9602.75
501.72	9645.76
501.923	9576.13
502.126	9836.22
502.329	9991.87
502.532	9938.62
502.735	9948.86
502.938	10315.45
503.141	10372.79
503.344	10501.81
503.547	10430.13
503.75	10690.23
503.953	10727.09
504.156	10804.91
504.359	11181.74
504.562	11239.08
504.765	11198.12
504.968	11368.1
505.17	11681.44
505.373	11462.31
505.576	11724.45
505.779	12033.69
505.982	12185.24
506.185	12240.54
506.387	12394.14
506.59	12543.64
506.793	12699.28
506.996	12854.93
507.198	12897.94
507.401	13026.96
507.604	12938.9
507.807	13602.44
508.009	13287.05
508.212	13500.04
508.415	13696.64
508.617	13784.71
508.82	13913.73
509.022	13905.54
509.225	14581.37
509.428	14397.05
509.63	14796.4
509.833	14634.61
510.035	14816.88
510.238	14921.33
510.44	15130.22
510.643	15558.25
510.845	15685.22
511.048	15429.23
511.25	15754.85
511.453	15920.74
511.655	16481.88
511.858	16197.21
512.06	16336.48
512.262	16723.54
512.465	16705.11
512.667	16911.96
512.87	17245.77
513.072	17221.2
513.274	17571.4
513.477	17571.4
513.679	17718.85
513.881	18198.08
514.084	18001.47
514.286	18359.87
514.488	18196.03
514.69	18810.42
514.893	18837.05
515.095	18878.01
515.297	19408.43
515.499	19062.32
515.701	19516.97
515.904	19578.41
516.106	19856.93
516.308	20125.22
516.51	20409.89
516.712	20416.03
516.914	20672.03
517.116	20952.6
517.318	21130.77
517.52	20940.31
517.722	21454.35
517.925	21532.17
518.127	21587.47
518.329	22242.82
518.531	21790.22
518.733	22306.3
518.935	22529.53
519.136	22429.18
519.338	22910.46
519.54	22994.42
519.742	23244.27
519.944	23451.12
520.146	23891.43
520.348	24010.21
520.55	23881.19
520.752	24024.55
520.954	24540.64
521.155	24503.78
521.357	24755.68
521.559	24933.85
521.761	25052.63
521.963	25265.62
522.164	25472.46
522.366	25699.79
522.568	25972.17
522.77	25904.59
522.971	26504.64
523.173	26297.8
523.375	26439.11
523.576	26891.71
523.778	26699.2
523.98	26998.2
524.181	27362.74
524.383	27110.84
524.584	27637.17
524.786	27635.12
524.988	27680.17
525.189	27792.81
525.391	27964.84
525.592	28052.91
525.794	28102.06
525.995	28460.45
526.197	28169.64
526.398	28655.01
526.6	28796.32
526.801	28870.04
527.003	28900.76
527.204	28945.82
527.406	29451.67
527.607	29275.54
527.808	29078.94
528.01	28900.76
528.211	29404.56
528.412	30317.96
528.614	29969.8
528.815	29564.31
529.016	30002.57
529.218	29814.16
529.419	29955.47
529.62	30094.73
529.822	29887.89
530.023	30242.18
530.224	30485.89
530.425	30498.18
530.626	29873.55
530.828	30444.93
531.029	30850.43
531.23	30348.68
531.431	30336.39
531.632	30643.59
531.833	30688.64
532.035	30672.26
532.236	30498.18
532.437	30872.96
532.638	30764.42
532.839	30946.69
533.04	31268.22
533.241	30752.13
533.442	31225.21
533.643	30944.64
533.844	30834.05
534.045	31145.34
534.246	30518.66
534.447	30993.79
534.648	30963.07
534.849	30776.7
535.05	30829.95
535.251	30971.26
535.451	31202.68
535.652	30928.25
535.853	30901.63
536.054	31280.5
536.255	31147.39
536.456	30913.92
536.657	31352.18
536.857	31087.99
537.058	30961.02
537.259	31507.83
537.46	31157.63
537.66	31145.34
537.861	31118.71
538.062	30938.49
538.263	31391.09
538.463	31004.03
538.664	31051.13
538.865	31325.56
539.065	31157.63
539.266	30846.33
539.466	31411.57
539.667	30838.14
539.868	31530.36
540.068	30762.37
540.269	30895.49
540.469	31356.28
540.67	31180.15
540.87	31495.54
541.071	30944.64
541.271	31432.05
541.472	30877.05
541.672	30799.23
541.873	31112.57
542.073	30774.66
542.274	30862.72
542.474	31305.08
542.675	30729.6
542.875	31178.11
543.075	31034.75
543.276	30829.95
543.476	31399.29
543.676	31014.27
543.877	31116.67
544.077	30836.09
544.277	30719.36
544.478	30858.62
544.678	31286.65
544.878	30848.38
545.078	31065.47
545.279	30872.96
545.479	30815.62
545.679	30582.15
545.879	30692.74
546.079	30866.81
546.28	31096.19
546.48	30743.94
546.68	30756.22
546.88	31044.99
547.08	30721.41
547.28	30580.1
547.48	30389.64
547.68	30576
547.88	30342.53
548.081	30879.1
548.281	30809.47
548.481	30725.5
548.681	30999.93
548.881	30903.68
549.081	30502.28
549.28	31016.32
549.48	30848.38
549.68	30875.01
549.88	30915.97
550.08	30731.65
550.28	30788.99
550.48	30729.6
550.68	30950.78
550.88	30485.89
551.08	30733.7
551.279	30784.9
551.479	30604.67
551.679	30694.78
551.879	30489.99
552.079	30694.78
552.278	30557.57
552.478	30668.16
552.678	30602.63
552.878	30422.41
553.077	30678.4
553.277	30408.07
553.477	31180.15
553.676	30360.97
553.876	30535.04
554.076	30436.74
554.275	30403.97
554.475	30150.03
554.674	30422.41
554.874	30426.5
555.074	30199.18
555.273	30236.04
555.473	30606.72
555.672	29834.64
555.872	30399.88
556.071	30084.49
556.271	30526.85
556.47	30252.42
556.67	29724.05
556.869	30174.6
557.068	30215.56
557.268	29918.6
557.467	30119.31
557.667	30199.18
557.866	29920.65
558.065	29963.66
558.265	29517.2
558.464	29287.83
558.663	30070.15
558.863	29394.32
559.062	30092.68
559.261	29580.69
559.461	30127.5
559.66	29500.82
559.859	29693.33
560.058	29470.1
560.258	29687.18
560.457	29293.97
560.656	29574.55
560.855	29183.38
561.054	29457.81
561.253	29146.52
561.453	29388.18
561.652	29488.53
561.851	29377.94
562.05	29101.47
562.249	28915.1
562.448	29410.71
562.647	29060.51
562.846	28827.04
563.045	28773.79
563.244	28853.66
563.443	28892.57
563.642	28605.86
563.841	28499.36
564.04	28532.13
564.239	28568.99
564.438	28544.42
564.637	28339.62
564.836	28745.12
565.035	28210.6
565.234	28353.96
565.432	28108.2
565.631	28206.5
565.83	28102.06
566.029	27874.73
566.228	28005.8
566.427	28124.58
566.625	27921.84
566.824	27794.86
567.023	27954.6
567.222	27682.22
567.42	28130.73
567.619	27725.23
567.818	27375.03
568.016	27383.22
568.215	27458.99
568.414	27104.7
568.612	27596.21
568.811	26768.83
569.01	27360.69
569.208	26738.11
569.407	27303.35
569.605	26545.6
569.804	27094.46
570.002	26615.23
570.201	26774.97
570.4	26609.09
570.598	26480.07
570.797	26375.62
570.995	26527.17
571.193	25978.31
571.392	26789.31
571.59	26162.63
571.789	26543.55
571.987	26322.37
572.186	26244.55
572.384	25554.38
572.582	26246.6
572.781	26166.73
572.979	25646.54
573.177	25851.34
573.376	25716.17
573.574	25685.45
573.772	25822.67
573.971	25427.41
574.169	25431.51
574.367	25200.08
574.565	25482.7
574.763	25349.59
574.962	25376.21
575.16	24737.24
575.358	25204.18
575.556	24870.36
575.754	25044.44
575.952	24839.64
576.151	24989.14
576.349	24722.91
576.547	24542.69
576.745	24327.65
576.943	24210.92
577.141	24337.89
577.339	24333.79
577.537	24190.44
577.735	24438.24
577.933	24069.61
578.131	24178.15
578.329	23907.82
578.527	23920.1
578.725	23719.4
578.923	24172
579.121	23803.37
579.319	23612.91
579.516	23846.38
579.714	23772.65
579.912	23698.92
580.11	23715.31
580.308	23498.22
580.506	23338.48
580.704	22849.02
580.901	23211.51
581.099	23330.29
581.297	23078.39
581.495	22996.47
581.692	22984.18
581.89	22464
582.088	23197.17
582.285	22783.48
582.483	22750.71
582.681	22916.6
582.878	22490.62
583.076	22308.35
583.274	22709.75
583.471	22355.46
583.669	22382.08
583.866	22562.3
584.064	22349.31
584.262	21990.92
584.459	22046.21
584.657	21927.43
584.854	22265.35
585.052	21863.94
585.249	21857.8
585.447	21992.97
585.644	21822.98
585.841	21517.84
586.039	21773.83
586.236	21532.17
586.434	21233.17
586.631	21163.54
586.828	21528.08
587.026	21595.66
587.223	21364.24
587.42	21196.31
587.618	21050.9
587.815	21085.72
588.012	21030.42
588.21	20962.84
588.407	21059.09
588.604	20729.37
588.801	20745.75
588.999	21044.76
589.196	20885.01
589.393	20839.96
589.59	20534.81
589.787	20532.76
589.984	20489.76
590.182	20213.28
590.379	20528.67
590.576	20348.45
590.773	20276.77
590.97	20170.27
591.167	20370.97
591.364	19713.58
591.561	20063.78
591.758	19738.15
591.955	19969.57
592.152	20055.59
592.349	19643.95
592.546	19938.85
592.743	19736.1
592.94	19406.38
593.137	19592.75
593.334	19557.93
593.531	19271.22
593.727	19349.04
593.924	19332.65
594.121	19136.05
594.318	19297.84
594.515	19050.03
594.712	19103.28
594.908	18994.74
595.105	19047.99
595.302	19047.99
595.499	19086.9
595.696	18951.73
595.892	18386.49
596.089	18583.1
596.286	18886.2
596.482	18509.37
596.679	18556.47
596.876	18636.34
597.072	18579
597.269	18583.1
597.466	18353.73
597.662	18456.12
597.859	18185.79
598.055	18183.74
598.252	17925.7
598.448	17815.11
598.645	17950.28
598.841	18007.62
599.038	18052.67
599.234	17708.62
599.431	17747.53
599.627	17532.49
599.824	17718.85
600.02	17481.29
600.217	17489.48
600.413	17765.96
600.609	17579.59
600.806	17253.97
601.002	17538.63
601.198	17272.4
601.395	17253.97
601.591	17253.97
601.787	17163.86
601.984	17335.88
602.18	17094.22
602.376	16635.48
602.572	16854.61
602.769	16887.38
602.965	16725.59
603.161	16850.52
603.357	16629.34
603.553	16555.61
603.75	16686.68
603.946	16442.97
604.142	16559.7
604.338	16137.82
604.534	16406.11
604.73	16197.21
604.926	16293.47
605.122	16461.4
605.318	16178.78
605.514	16125.54
605.71	16043.62
605.906	16082.53
606.102	16066.14
606.298	16137.82
606.494	16150.11
606.69	16127.58
606.886	15988.32
607.082	15597.16
607.278	15892.07
607.474	15775.33
607.67	15926.88
607.866	15588.97
608.062	15943.27
608.257	15709.8
608.453	15591.02
608.649	15648.36
608.845	15285.87
609.041	15355.5
609.236	15259.24
609.432	15474.28
609.628	15339.12
609.824	15167.09
610.019	15199.85
610.215	15201.9
610.411	15285.87
610.606	15230.57
610.802	15027.82
610.998	14909.04
611.193	15042.16
611.389	14958.19
611.584	14874.23
611.78	14802.55
611.976	15148.65
612.171	14958.19
612.367	14777.97
612.562	14648.95
612.758	14624.37
612.953	14599.8
613.149	15134.32
613.344	14868.08
613.539	14560.89
613.735	14827.12
613.93	14794.36
614.126	14243.45
614.321	14763.64
614.517	14401.15
614.712	14409.34
614.907	14567.03
615.103	14626.42
615.298	14409.34
615.493	14515.83
615.688	14055.04
615.884	14276.22
616.079	14114.43
616.274	14376.57
616.47	14302.84
616.665	14106.24
616.86	14012.03
617.055	13880.96
617.25	14134.91
617.445	13919.87
617.641	13743.75
617.836	13805.19
618.031	13895.3
618.226	13971.07
618.421	13860.48
618.616	13858.43
618.811	13733.51
619.006	13917.82
619.201	13350.54
619.396	13485.7
619.591	13418.12
619.786	13457.03
619.981	13237.9
620.176	13352.59
620.371	13180.56
620.566	13182.6
620.761	13188.75
620.956	13338.25
621.151	13035.15
621.346	13239.95
621.541	12842.64
621.735	13016.72
621.93	12854.93
622.125	12719.76
622.32	12682.9
622.515	12545.69
622.709	12394.14
622.904	12633.75
623.099	12191.39
623.294	12369.56
623.488	12162.72
623.683	12312.22
623.878	12291.74
624.072	11966.11
624.267	11681.44
624.462	12000.93
624.656	11808.42
624.851	11822.75
625.046	11796.13
625.24	11785.89
625.435	11603.62
625.629	11609.76
625.824	11288.23
626.018	11501.22
626.213	11065
626.407	11380.39
626.602	10960.56
626.796	11255.47
626.991	11404.97
627.185	11181.74
627.38	11026.09
627.574	10991.28
627.768	10706.61
627.963	10991.28
628.157	10716.85
628.352	10675.89
628.546	10684.08
628.74	10626.74
628.935	10577.59
629.129	10460.85
629.323	10270.39
629.517	10335.93
629.712	10387.13
629.906	10325.69
630.1	10034.88
630.294	10088.12
630.489	10180.28
630.683	9920.19
630.877	9854.65
631.071	9868.99
631.265	9895.61
631.459	9846.46
631.653	9739.97
631.848	9641.67
632.042	9768.64
632.236	9731.78
632.43	9428.68
632.624	9674.43
632.818	9649.86
633.012	9422.53
633.206	9410.25
633.4	9520.84
633.594	9352.9
633.788	9279.18
633.982	9164.49
634.176	9240.26
634.369	9080.52
634.563	9047.76
634.757	9043.66
634.951	9178.83
635.145	8945.36
635.339	8945.36
635.533	8904.4
635.726	8881.87
635.92	8529.62
636.114	8644.31
636.308	8650.45
636.501	8767.18
636.695	8457.94
636.889	8519.38
637.083	8396.5
637.276	8353.49
637.47	8402.65
637.664	8402.65
637.857	8445.65
638.051	8099.55
638.244	8189.66
638.438	8109.79
638.632	8216.28
638.825	8181.46
639.019	8042.2
639.212	7986.91
639.406	7888.6
639.599	7958.24
639.793	7775.97
639.986	7687.9
640.18	7773.92
640.373	7732.96
640.567	7624.42
640.76	7737.06
640.954	7548.64
641.147	7433.96
641.34	7769.82
641.534	7683.81
641.727	7587.55
641.92	7290.6
642.114	7481.06
642.307	7376.61
642.5	7343.85
642.694	7214.82
642.887	7053.03
643.08	7186.15
643.273	7053.03
643.467	7180.01
643.66	7048.94
643.853	7122.66
644.046	6840.04
644.239	7036.65
644.432	6815.47
644.626	6733.55
644.819	6786.8
645.012	6737.65
645.205	6657.78
645.398	6772.46
645.591	6717.17
645.784	6653.68
645.977	6469.36
646.17	6668.02
646.363	6547.19
646.556	6635.25
646.749	6373.11
646.942	6459.12
647.135	6534.9
647.328	6301.43
647.521	6262.52
647.714	6229.75
647.907	6213.37
648.099	6086.39
648.292	6143.74
648.485	6047.48
648.678	6037.24
648.871	5963.51
649.064	5936.89
649.256	5820.16
649.449	5893.88
649.642	5777.15
649.835	5897.98
650.027	5848.83
650.22	5695.23
650.413	5783.29
650.605	5869.31
650.798	5627.65
650.991	5508.87
651.183	5490.43
651.376	5562.11
651.568	5635.84
651.761	5451.52
651.954	5504.77
652.146	5500.67
652.339	5613.31
652.531	5359.36
652.724	5580.54
652.916	5449.47
653.109	5277.44
653.301	5482.24
653.494	5377.8
653.686	5211.91
653.879	5390.08
654.071	5259.01
654.263	5373.7
654.456	5345.03
654.648	5191.43
654.84	5019.4
655.033	4882.19
655.225	5226.25
655.417	4933.39
655.61	5048.07
655.802	4992.78
655.994	4761.36
656.186	4794.12
656.379	4908.81
656.571	4849.42
656.763	4562.7
656.955	4783.88
657.148	4710.16
657.34	4751.12
657.532	4644.62
657.724	4581.14
657.916	4708.11
658.108	4661.01
658.3	4507.41
658.492	4673.29
658.684	4566.8
658.876	4607.76
659.068	4493.07
659.26	4431.63
659.452	4448.02
659.644	4488.98
659.836	4378.39
660.028	4482.83
660.22	4226.84
660.412	4247.32
660.604	4122.39
660.796	4376.34
660.988	4425.49
661.18	4163.35
661.372	4239.12
661.563	4275.99
661.755	4177.69
661.947	4157.21
662.139	4071.19
662.331	4179.73
662.522	4048.66
662.714	4173.59
662.906	3948.31
663.097	3989.27
663.289	4095.77
663.481	3919.64
663.673	3907.35
663.864	3915.55
664.056	3825.43
664.247	3792.67
664.439	3751.71
664.631	3811.1
664.822	3839.77
665.014	3976.98
665.205	3794.72
665.397	3661.6
665.588	3876.63
665.78	3669.79
665.971	3720.99
666.163	3784.48
666.354	3751.71
666.546	3764
666.737	3618.59
666.929	3591.97
667.12	3598.11
667.311	3530.53
667.503	3489.57
667.694	3598.11
667.885	3428.13
668.077	3489.57
668.268	3583.77
668.459	3464.99
668.651	3548.96
668.842	3458.85
669.033	3354.4
669.224	3383.07
669.416	3446.56
669.607	3317.54
669.798	3309.35
669.989	3395.36
670.18	3317.54
670.371	3182.37
670.563	3227.43
670.754	3417.89
670.945	3215.14
671.136	3272.48
671.327	3215.14
671.518	3196.71
671.709	3161.89
671.9	3180.32
672.091	3071.78
672.282	3122.98
672.473	3194.66
672.664	3157.8
672.855	3032.87
673.046	3118.89
673.237	3272.48
673.428	3125.03
673.619	2955.05
673.809	3049.25
674	3120.93
674.191	3026.73
674.382	3055.4
674.573	3055.4
674.764	2950.95
674.954	2993.96
675.145	3055.4
675.336	2903.85
675.527	2944.81
675.717	2977.58
675.908	3014.44
676.099	2967.34
676.289	2871.08
676.48	2883.37
676.671	2877.23
676.861	2875.18
677.052	2850.6
677.243	2981.67
677.433	2883.37
677.624	2899.75
677.814	2809.64
678.005	2811.69
678.195	2924.33
678.386	2766.64
678.576	2860.84
678.767	2715.44
678.957	2826.03
679.148	2903.85
679.338	2860.84
679.529	2789.16
679.719	2787.11
679.909	2770.73
680.1	2787.11
680.29	2807.59
680.481	2793.26
680.671	2871.08
680.861	2789.16
681.052	2723.63
681.242	2727.72
681.432	2766.64
681.622	2682.67
681.813	2680.62
682.003	2649.9
682.193	2721.58
682.383	2828.07
682.573	2570.03
682.764	2647.85
682.954	2733.87
683.144	2748.2
683.334	2735.92
683.524	2672.43
683.714	2660.14
683.904	2686.76
684.094	2615.09
684.284	2613.04
684.474	2735.92
684.664	2627.37
684.854	2541.36
685.044	2586.41
685.234	2598.7
685.424	2658.09
685.614	2584.37
685.804	2686.76
685.994	2490.16
686.184	2576.17
686.374	2592.56
686.564	2449.2
686.753	2432.82
686.943	2514.73
687.133	2416.43
687.323	2524.97
687.513	2537.26
687.702	2500.4
687.892	2578.22
688.082	2563.89
688.272	2514.73
688.461	2391.86
688.651	2531.12
688.841	2445.1
689.03	2418.48
689.22	2430.77
689.41	2481.97
689.599	2287.41
689.789	2432.82
689.979	2467.63
690.168	2453.3
690.358	2383.66
690.547	2350.9
690.737	2426.67
690.926	2404.14
691.116	2342.71
691.305	2416.43
691.495	2273.07
691.684	2354.99
691.874	2379.57
692.063	2303.79
692.252	2295.6
692.442	2297.65
692.631	2359.09
692.82	2383.66
693.01	2240.31
693.199	2236.21
693.388	2234.16
693.578	2250.55
693.767	2256.69
693.956	2291.51
694.146	2228.02
694.335	2248.5
694.524	2252.59
694.713	2230.07
694.902	2162.48
695.092	2158.39
695.281	2146.1
695.47	2277.17
695.659	2078.52
695.848	2111.29
696.037	2137.91
696.226	2164.53
696.415	2129.72
696.604	2154.29
696.793	2174.77
696.982	1986.36
697.171	2197.3
697.36	2158.39
697.549	2082.61
697.738	2211.64
697.927	2096.95
698.116	2096.95
698.305	2086.71
698.494	2244.4
698.683	2103.09
698.872	2180.92
699.061	2033.46
699.25	2191.16
699.438	2129.72
699.627	2160.44
699.816	2129.72
700.005	2064.18
700.193	2146.1
700.382	2219.83
700.571	2023.22
700.76	2092.85
700.948	2090.81
701.137	1990.45
701.326	2115.38
701.514	2033.46
701.703	2080.57
701.892	2076.47
702.08	2158.39
702.269	2066.23
702.457	1949.5
702.646	1967.93
702.834	2062.13
703.023	2051.89
703.212	2105.14
703.4	2076.47
703.589	2062.13
703.777	2101.05
703.965	2025.27
704.154	2158.39
704.342	2000.69
704.531	2105.14
704.719	2064.18
704.907	2164.53
705.096	2082.61
705.284	2025.27
705.472	2060.09
705.661	2049.85
705.849	2033.46
706.037	1994.55
706.226	2043.7
706.414	2015.03
706.602	1904.44
706.79	1986.36
706.979	1957.69
707.167	2055.99
707.355	2010.93
707.543	1992.5
707.731	2086.71
707.919	1929.02
708.107	2025.27
708.296	1918.78
708.484	1916.73
708.672	1935.16
708.86	2006.84
709.048	1859.38
709.236	1957.69
709.424	2060.09
709.612	1996.6
709.8	1926.97
709.988	2025.27
710.176	2041.65
710.364	2156.34
710.551	2080.57
710.739	2008.89
710.927	2058.04
711.115	2000.69
711.303	1881.91
711.491	1998.65
711.679	1998.65
711.866	2039.61
712.054	1933.11
712.242	1881.91
712.43	2053.94
712.617	1949.5
712.805	2015.03
712.993	2015.03
713.181	1943.35
713.368	1988.41
713.556	2006.84
713.744	1941.3
713.931	2039.61
714.119	1994.55
714.306	2002.74
714.494	1998.65
714.682	2029.37
714.869	1918.78
715.057	1957.69
715.244	1875.77
715.432	1957.69
715.619	1982.26
715.807	2010.93
715.994	2015.03
716.182	1910.58
716.369	2025.27
716.556	2031.41
716.744	2053.94
716.931	1904.44
717.119	1957.69
717.306	1937.21
717.493	1996.6
717.681	2033.46
717.868	2010.93
718.055	1996.6
718.242	2002.74
718.43	2015.03
718.617	1957.69
718.804	1912.63
718.991	1933.11
719.179	1998.65
719.366	1978.17
719.553	1943.35
719.74	1898.3
719.927	2006.84
720.114	2000.69
720.301	1937.21
720.488	1861.43
720.676	1883.96
720.863	1982.26
721.05	1902.39
721.237	1965.88
721.424	2017.08
721.611	2088.76
721.798	1902.39
721.985	1797.95
722.172	1883.96
722.358	1967.93
722.545	1972.02
722.732	1984.31
722.919	1953.59
723.106	1929.02
723.293	1998.65
723.48	1879.86
723.667	1951.54
723.853	1908.54
724.04	1986.36
724.227	1986.36
724.414	1974.07
724.6	2031.41
724.787	1945.4
724.974	1982.26
725.161	2035.51
725.347	1834.81
725.534	1949.5
725.72	2019.13
725.907	1916.73
726.094	1892.15
726.28	1937.21
726.467	1877.82
726.653	1990.45
726.84	1937.21
727.027	1937.21
727.213	1926.97
727.4	1924.92
727.586	1926.97
727.773	1918.78
727.959	1892.15
728.145	1937.21
728.332	1961.78
728.518	1990.45
728.705	1933.11
728.891	2010.93
729.077	1992.5
729.264	1886.01
729.45	1855.29
729.636	1988.41
729.823	1965.88
730.009	1933.11
730.195	2025.27
730.382	1945.4
730.568	1912.63
730.754	2023.22
730.94	1994.55
731.126	1875.77
731.313	2025.27
731.499	1935.16
731.685	1926.97
731.871	1834.81
732.057	1904.44
732.243	1941.3
732.429	2055.99
732.615	1900.34
732.801	1959.74
732.987	1871.67
733.173	1953.59
733.359	1888.06
733.545	1974.07
733.731	1943.35
733.917	1900.34
734.103	1959.74
734.289	1851.19
734.475	1875.77
734.661	1933.11
734.847	1810.23
735.033	1941.3
735.219	1918.78
735.404	1972.02
735.59	1949.5
735.776	1883.96
735.962	1865.53
736.148	1836.86
736.333	1869.62
736.519	1836.86
736.705	1732.41
736.89	1849.15
737.076	1859.38
737.262	1718.08
737.447	1709.88
737.633	1904.44
737.819	1818.43
738.004	1859.38
738.19	1756.99
738.375	1705.79
738.561	1867.58
738.747	1777.47
738.932	1830.71
739.118	1752.89
739.303	1851.19
739.489	1822.52
739.674	1673.02
739.859	1750.84
740.045	1740.6
740.23	1752.89
740.416	1783.61
740.601	1769.27
740.786	1732.41
740.972	1742.65
741.157	1754.94
741.342	1705.79
741.528	1699.64
741.713	1773.37
741.898	1785.66
742.084	1668.92
742.269	1748.79
742.454	1611.58
742.639	1621.82
742.824	1711.93
743.01	1662.78
743.195	1703.74
743.38	1666.88
743.565	1679.16
743.75	1695.55
743.935	1630.01
744.12	1560.38
744.305	1662.78
744.49	1701.69
744.675	1703.74
744.86	1605.44
745.045	1623.87
745.23	1591.1
745.415	1679.16
745.6	1560.38
745.785	1677.12
745.97	1591.1
746.155	1570.62
746.34	1705.79
746.525	1527.61
746.71	1638.2
746.895	1523.52
747.079	1564.48
747.264	1576.77
747.449	1533.76
747.634	1474.37
747.819	1511.23
748.003	1474.37
748.188	1484.61
748.373	1507.13
748.557	1429.31
748.742	1474.37
748.927	1523.52
749.111	1500.99
749.296	1369.92
749.481	1408.83
749.665	1337.15
749.85	1367.87
750.034	1435.46
750.219	1427.26
750.404	1363.78
750.588	1347.39
750.773	1310.53
750.957	1376.06
751.141	1384.26
751.326	1394.5
751.51	1294.15
751.695	1355.58
751.879	1320.77
752.064	1347.39
752.248	1279.81
752.432	1247.04
752.617	1294.15
752.801	1285.95
752.985	1300.29
753.17	1253.19
753.354	1281.86
753.538	1283.91
753.722	1261.38
753.907	1331.01
754.091	1161.03
754.275	1191.75
754.459	1165.12
754.643	1163.08
754.828	1236.8
755.012	1277.76
755.196	1169.22
755.38	1038.15
755.564	1132.36
755.748	1187.65
755.932	1195.84
756.116	1150.79
756.3	1150.79
756.484	1097.54
756.668	1048.39
756.852	1081.16
757.036	1156.93
757.22	1113.92
757.404	997.19
757.588	1040.2
757.772	1019.72
757.956	1007.43
758.14	1011.53
758.323	1025.86
758.507	1052.49
758.691	999.24
758.875	1029.96
759.059	1040.2
759.242	991.05
759.426	1021.77
759.61	1050.44
759.794	1001.29
759.977	1001.29
760.161	1036.1
760.345	905.03
760.528	952.13
760.712	966.47
760.895	984.9
761.079	950.09
761.263	892.74
761.446	880.46
761.63	917.32
761.813	921.42
761.997	933.7
762.18	853.83
762.364	976.71
762.547	878.41
762.731	931.66
762.914	905.03
763.098	886.6
763.281	917.32
763.464	935.75
763.648	859.98
763.831	827.21
764.015	835.4
764.198	884.55
764.381	919.37
764.564	876.36
764.748	843.59
764.931	862.02
765.114	919.37
765.297	827.21
765.481	896.84
765.664	821.06
765.847	870.22
766.03	782.15
766.213	821.06
766.397	870.22
766.58	728.91
766.763	823.11
766.946	794.44
767.129	804.68
767.312	739.15
767.495	761.67
767.678	798.54
767.861	771.91
768.044	829.26
768.227	819.02
768.41	790.35
768.593	806.73
768.776	874.31
768.959	626.51
769.142	804.68
769.324	761.67
769.507	810.82
769.69	771.91
769.873	841.54
770.056	855.88
770.239	692.04
770.421	853.83
770.604	763.72
770.787	765.77
770.97	730.95
771.152	646.99
771.335	737.1
771.518	735.05
771.7	747.34
771.883	722.76
772.066	741.19
772.248	737.1
772.431	687.95
772.613	618.32
772.796	706.38
772.978	663.37
773.161	745.29
773.343	755.53
773.526	638.8
773.708	675.66
773.891	630.6
774.073	706.38
774.256	720.71
774.438	626.51
774.621	606.03
774.803	608.08
774.985	649.04
775.168	646.99
775.35	663.37
775.532	565.07
775.715	581.45
775.897	663.37
776.079	567.12
776.261	606.03
776.444	649.04
776.626	708.43
776.808	593.74
776.99	507.73
777.173	593.74
777.355	630.6
777.537	626.51
777.719	657.23
777.901	630.6
778.083	565.07
778.265	517.97
778.447	542.54
778.629	524.11
778.811	614.22
778.993	606.03
779.175	587.6
779.357	409.42
779.539	442.19
779.721	577.36
779.903	589.64
780.085	466.77
780.267	630.6
780.449	479.05
780.631	487.25
780.812	466.77
780.994	532.3
781.176	474.96
781.358	540.49
781.54	567.12
781.721	462.67
781.903	515.92
782.085	411.47
782.267	458.57
782.448	444.24
782.63	499.53
782.812	427.85
782.993	438.09
783.175	532.3
783.357	458.57
783.538	532.3
783.72	401.23
783.901	393.04
784.083	442.19
784.264	378.7
784.446	401.23
784.627	343.89
784.809	442.19
784.99	366.42
785.172	364.37
785.353	393.04
785.535	274.26
785.716	337.74
785.897	339.79
786.079	352.08
786.26	352.08
786.441	452.43
786.623	280.4
786.804	311.12
786.985	436.05
787.167	427.85
787.348	352.08
787.529	311.12
787.71	370.51
787.891	278.35
788.073	323.41
788.254	315.22
788.435	477.01
788.616	286.54
788.797	294.74
788.978	311.12
789.159	298.83
789.34	347.98
789.522	294.74
789.703	278.35
789.884	343.89
790.065	255.83
790.246	370.51
790.427	372.56
790.607	327.5
790.788	319.31
790.969	286.54
791.15	261.97
791.331	337.74
791.512	327.5
791.693	233.3
791.874	264.02
792.054	446.29
792.235	311.12
792.416	296.78
792.597	278.35
792.778	278.35
792.958	261.97
793.139	223.06
793.32	319.31
793.5	204.63
793.681	350.03
793.862	311.12
794.042	307.02
794.223	239.44
794.404	304.98
794.584	245.59
794.765	274.26
794.945	292.69
795.126	329.55
795.306	261.97
795.487	235.35
795.667	257.87
795.848	294.74
796.028	298.83
796.209	233.3
796.389	335.7
796.57	313.17
796.75	204.63
796.93	223.06
797.111	319.31
797.291	225.11
797.471	237.39
797.652	249.68
797.832	237.39
798.012	313.17
798.192	212.82
798.373	264.02
798.553	225.11
798.733	229.2
798.913	245.59
799.093	229.2
799.274	272.21
799.454	245.59
799.634	180.05
799.814	192.34
799.994	235.35
800.174	255.83
800.354	237.39
800.534	137.04
800.714	274.26
800.894	229.2
801.074	122.71
801.254	237.39
801.434	298.83
801.614	216.91
801.794	192.34
801.974	665.42
802.154	161.62
802.334	239.44
802.514	253.78
802.693	204.63
802.873	180.05
803.053	253.78
803.233	239.44
803.413	204.63
803.592	182.1
803.772	139.09
803.952	157.52
804.131	124.76
804.311	221.01
804.491	214.87
804.67	229.2
804.85	106.32
805.03	190.29
805.209	196.43
805.389	159.57
805.568	182.1
805.748	122.71
805.928	155.47
806.107	229.2
806.287	198.48
806.466	157.52
806.646	139.09
806.825	139.09
807.004	167.76
807.184	180.05
807.363	180.05
807.543	253.78
807.722	188.24
807.901	188.24
808.081	264.02
808.26	91.99
808.439	149.33
808.619	163.67
808.798	100.18
808.977	184.15
809.156	225.11
809.336	139.09
809.515	108.37
809.694	196.43
809.873	130.9
810.052	196.43
810.231	245.59
810.411	147.28
810.59	227.15
810.769	155.47
810.948	192.34
811.127	36.69
811.306	184.15
811.485	165.71
811.664	229.2
811.843	188.24
812.022	124.76
812.201	118.61
812.38	91.99
812.559	106.32
812.737	126.8
812.916	59.22
813.095	159.57
813.274	137.04
813.453	108.37
813.632	71.51
813.811	130.9
813.989	159.57
814.168	149.33
814.347	106.32
814.526	204.63
814.704	130.9
814.883	198.48
815.062	124.76
815.24	122.71
815.419	94.04
815.598	73.56
815.776	100.18
815.955	122.71
816.133	147.28
816.312	151.38
816.49	114.52
816.669	71.51
816.847	106.32
817.026	122.71
817.204	155.47
817.383	159.57
817.561	77.65
817.74	57.17
817.918	122.71
818.097	59.22
818.275	51.03
818.453	69.46
818.632	186.19
818.81	94.04
818.988	106.32
819.167	75.6
819.345	91.99
819.523	155.47
819.701	130.9
819.879	116.56
820.058	91.99
820.236	65.36
820.414	42.84
820.592	155.47
820.77	110.42
820.948	81.75
821.127	108.37
821.305	106.32
821.483	83.8
821.661	116.56
821.839	124.76
822.017	110.42
822.195	114.52
822.373	118.61
822.551	73.56
822.729	139.09
822.907	38.74
823.085	48.98
823.262	188.24
823.44	130.9
823.618	151.38
823.796	112.47
823.974	55.12
824.152	151.38
824.329	59.22
824.507	98.13
824.685	75.6
824.863	83.8
825.04	141.14
825.218	159.57
825.396	137.04
825.574	116.56
825.751	75.6
825.929	89.94
826.107	-0.17
826.284	104.28
826.462	87.89
826.639	108.37
826.817	44.88
826.994	91.99
827.172	61.27
827.349	106.32
827.527	73.56
827.704	77.65
827.882	79.7
828.059	153.43
828.237	26.45
828.414	139.09
828.591	-14.51
828.769	91.99
828.946	1.88
829.124	42.84
829.301	112.47
829.478	100.18
829.655	132.95
829.833	147.28
830.01	48.98
830.187	53.08
830.364	48.98
830.542	42.84
830.719	120.66
830.896	106.32
831.073	53.08
831.25	98.13
831.427	104.28
831.604	122.71
831.782	53.08
831.959	102.23
832.136	73.56
832.313	124.76
832.49	24.4
832.667	83.8
832.844	16.21
833.021	79.7
833.198	106.32
833.374	51.03
833.551	57.17
833.728	94.04
833.905	128.85
834.082	32.6
834.259	71.51
834.436	81.75
834.612	89.94
834.789	48.98
834.966	106.32
835.143	48.98
835.319	24.4
835.496	69.46
835.673	108.37
835.85	89.94
836.026	57.17
836.203	65.36
836.38	40.79
836.556	159.57
836.733	83.8
836.909	83.8
837.086	63.32
837.262	20.31
837.439	26.45
837.616	8.02
837.792	46.93
837.968	83.8
838.145	40.79
838.321	110.42
838.498	32.6
838.674	38.74
838.851	61.27
839.027	59.22
839.203	10.07
839.38	81.75
839.556	30.55
839.732	139.09
839.909	34.64
840.085	79.7
840.261	-0.17
840.437	57.17
840.614	16.21
840.79	59.22
840.966	65.36
841.142	57.17
841.318	26.45
841.494	81.75
841.671	34.64
841.847	16.21
842.023	75.6
842.199	42.84
842.375	147.28
842.551	-14.51
842.727	-24.75
842.903	85.84
843.079	3.93
843.255	34.64
843.431	32.6
843.607	57.17
843.783	81.75
843.959	51.03
844.134	75.6
844.31	89.94
844.486	28.5
844.662	-12.46
844.838	55.12
845.013	34.64
845.189	59.22
845.365	75.6
845.541	51.03
845.716	75.6
845.892	67.41
846.068	3.93
846.244	-6.31
846.419	44.88
846.595	-8.36
846.77	-16.55
846.946	89.94
847.122	-0.17
847.297	16.21
847.473	69.46
847.648	67.41
847.824	59.22
847.999	-16.55
848.175	28.5
848.35	-8.36
848.526	122.71
848.701	-10.41
848.876	44.88
849.052	145.24
849.227	75.6
849.403	-12.46
849.578	44.88
849.753	-4.27
849.929	75.6
850.104	3.93
850.279	182.1
850.454	-2.22
850.63	69.46
850.805	53.08
850.98	100.18
851.155	34.64
851.33	116.56
851.505	12.12
851.681	139.09
851.856	18.26
852.031	-49.32
852.206	12.12
852.381	83.8
852.556	24.4
852.731	48.98
852.906	81.75
853.081	-12.46
853.256	69.46
853.431	-14.51
853.606	16.21
853.781	12.12
853.956	57.17
854.131	34.64
854.305	18.26
854.48	18.26
854.655	-47.27
854.83	-6.31
855.005	-2.22
855.18	-8.36
855.354	51.03
855.529	77.65
855.704	40.79
855.879	81.75
856.053	-0.17
856.228	-12.46
856.403	-24.75
856.577	5.97
856.752	-16.55
856.926	-14.51
857.101	44.88
857.276	-57.51
857.45	-8.36
857.625	-4.27
857.799	40.79
857.974	73.56
858.148	-30.89
858.323	130.9
858.497	42.84
858.672	16.21
858.846	10.07
859.02	40.79
859.195	-32.94
859.369	10.07
859.543	24.4
859.718	28.5
859.892	5.97
860.066	-32.94
860.241	36.69
860.415	46.93
860.589	28.5
860.763	48.98
860.938	-57.51
861.112	67.41
861.286	-8.36
861.46	26.45
861.634	57.17
861.808	48.98
861.982	55.12
862.157	53.08
862.331	-39.08
862.505	3.93
862.679	-24.75
862.853	65.36
863.027	5.97
863.201	44.88
863.375	87.89
863.549	-8.36
863.722	22.36
863.896	18.26
864.07	-51.37
864.244	-41.13
864.418	51.03
864.592	102.23
864.766	87.89
864.939	32.6
865.113	20.31
865.287	98.13
865.461	-71.85
865.634	-57.51
865.808	16.21
865.982	-4.27
866.156	10.07
866.329	26.45
866.503	3.93
866.676	-16.55
866.85	1.88
867.024	-32.94
867.197	-41.13
867.371	65.36
867.544	-37.03
867.718	-49.32
867.891	8.02
868.065	65.36
868.238	24.4
868.412	89.94
868.585	20.31
868.759	-69.8
868.932	3.93
869.105	-63.66
869.279	-39.08
869.452	57.17
869.625	65.36
869.799	8.02
869.972	-8.36
870.145	79.7
870.319	42.84
870.492	-20.65
870.665	-41.13
870.838	-73.9
871.011	-57.51
871.185	65.36
871.358	16.21
871.531	57.17
871.704	-24.75
871.877	53.08
872.05	10.07
872.223	-0.17
872.396	71.51
872.569	67.41
872.742	-2.22
872.915	73.56
873.088	-51.37
873.261	-12.46
873.434	46.93
873.607	42.84
873.78	87.89
873.953	-16.55
874.126	-77.99
874.299	-22.7
874.471	-0.17
874.644	57.17
874.817	-30.89
874.99	20.31
875.163	18.26
875.335	3.93
875.508	-8.36
875.681	65.36
875.853	20.31
876.026	91.99
876.199	-8.36
876.371	48.98
876.544	10.07
876.717	34.64
876.889	32.6
877.062	32.6
877.234	28.5
877.407	1.88
877.579	73.56
877.752	-14.51
877.924	8.02
878.097	42.84
878.269	-86.19
878.442	32.6
878.614	28.5
878.786	18.26
878.959	16.21
879.131	-8.36
879.303	-39.08
879.476	-4.27
879.648	67.41
879.82	28.5
879.993	32.6
880.165	-16.55
880.337	-4.27
880.509	16.21
880.681	10.07
880.854	44.88
881.026	57.17
881.198	-20.65
881.37	24.4
881.542	-41.13
881.714	22.36
881.886	22.36
882.058	-8.36
882.23	51.03
882.402	12.12
882.574	26.45
882.746	36.69
882.918	79.7
883.09	26.45
883.262	20.31
883.434	-4.27
883.606	-39.08
883.778	10.07
883.95	26.45
884.122	30.55
884.293	8.02
884.465	3.93
884.637	48.98
884.809	100.18
884.98	-0.17
885.152	-4.27
885.324	42.84
885.496	-82.09
885.667	-0.17
885.839	-8.36
886.011	36.69
886.182	26.45
886.354	12.12
886.525	59.22
886.697	-6.31
886.869	-28.84
887.04	-8.36
887.212	-43.18
887.383	81.75
887.555	40.79
887.726	24.4
887.897	20.31
888.069	69.46
888.24	-16.55
888.412	87.89
888.583	28.5
888.754	42.84
888.926	12.12
889.097	-86.19
889.268	-65.71
889.44	40.79
889.611	-53.42
889.782	-65.71
889.953	83.8
890.125	40.79
890.296	-59.56
890.467	-24.75
890.638	12.12
890.809	-8.36
890.98	-61.61
891.151	53.08
891.323	18.26
891.494	55.12
891.665	-14.51
891.836	75.6
892.007	32.6
892.178	98.13
892.349	16.21
892.52	8.02
892.691	-24.75
892.862	-14.51
893.032	-67.75
893.203	3.93
893.374	91.99
893.545	65.36
893.716	-73.9
893.887	57.17
894.057	36.69
894.228	32.6
894.399	-28.84
894.57	-18.6
894.74	-0.17
894.911	42.84
895.082	-16.55
895.253	-22.7
895.423	-16.55
895.594	55.12
895.764	-28.84
895.935	48.98
896.106	-0.17
896.276	26.45
896.447	-114.86
896.617	16.21
896.788	8.02
896.958	-8.36
897.129	16.21
897.299	-8.36
897.47	-69.8
897.64	44.88
897.81	-32.94
897.981	-20.65
898.151	26.45
898.322	-4.27
898.492	28.5
898.662	-26.79
898.832	57.17
899.003	48.98
899.173	42.84
899.343	-16.55
899.513	5.97
