Data from USB4F104151__56__14-43-10-500.txt Node

Date: Thu Mar 13 14:43:10 EDT 2025
User: louis
Spectrometer: USB4F10415
Trigger mode: 4
Integration Time (sec): 2.000000E-2
Scans to average: 1
Electric dark correction enabled: true
Nonlinearity correction enabled: false
Boxcar width: 0
XAxis mode: Wavelengths
Number of Pixels in Spectrum: 3648
>>>>>Begin Spectral Data<<<<<
178.204	-145.41
178.424	-145.41
178.644	-145.41
178.864	-159.74
179.084	-65.54
179.304	-92.16
179.524	-55.3
179.744	-28.67
179.964	-2.05
180.184	63.49
180.404	63.49
180.624	-14.34
180.844	24.58
181.064	18.43
181.283	6.14
181.503	-18.43
181.723	34.82
181.943	24.58
182.163	88.06
182.383	-4.1
182.602	30.72
182.822	79.87
183.042	83.97
183.262	-59.39
183.482	8.19
183.701	20.48
183.921	26.62
184.141	-32.77
184.361	71.68
184.58	61.44
184.8	12.29
185.02	-22.53
185.239	98.3
185.459	40.96
185.679	6.14
185.898	14.34
186.118	40.96
186.338	112.64
186.557	49.15
186.777	4.1
186.997	32.77
187.216	6.14
187.436	55.3
187.655	112.64
187.875	14.34
188.095	-16.38
188.314	114.69
188.534	24.58
188.753	0
188.973	61.44
189.192	38.91
189.412	92.16
189.631	43.01
189.851	65.53
190.07	59.39
190.29	22.53
190.509	6.14
190.729	30.72
190.948	114.69
191.168	116.73
191.387	83.97
191.607	57.34
191.826	47.1
192.045	12.29
192.265	6.14
192.484	-8.19
192.704	57.34
192.923	16.38
193.142	106.49
193.362	65.53
193.581	63.49
193.8	22.53
194.02	71.68
194.239	6.14
194.458	38.91
194.678	47.1
194.897	6.14
195.116	45.06
195.335	14.34
195.555	55.3
195.774	90.11
195.993	71.68
196.212	-51.2
196.432	51.2
196.651	75.77
196.87	75.77
197.089	47.1
197.308	-40.96
197.528	57.34
197.747	-47.1
197.966	49.15
198.185	47.1
198.404	26.62
198.623	24.58
198.842	0
199.062	-57.34
199.281	45.06
199.5	43.01
199.719	55.3
199.938	90.11
200.157	137.21
200.376	-6.14
200.595	59.39
200.814	47.1
201.033	-32.77
201.252	30.72
201.471	53.25
201.69	-10.24
201.909	32.77
202.128	4.1
202.347	22.53
202.566	43.01
202.785	26.62
203.004	-38.91
203.223	40.96
203.442	57.34
203.661	-2.05
203.879	49.15
204.098	18.43
204.317	-43.01
204.536	133.12
204.755	75.77
204.974	63.49
205.193	32.77
205.411	124.93
205.63	65.53
205.849	20.48
206.068	-28.67
206.287	6.14
206.505	81.92
206.724	24.58
206.943	10.24
207.162	67.58
207.381	69.63
207.599	81.92
207.818	6.14
208.037	0
208.255	26.62
208.474	14.34
208.693	30.72
208.911	-8.19
209.13	65.53
209.349	118.78
209.567	53.25
209.786	81.92
210.005	79.87
210.223	40.96
210.442	-47.1
210.661	43.01
210.879	47.1
211.098	49.15
211.316	-6.14
211.535	65.53
211.753	10.24
211.972	131.07
212.191	26.62
212.409	16.38
212.628	83.97
212.846	-26.62
213.065	83.97
213.283	92.16
213.502	-8.19
213.72	47.1
213.938	100.35
214.157	55.3
214.375	32.77
214.594	-16.38
214.812	22.53
215.031	26.62
215.249	14.34
215.467	34.82
215.686	57.34
215.904	98.3
216.122	55.3
216.341	26.62
216.559	14.34
216.778	57.34
216.996	139.26
217.214	20.48
217.432	10.24
217.651	81.92
217.869	-16.38
218.087	69.63
218.306	63.49
218.524	-26.62
218.742	-38.91
218.96	79.87
219.179	47.1
219.397	14.34
219.615	133.12
219.833	65.53
220.051	51.2
220.27	145.41
220.488	79.87
220.706	-10.24
220.924	-6.14
221.142	6.14
221.36	59.39
221.578	79.87
221.796	6.14
222.015	98.3
222.233	124.93
222.451	59.39
222.669	-16.38
222.887	12.29
223.105	45.06
223.323	94.21
223.541	81.92
223.759	55.3
223.977	38.91
224.195	-12.29
224.413	67.58
224.631	-38.91
224.849	43.01
225.067	55.3
225.285	38.91
225.503	-2.05
225.721	6.14
225.939	104.45
226.157	38.91
226.375	98.3
226.592	-26.62
226.81	36.86
227.028	71.68
227.246	104.45
227.464	30.72
227.682	-51.2
227.9	57.34
228.117	-2.05
228.335	20.48
228.553	18.43
228.771	47.1
228.989	2.05
229.206	63.49
229.424	-26.62
229.642	14.34
229.86	47.1
230.077	14.34
230.295	92.16
230.513	32.77
230.731	38.91
230.948	18.43
231.166	120.83
231.384	-2.05
231.601	6.14
231.819	65.53
232.037	-34.82
232.254	24.58
232.472	34.82
232.689	63.49
232.907	112.64
233.125	75.77
233.342	10.24
233.56	30.72
233.777	-20.48
233.995	38.91
234.213	34.82
234.43	6.14
234.648	43.01
234.865	55.3
235.083	34.82
235.3	24.58
235.518	63.49
235.735	83.97
235.953	32.77
236.17	24.58
236.388	-16.38
236.605	26.62
236.822	83.97
237.04	67.58
237.257	55.3
237.475	69.63
237.692	49.15
237.909	-12.29
238.127	-14.34
238.344	53.25
238.562	40.96
238.779	-75.77
238.996	63.49
239.214	71.68
239.431	110.59
239.648	-16.38
239.865	79.87
240.083	90.11
240.3	94.21
240.517	38.91
240.735	77.82
240.952	149.5
241.169	18.43
241.386	71.68
241.603	-10.24
241.821	-6.14
242.038	79.87
242.255	114.69
242.472	92.16
242.689	110.59
242.907	116.73
243.124	28.67
243.341	10.24
243.558	83.97
243.775	-14.34
243.992	51.2
244.209	57.34
244.426	116.73
244.643	126.97
244.86	24.58
245.078	14.34
245.295	36.86
245.512	77.82
245.729	22.53
245.946	116.73
246.163	73.73
246.38	71.68
246.597	79.87
246.814	65.53
247.031	43.01
247.248	43.01
247.464	24.58
247.681	30.72
247.898	71.68
248.115	104.45
248.332	-16.38
248.549	90.11
248.766	88.06
248.983	57.34
249.2	14.34
249.417	65.53
249.633	16.38
249.85	24.58
250.067	30.72
250.284	32.77
250.501	16.38
250.717	96.25
250.934	51.2
251.151	14.34
251.368	79.87
251.585	18.43
251.801	92.16
252.018	-10.24
252.235	26.62
252.451	-55.3
252.668	57.34
252.885	34.82
253.102	-34.82
253.318	40.96
253.535	16.38
253.752	18.43
253.968	-10.24
254.185	51.2
254.401	59.39
254.618	51.2
254.835	30.72
255.051	153.6
255.268	47.1
255.484	-6.14
255.701	51.2
255.917	30.72
256.134	-32.77
256.351	65.53
256.567	-10.24
256.784	63.49
257	30.72
257.217	79.87
257.433	47.1
257.65	51.2
257.866	51.2
258.082	-38.91
258.299	2.05
258.515	51.2
258.732	-16.38
258.948	32.77
259.165	88.06
259.381	8.19
259.597	45.06
259.814	122.88
260.03	63.49
260.246	22.53
260.463	30.72
260.679	-10.24
260.895	26.62
261.112	83.97
261.328	-73.73
261.544	-10.24
261.761	88.06
261.977	63.49
262.193	30.72
262.409	51.2
262.626	98.3
262.842	55.3
263.058	65.53
263.274	63.49
263.49	90.11
263.707	4.1
263.923	83.97
264.139	49.15
264.355	32.77
264.571	88.06
264.787	71.68
265.004	81.92
265.22	57.34
265.436	10.24
265.652	-12.29
265.868	67.58
266.084	79.87
266.3	79.87
266.516	18.43
266.732	-51.2
266.948	92.16
267.164	57.34
267.38	57.34
267.596	38.91
267.812	63.49
268.028	47.1
268.244	-30.72
268.46	94.21
268.676	14.34
268.892	55.3
269.108	14.34
269.324	75.77
269.54	-16.38
269.756	112.64
269.972	4.1
270.188	73.73
270.403	-2.05
270.619	38.91
270.835	45.06
271.051	0
271.267	14.34
271.483	-8.19
271.698	2.05
271.914	137.21
272.13	49.15
272.346	26.62
272.562	-2.05
272.777	47.1
272.993	-10.24
273.209	79.87
273.425	67.58
273.64	-2.05
273.856	110.59
274.072	-18.43
274.287	-12.29
274.503	112.64
274.719	79.87
274.934	110.59
275.15	24.58
275.366	-47.1
275.581	16.38
275.797	67.58
276.012	55.3
276.228	22.53
276.444	124.93
276.659	38.91
276.875	10.24
277.09	8.19
277.306	81.92
277.521	92.16
277.737	43.01
277.952	94.21
278.168	145.41
278.383	49.15
278.599	96.25
278.814	71.68
279.03	22.53
279.245	59.39
279.461	-51.2
279.676	14.34
279.892	55.3
280.107	57.34
280.322	30.72
280.538	106.49
280.753	53.25
280.969	55.3
281.184	43.01
281.399	122.88
281.615	106.49
281.83	47.1
282.045	79.87
282.26	65.53
282.476	-34.82
282.691	65.53
282.906	38.91
283.122	112.64
283.337	51.2
283.552	63.49
283.767	59.39
283.983	-2.05
284.198	73.73
284.413	114.69
284.628	24.58
284.843	24.58
285.058	40.96
285.274	61.44
285.489	-22.53
285.704	47.1
285.919	-22.53
286.134	110.59
286.349	63.49
286.564	-34.82
286.779	26.62
286.995	63.49
287.21	-51.2
287.425	88.06
287.64	57.34
287.855	20.48
288.07	-36.86
288.285	79.87
288.5	149.5
288.715	112.64
288.93	55.3
289.145	47.1
289.36	108.54
289.575	71.68
289.79	-14.34
290.004	38.91
290.219	57.34
290.434	4.1
290.649	10.24
290.864	49.15
291.079	57.34
291.294	22.53
291.509	22.53
291.724	88.06
291.938	8.19
292.153	22.53
292.368	10.24
292.583	4.1
292.798	67.58
293.012	8.19
293.227	124.93
293.442	104.45
293.657	36.86
293.871	104.45
294.086	38.91
294.301	81.92
294.516	88.06
294.73	22.53
294.945	43.01
295.16	34.82
295.374	110.59
295.589	114.69
295.804	-10.24
296.018	100.35
296.233	81.92
296.447	204.8
296.662	59.39
296.877	129.02
297.091	-2.05
297.306	2.05
297.52	34.82
297.735	73.73
297.949	-28.67
298.164	94.21
298.378	79.87
298.593	8.19
298.807	47.1
299.022	69.63
299.236	120.83
299.451	22.53
299.665	20.48
299.88	43.01
300.094	81.92
300.309	47.1
300.523	40.96
300.737	26.62
300.952	32.77
301.166	-14.34
301.381	51.2
301.595	55.3
301.809	16.38
302.024	47.1
302.238	14.34
302.452	92.16
302.667	18.43
302.881	18.43
303.095	79.87
303.309	71.68
303.524	51.2
303.738	47.1
303.952	0
304.166	24.58
304.381	-20.48
304.595	96.25
304.809	10.24
305.023	81.92
305.237	51.2
305.452	96.25
305.666	18.43
305.88	75.77
306.094	47.1
306.308	-2.05
306.522	88.06
306.736	90.11
306.95	16.38
307.164	67.58
307.379	28.67
307.593	92.16
307.807	26.62
308.021	10.24
308.235	59.39
308.449	24.58
308.663	77.82
308.877	108.54
309.091	86.01
309.305	75.77
309.519	-2.05
309.733	59.39
309.947	-34.82
310.161	90.11
310.374	49.15
310.588	65.53
310.802	-40.96
311.016	79.87
311.23	104.45
311.444	-10.24
311.658	22.53
311.872	81.92
312.085	34.82
312.299	143.36
312.513	63.49
312.727	-18.43
312.941	-24.58
313.154	30.72
313.368	12.29
313.582	92.16
313.796	40.96
314.009	32.77
314.223	114.69
314.437	73.73
314.651	61.44
314.864	22.53
315.078	79.87
315.292	-10.24
315.505	10.24
315.719	-2.05
315.933	61.44
316.146	10.24
316.36	49.15
316.573	129.02
316.787	106.49
317.001	129.02
317.214	-14.34
317.428	34.82
317.641	24.58
317.855	88.06
318.068	32.77
318.282	26.62
318.495	77.82
318.709	73.73
318.922	71.68
319.136	51.2
319.349	108.54
319.563	30.72
319.776	108.54
319.99	18.43
320.203	71.68
320.417	47.1
320.63	63.49
320.843	112.64
321.057	55.3
321.27	40.96
321.483	8.19
321.697	112.64
321.91	55.3
322.124	49.15
322.337	61.44
322.55	32.77
322.763	22.53
322.977	43.01
323.19	24.58
323.403	47.1
323.617	55.3
323.83	88.06
324.043	104.45
324.256	90.11
324.469	47.1
324.683	47.1
324.896	69.63
325.109	63.49
325.322	-26.62
325.535	47.1
325.748	45.06
325.962	51.2
326.175	0
326.388	104.45
326.601	102.4
326.814	131.07
327.027	79.87
327.24	81.92
327.453	112.64
327.666	129.02
327.879	34.82
328.092	133.12
328.305	38.91
328.518	96.25
328.731	186.37
328.944	24.58
329.157	24.58
329.37	75.77
329.583	43.01
329.796	65.53
330.009	0
330.222	34.82
330.435	57.34
330.648	63.49
330.861	22.53
331.073	77.82
331.286	43.01
331.499	55.3
331.712	45.06
331.925	26.62
332.138	30.72
332.35	79.87
332.563	63.49
332.776	114.69
332.989	55.3
333.202	4.1
333.414	47.1
333.627	51.2
333.84	83.97
334.053	51.2
334.265	49.15
334.478	57.34
334.691	18.43
334.903	124.93
335.116	92.16
335.329	67.58
335.541	24.58
335.754	63.49
335.966	90.11
336.179	-2.05
336.392	92.16
336.604	61.44
336.817	22.53
337.029	63.49
337.242	47.1
337.454	65.53
337.667	43.01
337.88	40.96
338.092	47.1
338.305	143.36
338.517	0
338.729	55.3
338.942	40.96
339.154	-34.82
339.367	30.72
339.579	55.3
339.792	6.14
340.004	65.53
340.217	131.07
340.429	55.3
340.641	43.01
340.854	153.6
341.066	26.62
341.278	122.88
341.491	79.87
341.703	71.68
341.915	57.34
342.128	71.68
342.34	14.34
342.552	106.49
342.764	67.58
342.977	12.29
343.189	-8.19
343.401	6.14
343.613	-12.29
343.826	114.69
344.038	-24.58
344.25	116.73
344.462	55.3
344.674	110.59
344.886	40.96
345.099	30.72
345.311	2.05
345.523	90.11
345.735	81.92
345.947	45.06
346.159	69.63
346.371	40.96
346.583	32.77
346.795	169.98
347.007	65.53
347.219	34.82
347.431	6.14
347.643	145.41
347.855	59.39
348.067	104.45
348.279	88.06
348.491	38.91
348.703	32.77
348.915	32.77
349.127	-61.44
349.339	98.3
349.551	65.53
349.763	96.25
349.975	122.88
350.187	28.67
350.399	65.53
350.61	28.67
350.822	16.38
351.034	30.72
351.246	112.64
351.458	79.87
351.669	126.97
351.881	63.49
352.093	45.06
352.305	51.2
352.517	51.2
352.728	104.45
352.94	24.58
353.152	108.54
353.363	108.54
353.575	120.83
353.787	47.1
353.999	63.49
354.21	124.93
354.422	0
354.633	30.72
354.845	65.53
355.057	30.72
355.268	24.58
355.48	110.59
355.692	10.24
355.903	30.72
356.115	75.77
356.326	30.72
356.538	104.45
356.749	98.3
356.961	83.97
357.172	14.34
357.384	47.1
357.595	94.21
357.807	43.01
358.018	28.67
358.23	14.34
358.441	139.26
358.653	92.16
358.864	77.82
359.075	-26.62
359.287	88.06
359.498	131.07
359.709	63.49
359.921	71.68
360.132	159.74
360.344	22.53
360.555	10.24
360.766	53.25
360.977	-10.24
361.189	92.16
361.4	26.62
361.611	49.15
361.823	88.06
362.034	114.69
362.245	-65.54
362.456	73.73
362.667	114.69
362.879	73.73
363.09	38.91
363.301	22.53
363.512	71.68
363.723	75.77
363.935	6.14
364.146	47.1
364.357	51.2
364.568	55.3
364.779	71.68
364.99	63.49
365.201	79.87
365.412	86.01
365.623	28.67
365.834	96.25
366.045	79.87
366.256	18.43
366.467	38.91
366.678	55.3
366.889	88.06
367.1	81.92
367.311	38.91
367.522	88.06
367.733	45.06
367.944	75.77
368.155	32.77
368.366	6.14
368.577	67.58
368.788	137.21
368.999	-8.19
369.209	98.3
369.42	157.69
369.631	204.8
369.842	47.1
370.053	137.21
370.264	96.25
370.474	24.58
370.685	43.01
370.896	71.68
371.107	110.59
371.317	57.34
371.528	-10.24
371.739	38.91
371.95	67.58
372.16	108.54
372.371	79.87
372.582	98.3
372.792	129.02
373.003	69.63
373.214	38.91
373.424	75.77
373.635	16.38
373.846	135.17
374.056	30.72
374.267	18.43
374.477	71.68
374.688	8.19
374.898	22.53
375.109	94.21
375.319	26.62
375.53	79.87
375.74	-4.1
375.951	12.29
376.161	122.88
376.372	114.69
376.582	-8.19
376.793	161.79
377.003	26.62
377.214	22.53
377.424	10.24
377.635	22.53
377.845	43.01
378.055	96.25
378.266	10.24
378.476	30.72
378.686	26.62
378.897	147.45
379.107	114.69
379.317	73.73
379.528	57.34
379.738	90.11
379.948	-24.58
380.158	47.1
380.369	79.87
380.579	108.54
380.789	26.62
380.999	16.38
381.21	51.2
381.42	137.21
381.63	59.39
381.84	22.53
382.05	114.69
382.261	63.49
382.471	88.06
382.681	40.96
382.891	104.45
383.101	57.34
383.311	16.38
383.521	53.25
383.731	34.82
383.941	79.87
384.151	-26.62
384.361	75.77
384.571	73.73
384.781	8.19
384.991	167.93
385.201	155.65
385.411	112.64
385.621	81.92
385.831	61.44
386.041	59.39
386.251	26.62
386.461	57.34
386.671	73.73
386.881	2.05
387.091	81.92
387.301	118.78
387.511	-2.05
387.72	129.02
387.93	43.01
388.14	12.29
388.35	26.62
388.56	114.69
388.769	55.3
388.979	120.83
389.189	24.58
389.399	57.34
389.609	73.73
389.818	106.49
390.028	81.92
390.238	102.4
390.447	88.06
390.657	57.34
390.867	26.62
391.076	57.34
391.286	112.64
391.496	145.41
391.705	49.15
391.915	38.91
392.125	100.35
392.334	67.58
392.544	92.16
392.753	63.49
392.963	126.97
393.172	65.53
393.382	83.97
393.591	73.73
393.801	63.49
394.01	178.17
394.22	79.87
394.429	71.68
394.639	83.97
394.848	139.26
395.058	120.83
395.267	133.12
395.477	43.01
395.686	131.07
395.895	100.35
396.105	133.12
396.314	141.31
396.524	96.25
396.733	67.58
396.942	122.88
397.152	59.39
397.361	124.93
397.57	169.98
397.78	96.25
397.989	129.02
398.198	180.22
398.407	219.13
398.617	131.07
398.826	81.92
399.035	55.3
399.244	161.79
399.453	38.91
399.663	104.45
399.872	71.68
400.081	120.83
400.29	135.17
400.499	53.25
400.708	118.78
400.917	81.92
401.127	141.31
401.336	100.35
401.545	100.35
401.754	174.08
401.963	139.26
402.172	124.93
402.381	114.69
402.59	116.73
402.799	137.21
403.008	120.83
403.217	167.93
403.426	153.6
403.635	157.69
403.844	194.56
404.053	157.69
404.262	135.17
404.471	178.17
404.68	100.35
404.888	131.07
405.097	104.45
405.306	163.84
405.515	202.75
405.724	210.94
405.933	239.61
406.142	178.17
406.35	260.09
406.559	210.94
406.768	210.94
406.977	303.1
407.185	247.8
407.394	196.61
407.603	178.17
407.812	286.72
408.02	206.84
408.229	215.04
408.438	243.71
408.646	196.61
408.855	284.67
409.064	212.99
409.272	237.56
409.481	268.28
409.69	249.85
409.898	227.32
410.107	247.8
410.315	389.11
410.524	342.01
410.733	423.93
410.941	319.48
411.15	325.63
411.358	423.93
411.567	489.46
411.775	387.07
411.984	370.68
412.192	487.42
412.401	440.31
412.609	522.23
412.818	380.92
413.026	395.26
413.234	514.04
413.443	450.55
413.651	511.99
413.86	503.8
414.068	636.92
414.276	577.53
414.485	550.9
414.693	520.18
414.901	671.73
415.11	663.54
415.318	731.12
415.526	735.22
415.734	749.56
415.943	710.65
416.151	770.04
416.359	851.95
416.567	837.62
416.776	909.3
416.984	956.4
417.192	915.44
417.4	923.63
417.608	882.67
417.817	993.26
418.025	942.07
418.233	1169.39
418.441	1193.97
418.649	1075.18
418.857	1161.2
419.065	1210.35
419.273	1177.58
419.481	1316.84
419.689	1335.28
419.897	1394.67
420.105	1308.65
420.313	1386.47
420.521	1585.13
420.729	1488.87
420.937	1517.54
421.145	1671.14
421.353	1714.15
421.561	1894.37
421.769	1896.42
421.977	1933.28
422.185	1886.18
422.393	2062.3
422.601	2056.16
422.809	2080.74
423.017	2025.44
423.224	2213.85
423.432	2226.14
423.64	2283.49
423.848	2496.47
424.056	2373.6
424.263	2605.02
424.471	2662.36
424.679	2662.36
424.887	2828.24
425.094	2834.39
425.302	2807.77
425.51	3004.37
425.718	3112.91
425.925	3143.63
426.133	3256.27
426.341	3413.96
426.548	3512.27
426.756	3487.69
426.964	3659.72
427.171	3798.98
427.379	3887.04
427.586	3921.86
427.794	4149.18
428.001	4294.59
428.209	4454.33
428.417	4319.17
428.624	4691.9
428.832	4638.65
429.039	4564.92
429.247	4687.8
429.454	5164.98
429.662	5359.53
429.869	5056.43
430.076	5543.85
430.284	5257.14
430.491	5719.98
430.699	5867.43
430.906	5949.35
431.114	5883.81
431.321	6328.22
431.528	6371.23
431.736	6547.36
431.943	7153.55
432.15	6743.96
432.358	6829.98
432.565	7188.37
432.772	7290.77
432.979	7518.09
433.187	7597.96
433.394	7716.75
433.601	8107.91
433.808	8255.36
434.016	8013.7
434.223	8691.58
434.43	9154.42
434.637	8931.19
434.844	9375.6
435.052	9635.69
435.259	9633.64
435.466	9697.13
435.673	9537.39
435.88	10225.51
436.087	10575.71
436.294	10551.13
436.501	10358.63
436.708	10749.79
436.915	11056.98
437.122	11368.27
437.329	11499.34
437.537	11878.22
437.743	11962.19
437.95	11859.79
438.157	12588.86
438.364	12791.61
438.571	12922.68
438.778	13033.27
438.985	14180.14
439.192	13565.74
439.399	14104.36
439.606	13676.34
439.813	14661.41
440.02	15556.37
440.227	15306.52
440.433	15132.44
440.64	15648.53
440.847	15257.37
441.054	15726.35
441.261	16924.41
441.467	16631.55
441.674	16832.26
441.881	17268.47
442.088	17508.08
442.294	17149.69
442.501	17692.4
442.708	18181.87
442.914	18867.94
443.121	19586.77
443.328	19031.77
443.534	20471.5
443.741	19934.93
443.948	19193.56
444.154	20827.84
444.361	21012.16
444.568	20790.98
444.774	21274.3
444.981	21053.12
445.187	21782.2
445.394	23041.7
445.6	22691.49
445.807	24731.27
446.013	23498.39
446.22	23950.99
446.426	25181.82
446.633	25095.81
446.839	25859.7
447.046	25063.04
447.252	26420.84
447.459	26365.55
447.665	26048.11
447.871	27557.47
448.078	28569.16
448.284	27770.46
448.491	27612.76
448.697	29062.72
448.903	29627.96
449.11	29406.78
449.316	29220.42
449.522	29998.65
449.728	30580.27
449.935	30668.33
450.141	30502.45
450.347	31229.48
450.553	31059.49
450.76	30903.85
450.966	32235.03
451.172	31391.26
451.378	32531.98
451.584	31821.34
451.791	32753.16
451.997	32214.55
452.203	33082.89
452.409	33271.3
452.615	33050.12
452.821	31784.47
453.027	31610.4
453.233	33234.44
453.44	31657.5
453.646	32515.6
453.852	32343.57
454.058	32867.85
454.264	31981.08
454.47	32228.88
454.676	31456.8
454.882	33023.5
455.088	30363.18
455.294	30441.01
455.5	30805.55
455.705	31350.31
455.911	29933.11
456.117	29744.7
456.323	28927.56
456.529	27610.71
456.735	28677.71
456.941	27862.61
457.147	27774.55
457.352	27010.66
457.558	26613.35
457.764	26771.05
457.97	26001.01
458.176	25781.88
458.381	25730.68
458.587	24376.97
458.793	24346.25
458.999	22998.69
459.204	24712.84
459.41	23955.09
459.616	22591.14
459.821	22630.05
460.027	22140.59
460.233	22044.34
460.438	21014.21
460.644	21350.07
460.85	20412.1
461.055	19779.28
461.261	19650.26
461.466	18538.21
461.672	18003.69
461.878	19265.24
462.083	17956.59
462.289	17614.58
462.494	17340.15
462.7	16570.12
462.905	16219.91
463.111	16686.85
463.316	16768.77
463.522	16377.61
463.727	16373.51
463.932	16529.16
464.138	16107.27
464.343	16144.14
464.549	15726.35
464.754	16119.56
464.959	15996.68
465.165	16197.38
465.37	15283.99
465.575	14851.87
465.781	15587.09
465.986	15552.27
466.191	15015.71
466.397	14901.02
466.602	14180.14
466.807	14841.63
467.012	14792.48
467.218	14411.56
467.423	14257.96
467.628	14540.58
467.833	14933.79
468.038	14702.37
468.244	14143.27
468.449	14827.29
468.654	14184.23
468.859	14083.88
469.064	14114.6
469.269	13408.05
469.474	13573.94
469.679	13942.57
469.885	13379.38
470.09	13522.74
470.295	13459.25
470.5	12863.29
470.705	13258.55
470.91	13164.34
471.115	13014.84
471.32	13231.93
471.525	12926.78
471.73	12662.59
471.935	12576.58
472.139	12275.52
472.344	12322.63
472.549	12277.57
472.754	11984.71
472.959	12033.86
473.164	11747.15
473.369	11464.53
473.574	11927.37
473.778	11833.16
473.983	11673.42
474.188	11642.7
474.393	11130.71
474.598	11183.96
474.802	11147.09
475.007	10962.78
475.212	11102.04
475.417	10635.1
475.621	10524.51
475.826	10508.13
476.031	10381.15
476.235	10360.67
476.44	10264.42
476.645	10102.63
476.849	10188.64
477.054	10172.26
477.259	9865.07
477.463	9920.36
477.668	9731.95
477.872	10057.57
478.077	9486.19
478.282	9168.76
478.486	9371.5
478.691	9224.05
478.895	9256.82
479.1	9105.27
479.304	9363.31
479.509	8988.53
479.713	9172.85
479.918	8890.23
480.122	8742.78
480.326	8800.12
480.531	8904.57
480.735	8982.39
480.94	8599.42
481.144	9074.55
481.348	8501.12
481.553	8861.56
481.757	8435.58
481.961	8597.37
482.166	8693.63
482.37	8394.62
482.574	8468.35
482.778	8542.08
482.983	8525.69
483.187	8441.73
483.391	8521.6
483.595	8494.97
483.8	8451.97
484.004	8423.3
484.208	8658.81
484.412	8476.54
484.616	8550.27
484.821	8525.69
485.025	8355.71
485.229	8431.49
485.433	8435.58
485.637	8288.13
485.841	8300.42
486.045	8337.28
486.249	8353.66
486.453	8318.85
486.657	8480.64
486.861	8427.39
487.065	8163.2
487.269	8368
487.473	8509.31
487.677	8392.58
487.881	8552.32
488.085	8370.05
488.289	8513.41
488.493	8376.19
488.697	8499.07
488.901	8451.97
489.105	8642.43
489.309	8404.86
489.512	8570.75
489.716	8464.25
489.92	8578.94
490.124	8667
490.328	8662.91
490.531	8673.15
490.735	8681.34
490.939	8564.61
491.143	8787.83
491.346	8759.16
491.55	8664.96
491.754	8888.18
491.958	8742.78
492.161	8851.32
492.365	8736.63
492.569	8939.38
492.772	9123.7
492.976	8920.95
493.18	8918.9
493.383	9138.04
493.587	9070.45
493.79	9125.75
493.994	9074.55
494.197	9191.28
494.401	9434.99
494.605	9469.81
494.808	9478
495.012	9578.35
495.215	9447.28
495.419	9502.57
495.622	9613.17
495.825	9834.35
496.029	9623.41
496.232	9987.94
496.436	9895.78
496.639	10155.88
496.843	10018.66
497.046	10215.27
497.249	10479.46
497.453	10489.7
497.656	10448.74
497.859	10846.04
498.063	10461.02
498.266	10934.11
498.469	10819.42
498.673	10878.81
498.876	11257.68
499.079	11130.71
499.282	11458.39
499.485	11691.85
499.689	11620.17
499.892	11614.03
500.095	11609.93
500.298	12017.48
500.501	11960.14
500.705	12177.22
500.908	12365.64
501.111	12779.32
501.314	12654.4
501.517	12767.04
501.72	12891.96
501.923	12857.15
502.126	13287.22
502.329	13346.61
502.532	13418.29
502.735	13383.48
502.938	13850.41
503.141	13727.53
503.344	14042.92
503.547	14133.03
503.75	14294.82
503.953	14479.14
504.156	14731.04
504.359	14700.32
504.562	14786.33
504.765	14989.08
504.968	15386.39
505.17	15443.73
505.373	15566.61
505.576	15660.82
505.779	15922.96
505.982	15750.93
506.185	16148.23
506.387	16310.02
506.59	16176.91
506.793	16721.66
506.996	16744.19
507.198	17092.35
507.401	17073.92
507.604	17426.17
507.807	17600.24
508.009	17524.47
508.212	18052.84
508.415	17848.05
508.617	18378.47
508.82	18484.97
509.022	18298.6
509.225	18562.79
509.428	19095.26
509.63	19115.74
509.833	19412.7
510.035	19560.15
510.238	19388.12
510.44	19674.84
510.643	20199.12
510.845	20149.96
511.048	20098.77
511.25	20616.9
511.453	20702.92
511.655	21468.86
511.858	20989.63
512.06	21255.87
512.262	21667.51
512.465	21466.81
512.667	22118.06
512.87	22077.1
513.072	22359.72
513.274	22744.74
513.477	22867.62
513.679	23506.59
513.881	23006.88
514.084	23240.35
514.286	23537.3
514.488	23592.6
514.69	24352.4
514.893	23893.65
515.095	24348.3
515.297	24768.13
515.499	24807.05
515.701	25233.02
515.904	25384.57
516.106	25468.54
516.308	25845.37
516.51	25802.36
516.712	26107.51
516.914	26560.11
517.116	26875.49
517.318	26574.44
517.52	26820.2
517.722	26973.8
517.925	27741.78
518.127	27504.22
518.329	28108.37
518.531	27672.15
518.733	28481.1
518.935	28913.22
519.136	28501.58
519.338	29359.68
519.54	29396.54
519.742	29562.43
519.944	29589.05
520.146	29808.19
520.348	30039.61
520.55	30305.84
520.752	30553.65
520.954	31004.2
521.155	30819.88
521.357	31133.22
521.559	31624.73
521.761	31739.42
521.963	31854.11
522.164	32056.85
522.366	32370.19
522.568	32497.17
522.77	32618
522.971	33195.53
523.173	32785.93
523.375	33168.9
523.576	33066.5
523.778	33715.71
523.98	33568.26
524.181	33621.5
524.383	34043.38
524.584	33848.83
524.786	34356.72
524.988	34485.75
525.189	34510.32
525.391	34930.15
525.592	34991.59
525.794	35356.13
525.995	35157.48
526.197	35337.7
526.398	35642.85
526.6	35569.12
526.801	35515.87
527.003	35816.93
527.204	35792.35
527.406	36224.47
527.607	36373.97
527.808	36709.84
528.01	36066.78
528.211	36503
528.412	36931.02
528.614	36971.98
528.815	37041.61
529.016	37332.42
529.218	37117.39
529.419	37299.65
529.62	37019.08
529.822	36900.3
530.023	37350.85
530.224	37285.32
530.425	37365.19
530.626	37225.93
530.828	37350.85
531.029	37711.3
531.23	37379.53
531.431	37496.26
531.632	37643.71
531.833	37502.4
532.035	37858.75
532.236	37875.13
532.437	37944.76
532.638	37801.41
532.839	37715.39
533.04	38243.77
533.241	37410.25
533.442	38458.81
533.643	38229.43
533.844	37496.26
534.045	37879.23
534.246	38049.21
534.447	38534.58
534.648	38311.35
534.849	37957.05
535.05	37813.69
535.251	38026.68
535.451	38020.54
535.652	37973.44
535.853	38323.64
536.054	38405.56
536.255	38036.92
536.456	37848.51
536.657	38577.59
536.857	37502.4
537.058	37905.85
537.259	38452.66
537.46	38440.37
537.66	38012.35
537.861	38438.33
538.062	37838.27
538.263	38178.23
538.463	37729.73
538.664	38053.31
538.865	38145.47
539.065	38307.26
539.266	37971.39
539.466	38239.67
539.667	37735.87
539.868	38116.79
540.068	37983.68
540.269	38204.86
540.469	38268.34
540.67	38059.45
540.87	38325.69
541.071	38051.26
541.271	37952.96
541.472	37709.25
541.672	38000.06
541.873	37932.48
542.073	37727.68
542.274	38358.45
542.474	37959.1
542.675	37676.48
542.875	37879.23
543.075	37936.57
543.276	37430.72
543.476	38512.05
543.676	37696.96
543.877	37952.96
544.077	37752.26
544.277	38112.7
544.478	37813.69
544.678	37715.39
544.878	37701.06
545.078	37977.53
545.279	37815.74
545.479	37823.93
545.679	37936.57
545.879	37510.6
546.079	38010.3
546.28	37488.07
546.48	37164.49
546.68	37881.28
546.88	37912
547.08	37703.1
547.28	37778.88
547.48	36832.72
547.68	37572.03
547.88	37569.99
548.081	37377.48
548.281	37916.09
548.481	37510.6
548.681	37735.87
548.881	37596.61
549.081	37815.74
549.28	37199.3
549.48	37701.06
549.68	37596.61
549.88	37957.05
550.08	37184.97
550.28	37596.61
550.48	37338.57
550.68	38110.65
550.88	37225.93
551.08	37653.95
551.279	37479.88
551.479	36984.27
551.679	37359.05
551.879	37176.78
552.079	37711.3
552.278	37295.56
552.478	37236.17
552.678	37574.08
552.878	37793.22
553.077	37045.71
553.277	36945.36
553.477	37522.88
553.676	37113.29
553.876	37436.87
554.076	37277.13
554.275	37010.89
554.475	36984.27
554.674	37064.14
554.874	37434.82
555.074	36941.26
555.273	36861.39
555.473	37096.91
555.672	36980.17
555.872	37184.97
556.071	36965.84
556.271	37295.56
556.47	36953.55
556.67	36589.01
556.869	36713.94
557.068	36668.88
557.268	36758.99
557.467	36597.2
557.667	36472.28
557.866	36306.39
558.065	36404.69
558.265	36388.31
558.464	36441.56
558.663	36699.6
558.863	36507.09
559.062	36752.85
559.261	35804.64
559.461	36193.75
559.66	35696.1
559.859	36513.23
560.058	35980.76
560.258	36142.55
560.457	35694.05
560.656	36140.5
560.855	35628.51
561.054	35778.01
561.253	35687.9
561.453	35499.49
561.652	35610.08
561.851	35648.99
562.05	35900.89
562.249	35233.25
562.448	35419.62
562.647	35544.55
562.846	35534.31
563.045	35446.24
563.244	34889.2
563.443	35524.07
563.642	34731.5
563.841	34930.15
564.04	34725.36
564.239	35456.48
564.438	34694.64
564.637	34575.86
564.836	35304.93
565.035	34715.12
565.234	34835.95
565.432	34557.42
565.631	34473.46
565.83	34610.67
566.029	34145.78
566.228	34219.51
566.427	34151.93
566.625	34311.67
566.824	33678.85
567.023	34078.2
567.222	33904.12
567.42	34201.08
567.619	33648.13
567.818	33957.37
568.016	33740.29
568.215	34012.67
568.414	33652.22
568.612	33553.92
568.811	33650.17
569.01	33472
569.208	32835.08
569.407	33504.77
569.605	32998.92
569.804	33496.58
570.002	32689.68
570.201	33244.68
570.4	33033.74
570.598	32755.21
570.797	32482.83
570.995	32611.85
571.193	32484.88
571.392	32605.71
571.59	32325.14
571.789	32335.38
571.987	32273.94
572.186	32343.57
572.384	32167.45
572.582	32130.58
572.781	32341.52
572.979	31899.16
573.177	32179.73
573.376	31948.31
573.574	31534.62
573.772	32347.67
573.971	31663.64
574.169	31434.27
574.367	31217.19
574.565	31579.68
574.763	30948.9
574.962	31424.03
575.16	30930.47
575.358	31389.22
575.556	30789.16
575.754	31163.94
575.952	30989.86
576.151	31127.08
576.349	30461.49
576.547	30590.51
576.745	30586.41
576.943	30721.58
577.141	30557.74
577.339	30629.42
577.537	30049.85
577.735	30443.06
577.933	30234.16
578.131	30447.15
578.329	29988.41
578.527	29967.93
578.725	29830.71
578.923	29914.68
579.121	29816.38
579.319	29437.5
579.516	29822.52
579.714	29503.04
579.912	29613.63
580.11	29331.01
580.308	29183.55
580.506	29126.21
580.704	29101.64
580.901	29101.64
581.099	29533.76
581.297	28769.86
581.495	28778.06
581.692	28796.49
581.89	28583.5
582.088	28581.45
582.285	28612.17
582.483	28739.15
582.681	28515.92
582.878	28393.04
583.076	28210.77
583.274	28558.92
583.471	27879
583.669	28147.28
583.866	27821.66
584.064	28237.39
584.262	27385.44
584.459	27965.01
584.657	27711.07
584.854	27831.9
585.052	27252.32
585.249	27879
585.447	27883.09
585.644	27287.14
585.841	27276.9
586.039	27389.53
586.236	27043.43
586.434	27065.95
586.631	26910.31
586.828	27061.86
587.026	27041.38
587.223	26756.71
587.42	26703.46
587.618	27006.56
587.815	26492.52
588.012	26658.41
588.21	26076.79
588.407	26592.87
588.604	26304.11
588.801	26181.23
588.999	25953.91
589.196	26273.39
589.393	25689.72
589.59	25685.62
589.787	25794.17
589.984	25681.53
590.182	25839.22
590.379	25745.02
590.576	25464.44
590.773	25597.56
590.97	25286.27
591.167	25128.58
591.364	24774.28
591.561	25439.87
591.758	24970.88
591.955	25202.3
592.152	25450.11
592.349	24628.87
592.546	24845.96
592.743	24796.81
592.94	24274.57
593.137	25253.5
593.334	25235.07
593.531	24305.29
593.727	24663.69
593.924	24770.18
594.121	24118.93
594.318	24376.97
594.515	24069.78
594.712	24374.92
594.908	24354.44
595.105	23914.13
595.302	23942.8
595.499	23783.06
595.696	23836.31
595.892	23781.01
596.089	24176.27
596.286	23615.13
596.482	23541.4
596.679	23451.29
596.876	23447.19
597.072	23193.25
597.269	23318.17
597.466	23232.16
597.662	22988.45
597.859	23099.04
598.055	22896.29
598.252	22963.87
598.448	22935.2
598.645	22875.81
598.841	22415.02
599.038	22740.65
599.234	22668.97
599.431	22628.01
599.627	22353.58
599.824	22329
600.02	22304.43
600.217	22505.13
600.413	22056.62
600.609	22107.82
600.806	22093.49
601.002	22005.42
601.198	21685.94
601.395	21759.67
601.591	21606.07
601.787	21716.66
601.984	21618.36
602.18	21677.75
602.376	21319.35
602.572	21249.72
602.769	21188.28
602.965	20870.85
603.161	21354.17
603.357	21182.14
603.553	21231.29
603.75	21202.62
603.946	20829.89
604.142	21063.36
604.338	20668.1
604.534	21081.79
604.73	20713.16
604.926	20528.84
605.122	20674.24
605.318	20418.25
605.514	20383.43
605.71	20195.02
605.906	20180.68
606.102	20389.58
606.298	20422.34
606.494	20207.31
606.69	20303.56
606.886	20258.51
607.082	19977.94
607.278	20066
607.474	19797.71
607.67	20188.88
607.866	19625.68
608.062	20258.51
608.257	19646.16
608.453	19853.01
608.649	19758.8
608.845	19748.56
609.041	19732.18
609.236	19367.64
609.432	19431.13
609.628	19441.37
609.824	19545.81
610.019	19248.86
610.215	19498.71
610.411	19353.3
610.606	19248.86
610.802	19416.79
610.998	19117.79
611.193	19121.88
611.389	19003.1
611.584	18726.63
611.78	18994.91
611.976	18767.59
612.171	19050.21
612.367	18620.13
612.562	18904.8
612.758	18650.85
612.953	18552.55
613.149	19003.1
613.344	18593.51
613.539	18783.97
613.735	18839.26
613.93	18427.62
614.126	18396.9
614.321	18892.51
614.517	18562.79
614.712	18353.9
614.907	18292.46
615.103	18585.32
615.298	18452.2
615.493	18718.43
615.688	18343.66
615.884	18628.32
616.079	18245.35
616.274	18374.38
616.47	18249.45
616.665	18212.59
616.86	18108.14
617.055	18091.76
617.25	17819.38
617.445	18112.24
617.641	17723.12
617.836	17721.07
618.031	17516.28
618.226	17811.18
618.421	17729.27
618.616	17688.31
618.811	17733.36
619.006	17872.62
619.201	17403.64
619.396	17471.22
619.591	17155.83
619.786	17151.74
619.981	17172.22
620.176	17344.25
620.371	17118.97
620.566	16891.65
620.761	16893.69
620.956	16924.41
621.151	16637.7
621.346	16549.64
621.541	16670.47
621.735	16660.23
621.93	16496.39
622.125	16310.02
622.32	16271.11
622.515	16193.29
622.709	15886.09
622.904	15843.09
623.099	15976.2
623.294	16187.14
623.488	15814.41
623.683	15898.38
623.878	15587.09
624.072	15884.05
624.267	15693.58
624.462	15451.92
624.656	15408.92
624.851	15154.97
625.046	15212.31
625.24	15163.16
625.435	14886.68
625.629	15019.8
625.824	14898.97
626.018	14808.86
626.213	14268.2
626.407	14763.81
626.602	14393.12
626.796	14481.19
626.991	14462.76
627.185	14434.08
627.38	14419.75
627.574	14100.26
627.768	14161.7
627.963	13997.87
628.157	13850.41
628.352	13924.14
628.546	13549.36
628.74	13850.41
628.935	13551.41
629.129	13674.29
629.323	13381.43
629.517	13512.5
629.712	13252.41
629.906	13332.28
630.1	13244.21
630.294	13076.28
630.489	12834.62
630.683	13121.34
630.877	12838.72
631.071	12943.16
631.265	12930.87
631.459	12865.34
631.653	12580.67
631.848	12580.67
632.042	12554.05
632.236	12623.68
632.43	12384.07
632.624	12429.12
632.818	12238.66
633.012	12121.93
633.206	12031.82
633.4	12136.26
633.594	11894.6
633.788	11933.51
633.982	11906.89
634.176	11892.55
634.369	11618.13
634.563	11669.33
634.757	11691.85
634.951	11749.2
635.145	11552.59
635.339	11585.36
635.533	11368.27
635.726	11298.64
635.92	11116.37
636.114	11239.25
636.308	11065.18
636.501	11212.63
636.695	11145.05
636.889	11061.08
637.083	10923.87
637.276	10757.98
637.47	10940.25
637.664	11081.56
637.857	10786.65
638.051	10696.54
638.244	10559.33
638.438	10655.58
638.632	10434.4
638.825	10471.26
639.019	10436.45
639.212	10256.23
639.406	10418.02
639.599	10213.22
639.793	10188.64
639.986	10022.76
640.18	9961.32
640.373	9879.4
640.567	9942.89
640.76	10102.63
640.954	9715.56
641.147	9754.48
641.34	9682.8
641.534	9688.94
641.727	9830.25
641.92	9645.93
642.114	9543.53
642.307	9574.25
642.5	9332.59
642.694	9101.17
642.887	9385.84
643.08	9414.51
643.273	9271.15
643.467	9107.32
643.66	9148.28
643.853	9287.54
644.046	9009.01
644.239	9095.03
644.432	8984.44
644.626	8824.7
644.819	8822.65
645.012	8824.7
645.205	8839.03
645.398	8753.02
645.591	8830.84
645.784	8554.37
645.977	8515.45
646.17	8411.01
646.363	8425.34
646.556	8337.28
646.749	8314.75
646.942	8544.13
647.135	8390.53
647.328	8304.51
647.521	8165.25
647.714	8185.73
647.907	7962.5
648.099	7913.35
648.292	7995.27
648.485	8001.41
648.678	7896.97
648.871	7878.54
649.064	7921.54
649.256	7874.44
649.449	7929.73
649.642	8058.76
649.835	7653.26
650.027	7706.51
650.22	7710.6
650.413	7638.92
650.605	7538.57
650.798	7368.59
650.991	7313.3
651.183	7427.98
651.376	7278.48
651.568	7387.02
651.761	7169.94
651.954	7417.74
652.146	7282.58
652.339	7167.89
652.531	7034.77
652.724	7145.36
652.916	7038.87
653.109	6965.14
653.301	7126.93
653.494	6997.91
653.686	6872.98
653.879	7018.39
654.071	6895.51
654.263	6768.54
654.456	6793.11
654.648	6711.19
654.84	6756.25
655.033	6789.02
655.225	6698.91
655.417	6588.32
655.61	6643.61
655.802	6522.78
655.994	6453.15
656.186	6428.57
656.379	6391.71
656.571	6520.73
656.763	6373.28
656.955	6311.84
657.148	6201.25
657.34	6250.4
657.532	6188.96
657.724	6203.3
657.916	6092.71
658.108	6231.97
658.3	6174.63
658.492	6096.8
658.684	5953.45
658.876	5988.26
659.068	6029.22
659.26	5947.3
659.452	5945.25
659.644	6018.98
659.836	5892.01
660.028	5926.82
660.22	5773.22
660.412	5773.22
660.604	5715.88
660.796	5617.58
660.988	5703.59
661.18	5629.87
661.372	5494.7
661.563	5423.02
661.755	5439.4
661.947	5588.91
662.139	5617.58
662.331	5429.17
662.522	5431.21
662.714	5488.56
662.906	5347.25
663.097	5240.75
663.289	5298.1
663.481	5244.85
663.673	5226.42
663.864	5191.6
664.056	5175.22
664.247	5267.38
664.439	5076.91
664.631	5201.84
664.822	5191.6
665.014	5027.76
665.205	5044.15
665.397	4933.56
665.588	5099.44
665.78	4880.31
665.971	4818.87
666.163	4859.83
666.354	4900.79
666.546	4898.74
666.737	4702.14
666.929	4900.79
667.12	4751.29
667.311	4863.93
667.503	4634.55
667.694	4839.35
667.885	4579.26
668.077	4542.39
668.268	4562.87
668.459	4675.51
668.651	4464.57
668.842	4534.2
669.033	4599.74
669.224	4405.18
669.416	4515.77
669.607	4564.92
669.798	4431.8
669.989	4480.96
670.18	4399.04
670.371	4265.92
670.563	4440
670.754	4347.84
670.945	4267.97
671.136	4351.93
671.327	4257.73
671.518	4224.96
671.709	4388.8
671.9	4278.21
672.091	4196.29
672.282	4118.47
672.473	4118.47
672.664	4145.09
672.855	4093.89
673.046	4153.28
673.237	4130.75
673.428	4022.21
673.619	4130.75
673.809	4011.97
674	3954.63
674.191	4073.41
674.382	3866.56
674.573	4016.07
674.764	3930.05
674.954	3921.86
675.145	3866.56
675.336	3770.31
675.527	3897.28
675.717	3921.86
675.908	3737.54
676.099	3882.95
676.289	3829.7
676.48	3676.1
676.671	3751.88
676.861	3762.12
677.052	3782.6
677.243	3717.06
677.433	3659.72
677.624	3778.5
677.814	3639.24
678.005	3725.26
678.195	3528.65
678.386	3786.69
678.576	3559.37
678.767	3456.97
678.957	3430.35
679.148	3536.84
679.338	3424.2
679.529	3553.23
679.719	3596.23
679.909	3547.08
680.1	3377.1
680.29	3602.38
680.481	3528.65
680.671	3571.66
680.861	3454.92
681.052	3508.17
681.242	3395.53
681.432	3348.43
681.622	3481.55
681.813	3282.89
682.003	3497.93
682.193	3348.43
682.383	3254.22
682.573	3317.71
682.764	3373
682.954	3356.62
683.144	3317.71
683.334	3313.61
683.524	3217.36
683.714	3315.66
683.904	3241.93
684.094	3225.55
684.284	3200.98
684.474	3205.07
684.664	3205.07
684.854	3262.41
685.044	3352.52
685.234	3114.96
685.424	3164.11
685.614	3129.3
685.804	3315.66
685.994	3125.2
686.184	3149.78
686.374	3090.38
686.564	3065.81
686.753	3135.44
686.943	3004.37
687.133	2934.74
687.323	3143.63
687.513	3071.95
687.702	2955.22
687.892	2975.7
688.082	3022.8
688.272	2987.99
688.461	2938.84
688.651	2869.2
688.841	2901.97
689.03	2940.88
689.22	2850.77
689.41	2965.46
689.599	2940.88
689.789	2858.96
689.979	2901.97
690.168	2820.05
690.358	2805.72
690.547	2805.72
690.737	2824.15
690.926	2764.76
691.116	2715.61
691.305	2844.63
691.495	2766.81
691.684	2799.57
691.874	2721.75
692.063	2711.51
692.252	2703.32
692.442	2693.08
692.631	2639.83
692.82	2682.84
693.01	2555.86
693.199	2678.74
693.388	2736.09
693.578	2576.34
693.767	2627.54
693.956	2551.77
694.146	2615.26
694.335	2668.5
694.524	2435.03
694.713	2648.02
694.902	2592.73
695.092	2580.44
695.281	2523.1
695.47	2584.54
695.659	2488.28
695.848	2514.91
696.037	2529.24
696.226	2539.48
696.415	2475.99
696.604	2521.05
696.793	2430.94
696.982	2408.41
697.171	2410.46
697.36	2496.47
697.549	2416.6
697.738	2361.31
697.927	2498.52
698.116	2535.39
698.305	2514.91
698.494	2475.99
698.683	2375.64
698.872	2400.22
699.061	2494.43
699.25	2308.06
699.438	2457.56
699.627	2355.16
699.816	2375.64
700.005	2318.3
700.193	2209.76
700.382	2365.4
700.571	2432.99
700.76	2275.29
700.948	2387.93
701.137	2379.74
701.326	2406.36
701.514	2418.65
701.703	2441.18
701.892	2213.85
702.08	2375.64
702.269	2463.71
702.457	2340.83
702.646	2320.35
702.834	2338.78
703.023	2279.39
703.212	2334.68
703.4	2291.68
703.589	2220
703.777	2295.77
703.965	2291.68
704.154	2228.19
704.342	2156.51
704.531	2203.61
704.719	2256.86
704.907	2242.53
705.096	2152.42
705.284	2351.07
705.472	2365.4
705.661	2283.49
705.849	2379.74
706.037	2324.44
706.226	2181.09
706.414	2250.72
706.602	2342.88
706.79	2301.92
706.979	2183.13
707.167	2191.33
707.355	2217.95
707.543	2211.81
707.731	2289.63
707.919	2269.15
708.107	2230.24
708.296	2127.84
708.484	2187.23
708.672	2193.37
708.86	2234.33
709.048	2230.24
709.236	2232.29
709.424	2263.01
709.612	2222.05
709.8	2146.27
709.988	2170.85
710.176	2318.3
710.364	2273.25
710.551	2205.66
710.739	2107.36
710.927	2226.14
711.115	2271.2
711.303	2133.98
711.491	2152.42
711.679	2103.26
711.866	2172.89
712.054	2195.42
712.242	2168.8
712.43	2195.42
712.617	2250.72
712.805	2127.84
712.993	2127.84
713.181	2082.78
713.368	2160.61
713.556	2148.32
713.744	2127.84
713.931	2242.53
714.119	2238.43
714.306	2074.59
714.494	2111.46
714.682	2193.37
714.869	2060.26
715.057	2152.42
715.244	2148.32
715.432	2207.71
715.619	2127.84
715.807	2021.35
715.994	2162.65
716.182	2097.12
716.369	2127.84
716.556	2129.89
716.744	2119.65
716.931	2082.78
717.119	2203.61
717.306	2185.18
717.493	2113.5
717.681	2164.7
717.868	2111.46
718.055	2170.85
718.242	2015.2
718.43	2185.18
718.617	2156.51
718.804	1998.82
718.991	2123.74
719.179	2146.27
719.366	2181.09
719.553	2103.26
719.74	2113.5
719.927	2222.05
720.114	2054.11
720.301	1955.81
720.488	2127.84
720.676	2080.74
720.863	2277.34
721.05	2136.03
721.237	2172.89
721.424	2136.03
721.611	2090.98
721.798	2072.54
721.985	1998.82
722.172	2082.78
722.358	2133.98
722.545	2162.65
722.732	2072.54
722.919	2090.98
723.106	2111.46
723.293	2144.22
723.48	2105.31
723.667	2138.08
723.853	2066.4
724.04	2170.85
724.227	2111.46
724.414	2086.88
724.6	2201.57
724.787	2002.91
724.974	2111.46
725.161	2023.39
725.347	2090.98
725.534	2189.28
725.72	2119.65
725.907	2144.22
726.094	2070.5
726.28	1996.77
726.467	2174.94
726.653	2050.02
726.84	2111.46
727.027	2187.23
727.213	2103.26
727.4	2066.4
727.586	1988.58
727.773	2144.22
727.959	1988.58
728.145	2144.22
728.332	2084.83
728.518	2000.87
728.705	2086.88
728.891	1972.19
729.077	2000.87
729.264	2045.92
729.45	2090.98
729.636	1972.19
729.823	2033.63
730.009	2127.84
730.195	2158.56
730.382	2013.15
730.568	2027.49
730.754	1982.43
730.94	1951.71
731.126	2045.92
731.313	1984.48
731.499	2015.2
731.685	2070.5
731.871	2066.4
732.057	2035.68
732.243	1988.58
732.429	1992.67
732.615	2066.4
732.801	1998.82
732.987	2111.46
733.173	1968.1
733.359	1980.39
733.545	1974.24
733.731	2078.69
733.917	1996.77
734.103	2076.64
734.289	2070.5
734.475	2023.39
734.661	2095.07
734.847	2074.59
735.033	2074.59
735.219	1992.67
735.404	2090.98
735.59	1908.71
735.776	2058.21
735.962	2056.16
736.148	1994.72
736.333	2041.82
736.519	2060.26
736.705	1941.47
736.89	1984.48
737.076	2015.2
737.262	1923.04
737.447	2027.49
737.633	1984.48
737.819	1990.63
738.004	1918.95
738.19	1951.71
738.375	1972.19
738.561	1996.77
738.747	1875.94
738.932	1871.84
739.118	2007.01
739.303	1892.32
739.489	1890.28
739.674	1916.9
739.859	1851.36
740.045	1890.28
740.23	1914.85
740.416	1767.4
740.601	1982.43
740.786	1877.99
740.972	1873.89
741.157	1947.62
741.342	1890.28
741.528	1783.78
741.713	1882.08
741.898	1859.56
742.084	1804.26
742.269	1886.18
742.454	1775.59
742.639	1816.55
742.824	1726.44
743.01	1843.17
743.195	1914.85
743.38	1841.12
743.565	1757.16
743.75	1746.92
743.935	1828.84
744.12	1900.51
744.305	1683.43
744.49	1843.17
744.675	1791.97
744.86	1652.71
745.045	1849.32
745.23	1751.01
745.415	1808.36
745.6	1800.16
745.785	1728.49
745.97	1767.4
746.155	1644.52
746.34	1708.01
746.525	1662.95
746.71	1703.91
746.895	1644.52
747.079	1626.09
747.264	1595.37
747.449	1632.23
747.634	1644.52
747.819	1621.99
748.003	1540.07
748.188	1492.97
748.373	1554.41
748.557	1505.26
748.742	1587.18
748.927	1548.26
749.111	1546.22
749.296	1558.5
749.481	1478.63
749.665	1566.7
749.85	1531.88
750.034	1533.93
750.219	1509.35
750.404	1411.05
750.588	1523.69
750.773	1466.35
750.957	1409
751.141	1437.67
751.326	1425.39
751.51	1415.15
751.695	1427.43
751.879	1357.8
752.064	1404.91
752.248	1349.61
752.432	1441.77
752.617	1374.19
752.801	1378.28
752.985	1425.39
753.17	1349.61
753.354	1392.62
753.538	1359.85
753.722	1341.42
753.907	1284.08
754.091	1263.6
754.275	1335.28
754.459	1341.42
754.643	1294.32
754.828	1161.2
755.012	1292.27
755.196	1259.5
755.38	1212.4
755.564	1122.29
755.748	1191.92
755.932	1214.45
756.116	1171.44
756.3	1245.16
756.484	1163.25
756.668	1198.06
756.852	1245.16
757.036	1218.54
757.22	1185.77
757.404	1140.72
757.588	1071.09
757.772	1128.43
757.956	1150.96
758.14	1261.55
758.323	1118.19
758.507	1163.25
758.691	1136.62
758.875	1097.71
759.059	1089.52
759.242	1017.84
759.426	1036.27
759.61	1091.57
759.794	978.93
759.977	1087.47
760.161	1087.47
760.345	1122.29
760.528	1163.25
760.712	1054.7
760.895	1007.6
761.079	917.49
761.263	1083.38
761.446	1026.03
761.63	968.69
761.813	1046.51
761.997	948.21
762.18	964.59
762.364	1058.8
762.547	968.69
762.731	948.21
762.914	991.22
763.098	1056.75
763.281	903.15
763.464	1021.94
763.648	964.59
763.831	972.79
764.015	862.19
764.198	954.35
764.381	976.88
764.564	940.02
764.748	858.1
764.931	860.15
765.114	909.3
765.297	905.2
765.481	858.1
765.664	901.11
765.847	974.83
766.03	1030.13
766.213	931.83
766.397	989.17
766.58	825.33
766.763	948.21
766.946	980.98
767.129	854
767.312	876.53
767.495	927.73
767.678	849.91
767.861	940.02
768.044	915.44
768.227	903.15
768.41	767.99
768.593	882.67
768.776	899.06
768.959	831.48
769.142	792.56
769.324	755.7
769.507	843.76
769.69	835.57
769.873	831.48
770.056	931.83
770.239	794.61
770.421	829.43
770.604	802.8
770.787	802.8
770.97	835.57
771.152	874.48
771.335	874.48
771.518	772.08
771.7	841.72
771.883	837.62
772.066	786.42
772.248	825.33
772.431	747.51
772.613	874.48
772.796	751.6
772.978	819.19
773.161	827.38
773.343	829.43
773.526	759.8
773.708	794.61
773.891	632.82
774.073	696.31
774.256	655.35
774.438	747.51
774.621	770.04
774.803	690.17
774.985	735.22
775.168	743.41
775.35	677.88
775.532	718.84
775.715	686.07
775.897	749.56
776.079	755.7
776.261	780.28
776.444	729.08
776.626	663.54
776.808	663.54
776.99	669.69
777.173	727.03
777.355	620.53
777.537	667.64
777.719	632.82
777.901	618.49
778.083	655.35
778.265	669.69
778.447	638.97
778.629	581.62
778.811	632.82
778.993	589.81
779.175	638.97
779.357	583.67
779.539	632.82
779.721	641.01
779.903	591.86
780.085	667.64
780.267	595.96
780.449	540.66
780.631	612.34
780.812	661.49
780.994	624.63
781.176	608.25
781.358	534.52
781.54	489.46
781.721	509.94
781.903	565.24
782.085	583.67
782.267	575.48
782.448	499.7
782.63	514.04
782.812	423.93
782.993	557.05
783.175	604.15
783.357	557.05
783.538	509.94
783.72	473.08
783.901	587.77
784.083	403.45
784.264	448.51
784.446	475.13
784.627	530.42
784.809	489.46
784.99	489.46
785.172	511.99
785.353	495.61
785.535	423.93
785.716	423.93
785.897	473.08
786.079	509.94
786.26	423.93
786.441	511.99
786.623	468.98
786.804	368.63
786.985	364.54
787.167	442.36
787.348	432.12
787.529	401.4
787.71	452.6
787.891	514.04
788.073	333.82
788.254	385.02
788.435	385.02
788.616	360.44
788.797	368.63
788.978	503.8
789.159	417.79
789.34	456.7
789.522	311.29
789.703	350.2
789.884	393.21
790.065	382.97
790.246	397.31
790.427	436.22
790.607	468.98
790.788	440.31
790.969	344.06
791.15	432.12
791.331	348.15
791.512	344.06
791.693	325.63
791.874	360.44
792.054	366.59
792.235	354.3
792.416	251.9
792.597	403.45
792.778	307.2
792.958	309.24
793.139	301.05
793.32	358.39
793.5	346.11
793.681	325.63
793.862	276.48
794.042	292.86
794.223	253.95
794.404	419.83
794.584	303.1
794.765	346.11
794.945	286.72
795.126	331.77
795.306	245.76
795.487	333.82
795.667	278.52
795.848	286.72
796.028	276.48
796.209	253.95
796.389	333.82
796.57	315.39
796.75	272.38
796.93	401.4
797.111	194.56
797.291	352.25
797.471	311.29
797.652	284.67
797.832	288.76
798.012	243.71
798.192	188.41
798.373	239.61
798.553	202.75
798.733	350.2
798.913	296.96
799.093	210.94
799.274	325.63
799.454	253.95
799.634	276.48
799.814	301.05
799.994	253.95
800.174	335.87
800.354	256
800.534	243.71
800.714	225.28
800.894	221.18
801.074	204.8
801.254	172.03
801.434	284.67
801.614	219.13
801.794	212.99
801.974	882.67
802.154	223.23
802.334	292.86
802.514	190.46
802.693	260.09
802.873	284.67
803.053	262.14
803.233	198.65
803.413	227.32
803.592	237.56
803.772	219.13
803.952	153.6
804.131	163.84
804.311	243.71
804.491	219.13
804.67	268.28
804.85	206.84
805.03	212.99
805.209	186.37
805.389	251.9
805.568	243.71
805.748	155.65
805.928	278.52
806.107	243.71
806.287	169.98
806.466	180.22
806.646	190.46
806.825	88.06
807.004	190.46
807.184	145.41
807.363	260.09
807.543	221.18
807.722	174.08
807.901	172.03
808.081	235.52
808.26	223.23
808.439	169.98
808.619	188.41
808.798	227.32
808.977	243.71
809.156	184.32
809.336	163.84
809.515	231.42
809.694	122.88
809.873	219.13
810.052	264.19
810.231	202.75
810.411	108.54
810.59	237.56
810.769	120.83
810.948	223.23
811.127	188.41
811.306	147.45
811.485	200.7
811.664	253.95
811.843	180.22
812.022	178.17
812.201	190.46
812.38	155.65
812.559	122.88
812.737	165.89
812.916	178.17
813.095	137.21
813.274	215.04
813.453	118.78
813.632	196.61
813.811	227.32
813.989	137.21
814.168	147.45
814.347	81.92
814.526	147.45
814.704	124.93
814.883	235.52
815.062	43.01
815.24	155.65
815.419	141.31
815.598	196.61
815.776	38.91
815.955	124.93
816.133	96.25
816.312	196.61
816.49	131.07
816.669	149.5
816.847	190.46
817.026	122.88
817.204	141.31
817.383	186.37
817.561	131.07
817.74	153.6
817.918	139.26
818.097	88.06
818.275	63.49
818.453	116.73
818.632	34.82
818.81	131.07
818.988	112.64
819.167	124.93
819.345	75.77
819.523	32.77
819.701	145.41
819.879	106.49
820.058	96.25
820.236	90.11
820.414	92.16
820.592	108.54
820.77	104.45
820.948	79.87
821.127	88.06
821.305	145.41
821.483	88.06
821.661	106.49
821.839	120.83
822.017	106.49
822.195	174.08
822.373	159.74
822.551	55.3
822.729	63.49
822.907	161.79
823.085	145.41
823.262	157.69
823.44	178.17
823.618	149.5
823.796	139.26
823.974	145.41
824.152	159.74
824.329	20.48
824.507	172.03
824.685	133.12
824.863	124.93
825.04	145.41
825.218	176.13
825.396	106.49
825.574	118.78
825.751	43.01
825.929	141.31
826.107	22.53
826.284	8.19
826.462	112.64
826.639	104.45
826.817	53.25
826.994	98.3
827.172	98.3
827.349	157.69
827.527	65.53
827.704	4.1
827.882	174.08
828.059	59.39
828.237	161.79
828.414	88.06
828.591	108.54
828.769	137.21
828.946	63.49
829.124	149.5
829.301	137.21
829.478	73.73
829.655	114.69
829.833	147.45
830.01	108.54
830.187	169.98
830.364	75.77
830.542	30.72
830.719	65.53
830.896	149.5
831.073	153.6
831.25	65.53
831.427	86.01
831.604	159.74
831.782	-43.01
831.959	88.06
832.136	6.14
832.313	81.92
832.49	26.62
832.667	55.3
832.844	45.06
833.021	71.68
833.198	96.25
833.374	88.06
833.551	73.73
833.728	55.3
833.905	141.31
834.082	47.1
834.259	129.02
834.436	129.02
834.612	57.34
834.789	182.27
834.966	79.87
835.143	116.73
835.319	71.68
835.496	106.49
835.673	129.02
835.85	106.49
836.026	55.3
836.203	75.77
836.38	38.91
836.556	106.49
836.733	106.49
836.909	245.76
837.086	2.05
837.262	22.53
837.439	112.64
837.616	112.64
837.792	92.16
837.968	81.92
838.145	55.3
838.321	157.69
838.498	120.83
838.674	88.06
838.851	55.3
839.027	98.3
839.203	55.3
839.38	6.14
839.556	18.43
839.732	88.06
839.909	47.1
840.085	153.6
840.261	53.25
840.437	32.77
840.614	65.53
840.79	135.17
840.966	96.25
841.142	75.77
841.318	79.87
841.494	120.83
841.671	63.49
841.847	43.01
842.023	67.58
842.199	122.88
842.375	38.91
842.551	38.91
842.727	75.77
842.903	81.92
843.079	16.38
843.255	14.34
843.431	18.43
843.607	110.59
843.783	-26.62
843.959	88.06
844.134	43.01
844.31	104.45
844.486	22.53
844.662	8.19
844.838	96.25
845.013	112.64
845.189	53.25
845.365	57.34
845.541	57.34
845.716	73.73
845.892	79.87
846.068	79.87
846.244	104.45
846.419	122.88
846.595	92.16
846.77	-26.62
846.946	51.2
847.122	14.34
847.297	98.3
847.473	38.91
847.648	90.11
847.824	145.41
847.999	36.86
848.175	81.92
848.35	92.16
848.526	75.77
848.701	79.87
848.876	153.6
849.052	36.86
849.227	59.39
849.403	71.68
849.578	71.68
849.753	-47.1
849.929	110.59
850.104	38.91
850.279	-10.24
850.454	36.86
850.63	67.58
850.805	47.1
850.98	71.68
851.155	88.06
851.33	59.39
851.505	55.3
851.681	98.3
851.856	6.14
852.031	47.1
852.206	38.91
852.381	30.72
852.556	49.15
852.731	10.24
852.906	73.73
853.081	79.87
853.256	40.96
853.431	57.34
853.606	59.39
853.781	-14.34
853.956	-2.05
854.131	92.16
854.305	-4.1
854.48	34.82
854.655	63.49
854.83	40.96
855.005	67.58
855.18	28.67
855.354	47.1
855.529	61.44
855.704	-18.43
855.879	122.88
856.053	69.63
856.228	57.34
856.403	-34.82
856.577	18.43
856.752	38.91
856.926	32.77
857.101	-4.1
857.276	55.3
857.45	73.73
857.625	32.77
857.799	-18.43
857.974	67.58
858.148	16.38
858.323	34.82
858.497	49.15
858.672	49.15
858.846	-22.53
859.02	79.87
859.195	18.43
859.369	-4.1
859.543	96.25
859.718	43.01
859.892	75.77
860.066	43.01
860.241	-2.05
860.415	63.49
860.589	63.49
860.763	12.29
860.938	6.14
861.112	59.39
861.286	-2.05
861.46	49.15
861.634	61.44
861.808	129.02
861.982	30.72
862.157	30.72
862.331	55.3
862.505	-10.24
862.679	-83.97
862.853	47.1
863.027	-34.82
863.201	61.44
863.375	47.1
863.549	51.2
863.722	22.53
863.896	65.53
864.07	10.24
864.244	145.41
864.418	47.1
864.592	65.53
864.766	24.58
864.939	106.49
865.113	20.48
865.287	30.72
865.461	14.34
865.634	8.19
865.808	-26.62
865.982	8.19
866.156	-47.1
866.329	-18.43
866.503	30.72
866.676	-2.05
866.85	30.72
867.024	43.01
867.197	57.34
867.371	81.92
867.544	100.35
867.718	8.19
867.891	24.58
868.065	81.92
868.238	65.53
868.412	102.4
868.585	-36.86
868.759	73.73
868.932	22.53
869.105	-26.62
869.279	30.72
869.452	-6.14
869.625	6.14
869.799	-2.05
869.972	-24.58
870.145	139.26
870.319	55.3
870.492	24.58
870.665	63.49
870.838	8.19
871.011	34.82
871.185	8.19
871.358	30.72
871.531	30.72
871.704	90.11
871.877	40.96
872.05	18.43
872.223	-30.72
872.396	18.43
872.569	-6.14
872.742	71.68
872.915	79.87
873.088	10.24
873.261	36.86
873.434	92.16
873.607	96.25
873.78	6.14
873.953	24.58
874.126	49.15
874.299	67.58
874.471	34.82
874.644	-51.2
874.817	51.2
874.99	88.06
875.163	-14.34
875.335	65.53
875.508	55.3
875.681	137.21
875.853	22.53
876.026	14.34
876.199	73.73
876.371	8.19
876.544	-40.96
876.717	79.87
876.889	-8.19
877.062	4.1
877.234	59.39
877.407	100.35
877.579	24.58
877.752	106.49
877.924	61.44
878.097	8.19
878.269	30.72
878.442	88.06
878.614	77.82
878.786	67.58
878.959	114.69
879.131	-14.34
879.303	-18.43
879.476	55.3
879.648	79.87
879.82	26.62
879.993	-20.48
880.165	24.58
880.337	8.19
880.509	49.15
880.681	-38.91
880.854	38.91
881.026	-55.3
881.198	6.14
881.37	-65.54
881.542	-2.05
881.714	30.72
881.886	65.53
882.058	0
882.23	0
882.402	79.87
882.574	71.68
882.746	-34.82
882.918	96.25
883.09	0
883.262	8.19
883.434	47.1
883.606	-51.2
883.778	40.96
883.95	102.4
884.122	59.39
884.293	47.1
884.465	16.38
884.637	30.72
884.809	-10.24
884.98	26.62
885.152	63.49
885.324	69.63
885.496	-2.05
885.667	96.25
885.839	43.01
886.011	79.87
886.182	53.25
886.354	40.96
886.525	55.3
886.697	6.14
886.869	-8.19
887.04	47.1
887.212	16.38
887.383	34.82
887.555	55.3
887.726	-40.96
887.897	65.53
888.069	16.38
888.24	28.67
888.412	18.43
888.583	65.53
888.754	26.62
888.926	12.29
889.097	90.11
889.268	-34.82
889.44	32.77
889.611	18.43
889.782	0
889.953	-6.14
890.125	57.34
890.296	59.39
890.467	30.72
890.638	-18.43
890.809	-26.62
890.98	-32.77
891.151	65.53
891.323	10.24
891.494	-6.14
891.665	40.96
891.836	110.59
892.007	18.43
892.178	55.3
892.349	-4.1
892.52	59.39
892.691	81.92
892.862	51.2
893.032	-26.62
893.203	24.58
893.374	57.34
893.545	45.06
893.716	-63.49
893.887	-49.15
894.057	-34.82
894.228	-6.14
894.399	-22.53
894.57	83.97
894.74	14.34
894.911	16.38
895.082	-6.14
895.253	22.53
895.423	10.24
895.594	22.53
895.764	10.24
895.935	73.73
896.106	4.1
896.276	16.38
896.447	22.53
896.617	-20.48
896.788	40.96
896.958	-22.53
897.129	-55.3
897.299	10.24
897.47	90.11
897.64	116.73
897.81	79.87
897.981	51.2
898.151	-38.91
898.322	16.38
898.492	51.2
898.662	-24.58
898.832	45.06
899.003	2.05
899.173	30.72
899.343	-22.53
899.513	-38.91
