Data from USB4F104151__168__14-44-55-476.txt Node

Date: Thu Mar 13 14:44:55 EDT 2025
User: louis
Spectrometer: USB4F10415
Trigger mode: 4
Integration Time (sec): 2.000000E-2
Scans to average: 1
Electric dark correction enabled: true
Nonlinearity correction enabled: false
Boxcar width: 0
XAxis mode: Wavelengths
Number of Pixels in Spectrum: 3648
>>>>>Begin Spectral Data<<<<<
178.204	-152.4
178.424	-152.4
178.644	-152.4
178.864	-117.59
179.084	-90.96
179.304	-19.29
179.524	21.67
179.744	-74.58
179.964	62.63
180.184	17.58
180.404	70.83
180.624	5.29
180.844	-33.62
181.064	-39.76
181.283	5.29
181.503	-9.05
181.723	-7
181.943	-93.01
182.163	54.44
182.383	21.67
182.602	9.39
182.822	48.3
183.042	74.92
183.262	7.34
183.482	95.4
183.701	-31.57
183.921	56.49
184.141	15.53
184.361	66.73
184.58	81.07
184.8	103.59
185.02	5.29
185.239	95.4
185.459	1.19
185.679	113.83
185.898	15.53
186.118	31.91
186.338	31.91
186.557	40.11
186.777	29.87
186.997	-2.9
187.216	-41.81
187.436	109.74
187.655	60.59
187.875	52.39
188.095	23.72
188.314	38.06
188.534	103.59
188.753	-9.05
188.973	40.11
189.192	50.35
189.412	62.63
189.631	-11.09
189.851	50.35
190.07	5.29
190.29	-19.29
190.509	31.91
190.729	31.91
190.948	40.11
191.168	54.44
191.387	115.88
191.607	-17.24
191.826	38.06
192.045	-41.81
192.265	-11.09
192.484	38.06
192.704	27.82
192.923	-15.19
193.142	103.59
193.362	15.53
193.581	60.59
193.8	48.3
194.02	19.63
194.239	27.82
194.458	72.87
194.678	25.77
194.897	64.68
195.116	81.07
195.335	52.39
195.555	54.44
195.774	-2.9
195.993	38.06
196.212	81.07
196.432	87.21
196.651	17.58
196.87	1.19
197.089	23.72
197.308	-27.48
197.528	124.07
197.747	21.67
197.966	7.34
198.185	29.87
198.404	-9.05
198.623	25.77
198.842	23.72
199.062	29.87
199.281	42.15
199.5	-27.48
199.719	50.35
199.938	-76.63
200.157	87.21
200.376	31.91
200.595	81.07
200.814	-60.24
201.033	107.69
201.252	21.67
201.471	40.11
201.69	70.83
201.909	62.63
202.128	70.83
202.347	13.48
202.566	31.91
202.785	23.72
203.004	50.35
203.223	105.64
203.442	29.87
203.661	23.72
203.879	-43.86
204.098	156.84
204.317	-33.62
204.536	85.16
204.755	95.4
204.974	46.25
205.193	25.77
205.411	128.17
205.63	83.11
205.849	95.4
206.068	50.35
206.287	36.01
206.505	-19.29
206.724	-39.76
206.943	40.11
207.162	46.25
207.381	-0.85
207.599	-9.05
207.818	74.92
208.037	-4.95
208.255	50.35
208.474	87.21
208.693	-11.09
208.911	33.96
209.13	9.39
209.349	31.91
209.567	25.77
209.786	87.21
210.005	-9.05
210.223	23.72
210.442	1.19
210.661	-9.05
210.879	23.72
211.098	40.11
211.316	31.91
211.535	46.25
211.753	-9.05
211.972	13.48
212.191	-27.48
212.409	-0.85
212.628	-0.85
212.846	56.49
213.065	122.02
213.283	74.92
213.502	91.31
213.72	46.25
213.938	-21.33
214.157	23.72
214.375	62.63
214.594	38.06
214.812	54.44
215.031	-9.05
215.249	31.91
215.467	-11.09
215.686	13.48
215.904	13.48
216.122	29.87
216.341	70.83
216.559	-2.9
216.778	70.83
216.996	58.54
217.214	-2.9
217.432	138.41
217.651	38.06
217.869	29.87
218.087	17.58
218.306	-23.38
218.524	38.06
218.742	89.26
218.96	54.44
219.179	56.49
219.397	23.72
219.615	56.49
219.833	13.48
220.051	56.49
220.27	33.96
220.488	13.48
220.706	76.97
220.924	70.83
221.142	5.29
221.36	36.01
221.578	-0.85
221.796	21.67
222.015	52.39
222.233	93.35
222.451	15.53
222.669	-11.09
222.887	21.67
223.105	21.67
223.323	-11.09
223.541	-35.67
223.759	-17.24
223.977	23.72
224.195	46.25
224.413	46.25
224.631	56.49
224.849	50.35
225.067	70.83
225.285	-9.05
225.503	97.45
225.721	-47.96
225.939	87.21
226.157	85.16
226.375	130.22
226.592	66.73
226.81	-23.38
227.028	74.92
227.246	27.82
227.464	-45.91
227.682	50.35
227.9	64.68
228.117	54.44
228.335	87.21
228.553	64.68
228.771	29.87
228.989	79.02
229.206	42.15
229.424	54.44
229.642	27.82
229.86	48.3
230.077	70.83
230.295	17.58
230.513	54.44
230.731	38.06
230.948	97.45
231.166	29.87
231.384	23.72
231.601	38.06
231.819	29.87
232.037	-15.19
232.254	15.53
232.472	5.29
232.689	33.96
232.907	50.35
233.125	46.25
233.342	70.83
233.56	-11.09
233.777	15.53
233.995	25.77
234.213	89.26
234.43	5.29
234.648	29.87
234.865	83.11
235.083	-11.09
235.3	74.92
235.518	115.88
235.735	-15.19
235.953	91.31
236.17	144.55
236.388	23.72
236.605	38.06
236.822	13.48
237.04	122.02
237.257	-19.29
237.475	66.73
237.692	54.44
237.909	36.01
238.127	54.44
238.344	31.91
238.562	-2.9
238.779	15.53
238.996	-19.29
239.214	79.02
239.431	42.15
239.648	56.49
239.865	79.02
240.083	40.11
240.3	5.29
240.517	-33.62
240.735	38.06
240.952	31.91
241.169	21.67
241.386	-29.52
241.603	13.48
241.821	-19.29
242.038	87.21
242.255	25.77
242.472	54.44
242.689	33.96
242.907	38.06
243.124	13.48
243.341	83.11
243.558	5.29
243.775	13.48
243.992	-41.81
244.209	1.19
244.426	44.2
244.643	74.92
244.86	70.83
245.078	91.31
245.295	-11.09
245.512	48.3
245.729	5.29
245.946	42.15
246.163	128.17
246.38	58.54
246.597	-23.38
246.814	79.02
247.031	11.43
247.248	48.3
247.464	64.68
247.681	21.67
247.898	54.44
248.115	50.35
248.332	-11.09
248.549	81.07
248.766	54.44
248.983	70.83
249.2	68.78
249.417	54.44
249.633	9.39
249.85	48.3
250.067	95.4
250.284	-9.05
250.501	25.77
250.717	23.72
250.934	42.15
251.151	42.15
251.368	54.44
251.585	17.58
251.801	5.29
252.018	62.63
252.235	74.92
252.451	54.44
252.668	-21.33
252.885	91.31
253.102	-11.09
253.318	54.44
253.535	33.96
253.752	58.54
253.968	38.06
254.185	-19.29
254.401	5.29
254.618	87.21
254.835	13.48
255.051	95.4
255.268	-19.29
255.484	64.68
255.701	-25.43
255.917	1.19
256.134	25.77
256.351	29.87
256.567	64.68
256.784	85.16
257	-39.76
257.217	93.35
257.433	36.01
257.65	91.31
257.866	81.07
258.082	-27.48
258.299	-11.09
258.515	66.73
258.732	21.67
258.948	72.87
259.165	56.49
259.381	-13.14
259.597	40.11
259.814	54.44
260.03	13.48
260.246	38.06
260.463	5.29
260.679	136.36
260.895	48.3
261.112	23.72
261.328	29.87
261.544	29.87
261.761	81.07
261.977	74.92
262.193	40.11
262.409	27.82
262.626	74.92
262.842	83.11
263.058	-25.43
263.274	33.96
263.49	38.06
263.707	87.21
263.923	-2.9
264.139	7.34
264.355	-66.39
264.571	148.65
264.787	-25.43
265.004	113.83
265.22	-43.86
265.436	64.68
265.652	64.68
265.868	40.11
266.084	31.91
266.3	64.68
266.516	40.11
266.732	29.87
266.948	11.43
267.164	58.54
267.38	48.3
267.596	-15.19
267.812	58.54
268.028	46.25
268.244	1.19
268.46	89.26
268.676	-15.19
268.892	-35.67
269.108	-58.2
269.324	19.63
269.54	5.29
269.756	50.35
269.972	21.67
270.188	66.73
270.403	31.91
270.619	13.48
270.835	-90.96
271.051	9.39
271.267	29.87
271.483	50.35
271.698	72.87
271.914	48.3
272.13	-31.57
272.346	58.54
272.562	81.07
272.777	31.91
272.993	31.91
273.209	36.01
273.425	64.68
273.64	-15.19
273.856	19.63
274.072	-27.48
274.287	-25.43
274.503	79.02
274.719	33.96
274.934	-0.85
275.15	-4.95
275.366	46.25
275.581	58.54
275.797	70.83
276.012	40.11
276.228	87.21
276.444	-0.85
276.659	54.44
276.875	21.67
277.09	21.67
277.306	79.02
277.521	89.26
277.737	105.64
277.952	31.91
278.168	60.59
278.383	29.87
278.599	29.87
278.814	56.49
279.03	38.06
279.245	79.02
279.461	17.58
279.676	5.29
279.892	1.19
280.107	-54.1
280.322	54.44
280.538	40.11
280.753	-9.05
280.969	29.87
281.184	5.29
281.399	70.83
281.615	15.53
281.83	81.07
282.045	7.34
282.26	-11.09
282.476	50.35
282.691	40.11
282.906	91.31
283.122	29.87
283.337	60.59
283.552	111.78
283.767	3.24
283.983	15.53
284.198	21.67
284.413	103.59
284.628	15.53
284.843	66.73
285.058	58.54
285.274	17.58
285.489	79.02
285.704	40.11
285.919	-27.48
286.134	-13.14
286.349	91.31
286.564	27.82
286.779	87.21
286.995	7.34
287.21	81.07
287.425	5.29
287.64	13.48
287.855	-11.09
288.07	54.44
288.285	66.73
288.5	72.87
288.715	72.87
288.93	23.72
289.145	70.83
289.36	79.02
289.575	-0.85
289.79	111.78
290.004	50.35
290.219	46.25
290.434	-70.48
290.649	13.48
290.864	-19.29
291.079	15.53
291.294	7.34
291.509	81.07
291.724	-2.9
291.938	19.63
292.153	23.72
292.368	76.97
292.583	46.25
292.798	40.11
293.012	38.06
293.227	46.25
293.442	-35.67
293.657	101.55
293.871	54.44
294.086	66.73
294.301	119.98
294.516	76.97
294.73	25.77
294.945	42.15
295.16	119.98
295.374	58.54
295.589	58.54
295.804	48.3
296.018	-27.48
296.233	97.45
296.447	97.45
296.662	-15.19
296.877	95.4
297.091	-9.05
297.306	46.25
297.52	-31.57
297.735	33.96
297.949	-4.95
298.164	42.15
298.378	1.19
298.593	-15.19
298.807	17.58
299.022	89.26
299.236	79.02
299.451	74.92
299.665	70.83
299.88	-4.95
300.094	21.67
300.309	66.73
300.523	42.15
300.737	31.91
300.952	33.96
301.166	68.78
301.381	-4.95
301.595	38.06
301.809	97.45
302.024	21.67
302.238	25.77
302.452	62.63
302.667	117.93
302.881	76.97
303.095	87.21
303.309	38.06
303.524	-19.29
303.738	33.96
303.952	19.63
304.166	-50
304.381	7.34
304.595	113.83
304.809	5.29
305.023	81.07
305.237	31.91
305.452	5.29
305.666	29.87
305.88	68.78
306.094	19.63
306.308	-25.43
306.522	126.12
306.736	3.24
306.95	105.64
307.164	17.58
307.379	-17.24
307.593	111.78
307.807	40.11
308.021	62.63
308.235	29.87
308.449	29.87
308.663	62.63
308.877	160.94
309.091	74.92
309.305	66.73
309.519	21.67
309.733	54.44
309.947	64.68
310.161	70.83
310.374	-19.29
310.588	97.45
310.802	7.34
311.016	89.26
311.23	38.06
311.444	23.72
311.658	54.44
311.872	76.97
312.085	74.92
312.299	58.54
312.513	29.87
312.727	113.83
312.941	-4.95
313.154	31.91
313.368	-7
313.582	40.11
313.796	17.58
314.009	-33.62
314.223	-19.29
314.437	25.77
314.651	111.78
314.864	52.39
315.078	21.67
315.292	21.67
315.505	89.26
315.719	29.87
315.933	128.17
316.146	-19.29
316.36	7.34
316.573	64.68
316.787	52.39
317.001	21.67
317.214	54.44
317.428	74.92
317.641	40.11
317.855	40.11
318.068	1.19
318.282	81.07
318.495	7.34
318.709	54.44
318.922	1.19
319.136	105.64
319.349	91.31
319.563	54.44
319.776	36.01
319.99	48.3
320.203	60.59
320.417	97.45
320.63	70.83
320.843	66.73
321.057	70.83
321.27	-19.29
321.483	-41.81
321.697	38.06
321.91	56.49
322.124	-4.95
322.337	54.44
322.55	48.3
322.763	89.26
322.977	-25.43
323.19	33.96
323.403	144.55
323.617	48.3
323.83	107.69
324.043	-27.48
324.256	64.68
324.469	3.24
324.683	72.87
324.896	154.79
325.109	46.25
325.322	46.25
325.535	13.48
325.748	40.11
325.962	79.02
326.175	23.72
326.388	72.87
326.601	17.58
326.814	62.63
327.027	33.96
327.24	136.36
327.453	25.77
327.666	48.3
327.879	42.15
328.092	99.5
328.305	52.39
328.518	-0.85
328.731	13.48
328.944	103.59
329.157	66.73
329.37	11.43
329.583	99.5
329.796	119.98
330.009	9.39
330.222	103.59
330.435	25.77
330.648	103.59
330.861	11.43
331.073	-7
331.286	58.54
331.499	17.58
331.712	83.11
331.925	23.72
332.138	-4.95
332.35	113.83
332.563	-41.81
332.776	7.34
332.989	-19.29
333.202	7.34
333.414	33.96
333.627	-9.05
333.84	50.35
334.053	44.2
334.265	50.35
334.478	-2.9
334.691	38.06
334.903	46.25
335.116	15.53
335.329	-35.67
335.541	87.21
335.754	58.54
335.966	-0.85
336.179	38.06
336.392	50.35
336.604	-9.05
336.817	-27.48
337.029	115.88
337.242	111.78
337.454	21.67
337.667	66.73
337.88	85.16
338.092	21.67
338.305	56.49
338.517	50.35
338.729	33.96
338.942	87.21
339.154	5.29
339.367	21.67
339.579	70.83
339.792	11.43
340.004	93.35
340.217	66.73
340.429	66.73
340.641	1.19
340.854	58.54
341.066	19.63
341.278	95.4
341.491	128.17
341.703	103.59
341.915	-0.85
342.128	36.01
342.34	42.15
342.552	-27.48
342.764	50.35
342.977	62.63
343.189	29.87
343.401	31.91
343.613	83.11
343.826	103.59
344.038	38.06
344.25	38.06
344.462	-2.9
344.674	87.21
344.886	-39.76
345.099	60.59
345.311	42.15
345.523	79.02
345.735	46.25
345.947	-7
346.159	21.67
346.371	50.35
346.583	21.67
346.795	105.64
347.007	52.39
347.219	113.83
347.431	-84.82
347.643	70.83
347.855	56.49
348.067	136.36
348.279	74.92
348.491	38.06
348.703	54.44
348.915	15.53
349.127	44.2
349.339	9.39
349.551	115.88
349.763	68.78
349.975	87.21
350.187	36.01
350.399	-11.09
350.61	62.63
350.822	29.87
351.034	64.68
351.246	70.83
351.458	79.02
351.669	54.44
351.881	56.49
352.093	29.87
352.305	40.11
352.517	-21.33
352.728	54.44
352.94	-43.86
353.152	146.6
353.363	33.96
353.575	76.97
353.787	44.2
353.999	72.87
354.21	83.11
354.422	79.02
354.633	44.2
354.845	40.11
355.057	1.19
355.268	7.34
355.48	113.83
355.692	1.19
355.903	89.26
356.115	11.43
356.326	-11.09
356.538	179.37
356.749	11.43
356.961	-2.9
357.172	21.67
357.384	1.19
357.595	29.87
357.807	50.35
358.018	38.06
358.23	15.53
358.441	68.78
358.653	38.06
358.864	13.48
359.075	-19.29
359.287	21.67
359.498	56.49
359.709	119.98
359.921	11.43
360.132	132.26
360.344	27.82
360.555	-15.19
360.766	87.21
360.977	21.67
361.189	3.24
361.4	-2.9
361.611	76.97
361.823	119.98
362.034	56.49
362.245	21.67
362.456	23.72
362.667	-4.95
362.879	38.06
363.09	76.97
363.301	89.26
363.512	91.31
363.723	56.49
363.935	58.54
364.146	50.35
364.357	-29.52
364.568	91.31
364.779	68.78
364.99	68.78
365.201	13.48
365.412	95.4
365.623	5.29
365.834	54.44
366.045	-33.62
366.256	-7
366.467	42.15
366.678	7.34
366.889	54.44
367.1	36.01
367.311	15.53
367.522	31.91
367.733	99.5
367.944	76.97
368.155	56.49
368.366	56.49
368.577	33.96
368.788	62.63
368.999	76.97
369.209	52.39
369.42	128.17
369.631	115.88
369.842	79.02
370.053	-4.95
370.264	42.15
370.474	85.16
370.685	42.15
370.896	-0.85
371.107	36.01
371.317	91.31
371.528	89.26
371.739	38.06
371.95	74.92
372.16	-25.43
372.371	-41.81
372.582	72.87
372.792	99.5
373.003	85.16
373.214	70.83
373.424	13.48
373.635	25.77
373.846	95.4
374.056	87.21
374.267	25.77
374.477	38.06
374.688	5.29
374.898	23.72
375.109	46.25
375.319	97.45
375.53	144.55
375.74	21.67
375.951	58.54
376.161	25.77
376.372	46.25
376.582	60.59
376.793	111.78
377.003	31.91
377.214	46.25
377.424	83.11
377.635	54.44
377.845	-11.09
378.055	52.39
378.266	-23.38
378.476	5.29
378.686	79.02
378.897	46.25
379.107	17.58
379.317	70.83
379.528	40.11
379.738	29.87
379.948	58.54
380.158	52.39
380.369	83.11
380.579	31.91
380.789	25.77
380.999	13.48
381.21	68.78
381.42	97.45
381.63	111.78
381.84	122.02
382.05	40.11
382.261	103.59
382.471	15.53
382.681	27.82
382.891	64.68
383.101	58.54
383.311	-0.85
383.521	38.06
383.731	70.83
383.941	62.63
384.151	5.29
384.361	48.3
384.571	54.44
384.781	64.68
384.991	21.67
385.201	83.11
385.411	50.35
385.621	42.15
385.831	58.54
386.041	119.98
386.251	25.77
386.461	95.4
386.671	101.55
386.881	64.68
387.091	122.02
387.301	103.59
387.511	62.63
387.72	70.83
387.93	136.36
388.14	42.15
388.35	3.24
388.56	148.65
388.769	31.91
388.979	29.87
389.189	38.06
389.399	105.64
389.609	46.25
389.818	72.87
390.028	66.73
390.238	56.49
390.447	-9.05
390.657	36.01
390.867	19.63
391.076	52.39
391.286	138.41
391.496	-39.76
391.705	68.78
391.915	105.64
392.125	83.11
392.334	111.78
392.544	136.36
392.753	87.21
392.963	17.58
393.172	173.22
393.382	-2.9
393.591	95.4
393.801	54.44
394.01	142.5
394.22	68.78
394.429	48.3
394.639	9.39
394.848	64.68
395.058	56.49
395.267	66.73
395.477	105.64
395.686	119.98
395.895	162.98
396.105	144.55
396.314	40.11
396.524	70.83
396.733	91.31
396.942	58.54
397.152	150.7
397.361	146.6
397.57	105.64
397.78	138.41
397.989	136.36
398.198	148.65
398.407	29.87
398.617	97.45
398.826	109.74
399.035	74.92
399.244	95.4
399.453	111.78
399.663	79.02
399.872	132.26
400.081	25.77
400.29	152.74
400.499	76.97
400.708	158.89
400.917	48.3
401.127	177.32
401.336	122.02
401.545	103.59
401.754	105.64
401.963	171.18
402.172	83.11
402.381	103.59
402.59	64.68
402.799	87.21
403.008	119.98
403.217	111.78
403.426	136.36
403.635	70.83
403.844	89.26
404.053	124.07
404.262	54.44
404.471	165.03
404.68	132.26
404.888	130.22
405.097	119.98
405.306	54.44
405.515	144.55
405.724	136.36
405.933	113.83
406.142	165.03
406.35	242.85
406.559	203.94
406.768	138.41
406.977	244.9
407.185	279.72
407.394	177.32
407.603	152.74
407.812	214.18
408.02	218.28
408.229	210.09
408.438	285.86
408.646	181.42
408.855	242.85
409.064	218.28
409.272	242.85
409.481	283.81
409.69	269.48
409.898	275.62
410.107	275.62
410.315	275.62
410.524	287.91
410.733	324.77
410.941	347.3
411.15	382.12
411.358	361.64
411.567	380.07
411.775	332.97
411.984	343.21
412.192	433.32
412.401	396.45
412.609	535.71
412.818	439.46
413.026	513.19
413.234	416.93
413.443	488.61
413.651	480.42
413.86	533.67
414.068	492.71
414.276	597.15
414.485	623.78
414.693	619.68
414.901	644.26
415.11	648.35
415.318	605.35
415.526	687.26
415.734	697.5
415.943	726.18
416.151	746.66
416.359	799.9
416.567	828.57
416.776	777.37
416.984	922.78
417.192	834.72
417.4	801.95
417.608	867.49
417.817	904.35
418.025	1016.99
418.233	1121.43
418.441	957.6
418.649	1049.75
418.857	1105.05
419.065	1193.11
419.273	1176.73
419.481	1178.78
419.689	1201.3
419.897	1438.87
420.105	1432.72
420.313	1301.65
420.521	1418.39
420.729	1365.14
420.937	1467.54
421.145	1512.6
421.353	1645.71
421.561	1696.91
421.769	1854.61
421.977	1789.07
422.185	1758.35
422.393	2053.26
422.601	2118.79
422.809	2079.88
423.017	2030.73
423.224	2147.47
423.432	2129.03
423.64	2235.53
423.848	2282.63
424.056	2380.93
424.263	2561.16
424.471	2636.93
424.679	2518.15
424.887	2675.84
425.094	2831.49
425.302	2942.08
425.51	2970.75
425.718	3028.09
425.925	3085.44
426.133	3292.28
426.341	3337.34
426.548	3417.21
426.756	3552.37
426.964	3513.46
427.171	3660.91
427.379	3685.49
427.586	3929.2
427.794	3875.95
428.001	4269.16
428.209	4332.65
428.417	4279.4
428.624	4559.97
428.832	4652.13
429.039	4451.43
429.247	4564.07
429.454	4965.47
429.662	5358.68
429.869	4967.52
430.076	5327.96
430.284	5145.69
430.491	5231.71
430.699	5575.77
430.906	5753.94
431.114	5690.45
431.321	5995.6
431.528	5960.78
431.736	6485.06
431.943	6724.68
432.15	6446.15
432.358	6642.76
432.565	6988.86
432.772	6927.42
432.979	7232.57
433.187	7429.18
433.394	7511.1
433.601	7973.94
433.808	8148.01
434.016	7918.64
434.223	8279.08
434.43	8762.4
434.637	8457.26
434.844	9288.73
435.052	9468.95
435.259	9264.16
435.466	9196.57
435.673	9311.26
435.88	9708.57
436.087	10449.93
436.294	10322.96
436.501	10208.27
436.708	10415.12
436.915	10793.99
437.122	11346.94
437.329	11125.76
437.537	11465.72
437.743	11619.32
437.95	11529.21
438.157	12186.61
438.364	12737.51
438.571	12284.91
438.778	12680.17
438.985	13767.64
439.192	13038.56
439.399	13759.45
439.606	13343.71
439.813	14140.37
440.02	14891.98
440.227	14599.12
440.433	14545.87
440.64	15082.44
440.847	15072.2
441.054	15408.06
441.261	16229.3
441.467	16337.84
441.674	16362.42
441.881	17085.35
442.088	16880.55
442.294	16802.73
442.501	17212.32
442.708	17697.69
442.914	18320.28
443.121	19063.69
443.328	18621.33
443.534	19809.15
443.741	19225.48
443.948	18895.75
444.154	20247.41
444.361	20515.7
444.568	20513.65
444.774	20484.98
444.981	20478.83
445.187	21238.63
445.394	22274.9
445.6	21705.57
445.807	23778.11
446.013	22729.55
446.22	23188.3
446.426	23835.45
446.633	24101.69
446.839	25176.87
447.046	24269.62
447.252	25369.38
447.459	25535.27
447.665	25279.27
447.871	26442.52
448.078	27575.05
448.284	26575.64
448.491	27054.86
448.697	28187.39
448.903	28527.35
449.11	28793.59
449.316	28394.23
449.522	28410.62
449.728	29620.97
449.935	29790.95
450.141	29780.71
450.347	30030.56
450.553	29721.32
450.76	29889.25
450.966	30976.72
451.172	30794.45
451.378	31550.15
451.584	30763.73
451.791	31435.47
451.997	31349.45
452.203	31980.23
452.409	32021.19
452.615	31800.01
452.821	30536.41
453.027	30388.95
453.233	31986.37
453.44	30702.29
453.646	31220.43
453.852	31648.46
454.058	31630.02
454.264	30765.78
454.47	31888.07
454.676	30487.26
454.882	31490.76
455.088	29242.09
455.294	29393.64
455.5	30251.74
455.705	30384.86
455.911	28875.51
456.117	28396.28
456.323	28451.58
456.529	26694.42
456.735	28134.14
456.941	27044.62
457.147	26960.66
457.352	25826.08
457.558	25850.66
457.764	25561.89
457.97	25443.11
458.176	24886.06
458.381	24798
458.587	23526.21
458.793	23931.71
458.999	22352.73
459.204	24187.71
459.41	23362.37
459.616	21599.07
459.821	21947.23
460.027	21922.65
460.233	21459.81
460.438	20450.16
460.644	20390.77
460.85	19592.06
461.055	19313.54
461.261	19397.51
461.466	17677.21
461.672	17222.56
461.878	18637.71
462.083	17324.96
462.289	16939.94
462.494	16858.03
462.7	15846.33
462.905	15639.48
463.111	16155.57
463.316	16329.65
463.522	15864.76
463.727	16106.42
463.932	16083.89
464.138	15555.52
464.343	15776.7
464.549	15336.38
464.754	15768.51
464.959	15733.69
465.165	15471.55
465.37	14926.79
465.575	14521.29
465.781	15074.24
465.986	14853.06
466.191	14529.48
466.397	14132.18
466.602	13444.06
466.807	13994.97
467.012	14054.36
467.218	14029.78
467.423	13663.19
467.628	13814.74
467.833	14492.62
468.038	13958.1
468.244	13775.83
468.449	14210
468.654	13743.06
468.859	13585.37
469.064	13429.73
469.269	12854.25
469.474	13251.55
469.679	13267.94
469.885	12923.88
470.09	13177.83
470.295	12962.79
470.5	12803.05
470.705	12620.78
470.91	12418.03
471.115	12362.73
471.32	12377.07
471.525	12624.87
471.73	12153.84
471.935	12061.68
472.139	11746.3
472.344	12129.27
472.549	11936.76
472.754	11607.03
472.959	11435
473.164	11148.29
473.369	11113.47
473.574	11383.8
473.778	11213.82
473.983	11418.62
474.188	11207.68
474.393	10728.45
474.598	10861.57
474.802	10742.79
475.007	10552.33
475.212	10507.27
475.417	10132.5
475.621	10476.55
475.826	10531.85
476.031	9913.36
476.235	9896.98
476.44	10036.24
476.645	9788.44
476.849	9944.08
477.054	9671.7
477.259	9458.71
477.463	9540.63
477.668	9255.97
477.872	9452.57
478.077	9264.16
478.282	8973.35
478.486	9126.94
478.691	9141.28
478.895	9065.5
479.1	8838.18
479.304	8977.44
479.509	8436.78
479.713	8637.48
479.918	8590.38
480.122	8453.16
480.326	8569.9
480.531	8617
480.735	8502.31
480.94	8365.1
481.144	8660.01
481.348	8320.04
481.553	8512.55
481.757	8215.6
481.961	8352.81
482.166	8549.42
482.37	8401.96
482.574	8018.99
482.778	8143.92
482.983	8344.62
483.187	8039.47
483.391	8219.69
483.595	8170.54
483.8	8021.04
484.004	8229.93
484.208	8313.9
484.412	8037.42
484.616	8238.12
484.821	8193.07
485.025	8016.94
485.229	8559.66
485.433	8078.38
485.637	8223.79
485.841	8141.87
486.045	8158.25
486.249	8066.1
486.453	8043.57
486.657	8090.67
486.861	8195.12
487.065	8029.23
487.269	8152.11
487.473	8127.53
487.677	8137.77
487.881	8287.28
488.085	8281.13
488.289	8254.51
488.493	8010.8
488.697	8215.6
488.901	8338.48
489.105	8287.28
489.309	8279.08
489.512	8260.65
489.716	8432.68
489.92	8016.94
490.124	8191.02
490.328	8348.72
490.531	8336.43
490.735	8428.59
490.939	8430.63
491.143	8258.6
491.346	8406.06
491.55	8551.46
491.754	8399.91
491.958	8657.96
492.161	8483.88
492.365	8762.4
492.569	8684.58
492.772	8580.14
492.976	8649.77
493.18	8827.94
493.383	8741.93
493.587	8795.17
493.79	8909.86
493.994	8797.22
494.197	8885.28
494.401	8934.43
494.605	8969.25
494.808	9305.12
495.012	8856.61
495.215	9264.16
495.419	9247.77
495.622	9067.55
495.825	9317.4
496.029	9346.08
496.232	9747.48
496.436	9671.7
496.639	9821.2
496.843	9892.88
497.046	10126.35
497.249	10279.95
497.453	10146.83
497.656	10077.2
497.859	10005.52
498.063	10353.68
498.266	10497.03
498.469	10542.09
498.673	10638.34
498.876	10560.52
499.079	10701.83
499.282	11068.42
499.485	11105.28
499.689	11451.39
499.892	11406.33
500.095	11230.21
500.298	11598.84
500.501	11547.64
500.705	11858.93
500.908	11727.86
501.111	11969.52
501.314	11899.89
501.517	12116.98
501.72	12293.1
501.923	12508.14
502.126	12690.41
502.329	12835.81
502.532	12848.1
502.735	12995.56
502.938	13370.33
503.141	13253.6
503.344	13384.67
503.547	13814.74
503.75	13831.13
503.953	14009.3
504.156	14005.2
504.359	14126.04
504.562	14216.15
504.765	14609.36
504.968	14623.69
505.17	14816.2
505.373	14717.9
505.576	15021
505.779	15014.85
505.982	15356.86
506.185	15590.33
506.387	15645.63
506.59	15633.34
506.793	16116.66
506.996	16358.32
507.198	16655.28
507.401	16442.29
507.604	16452.53
507.807	16782.25
508.009	17021.86
508.212	17286.05
508.415	17417.12
508.617	17562.53
508.82	17664.93
509.022	17695.64
509.225	18226.07
509.428	18236.31
509.63	18371.47
509.833	18428.82
510.035	18934.67
510.238	18871.18
510.44	19127.17
510.643	19307.4
510.845	19434.37
511.048	19274.63
511.25	19692.41
511.453	19880.83
511.655	20702.06
511.858	20439.92
512.06	20616.05
512.262	20499.31
512.465	20683.63
512.667	21011.31
512.87	21271.4
513.072	21281.64
513.274	21883.74
513.477	21801.82
513.679	21896.03
513.881	22416.21
514.084	22664.02
514.286	22612.82
514.488	22778.7
514.69	23180.1
514.893	23323.46
515.095	23491.4
515.297	23567.17
515.499	23788.35
515.701	24247.1
515.904	24234.81
516.106	24554.29
516.308	24722.23
516.51	24867.63
516.712	24900.4
516.914	25170.73
517.116	25371.43
517.318	25854.75
517.52	26018.59
517.722	26053.41
517.925	26200.86
518.127	26567.45
518.329	26995.47
518.531	26815.25
518.733	27200.27
518.935	27478.79
519.136	27630.34
519.338	28064.51
519.54	27671.3
519.742	28562.17
519.944	28300.03
520.146	29090.54
520.348	29186.8
520.55	28830.45
520.752	29332.2
520.954	29885.15
521.155	29774.56
521.357	29682.41
521.559	30376.67
521.761	30294.75
521.963	30399.19
522.164	30726.87
522.366	30825.17
522.568	31101.65
522.77	31105.74
522.971	31603.4
523.173	31584.97
523.375	31539.91
523.576	31933.12
523.778	31881.92
523.98	32260.8
524.181	32424.64
524.383	32551.61
524.584	33172.14
524.786	32903.86
524.988	32586.43
525.189	33139.38
525.391	33428.14
525.592	33802.92
525.794	33108.66
525.995	33514.16
526.197	33946.28
526.398	33813.16
526.6	34194.08
526.801	33956.52
527.003	34415.26
527.204	34359.97
527.406	34658.97
527.607	34742.94
527.808	35111.57
528.01	34507.42
528.211	34888.34
528.412	35500.68
528.614	35414.67
528.815	35048.08
529.016	35689.1
529.218	35259.02
529.419	35326.61
529.62	35648.14
529.822	35658.38
530.023	35691.15
530.224	35707.53
530.425	35998.34
530.626	35637.9
530.828	35928.71
531.029	36430.46
531.23	35883.66
531.431	35734.15
531.632	36373.12
531.833	36274.82
532.035	36287.1
532.236	36252.29
532.437	36373.12
532.638	36051.59
532.839	36391.55
533.04	36555.39
533.241	35779.21
533.442	36719.23
533.643	36250.24
533.844	36700.79
534.045	36248.19
534.246	36194.95
534.447	36690.55
534.648	36702.84
534.849	36473.47
535.05	36133.51
535.251	36788.86
535.451	36315.78
535.652	36489.85
535.853	36278.91
536.054	36600.44
536.255	36844.15
536.456	36473.47
536.657	37212.79
536.857	36444.8
537.058	36143.75
537.259	36694.65
537.46	36700.79
537.66	36285.06
537.861	36403.84
538.062	36383.36
538.263	36579.96
538.463	36008.58
538.664	36442.75
538.865	36360.83
539.065	36786.81
539.266	36027.01
539.466	36618.88
539.667	36221.57
539.868	36698.75
540.068	35949.19
540.269	36375.17
540.469	36422.27
540.67	36223.62
540.87	36440.7
541.071	36579.96
541.271	36665.98
541.472	36366.98
541.672	36276.87
541.873	36166.27
542.073	36004.49
542.274	36455.04
542.474	36156.03
542.675	35625.61
542.875	36362.88
543.075	36088.45
543.276	35646.09
543.476	36147.84
543.676	36143.75
543.877	36074.12
544.077	36457.09
544.277	36086.4
544.478	36010.63
544.678	36227.71
544.878	36162.18
545.078	36115.08
545.279	36049.54
545.479	35902.09
545.679	36244.1
545.879	35947.14
546.079	35875.46
546.28	35768.97
546.48	36096.64
546.68	35834.5
546.88	36024.96
547.08	36076.16
547.28	35936.9
547.48	35705.48
547.68	35807.88
547.88	35705.48
548.081	36121.22
548.281	35723.91
548.481	35713.67
548.681	36115.08
548.881	35656.33
549.081	35912.33
549.28	35574.41
549.48	36285.06
549.68	35504.78
549.88	36141.7
550.08	35441.29
550.28	35748.49
550.48	35824.26
550.68	35820.17
550.88	35807.88
551.08	35717.77
551.279	35603.08
551.479	35418.77
551.679	35828.36
551.879	35228.31
552.079	35793.54
552.278	35340.94
552.478	35660.43
552.678	35277.46
552.878	35744.39
553.077	35646.09
553.277	35476.11
553.477	35535.5
553.676	35383.95
553.876	35357.33
554.076	35164.82
554.275	35041.94
554.475	35095.19
554.674	35334.8
554.874	35502.73
555.074	35093.14
555.273	35302.03
555.473	35472.01
555.672	35007.12
555.872	34775.7
556.071	35000.98
556.271	34970.26
556.47	34951.83
556.67	34847.38
556.869	34892.44
557.068	35050.13
557.268	34792.09
557.467	34822.81
557.667	34876.05
557.866	34763.42
558.065	34669.21
558.265	34525.85
558.464	34577.05
558.663	34931.35
558.863	34097.83
559.062	34861.72
559.261	34507.42
559.461	34851.48
559.66	34284.19
559.859	34343.58
560.058	34087.59
560.258	34175.65
560.457	33979.04
560.656	34665.11
560.855	33800.87
561.054	34161.31
561.253	34034.34
561.453	34304.67
561.652	34155.17
561.851	33919.65
562.05	33675.94
562.249	33364.65
562.448	33968.8
562.647	33430.19
562.846	33571.5
563.045	33696.42
563.244	33125.04
563.443	33876.65
563.642	33587.88
563.841	33641.13
564.04	33172.14
564.239	33684.14
564.438	33319.6
564.637	33082.03
564.836	33008.31
565.035	32725.69
565.234	33133.23
565.432	32596.67
565.631	32697.02
565.83	33030.83
566.029	32664.25
566.228	32533.18
566.427	32436.92
566.625	32529.08
566.824	32099.01
567.023	32500.41
567.222	32268.99
567.42	32672.44
567.619	32260.8
567.818	31894.21
568.016	32041.67
568.215	32176.83
568.414	31703.75
568.612	31972.03
568.811	31716.04
569.01	32035.52
569.208	31589.06
569.407	31763.14
569.605	31376.08
569.804	31699.65
570.002	31034.07
570.201	31470.28
570.4	31165.14
570.598	31410.89
570.797	31142.61
570.995	31273.68
571.193	30900.95
571.392	31259.34
571.59	30603.99
571.789	30677.72
571.987	30370.52
572.186	30839.51
572.384	30477.02
572.582	30692.05
572.781	30399.19
572.979	30223.07
573.177	30526.17
573.376	30354.14
573.574	30063.33
573.772	30294.75
573.971	30061.28
574.169	29956.83
574.367	29782.76
574.565	29760.23
574.763	29436.65
574.962	29600.49
575.16	29702.89
575.358	29461.23
575.556	29076.21
575.754	29534.95
575.952	29221.61
576.151	29350.63
576.349	29145.84
576.547	29078.25
576.745	29225.71
576.943	28979.95
577.141	28840.69
577.339	28898.03
577.537	28631.8
577.735	28775.16
577.933	28637.94
578.131	28787.44
578.329	28508.92
578.527	28228.35
578.725	28205.82
578.923	28447.48
579.121	28046.08
579.319	28224.25
579.516	28349.18
579.714	28041.98
579.912	27919.1
580.11	27882.24
580.308	27939.58
580.506	27716.36
580.704	27331.34
580.901	27464.46
581.099	27831.04
581.297	27226.89
581.495	27237.13
581.692	27640.58
581.89	26985.23
582.088	27577.09
582.285	27181.84
582.483	27294.47
582.681	27101.97
582.878	27069.2
583.076	26669.84
583.274	27132.68
583.471	26510.1
583.669	26841.87
583.866	26567.45
584.064	26772.24
584.262	26428.18
584.459	26395.42
584.657	26141.47
584.854	26413.85
585.052	26049.31
585.249	26186.52
585.447	26192.67
585.644	25848.61
585.841	25994.01
586.039	26178.33
586.236	25817.89
586.434	25707.3
586.631	25477.93
586.828	25281.32
587.026	25621.28
587.223	25469.73
587.42	25328.42
587.618	25420.58
587.815	25314.09
588.012	25080.62
588.21	24924.97
588.407	25264.94
588.604	25092.91
588.801	24945.45
588.999	24986.41
589.196	24671.03
589.393	24718.13
589.59	24605.49
589.787	24441.65
589.984	24417.08
590.182	24126.27
590.379	24275.77
590.576	24230.71
590.773	24191.8
590.97	24021.82
591.167	24083.26
591.364	24007.48
591.561	24070.97
591.758	23532.36
591.955	23810.88
592.152	23958.33
592.349	23591.75
592.546	23626.56
592.743	23659.33
592.94	23018.32
593.137	23479.11
593.334	23341.89
593.531	23126.86
593.727	23264.07
593.924	23096.14
594.121	22928.2
594.318	23339.85
594.515	22823.76
594.712	22870.86
594.908	22549.33
595.105	22696.78
595.302	22545.23
595.499	22471.51
595.696	22381.4
595.892	22539.09
596.089	22604.63
596.286	22487.89
596.482	22393.68
596.679	22010.71
596.876	21943.13
597.072	21967.71
597.269	22149.98
597.466	22068.06
597.662	21918.56
597.859	21351.27
598.055	21857.12
598.252	21592.93
598.448	21738.33
598.645	21429.09
598.841	21347.17
599.038	21322.6
599.234	21347.17
599.431	20970.35
599.627	21437.28
599.824	21418.85
600.02	21146.47
600.217	21289.83
600.413	20534.13
600.609	20960.11
600.806	20933.48
601.002	20927.34
601.198	20710.25
601.395	20505.46
601.591	20540.27
601.787	20591.47
601.984	20564.85
602.18	20616.05
602.376	20458.35
602.572	20337.52
602.769	20429.68
602.965	19807.1
603.161	20185.97
603.357	20071.29
603.553	20321.14
603.75	19749.76
603.946	19833.72
604.142	19905.4
604.338	19686.27
604.534	19733.37
604.73	19567.49
604.926	19469.19
605.122	19602.3
605.318	19532.67
605.514	19364.74
605.71	19303.3
605.906	19305.35
606.102	19178.37
606.298	19301.25
606.494	19215.24
606.69	19188.61
606.886	19207.05
607.082	18932.62
607.278	19078.02
607.474	18531.22
607.67	19004.3
607.866	18559.89
608.062	18928.52
608.257	18840.46
608.453	18846.6
608.649	18762.64
608.845	18729.87
609.041	18561.94
609.236	18434.96
609.432	18514.83
609.628	18533.26
609.824	18520.98
610.019	18432.91
610.215	18293.65
610.411	18394
610.606	18199.44
610.802	18215.83
610.998	18076.57
611.193	18105.24
611.389	18045.85
611.584	18084.76
611.78	17599.39
611.976	17775.52
612.171	18068.37
612.367	18068.37
612.562	18107.29
612.758	17884.06
612.953	17499.04
613.149	17636.25
613.344	17511.33
613.539	17857.43
613.735	17796
613.93	17806.23
614.126	17601.44
614.321	17744.8
614.517	17658.78
614.712	17556.38
614.907	17429.41
615.103	17499.04
615.298	17318.82
615.493	17392.55
615.688	17185.7
615.884	17460.13
616.079	17134.5
616.274	17429.41
616.47	17324.96
616.665	17374.11
616.86	17232.8
617.055	16985
617.25	17187.75
617.445	17310.63
617.641	16905.13
617.836	17132.45
618.031	16683.95
618.226	17071.01
618.421	16806.83
618.616	16958.38
618.811	16452.53
619.006	16815.02
619.201	16315.31
619.396	16386.99
619.591	16282.55
619.786	16384.94
619.981	16032.69
620.176	16417.71
620.371	16169.91
620.566	15924.15
620.761	16010.17
620.956	16186.29
621.151	15793.08
621.346	16100.28
621.541	15752.12
621.735	15803.32
621.93	15313.86
622.125	15504.32
622.32	15332.29
622.515	15276.99
622.709	15567.81
622.904	15338.43
623.099	15236.03
623.294	15238.08
623.488	14920.65
623.683	15152.07
623.878	14482.38
624.072	14595.02
624.267	14687.18
624.462	14724.04
624.656	14246.87
624.851	14590.92
625.046	14547.92
625.24	14574.54
625.435	14162.9
625.629	14201.81
625.824	14027.73
626.018	14171.09
626.213	13855.7
626.407	13865.94
626.602	13597.66
626.796	13718.49
626.991	13857.75
627.185	13661.15
627.38	13595.61
627.574	13337.57
627.768	13425.63
627.963	13108.19
628.157	13020.13
628.352	13276.13
628.546	13065.19
628.74	13040.61
628.935	12829.67
629.129	12919.78
629.323	12592.11
629.517	12631.02
629.712	12663.79
629.906	12456.94
630.1	12362.73
630.294	12391.41
630.489	12254.19
630.683	12549.1
630.877	12329.97
631.071	11877.37
631.265	11940.85
631.459	12106.74
631.653	12061.68
631.848	11791.35
632.042	11854.84
632.236	11965.43
632.43	11760.63
632.624	11631.61
632.818	11484.16
633.012	11523.07
633.206	11512.83
633.4	11623.42
633.594	11463.68
633.788	11144.19
633.982	11240.45
634.176	11467.77
634.369	11189.25
634.563	11054.08
634.757	11080.71
634.951	11185.15
635.145	10900.48
635.339	10750.98
635.533	10699.78
635.726	10765.32
635.92	10675.21
636.114	10779.65
636.308	10566.67
636.501	10605.58
636.695	10759.17
636.889	10490.89
637.083	10386.44
637.276	10429.45
637.47	10376.2
637.664	10026
637.857	10150.93
638.051	10220.56
638.244	10015.76
638.438	10028.05
638.632	10064.91
638.825	9759.77
639.019	9831.44
639.212	9714.71
639.406	9841.68
639.599	9565.21
639.793	9649.18
639.986	9655.32
640.18	9669.66
640.373	9790.49
640.567	9368.6
640.76	9452.57
640.954	9327.64
641.147	9473.05
641.34	9255.97
641.534	9368.6
641.727	9237.53
641.92	9206.81
642.114	9176.09
642.307	9114.66
642.5	9122.85
642.694	8844.32
642.887	8862.76
643.08	8930.34
643.273	8813.6
643.467	8672.29
643.66	8639.53
643.853	8715.3
644.046	8483.88
644.239	8645.67
644.432	8361
644.626	8336.43
644.819	8248.36
645.012	8444.97
645.205	8418.35
645.398	8221.74
645.591	8115.25
645.784	8049.71
645.977	8008.75
646.17	8053.81
646.363	8025.14
646.556	7754.8
646.749	7963.7
646.942	8135.73
647.135	7994.42
647.328	7918.64
647.521	7990.32
647.714	7892.02
647.907	7853.11
648.099	7562.3
648.292	7697.46
648.485	7617.59
648.678	7533.62
648.871	7427.13
649.064	7554.1
649.256	7470.14
649.449	7304.25
649.642	7302.2
649.835	7332.92
650.027	7326.78
650.22	7296.06
650.413	7324.73
650.605	7173.18
650.798	7177.28
650.991	6919.23
651.183	7140.41
651.376	6974.53
651.568	6988.86
651.761	7029.82
651.954	6962.24
652.146	6849.6
652.339	6855.75
652.531	6845.51
652.724	6890.56
652.916	6790.21
653.109	6925.38
653.301	6591.56
653.494	6638.66
653.686	6491.21
653.879	6685.76
654.071	6511.69
654.263	6347.85
654.456	6628.42
654.648	6419.53
654.84	6358.09
655.033	6528.07
655.225	6360.14
655.417	6374.47
655.61	6304.84
655.802	6372.43
655.994	6329.42
656.186	6141
656.379	6284.36
656.571	6075.47
656.763	6159.44
656.955	6173.77
657.148	6126.67
657.34	6110.29
657.532	5903.44
657.724	6038.61
657.916	5901.39
658.108	5827.67
658.3	5942.35
658.492	5921.87
658.684	5674.07
658.876	5751.89
659.068	5631.06
659.26	5708.88
659.452	5764.18
659.644	5708.88
659.836	5520.47
660.028	5661.78
660.22	5504.09
660.412	5563.48
660.604	5387.35
660.796	5344.35
660.988	5330.01
661.18	5391.45
661.372	5287
661.563	5485.65
661.755	5262.43
661.947	5315.67
662.139	5278.81
662.331	5366.87
662.522	5186.65
662.714	5182.56
662.906	5239.9
663.097	5133.4
663.289	5078.11
663.481	5053.53
663.673	5055.58
663.864	5004.38
664.056	4932.7
664.247	4899.94
664.439	4842.59
664.631	4998.24
664.822	4977.76
665.014	5063.77
665.205	4926.56
665.397	4676.71
665.588	4592.74
665.78	4760.67
665.971	4758.63
666.163	4732
666.354	4758.63
666.546	4656.23
666.737	4609.12
666.929	4676.71
667.12	4648.04
667.311	4660.32
667.503	4514.92
667.694	4523.11
667.885	4568.16
668.077	4486.25
668.268	4463.72
668.459	4392.04
668.651	4510.82
668.842	4385.9
669.033	4465.77
669.224	4263.02
669.416	4404.33
669.607	4389.99
669.798	4242.54
669.989	4379.75
670.18	4174.95
670.371	4273.26
670.563	4240.49
670.754	4201.58
670.945	4363.37
671.136	4113.52
671.327	4301.93
671.518	4232.3
671.709	4035.69
671.9	4060.27
672.091	4193.39
672.282	4027.5
672.473	4052.08
672.664	3953.77
672.855	4127.85
673.046	3970.16
673.237	3990.64
673.428	3871.86
673.619	4000.88
673.809	3834.99
674	4050.03
674.191	3925.1
674.382	3931.25
674.573	3818.61
674.764	3828.85
674.954	3857.52
675.145	3863.66
675.336	3832.94
675.527	3816.56
675.717	3925.1
675.908	3748.98
676.099	3898.48
676.289	3902.58
676.48	3716.21
676.671	3748.98
676.861	3791.98
677.052	3785.84
677.243	3744.88
677.433	3552.37
677.624	3748.98
677.814	3683.44
678.005	3585.14
678.195	3634.29
678.386	3671.15
678.576	3720.31
678.767	3511.41
678.957	3619.96
679.148	3759.22
679.338	3656.82
679.529	3576.95
679.719	3486.84
679.909	3568.76
680.1	3470.45
680.29	3476.6
680.481	3454.07
680.671	3429.49
680.861	3439.73
681.052	3452.02
681.242	3431.54
681.432	3615.86
681.622	3464.31
681.813	3413.11
682.003	3535.99
682.193	3204.22
682.383	3435.64
682.573	3347.58
682.764	3480.69
682.954	3507.32
683.144	3423.35
683.334	3370.1
683.524	3392.63
683.714	3259.51
683.904	3257.46
684.094	3437.69
684.284	3220.6
684.474	3314.81
684.664	3394.68
684.854	3257.46
685.044	3245.18
685.234	3241.08
685.424	3312.76
685.614	3286.14
685.804	3277.94
685.994	3347.58
686.184	3304.57
686.374	3134.59
686.564	3069.05
686.753	3130.49
686.943	3052.67
687.133	2950.27
687.323	3138.68
687.513	3138.68
687.702	3060.86
687.892	3075.2
688.082	2999.42
688.272	3187.83
688.461	2935.93
688.651	3112.06
688.841	2847.87
689.03	2917.5
689.22	3060.86
689.41	2862.21
689.599	3003.52
689.789	2837.63
689.979	2800.77
690.168	2915.45
690.358	2831.49
690.547	2860.16
690.737	2892.93
690.926	2819.2
691.116	2819.2
691.305	2954.37
691.495	2782.34
691.684	2720.9
691.874	2880.64
692.063	2753.66
692.252	2774.14
692.442	2733.18
692.631	2671.75
692.82	2612.35
693.01	2616.45
693.199	2675.84
693.388	2679.94
693.578	2577.54
693.767	2647.17
693.956	2469
694.146	2612.35
694.335	2577.54
694.524	2628.74
694.713	2622.59
694.902	2606.21
695.092	2628.74
695.281	2602.11
695.47	2481.28
695.659	2397.32
695.848	2593.92
696.037	2536.58
696.226	2505.86
696.415	2471.04
696.604	2503.81
696.793	2475.14
696.982	2458.76
697.171	2563.2
697.36	2399.37
697.549	2518.15
697.738	2499.72
697.927	2452.61
698.116	2385.03
698.305	2458.76
698.494	2514.05
698.683	2495.62
698.872	2368.65
699.061	2360.45
699.25	2401.41
699.438	2407.56
699.627	2249.86
699.816	2350.21
700.005	2274.44
700.193	2413.7
700.382	2491.52
700.571	2401.41
700.76	2346.12
700.948	2307.21
701.137	2417.8
701.326	2292.87
701.514	2309.26
701.703	2290.82
701.892	2385.03
702.08	2348.17
702.269	2425.99
702.457	2299.02
702.646	2290.82
702.834	2317.45
703.023	2313.35
703.212	2350.21
703.4	2274.44
703.589	2225.29
703.777	2290.82
703.965	2213
704.154	2327.69
704.342	2294.92
704.531	2339.97
704.719	2249.86
704.907	2364.55
705.096	2233.48
705.284	2299.02
705.472	2167.95
705.661	2237.58
705.849	2249.86
706.037	2323.59
706.226	2202.76
706.414	2329.74
706.602	2213
706.79	2266.25
706.979	2233.48
707.167	2239.62
707.355	2243.72
707.543	2251.91
707.731	2253.96
707.919	2317.45
708.107	2262.15
708.296	2317.45
708.484	2217.1
708.672	2227.34
708.86	2274.44
709.048	2151.56
709.236	2131.08
709.424	2303.11
709.612	2241.67
709.8	2184.33
709.988	2190.47
710.176	2292.87
710.364	2200.71
710.551	2215.05
710.739	2102.41
710.927	2178.19
711.115	2241.67
711.303	2176.14
711.491	2249.86
711.679	2196.62
711.866	2243.72
712.054	2120.84
712.242	2290.82
712.43	2135.18
712.617	2088.07
712.805	2172.04
712.993	2202.76
713.181	2198.67
713.368	2202.76
713.556	2106.51
713.744	2126.99
713.931	2299.02
714.119	2151.56
714.306	2155.66
714.494	2172.04
714.682	2192.52
714.869	2120.84
715.057	2153.61
715.244	2129.03
715.432	2233.48
715.619	2145.42
715.807	2241.67
715.994	2204.81
716.182	2225.29
716.369	2147.47
716.556	2276.49
716.744	2153.61
716.931	2176.14
717.119	2268.3
717.306	2155.66
717.493	2184.33
717.681	2186.38
717.868	2200.71
718.055	2167.95
718.242	2184.33
718.43	2110.6
718.617	2282.63
718.804	2161.8
718.991	2266.25
719.179	2245.77
719.366	2315.4
719.553	2264.2
719.74	2147.47
719.927	2155.66
720.114	2276.49
720.301	2237.58
720.488	2184.33
720.676	2264.2
720.863	2311.3
721.05	2327.69
721.237	2176.14
721.424	2210.95
721.611	2088.07
721.798	2133.13
721.985	2159.75
722.172	2131.08
722.358	2131.08
722.545	2307.21
722.732	2129.03
722.919	2204.81
723.106	2184.33
723.293	2079.88
723.48	2137.23
723.667	2126.99
723.853	2122.89
724.04	2118.79
724.227	2129.03
724.414	2301.06
724.6	2210.95
724.787	2063.5
724.974	2114.7
725.161	2159.75
725.347	2219.14
725.534	2251.91
725.72	2090.12
725.907	2237.58
726.094	2110.6
726.28	2120.84
726.467	2145.42
726.653	2126.99
726.84	2258.06
727.027	2249.86
727.213	2188.43
727.4	2186.38
727.586	2276.49
727.773	2169.99
727.959	2223.24
728.145	2143.37
728.332	2184.33
728.518	2346.12
728.705	2266.25
728.891	2143.37
729.077	2208.9
729.264	2178.19
729.45	2186.38
729.636	2258.06
729.823	2251.91
730.009	2194.57
730.195	2200.71
730.382	2184.33
730.568	2151.56
730.754	2237.58
730.94	2258.06
731.126	2208.9
731.313	2137.23
731.499	2096.27
731.685	2186.38
731.871	2227.34
732.057	2266.25
732.243	2167.95
732.429	2184.33
732.615	2311.3
732.801	2233.48
732.987	2126.99
733.173	2139.27
733.359	2221.19
733.545	2221.19
733.731	2057.36
733.917	2225.29
734.103	2237.58
734.289	2292.87
734.475	2131.08
734.661	2356.36
734.847	2135.18
735.033	2192.52
735.219	2143.37
735.404	2233.48
735.59	2299.02
735.776	2145.42
735.962	2172.04
736.148	2278.54
736.333	2155.66
736.519	2137.23
736.705	2188.43
736.89	2233.48
737.076	2200.71
737.262	2043.02
737.447	2038.92
737.633	2077.83
737.819	2063.5
738.004	2118.79
738.19	2190.47
738.375	2057.36
738.561	2225.29
738.747	2110.6
738.932	2153.61
739.118	2182.28
739.303	2063.5
739.489	2145.42
739.674	2047.12
739.859	2118.79
740.045	2036.88
740.23	2112.65
740.416	2073.74
740.601	2163.85
740.786	2112.65
740.972	2069.64
741.157	2129.03
741.342	2040.97
741.528	2049.16
741.713	2020.49
741.898	1979.53
742.084	2102.41
742.269	2057.36
742.454	2047.12
742.639	2112.65
742.824	2034.83
743.01	1967.24
743.195	1928.33
743.38	2045.07
743.565	2008.2
743.75	1963.15
743.935	1971.34
744.12	2014.35
744.305	1922.19
744.49	1868.94
744.675	1899.66
744.86	1971.34
745.045	1979.53
745.23	1897.61
745.415	1971.34
745.6	1954.96
745.785	1860.75
745.97	1856.65
746.155	1836.17
746.34	1834.13
746.525	1875.09
746.71	1932.43
746.895	1776.78
747.079	1873.04
747.264	1705.1
747.449	1766.54
747.634	1838.22
747.819	1725.58
748.003	1772.69
748.188	1832.08
748.373	1711.25
748.557	1678.48
748.742	1830.03
748.927	1684.62
749.111	1696.91
749.296	1717.39
749.481	1782.93
749.665	1692.82
749.85	1498.26
750.034	1508.5
750.219	1692.82
750.404	1604.75
750.588	1514.64
750.773	1627.28
750.957	1766.54
751.141	1602.71
751.326	1569.94
751.51	1561.75
751.695	1653.91
751.879	1621.14
752.064	1660.05
752.248	1610.9
752.432	1604.75
752.617	1561.75
752.801	1541.27
752.985	1504.4
753.17	1479.83
753.354	1438.87
753.538	1561.75
753.722	1471.64
753.907	1418.39
754.091	1406.1
754.275	1516.69
754.459	1459.35
754.643	1383.57
754.828	1447.06
755.012	1402.01
755.196	1424.53
755.38	1283.22
755.564	1406.1
755.748	1301.65
755.932	1365.14
756.116	1397.91
756.3	1258.65
756.484	1299.61
756.668	1262.74
756.852	1193.11
757.036	1324.18
757.22	1311.89
757.404	1283.22
757.588	1277.08
757.772	1313.94
757.956	1238.17
758.14	1303.7
758.323	1184.92
758.507	1279.13
758.691	1225.88
758.875	1227.93
759.059	1225.88
759.242	1303.7
759.426	1195.16
759.61	1076.38
759.794	1160.34
759.977	1201.3
760.161	1248.41
760.345	1219.74
760.528	1217.69
760.712	1184.92
760.895	1176.73
761.079	1178.78
761.263	1119.39
761.446	1057.95
761.63	1193.11
761.813	1066.14
761.997	1016.99
762.18	1086.62
762.364	1053.85
762.547	988.32
762.731	1055.9
762.914	1043.61
763.098	1078.43
763.281	1090.71
763.464	1090.71
763.648	1064.09
763.831	1053.85
764.015	955.55
764.198	1113.24
764.381	1137.82
764.564	1055.9
764.748	1012.89
764.931	1107.1
765.114	904.35
765.297	1119.39
765.481	1029.27
765.664	998.56
765.847	1000.6
766.03	998.56
766.213	1012.89
766.397	840.86
766.58	998.56
766.763	894.11
766.946	1037.47
767.129	971.93
767.312	953.5
767.495	914.59
767.678	918.68
767.861	937.12
768.044	978.08
768.227	1012.89
768.41	857.25
768.593	898.2
768.776	922.78
768.959	998.56
769.142	965.79
769.324	869.53
769.507	957.6
769.69	851.1
769.873	871.58
770.056	933.02
770.239	887.97
770.421	896.16
770.604	945.31
770.787	842.91
770.97	920.73
771.152	779.42
771.335	828.57
771.518	867.49
771.7	799.9
771.883	832.67
772.066	916.64
772.248	851.1
772.431	879.77
772.613	957.6
772.796	865.44
772.978	832.67
773.161	861.34
773.343	752.8
773.526	857.25
773.708	808.09
773.891	787.61
774.073	799.9
774.256	779.42
774.438	767.13
774.621	783.52
774.803	832.67
774.985	744.61
775.168	787.61
775.35	769.18
775.532	828.57
775.715	758.94
775.897	806.05
776.079	730.27
776.261	810.14
776.444	701.6
776.626	683.17
776.808	656.54
776.99	685.22
777.173	738.46
777.355	726.18
777.537	795.81
777.719	720.03
777.901	767.13
778.083	722.08
778.265	654.5
778.447	652.45
778.629	603.3
778.811	619.68
778.993	697.5
779.175	742.56
779.357	679.07
779.539	627.87
779.721	609.44
779.903	701.6
780.085	611.49
780.267	726.18
780.449	660.64
780.631	554.15
780.812	693.41
780.994	582.82
781.176	507.04
781.358	507.04
781.54	564.39
781.721	644.26
781.903	574.63
782.085	578.72
782.267	548
782.448	529.57
782.63	541.86
782.812	509.09
782.993	603.3
783.175	531.62
783.357	646.3
783.538	578.72
783.72	570.53
783.901	537.76
784.083	455.84
784.264	523.43
784.446	533.67
784.627	464.04
784.809	441.51
784.99	447.65
785.172	492.71
785.353	498.85
785.535	480.42
785.716	459.94
785.897	455.84
786.079	488.61
786.26	504.99
786.441	439.46
786.623	414.88
786.804	416.93
786.985	472.23
787.167	474.28
787.348	398.5
787.529	390.31
787.71	406.69
787.891	445.6
788.073	353.45
788.254	435.36
788.435	439.46
788.616	373.92
788.797	400.55
788.978	335.01
789.159	414.88
789.34	500.9
789.522	416.93
789.703	390.31
789.884	353.45
790.065	398.5
790.246	351.4
790.427	365.73
790.607	461.99
790.788	357.54
790.969	335.01
791.15	464.04
791.331	326.82
791.512	369.83
791.693	398.5
791.874	345.25
792.054	478.37
792.235	441.51
792.416	347.3
792.597	351.4
792.778	349.35
792.958	339.11
793.139	451.75
793.32	365.73
793.5	337.06
793.681	365.73
793.862	349.35
794.042	328.87
794.223	292.01
794.404	361.64
794.584	361.64
794.765	359.59
794.945	320.68
795.126	349.35
795.306	310.44
795.487	287.91
795.667	283.81
795.848	271.53
796.028	259.24
796.209	341.16
796.389	400.55
796.57	324.77
796.75	316.58
796.93	253.09
797.111	228.52
797.291	306.34
797.471	316.58
797.652	267.43
797.832	267.43
798.012	351.4
798.192	332.97
798.373	203.94
798.553	292.01
798.733	302.25
798.913	228.52
799.093	242.85
799.274	357.54
799.454	335.01
799.634	300.2
799.814	267.43
799.994	341.16
800.174	230.57
800.354	259.24
800.534	259.24
800.714	201.9
800.894	191.66
801.074	255.14
801.254	187.56
801.434	314.53
801.614	234.66
801.794	228.52
801.974	844.96
802.154	238.76
802.334	275.62
802.514	210.09
802.693	318.63
802.873	205.99
803.053	244.9
803.233	277.67
803.413	220.33
803.592	226.47
803.772	285.86
803.952	177.32
804.131	234.66
804.311	199.85
804.491	285.86
804.67	187.56
804.85	226.47
805.03	203.94
805.209	242.85
805.389	179.37
805.568	210.09
805.748	263.33
805.928	173.22
806.107	156.84
806.287	158.89
806.466	236.71
806.646	193.7
806.825	242.85
807.004	173.22
807.184	181.42
807.363	216.23
807.543	183.46
807.722	152.74
807.901	228.52
808.081	251.05
808.26	89.26
808.439	197.8
808.619	165.03
808.798	160.94
808.977	165.03
809.156	271.53
809.336	107.69
809.515	218.28
809.694	222.38
809.873	167.08
810.052	177.32
810.231	193.7
810.411	234.66
810.59	210.09
810.769	193.7
810.948	259.24
811.127	79.02
811.306	91.31
811.485	152.74
811.664	212.14
811.843	130.22
812.022	113.83
812.201	173.22
812.38	199.85
812.559	216.23
812.737	173.22
812.916	85.16
813.095	136.36
813.274	115.88
813.453	187.56
813.632	185.51
813.811	244.9
813.989	130.22
814.168	183.46
814.347	175.27
814.526	136.36
814.704	201.9
814.883	218.28
815.062	113.83
815.24	199.85
815.419	144.55
815.598	171.18
815.776	169.13
815.955	152.74
816.133	83.11
816.312	105.64
816.49	103.59
816.669	128.17
816.847	144.55
817.026	64.68
817.204	156.84
817.383	195.75
817.561	152.74
817.74	185.51
817.918	169.13
818.097	115.88
818.275	169.13
818.453	191.66
818.632	148.65
818.81	148.65
818.988	58.54
819.167	152.74
819.345	187.56
819.523	152.74
819.701	144.55
819.879	136.36
820.058	171.18
820.236	138.41
820.414	162.98
820.592	103.59
820.77	183.46
820.948	117.93
821.127	105.64
821.305	185.51
821.483	185.51
821.661	195.75
821.839	128.17
822.017	103.59
822.195	128.17
822.373	103.59
822.551	136.36
822.729	83.11
822.907	60.59
823.085	165.03
823.262	60.59
823.44	95.4
823.618	36.01
823.796	177.32
823.974	81.07
824.152	109.74
824.329	95.4
824.507	195.75
824.685	136.36
824.863	85.16
825.04	128.17
825.218	128.17
825.396	64.68
825.574	85.16
825.751	130.22
825.929	152.74
826.107	83.11
826.284	122.02
826.462	187.56
826.639	44.2
826.817	64.68
826.994	105.64
827.172	25.77
827.349	218.28
827.527	76.97
827.704	144.55
827.882	91.31
828.059	113.83
828.237	93.35
828.414	136.36
828.591	126.12
828.769	23.72
828.946	83.11
829.124	89.26
829.301	136.36
829.478	95.4
829.655	119.98
829.833	85.16
830.01	81.07
830.187	64.68
830.364	107.69
830.542	119.98
830.719	89.26
830.896	97.45
831.073	70.83
831.25	83.11
831.427	134.31
831.604	105.64
831.782	111.78
831.959	72.87
832.136	9.39
832.313	99.5
832.49	126.12
832.667	68.78
832.844	5.29
833.021	91.31
833.198	54.44
833.374	48.3
833.551	103.59
833.728	117.93
833.905	99.5
834.082	33.96
834.259	81.07
834.436	105.64
834.612	21.67
834.789	115.88
834.966	97.45
835.143	46.25
835.319	29.87
835.496	62.63
835.673	52.39
835.85	64.68
836.026	56.49
836.203	54.44
836.38	29.87
836.556	72.87
836.733	93.35
836.909	54.44
837.086	50.35
837.262	9.39
837.439	38.06
837.616	38.06
837.792	119.98
837.968	89.26
838.145	42.15
838.321	136.36
838.498	38.06
838.674	58.54
838.851	128.17
839.027	54.44
839.203	42.15
839.38	101.55
839.556	62.63
839.732	46.25
839.909	70.83
840.085	83.11
840.261	-39.76
840.437	89.26
840.614	79.02
840.79	99.5
840.966	124.07
841.142	31.91
841.318	74.92
841.494	46.25
841.671	56.49
841.847	81.07
842.023	72.87
842.199	70.83
842.375	25.77
842.551	68.78
842.727	79.02
842.903	89.26
843.079	62.63
843.255	119.98
843.431	33.96
843.607	109.74
843.783	25.77
843.959	38.06
844.134	33.96
844.31	122.02
844.486	97.45
844.662	66.73
844.838	15.53
845.013	25.77
845.189	95.4
845.365	52.39
845.541	56.49
845.716	-11.09
845.892	87.21
846.068	-4.95
846.244	-23.38
846.419	140.46
846.595	42.15
846.77	54.44
846.946	5.29
847.122	103.59
847.297	42.15
847.473	58.54
847.648	79.02
847.824	50.35
847.999	-19.29
848.175	70.83
848.35	46.25
848.526	46.25
848.701	15.53
848.876	62.63
849.052	79.02
849.227	-39.76
849.403	79.02
849.578	38.06
849.753	74.92
849.929	50.35
850.104	79.02
850.279	7.34
850.454	15.53
850.63	54.44
850.805	56.49
850.98	50.35
851.155	46.25
851.33	79.02
851.505	81.07
851.681	160.94
851.856	40.11
852.031	62.63
852.206	87.21
852.381	66.73
852.556	13.48
852.731	58.54
852.906	54.44
853.081	46.25
853.256	97.45
853.431	21.67
853.606	-45.91
853.781	-17.24
853.956	33.96
854.131	107.69
854.305	83.11
854.48	62.63
854.655	42.15
854.83	-7
855.005	5.29
855.18	23.72
855.354	23.72
855.529	7.34
855.704	29.87
855.879	13.48
856.053	58.54
856.228	36.01
856.403	54.44
856.577	-2.9
856.752	-11.09
856.926	-25.43
857.101	15.53
857.276	21.67
857.45	44.2
857.625	29.87
857.799	54.44
857.974	58.54
858.148	15.53
858.323	152.74
858.497	5.29
858.672	21.67
858.846	7.34
859.02	46.25
859.195	33.96
859.369	46.25
859.543	-37.72
859.718	46.25
859.892	31.91
860.066	58.54
860.241	29.87
860.415	-35.67
860.589	46.25
860.763	13.48
860.938	33.96
861.112	44.2
861.286	-13.14
861.46	-13.14
861.634	66.73
861.808	23.72
861.982	5.29
862.157	38.06
862.331	-2.9
862.505	13.48
862.679	54.44
862.853	15.53
863.027	54.44
863.201	136.36
863.375	33.96
863.549	81.07
863.722	38.06
863.896	95.4
864.07	-15.19
864.244	-2.9
864.418	54.44
864.592	42.15
864.766	64.68
864.939	21.67
865.113	11.43
865.287	109.74
865.461	-11.09
865.634	93.35
865.808	13.48
865.982	-27.48
866.156	33.96
866.329	17.58
866.503	54.44
866.676	-11.09
866.85	19.63
867.024	-35.67
867.197	25.77
867.371	89.26
867.544	54.44
867.718	11.43
867.891	21.67
868.065	-37.72
868.238	46.25
868.412	105.64
868.585	-0.85
868.759	13.48
868.932	9.39
869.105	-17.24
869.279	-19.29
869.452	17.58
869.625	-19.29
869.799	-76.63
869.972	-2.9
870.145	46.25
870.319	128.17
870.492	-25.43
870.665	54.44
870.838	23.72
871.011	-7
871.185	11.43
871.358	31.91
871.531	29.87
871.704	-11.09
871.877	40.11
872.05	-37.72
872.223	-35.67
872.396	36.01
872.569	19.63
872.742	-25.43
872.915	58.54
873.088	44.2
873.261	72.87
873.434	52.39
873.607	87.21
873.78	36.01
873.953	62.63
874.126	50.35
874.299	70.83
874.471	-17.24
874.644	-2.9
874.817	13.48
874.99	99.5
875.163	48.3
875.335	-39.76
875.508	46.25
875.681	1.19
875.853	15.53
876.026	-0.85
876.199	36.01
876.371	48.3
876.544	-25.43
876.717	29.87
876.889	-27.48
877.062	36.01
877.234	99.5
877.407	62.63
877.579	-31.57
877.752	-4.95
877.924	1.19
878.097	46.25
878.269	1.19
878.442	56.49
878.614	19.63
878.786	-2.9
878.959	1.19
879.131	62.63
879.303	-84.82
879.476	103.59
879.648	21.67
879.82	64.68
879.993	36.01
880.165	89.26
880.337	13.48
880.509	50.35
880.681	-45.91
880.854	58.54
881.026	15.53
881.198	89.26
881.37	-23.38
881.542	40.11
881.714	-37.72
881.886	33.96
882.058	62.63
882.23	31.91
882.402	42.15
882.574	31.91
882.746	21.67
882.918	54.44
883.09	38.06
883.262	79.02
883.434	21.67
883.606	79.02
883.778	21.67
883.95	46.25
884.122	-2.9
884.293	62.63
884.465	-19.29
884.637	38.06
884.809	7.34
884.98	66.73
885.152	46.25
885.324	21.67
885.496	36.01
885.667	60.59
885.839	-41.81
886.011	60.59
886.182	11.43
886.354	21.67
886.525	3.24
886.697	-9.05
886.869	-60.24
887.04	85.16
887.212	5.29
887.383	79.02
887.555	-35.67
887.726	58.54
887.897	38.06
888.069	54.44
888.24	-11.09
888.412	31.91
888.583	31.91
888.754	-27.48
888.926	-47.96
889.097	-0.85
889.268	-19.29
889.44	29.87
889.611	17.58
889.782	-23.38
889.953	15.53
890.125	103.59
890.296	-2.9
890.467	3.24
890.638	62.63
890.809	21.67
890.98	15.53
891.151	27.82
891.323	-15.19
891.494	-2.9
891.665	-0.85
891.836	-0.85
892.007	15.53
892.178	40.11
892.349	54.44
892.52	5.29
892.691	29.87
892.862	-43.86
893.032	25.77
893.203	40.11
893.374	31.91
893.545	13.48
893.716	56.49
893.887	138.41
894.057	-58.2
894.228	-2.9
894.399	33.96
894.57	54.44
894.74	48.3
894.911	64.68
895.082	-13.14
895.253	5.29
895.423	54.44
895.594	50.35
895.764	-0.85
895.935	38.06
896.106	-17.24
896.276	-9.05
896.447	60.59
896.617	66.73
896.788	-9.05
896.958	-2.9
897.129	15.53
897.299	76.97
897.47	23.72
897.64	5.29
897.81	56.49
897.981	-50
898.151	21.67
898.322	-11.09
898.492	9.39
898.662	-93.01
898.832	23.72
899.003	-66.39
899.173	1.19
899.343	13.48
899.513	25.77
