Data from USB4F104151__262__14-46-02-419.txt Node

Date: Thu Mar 13 14:46:02 EDT 2025
User: louis
Spectrometer: USB4F10415
Trigger mode: 4
Integration Time (sec): 2.000000E-2
Scans to average: 1
Electric dark correction enabled: true
Nonlinearity correction enabled: false
Boxcar width: 0
XAxis mode: Wavelengths
Number of Pixels in Spectrum: 3648
>>>>>Begin Spectral Data<<<<<
178.204	-52.39
178.424	-52.39
178.644	-52.39
178.864	-126.12
179.084	-183.46
179.304	-74.92
179.524	-33.96
179.744	29.52
179.964	-1.19
180.184	37.72
180.404	35.67
180.624	-1.19
180.844	-36.01
181.064	2.9
181.283	-17.58
181.503	54.1
181.723	4.95
181.943	-70.83
182.163	74.58
182.383	45.91
182.602	78.68
182.822	-27.82
183.042	-9.39
183.262	27.48
183.482	-5.29
183.701	-25.77
183.921	-85.16
184.141	-31.91
184.361	84.82
184.58	54.1
184.8	-21.67
185.02	-33.96
185.239	33.62
185.459	-68.78
185.679	27.48
185.898	-74.92
186.118	99.16
186.338	21.33
186.557	74.58
186.777	-29.87
186.997	-29.87
187.216	35.67
187.436	47.96
187.655	35.67
187.875	-36.01
188.095	72.53
188.314	13.14
188.534	54.1
188.753	82.77
188.973	19.29
189.192	35.67
189.412	19.29
189.631	74.58
189.851	27.48
190.07	80.72
190.29	21.33
190.509	43.86
190.729	2.9
190.948	66.39
191.168	103.25
191.387	70.48
191.607	29.52
191.826	37.72
192.045	-5.29
192.265	101.2
192.484	-29.87
192.704	52.05
192.923	23.38
193.142	123.73
193.362	29.52
193.581	37.72
193.8	86.87
194.02	54.1
194.239	-5.29
194.458	11.09
194.678	-19.63
194.897	35.67
195.116	2.9
195.335	76.63
195.555	43.86
195.774	76.63
195.993	13.14
196.212	31.57
196.432	-70.83
196.651	21.33
196.87	11.09
197.089	117.59
197.308	13.14
197.528	11.09
197.747	4.95
197.966	23.38
198.185	35.67
198.404	11.09
198.623	78.68
198.842	129.88
199.062	2.9
199.281	35.67
199.5	27.48
199.719	31.57
199.938	43.86
200.157	39.76
200.376	-29.87
200.595	-19.63
200.814	50
201.033	27.48
201.252	101.2
201.471	43.86
201.69	117.59
201.909	43.86
202.128	62.29
202.347	84.82
202.566	-13.48
202.785	-48.3
203.004	-62.63
203.223	107.35
203.442	76.63
203.661	15.19
203.879	31.57
204.098	43.86
204.317	64.34
204.536	45.91
204.755	-29.87
204.974	11.09
205.193	56.15
205.411	60.24
205.63	70.48
205.849	33.62
206.068	27.48
206.287	43.86
206.505	88.92
206.724	52.05
206.943	70.48
207.162	-13.48
207.381	-5.29
207.599	43.86
207.818	-5.29
208.037	19.29
208.255	78.68
208.474	27.48
208.693	39.76
208.911	21.33
209.13	45.91
209.349	105.3
209.567	52.05
209.786	76.63
210.005	56.15
210.223	70.48
210.442	4.95
210.661	17.24
210.879	29.52
211.098	-62.63
211.316	9.05
211.535	68.44
211.753	-3.24
211.972	-1.19
212.191	17.24
212.409	37.72
212.628	43.86
212.846	29.52
213.065	2.9
213.283	43.86
213.502	23.38
213.72	23.38
213.938	19.29
214.157	21.33
214.375	35.67
214.594	11.09
214.812	62.29
215.031	93.01
215.249	31.57
215.467	52.05
215.686	64.34
215.904	43.86
216.122	-29.87
216.341	121.68
216.559	68.44
216.778	70.48
216.996	25.43
217.214	-5.29
217.432	56.15
217.651	66.39
217.869	-21.67
218.087	2.9
218.306	25.43
218.524	7
218.742	90.96
218.96	-7.34
219.179	9.05
219.397	35.67
219.615	27.48
219.833	72.53
220.051	11.09
220.27	47.96
220.488	60.24
220.706	7
220.924	74.58
221.142	-46.25
221.36	19.29
221.578	64.34
221.796	-25.77
222.015	27.48
222.233	35.67
222.451	2.9
222.669	52.05
222.887	103.25
223.105	35.67
223.323	70.48
223.541	-29.87
223.759	21.33
223.977	68.44
224.195	41.81
224.413	-19.63
224.631	47.96
224.849	111.44
225.067	76.63
225.285	-17.58
225.503	19.29
225.721	-17.58
225.939	-3.24
226.157	11.09
226.375	-15.53
226.592	-13.48
226.81	11.09
227.028	19.29
227.246	93.01
227.464	19.29
227.682	45.91
227.9	50
228.117	62.29
228.335	19.29
228.553	-33.96
228.771	37.72
228.989	25.43
229.206	68.44
229.424	-13.48
229.642	54.1
229.86	-5.29
230.077	62.29
230.295	27.48
230.513	15.19
230.731	39.76
230.948	54.1
231.166	76.63
231.384	64.34
231.601	23.38
231.819	99.16
232.037	72.53
232.254	7
232.472	56.15
232.689	19.29
232.907	27.48
233.125	-5.29
233.342	29.52
233.56	-5.29
233.777	47.96
233.995	-5.29
234.213	35.67
234.43	-27.82
234.648	50
234.865	27.48
235.083	119.64
235.3	2.9
235.518	101.2
235.735	78.68
235.953	37.72
236.17	56.15
236.388	11.09
236.605	43.86
236.822	56.15
237.04	70.48
237.257	78.68
237.475	-3.24
237.692	11.09
237.909	54.1
238.127	52.05
238.344	7
238.562	166.74
238.779	-33.96
238.996	7
239.214	33.62
239.431	35.67
239.648	52.05
239.865	4.95
240.083	13.14
240.3	-5.29
240.517	-31.91
240.735	76.63
240.952	52.05
241.169	95.06
241.386	-27.82
241.603	54.1
241.821	35.67
242.038	2.9
242.255	-29.87
242.472	68.44
242.689	7
242.907	113.49
243.124	37.72
243.341	-13.48
243.558	19.29
243.775	19.29
243.992	-105.64
244.209	43.86
244.426	109.4
244.643	50
244.86	-1.19
245.078	2.9
245.295	84.82
245.512	-5.29
245.729	-33.96
245.946	93.01
246.163	-5.29
246.38	-13.48
246.597	64.34
246.814	76.63
247.031	7
247.248	68.44
247.464	39.76
247.681	70.48
247.898	43.86
248.115	52.05
248.332	-42.15
248.549	43.86
248.766	-25.77
248.983	66.39
249.2	70.48
249.417	103.25
249.633	-68.78
249.85	4.95
250.067	119.64
250.284	19.29
250.501	76.63
250.717	25.43
250.934	45.91
251.151	78.68
251.368	11.09
251.585	68.44
251.801	-74.92
252.018	-38.06
252.235	62.29
252.451	19.29
252.668	-7.34
252.885	-25.77
253.102	2.9
253.318	-33.96
253.535	-44.2
253.752	17.24
253.968	-52.39
254.185	-44.2
254.401	107.35
254.618	-21.67
254.835	-25.77
255.051	101.2
255.268	37.72
255.484	60.24
255.701	9.05
255.917	93.01
256.134	21.33
256.351	17.24
256.567	2.9
256.784	7
257	54.1
257.217	-29.87
257.433	66.39
257.65	35.67
257.866	113.49
258.082	43.86
258.299	23.38
258.515	19.29
258.732	-13.48
258.948	-60.59
259.165	62.29
259.381	39.76
259.597	37.72
259.814	-5.29
260.03	105.3
260.246	27.48
260.463	-19.63
260.679	29.52
260.895	31.57
261.112	88.92
261.328	43.86
261.544	80.72
261.761	103.25
261.977	13.14
262.193	37.72
262.409	29.52
262.626	0.85
262.842	13.14
263.058	-40.11
263.274	129.88
263.49	43.86
263.707	72.53
263.923	60.24
264.139	-40.11
264.355	60.24
264.571	-21.67
264.787	0.85
265.004	29.52
265.22	43.86
265.436	66.39
265.652	2.9
265.868	64.34
266.084	0.85
266.3	62.29
266.516	31.57
266.732	27.48
266.948	68.44
267.164	2.9
267.38	64.34
267.596	52.05
267.812	105.3
268.028	86.87
268.244	47.96
268.46	43.86
268.676	-33.96
268.892	76.63
269.108	27.48
269.324	11.09
269.54	33.62
269.756	9.05
269.972	-11.43
270.188	101.2
270.403	-19.63
270.619	-13.48
270.835	13.14
271.051	60.24
271.267	35.67
271.483	21.33
271.698	17.24
271.914	64.34
272.13	62.29
272.346	-1.19
272.562	66.39
272.777	66.39
272.993	-1.19
273.209	2.9
273.425	62.29
273.64	-11.43
273.856	17.24
274.072	15.19
274.287	-3.24
274.503	66.39
274.719	64.34
274.934	45.91
275.15	-5.29
275.366	7
275.581	19.29
275.797	76.63
276.012	45.91
276.228	-5.29
276.444	64.34
276.659	2.9
276.875	27.48
277.09	-13.48
277.306	7
277.521	35.67
277.737	17.24
277.952	35.67
278.168	31.57
278.383	-3.24
278.599	37.72
278.814	54.1
279.03	-13.48
279.245	74.58
279.461	31.57
279.676	76.63
279.892	15.19
280.107	0.85
280.322	-29.87
280.538	111.44
280.753	84.82
280.969	84.82
281.184	2.9
281.399	37.72
281.615	2.9
281.83	84.82
282.045	-58.54
282.26	19.29
282.476	-9.39
282.691	70.48
282.906	74.58
283.122	-38.06
283.337	31.57
283.552	43.86
283.767	17.24
283.983	19.29
284.198	-21.67
284.413	27.48
284.628	-54.44
284.843	54.1
285.058	29.52
285.274	19.29
285.489	-27.82
285.704	68.44
285.919	68.44
286.134	43.86
286.349	52.05
286.564	2.9
286.779	60.24
286.995	60.24
287.21	11.09
287.425	146.26
287.64	-25.77
287.855	-1.19
288.07	-31.91
288.285	72.53
288.5	78.68
288.715	113.49
288.93	13.14
289.145	19.29
289.36	86.87
289.575	62.29
289.79	7
290.004	15.19
290.219	2.9
290.434	88.92
290.649	-70.83
290.864	54.1
291.079	-13.48
291.294	68.44
291.509	23.38
291.724	37.72
291.938	27.48
292.153	-19.63
292.368	35.67
292.583	35.67
292.798	129.88
293.012	111.44
293.227	43.86
293.442	-44.2
293.657	45.91
293.871	29.52
294.086	39.76
294.301	84.82
294.516	-9.39
294.73	43.86
294.945	60.24
295.16	133.97
295.374	15.19
295.589	72.53
295.804	-40.11
296.018	-3.24
296.233	101.2
296.447	2.9
296.662	68.44
296.877	152.4
297.091	25.43
297.306	133.97
297.52	23.38
297.735	2.9
297.949	88.92
298.164	72.53
298.378	13.14
298.593	29.52
298.807	27.48
299.022	-31.91
299.236	52.05
299.451	27.48
299.665	-76.97
299.88	41.81
300.094	-36.01
300.309	29.52
300.523	-5.29
300.737	2.9
300.952	17.24
301.166	66.39
301.381	23.38
301.595	27.48
301.809	27.48
302.024	97.11
302.238	9.05
302.452	84.82
302.667	-13.48
302.881	39.76
303.095	-17.58
303.309	47.96
303.524	-62.63
303.738	60.24
303.952	43.86
304.166	29.52
304.381	15.19
304.595	45.91
304.809	23.38
305.023	7
305.237	15.19
305.452	-19.63
305.666	-5.29
305.88	84.82
306.094	-1.19
306.308	101.2
306.522	117.59
306.736	33.62
306.95	-25.77
307.164	2.9
307.379	78.68
307.593	41.81
307.807	115.54
308.021	29.52
308.235	11.09
308.449	-52.39
308.663	-15.53
308.877	37.72
309.091	35.67
309.305	7
309.519	-15.53
309.733	-38.06
309.947	29.52
310.161	31.57
310.374	13.14
310.588	117.59
310.802	21.33
311.016	58.2
311.23	35.67
311.444	95.06
311.658	-13.48
311.872	76.63
312.085	60.24
312.299	103.25
312.513	66.39
312.727	25.43
312.941	50
313.154	35.67
313.368	23.38
313.582	76.63
313.796	37.72
314.009	62.29
314.223	117.59
314.437	11.09
314.651	35.67
314.864	76.63
315.078	35.67
315.292	-93.35
315.505	31.57
315.719	78.68
315.933	35.67
316.146	41.81
316.36	-38.06
316.573	45.91
316.787	109.4
317.001	88.92
317.214	-64.68
317.428	56.15
317.641	25.43
317.855	2.9
318.068	43.86
318.282	68.44
318.495	86.87
318.709	76.63
318.922	-9.39
319.136	88.92
319.349	68.44
319.563	76.63
319.776	97.11
319.99	62.29
320.203	52.05
320.417	19.29
320.63	82.77
320.843	127.83
321.057	19.29
321.27	21.33
321.483	21.33
321.697	60.24
321.91	4.95
322.124	7
322.337	4.95
322.55	13.14
322.763	-1.19
322.977	27.48
323.19	0.85
323.403	111.44
323.617	11.09
323.83	70.48
324.043	21.33
324.256	35.67
324.469	35.67
324.683	74.58
324.896	70.48
325.109	60.24
325.322	-44.2
325.535	35.67
325.748	39.76
325.962	17.24
326.175	-13.48
326.388	7
326.601	58.2
326.814	-21.67
327.027	4.95
327.24	150.36
327.453	99.16
327.666	68.44
327.879	33.62
328.092	58.2
328.305	70.48
328.518	84.82
328.731	62.29
328.944	9.05
329.157	27.48
329.37	84.82
329.583	62.29
329.796	60.24
330.009	-13.48
330.222	86.87
330.435	109.4
330.648	54.1
330.861	-46.25
331.073	54.1
331.286	72.53
331.499	68.44
331.712	-38.06
331.925	31.57
332.138	68.44
332.35	78.68
332.563	-33.96
332.776	19.29
332.989	11.09
333.202	31.57
333.414	56.15
333.627	-46.25
333.84	-33.96
334.053	31.57
334.265	27.48
334.478	60.24
334.691	31.57
334.903	80.72
335.116	13.14
335.329	21.33
335.541	78.68
335.754	70.48
335.966	43.86
336.179	-11.43
336.392	2.9
336.604	21.33
336.817	2.9
337.029	-1.19
337.242	21.33
337.454	35.67
337.667	27.48
337.88	45.91
338.092	37.72
338.305	21.33
338.517	23.38
338.729	7
338.942	76.63
339.154	11.09
339.367	17.24
339.579	99.16
339.792	-29.87
340.004	62.29
340.217	72.53
340.429	72.53
340.641	2.9
340.854	-13.48
341.066	-3.24
341.278	4.95
341.491	68.44
341.703	111.44
341.915	56.15
342.128	17.24
342.34	19.29
342.552	-3.24
342.764	45.91
342.977	68.44
343.189	86.87
343.401	37.72
343.613	68.44
343.826	76.63
344.038	29.52
344.25	21.33
344.462	64.34
344.674	-21.67
344.886	56.15
345.099	68.44
345.311	76.63
345.523	60.24
345.735	-38.06
345.947	70.48
346.159	68.44
346.371	66.39
346.583	27.48
346.795	93.01
347.007	47.96
347.219	60.24
347.431	21.33
347.643	76.63
347.855	-9.39
348.067	43.86
348.279	-3.24
348.491	23.38
348.703	84.82
348.915	62.29
349.127	45.91
349.339	101.2
349.551	35.67
349.763	45.91
349.975	68.44
350.187	50
350.399	19.29
350.61	31.57
350.822	-33.96
351.034	50
351.246	-1.19
351.458	31.57
351.669	52.05
351.881	68.44
352.093	76.63
352.305	93.01
352.517	76.63
352.728	27.48
352.94	2.9
353.152	13.14
353.363	-95.4
353.575	27.48
353.787	74.58
353.999	19.29
354.21	78.68
354.422	43.86
354.633	-5.29
354.845	76.63
355.057	-3.24
355.268	-3.24
355.48	64.34
355.692	17.24
355.903	27.48
356.115	45.91
356.326	19.29
356.538	52.05
356.749	125.78
356.961	50
357.172	29.52
357.384	-3.24
357.595	125.78
357.807	78.68
358.018	-15.53
358.23	35.67
358.441	117.59
358.653	90.96
358.864	43.86
359.075	15.19
359.287	47.96
359.498	68.44
359.709	86.87
359.921	27.48
360.132	68.44
360.344	2.9
360.555	-3.24
360.766	47.96
360.977	31.57
361.189	103.25
361.4	43.86
361.611	95.06
361.823	97.11
362.034	2.9
362.245	93.01
362.456	-5.29
362.667	43.86
362.879	84.82
363.09	54.1
363.301	115.54
363.512	-33.96
363.723	119.64
363.935	35.67
364.146	52.05
364.357	95.06
364.568	105.3
364.779	-21.67
364.99	-3.24
365.201	35.67
365.412	68.44
365.623	-44.2
365.834	2.9
366.045	4.95
366.256	62.29
366.467	47.96
366.678	39.76
366.889	37.72
367.1	-44.2
367.311	52.05
367.522	35.67
367.733	35.67
367.944	52.05
368.155	4.95
368.366	78.68
368.577	78.68
368.788	68.44
368.999	4.95
369.209	60.24
369.42	142.16
369.631	84.82
369.842	68.44
370.053	84.82
370.264	58.2
370.474	68.44
370.685	35.67
370.896	-1.19
371.107	95.06
371.317	60.24
371.528	52.05
371.739	88.92
371.95	52.05
372.16	52.05
372.371	2.9
372.582	31.57
372.792	31.57
373.003	84.82
373.214	52.05
373.424	35.67
373.635	72.53
373.846	66.39
374.056	56.15
374.267	60.24
374.477	27.48
374.688	27.48
374.898	133.97
375.109	35.67
375.319	144.21
375.53	43.86
375.74	72.53
375.951	21.33
376.161	33.62
376.372	129.88
376.582	23.38
376.793	2.9
377.003	13.14
377.214	70.48
377.424	43.86
377.635	19.29
377.845	31.57
378.055	136.02
378.266	60.24
378.476	54.1
378.686	43.86
378.897	35.67
379.107	93.01
379.317	2.9
379.528	76.63
379.738	72.53
379.948	-52.39
380.158	-5.29
380.369	39.76
380.579	80.72
380.789	4.95
380.999	47.96
381.21	74.58
381.42	39.76
381.63	62.29
381.84	43.86
382.05	76.63
382.261	142.16
382.471	56.15
382.681	37.72
382.891	109.4
383.101	43.86
383.311	27.48
383.521	56.15
383.731	52.05
383.941	80.72
384.151	7
384.361	111.44
384.571	68.44
384.781	86.87
384.991	101.2
385.201	158.55
385.411	47.96
385.621	68.44
385.831	144.21
386.041	150.36
386.251	80.72
386.461	148.31
386.671	47.96
386.881	17.24
387.091	93.01
387.301	52.05
387.511	33.62
387.72	52.05
387.93	93.01
388.14	29.52
388.35	39.76
388.56	109.4
388.769	158.55
388.979	88.92
389.189	80.72
389.399	62.29
389.609	43.86
389.818	148.31
390.028	52.05
390.238	103.25
390.447	-42.15
390.657	93.01
390.867	19.29
391.076	13.14
391.286	50
391.496	74.58
391.705	64.34
391.915	138.07
392.125	107.35
392.334	15.19
392.544	68.44
392.753	29.52
392.963	129.88
393.172	45.91
393.382	-21.67
393.591	154.45
393.801	27.48
394.01	158.55
394.22	101.2
394.429	78.68
394.639	17.24
394.848	62.29
395.058	142.16
395.267	101.2
395.477	62.29
395.686	4.95
395.895	156.5
396.105	45.91
396.314	43.86
396.524	54.1
396.733	103.25
396.942	95.06
397.152	95.06
397.361	142.16
397.57	76.63
397.78	146.26
397.989	90.96
398.198	125.78
398.407	113.49
398.617	66.39
398.826	70.48
399.035	64.34
399.244	58.2
399.453	142.16
399.663	152.4
399.872	35.67
400.081	50
400.29	103.25
400.499	41.81
400.708	193.36
400.917	136.02
401.127	133.97
401.336	129.88
401.545	179.03
401.754	162.64
401.963	117.59
402.172	133.97
402.381	168.79
402.59	144.21
402.799	90.96
403.008	205.65
403.217	86.87
403.426	185.17
403.635	90.96
403.844	146.26
404.053	125.78
404.262	129.88
404.471	185.17
404.68	150.36
404.888	138.07
405.097	193.36
405.306	117.59
405.515	185.17
405.724	101.2
405.933	174.93
406.142	133.97
406.35	166.74
406.559	183.12
406.768	258.9
406.977	187.22
407.185	240.47
407.394	195.41
407.603	219.99
407.812	152.4
408.02	240.47
408.229	207.7
408.438	219.99
408.646	191.31
408.855	228.18
409.064	308.05
409.272	297.81
409.481	236.37
409.69	217.94
409.898	269.14
410.107	316.24
410.315	318.29
410.524	265.04
410.733	412.5
410.941	406.35
411.15	377.68
411.358	400.21
411.567	441.17
411.775	447.31
411.984	361.3
412.192	379.73
412.401	412.5
412.609	510.8
412.818	559.95
413.026	471.89
413.234	478.03
413.443	510.8
413.651	535.37
413.86	521.04
414.068	576.33
414.276	596.81
414.485	652.11
414.693	611.15
414.901	684.87
415.11	734.03
415.318	738.12
415.526	820.04
415.734	762.7
415.943	756.55
416.151	777.03
416.359	785.23
416.567	904.01
416.776	889.67
416.984	904.01
417.192	920.39
417.4	938.82
417.608	944.97
417.817	938.82
418.025	1016.65
418.233	1182.53
418.441	1131.33
418.649	1141.57
418.857	1260.35
419.065	1258.31
419.273	1194.82
419.481	1356.61
419.689	1452.86
419.897	1465.15
420.105	1452.86
420.313	1594.17
420.521	1667.9
420.729	1628.99
420.937	1602.36
421.145	1674.04
421.353	1848.12
421.561	1899.32
421.769	1880.89
421.977	2065.21
422.185	1887.03
422.393	2153.27
422.601	2353.97
422.809	2288.43
423.017	2267.95
423.224	2409.26
423.432	2474.8
423.64	2474.8
423.848	2685.74
424.056	2566.96
424.263	2825
424.471	2870.06
424.679	2935.59
424.887	3001.13
425.094	3111.72
425.302	3115.81
425.51	3283.75
425.718	3500.83
425.925	3339.04
426.133	3490.59
426.341	3674.91
426.548	3805.98
426.756	3830.55
426.964	3922.71
427.171	4137.75
427.379	4051.74
427.586	4223.76
427.794	4477.71
428.001	4633.36
428.209	4858.64
428.417	4750.09
428.624	5163.78
428.832	5159.69
429.039	5057.29
429.247	5098.25
429.454	5534.46
429.662	5882.62
429.869	5593.86
430.076	5884.67
430.284	5866.24
430.491	5944.06
430.699	6370.04
430.906	6261.49
431.114	6421.24
431.321	6834.93
431.528	6748.91
431.736	7224.04
431.943	7617.25
432.15	7293.67
432.358	7475.94
432.565	7828.19
432.772	7803.61
432.979	8131.29
433.187	8280.79
433.394	8475.35
433.601	9069.26
433.808	9226.95
434.016	8932.05
434.223	9312.97
434.43	9972.41
434.637	9718.47
434.844	10289.85
435.052	10564.28
435.259	10525.36
435.466	10537.65
435.673	10449.59
435.88	11063.98
436.087	11725.47
436.294	11819.68
436.501	11424.42
436.708	11659.94
436.915	11741.86
437.122	12726.93
437.329	12669.59
437.537	12993.17
437.743	13357.71
437.95	13197.96
438.157	13816.45
438.364	14328.44
438.571	14021.25
438.778	14197.37
438.985	15546.98
439.192	14903.92
439.399	15309.42
439.606	15065.71
439.813	15854.18
440.02	16839.25
440.227	16538.2
440.433	16452.19
440.64	17117.78
440.847	16699.99
441.054	17345.1
441.261	18225.73
441.467	18446.91
441.674	18580.03
441.881	19397.17
442.088	19335.73
442.294	19294.77
442.501	19581.48
442.708	20130.34
442.914	21039.64
443.121	21754.38
443.328	21187.09
443.534	22870.52
443.741	22063.62
443.948	21363.22
444.154	23454.19
444.361	23298.55
444.568	23265.78
444.774	23329.27
444.981	23554.54
445.187	24330.72
445.394	25326.03
445.6	24832.47
445.807	27507.12
446.013	26311.11
446.22	26833.34
446.426	27722.16
446.633	28283.3
446.839	29313.43
447.046	27720.11
447.252	29221.27
447.459	29569.43
447.665	29460.88
447.871	30583.17
448.078	32104.81
448.284	30685.57
448.491	31576.44
448.697	32678.24
448.903	33335.64
449.11	33427.8
449.316	32801.12
449.522	33452.37
449.728	34228.56
449.935	34697.54
450.141	34675.01
450.347	35215.68
450.553	34390.34
450.76	34705.73
450.966	36157.74
451.172	35361.08
451.378	36262.19
451.584	35817.78
451.791	36321.58
451.997	36938.02
452.203	37304.6
452.409	37243.17
452.615	37329.18
452.821	36190.51
453.027	35518.78
453.233	37613.85
453.44	35750.2
453.646	36632.87
453.852	36581.67
454.058	37755.16
454.264	36546.86
454.47	37409.05
454.676	36303.15
454.882	37333.28
455.088	34306.38
455.294	34705.73
455.5	35373.37
455.705	35944.75
455.911	34289.99
456.117	34005.33
456.323	33423.7
456.529	31787.38
456.735	33026.4
456.941	32291.18
457.147	31572.34
457.352	30970.24
457.558	30456.2
457.764	30486.92
457.97	30083.47
458.176	29596.05
458.381	29458.84
458.587	28195.24
458.793	28172.71
458.999	26683.84
459.204	28477.86
459.41	28148.14
459.616	26032.58
459.821	26061.26
460.027	25954.76
460.233	25575.89
460.438	24097.25
460.644	24680.92
460.85	23261.68
461.055	23239.15
461.261	23128.56
461.466	21154.32
461.672	20783.64
461.878	22370.82
462.083	20705.82
462.289	20408.86
462.494	20384.29
462.7	19337.77
462.905	18690.62
463.111	19397.17
463.316	19665.45
463.522	18942.52
463.727	19130.93
463.932	18926.13
464.138	18858.55
464.343	18858.55
464.549	18557.5
464.754	18764.34
464.959	18725.43
465.165	18778.68
465.37	17920.58
465.575	17396.3
465.781	18135.62
465.986	18440.76
466.191	17451.6
466.397	17226.32
466.602	16349.79
466.807	17093.2
467.012	17128.02
467.218	17052.24
467.423	16912.98
467.628	16964.18
467.833	17742.41
468.038	16869.97
468.244	16722.52
468.449	17150.54
468.654	16638.55
468.859	16583.26
469.064	16364.12
469.269	15811.17
469.474	15800.93
469.679	16357.98
469.885	15747.69
470.09	16048.74
470.295	15938.15
470.5	15352.43
470.705	15897.19
470.91	15377
471.115	15239.79
471.32	15723.11
471.525	15555.18
471.73	15143.53
471.935	15235.69
472.139	14416.51
472.344	14592.63
472.549	14590.58
472.754	14482.04
472.959	14156.41
473.164	13748.87
473.369	13513.35
473.574	14027.39
473.778	13843.07
473.983	13744.77
474.188	13847.17
474.393	13243.02
474.598	13240.97
474.802	12806.8
475.007	13001.36
475.212	13009.55
475.417	12520.09
475.621	12659.35
475.826	12849.81
476.031	12544.66
476.235	12184.22
476.44	12462.74
476.645	12223.13
476.849	12079.77
477.054	12001.95
477.259	11858.59
477.463	11782.82
477.668	11348.65
477.872	11715.23
478.077	11399.85
478.282	11209.39
478.486	11217.58
478.691	11297.45
478.895	11037.36
479.1	10951.34
479.304	11094.7
479.509	10672.82
479.713	10842.8
479.918	10744.5
480.122	10392.25
480.326	10676.91
480.531	10850.99
480.735	10496.69
480.94	10308.28
481.144	10826.42
481.348	10277.56
481.553	10521.27
481.757	10193.59
481.961	10177.21
482.166	10496.69
482.37	10457.78
482.574	10128.06
482.778	10232.51
482.983	10336.95
483.187	10156.73
483.391	10218.17
483.595	10119.87
483.8	10005.18
484.004	10177.21
484.208	10392.25
484.412	10164.92
484.616	10197.69
484.821	10230.46
485.025	10040
485.229	10363.58
485.433	10205.88
485.637	10320.57
485.841	10031.8
486.045	10197.69
486.249	10152.63
486.453	10152.63
486.657	10324.66
486.861	10394.29
487.065	9968.32
487.269	10429.11
487.473	10070.72
487.677	10246.84
487.881	10470.07
488.085	10295.99
488.289	10390.2
488.493	10230.46
488.697	10324.66
488.901	10195.64
489.105	10269.37
489.309	10156.73
489.512	10390.2
489.716	10537.65
489.92	10457.78
490.124	10386.1
490.328	10674.87
490.531	10402.49
490.735	10513.08
490.939	10762.93
491.143	10717.87
491.346	10468.02
491.55	10824.37
491.754	10744.5
491.958	10871.47
492.161	10846.9
492.365	10930.86
492.569	10957.49
492.772	11035.31
492.976	11160.24
493.18	11035.31
493.383	11389.61
493.587	11313.83
493.79	11401.9
493.994	11209.39
494.197	11524.77
494.401	11698.85
494.605	11807.39
494.808	11815.59
495.012	11948.7
495.215	12059.29
495.419	12094.11
495.622	12157.6
495.825	12280.47
496.029	12333.72
496.232	12630.68
496.436	12481.17
496.639	13177.48
496.843	12679.83
497.046	13077.13
497.249	13257.36
497.453	13081.23
497.656	13464.2
497.859	13306.51
498.063	13714.05
498.266	13916.8
498.469	13738.63
498.673	14084.73
498.876	14224
499.079	14453.37
499.282	14330.49
499.485	14776.95
499.689	14969.46
499.892	14944.88
500.095	15188.59
500.298	15514.22
500.501	15546.98
500.705	15962.72
500.908	16003.68
501.111	16243.29
501.314	16267.87
501.517	16390.75
501.72	16849.49
501.923	16872.02
502.126	17031.76
502.329	17224.27
502.532	17568.33
502.735	17674.82
502.938	18158.14
503.141	18303.55
503.344	18528.83
503.547	18397.76
503.75	18674.23
503.953	19092.02
504.156	19356.21
504.359	19458.6
504.562	19567.15
504.765	20376.09
504.968	20206.11
505.17	20515.36
505.373	20806.17
505.576	20875.8
505.779	21121.56
505.982	21125.65
506.185	21752.33
506.387	21989.89
506.59	22290.95
506.793	22559.23
506.996	22413.82
507.198	22944.25
507.401	22886.9
507.604	23321.07
507.807	24023.53
508.009	23951.85
508.212	24574.43
508.415	24449.5
508.617	24943.06
508.82	25057.75
509.022	25055.7
509.225	25620.94
509.428	25737.68
509.63	26364.36
509.833	26540.48
510.035	26917.31
510.238	26755.52
510.44	27134.39
510.643	27679.15
510.845	27951.53
511.048	27720.11
511.25	28481.95
511.453	28967.32
511.655	29569.43
511.858	28944.8
512.06	29530.51
512.262	30120.33
512.465	30081.42
512.667	30615.94
512.87	30976.38
513.072	31371.64
513.274	31230.33
513.477	31883.63
513.679	32520.55
513.881	32438.63
514.084	32801.12
514.286	33202.52
514.488	33290.59
514.69	33993.04
514.893	34474.31
515.095	34330.95
515.297	35076.41
515.499	34789.7
515.701	35217.72
515.904	35643.7
516.106	36016.43
516.308	36366.63
516.51	36778.28
516.712	37007.65
516.914	37163.29
517.116	37828.88
517.318	38297.87
517.52	38312.2
517.722	38721.8
517.925	39010.56
518.127	39352.57
518.329	39657.72
518.531	39633.14
518.733	40491.24
518.935	40751.34
519.136	40784.1
519.338	41732.31
519.54	41840.85
519.742	41947.35
519.944	42350.8
520.146	42967.24
520.348	43530.43
520.55	43229.38
520.752	43362.5
520.954	43899.06
521.155	44009.65
521.357	44769.45
521.559	45265.06
521.761	45469.86
521.963	45498.53
522.164	45723.8
522.366	45875.35
522.568	46706.83
522.77	46469.26
522.971	47233.16
523.173	47376.51
523.375	47493.25
523.576	47601.79
523.778	47552.64
523.98	48371.83
524.181	48570.48
524.383	48730.22
524.584	49068.14
524.786	49422.44
524.988	49412.2
525.189	49686.62
525.391	50159.7
525.592	49854.56
525.794	50239.57
525.995	50192.47
526.197	50849.87
526.398	50911.31
526.6	51189.83
526.801	51431.49
527.003	51830.85
527.204	51789.89
527.406	52043.84
527.607	52090.94
527.808	52256.82
528.01	51689.54
528.211	52099.13
528.412	52740.14
528.614	52805.68
528.815	52478
529.016	53094.44
529.218	52901.93
529.419	53129.26
529.62	53098.54
529.822	53377.06
530.023	53471.27
530.224	53432.36
530.425	53250.09
530.626	53346.34
530.828	53311.53
531.029	54517.78
531.23	53639.2
531.431	53596.2
531.632	53794.85
531.833	54140.96
532.035	54108.19
532.236	53876.77
532.437	53970.97
532.638	54009.89
532.839	54579.22
533.04	54611.99
533.241	53944.35
533.442	54794.26
533.643	54444.05
533.844	54640.66
534.045	54542.36
534.246	53868.58
534.447	54941.71
534.648	54521.88
534.849	54886.42
535.05	54396.95
535.251	55007.25
535.451	54642.71
535.652	54706.19
535.853	54607.89
536.054	54706.19
536.255	54820.88
536.456	54110.24
536.657	55078.92
536.857	54763.54
537.058	54593.56
537.259	54939.66
537.46	55064.59
537.66	54593.56
537.861	54896.66
538.062	54243.35
538.263	55017.49
538.463	54499.35
538.664	54777.87
538.865	54833.17
539.065	54829.07
539.266	54163.48
539.466	55394.31
539.667	54636.56
539.868	55146.51
540.068	54327.32
540.269	54427.67
540.469	55173.13
540.67	54493.21
540.87	54728.72
541.071	54661.14
541.271	55275.53
541.472	54607.89
541.672	55068.69
541.873	54417.43
542.073	54272.03
542.274	55164.94
542.474	54427.67
542.675	54433.81
542.875	54974.48
543.075	54710.29
543.276	53876.77
543.476	54870.03
543.676	54112.28
543.877	54585.36
544.077	54630.42
544.277	54554.64
544.478	54554.64
544.678	54734.87
544.878	54716.43
545.078	54743.06
545.279	54571.03
545.479	54255.64
545.679	54788.11
545.879	54433.81
546.079	54304.79
546.28	54507.54
546.48	54517.78
546.68	54353.94
546.88	54595.6
547.08	54749.2
547.28	54456.34
547.48	53876.77
547.68	54765.59
547.88	54466.58
548.081	54523.93
548.281	54386.71
548.481	54128.67
548.681	54804.5
548.881	54460.44
549.081	54499.35
549.28	53938.21
549.48	54534.17
549.68	54161.43
549.88	54695.95
550.08	54190.11
550.28	54351.9
550.48	53835.81
550.68	54534.17
550.88	54050.84
551.08	54020.13
551.279	54456.34
551.479	53800.99
551.679	54013.98
551.879	54011.93
552.079	54452.25
552.278	53839.9
552.478	53870.62
552.678	54034.46
552.878	54794.26
553.077	54118.43
553.277	53129.26
553.477	53993.5
553.676	53471.27
553.876	53993.5
554.076	53954.59
554.275	53854.24
554.475	53178.41
554.674	54073.37
554.874	53784.61
555.074	53536.8
555.273	53266.47
555.473	53932.06
555.672	53084.2
555.872	53522.47
556.071	53405.73
556.271	53663.78
556.47	53155.88
556.67	53207.08
556.869	53413.93
557.068	54003.74
557.268	52959.28
557.467	53139.5
557.667	53039.15
557.866	53612.58
558.065	53272.62
558.265	53133.35
558.464	52383.8
558.663	53157.93
558.863	52623.41
559.062	53006.38
559.261	52559.92
559.461	53338.15
559.66	52351.03
559.859	52684.85
560.058	52453.43
560.258	52588.59
560.457	52230.2
560.656	52543.54
560.855	52344.89
561.054	52451.38
561.253	52328.5
561.453	52179
561.652	52514.87
561.851	52369.46
562.05	52248.63
562.249	52066.36
562.448	52463.67
562.647	51986.49
562.846	52334.65
563.045	51875.9
563.244	51679.3
563.443	52062.27
563.642	51290.18
563.841	51525.7
564.04	51109.96
564.239	51925.05
564.438	51454.02
564.637	51560.51
564.836	51693.63
565.035	51005.52
565.234	51505.22
565.432	50884.68
565.631	50876.49
565.83	50905.16
566.029	50612.31
566.228	50688.08
566.427	50659.41
566.625	50417.75
566.824	50030.68
567.023	50403.41
567.222	49825.89
567.42	50544.72
567.619	50395.22
567.818	49844.32
568.016	49547.36
568.215	50323.54
568.414	50313.3
568.612	50350.17
568.811	49504.35
569.01	49920.09
569.208	49131.62
569.407	49854.56
569.605	48701.55
569.804	49602.66
570.002	49330.28
570.201	49533.03
570.4	48693.36
570.598	48920.68
570.797	48384.12
570.995	48806
571.193	48230.52
571.392	48797.8
571.59	48195.7
571.789	48306.29
571.987	48179.32
572.186	48136.31
572.384	48064.63
572.582	48212.09
572.781	48023.67
572.979	47157.38
573.177	47853.69
573.376	48128.12
573.574	47507.58
573.772	47650.94
573.971	47591.55
574.169	46833.8
574.367	46962.82
574.565	47464.58
574.763	46653.58
574.962	46766.22
575.16	46276.76
575.358	46315.67
575.556	45842.59
575.754	46614.67
575.952	46512.27
576.151	46170.26
576.349	45815.96
576.547	46078.1
576.745	46051.48
576.943	45617.31
577.141	45590.69
577.339	45555.87
577.537	45303.97
577.735	45389.98
577.933	44708.01
578.131	45068.45
578.329	44785.83
578.527	44857.51
578.725	44775.59
578.923	45340.83
579.121	44705.96
579.319	44660.91
579.516	44777.64
579.714	44163.25
579.912	44120.24
580.11	43952.31
580.308	44060.85
580.506	43919.54
580.704	43262.15
580.901	43743.42
581.099	43628.73
581.297	43032.77
581.495	43376.83
581.692	43389.12
581.89	43174.08
582.088	43587.77
582.285	42627.27
582.483	42926.28
582.681	42905.8
582.878	42402
583.076	42315.98
583.274	42492.11
583.471	42012.88
583.669	42414.29
583.866	42080.47
584.064	42004.69
584.262	41619.67
584.459	42223.83
584.657	41425.12
584.854	41619.67
585.052	40622.31
585.249	41691.35
585.447	41660.63
585.644	40925.41
585.841	40739.05
586.039	41373.92
586.236	40837.35
586.434	40704.23
586.631	40194.29
586.828	40526.06
587.026	40374.51
587.223	40253.68
587.42	39889.14
587.618	40040.69
587.815	40012.02
588.012	40016.11
588.21	39473.4
588.407	39948.53
588.604	39493.88
588.801	39303.42
588.999	39629.05
589.196	38928.64
589.393	38969.6
589.59	39108.86
589.787	38691.08
589.984	38508.81
590.182	38383.88
590.379	38781.19
590.576	38166.8
590.773	38564.1
590.97	38226.19
591.167	38222.09
591.364	38189.33
591.561	38209.81
591.758	37185.82
591.955	38002.96
592.152	37771.54
592.349	37720.34
592.546	37474.59
592.743	37284.12
592.94	36854.05
593.137	37042.46
593.334	37198.11
593.531	36315.44
593.727	37062.94
593.924	36870.43
594.121	36380.97
594.318	36653.35
594.515	36297
594.712	36536.62
594.908	36012.34
595.105	36249.9
595.302	35729.72
595.499	35979.57
595.696	35705.14
595.892	35725.62
596.089	35619.13
596.286	35539.26
596.482	35332.41
596.679	35318.07
596.876	35371.32
597.072	35283.26
597.269	35389.75
597.466	34783.55
597.662	34541.89
597.859	34357.58
598.055	34492.74
598.252	34304.33
598.448	34216.27
598.645	34304.33
598.841	33888.59
599.038	34357.58
599.234	34021.71
599.431	33835.35
599.627	33628.5
599.824	34097.49
600.02	33384.79
600.217	33716.56
600.413	33128.8
600.609	33392.98
600.806	33177.95
601.002	33343.83
601.198	33298.78
601.395	32803.17
601.591	32848.22
601.787	32954.72
601.984	32541.03
602.18	32577.89
602.376	31934.83
602.572	32201.07
602.769	32545.12
602.965	32016.75
603.161	32051.56
603.357	31789.42
603.553	31490.42
603.75	31834.48
603.946	31402.36
604.142	31562.1
604.338	31420.79
604.534	31512.95
604.73	31312.25
604.926	31041.92
605.122	31224.18
605.318	30800.26
605.514	30804.35
605.71	30460.29
605.906	30554.5
606.102	30495.11
606.298	30677.38
606.494	30364.04
606.69	30130.57
606.886	30327.17
607.082	30187.91
607.278	30458.24
607.474	30194.06
607.67	30034.32
607.866	29839.76
608.062	29909.39
608.257	29907.34
608.453	29716.88
608.649	29899.15
608.845	29221.27
609.041	29352.34
609.236	29561.23
609.432	29192.6
609.628	29249.94
609.824	29149.59
610.019	29020.57
610.215	29229.46
610.411	29251.99
610.606	28561.83
610.802	28875.16
610.998	28553.63
611.193	28737.95
611.389	28858.78
611.584	28328.36
611.78	28430.76
611.976	28428.71
612.171	28479.91
612.367	28344.74
612.562	28025.26
612.758	27869.61
612.953	27951.53
613.149	28236.2
613.344	27822.51
613.539	28058.03
613.735	28055.98
613.93	28223.91
614.126	27720.11
614.321	27783.6
614.517	27675.06
614.712	27679.15
614.907	27546.03
615.103	27558.32
615.298	27476.4
615.493	27627.95
615.688	26776
615.884	27541.94
616.079	27173.3
616.274	27306.42
616.47	27226.55
616.665	27111.86
616.86	26851.77
617.055	26849.72
617.25	26614.21
617.445	26921.4
617.641	26241.48
617.836	26909.11
618.031	26284.48
618.226	26528.19
618.421	26151.37
618.616	26331.59
618.811	26046.92
619.006	26300.87
619.201	25410
619.396	25915.85
619.591	25530.83
619.786	25921.99
619.981	25496.02
620.176	25799.12
620.371	25307.6
620.566	25326.03
620.761	24912.35
620.956	25076.18
621.151	24709.6
621.346	24721.88
621.541	24310.24
621.735	24887.77
621.93	23986.66
622.125	24406.5
622.32	23861.74
622.515	24293.86
622.709	23849.45
622.904	23978.47
623.099	23626.22
623.294	23644.65
623.488	23351.79
623.683	23421.42
623.878	22952.44
624.072	22977.01
624.267	23024.12
624.462	22852.09
624.656	22819.32
624.851	22589.95
625.046	22270.47
625.24	22329.86
625.435	22028.81
625.629	22348.29
625.824	21973.51
626.018	21817.86
626.213	21576.2
626.407	21707.27
626.602	21453.33
626.796	21115.41
626.991	21428.75
627.185	21201.43
627.38	20929.05
627.574	21017.11
627.768	20757.02
627.963	20441.63
628.157	20562.46
628.352	20492.83
628.546	19927.59
628.74	20345.37
628.935	20171.3
629.129	19946.02
629.323	19718.7
629.517	19995.17
629.712	19841.57
629.906	19501.61
630.1	19376.69
630.294	19618.35
630.489	19524.14
630.683	19241.52
630.877	18868.79
631.071	19221.04
631.265	19259.95
631.459	18756.15
631.653	18559.55
631.848	18772.53
632.042	18518.59
632.236	18434.62
632.43	18385.47
632.624	18240.06
632.818	18231.87
633.012	17699.4
633.206	17857.09
633.4	17920.58
633.594	17832.52
633.788	17656.39
633.982	17805.89
634.176	17392.2
634.369	17592.9
634.563	17160.78
634.757	17107.54
634.951	17189.46
635.145	17087.06
635.339	16931.41
635.533	16626.26
635.726	16884.31
635.92	16489.05
636.114	16968.27
636.308	16673.37
636.501	16398.94
636.695	16296.54
636.889	16323.16
637.083	16196.19
637.276	15940.19
637.47	15962.72
637.664	16089.7
637.857	15821.41
638.051	15585.9
638.244	15465.07
638.438	15565.42
638.632	15493.74
638.825	15278.7
639.019	15215.21
639.212	15354.48
639.406	15055.47
639.599	14779
639.793	15133.29
639.986	14770.8
640.18	14787.19
640.373	14723.7
640.567	14623.35
640.76	14512.76
640.954	14387.83
641.147	14379.64
641.34	14273.15
641.534	14236.28
641.727	14115.45
641.92	14340.73
642.114	14035.58
642.307	13933.18
642.5	13881.99
642.694	13486.73
642.887	13570.69
643.08	13830.79
643.273	13482.63
643.467	13511.3
643.66	13200.01
643.853	13159.05
644.046	12976.78
644.239	13204.11
644.432	13036.17
644.626	12843.67
644.819	12913.3
645.012	13089.42
645.205	12896.91
645.398	12610.2
645.591	12540.57
645.784	12567.19
645.977	12212.89
646.17	12339.87
646.363	12249.75
646.556	12161.69
646.749	12231.32
646.942	12145.31
647.135	12055.2
647.328	11981.47
647.521	11788.96
647.714	11770.53
647.907	11686.56
648.099	11401.9
648.292	11567.78
648.485	11561.64
648.678	11307.69
648.871	11373.22
649.064	11188.91
649.256	11545.25
649.449	11240.11
649.642	11139.76
649.835	10896.05
650.027	11008.69
650.22	10857.14
650.413	10764.98
650.605	10789.55
650.798	10689.2
650.991	10611.38
651.183	10676.91
651.376	10652.34
651.568	10488.5
651.761	10496.69
651.954	10351.29
652.146	10224.31
652.339	10255.03
652.531	10390.2
652.724	10177.21
652.916	10074.81
653.109	9693.89
653.301	9953.98
653.494	9972.41
653.686	9564.87
653.879	9917.12
654.071	9734.85
654.263	9470.66
654.456	9530.05
654.648	9540.29
654.84	9540.29
655.033	9329.35
655.225	9360.07
655.417	9251.53
655.61	9253.58
655.802	9249.48
655.994	9147.08
656.186	9011.92
656.379	9071.31
656.571	8919.76
656.763	9022.16
656.955	8710.86
657.148	8696.53
657.34	8794.83
657.532	8678.1
657.724	8841.93
657.916	8647.38
658.108	8547.03
658.3	8436.44
658.492	8508.12
658.684	8221.4
658.876	8434.39
659.068	8362.71
659.26	8108.76
659.452	8256.22
659.644	8080.09
659.836	7932.64
660.028	8043.23
660.22	7762.65
660.412	7813.85
660.604	7926.49
660.796	7664.35
660.988	7959.26
661.18	7850.72
661.372	7523.04
661.563	7760.61
661.755	7541.47
661.947	7514.85
662.139	7391.97
662.331	7453.41
662.522	7359.21
662.714	7262.95
662.906	7213.8
663.097	7092.97
663.289	7381.73
663.481	7211.75
663.673	7219.94
663.864	7023.34
664.056	7154.41
664.247	6939.37
664.439	6601.46
664.631	7060.2
664.822	6830.83
665.014	6802.16
665.205	6777.58
665.397	6683.38
665.588	6646.51
665.78	6666.99
665.971	6583.02
666.163	6540.02
666.354	6281.97
666.546	6425.33
666.737	6345.46
666.929	6441.72
667.12	6441.72
667.311	6335.22
667.503	6169.34
667.694	6294.26
667.885	6150.9
668.077	6243.06
668.268	5999.35
668.459	5944.06
668.651	5856
668.842	5880.57
669.033	5896.96
669.224	5761.79
669.416	5929.72
669.607	5950.2
669.798	5788.41
669.989	5647.1
670.18	5657.34
670.371	5780.22
670.563	5643.01
670.754	5712.64
670.945	5565.18
671.136	5526.27
671.327	5552.9
671.518	5620.48
671.709	5425.92
671.9	5489.41
672.091	5540.61
672.282	5282.56
672.473	5270.28
672.664	5364.48
672.855	5417.73
673.046	5264.13
673.237	5409.54
673.428	5339.91
673.619	5024.52
673.809	5196.55
674	5196.55
674.191	5282.56
674.382	5024.52
674.573	5229.32
674.764	5149.45
674.954	5106.44
675.145	4911.88
675.336	4928.27
675.527	5155.59
675.717	4950.79
675.908	4975.37
676.099	4926.22
676.289	4920.07
676.48	4778.76
676.671	4809.48
676.861	4750.09
677.052	4795.15
677.243	4805.39
677.433	4770.57
677.624	4752.14
677.814	4739.85
678.005	4637.45
678.195	4666.13
678.386	4778.76
678.576	4735.76
678.767	4582.16
678.957	4672.27
679.148	4688.65
679.338	4561.68
679.529	4619.02
679.719	4608.78
679.909	4606.74
680.1	4487.95
680.29	4557.58
680.481	4541.2
680.671	4469.52
680.861	4561.68
681.052	4360.98
681.242	4461.33
681.432	4526.86
681.622	4344.6
681.813	4330.26
682.003	4360.98
682.193	4471.57
682.383	4422.42
682.573	4375.31
682.764	4199.19
682.954	4330.26
683.144	4338.45
683.334	4449.04
683.524	4483.86
683.714	4313.88
683.904	4242.2
684.094	4393.75
684.284	4332.31
684.474	4322.07
684.664	4258.58
684.854	4229.91
685.044	4229.91
685.234	4180.76
685.424	4285.2
685.614	4264.72
685.804	4295.44
685.994	4262.68
686.184	4094.74
686.374	4289.3
686.564	4209.43
686.753	4193.05
686.943	4057.88
687.133	4096.79
687.323	4256.53
687.513	4139.8
687.702	4115.22
687.892	4051.74
688.082	4215.57
688.272	4229.91
688.461	4193.05
688.651	4174.61
688.841	3945.24
689.03	4033.3
689.22	3937.05
689.41	3996.44
689.599	4098.84
689.789	4010.78
689.979	4004.63
690.168	4035.35
690.358	4049.69
690.547	3937.05
690.737	4018.97
690.926	3894.04
691.116	3908.38
691.305	3986.2
691.495	3869.47
691.684	3930.91
691.874	3818.27
692.063	3822.36
692.252	3861.27
692.442	3762.97
692.631	3844.89
692.82	3926.81
693.01	3910.43
693.199	3707.68
693.388	3679.01
693.578	3775.26
693.767	3877.66
693.956	3781.4
694.146	3775.26
694.335	3672.86
694.524	3803.93
694.713	3773.21
694.902	3625.76
695.092	3656.48
695.281	3687.2
695.47	3801.88
695.659	3636
695.848	3656.48
696.037	3711.77
696.226	3582.75
696.415	3789.6
696.604	3656.48
696.793	3695.39
696.982	3648.29
697.171	3656.48
697.36	3525.41
697.549	3535.65
697.738	3560.22
697.927	3451.68
698.116	3670.81
698.305	3511.07
698.494	3576.61
698.683	3650.33
698.872	3607.33
699.061	3496.74
699.25	3502.88
699.438	3443.49
699.627	3615.52
699.816	3443.49
700.005	3441.44
700.193	3363.62
700.382	3488.54
700.571	3320.61
700.76	3492.64
700.948	3296.04
701.137	3404.58
701.326	3353.38
701.514	3322.66
701.703	3386.15
701.892	3230.5
702.08	3533.6
702.269	3322.66
702.457	3406.63
702.646	3365.67
702.834	3271.46
703.023	3316.51
703.212	3199.78
703.4	3248.93
703.589	3222.31
703.777	3412.77
703.965	3167.01
704.154	3328.8
704.342	3273.51
704.531	3314.47
704.719	3167.01
704.907	3179.3
705.096	3242.79
705.284	3173.16
705.472	3140.39
705.661	3164.97
705.849	3115.81
706.037	3076.9
706.226	3173.16
706.414	3072.81
706.602	3136.29
706.79	3138.34
706.979	3164.97
707.167	3154.73
707.355	2931.5
707.543	3015.46
707.731	3103.53
707.919	2978.6
708.107	2941.74
708.296	2992.94
708.484	2943.78
708.672	3021.61
708.86	2970.41
709.048	2890.54
709.236	2894.63
709.424	2968.36
709.612	2951.98
709.8	2915.11
709.988	2917.16
710.176	2857.77
710.364	2913.06
710.551	2966.31
710.739	2753.32
710.927	2849.58
711.115	2919.21
711.303	2814.76
711.491	2816.81
711.679	2775.85
711.866	2812.71
712.054	2802.47
712.242	2743.08
712.43	2886.44
712.617	2677.55
712.805	2849.58
712.993	2773.8
713.181	2730.8
713.368	2528.05
713.556	2714.41
713.744	2577.2
713.931	2771.76
714.119	2773.8
714.306	2685.74
714.494	2698.03
714.682	2730.8
714.869	2665.26
715.057	2478.9
715.244	2601.77
715.432	2630.45
715.619	2583.34
715.807	2591.53
715.994	2528.05
716.182	2575.15
716.369	2495.28
716.556	2474.8
716.744	2534.19
716.931	2480.94
717.119	2634.54
717.306	2571.05
717.493	2491.18
717.681	2536.24
717.868	2437.94
718.055	2464.56
718.242	2478.9
718.43	2429.74
718.617	2413.36
718.804	2341.68
718.991	2409.26
719.179	2450.22
719.366	2403.12
719.553	2421.55
719.74	2263.86
719.927	2390.83
720.114	2286.39
720.301	2216.76
720.488	2206.52
720.676	2298.67
720.863	2356.02
721.05	2370.35
721.237	2292.53
721.424	2206.52
721.611	2251.57
721.798	2247.48
721.985	2192.18
722.172	2243.38
722.358	2239.28
722.545	2304.82
722.732	2173.75
722.919	2306.87
723.106	2263.86
723.293	2212.66
723.48	2149.17
723.667	2235.19
723.853	2087.73
724.04	2063.16
724.227	2100.02
724.414	2108.21
724.6	2208.56
724.787	2136.88
724.974	2149.17
725.161	2210.61
725.347	2102.07
725.534	2128.69
725.72	2104.12
725.907	2159.41
726.094	2091.83
726.28	1971
726.467	1944.38
726.653	1983.29
726.84	2091.83
727.027	2083.64
727.213	1903.42
727.4	2030.39
727.586	2016.05
727.773	1927.99
727.959	1960.76
728.145	1938.23
728.332	1971
728.518	2063.16
728.705	1927.99
728.891	2009.91
729.077	1932.09
729.264	1913.66
729.45	1960.76
729.636	1837.88
729.823	1841.98
730.009	1880.89
730.195	1960.76
730.382	1903.42
730.568	1887.03
730.754	1815.35
730.94	1864.5
731.126	1895.22
731.313	1876.79
731.499	1911.61
731.685	1854.27
731.871	1962.81
732.057	1835.83
732.243	1813.31
732.429	1856.31
732.615	1889.08
732.801	1831.74
732.987	1841.98
733.173	1712.96
733.359	1807.16
733.545	1805.11
733.731	1805.11
733.917	1829.69
734.103	1749.82
734.289	1739.58
734.475	1739.58
734.661	1829.69
734.847	1684.28
735.033	1743.67
735.219	1739.58
735.404	1778.49
735.59	1755.96
735.776	1682.24
735.962	1729.34
736.148	1715
736.333	1657.66
736.519	1700.67
736.705	1778.49
736.89	1563.45
737.076	1735.48
737.262	1637.18
737.447	1520.45
737.633	1696.57
737.819	1585.98
738.004	1651.52
738.19	1678.14
738.375	1620.8
738.561	1608.51
738.747	1555.26
738.932	1551.17
739.118	1661.76
739.303	1651.52
739.489	1602.36
739.674	1645.37
739.859	1649.47
740.045	1579.84
740.23	1551.17
740.416	1448.77
740.601	1549.12
740.786	1463.1
740.972	1518.4
741.157	1493.82
741.342	1440.58
741.528	1504.06
741.713	1481.53
741.898	1450.82
742.084	1506.11
742.269	1387.33
742.454	1502.01
742.639	1409.86
742.824	1446.72
743.01	1370.94
743.195	1358.66
743.38	1342.27
743.565	1413.95
743.75	1409.86
743.935	1340.22
744.12	1248.07
744.305	1377.09
744.49	1420.1
744.675	1381.18
744.86	1362.75
745.045	1313.6
745.23	1323.84
745.415	1295.17
745.6	1309.51
745.785	1289.03
745.97	1295.17
746.155	1301.31
746.34	1272.64
746.525	1291.07
746.71	1354.56
746.895	1233.73
747.079	1231.68
747.264	1141.57
747.449	1248.07
747.634	1325.89
747.819	1149.76
748.003	1215.3
748.188	1192.77
748.373	1198.92
748.557	1250.11
748.742	1102.66
748.927	1104.71
749.111	1170.24
749.296	1121.09
749.481	1123.14
749.665	1088.32
749.85	1049.41
750.034	1241.92
750.219	1157.96
750.404	1092.42
750.588	1182.53
750.773	1100.61
750.957	1073.99
751.141	1067.85
751.326	1055.56
751.51	1045.32
751.695	1092.42
751.879	1067.85
752.064	1127.24
752.248	1037.13
752.432	994.12
752.617	1004.36
752.801	1069.89
752.985	963.4
753.17	1035.08
753.354	922.44
753.538	1043.27
753.722	975.69
753.907	1004.36
754.091	1002.31
754.275	965.45
754.459	887.62
754.643	944.97
754.828	940.87
755.012	930.63
755.196	936.78
755.38	912.2
755.564	879.43
755.748	994.12
755.932	885.58
756.116	904.01
756.3	848.71
756.484	914.25
756.668	867.14
756.852	912.2
757.036	854.86
757.22	795.47
757.404	838.47
757.588	887.62
757.772	934.73
757.956	871.24
758.14	861
758.323	873.29
758.507	856.9
758.691	750.41
758.875	797.51
759.059	830.28
759.242	764.75
759.426	750.41
759.61	758.6
759.794	725.83
759.977	838.47
760.161	863.05
760.345	746.31
760.528	777.03
760.712	779.08
760.895	830.28
761.079	715.59
761.263	854.86
761.446	734.03
761.63	725.83
761.813	725.83
761.997	734.03
762.18	625.48
762.364	734.03
762.547	701.26
762.731	740.17
762.914	752.46
763.098	711.5
763.281	662.35
763.464	664.4
763.648	727.88
763.831	789.32
764.015	727.88
764.198	674.64
764.381	791.37
764.564	764.75
764.748	703.31
764.931	707.4
765.114	709.45
765.297	709.45
765.481	686.92
765.664	754.51
765.847	645.96
766.03	660.3
766.213	674.64
766.397	633.68
766.58	609.1
766.763	781.13
766.946	621.39
767.129	641.87
767.312	607.05
767.495	707.4
767.678	658.25
767.861	666.44
768.044	695.11
768.227	625.48
768.41	697.16
768.593	559.95
768.776	650.06
768.959	609.1
769.142	525.13
769.324	639.82
769.507	607.05
769.69	576.33
769.873	660.3
770.056	643.92
770.239	543.57
770.421	613.2
770.604	582.48
770.787	576.33
770.97	613.2
771.152	609.1
771.335	625.48
771.518	645.96
771.7	658.25
771.883	619.34
772.066	588.62
772.248	621.39
772.431	658.25
772.613	611.15
772.796	543.57
772.978	529.23
773.161	668.49
773.343	588.62
773.526	609.1
773.708	523.09
773.891	564.04
774.073	572.24
774.256	557.9
774.438	625.48
774.621	600.91
774.803	562
774.985	531.28
775.168	576.33
775.35	498.51
775.532	506.7
775.715	566.09
775.897	588.62
776.079	512.85
776.261	504.65
776.444	478.03
776.626	518.99
776.808	549.71
776.99	529.23
777.173	475.98
777.355	504.65
777.537	490.32
777.719	539.47
777.901	437.07
778.083	461.65
778.265	488.27
778.447	430.93
778.629	453.45
778.811	523.09
778.993	447.31
779.175	461.65
779.357	439.12
779.539	349.01
779.721	525.13
779.903	461.65
780.085	428.88
780.267	486.22
780.449	389.97
780.631	494.41
780.812	498.51
780.994	500.56
781.176	355.15
781.358	408.4
781.54	394.06
781.721	412.5
781.903	457.55
782.085	385.87
782.267	437.07
782.448	430.93
782.63	357.2
782.812	457.55
782.993	383.82
783.175	363.34
783.357	357.2
783.538	406.35
783.72	398.16
783.901	371.54
784.083	363.34
784.264	437.07
784.446	365.39
784.627	400.21
784.809	389.97
784.99	312.14
785.172	447.31
785.353	297.81
785.535	367.44
785.716	338.77
785.897	297.81
786.079	322.38
786.26	346.96
786.441	324.43
786.623	248.66
786.804	363.34
786.985	344.91
787.167	322.38
787.348	371.54
787.529	367.44
787.71	381.78
787.891	346.96
788.073	244.56
788.254	267.09
788.435	346.96
788.616	256.85
788.797	197.46
788.978	246.61
789.159	248.66
789.34	326.48
789.522	238.42
789.703	306
789.884	287.57
790.065	297.81
790.246	277.33
790.427	267.09
790.607	408.4
790.788	273.23
790.969	281.43
791.15	330.58
791.331	193.36
791.512	250.71
791.693	326.48
791.874	252.75
792.054	258.9
792.235	248.66
792.416	234.32
792.597	240.47
792.778	334.67
792.958	265.04
793.139	260.95
793.32	295.76
793.5	232.27
793.681	269.14
793.862	265.04
794.042	230.23
794.223	234.32
794.404	244.56
794.584	232.27
794.765	265.04
794.945	193.36
795.126	293.71
795.306	250.71
795.487	224.08
795.667	222.03
795.848	203.6
796.028	306
796.209	316.24
796.389	203.6
796.57	160.59
796.75	211.79
796.93	232.27
797.111	174.93
797.291	217.94
797.471	291.66
797.652	201.55
797.832	183.12
798.012	262.99
798.192	236.37
798.373	160.59
798.553	232.27
798.733	207.7
798.913	232.27
799.093	185.17
799.274	189.27
799.454	273.23
799.634	242.51
799.814	138.07
799.994	158.55
800.174	265.04
800.354	211.79
800.534	185.17
800.714	244.56
800.894	234.32
801.074	101.2
801.254	222.03
801.434	232.27
801.614	189.27
801.794	125.78
801.974	715.59
802.154	158.55
802.334	172.88
802.514	162.64
802.693	142.16
802.873	95.06
803.053	195.41
803.233	185.17
803.413	140.12
803.592	172.88
803.772	109.4
803.952	154.45
804.131	125.78
804.311	168.79
804.491	144.21
804.67	109.4
804.85	199.51
805.03	166.74
805.209	199.51
805.389	105.3
805.568	115.54
805.748	201.55
805.928	95.06
806.107	117.59
806.287	170.83
806.466	105.3
806.646	127.83
806.825	109.4
807.004	209.75
807.184	138.07
807.363	170.83
807.543	103.25
807.722	117.59
807.901	240.47
808.081	224.08
808.26	72.53
808.439	115.54
808.619	88.92
808.798	146.26
808.977	60.24
809.156	101.2
809.336	43.86
809.515	156.5
809.694	158.55
809.873	97.11
810.052	117.59
810.231	142.16
810.411	125.78
810.59	125.78
810.769	54.1
810.948	68.44
811.127	39.76
811.306	72.53
811.485	111.44
811.664	156.5
811.843	117.59
812.022	168.79
812.201	109.4
812.38	23.38
812.559	127.83
812.737	150.36
812.916	115.54
813.095	31.57
813.274	76.63
813.453	47.96
813.632	62.29
813.811	150.36
813.989	72.53
814.168	103.25
814.347	111.44
814.526	158.55
814.704	121.68
814.883	150.36
815.062	111.44
815.24	176.98
815.419	117.59
815.598	52.05
815.776	27.48
815.955	84.82
816.133	11.09
816.312	150.36
816.49	148.31
816.669	41.81
816.847	76.63
817.026	111.44
817.204	117.59
817.383	74.58
817.561	33.62
817.74	119.64
817.918	119.64
818.097	117.59
818.275	113.49
818.453	101.2
818.632	62.29
818.81	47.96
818.988	76.63
819.167	43.86
819.345	97.11
819.523	52.05
819.701	95.06
819.879	86.87
820.058	64.34
820.236	66.39
820.414	109.4
820.592	121.68
820.77	152.4
820.948	56.15
821.127	76.63
821.305	138.07
821.483	54.1
821.661	101.2
821.839	136.02
822.017	93.01
822.195	86.87
822.373	95.06
822.551	64.34
822.729	93.01
822.907	84.82
823.085	101.2
823.262	133.97
823.44	47.96
823.618	33.62
823.796	115.54
823.974	76.63
824.152	-3.24
824.329	58.2
824.507	74.58
824.685	70.48
824.863	23.38
825.04	-1.19
825.218	115.54
825.396	86.87
825.574	60.24
825.751	58.2
825.929	119.64
826.107	37.72
826.284	54.1
826.462	76.63
826.639	9.05
826.817	95.06
826.994	47.96
827.172	29.52
827.349	129.88
827.527	93.01
827.704	127.83
827.882	150.36
828.059	101.2
828.237	56.15
828.414	64.34
828.591	50
828.769	60.24
828.946	107.35
829.124	39.76
829.301	109.4
829.478	64.34
829.655	62.29
829.833	43.86
830.01	-5.29
830.187	166.74
830.364	43.86
830.542	35.67
830.719	47.96
830.896	60.24
831.073	56.15
831.25	84.82
831.427	45.91
831.604	41.81
831.782	2.9
831.959	68.44
832.136	76.63
832.313	35.67
832.49	93.01
832.667	58.2
832.844	-21.67
833.021	103.25
833.198	52.05
833.374	-13.48
833.551	52.05
833.728	27.48
833.905	66.39
834.082	43.86
834.259	90.96
834.436	35.67
834.612	117.59
834.789	60.24
834.966	99.16
835.143	64.34
835.319	31.57
835.496	68.44
835.673	21.33
835.85	33.62
836.026	88.92
836.203	43.86
836.38	119.64
836.556	21.33
836.733	43.86
836.909	136.02
837.086	54.1
837.262	11.09
837.439	43.86
837.616	45.91
837.792	47.96
837.968	-3.24
838.145	21.33
838.321	47.96
838.498	13.14
838.674	37.72
838.851	-46.25
839.027	-19.63
839.203	-13.48
839.38	11.09
839.556	19.29
839.732	56.15
839.909	60.24
840.085	86.87
840.261	-25.77
840.437	-17.58
840.614	56.15
840.79	142.16
840.966	64.34
841.142	64.34
841.318	-38.06
841.494	88.92
841.671	103.25
841.847	31.57
842.023	25.43
842.199	35.67
842.375	54.1
842.551	52.05
842.727	29.52
842.903	62.29
843.079	37.72
843.255	37.72
843.431	35.67
843.607	105.3
843.783	41.81
843.959	31.57
844.134	2.9
844.31	39.76
844.486	45.91
844.662	-83.11
844.838	86.87
845.013	35.67
845.189	35.67
845.365	43.86
845.541	45.91
845.716	23.38
845.892	95.06
846.068	-13.48
846.244	-29.87
846.419	23.38
846.595	-1.19
846.77	37.72
846.946	54.1
847.122	15.19
847.297	-5.29
847.473	86.87
847.648	29.52
847.824	-38.06
847.999	-36.01
848.175	64.34
848.35	37.72
848.526	62.29
848.701	60.24
848.876	19.29
849.052	68.44
849.227	39.76
849.403	-9.39
849.578	37.72
849.753	31.57
849.929	45.91
850.104	41.81
850.279	52.05
850.454	-29.87
850.63	56.15
850.805	101.2
850.98	-1.19
851.155	62.29
851.33	29.52
851.505	21.33
851.681	47.96
851.856	97.11
852.031	56.15
852.206	2.9
852.381	27.48
852.556	4.95
852.731	0.85
852.906	-9.39
853.081	54.1
853.256	23.38
853.431	64.34
853.606	-56.49
853.781	47.96
853.956	-64.68
854.131	37.72
854.305	-11.43
854.48	2.9
854.655	-3.24
854.83	88.92
855.005	-21.67
855.18	11.09
855.354	45.91
855.529	39.76
855.704	-42.15
855.879	4.95
856.053	-5.29
856.228	7
856.403	-5.29
856.577	60.24
856.752	4.95
856.926	31.57
857.101	70.48
857.276	-1.19
857.45	0.85
857.625	19.29
857.799	29.52
857.974	19.29
858.148	-25.77
858.323	-13.48
858.497	-56.49
858.672	13.14
858.846	11.09
859.02	93.01
859.195	21.33
859.369	17.24
859.543	-1.19
859.718	-36.01
859.892	52.05
860.066	-1.19
860.241	-52.39
860.415	0.85
860.589	7
860.763	-93.35
860.938	-38.06
861.112	62.29
861.286	-46.25
861.46	45.91
861.634	-17.58
861.808	-3.24
861.982	-5.29
862.157	27.48
862.331	-44.2
862.505	-29.87
862.679	-11.43
862.853	-5.29
863.027	-13.48
863.201	-9.39
863.375	9.05
863.549	19.29
863.722	95.06
863.896	-1.19
864.07	21.33
864.244	78.68
864.418	31.57
864.592	27.48
864.766	93.01
864.939	-11.43
865.113	11.09
865.287	52.05
865.461	-40.11
865.634	62.29
865.808	27.48
865.982	-50.35
866.156	-9.39
866.329	-29.87
866.503	64.34
866.676	60.24
866.85	60.24
867.024	7
867.197	21.33
867.371	-21.67
867.544	-1.19
867.718	-36.01
867.891	37.72
868.065	2.9
868.238	35.67
868.412	86.87
868.585	39.76
868.759	43.86
868.932	-66.73
869.105	-1.19
869.279	-21.67
869.452	17.24
869.625	0.85
869.799	4.95
869.972	-11.43
870.145	-5.29
870.319	27.48
870.492	23.38
870.665	-13.48
870.838	-13.48
871.011	-54.44
871.185	13.14
871.358	19.29
871.531	15.19
871.704	-1.19
871.877	-5.29
872.05	27.48
872.223	-72.87
872.396	58.2
872.569	2.9
872.742	35.67
872.915	-7.34
873.088	-17.58
873.261	62.29
873.434	52.05
873.607	78.68
873.78	66.39
873.953	-62.63
874.126	-29.87
874.299	2.9
874.471	29.52
874.644	43.86
874.817	-5.29
874.99	-13.48
875.163	19.29
875.335	-1.19
875.508	-1.19
875.681	4.95
875.853	-36.01
876.026	-87.21
876.199	31.57
876.371	39.76
876.544	-46.25
876.717	43.86
876.889	-19.63
877.062	54.1
877.234	11.09
877.407	52.05
877.579	-33.96
877.752	21.33
877.924	37.72
878.097	37.72
878.269	-33.96
878.442	13.14
878.614	-29.87
878.786	43.86
878.959	-21.67
879.131	37.72
879.303	-19.63
879.476	27.48
879.648	119.64
879.82	52.05
879.993	-42.15
880.165	60.24
880.337	-15.53
880.509	7
880.681	-38.06
880.854	43.86
881.026	45.91
881.198	64.34
881.37	-76.97
881.542	43.86
881.714	-21.67
881.886	27.48
882.058	-21.67
882.23	47.96
882.402	-11.43
882.574	68.44
882.746	-54.44
882.918	25.43
883.09	9.05
883.262	-31.91
883.434	11.09
883.606	13.14
883.778	-13.48
883.95	39.76
884.122	-60.59
884.293	0.85
884.465	-76.97
884.637	68.44
884.809	-17.58
884.98	27.48
885.152	7
885.324	43.86
885.496	23.38
885.667	2.9
885.839	-9.39
886.011	60.24
886.182	31.57
886.354	2.9
886.525	7
886.697	-1.19
886.869	-70.83
887.04	-29.87
887.212	54.1
887.383	84.82
887.555	-15.53
887.726	-25.77
887.897	7
888.069	70.48
888.24	21.33
888.412	39.76
888.583	45.91
888.754	27.48
888.926	-27.82
889.097	11.09
889.268	-52.39
889.44	13.14
889.611	-9.39
889.782	-1.19
889.953	-5.29
890.125	-52.39
890.296	-5.29
890.467	11.09
890.638	-11.43
890.809	33.62
890.98	-29.87
891.151	37.72
891.323	21.33
891.494	37.72
891.665	-33.96
891.836	-44.2
892.007	7
892.178	43.86
892.349	4.95
892.52	-54.44
892.691	-44.2
892.862	-33.96
893.032	-3.24
893.203	23.38
893.374	37.72
893.545	93.01
893.716	-33.96
893.887	35.67
894.057	-128.17
894.228	80.72
894.399	-7.34
894.57	72.53
894.74	-33.96
894.911	29.52
895.082	-62.63
895.253	19.29
895.423	60.24
895.594	13.14
895.764	35.67
895.935	-13.48
896.106	35.67
896.276	11.09
896.447	-17.58
896.617	54.1
896.788	-46.25
896.958	-21.67
897.129	-1.19
897.299	-25.77
897.47	-11.43
897.64	43.86
897.81	35.67
897.981	62.29
898.151	-1.19
898.322	-1.19
898.492	15.19
898.662	-33.96
898.832	-85.16
899.003	-48.3
899.173	-9.39
899.343	-25.77
899.513	19.29
