Data from USB4F104151__240__14-45-45-584.txt Node

Date: Thu Mar 13 14:45:45 EDT 2025
User: louis
Spectrometer: USB4F10415
Trigger mode: 4
Integration Time (sec): 2.000000E-2
Scans to average: 1
Electric dark correction enabled: true
Nonlinearity correction enabled: false
Boxcar width: 0
XAxis mode: Wavelengths
Number of Pixels in Spectrum: 3648
>>>>>Begin Spectral Data<<<<<
178.204	-106.84
178.424	-106.84
178.644	-106.84
178.864	-155.99
179.084	-90.45
179.304	1.71
179.524	-49.49
179.744	-33.11
179.964	3.75
180.184	20.14
180.404	52.91
180.624	83.63
180.844	-18.77
181.064	-57.68
181.283	34.47
181.503	-39.25
181.723	1.71
181.943	-59.73
182.163	42.67
182.383	-88.4
182.602	93.87
182.822	20.14
183.042	16.04
183.262	-29.01
183.482	36.52
183.701	-0.34
183.921	-24.92
184.141	32.43
184.361	-41.3
184.58	48.81
184.8	-2.39
185.02	-29.01
185.239	-2.39
185.459	65.19
185.679	-8.53
185.898	-115.03
186.118	40.62
186.338	7.85
186.557	9.9
186.777	46.76
186.997	24.23
187.216	9.9
187.436	7.85
187.655	110.25
187.875	89.77
188.095	9.9
188.314	40.62
188.534	50.86
188.753	16.04
188.973	34.47
189.192	69.29
189.412	46.76
189.631	71.34
189.851	-8.53
190.07	85.67
190.29	-29.01
190.509	1.71
190.729	30.38
190.948	91.82
191.168	91.82
191.387	16.04
191.607	-33.11
191.826	40.62
192.045	50.86
192.265	24.23
192.484	36.52
192.704	9.9
192.923	26.28
193.142	40.62
193.362	100.01
193.581	-2.39
193.8	32.43
194.02	32.43
194.239	-39.25
194.458	116.39
194.678	9.9
194.897	77.48
195.116	50.86
195.335	118.44
195.555	46.76
195.774	18.09
195.993	38.57
196.212	59.05
196.432	-33.11
196.651	-14.68
196.87	3.75
197.089	61.1
197.308	52.91
197.528	100.01
197.747	-33.11
197.966	-74.07
198.185	44.71
198.404	-24.92
198.623	1.71
198.842	32.43
199.062	52.91
199.281	-8.53
199.5	3.75
199.719	-16.73
199.938	54.95
200.157	22.19
200.376	11.95
200.595	26.28
200.814	54.95
201.033	5.8
201.252	-0.34
201.471	24.23
201.69	52.91
201.909	57
202.128	79.53
202.347	50.86
202.566	-6.49
202.785	-0.34
203.004	30.38
203.223	91.82
203.442	-57.68
203.661	-37.2
203.879	57
204.098	9.9
204.317	52.91
204.536	-10.58
204.755	24.23
204.974	91.82
205.193	46.76
205.411	138.92
205.63	32.43
205.849	40.62
206.068	48.81
206.287	32.43
206.505	69.29
206.724	50.86
206.943	32.43
207.162	20.14
207.381	28.33
207.599	24.23
207.818	42.67
208.037	48.81
208.255	24.23
208.474	42.67
208.693	73.39
208.911	16.04
209.13	24.23
209.349	52.91
209.567	34.47
209.786	32.43
210.005	-6.49
210.223	-4.44
210.442	-84.31
210.661	36.52
210.879	20.14
211.098	16.04
211.316	65.19
211.535	32.43
211.753	11.95
211.972	28.33
212.191	9.9
212.409	3.75
212.628	75.43
212.846	26.28
213.065	32.43
213.283	3.75
213.502	-2.39
213.72	7.85
213.938	20.14
214.157	20.14
214.375	9.9
214.594	1.71
214.812	-6.49
215.031	30.38
215.249	18.09
215.467	36.52
215.686	-2.39
215.904	108.2
216.122	-14.68
216.341	59.05
216.559	-20.82
216.778	24.23
216.996	48.81
217.214	9.9
217.432	24.23
217.651	48.81
217.869	-16.73
218.087	65.19
218.306	-43.35
218.524	40.62
218.742	5.8
218.96	-14.68
219.179	46.76
219.397	63.15
219.615	38.57
219.833	24.23
220.051	52.91
220.27	24.23
220.488	71.34
220.706	-12.63
220.924	1.71
221.142	48.81
221.36	65.19
221.578	32.43
221.796	59.05
222.015	89.77
222.233	100.01
222.451	63.15
222.669	1.71
222.887	1.71
223.105	-31.06
223.323	40.62
223.541	-0.34
223.759	32.43
223.977	-18.77
224.195	57
224.413	26.28
224.631	22.19
224.849	-8.53
225.067	126.63
225.285	20.14
225.503	-2.39
225.721	-53.59
225.939	32.43
226.157	54.95
226.375	95.91
226.592	7.85
226.81	-33.11
227.028	-4.44
227.246	28.33
227.464	26.28
227.682	32.43
227.9	24.23
228.117	9.9
228.335	-16.73
228.553	22.19
228.771	46.76
228.989	44.71
229.206	32.43
229.424	-6.49
229.642	42.67
229.86	-33.11
230.077	-49.49
230.295	16.04
230.513	65.19
230.731	77.48
230.948	46.76
231.166	57
231.384	-31.06
231.601	-63.83
231.819	9.9
232.037	-20.82
232.254	-45.4
232.472	36.52
232.689	-0.34
232.907	89.77
233.125	20.14
233.342	-37.2
233.56	3.75
233.777	-29.01
233.995	48.81
234.213	26.28
234.43	36.52
234.648	75.43
234.865	28.33
235.083	24.23
235.3	42.67
235.518	26.28
235.735	69.29
235.953	44.71
236.17	63.15
236.388	9.9
236.605	61.1
236.822	40.62
237.04	89.77
237.257	-4.44
237.475	-49.49
237.692	77.48
237.909	24.23
238.127	67.24
238.344	48.81
238.562	-14.68
238.779	-10.58
238.996	-51.54
239.214	-18.77
239.431	57
239.648	-12.63
239.865	61.1
240.083	3.75
240.3	42.67
240.517	-33.11
240.735	44.71
240.952	36.52
241.169	87.72
241.386	50.86
241.603	-24.92
241.821	3.75
242.038	40.62
242.255	112.3
242.472	-31.06
242.689	28.33
242.907	32.43
243.124	-18.77
243.341	7.85
243.558	28.33
243.775	69.29
243.992	24.23
244.209	61.1
244.426	61.1
244.643	40.62
244.86	22.19
245.078	-12.63
245.295	57
245.512	32.43
245.729	-0.34
245.946	-90.45
246.163	11.95
246.38	40.62
246.597	18.09
246.814	-4.44
247.031	48.81
247.248	73.39
247.464	-0.34
247.681	89.77
247.898	3.75
248.115	16.04
248.332	38.57
248.549	65.19
248.766	36.52
248.983	57
249.2	-12.63
249.417	89.77
249.633	-8.53
249.85	26.28
250.067	75.43
250.284	40.62
250.501	16.04
250.717	-12.63
250.934	-31.06
251.151	44.71
251.368	32.43
251.585	36.52
251.801	38.57
252.018	9.9
252.235	9.9
252.451	-0.34
252.668	-39.25
252.885	34.47
253.102	61.1
253.318	16.04
253.535	16.04
253.752	22.19
253.968	-41.3
254.185	32.43
254.401	-0.34
254.618	40.62
254.835	16.04
255.051	57
255.268	50.86
255.484	48.81
255.701	34.47
255.917	16.04
256.134	3.75
256.351	-57.68
256.567	-47.44
256.784	61.1
257	-0.34
257.217	57
257.433	46.76
257.65	104.11
257.866	50.86
258.082	-37.2
258.299	13.99
258.515	57
258.732	108.2
258.948	61.1
259.165	7.85
259.381	7.85
259.597	54.95
259.814	50.86
260.03	20.14
260.246	24.23
260.463	67.24
260.679	16.04
260.895	-2.39
261.112	32.43
261.328	-29.01
261.544	40.62
261.761	26.28
261.977	24.23
262.193	26.28
262.409	100.01
262.626	7.85
262.842	24.23
263.058	-33.11
263.274	7.85
263.49	36.52
263.707	108.2
263.923	26.28
264.139	-14.68
264.355	26.28
264.571	79.53
264.787	16.04
265.004	9.9
265.22	-35.16
265.436	1.71
265.652	-22.87
265.868	114.34
266.084	-45.4
266.3	7.85
266.516	32.43
266.732	20.14
266.948	48.81
267.164	9.9
267.38	40.62
267.596	40.62
267.812	16.04
268.028	3.75
268.244	-20.82
268.46	65.19
268.676	22.19
268.892	118.44
269.108	-63.83
269.324	-57.68
269.54	-8.53
269.756	73.39
269.972	-14.68
270.188	-6.49
270.403	-6.49
270.619	-8.53
270.835	40.62
271.051	24.23
271.267	-39.25
271.483	1.71
271.698	34.47
271.914	28.33
272.13	52.91
272.346	9.9
272.562	5.8
272.777	54.95
272.993	26.28
273.209	48.81
273.425	97.96
273.64	-39.25
273.856	65.19
274.072	44.71
274.287	44.71
274.503	1.71
274.719	34.47
274.934	71.34
275.15	32.43
275.366	32.43
275.581	-8.53
275.797	9.9
276.012	16.04
276.228	52.91
276.444	46.76
276.659	83.63
276.875	16.04
277.09	75.43
277.306	32.43
277.521	89.77
277.737	67.24
277.952	-63.83
278.168	106.15
278.383	-22.87
278.599	-16.73
278.814	-31.06
279.03	3.75
279.245	97.96
279.461	-16.73
279.676	89.77
279.892	-33.11
280.107	26.28
280.322	3.75
280.538	7.85
280.753	-4.44
280.969	-16.73
281.184	-18.77
281.399	11.95
281.615	106.15
281.83	-16.73
282.045	-96.6
282.26	-14.68
282.476	-14.68
282.691	-26.96
282.906	89.77
283.122	36.52
283.337	24.23
283.552	52.91
283.767	9.9
283.983	36.52
284.198	28.33
284.413	48.81
284.628	-2.39
284.843	85.67
285.058	89.77
285.274	75.43
285.489	-72.02
285.704	-0.34
285.919	7.85
286.134	5.8
286.349	-55.64
286.564	32.43
286.779	-0.34
286.995	-8.53
287.21	18.09
287.425	16.04
287.64	16.04
287.855	7.85
288.07	69.29
288.285	54.95
288.5	34.47
288.715	-2.39
288.93	-55.64
289.145	26.28
289.36	57
289.575	-16.73
289.79	-29.01
290.004	30.38
290.219	97.96
290.434	-33.11
290.649	46.76
290.864	-57.68
291.079	75.43
291.294	32.43
291.509	26.28
291.724	73.39
291.938	75.43
292.153	-8.53
292.368	24.23
292.583	59.05
292.798	73.39
293.012	91.82
293.227	-14.68
293.442	50.86
293.657	114.34
293.871	102.06
294.086	-8.53
294.301	34.47
294.516	44.71
294.73	28.33
294.945	-18.77
295.16	-0.34
295.374	69.29
295.589	151.21
295.804	9.9
296.018	61.1
296.233	73.39
296.447	42.67
296.662	36.52
296.877	69.29
297.091	26.28
297.306	42.67
297.52	-24.92
297.735	30.38
297.949	40.62
298.164	26.28
298.378	61.1
298.593	20.14
298.807	30.38
299.022	32.43
299.236	30.38
299.451	-12.63
299.665	42.67
299.88	13.99
300.094	48.81
300.309	42.67
300.523	-57.68
300.737	65.19
300.952	48.81
301.166	134.82
301.381	-41.3
301.595	-31.06
301.809	50.86
302.024	-0.34
302.238	-24.92
302.452	97.96
302.667	67.24
302.881	59.05
303.095	28.33
303.309	-10.58
303.524	-33.11
303.738	71.34
303.952	-6.49
304.166	83.63
304.381	-53.59
304.595	97.96
304.809	24.23
305.023	63.15
305.237	81.58
305.452	40.62
305.666	67.24
305.88	59.05
306.094	24.23
306.308	73.39
306.522	48.81
306.736	118.44
306.95	52.91
307.164	-39.25
307.379	26.28
307.593	30.38
307.807	59.05
308.021	30.38
308.235	-41.3
308.449	-12.63
308.663	-69.97
308.877	89.77
309.091	3.75
309.305	24.23
309.519	-14.68
309.733	24.23
309.947	-51.54
310.161	73.39
310.374	-22.87
310.588	26.28
310.802	-8.53
311.016	18.09
311.23	63.15
311.444	-57.68
311.658	42.67
311.872	89.77
312.085	26.28
312.299	63.15
312.513	93.87
312.727	-16.73
312.941	85.67
313.154	-33.11
313.368	36.52
313.582	26.28
313.796	100.01
314.009	-24.92
314.223	22.19
314.437	89.77
314.651	18.09
314.864	59.05
315.078	28.33
315.292	48.81
315.505	7.85
315.719	57
315.933	3.75
316.146	-57.68
316.36	3.75
316.573	126.63
316.787	65.19
317.001	59.05
317.214	9.9
317.428	81.58
317.641	-24.92
317.855	40.62
318.068	36.52
318.282	24.23
318.495	59.05
318.709	3.75
318.922	11.95
319.136	85.67
319.349	48.81
319.563	59.05
319.776	38.57
319.99	22.19
320.203	97.96
320.417	9.9
320.63	73.39
320.843	73.39
321.057	100.01
321.27	1.71
321.483	34.47
321.697	28.33
321.91	75.43
322.124	22.19
322.337	36.52
322.55	-26.96
322.763	26.28
322.977	20.14
323.19	22.19
323.403	1.71
323.617	83.63
323.83	85.67
324.043	22.19
324.256	-41.3
324.469	7.85
324.683	40.62
324.896	20.14
325.109	65.19
325.322	-0.34
325.535	32.43
325.748	26.28
325.962	34.47
326.175	44.71
326.388	48.81
326.601	11.95
326.814	16.04
327.027	57
327.24	52.91
327.453	5.8
327.666	32.43
327.879	36.52
328.092	110.25
328.305	57
328.518	-41.3
328.731	26.28
328.944	46.76
329.157	16.04
329.37	24.23
329.583	79.53
329.796	89.77
330.009	-55.64
330.222	83.63
330.435	67.24
330.648	59.05
330.861	48.81
331.073	9.9
331.286	73.39
331.499	69.29
331.712	-20.82
331.925	48.81
332.138	-61.78
332.35	48.81
332.563	-69.97
332.776	65.19
332.989	-14.68
333.202	65.19
333.414	89.77
333.627	-49.49
333.84	79.53
334.053	61.1
334.265	-35.16
334.478	20.14
334.691	63.15
334.903	65.19
335.116	-22.87
335.329	7.85
335.541	-14.68
335.754	-43.35
335.966	67.24
336.179	28.33
336.392	7.85
336.604	44.71
336.817	65.19
337.029	59.05
337.242	16.04
337.454	91.82
337.667	32.43
337.88	1.71
338.092	81.58
338.305	16.04
338.517	18.09
338.729	36.52
338.942	65.19
339.154	26.28
339.367	73.39
339.579	57
339.792	-12.63
340.004	1.71
340.217	34.47
340.429	-51.54
340.641	-55.64
340.854	3.75
341.066	7.85
341.278	20.14
341.491	91.82
341.703	24.23
341.915	-29.01
342.128	9.9
342.34	57
342.552	75.43
342.764	-14.68
342.977	71.34
343.189	32.43
343.401	65.19
343.613	34.47
343.826	65.19
344.038	40.62
344.25	40.62
344.462	40.62
344.674	-33.11
344.886	36.52
345.099	79.53
345.311	24.23
345.523	42.67
345.735	9.9
345.947	40.62
346.159	83.63
346.371	26.28
346.583	-6.49
346.795	102.06
347.007	30.38
347.219	52.91
347.431	54.95
347.643	75.43
347.855	52.91
348.067	65.19
348.279	-8.53
348.491	89.77
348.703	71.34
348.915	40.62
349.127	69.29
349.339	65.19
349.551	-33.11
349.763	81.58
349.975	34.47
350.187	83.63
350.399	59.05
350.61	61.1
350.822	-8.53
351.034	40.62
351.246	7.85
351.458	40.62
351.669	24.23
351.881	-0.34
352.093	48.81
352.305	65.19
352.517	42.67
352.728	77.48
352.94	16.04
353.152	69.29
353.363	-10.58
353.575	22.19
353.787	100.01
353.999	-57.68
354.21	108.2
354.422	32.43
354.633	-0.34
354.845	34.47
355.057	85.67
355.268	-39.25
355.48	65.19
355.692	9.9
355.903	71.34
356.115	26.28
356.326	7.85
356.538	91.82
356.749	69.29
356.961	106.15
357.172	-0.34
357.384	48.81
357.595	85.67
357.807	1.71
358.018	-18.77
358.23	95.91
358.441	93.87
358.653	48.81
358.864	-8.53
359.075	63.15
359.287	-16.73
359.498	102.06
359.709	24.23
359.921	-0.34
360.132	11.95
360.344	28.33
360.555	-24.92
360.766	81.58
360.977	18.09
361.189	48.81
361.4	-47.44
361.611	143.02
361.823	87.72
362.034	-20.82
362.245	65.19
362.456	-8.53
362.667	108.2
362.879	30.38
363.09	16.04
363.301	-16.73
363.512	-8.53
363.723	36.52
363.935	67.24
364.146	16.04
364.357	77.48
364.568	83.63
364.779	44.71
364.99	106.15
365.201	-6.49
365.412	50.86
365.623	-22.87
365.834	52.91
366.045	85.67
366.256	91.82
366.467	52.91
366.678	40.62
366.889	77.48
367.1	36.52
367.311	46.76
367.522	26.28
367.733	5.8
367.944	73.39
368.155	40.62
368.366	106.15
368.577	34.47
368.788	57
368.999	65.19
369.209	52.91
369.42	122.54
369.631	89.77
369.842	-2.39
370.053	40.62
370.264	50.86
370.474	32.43
370.685	100.01
370.896	50.86
371.107	34.47
371.317	16.04
371.528	-24.92
371.739	126.63
371.95	97.96
372.16	50.86
372.371	77.48
372.582	77.48
372.792	93.87
373.003	118.44
373.214	28.33
373.424	81.58
373.635	48.81
373.846	65.19
374.056	77.48
374.267	100.01
374.477	85.67
374.688	18.09
374.898	1.71
375.109	147.11
375.319	87.72
375.53	16.04
375.74	-2.39
375.951	-22.87
376.161	32.43
376.372	28.33
376.582	3.75
376.793	48.81
377.003	7.85
377.214	75.43
377.424	1.71
377.635	-8.53
377.845	106.15
378.055	85.67
378.266	9.9
378.476	22.19
378.686	34.47
378.897	59.05
379.107	38.57
379.317	97.96
379.528	26.28
379.738	97.96
379.948	-49.49
380.158	48.81
380.369	-47.44
380.579	52.91
380.789	57
380.999	93.87
381.21	32.43
381.42	106.15
381.63	28.33
381.84	52.91
382.05	-4.44
382.261	40.62
382.471	-47.44
382.681	40.62
382.891	28.33
383.101	42.67
383.311	16.04
383.521	46.76
383.731	18.09
383.941	97.96
384.151	97.96
384.361	-41.3
384.571	54.95
384.781	28.33
384.991	69.29
385.201	122.54
385.411	42.67
385.621	116.39
385.831	24.23
386.041	-31.06
386.251	54.95
386.461	114.34
386.671	48.81
386.881	75.43
387.091	7.85
387.301	42.67
387.511	67.24
387.72	65.19
387.93	93.87
388.14	16.04
388.35	-22.87
388.56	-6.49
388.769	40.62
388.979	-8.53
389.189	69.29
389.399	77.48
389.609	24.23
389.818	106.15
390.028	48.81
390.238	34.47
390.447	97.96
390.657	75.43
390.867	61.1
391.076	40.62
391.286	7.85
391.496	26.28
391.705	-16.73
391.915	69.29
392.125	38.57
392.334	-24.92
392.544	52.91
392.753	36.52
392.963	32.43
393.172	-6.49
393.382	42.67
393.591	167.59
393.801	-61.78
394.01	198.31
394.22	40.62
394.429	114.34
394.639	32.43
394.848	116.39
395.058	110.25
395.267	40.62
395.477	65.19
395.686	71.34
395.895	81.58
396.105	93.87
396.314	83.63
396.524	67.24
396.733	32.43
396.942	44.71
397.152	73.39
397.361	143.02
397.57	124.58
397.78	50.86
397.989	65.19
398.198	100.01
398.407	26.28
398.617	149.16
398.826	32.43
399.035	110.25
399.244	69.29
399.453	83.63
399.663	122.54
399.872	97.96
400.081	48.81
400.29	24.23
400.499	104.11
400.708	114.34
400.917	73.39
401.127	108.2
401.336	81.58
401.545	186.02
401.754	48.81
401.963	126.63
402.172	57
402.381	9.9
402.59	75.43
402.799	110.25
403.008	155.3
403.217	140.97
403.426	57
403.635	97.96
403.844	85.67
404.053	159.4
404.262	83.63
404.471	190.12
404.68	79.53
404.888	81.58
405.097	67.24
405.306	130.73
405.515	83.63
405.724	100.01
405.933	116.39
406.142	67.24
406.35	171.69
406.559	97.96
406.768	110.25
406.977	167.59
407.185	171.69
407.394	212.65
407.603	134.82
407.812	206.5
408.02	233.13
408.229	255.65
408.438	175.78
408.646	224.94
408.855	245.41
409.064	216.74
409.272	208.55
409.481	278.18
409.69	220.84
409.898	116.39
410.107	245.41
410.315	317.09
410.524	265.89
410.733	269.99
410.941	229.03
411.15	413.35
411.358	296.61
411.567	327.33
411.775	417.44
411.984	329.38
412.192	343.72
412.401	427.68
412.609	442.02
412.818	472.74
413.026	450.21
413.234	405.16
413.443	437.92
413.651	386.72
413.86	493.22
414.068	448.16
414.276	476.84
414.485	501.41
414.693	562.85
414.901	546.47
415.11	573.09
415.318	515.75
415.526	605.86
415.734	706.21
415.943	583.33
416.151	704.16
416.359	607.91
416.567	779.93
416.776	769.69
416.984	736.93
417.192	865.95
417.4	806.56
417.608	765.6
417.817	818.85
418.025	941.72
418.233	990.88
418.441	853.66
418.649	872.09
418.857	1009.31
419.065	1031.83
419.273	1146.52
419.481	1123.99
419.689	1158.81
419.897	1121.95
420.105	1195.67
420.313	1259.16
420.521	1244.82
420.729	1343.13
420.937	1384.09
421.145	1498.77
421.353	1556.11
421.561	1529.49
421.769	1543.83
421.977	1623.7
422.185	1572.5
422.393	1674.9
422.601	1838.73
422.809	1785.49
423.017	1908.37
423.224	1943.18
423.432	1941.13
423.64	2035.34
423.848	2205.32
424.056	2064.01
424.263	2303.62
424.471	2317.96
424.679	2342.53
424.887	2428.55
425.094	2573.96
425.302	2492.04
425.51	2571.91
425.718	2768.51
425.925	2719.36
426.133	2848.38
426.341	3022.46
426.548	3161.72
426.756	3090.04
426.964	3290.74
427.171	3257.98
427.379	3423.86
427.586	3513.97
427.794	3622.52
428.001	3753.59
428.209	3923.57
428.417	3974.77
428.624	4185.71
428.832	4073.07
429.039	4097.64
429.247	4007.53
429.454	4470.37
429.662	4714.08
429.869	4497
430.076	4865.63
430.284	4775.52
430.491	4800.1
430.699	5150.3
430.906	5150.3
431.114	5258.84
431.321	5539.41
431.528	5561.94
431.736	5899.86
431.943	6098.51
432.15	5832.27
432.358	6000.21
432.565	6348.36
432.772	6291.02
432.979	6710.85
433.187	6831.68
433.394	6766.15
433.601	7220.8
433.808	7353.91
434.016	7421.5
434.223	7396.92
434.43	8140.33
434.637	7833.14
434.844	8267.31
435.052	8519.21
435.259	8535.59
435.466	8468.01
435.673	8457.77
435.88	8943.14
436.087	9223.71
436.294	9522.71
436.501	9227.81
436.708	9575.96
436.915	9768.47
437.122	10128.91
437.329	10083.86
437.537	10372.62
437.743	10712.58
437.95	10520.07
438.157	11025.92
438.364	11453.95
438.571	11429.37
438.778	11632.12
438.985	12525.04
439.192	12127.73
439.399	12459.5
439.606	12105.2
439.813	13043.17
440.02	13606.36
440.227	13544.92
440.433	13178.34
440.64	13962.71
440.847	13675.99
441.054	14050.77
441.261	15027.65
441.467	14681.55
441.674	15099.33
441.881	15599.04
442.088	15441.34
442.294	15488.45
442.501	15812.03
442.708	15971.77
442.914	16696.75
443.121	17669.53
443.328	16940.46
443.534	18093.46
443.741	17571.23
443.948	17335.71
444.154	18802.06
444.361	18689.42
444.568	18701.71
444.774	18879.88
444.981	18861.45
445.187	19545.47
445.394	20413.81
445.6	19885.44
445.807	22314.33
446.013	20819.31
446.22	21261.67
446.426	22381.91
446.633	22467.92
446.839	23258.44
447.046	21845.34
447.252	23375.17
447.459	23186.76
447.665	23512.39
447.871	24448.31
448.078	25400.62
448.284	24333.62
448.491	24997.17
448.697	25896.22
448.903	26561.81
449.11	26717.46
449.316	26178.84
449.522	26428.7
449.728	27514.12
449.935	27606.28
450.141	27458.82
450.347	28022.02
450.553	27329.8
450.76	27673.86
450.966	28445.94
451.172	28251.39
451.378	29058.29
451.584	28243.2
451.791	29514.98
451.997	29033.71
452.203	29453.55
452.409	29506.79
452.615	29639.91
452.821	28138.75
453.027	28009.73
453.233	29881.57
453.44	28318.97
453.646	28683.51
453.852	28636.41
454.058	29193.45
454.264	28368.12
454.47	29011.18
454.676	28681.46
454.882	29447.4
455.088	26948.88
455.294	27192.59
455.5	27630.85
455.705	27985.15
455.911	26840.34
456.117	26584.34
456.323	26268.95
456.529	24743.22
456.735	25625.89
456.941	24980.78
457.147	24741.17
457.352	24048.96
457.558	23696.71
457.764	23991.61
457.97	23616.83
458.176	22666.58
458.381	22691.15
458.587	21640.54
458.793	21943.64
458.999	20739.44
459.204	22336.85
459.41	21757.28
459.616	20190.58
459.821	20125.05
460.027	19883.39
460.233	19465.6
460.438	19025.29
460.644	18955.66
460.85	18140.57
461.055	17810.84
461.261	17888.67
461.466	16498.09
461.672	15875.51
461.878	17284.51
462.083	15982.01
462.289	15908.28
462.494	15566.27
462.7	14859.72
462.905	14593.48
463.111	15093.19
463.316	15056.32
463.522	14804.42
463.727	14706.12
463.932	14611.92
464.138	14396.88
464.343	14720.46
464.549	14296.53
464.754	14681.55
464.959	14638.54
465.165	14466.51
465.37	13870.55
465.575	13561.31
465.781	14128.6
465.986	14114.26
466.191	13356.51
466.397	13387.23
466.602	12510.7
466.807	13196.77
467.012	13141.47
467.218	13104.61
467.423	12897.77
467.628	12977.64
467.833	13569.5
468.038	13020.64
468.244	12662.25
468.449	13047.27
468.654	12873.19
468.859	12801.51
469.064	12641.77
469.269	12033.52
469.474	12273.14
469.679	12391.92
469.885	12049.91
470.09	12232.18
470.295	12148.21
470.5	12025.33
470.705	11904.5
470.91	11597.31
471.115	11607.55
471.32	11886.07
471.525	11617.79
471.73	11736.57
471.935	11380.22
472.139	11015.68
472.344	11060.74
472.549	10929.67
472.754	10937.86
472.959	10833.41
473.164	10315.28
473.369	10612.23
473.574	10980.87
473.778	10223.12
473.983	10634.76
474.188	10579.47
474.393	10092.05
474.598	10153.49
474.802	10046.99
475.007	9872.92
475.212	9911.83
475.417	9625.11
475.621	9584.15
475.826	9715.22
476.031	9496.09
476.235	9123.36
476.44	9301.53
476.645	9338.4
476.849	9100.83
477.054	9129.5
477.259	9076.26
477.463	9172.51
477.668	8957.47
477.872	8896.03
478.077	8773.16
478.282	8429.1
478.486	8486.44
478.691	8392.23
478.895	8478.25
479.1	8375.85
479.304	8359.47
479.509	8148.53
479.713	8371.75
479.918	8009.26
480.122	7841.33
480.326	8185.39
480.531	8150.57
480.735	7865.91
480.94	8052.27
481.144	8283.69
481.348	7716.4
481.553	8011.31
481.757	7765.56
481.961	7913.01
482.166	7888.43
482.37	7786.04
482.574	7726.64
482.778	7743.03
482.983	7790.13
483.187	7761.46
483.391	7822.9
483.595	7659.06
483.8	7773.75
484.004	7808.56
484.208	7923.25
484.412	7683.64
484.616	7706.17
484.821	7781.94
485.025	7491.13
485.229	7743.03
485.433	7597.62
485.637	7720.5
485.841	7738.93
486.045	7822.9
486.249	7769.65
486.453	7673.4
486.657	7751.22
486.861	7810.61
487.065	7446.07
487.269	7714.36
487.473	7441.98
487.677	7810.61
487.881	7822.9
488.085	7691.83
488.289	7913.01
488.493	7792.18
488.697	7755.32
488.901	7718.45
489.105	7890.48
489.309	7634.49
489.512	7841.33
489.716	7833.14
489.92	7781.94
490.124	7779.89
490.328	8015.41
490.531	7917.11
490.735	8054.32
490.939	7970.35
491.143	8005.17
491.346	8085.04
491.55	8121.9
491.754	8050.22
491.958	8130.09
492.161	8293.93
492.365	8357.42
492.569	8109.61
492.772	8166.96
492.976	8289.84
493.18	8457.77
493.383	8461.87
493.587	8511.02
493.79	8384.04
493.994	8324.65
494.197	8445.48
494.401	8547.88
494.605	8547.88
494.808	8879.65
495.012	8742.44
495.215	8744.49
495.419	8994.34
495.622	9047.58
495.825	8793.64
496.029	8990.24
496.232	9301.53
496.436	9272.86
496.639	9666.07
496.843	9328.16
497.046	9672.22
497.249	9696.79
497.453	9610.78
497.656	9829.91
497.859	9737.75
498.063	9936.4
498.266	10190.35
498.469	9979.41
498.673	10219.02
498.876	10339.85
499.079	10509.83
499.282	10411.53
499.485	10956.29
499.689	10769.93
499.892	10980.87
500.095	10903.04
500.298	11331.07
500.501	11265.53
500.705	11582.97
500.908	11640.31
501.111	11785.72
501.314	11924.98
501.517	12011
501.72	12246.51
501.923	12109.3
502.126	12420.59
502.329	12535.28
502.532	12647.91
502.735	12791.27
502.938	12946.92
503.141	12955.11
503.344	13219.3
503.547	13172.19
503.75	13463.01
503.953	13635.03
504.156	13729.24
504.359	13805.02
504.562	14140.88
504.765	14355.92
504.968	14382.54
505.17	14591.44
505.373	14777.8
505.576	14984.65
505.779	14841.29
505.982	15068.61
506.185	15427.01
506.387	15502.78
506.59	15506.88
506.793	15902.14
506.996	15949.24
507.198	16199.09
507.401	16065.97
507.604	16352.69
507.807	16776.62
508.009	17055.14
508.212	16919.98
508.415	16967.08
508.617	17472.93
508.82	17571.23
509.022	17354.15
509.225	17712.54
509.428	18083.22
509.63	18224.53
509.833	18062.74
510.035	18998.66
510.238	18726.28
510.44	19004.81
510.643	19164.55
510.845	19512.7
511.048	19197.32
511.25	19420.55
511.453	19789.18
511.655	20643.18
511.858	20299.12
512.06	20589.94
512.262	20561.26
512.465	20817.26
512.667	20979.05
512.87	21085.54
513.072	21398.88
513.274	21691.74
513.477	21599.59
513.679	22230.36
513.881	22492.5
514.084	22582.61
514.286	22666.58
514.488	22680.91
514.69	23254.34
514.893	23207.24
515.095	23096.65
515.297	23797.06
515.499	23948.61
515.701	24122.68
515.904	24423.73
516.106	24651.06
516.308	24794.42
516.51	25185.58
516.712	25197.87
516.914	25640.23
517.116	25937.18
517.318	25759.01
517.52	26000.67
517.722	26176.8
517.925	26152.22
518.127	26535.19
518.329	27057.42
518.531	27182.35
518.733	27479.3
518.935	27548.93
519.136	27735.3
519.338	28204.28
519.54	28441.85
519.742	28656.89
519.944	28824.82
520.146	29103.34
520.348	29015.28
520.55	29369.58
520.752	29416.68
520.954	29863.14
521.155	29738.21
521.357	30471.39
521.559	30479.58
521.761	30737.62
521.963	30835.92
522.164	31108.3
522.366	31124.69
522.568	31581.38
522.77	31771.85
522.971	32191.68
523.173	31734.98
523.375	32208.06
523.576	32193.73
523.778	32101.57
523.98	32783.54
524.181	32588.99
524.383	32767.16
524.584	33471.66
524.786	33133.75
524.988	33105.07
525.189	33502.38
525.391	33807.53
525.592	33866.92
525.794	34374.81
525.995	34057.38
526.197	34176.16
526.398	34370.72
526.6	34864.28
526.801	34970.77
527.003	34727.06
527.204	34897.05
527.406	34931.86
527.607	35316.88
527.808	35599.5
528.01	34933.91
528.211	35394.7
528.412	36134.02
528.614	35556.49
528.815	35849.35
529.016	36320.38
529.218	35624.08
529.419	35957.89
529.62	35947.65
529.822	36267.14
530.023	36138.12
530.224	36260.99
530.425	36070.53
530.626	36121.73
530.828	35961.99
531.029	37201.01
531.23	36390.02
531.431	36430.97
531.632	36695.16
531.833	36535.42
532.035	36631.68
532.236	37313.65
532.437	36957.3
532.638	36609.15
532.839	36539.52
533.04	37440.62
533.241	36529.28
533.442	37213.3
533.643	37252.21
533.844	37000.31
534.045	36973.69
534.246	36852.86
534.447	37123.19
534.648	37395.57
534.849	37123.19
535.05	36787.32
535.251	37092.47
535.451	36951.16
535.652	37213.3
535.853	36756.6
536.054	37008.5
536.255	37194.87
536.456	36625.53
536.657	37403.76
536.857	37063.8
537.058	37069.94
537.259	37071.99
537.46	36977.78
537.66	37131.38
537.861	37080.18
538.062	36834.42
538.263	37381.23
538.463	36942.97
538.664	36979.83
538.865	37094.52
539.065	37127.28
539.266	36799.61
539.466	37137.52
539.667	36656.25
539.868	37205.11
540.068	37031.03
540.269	37094.52
540.469	37260.4
540.67	36686.97
540.87	37489.77
541.071	36871.29
541.271	37342.32
541.472	36844.66
541.672	37063.8
541.873	37024.89
542.073	36574.33
542.274	37176.44
542.474	37094.52
542.675	36723.83
542.875	36963.45
543.075	36689.02
543.276	36541.57
543.476	37076.08
543.676	36547.71
543.877	37074.04
544.077	36938.87
544.277	36945.01
544.478	36859
544.678	36678.78
544.878	36619.39
545.078	37082.23
545.279	36678.78
545.479	36643.96
545.679	36746.36
545.879	36576.38
546.079	36725.88
546.28	36758.65
546.48	36351.1
546.68	36740.22
546.88	37028.98
547.08	36738.17
547.28	36859
547.48	36185.22
547.68	36486.27
547.88	36469.89
548.081	36676.73
548.281	36656.25
548.481	36469.89
548.681	36830.33
548.881	36801.66
549.081	36533.37
549.28	36293.76
549.48	36920.44
549.68	36193.41
549.88	36971.64
550.08	36455.55
550.28	36240.51
550.48	36355.2
550.68	36914.3
550.88	36394.11
551.08	36521.09
551.279	36672.64
551.479	36379.78
551.679	36514.94
551.879	36152.45
552.079	36785.27
552.278	36170.88
552.478	36859
552.678	36236.42
552.878	36805.75
553.077	36418.69
553.277	36242.56
553.477	36912.25
553.676	36318.34
553.876	36242.56
554.076	35759.24
554.275	36344.96
554.475	35894.41
554.674	36488.32
554.874	36400.26
555.074	35908.74
555.273	36013.19
555.473	36490.37
555.672	35714.19
555.872	36256.9
556.071	35927.17
556.271	36174.98
556.47	36136.07
556.67	35761.29
556.869	35820.68
557.068	35875.98
557.268	35636.36
557.467	35841.16
557.667	35810.44
557.866	36091.01
558.065	35808.39
558.265	35579.02
558.464	35271.82
558.663	35882.12
558.863	35122.32
559.062	35982.47
559.261	35132.56
559.461	35585.16
559.66	35089.56
559.859	35148.95
560.058	35214.48
560.258	34985.11
560.457	34950.29
560.656	35406.99
560.855	34923.67
561.054	34866.33
561.253	34919.57
561.453	34751.64
561.652	34966.68
561.851	34776.22
562.05	34581.66
562.249	34550.94
562.448	34823.32
562.647	34897.05
562.846	34432.16
563.045	34694.3
563.244	34190.5
563.443	34864.28
563.642	34249.89
563.841	34227.36
564.04	34223.26
564.239	34569.37
564.438	34161.83
564.637	34507.93
564.836	34282.66
565.035	34133.15
565.234	34071.71
565.432	33862.82
565.631	34049.19
565.83	33737.9
566.029	33842.34
566.228	33756.33
566.427	33600.68
566.625	33598.63
566.824	33287.34
567.023	33445.04
567.222	32959.67
567.42	33250.48
567.619	33131.7
567.818	33133.75
568.016	33113.27
568.215	33139.89
568.414	32941.24
568.612	33473.71
568.811	32789.69
569.01	32881.84
569.208	32664.76
569.407	32550.07
569.605	32566.46
569.804	32740.54
570.002	32185.54
570.201	32601.27
570.4	32107.71
570.598	32249.02
570.797	31876.29
570.995	32128.19
571.193	31890.63
571.392	32748.73
571.59	31796.42
571.789	31691.98
571.987	32005.31
572.186	31843.52
572.384	31624.39
572.582	31562.95
572.781	31829.19
572.979	31132.88
573.177	31546.57
573.376	31671.5
573.574	31214.8
573.772	31333.58
573.971	31003.86
574.169	30764.25
574.367	30901.46
574.565	31128.78
574.763	30754.01
574.962	30842.07
575.16	30127.33
575.358	30940.37
575.556	30301.4
575.754	30801.11
575.952	30309.6
576.151	30491.87
576.349	30184.67
576.547	30233.82
576.745	30401.75
576.943	30112.99
577.141	29578.47
577.339	30033.12
577.537	29572.33
577.735	29809.89
577.933	29363.43
578.131	29791.46
578.329	29273.32
578.527	29482.22
578.725	29459.69
578.923	29586.66
579.121	29144.3
579.319	28994.8
579.516	29463.79
579.714	29283.56
579.912	29142.25
580.11	28742.9
580.308	28712.18
580.506	28656.89
580.704	28341.5
580.901	28505.34
581.099	28816.63
581.297	28298.49
581.495	28323.07
581.692	28617.97
581.89	28312.83
582.088	28470.52
582.285	28056.83
582.483	27976.96
582.681	28183.8
582.878	27995.39
583.076	27720.96
583.274	28189.95
583.471	27608.33
583.669	27829.51
583.866	27299.08
584.064	27663.62
584.262	27229.45
584.459	27424.01
584.657	27245.83
584.854	27561.22
585.052	26918.16
585.249	26809.62
585.447	27028.75
585.644	27038.99
585.841	27065.61
586.039	27082
586.236	26582.29
586.434	26707.22
586.631	26443.03
586.828	26551.57
587.026	26432.79
587.223	26533.14
587.42	26248.47
587.618	26328.34
587.815	26258.71
588.012	25908.51
588.21	25926.94
588.407	26293.53
588.604	25883.94
588.801	25716
588.999	25820.45
589.196	25812.26
589.393	25707.81
589.59	25615.65
589.787	25130.28
589.984	25421.09
590.182	25074.99
590.379	25138.48
590.576	25308.46
590.773	25087.28
590.97	25060.65
591.167	24839.47
591.364	24769.84
591.561	24929.58
591.758	24517.94
591.955	24499.51
592.152	24784.18
592.349	24610.1
592.546	24485.17
592.743	24538.42
592.94	24270.14
593.137	23895.36
593.334	24292.66
593.531	23881.02
593.727	24423.73
593.924	23967.04
594.121	23743.81
594.318	23993.66
594.515	23674.18
594.712	23985.47
594.908	23573.83
595.105	23553.35
595.302	23739.71
595.499	23522.63
595.696	23465.28
595.892	23268.68
596.089	23639.36
596.286	23270.73
596.482	23254.34
596.679	23110.99
596.876	23303.5
597.072	22758.74
597.269	23240.01
597.466	22814.03
597.662	22961.48
597.859	22920.52
598.055	22719.82
598.252	22422.87
598.448	22603.09
598.645	22234.46
598.841	22515.03
599.038	22555.99
599.234	22285.65
599.431	22054.23
599.627	22213.98
599.824	21996.89
600.02	22039.9
600.217	22132.06
600.413	21835.1
600.609	21728.61
600.806	21667.17
601.002	21783.9
601.198	21460.32
601.395	21405.03
601.591	21435.75
601.787	21126.5
601.984	21273.96
602.18	21425.51
602.376	21003.63
602.572	20993.39
602.769	20874.6
602.965	20962.67
603.161	21011.82
603.357	20639.09
603.553	20514.16
603.75	20931.95
603.946	20645.23
604.142	20575.6
604.338	20419.96
604.534	20639.09
604.73	20284.79
604.926	20196.73
605.122	20344.18
605.318	20102.52
605.514	20012.41
605.71	20069.75
605.906	20172.15
606.102	20061.56
606.298	20020.6
606.494	19993.98
606.69	19871.1
606.886	20071.8
607.082	19662.21
607.278	19690.88
607.474	19496.32
607.67	19703.17
607.866	19420.55
608.062	19758.46
608.257	19426.69
608.453	19467.65
608.649	19498.37
608.845	19180.93
609.041	19135.88
609.236	19307.91
609.432	19195.27
609.628	19254.66
609.824	19033.48
610.019	18924.94
610.215	19164.55
610.411	19297.67
610.606	19068.3
610.802	19080.58
610.998	18771.34
611.193	18914.7
611.389	18738.57
611.584	18783.63
611.78	18564.5
611.976	18378.13
612.171	18830.73
612.367	18343.31
612.562	18777.48
612.758	18343.31
612.953	18388.37
613.149	18388.37
613.344	18156.95
613.539	18320.79
613.735	18509.2
613.93	18234.77
614.126	18226.58
614.321	18365.84
614.517	18410.9
614.712	18093.46
614.907	18050.46
615.103	18208.15
615.298	18124.18
615.493	17972.63
615.688	17640.86
615.884	18273.68
616.079	18058.65
616.274	18060.7
616.47	17980.82
616.665	17642.91
616.86	17907.1
617.055	17929.63
617.25	17642.91
617.445	17532.32
617.641	17395.11
617.836	17704.35
618.031	17239.46
618.226	17456.54
618.421	17200.55
618.616	17479.07
618.811	17075.62
619.006	17399.2
619.201	17173.92
619.396	17081.77
619.591	16928.17
619.786	17014.18
619.981	16750
620.176	16668.08
620.371	16559.53
620.566	16760.23
620.761	16530.86
620.956	16645.55
621.151	16305.59
621.346	16369.07
621.541	16068.02
621.735	16711.08
621.93	16057.78
622.125	16051.64
622.32	15775.16
622.515	15908.28
622.709	15744.44
622.904	15830.46
623.099	15670.72
623.294	15711.67
623.488	15257.03
623.683	15449.53
623.878	15373.76
624.072	15326.66
624.267	14978.5
624.462	14912.97
624.656	14869.96
624.851	15017.41
625.046	14773.71
625.24	14833.1
625.435	14628.3
625.629	14706.12
625.824	14499.28
626.018	14622.16
626.213	14417.36
626.407	14456.27
626.602	14126.55
626.796	14187.99
626.991	14052.82
627.185	13960.66
627.38	13968.85
627.574	13903.32
627.768	13753.82
627.963	13622.75
628.157	13651.42
628.352	13608.41
628.546	13307.36
628.74	13626.84
628.935	13192.67
629.129	13217.25
629.323	13231.58
629.517	13127.14
629.712	13028.84
629.906	13020.64
630.1	13041.12
630.294	12762.6
630.489	12707.3
630.683	12676.59
630.877	12598.76
631.071	12641.77
631.265	12639.72
631.459	12486.12
631.653	12320.24
631.848	12348.91
632.042	12289.52
632.236	12248.56
632.43	12123.63
632.624	12244.46
632.818	11929.08
633.012	11824.63
633.206	12011
633.4	11834.87
633.594	11838.97
633.788	11656.7
633.982	11677.18
634.176	11404.8
634.369	11431.42
634.563	11378.17
634.757	11382.27
634.951	11449.85
635.145	11232.77
635.339	11273.73
635.533	11191.81
635.726	11214.34
635.92	11105.79
636.114	11099.65
636.308	11025.92
636.501	10913.28
636.695	10874.37
636.889	10595.85
637.083	10692.1
637.276	10722.82
637.47	10681.86
637.664	10403.34
637.857	10626.57
638.051	10530.31
638.244	10452.49
638.438	10329.61
638.632	10231.31
638.825	10071.57
639.019	10173.97
639.212	10020.37
639.406	10085.9
639.599	10112.53
639.793	10118.67
639.986	10006.03
640.18	9969.17
640.373	9909.78
640.567	9700.89
640.76	9653.78
640.954	9692.69
641.147	9612.82
641.34	9604.63
641.534	9535
641.727	9379.36
641.92	9391.64
642.114	9397.79
642.307	9485.85
642.5	9326.11
642.694	8963.62
642.887	8953.38
643.08	9250.33
643.273	9053.73
643.467	9023.01
643.66	9018.91
643.853	8760.87
644.046	8914.47
644.239	8793.64
644.432	8611.37
644.626	8433.19
644.819	8554.02
645.012	8590.89
645.205	8414.76
645.398	8660.52
645.591	8586.79
645.784	8562.22
645.977	8322.6
646.17	8443.43
646.363	8232.49
646.556	8150.57
646.749	8283.69
646.942	8273.45
647.135	8056.37
647.328	8052.27
647.521	8097.33
647.714	7958.07
647.907	8056.37
648.099	7792.18
648.292	7822.9
648.485	7892.53
648.678	7700.02
648.871	7751.22
649.064	7824.95
649.256	7527.99
649.449	7554.62
649.642	7630.39
649.835	7446.07
650.027	7329.34
650.22	7396.92
650.413	7374.39
650.605	7249.47
650.798	7265.85
650.991	7202.36
651.183	7198.27
651.376	7226.94
651.568	7085.63
651.761	7028.29
651.954	7069.25
652.146	6886.98
652.339	7020.1
652.531	6858.31
652.724	6977.09
652.916	6741.57
653.109	6739.52
653.301	6884.93
653.494	6647.37
653.686	6544.97
653.879	6661.7
654.071	6643.27
654.263	6544.97
654.456	6497.86
654.648	6614.6
654.84	6438.47
655.033	6477.38
655.225	6426.18
655.417	6317.64
655.61	6209.1
655.802	6479.43
655.994	6172.24
656.186	6129.23
656.379	5946.96
656.571	6266.44
656.763	5979.73
656.955	6037.07
657.148	6184.52
657.34	6055.5
657.532	6032.97
657.724	5979.73
657.916	5848.66
658.108	6098.51
658.3	5961.3
658.492	6006.35
658.684	5725.78
658.876	5701.2
659.068	5770.83
659.26	5604.95
659.452	5604.95
659.644	5701.2
659.836	5635.67
660.028	5457.5
660.22	5416.54
660.412	5439.06
660.604	5457.5
660.796	5367.38
660.988	5473.88
661.18	5283.42
661.372	5363.29
661.563	5375.58
661.755	5367.38
661.947	5318.23
662.139	5285.47
662.331	5342.81
662.522	5123.68
662.714	5176.92
662.906	5213.79
663.097	5271.13
663.289	5115.48
663.481	5183.07
663.673	5029.47
663.864	4947.55
664.056	4984.41
664.247	5031.52
664.439	4685.41
664.631	4677.22
664.822	4947.55
665.014	4949.6
665.205	4793.95
665.397	4636.26
665.588	4877.92
665.78	4701.79
665.971	4580.96
666.163	4714.08
666.354	4603.49
666.546	4644.45
666.737	4628.07
666.929	4603.49
667.12	4673.12
667.311	4466.28
667.503	4513.38
667.694	4529.77
667.885	4386.41
668.077	4410.98
668.268	4243.05
668.459	4316.78
668.651	4314.73
668.842	4365.93
669.033	4335.21
669.224	4279.91
669.416	4189.8
669.607	4181.61
669.798	4169.32
669.989	4193.9
670.18	4152.94
670.371	4243.05
670.563	4077.16
670.754	4132.46
670.945	4157.04
671.136	4071.02
671.327	4038.25
671.518	4068.97
671.709	4042.35
671.9	4025.97
672.091	3948.14
672.282	3907.18
672.473	4034.16
672.664	4062.83
672.855	3980.91
673.046	3978.86
673.237	3935.85
673.428	3823.22
673.619	3948.14
673.809	3790.45
674	3825.26
674.191	3970.67
674.382	3677.81
674.573	3798.64
674.764	3683.95
674.954	3661.43
675.145	3591.8
675.336	3702.39
675.527	3618.42
675.717	3675.76
675.908	3679.86
676.099	3493.49
676.289	3806.83
676.48	3530.36
676.671	3579.51
676.861	3595.89
677.052	3565.17
677.243	3495.54
677.433	3548.79
677.624	3571.32
677.814	3405.43
678.005	3602.04
678.195	3477.11
678.386	3571.32
678.576	3440.25
678.767	3442.29
678.957	3374.71
679.148	3481.21
679.338	3513.97
679.529	3337.85
679.719	3497.59
679.909	3456.63
680.1	3405.43
680.29	3477.11
680.481	3190.39
680.671	3325.56
680.861	3323.51
681.052	3231.35
681.242	3239.55
681.432	3501.69
681.622	3245.69
681.813	3309.18
682.003	3143.29
682.193	3348.09
682.383	3354.23
682.573	3231.35
682.764	3362.42
682.954	3192.44
683.144	3284.6
683.334	3227.26
683.524	3243.64
683.714	3112.57
683.904	3227.26
684.094	3235.45
684.284	3149.43
684.474	3182.2
684.664	3147.39
684.854	3092.09
685.044	3227.26
685.234	3116.67
685.424	3065.47
685.614	2997.88
685.804	3180.15
685.994	3153.53
686.184	3100.28
686.374	3026.56
686.564	3038.84
686.753	3022.46
686.943	3030.65
687.133	3014.27
687.323	2854.53
687.513	3055.23
687.702	2909.82
687.892	2881.15
688.082	2866.81
688.272	2918.01
688.461	2936.45
688.651	3034.75
688.841	2836.1
689.03	2791.04
689.22	2868.86
689.41	2791.04
689.599	2817.66
689.789	2778.75
689.979	2866.81
690.168	2752.13
690.358	2752.13
690.547	2696.83
690.737	2825.86
690.926	2737.79
691.116	2709.12
691.305	2664.07
691.495	2702.98
691.684	2668.16
691.874	2571.91
692.063	2795.14
692.252	2735.74
692.442	2725.51
692.631	2641.54
692.82	2619.01
693.01	2573.96
693.199	2698.88
693.388	2612.87
693.578	2721.41
693.767	2635.39
693.956	2653.83
694.146	2592.39
694.335	2659.97
694.524	2471.56
694.713	2551.43
694.902	2461.32
695.092	2510.47
695.281	2473.6
695.47	2481.8
695.659	2602.63
695.848	2535.04
696.037	2350.73
696.226	2391.69
696.415	2576
696.604	2481.8
696.793	2453.13
696.982	2424.45
697.171	2428.55
697.36	2432.65
697.549	2440.84
697.738	2457.22
697.927	2385.54
698.116	2469.51
698.305	2367.11
698.494	2426.5
698.683	2363.01
698.872	2416.26
699.061	2401.93
699.25	2350.73
699.438	2317.96
699.627	2293.38
699.816	2469.51
700.005	2424.45
700.193	2289.29
700.382	2473.6
700.571	2334.34
700.76	2274.95
700.948	2360.97
701.137	2215.56
701.326	2403.97
701.514	2342.53
701.703	2172.55
701.892	2309.77
702.08	2309.77
702.269	2240.14
702.457	2238.09
702.646	2330.25
702.834	2311.82
703.023	2264.71
703.212	2246.28
703.4	2283.14
703.589	2141.83
703.777	2223.75
703.965	2227.85
704.154	2188.94
704.342	2047.63
704.531	2246.28
704.719	2203.27
704.907	2236.04
705.096	2125.45
705.284	2162.31
705.472	2236.04
705.661	2139.79
705.849	2287.24
706.037	2178.7
706.226	2199.18
706.414	2252.42
706.602	2211.46
706.79	2129.55
706.979	2121.35
707.167	2244.23
707.355	2082.44
707.543	2172.55
707.731	2094.73
707.919	2180.75
708.107	2195.08
708.296	2051.72
708.484	2066.06
708.672	2287.24
708.86	2213.51
709.048	2162.31
709.236	2031.24
709.424	2268.81
709.612	2059.92
709.8	2170.51
709.988	2121.35
710.176	2135.69
710.364	2074.25
710.551	2031.24
710.739	2139.79
710.927	2117.26
711.115	2064.01
711.303	1986.19
711.491	2031.24
711.679	2064.01
711.866	2074.25
712.054	2139.79
712.242	2129.55
712.43	2166.41
712.617	2150.03
712.805	2055.82
712.993	2055.82
713.181	2082.44
713.368	2096.78
713.556	2107.02
713.744	2037.39
713.931	2123.4
714.119	1994.38
714.306	1998.48
714.494	2055.82
714.682	1951.37
714.869	1973.9
715.057	1982.09
715.244	1934.99
715.432	2000.52
715.619	2004.62
715.807	2057.87
715.994	2025.1
716.182	1887.89
716.369	1959.56
716.556	1996.43
716.744	2039.44
716.931	2092.68
717.119	2039.44
717.306	2084.49
717.493	1971.85
717.681	1988.24
717.868	1965.71
718.055	1982.09
718.242	1900.17
718.43	2080.39
718.617	1932.94
718.804	1984.14
718.991	2047.63
719.179	2043.53
719.366	1973.9
719.553	2002.57
719.74	2016.91
719.927	1982.09
720.114	1990.28
720.301	1908.37
720.488	1998.48
720.676	1982.09
720.863	1978
721.05	2023.05
721.237	1998.48
721.424	1971.85
721.611	2018.96
721.798	1949.32
721.985	1986.19
722.172	1965.71
722.358	1949.32
722.545	1926.8
722.732	1910.41
722.919	2068.11
723.106	1908.37
723.293	1871.5
723.48	1978
723.667	1920.65
723.853	1896.08
724.04	1982.09
724.227	1918.61
724.414	1908.37
724.6	1842.83
724.787	1986.19
724.974	1920.65
725.161	1922.7
725.347	1736.34
725.534	1908.37
725.72	1857.17
725.907	1973.9
726.094	1836.69
726.28	1808.02
726.467	1894.03
726.653	1875.6
726.84	1990.28
727.027	1965.71
727.213	1924.75
727.4	1961.61
727.586	1867.41
727.773	1879.69
727.959	1885.84
728.145	2027.15
728.332	1908.37
728.518	1891.98
728.705	1998.48
728.891	1787.54
729.077	1912.46
729.264	1828.49
729.45	1967.76
729.636	1873.55
729.823	1969.8
730.009	1877.65
730.195	1818.25
730.382	1885.84
730.568	1787.54
730.754	1789.58
730.94	1871.5
731.126	1877.65
731.313	1818.25
731.499	1898.13
731.685	1875.6
731.871	1879.69
732.057	1842.83
732.243	1896.08
732.429	1908.37
732.615	1752.72
732.801	1932.94
732.987	1844.88
733.173	1844.88
733.359	1830.54
733.545	1902.22
733.731	1779.34
733.917	1799.82
734.103	1840.78
734.289	1894.03
734.475	1795.73
734.661	1812.11
734.847	2018.96
735.033	1736.34
735.219	1859.21
735.404	1879.69
735.59	1689.23
735.776	1711.76
735.962	1828.49
736.148	1908.37
736.333	1801.87
736.519	1816.21
736.705	1736.34
736.89	1691.28
737.076	1771.15
737.262	1773.2
737.447	1748.62
737.633	1760.91
737.819	1703.57
738.004	1752.72
738.19	1773.2
738.375	1678.99
738.561	1810.06
738.747	1736.34
738.932	1724.05
739.118	1818.25
739.303	1748.62
739.489	1793.68
739.674	1670.8
739.859	1648.27
740.045	1709.71
740.23	1705.62
740.416	1746.58
740.601	1828.49
740.786	1664.66
740.972	1715.86
741.157	1674.9
741.342	1597.07
741.528	1672.85
741.713	1631.89
741.898	1740.43
742.084	1760.91
742.269	1765.01
742.454	1703.57
742.639	1568.4
742.824	1609.36
743.01	1728.14
743.195	1623.7
743.38	1572.5
743.565	1617.55
743.75	1560.21
743.935	1605.27
744.12	1572.5
744.305	1533.59
744.49	1611.41
744.675	1523.35
744.86	1451.67
745.045	1586.83
745.23	1525.4
745.415	1494.68
745.6	1486.48
745.785	1570.45
745.97	1549.97
746.155	1582.74
746.34	1515.16
746.525	1531.54
746.71	1547.92
746.895	1541.78
747.079	1435.28
747.264	1558.16
747.449	1435.28
747.634	1418.9
747.819	1496.72
748.003	1402.52
748.188	1416.85
748.373	1423
748.557	1416.85
748.742	1425.04
748.927	1336.98
749.111	1408.66
749.296	1402.52
749.481	1441.43
749.665	1379.99
749.85	1332.89
750.034	1420.95
750.219	1410.71
750.404	1394.33
750.588	1326.74
750.773	1220.25
750.957	1343.13
751.141	1271.45
751.326	1277.59
751.51	1269.4
751.695	1261.21
751.879	1246.87
752.064	1275.54
752.248	1205.91
752.432	1312.41
752.617	1250.97
752.801	1302.17
752.985	1195.67
753.17	1189.53
753.354	1316.5
753.538	1167
753.722	1220.25
753.907	1212.06
754.091	1130.14
754.275	1248.92
754.459	1101.47
754.643	1085.08
754.828	1107.61
755.012	1128.09
755.196	1179.29
755.38	1085.08
755.564	1156.76
755.748	1058.46
755.932	1109.66
756.116	1050.27
756.3	1085.08
756.484	1074.84
756.668	980.64
756.852	1074.84
757.036	1031.83
757.22	1066.65
757.404	999.07
757.588	1003.16
757.772	1048.22
757.956	1064.6
758.14	986.78
758.323	972.44
758.507	1080.99
758.691	1013.4
758.875	958.11
759.059	1011.36
759.242	943.77
759.426	935.58
759.61	1007.26
759.794	917.15
759.977	880.29
760.161	984.73
760.345	962.2
760.528	960.16
760.712	835.23
760.895	949.92
761.079	855.71
761.263	915.1
761.446	941.72
761.63	917.15
761.813	1007.26
761.997	857.76
762.18	861.85
762.364	923.29
762.547	814.75
762.731	882.33
762.914	898.72
763.098	904.86
763.281	849.57
763.464	894.62
763.648	904.86
763.831	933.53
764.015	884.38
764.198	827.04
764.381	888.48
764.564	868
764.748	818.85
764.931	847.52
765.114	693.92
765.297	874.14
765.481	822.94
765.664	851.61
765.847	857.76
766.03	861.85
766.213	757.41
766.397	818.85
766.58	769.69
766.763	769.69
766.946	796.32
767.129	736.93
767.312	747.17
767.495	810.65
767.678	738.98
767.861	792.22
768.044	724.64
768.227	763.55
768.41	689.82
768.593	796.32
768.776	761.5
768.959	820.89
769.142	755.36
769.324	757.41
769.507	777.89
769.69	749.22
769.873	757.41
770.056	771.74
770.239	818.85
770.421	745.12
770.604	730.78
770.787	700.06
770.97	704.16
771.152	722.59
771.335	679.58
771.518	745.12
771.7	736.93
771.883	730.78
772.066	738.98
772.248	736.93
772.431	753.31
772.613	708.26
772.796	673.44
772.978	681.63
773.161	667.3
773.343	687.78
773.526	665.25
773.708	628.39
773.891	583.33
774.073	720.54
774.256	689.82
774.438	706.21
774.621	673.44
774.803	644.77
774.985	554.66
775.168	652.96
775.35	630.43
775.532	671.39
775.715	601.76
775.897	597.67
776.079	509.6
776.261	648.86
776.444	624.29
776.626	605.86
776.808	556.71
776.99	491.17
777.173	577.19
777.355	589.47
777.537	511.65
777.719	548.51
777.901	482.98
778.083	485.03
778.265	575.14
778.447	630.43
778.629	626.34
778.811	571.04
778.993	468.64
779.175	626.34
779.357	525.99
779.539	485.03
779.721	474.79
779.903	577.19
780.085	554.66
780.267	499.36
780.449	439.97
780.631	548.51
780.812	523.94
780.994	581.28
781.176	485.03
781.358	448.16
781.54	386.72
781.721	491.17
781.903	562.85
782.085	417.44
782.267	460.45
782.448	458.4
782.63	442.02
782.812	472.74
782.993	499.36
783.175	548.51
783.357	454.31
783.538	466.6
783.72	425.64
783.901	417.44
784.083	460.45
784.264	423.59
784.446	409.25
784.627	407.2
784.809	360.1
784.99	417.44
785.172	351.91
785.353	433.83
785.535	446.12
785.716	435.88
785.897	380.58
786.079	394.92
786.26	466.6
786.441	427.68
786.623	364.2
786.804	450.21
786.985	351.91
787.167	439.97
787.348	368.29
787.529	364.2
787.71	458.4
787.891	364.2
788.073	269.99
788.254	376.48
788.435	425.64
788.616	360.1
788.797	294.57
788.978	366.25
789.159	335.53
789.34	368.29
789.522	308.9
789.703	272.04
789.884	392.87
790.065	278.18
790.246	368.29
790.427	296.61
790.607	339.62
790.788	450.21
790.969	245.41
791.15	353.96
791.331	265.89
791.512	284.33
791.693	253.61
791.874	323.24
792.054	360.1
792.235	351.91
792.416	319.14
792.597	288.42
792.778	229.03
792.958	280.23
793.139	251.56
793.32	272.04
793.5	247.46
793.681	374.44
793.862	265.89
794.042	280.23
794.223	251.56
794.404	220.84
794.584	249.51
794.765	263.85
794.945	339.62
795.126	224.94
795.306	319.14
795.487	237.22
795.667	335.53
795.848	229.03
796.028	261.8
796.209	212.65
796.389	274.09
796.57	202.41
796.75	243.37
796.93	263.85
797.111	177.83
797.291	222.89
797.471	296.61
797.652	198.31
797.832	249.51
798.012	308.9
798.192	222.89
798.373	190.12
798.553	233.13
798.733	183.98
798.913	272.04
799.093	212.65
799.274	179.88
799.454	253.61
799.634	286.37
799.814	169.64
799.994	167.59
800.174	274.09
800.354	229.03
800.534	159.4
800.714	278.18
800.894	155.3
801.074	171.69
801.254	204.46
801.434	222.89
801.614	214.7
801.794	173.74
801.974	769.69
802.154	208.55
802.334	206.5
802.514	149.16
802.693	159.4
802.873	161.45
803.053	151.21
803.233	167.59
803.413	241.32
803.592	175.78
803.772	157.35
803.952	175.78
804.131	81.58
804.311	255.65
804.491	153.26
804.67	61.1
804.85	171.69
805.03	216.74
805.209	194.22
805.389	124.58
805.568	202.41
805.748	163.5
805.928	114.34
806.107	231.08
806.287	173.74
806.466	161.45
806.646	165.54
806.825	138.92
807.004	124.58
807.184	226.98
807.363	140.97
807.543	161.45
807.722	196.26
807.901	171.69
808.081	192.17
808.26	106.15
808.439	81.58
808.619	89.77
808.798	138.92
808.977	175.78
809.156	102.06
809.336	163.5
809.515	196.26
809.694	163.5
809.873	81.58
810.052	89.77
810.231	173.74
810.411	147.11
810.59	165.54
810.769	130.73
810.948	122.54
811.127	124.58
811.306	114.34
811.485	122.54
811.664	181.93
811.843	138.92
812.022	167.59
812.201	65.19
812.38	138.92
812.559	155.3
812.737	102.06
812.916	104.11
813.095	122.54
813.274	196.26
813.453	212.65
813.632	118.44
813.811	124.58
813.989	138.92
814.168	100.01
814.347	106.15
814.526	114.34
814.704	188.07
814.883	114.34
815.062	147.11
815.24	81.58
815.419	108.2
815.598	157.35
815.776	108.2
815.955	153.26
816.133	59.05
816.312	77.48
816.49	89.77
816.669	65.19
816.847	108.2
817.026	69.29
817.204	128.68
817.383	102.06
817.561	91.82
817.74	192.17
817.918	34.47
818.097	132.78
818.275	79.53
818.453	122.54
818.632	171.69
818.81	122.54
818.988	114.34
819.167	36.52
819.345	179.88
819.523	69.29
819.701	85.67
819.879	124.58
820.058	157.35
820.236	108.2
820.414	132.78
820.592	122.54
820.77	140.97
820.948	100.01
821.127	54.95
821.305	155.3
821.483	73.39
821.661	81.58
821.839	122.54
822.017	81.58
822.195	40.62
822.373	143.02
822.551	188.07
822.729	126.63
822.907	151.21
823.085	126.63
823.262	140.97
823.44	106.15
823.618	118.44
823.796	157.35
823.974	77.48
824.152	50.86
824.329	81.58
824.507	65.19
824.685	69.29
824.863	104.11
825.04	87.72
825.218	159.4
825.396	102.06
825.574	132.78
825.751	85.67
825.929	59.05
826.107	11.95
826.284	81.58
826.462	106.15
826.639	128.68
826.817	65.19
826.994	112.3
827.172	48.81
827.349	91.82
827.527	69.29
827.704	81.58
827.882	42.67
828.059	24.23
828.237	97.96
828.414	175.78
828.591	32.43
828.769	93.87
828.946	32.43
829.124	102.06
829.301	97.96
829.478	114.34
829.655	9.9
829.833	77.48
830.01	40.62
830.187	128.68
830.364	89.77
830.542	106.15
830.719	89.77
830.896	75.43
831.073	67.24
831.25	97.96
831.427	97.96
831.604	63.15
831.782	67.24
831.959	57
832.136	124.58
832.313	112.3
832.49	102.06
832.667	57
832.844	36.52
833.021	89.77
833.198	77.48
833.374	-20.82
833.551	11.95
833.728	106.15
833.905	-8.53
834.082	-72.02
834.259	85.67
834.436	93.87
834.612	42.67
834.789	87.72
834.966	28.33
835.143	97.96
835.319	20.14
835.496	63.15
835.673	-4.44
835.85	73.39
836.026	50.86
836.203	110.25
836.38	30.38
836.556	48.81
836.733	1.71
836.909	67.24
837.086	40.62
837.262	48.81
837.439	18.09
837.616	61.1
837.792	100.01
837.968	7.85
838.145	28.33
838.321	65.19
838.498	69.29
838.674	112.3
838.851	3.75
839.027	52.91
839.203	32.43
839.38	61.1
839.556	75.43
839.732	57
839.909	73.39
840.085	132.78
840.261	34.47
840.437	7.85
840.614	50.86
840.79	7.85
840.966	50.86
841.142	36.52
841.318	-6.49
841.494	153.26
841.671	110.25
841.847	44.71
842.023	-18.77
842.199	50.86
842.375	108.2
842.551	48.81
842.727	36.52
842.903	106.15
843.079	9.9
843.255	50.86
843.431	-29.01
843.607	30.38
843.783	-53.59
843.959	52.91
844.134	-57.68
844.31	79.53
844.486	89.77
844.662	48.81
844.838	16.04
845.013	114.34
845.189	50.86
845.365	-8.53
845.541	59.05
845.716	65.19
845.892	32.43
846.068	1.71
846.244	-16.73
846.419	67.24
846.595	7.85
846.77	-14.68
846.946	18.09
847.122	13.99
847.297	89.77
847.473	81.58
847.648	18.09
847.824	54.95
847.999	-33.11
848.175	32.43
848.35	28.33
848.526	50.86
848.701	83.63
848.876	9.9
849.052	32.43
849.227	24.23
849.403	-0.34
849.578	24.23
849.753	-4.44
849.929	40.62
850.104	20.14
850.279	59.05
850.454	-82.26
850.63	18.09
850.805	85.67
850.98	77.48
851.155	65.19
851.33	-8.53
851.505	-6.49
851.681	16.04
851.856	42.67
852.031	89.77
852.206	-0.34
852.381	59.05
852.556	-0.34
852.731	9.9
852.906	32.43
853.081	48.81
853.256	67.24
853.431	1.71
853.606	100.01
853.781	24.23
853.956	-22.87
854.131	-26.96
854.305	48.81
854.48	34.47
854.655	106.15
854.83	-65.88
855.005	26.28
855.18	-57.68
855.354	54.95
855.529	1.71
855.704	-22.87
855.879	16.04
856.053	52.91
856.228	75.43
856.403	-14.68
856.577	5.8
856.752	-8.53
856.926	34.47
857.101	-6.49
857.276	-29.01
857.45	42.67
857.625	36.52
857.799	63.15
857.974	32.43
858.148	59.05
858.323	-33.11
858.497	11.95
858.672	-14.68
858.846	-22.87
859.02	122.54
859.195	3.75
859.369	24.23
859.543	1.71
859.718	18.09
859.892	20.14
860.066	61.1
860.241	-33.11
860.415	-61.78
860.589	-16.73
860.763	18.09
860.938	-39.25
861.112	26.28
861.286	61.1
861.46	-8.53
861.634	57
861.808	-0.34
861.982	-31.06
862.157	48.81
862.331	-41.3
862.505	20.14
862.679	-8.53
862.853	32.43
863.027	28.33
863.201	97.96
863.375	-55.64
863.549	75.43
863.722	-29.01
863.896	71.34
864.07	-12.63
864.244	18.09
864.418	46.76
864.592	32.43
864.766	36.52
864.939	50.86
865.113	11.95
865.287	28.33
865.461	42.67
865.634	-8.53
865.808	-20.82
865.982	26.28
866.156	-33.11
866.329	-24.92
866.503	7.85
866.676	-49.49
866.85	57
867.024	7.85
867.197	67.24
867.371	20.14
867.544	100.01
867.718	28.33
867.891	7.85
868.065	18.09
868.238	-4.44
868.412	9.9
868.585	3.75
868.759	-31.06
868.932	9.9
869.105	-0.34
869.279	34.47
869.452	32.43
869.625	89.77
869.799	-0.34
869.972	1.71
870.145	1.71
870.319	-4.44
870.492	11.95
870.665	-35.16
870.838	1.71
871.011	-33.11
871.185	57
871.358	46.76
871.531	102.06
871.704	9.9
871.877	9.9
872.05	-14.68
872.223	-14.68
872.396	104.11
872.569	59.05
872.742	-14.68
872.915	65.19
873.088	34.47
873.261	-41.3
873.434	93.87
873.607	24.23
873.78	-12.63
873.953	-6.49
874.126	40.62
874.299	9.9
874.471	20.14
874.644	13.99
874.817	65.19
874.99	48.81
875.163	13.99
875.335	-31.06
875.508	30.38
875.681	28.33
875.853	9.9
876.026	-14.68
876.199	34.47
876.371	24.23
876.544	-24.92
876.717	-24.92
876.889	9.9
877.062	5.8
877.234	48.81
877.407	7.85
877.579	-8.53
877.752	65.19
877.924	73.39
878.097	-4.44
878.269	48.81
878.442	-39.25
878.614	73.39
878.786	20.14
878.959	-47.44
879.131	3.75
879.303	-39.25
879.476	34.47
879.648	-4.44
879.82	85.67
879.993	20.14
880.165	-8.53
880.337	-41.3
880.509	-31.06
880.681	36.52
880.854	-4.44
881.026	40.62
881.198	85.67
881.37	-31.06
881.542	75.43
881.714	48.81
881.886	32.43
882.058	48.81
882.23	-29.01
882.402	-16.73
882.574	52.91
882.746	-16.73
882.918	48.81
883.09	24.23
883.262	-41.3
883.434	81.58
883.606	-14.68
883.778	-6.49
883.95	-0.34
884.122	50.86
884.293	28.33
884.465	44.71
884.637	52.91
884.809	-20.82
884.98	59.05
885.152	50.86
885.324	54.95
885.496	16.04
885.667	26.28
885.839	-4.44
886.011	73.39
886.182	-47.44
886.354	-49.49
886.525	-0.34
886.697	7.85
886.869	-24.92
887.04	-8.53
887.212	36.52
887.383	57
887.555	57
887.726	-33.11
887.897	16.04
888.069	22.19
888.24	-47.44
888.412	32.43
888.583	30.38
888.754	20.14
888.926	59.05
889.097	-8.53
889.268	-12.63
889.44	-12.63
889.611	42.67
889.782	-16.73
889.953	-37.2
890.125	69.29
890.296	-65.88
890.467	-39.25
890.638	-63.83
890.809	18.09
890.98	65.19
891.151	-29.01
891.323	44.71
891.494	52.91
891.665	-47.44
891.836	-0.34
892.007	48.81
892.178	57
892.349	-53.59
892.52	81.58
892.691	-86.36
892.862	-47.44
893.032	-57.68
893.203	48.81
893.374	22.19
893.545	44.71
893.716	11.95
893.887	1.71
894.057	26.28
894.228	7.85
894.399	-39.25
894.57	-0.34
894.74	-2.39
894.911	-10.58
895.082	-43.35
895.253	48.81
895.423	-74.07
895.594	-8.53
895.764	-37.2
895.935	34.47
896.106	-47.44
896.276	-49.49
896.447	-6.49
896.617	-33.11
896.788	-41.3
896.958	-8.53
897.129	-31.06
897.299	89.77
897.47	134.82
897.64	7.85
897.81	7.85
897.981	57
898.151	-53.59
898.322	26.28
898.492	11.95
898.662	-49.49
898.832	-37.2
899.003	71.34
899.173	20.14
899.343	-82.26
899.513	-24.92
