Data from USB4F104151__110__14-43-49-311.txt Node

Date: Thu Mar 13 14:43:49 EDT 2025
User: louis
Spectrometer: USB4F10415
Trigger mode: 4
Integration Time (sec): 2.000000E-2
Scans to average: 1
Electric dark correction enabled: true
Nonlinearity correction enabled: false
Boxcar width: 0
XAxis mode: Wavelengths
Number of Pixels in Spectrum: 3648
>>>>>Begin Spectral Data<<<<<
178.204	-106.15
178.424	-106.15
178.644	-106.15
178.864	-106.15
179.084	-112.3
179.304	6.49
179.524	-48.81
179.744	-69.29
179.964	41.3
180.184	-28.33
180.404	-7.85
180.624	20.82
180.844	29.01
181.064	98.64
181.283	0.34
181.503	-20.14
181.723	-22.19
181.943	-93.87
182.163	59.73
182.383	-13.99
182.602	57.68
182.822	53.59
183.042	-5.8
183.262	4.44
183.482	74.07
183.701	31.06
183.921	16.73
184.141	10.58
184.361	49.49
184.58	57.68
184.8	74.07
185.02	0.34
185.239	86.36
185.459	8.53
185.679	39.25
185.898	-44.71
186.118	92.5
186.338	69.97
186.557	12.63
186.777	0.34
186.997	-13.99
187.216	-32.43
187.436	53.59
187.655	10.58
187.875	59.73
188.095	8.53
188.314	2.39
188.534	8.53
188.753	45.4
188.973	74.07
189.192	43.35
189.412	20.82
189.631	2.39
189.851	106.84
190.07	57.68
190.29	65.88
190.509	82.26
190.729	8.53
190.948	106.84
191.168	117.08
191.387	82.26
191.607	2.39
191.826	-24.23
192.045	35.16
192.265	35.16
192.484	106.84
192.704	86.36
192.923	33.11
193.142	106.84
193.362	35.16
193.581	78.16
193.8	-28.33
194.02	106.84
194.239	51.54
194.458	67.92
194.678	55.64
194.897	106.84
195.116	86.36
195.335	18.77
195.555	88.4
195.774	18.77
195.993	49.49
196.212	-13.99
196.432	-1.71
196.651	26.96
196.87	-22.19
197.089	74.07
197.308	53.59
197.528	51.54
197.747	-16.04
197.966	49.49
198.185	74.07
198.404	41.3
198.623	33.11
198.842	41.3
199.062	90.45
199.281	100.69
199.5	8.53
199.719	-30.38
199.938	31.06
200.157	24.92
200.376	49.49
200.595	108.88
200.814	29.01
201.033	53.59
201.252	51.54
201.471	0.34
201.69	45.4
201.909	69.97
202.128	92.5
202.347	29.01
202.566	35.16
202.785	65.88
203.004	-3.75
203.223	86.36
203.442	43.35
203.661	35.16
203.879	-44.71
204.098	72.02
204.317	86.36
204.536	115.03
204.755	80.21
204.974	98.64
205.193	29.01
205.411	51.54
205.63	41.3
205.849	37.2
206.068	92.5
206.287	49.49
206.505	80.21
206.724	18.77
206.943	26.96
207.162	41.3
207.381	43.35
207.599	33.11
207.818	-7.85
208.037	45.4
208.255	12.63
208.474	106.84
208.693	94.55
208.911	10.58
209.13	51.54
209.349	100.69
209.567	-16.04
209.786	94.55
210.005	12.63
210.223	76.12
210.442	-16.04
210.661	0.34
210.879	33.11
211.098	82.26
211.316	45.4
211.535	131.41
211.753	10.58
211.972	37.2
212.191	-11.95
212.409	-7.85
212.628	-5.8
212.846	78.16
213.065	57.68
213.283	106.84
213.502	2.39
213.72	37.2
213.938	110.93
214.157	16.73
214.375	14.68
214.594	61.78
214.812	12.63
215.031	82.26
215.249	57.68
215.467	33.11
215.686	0.34
215.904	45.4
216.122	12.63
216.341	104.79
216.559	74.07
216.778	84.31
216.996	59.73
217.214	29.01
217.432	45.4
217.651	76.12
217.869	20.82
218.087	24.92
218.306	29.01
218.524	76.12
218.742	0.34
218.96	123.22
219.179	53.59
219.397	53.59
219.615	94.55
219.833	-3.75
220.051	59.73
220.27	31.06
220.488	108.88
220.706	76.12
220.924	33.11
221.142	2.39
221.36	31.06
221.578	76.12
221.796	-24.23
222.015	49.49
222.233	-24.23
222.451	80.21
222.669	45.4
222.887	24.92
223.105	-32.43
223.323	43.35
223.541	-20.14
223.759	-16.04
223.977	74.07
224.195	16.73
224.413	20.82
224.631	131.41
224.849	39.25
225.067	213.33
225.285	-1.71
225.503	16.73
225.721	8.53
225.939	35.16
226.157	26.96
226.375	131.41
226.592	-36.52
226.81	78.16
227.028	65.88
227.246	80.21
227.464	14.68
227.682	98.64
227.9	-34.47
228.117	65.88
228.335	37.2
228.553	-13.99
228.771	-42.67
228.989	43.35
229.206	49.49
229.424	63.83
229.642	-50.86
229.86	59.73
230.077	65.88
230.295	78.16
230.513	51.54
230.731	49.49
230.948	76.12
231.166	-7.85
231.384	98.64
231.601	26.96
231.819	51.54
232.037	-30.38
232.254	-63.15
232.472	49.49
232.689	12.63
232.907	76.12
233.125	92.5
233.342	18.77
233.56	12.63
233.777	16.73
233.995	14.68
234.213	57.68
234.43	-61.1
234.648	33.11
234.865	43.35
235.083	33.11
235.3	12.63
235.518	119.12
235.735	33.11
235.953	106.84
236.17	-3.75
236.388	43.35
236.605	0.34
236.822	69.97
237.04	69.97
237.257	115.03
237.475	-54.95
237.692	57.68
237.909	26.96
238.127	-9.9
238.344	-1.71
238.562	98.64
238.779	-20.14
238.996	-46.76
239.214	2.39
239.431	8.53
239.648	53.59
239.865	82.26
240.083	43.35
240.3	-30.38
240.517	16.73
240.735	16.73
240.952	49.49
241.169	74.07
241.386	49.49
241.603	39.25
241.821	-22.19
242.038	139.6
242.255	51.54
242.472	51.54
242.689	35.16
242.907	24.92
243.124	26.96
243.341	16.73
243.558	-7.85
243.775	8.53
243.992	0.34
244.209	78.16
244.426	96.6
244.643	22.87
244.86	4.44
245.078	57.68
245.295	102.74
245.512	51.54
245.729	29.01
245.946	74.07
246.163	-5.8
246.38	8.53
246.597	-7.85
246.814	63.83
247.031	24.92
247.248	-5.8
247.464	8.53
247.681	65.88
247.898	24.92
248.115	102.74
248.332	24.92
248.549	78.16
248.766	86.36
248.983	33.11
249.2	39.25
249.417	29.01
249.633	2.39
249.85	-7.85
250.067	-16.04
250.284	-24.23
250.501	4.44
250.717	100.69
250.934	-16.04
251.151	22.87
251.368	2.39
251.585	26.96
251.801	-22.19
252.018	10.58
252.235	20.82
252.451	90.45
252.668	10.58
252.885	57.68
253.102	139.6
253.318	16.73
253.535	74.07
253.752	33.11
253.968	45.4
254.185	-36.52
254.401	-13.99
254.618	82.26
254.835	76.12
255.051	24.92
255.268	59.73
255.484	35.16
255.701	24.92
255.917	14.68
256.134	14.68
256.351	20.82
256.567	-106.15
256.784	108.88
257	16.73
257.217	47.44
257.433	49.49
257.65	10.58
257.866	53.59
258.082	-16.04
258.299	31.06
258.515	108.88
258.732	-13.99
258.948	-3.75
259.165	115.03
259.381	67.92
259.597	53.59
259.814	49.49
260.03	-32.43
260.246	53.59
260.463	-1.71
260.679	74.07
260.895	51.54
261.112	51.54
261.328	61.78
261.544	18.77
261.761	61.78
261.977	33.11
262.193	35.16
262.409	76.12
262.626	76.12
262.842	16.73
263.058	22.87
263.274	65.88
263.49	20.82
263.707	115.03
263.923	29.01
264.139	72.02
264.355	37.2
264.571	82.26
264.787	74.07
265.004	86.36
265.22	98.64
265.436	41.3
265.652	45.4
265.868	-3.75
266.084	14.68
266.3	82.26
266.516	33.11
266.732	84.31
266.948	-3.75
267.164	100.69
267.38	-3.75
267.596	82.26
267.812	63.83
268.028	117.08
268.244	67.92
268.46	84.31
268.676	-38.57
268.892	106.84
269.108	-32.43
269.324	65.88
269.54	-16.04
269.756	57.68
269.972	-34.47
270.188	20.82
270.403	-32.43
270.619	10.58
270.835	31.06
271.051	41.3
271.267	31.06
271.483	88.4
271.698	57.68
271.914	49.49
272.13	65.88
272.346	133.46
272.562	67.92
272.777	98.64
272.993	65.88
273.209	74.07
273.425	18.77
273.64	-40.62
273.856	41.3
274.072	47.44
274.287	-54.95
274.503	131.41
274.719	8.53
274.934	35.16
275.15	20.82
275.366	106.84
275.581	8.53
275.797	33.11
276.012	18.77
276.228	10.58
276.444	123.22
276.659	-13.99
276.875	-104.11
277.09	72.02
277.306	-11.95
277.521	65.88
277.737	0.34
277.952	51.54
278.168	33.11
278.383	49.49
278.599	57.68
278.814	16.73
279.03	69.97
279.245	108.88
279.461	45.4
279.676	59.73
279.892	24.92
280.107	49.49
280.322	24.92
280.538	67.92
280.753	65.88
280.969	-22.19
281.184	41.3
281.399	106.84
281.615	8.53
281.83	16.73
282.045	37.2
282.26	-48.81
282.476	55.64
282.691	115.03
282.906	8.53
283.122	-30.38
283.337	16.73
283.552	59.73
283.767	26.96
283.983	135.51
284.198	10.58
284.413	74.07
284.628	-11.95
284.843	69.97
285.058	61.78
285.274	2.39
285.489	-7.85
285.704	0.34
285.919	51.54
286.134	65.88
286.349	43.35
286.564	41.3
286.779	74.07
286.995	-30.38
287.21	0.34
287.425	82.26
287.64	74.07
287.855	39.25
288.07	33.11
288.285	-40.62
288.5	-30.38
288.715	20.82
288.93	16.73
289.145	-30.38
289.36	74.07
289.575	65.88
289.79	55.64
290.004	6.49
290.219	67.92
290.434	2.39
290.649	2.39
290.864	84.31
291.079	0.34
291.294	94.55
291.509	49.49
291.724	31.06
291.938	55.64
292.153	90.45
292.368	51.54
292.583	-13.99
292.798	33.11
293.012	74.07
293.227	127.32
293.442	-85.67
293.657	84.31
293.871	29.01
294.086	-22.19
294.301	31.06
294.516	41.3
294.73	16.73
294.945	33.11
295.16	-36.52
295.374	61.78
295.589	8.53
295.804	49.49
296.018	53.59
296.233	119.12
296.447	14.68
296.662	29.01
296.877	61.78
297.091	41.3
297.306	14.68
297.52	37.2
297.735	143.7
297.949	65.88
298.164	90.45
298.378	33.11
298.593	8.53
298.807	20.82
299.022	94.55
299.236	51.54
299.451	33.11
299.665	33.11
299.88	98.64
300.094	0.34
300.309	65.88
300.523	45.4
300.737	59.73
300.952	59.73
301.166	45.4
301.381	90.45
301.595	-32.43
301.809	45.4
302.024	-24.23
302.238	37.2
302.452	49.49
302.667	65.88
302.881	65.88
303.095	53.59
303.309	39.25
303.524	51.54
303.738	-5.8
303.952	16.73
304.166	117.08
304.381	-13.99
304.595	86.36
304.809	63.83
305.023	69.97
305.237	74.07
305.452	49.49
305.666	100.69
305.88	20.82
306.094	65.88
306.308	78.16
306.522	8.53
306.736	41.3
306.95	94.55
307.164	41.3
307.379	51.54
307.593	143.7
307.807	-18.09
308.021	35.16
308.235	29.01
308.449	-30.38
308.663	37.2
308.877	106.84
309.091	98.64
309.305	53.59
309.519	78.16
309.733	96.6
309.947	-16.04
310.161	59.73
310.374	76.12
310.588	33.11
310.802	-11.95
311.016	26.96
311.23	139.6
311.444	-16.04
311.658	2.39
311.872	115.03
312.085	35.16
312.299	82.26
312.513	74.07
312.727	-7.85
312.941	22.87
313.154	59.73
313.368	2.39
313.582	69.97
313.796	-30.38
314.009	-24.23
314.223	65.88
314.437	131.41
314.651	33.11
314.864	49.49
315.078	0.34
315.292	65.88
315.505	41.3
315.719	92.5
315.933	8.53
316.146	74.07
316.36	59.73
316.573	59.73
316.787	102.74
317.001	-16.04
317.214	12.63
317.428	33.11
317.641	29.01
317.855	61.78
318.068	86.36
318.282	0.34
318.495	26.96
318.709	92.5
318.922	84.31
319.136	2.39
319.349	6.49
319.563	8.53
319.776	65.88
319.99	49.49
320.203	67.92
320.417	88.4
320.63	110.93
320.843	61.78
321.057	65.88
321.27	-7.85
321.483	10.58
321.697	110.93
321.91	74.07
322.124	33.11
322.337	65.88
322.55	-44.71
322.763	4.44
322.977	106.84
323.19	12.63
323.403	65.88
323.617	102.74
323.83	84.31
324.043	-13.99
324.256	35.16
324.469	45.4
324.683	90.45
324.896	49.49
325.109	-54.95
325.322	10.58
325.535	76.12
325.748	53.59
325.962	-36.52
326.175	82.26
326.388	80.21
326.601	-1.71
326.814	69.97
327.027	59.73
327.24	51.54
327.453	18.77
327.666	18.77
327.879	92.5
328.092	49.49
328.305	57.68
328.518	53.59
328.731	76.12
328.944	-22.19
329.157	104.79
329.37	49.49
329.583	4.44
329.796	20.82
330.009	2.39
330.222	98.64
330.435	33.11
330.648	41.3
330.861	16.73
331.073	61.78
331.286	47.44
331.499	37.2
331.712	-34.47
331.925	-3.75
332.138	90.45
332.35	49.49
332.563	104.79
332.776	20.82
332.989	-69.29
333.202	57.68
333.414	8.53
333.627	43.35
333.84	22.87
334.053	65.88
334.265	18.77
334.478	-13.99
334.691	8.53
334.903	49.49
335.116	33.11
335.329	-20.14
335.541	63.83
335.754	121.17
335.966	16.73
336.179	53.59
336.392	-7.85
336.604	26.96
336.817	26.96
337.029	41.3
337.242	78.16
337.454	18.77
337.667	-11.95
337.88	104.79
338.092	92.5
338.305	108.88
338.517	51.54
338.729	26.96
338.942	55.64
339.154	35.16
339.367	24.92
339.579	35.16
339.792	-57
340.004	57.68
340.217	-9.9
340.429	59.73
340.641	-7.85
340.854	82.26
341.066	65.88
341.278	49.49
341.491	102.74
341.703	82.26
341.915	-57
342.128	98.64
342.34	65.88
342.552	0.34
342.764	74.07
342.977	31.06
343.189	65.88
343.401	74.07
343.613	0.34
343.826	18.77
344.038	41.3
344.25	-52.91
344.462	12.63
344.674	43.35
344.886	-36.52
345.099	49.49
345.311	35.16
345.523	8.53
345.735	-11.95
345.947	16.73
346.159	14.68
346.371	31.06
346.583	106.84
346.795	100.69
347.007	31.06
347.219	80.21
347.431	10.58
347.643	49.49
347.855	-34.47
348.067	74.07
348.279	55.64
348.491	74.07
348.703	-20.14
348.915	43.35
349.127	26.96
349.339	102.74
349.551	80.21
349.763	63.83
349.975	-20.14
350.187	16.73
350.399	16.73
350.61	125.27
350.822	43.35
351.034	133.46
351.246	12.63
351.458	24.92
351.669	90.45
351.881	57.68
352.093	123.22
352.305	16.73
352.517	49.49
352.728	63.83
352.94	102.74
353.152	45.4
353.363	-3.75
353.575	61.78
353.787	82.26
353.999	98.64
354.21	45.4
354.422	80.21
354.633	-32.43
354.845	43.35
355.057	55.64
355.268	-20.14
355.48	67.92
355.692	-63.15
355.903	14.68
356.115	33.11
356.326	-9.9
356.538	57.68
356.749	74.07
356.961	67.92
357.172	88.4
357.384	55.64
357.595	88.4
357.807	59.73
358.018	37.2
358.23	41.3
358.441	90.45
358.653	69.97
358.864	94.55
359.075	131.41
359.287	20.82
359.498	59.73
359.709	22.87
359.921	67.92
360.132	6.49
360.344	100.69
360.555	8.53
360.766	12.63
360.977	41.3
361.189	108.88
361.4	43.35
361.611	59.73
361.823	43.35
362.034	-3.75
362.245	16.73
362.456	39.25
362.667	123.22
362.879	35.16
363.09	12.63
363.301	108.88
363.512	59.73
363.723	49.49
363.935	22.87
364.146	86.36
364.357	92.5
364.568	65.88
364.779	0.34
364.99	49.49
365.201	0.34
365.412	149.84
365.623	10.58
365.834	35.16
366.045	69.97
366.256	69.97
366.467	35.16
366.678	106.84
366.889	55.64
367.1	35.16
367.311	49.49
367.522	49.49
367.733	43.35
367.944	102.74
368.155	106.84
368.366	51.54
368.577	100.69
368.788	104.79
368.999	55.64
369.209	16.73
369.42	100.69
369.631	131.41
369.842	37.2
370.053	24.92
370.264	39.25
370.474	24.92
370.685	4.44
370.896	49.49
371.107	123.22
371.317	98.64
371.528	33.11
371.739	49.49
371.95	121.17
372.16	12.63
372.371	53.59
372.582	92.5
372.792	35.16
373.003	41.3
373.214	24.92
373.424	35.16
373.635	69.97
373.846	29.01
374.056	24.92
374.267	8.53
374.477	2.39
374.688	41.3
374.898	65.88
375.109	98.64
375.319	72.02
375.53	10.58
375.74	43.35
375.951	49.49
376.161	-40.62
376.372	37.2
376.582	51.54
376.793	33.11
377.003	-52.91
377.214	123.22
377.424	98.64
377.635	74.07
377.845	0.34
378.055	59.73
378.266	51.54
378.476	20.82
378.686	67.92
378.897	84.31
379.107	33.11
379.317	110.93
379.528	22.87
379.738	55.64
379.948	12.63
380.158	143.7
380.369	16.73
380.579	51.54
380.789	31.06
380.999	65.88
381.21	20.82
381.42	61.78
381.63	12.63
381.84	26.96
382.05	57.68
382.261	65.88
382.471	104.79
382.681	-54.95
382.891	35.16
383.101	65.88
383.311	-13.99
383.521	98.64
383.731	88.4
383.941	74.07
384.151	98.64
384.361	67.92
384.571	94.55
384.781	-3.75
384.991	117.08
385.201	141.65
385.411	117.08
385.621	59.73
385.831	18.77
386.041	69.97
386.251	84.31
386.461	108.88
386.671	20.82
386.881	-13.99
387.091	20.82
387.301	76.12
387.511	98.64
387.72	137.56
387.93	16.73
388.14	16.73
388.35	104.79
388.56	63.83
388.769	63.83
388.979	33.11
389.189	45.4
389.399	125.27
389.609	90.45
389.818	53.59
390.028	-5.8
390.238	72.02
390.447	12.63
390.657	76.12
390.867	78.16
391.076	-16.04
391.286	147.8
391.496	12.63
391.705	119.12
391.915	82.26
392.125	78.16
392.334	57.68
392.544	90.45
392.753	117.08
392.963	78.16
393.172	86.36
393.382	41.3
393.591	67.92
393.801	10.58
394.01	164.18
394.22	24.92
394.429	110.93
394.639	96.6
394.848	67.92
395.058	164.18
395.267	90.45
395.477	-7.85
395.686	49.49
395.895	78.16
396.105	166.23
396.314	53.59
396.524	94.55
396.733	76.12
396.942	133.46
397.152	51.54
397.361	172.37
397.57	43.35
397.78	76.12
397.989	115.03
398.198	180.56
398.407	123.22
398.617	166.23
398.826	82.26
399.035	123.22
399.244	143.7
399.453	96.6
399.663	41.3
399.872	119.12
400.081	-18.09
400.29	29.01
400.499	92.5
400.708	125.27
400.917	33.11
401.127	125.27
401.336	92.5
401.545	133.46
401.754	131.41
401.963	131.41
402.172	74.07
402.381	47.44
402.59	35.16
402.799	117.08
403.008	39.25
403.217	86.36
403.426	100.69
403.635	129.36
403.844	119.12
404.053	102.74
404.262	82.26
404.471	115.03
404.68	106.84
404.888	139.6
405.097	123.22
405.306	164.18
405.515	172.37
405.724	168.27
405.933	190.8
406.142	160.08
406.35	155.99
406.559	100.69
406.768	190.8
406.977	180.56
407.185	166.23
407.394	145.75
407.603	147.8
407.812	264.53
408.02	209.23
408.229	203.09
408.438	225.62
408.646	151.89
408.855	289.1
409.064	215.38
409.272	233.81
409.481	223.57
409.69	168.27
409.898	155.99
410.107	213.33
410.315	223.57
410.524	278.87
410.733	295.25
410.941	237.91
411.15	246.1
411.358	278.87
411.567	256.34
411.775	246.1
411.984	225.62
412.192	319.82
412.401	319.82
412.609	403.79
412.818	411.98
413.026	336.21
413.234	344.4
413.443	432.46
413.651	364.88
413.86	373.07
414.068	465.23
414.276	405.84
414.485	381.26
414.693	504.14
414.901	502.09
415.11	495.95
415.318	549.2
415.526	627.02
415.734	549.2
415.943	469.33
416.151	651.6
416.359	536.91
416.567	635.21
416.776	706.89
416.984	631.12
417.192	758.09
417.4	715.08
417.608	665.93
417.817	727.37
418.025	880.97
418.233	858.44
418.441	803.15
418.649	852.3
418.857	905.54
419.065	971.08
419.273	936.26
419.481	934.22
419.689	999.75
419.897	1024.33
420.105	1063.24
420.313	1077.57
420.521	1216.83
420.729	1106.24
420.937	1231.17
421.145	1212.74
421.353	1308.99
421.561	1395.01
421.769	1380.67
421.977	1487.17
422.185	1448.26
422.393	1548.61
422.601	1624.38
422.809	1618.24
423.017	1614.14
423.224	1659.2
423.432	1782.07
423.64	1771.83
423.848	1829.18
424.056	1888.57
424.263	1968.44
424.471	1982.78
424.679	2191.67
424.887	2185.52
425.094	2306.35
425.302	2216.24
425.51	2285.87
425.718	2335.03
425.925	2402.61
426.133	2511.15
426.341	2787.63
426.548	2711.85
426.756	2732.33
426.964	2679.08
427.171	3006.76
427.379	2967.85
427.586	3139.88
427.794	3178.79
428.001	3246.37
428.209	3559.71
428.417	3408.16
428.624	3789.08
428.832	3539.23
429.039	3676.45
429.247	3617.05
429.454	4016.41
429.662	4270.36
429.869	3936.54
430.076	4272.4
430.284	3981.59
430.491	4456.72
430.699	4493.58
430.906	4497.68
431.114	4595.98
431.321	4663.57
431.528	4858.12
431.736	5083.4
431.943	5370.12
432.15	5261.57
432.358	5353.73
432.565	5538.05
432.772	5507.33
432.979	5921.02
433.187	5959.93
433.394	5884.16
433.601	6308.09
433.808	6385.91
434.016	6324.47
434.223	6564.08
434.43	6854.89
434.637	7002.35
434.844	7262.44
435.052	7479.52
435.259	7405.8
435.466	7504.1
435.673	7303.4
435.88	7739.62
436.087	8390.87
436.294	8196.31
436.501	7983.32
436.708	8134.87
436.915	8366.29
437.122	8816.85
437.329	8827.09
437.537	9142.47
437.743	9427.14
437.95	8968.4
438.157	9724.1
438.364	10045.63
438.571	9976
438.778	10006.72
438.985	10746.03
439.192	10668.21
439.399	10844.34
439.606	10344.63
439.813	11118.76
440.02	11749.54
440.227	11477.16
440.433	11522.21
440.64	11839.65
440.847	11778.21
441.054	12028.06
441.261	13045.9
441.467	12779.67
441.674	12910.74
441.881	13189.26
442.088	13340.81
442.294	13254.8
442.501	13738.12
442.708	13883.52
442.914	14469.24
443.121	15157.36
443.328	14899.31
443.534	15724.65
443.741	15200.37
443.948	14850.16
444.154	16328.8
444.361	16152.67
444.568	16189.53
444.774	15761.51
444.981	16324.7
445.187	16461.91
445.394	17430.6
445.6	17092.69
445.807	18845.75
446.013	17920.07
446.22	18292.8
446.426	19202.1
446.633	19062.83
446.839	19937.32
447.046	18966.58
447.252	20252.7
447.459	20221.98
447.665	20154.4
447.871	20891.67
448.078	21911.56
448.284	21032.98
448.491	21131.28
448.697	22052.87
448.903	22716.41
449.11	22949.88
449.316	22304.77
449.522	22640.64
449.728	23261.17
449.935	23664.62
450.141	23394.29
450.347	23908.33
450.553	23322.61
450.76	23658.48
450.966	24684.51
451.172	24276.96
451.378	24711.13
451.584	24049.64
451.791	25139.16
451.997	24745.95
452.203	25126.87
452.409	25184.21
452.615	25391.06
452.821	24213.48
453.027	24078.31
453.233	25341.91
453.44	24133.61
453.646	24334.31
453.852	24563.68
454.058	24895.45
454.264	24297.44
454.47	24905.69
454.676	23932.9
454.882	25075.67
455.088	22994.93
455.294	23246.83
455.5	23449.58
455.705	24004.58
455.911	23078.9
456.117	22337.54
456.323	22136.84
456.529	20998.16
456.735	21942.28
456.941	21424.14
457.147	21237.78
457.352	20578.33
457.558	20275.23
457.764	20394.01
457.97	20027.43
458.176	19650.6
458.381	19580.97
458.587	18237.5
458.793	18640.95
458.999	17592.39
459.204	18899
459.41	18497.6
459.616	17373.26
459.821	17303.63
460.027	17186.9
460.233	16916.56
460.438	16191.58
460.644	16261.21
460.85	15366.25
461.055	15061.1
461.261	15364.2
461.466	13904
461.672	13781.12
461.878	14565.5
462.083	13695.11
462.289	13273.23
462.494	13301.9
462.7	12750.99
462.905	12177.56
463.111	12888.21
463.316	12955.79
463.522	12470.42
463.727	12325.02
463.932	12525.72
464.138	12177.56
464.343	12474.52
464.549	12148.89
464.754	12152.99
464.959	12374.17
465.165	12269.72
465.37	11708.58
465.575	11325.61
465.781	11890.85
465.986	11847.84
466.191	11649.19
466.397	11276.46
466.602	10567.86
466.807	11296.94
467.012	11186.35
467.218	11198.63
467.423	10950.83
467.628	10961.07
467.833	11614.37
468.038	11094.19
468.244	10815.66
468.449	11079.85
468.654	10698.93
468.859	10633.4
469.064	10584.24
469.269	10158.27
469.474	10340.54
469.679	10504.37
469.885	10219.71
470.09	10367.16
470.295	10383.54
470.5	10098.88
470.705	10113.21
470.91	10006.72
471.115	9793.73
471.32	10076.35
471.525	10127.55
471.73	9638.08
471.935	9832.64
472.139	9242.82
472.344	9398.47
472.549	9320.65
472.754	9283.78
472.959	9183.43
473.164	8937.68
473.369	8689.87
473.574	9181.39
473.778	9027.79
473.983	8831.18
474.188	8872.14
474.393	8612.05
474.598	8607.95
474.802	8356.05
475.007	8235.22
475.212	8376.53
475.417	7958.75
475.621	7991.52
475.826	8179.93
476.031	7983.32
476.235	7827.68
476.44	8050.91
476.645	7774.43
476.849	7792.86
477.054	7756
477.259	7452.9
477.463	7586.02
477.668	7422.18
477.872	7506.15
478.077	7293.16
478.282	7110.89
478.486	7225.58
478.691	7147.75
478.895	7090.41
479.1	6973.67
479.304	7147.75
479.509	6736.11
479.713	6953.2
479.918	6713.58
480.122	6711.53
480.326	6920.43
480.531	6971.63
480.735	6564.08
480.94	6586.61
481.144	6838.51
481.348	6615.28
481.553	6744.3
481.757	6496.5
481.961	6535.41
482.166	6584.56
482.37	6496.5
482.574	6488.31
482.778	6506.74
482.983	6686.96
483.187	6590.7
483.391	6465.78
483.595	6629.62
483.8	6416.63
484.004	6572.27
484.208	6678.77
484.412	6607.09
484.616	6576.37
484.821	6586.61
485.025	6371.57
485.229	6566.13
485.433	6553.84
485.637	6465.78
485.841	6390
486.045	6340.85
486.249	6482.16
486.453	6373.62
486.657	6521.07
486.861	6349.04
487.065	6351.09
487.269	6334.71
487.473	6408.44
487.677	6635.76
487.881	6570.23
488.085	6416.63
488.289	6449.39
488.493	6586.61
488.697	6611.18
488.901	6594.8
489.105	6547.7
489.309	6605.04
489.512	6537.46
489.716	6480.11
489.92	6664.43
490.124	6584.56
490.328	6562.03
490.531	6736.11
490.735	6777.07
490.939	6768.88
491.143	6707.44
491.346	6664.43
491.55	6711.53
491.754	6842.6
491.958	6869.23
492.161	6861.04
492.365	6848.75
492.569	6727.92
492.772	6973.67
492.976	6963.44
493.18	6840.56
493.383	7127.27
493.587	7135.46
493.79	7145.7
493.994	7176.42
494.197	7078.12
494.401	7102.7
494.605	7168.23
494.808	7250.15
495.012	7332.07
495.215	7141.61
495.419	7504.1
495.622	7432.42
495.825	7481.57
496.029	7459.04
496.232	7629.02
496.436	7626.98
496.639	7956.7
496.843	7801.05
497.046	7880.93
497.249	8079.58
497.453	8028.38
497.656	8038.62
497.859	8077.53
498.063	8298.71
498.266	8427.73
498.469	8257.75
498.673	8368.34
498.876	8700.11
499.079	8765.65
499.282	8675.54
499.485	8945.87
499.689	8935.63
499.892	9236.68
500.095	9124.04
500.298	9359.56
500.501	9111.75
500.705	9507.01
500.908	9470.15
501.111	9740.48
501.314	9797.82
501.517	9685.19
501.72	9935.04
501.923	9828.54
502.126	10092.73
502.329	10379.45
502.532	10422.45
502.735	10545.33
502.938	10645.68
503.141	10584.24
503.344	10883.25
503.547	10625.2
503.75	11133.1
503.953	11319.46
504.156	11155.63
504.359	11284.65
504.562	11315.37
504.765	11743.39
504.968	11731.11
505.17	11862.18
505.373	11894.94
505.576	12132.51
505.779	12441.75
505.982	12368.02
506.185	12769.43
506.387	12443.8
506.59	12724.37
506.793	12873.87
506.996	12834.96
507.198	13428.87
507.401	13281.42
507.604	13371.53
507.807	13570.18
508.009	13740.16
508.212	13719.68
508.415	14037.12
508.617	14030.98
508.82	14286.97
509.022	14035.07
509.225	14639.22
509.428	14620.79
509.63	14657.65
509.833	15042.67
510.035	15339.63
510.238	14927.99
510.44	15325.29
510.643	15540.33
510.845	15777.89
511.048	15781.99
511.25	15906.91
511.453	16005.22
511.655	16670.81
511.858	15982.69
512.06	16527.45
512.262	16785.49
512.465	16500.83
512.667	17078.35
512.87	16951.38
513.072	17268.81
513.274	17369.16
513.477	17776.71
513.679	17821.77
513.881	17928.26
514.084	18034.75
514.286	18186.3
514.488	18092.1
514.69	18808.89
514.893	18612.28
515.095	18880.57
515.297	19142.71
515.499	18858.04
515.701	19423.28
515.904	19779.62
516.106	19914.79
516.308	20217.89
516.51	19914.79
516.712	20183.07
516.914	20334.62
517.116	20602.91
517.318	20707.35
517.52	21108.76
517.722	21037.08
517.925	21102.61
518.127	21522.44
518.329	21524.49
518.531	21370.9
518.733	22093.83
518.935	22120.45
519.136	21964.81
519.338	22448.13
519.54	22202.37
519.742	22669.31
519.944	22890.49
520.146	23363.57
520.348	23308.27
520.55	23435.25
520.752	23371.76
520.954	24074.21
521.155	23719.92
521.357	24199.14
521.559	24405.98
521.761	24440.8
521.963	24512.48
522.164	24629.21
522.366	25061.33
522.568	25167.83
522.77	24913.88
522.971	25440.21
523.173	25432.02
523.375	25599.95
523.576	25786.32
523.778	25528.27
523.98	26130.37
524.181	26120.13
524.383	26165.19
524.584	26437.57
524.786	26451.91
524.988	26468.29
525.189	26417.09
525.391	26845.12
525.592	26994.62
525.794	27101.11
525.995	27092.92
526.197	27019.19
526.398	27109.3
526.6	27811.76
526.801	27785.13
527.003	27664.3
527.204	27715.5
527.406	28188.58
527.607	27887.53
527.808	28256.17
528.01	27772.85
528.211	28487.59
528.412	28704.67
528.614	28420
528.815	28635.04
529.016	28778.4
529.218	28161.96
529.419	28528.55
529.62	28600.22
529.822	28616.61
530.023	28450.72
530.224	29050.78
530.425	28753.82
530.626	28364.71
530.828	28364.71
531.029	28950.43
531.23	28923.8
531.431	28776.35
531.632	29228.95
531.833	28995.48
532.035	29204.38
532.236	29263.77
532.437	29282.2
532.638	28891.04
532.839	29450.13
533.04	29157.27
533.241	28632.99
533.442	29501.33
533.643	29501.33
533.844	29190.04
534.045	29206.42
534.246	29562.77
534.447	29173.66
534.648	29390.74
534.849	29388.69
535.05	29061.02
535.251	29147.03
535.451	29368.21
535.652	29587.35
535.853	29040.54
536.054	29364.12
536.255	29257.62
536.456	29394.84
536.657	29691.79
536.857	29222.81
537.058	29147.03
537.259	29603.73
537.46	29194.14
537.66	29155.22
537.861	29476.76
538.062	29482.9
538.263	29487
538.463	28966.81
538.664	29319.06
538.865	29269.91
539.065	29276.05
539.266	29009.82
539.466	29376.41
539.667	29112.22
539.868	29616.02
540.068	28923.8
540.269	29396.88
540.469	29267.86
540.67	29087.64
540.87	28999.58
541.071	29110.17
541.271	29474.71
541.472	29382.55
541.672	29210.52
541.873	28872.6
542.073	28622.75
542.274	29147.03
542.474	29050.78
542.675	28805.02
542.875	29015.96
543.075	29198.23
543.276	28710.82
543.476	29288.34
543.676	29218.71
543.877	29159.32
544.077	28995.48
544.277	28934.04
544.478	29001.63
544.678	28860.32
544.878	28872.6
545.078	29001.63
545.279	28878.75
545.479	28839.84
545.679	28925.85
545.879	28929.95
546.079	29069.21
546.28	28981.15
546.48	28532.64
546.68	28903.32
546.88	28841.89
547.08	28880.8
547.28	28737.44
547.48	28350.37
547.68	28819.36
547.88	28723.1
548.081	28800.93
548.281	28923.8
548.481	28762.01
548.681	28944.28
548.881	28993.43
549.081	28805.02
549.28	28280.74
549.48	28794.78
549.68	28700.58
549.88	29306.77
550.08	28409.76
550.28	28919.71
550.48	28632.99
550.68	28794.78
550.88	28268.45
551.08	28766.11
551.279	28624.8
551.479	28288.93
551.679	28762.01
551.879	28426.15
552.079	28661.66
552.278	28030.89
552.478	28559.27
552.678	28358.56
552.878	28551.07
553.077	28366.76
553.277	28100.52
553.477	28702.62
553.676	28309.41
553.876	28344.23
554.076	28356.52
554.275	28168.1
554.475	27985.83
554.674	28612.51
554.874	28751.77
555.074	28137.38
555.273	28243.88
555.473	28239.78
555.672	28045.23
555.872	28141.48
556.071	28213.16
556.271	28458.92
556.47	28299.17
556.67	27901.87
556.869	28178.34
557.068	28026.79
557.268	28092.33
557.467	27989.93
557.667	27768.75
557.866	27533.23
558.065	27951.02
558.265	27682.73
558.464	27760.56
558.663	27991.98
558.863	27514.8
559.062	27959.21
559.261	27463.6
559.461	27848.62
559.66	27492.27
559.859	27590.58
560.058	27191.22
560.258	27762.61
560.457	27537.33
560.656	27559.86
560.855	27293.62
561.054	27826.09
561.253	26673.09
561.453	27252.66
561.652	26955.71
561.851	27418.55
562.05	27324.34
562.249	27187.13
562.448	27017.15
562.647	27078.58
562.846	27094.97
563.045	26793.92
563.244	26449.86
563.443	26974.14
563.642	26468.29
563.841	26589.12
564.04	26648.51
564.239	26939.32
564.438	26288.07
564.637	26613.7
564.836	26767.29
565.035	26333.12
565.234	26623.94
565.432	26464.19
565.631	26707.9
565.83	26636.22
566.029	26165.19
566.228	26181.57
566.427	26191.81
566.625	25898.95
566.824	25866.19
567.023	26171.33
567.222	25432.02
567.42	26292.16
567.619	25837.52
567.818	25909.19
568.016	25690.06
568.215	25642.96
568.414	25593.81
568.612	25597.9
568.811	25626.57
569.01	25292.76
569.208	25214.93
569.407	25391.06
569.605	25055.19
569.804	25421.78
570.002	25409.49
570.201	25096.15
570.4	25055.19
570.598	24934.36
570.797	24797.15
570.995	25020.38
571.193	24717.28
571.392	25268.18
571.59	24772.57
571.789	24797.15
571.987	24479.71
572.186	24522.72
572.384	24401.89
572.582	24340.45
572.781	24348.64
572.979	24487.9
573.177	24322.02
573.376	24451.04
573.574	24172.52
573.772	24399.84
573.971	24180.71
574.169	23816.17
574.367	23705.58
574.565	23951.34
574.763	23758.83
574.962	23818.22
575.16	23523.31
575.358	23609.33
575.556	23500.78
575.754	23691.24
575.952	23521.26
576.151	23941.1
576.349	23302.13
576.547	23021.56
576.745	23316.47
576.943	23289.84
577.141	23539.69
577.339	23289.84
577.537	22968.31
577.735	23148.53
577.933	22980.6
578.131	23160.82
578.329	22673.4
578.527	22493.18
578.725	22847.48
578.923	22872.06
579.121	22810.62
579.319	22685.69
579.516	22579.2
579.714	22378.5
579.912	22652.92
580.11	22349.82
580.308	22192.13
580.506	22153.22
580.704	21942.28
580.901	22132.74
581.099	22454.27
581.297	21852.17
581.495	22304.77
581.692	22061.06
581.89	21860.36
582.088	22026.25
582.285	21778.44
582.483	21835.78
582.681	21805.06
582.878	21700.62
583.076	21385.23
583.274	21245.97
583.471	21252.11
583.669	21213.2
583.866	21434.38
584.064	21432.33
584.262	21010.45
584.459	21063.7
584.657	21227.54
584.854	21200.91
585.052	20865.05
585.249	20901.91
585.447	21127.19
585.644	20359.2
585.841	20840.47
586.039	21055.51
586.236	20596.76
586.434	20678.68
586.631	20465.69
586.828	20574.24
587.026	20469.79
587.223	20492.32
587.42	20434.97
587.618	20400.16
587.815	20029.48
588.012	20092.96
588.21	20070.44
588.407	20351.01
588.604	19867.69
588.801	19675.18
588.999	20088.87
589.196	19736.62
589.393	19824.68
589.59	19753
589.787	19527.72
589.984	19609.64
590.182	19486.76
590.379	19632.17
590.576	19503.15
590.773	19497
590.97	19372.08
591.167	19456.04
591.364	19118.13
591.561	19206.19
591.758	19148.85
591.955	18966.58
592.152	19376.17
592.349	18989.11
592.546	18845.75
592.743	18964.53
592.94	18579.51
593.137	18647.1
593.334	18939.96
593.531	18595.9
593.727	18741.3
593.924	18720.82
594.121	18194.5
594.318	18651.19
594.515	18165.82
594.712	18485.31
594.908	18010.18
595.105	18034.75
595.302	18044.99
595.499	18233.41
595.696	18219.07
595.892	18145.34
596.089	18288.7
596.286	18061.38
596.482	17887.3
596.679	17866.82
596.876	17893.44
597.072	17696.84
597.269	17776.71
597.466	17588.3
597.662	17496.14
597.859	17629.26
598.055	17369.16
598.252	17526.86
598.448	17385.55
598.645	17244.24
598.841	16975.95
599.038	17332.3
599.234	17057.87
599.431	17129.55
599.627	17096.78
599.824	17137.74
600.02	16988.24
600.217	17074.26
600.413	17080.4
600.609	16812.12
600.806	16932.95
601.002	16756.82
601.198	16685.14
601.395	16455.77
601.591	16509.02
601.787	16369.76
601.984	16199.77
602.18	16580.7
602.376	16466.01
602.572	16164.96
602.769	16310.36
602.965	16144.48
603.161	16195.68
603.357	16132.19
603.553	16062.56
603.75	16140.38
603.946	15999.07
604.142	15841.38
604.338	15663.21
604.534	15933.54
604.73	15714.41
604.926	15538.28
605.122	15628.39
605.318	15657.06
605.514	15609.96
605.71	15368.3
605.906	15532.14
606.102	15632.49
606.298	15472.75
606.494	15509.61
606.69	15415.4
606.886	15298.67
607.082	15276.14
607.278	15167.6
607.474	15331.44
607.67	15042.67
607.866	15020.14
608.062	15296.62
608.257	15153.26
608.453	14821.49
608.649	15177.84
608.845	14897.27
609.041	14835.83
609.236	15102.06
609.432	14790.77
609.628	14641.27
609.824	14809.2
610.019	14741.62
610.215	14739.57
610.411	14876.79
610.606	14643.32
610.802	14610.55
610.998	14778.48
611.193	14624.89
611.389	14536.82
611.584	14518.39
611.78	14338.17
611.976	14362.75
612.171	14350.46
612.367	14332.03
612.562	14395.51
612.758	14076.03
612.953	14350.46
613.149	14295.16
613.344	14157.95
613.539	14344.31
613.735	14139.52
613.93	14305.4
614.126	14084.22
614.321	14178.43
614.517	14155.9
614.712	13893.76
614.907	13969.54
615.103	14198.91
615.298	14047.36
615.493	13951.1
615.688	13789.31
615.884	14190.72
616.079	13686.92
616.274	13789.31
616.47	13705.35
616.665	13742.21
616.86	13807.75
617.055	13576.33
617.25	13639.81
617.445	13770.88
617.641	13334.67
617.836	13688.96
618.031	13484.17
618.226	13762.69
618.421	13365.39
618.616	13582.47
618.811	13428.87
619.006	13576.33
619.201	13123.73
619.396	13463.69
619.591	12986.51
619.786	13166.73
619.981	12806.29
620.176	13082.77
620.371	12783.76
620.566	12955.79
620.761	13050
620.956	12804.24
621.151	12601.49
621.346	12828.82
621.541	12542.1
621.735	12556.44
621.93	12343.45
622.125	12490.9
622.32	12329.11
622.515	12353.69
622.709	12460.18
622.904	12322.97
623.099	12161.18
623.294	12157.08
623.488	12097.69
623.683	12175.52
623.878	11745.44
624.072	12071.07
624.267	11753.63
624.462	11700.39
624.656	11540.65
624.851	11946.14
625.046	11595.94
625.24	11341.99
625.435	11315.37
625.629	11350.18
625.824	11395.24
626.018	11147.44
626.213	11042.99
626.407	11126.96
626.602	11020.46
626.796	11116.72
626.991	10936.49
627.185	10774.7
627.38	10922.16
627.574	10750.13
627.768	10733.75
627.963	10557.62
628.157	10623.16
628.352	10672.31
628.546	10496.18
628.74	10471.61
628.935	10182.84
629.129	10275
629.323	10287.29
629.517	10234.04
629.712	10084.54
629.906	10117.31
630.1	9701.57
630.294	10100.92
630.489	9961.66
630.683	10094.78
630.877	9771.2
631.071	9824.45
631.265	9849.02
631.459	9595.07
631.653	9601.22
631.848	9552.07
632.042	9619.65
632.236	9566.4
632.43	9402.57
632.624	9504.96
632.818	9468.1
633.012	9306.31
633.206	9121.99
633.4	9126.09
633.594	8999.12
633.788	9132.23
633.982	9093.32
634.176	8962.25
634.369	8935.63
634.563	8812.75
634.757	8773.84
634.951	8831.18
635.145	9003.21
635.339	8835.28
635.533	8669.39
635.726	8544.47
635.92	8515.8
636.114	8573.14
636.308	8507.6
636.501	8644.82
636.695	8294.61
636.889	8364.25
637.083	8218.84
637.276	8343.77
637.47	8257.75
637.664	8257.75
637.857	8437.97
638.051	8014.04
638.244	8184.02
638.438	8098.01
638.632	8032.47
638.825	7938.27
639.019	7780.57
639.212	7854.3
639.406	7862.49
639.599	7864.54
639.793	7784.67
639.986	7702.75
640.18	7559.39
640.373	7483.62
640.567	7622.88
640.76	7717.09
640.954	7565.54
641.147	7307.49
641.34	7454.95
641.534	7358.69
641.727	7430.37
641.92	7364.84
642.114	7266.53
642.307	7221.48
642.5	7250.15
642.694	7024.87
642.887	7114.98
643.08	7201
643.273	7053.55
643.467	7086.31
643.66	6934.76
643.853	6914.28
644.046	6875.37
644.239	6777.07
644.432	6758.64
644.626	6746.35
644.819	6592.75
645.012	6732.01
645.205	6680.82
645.398	6824.17
645.591	6660.34
645.784	6570.23
645.977	6623.47
646.17	6506.74
646.363	6478.07
646.556	6404.34
646.749	6254.84
646.942	6355.19
647.135	6396.15
647.328	6293.75
647.521	6336.76
647.714	6285.56
647.907	6168.82
648.099	6152.44
648.292	6267.13
648.485	6136.06
648.678	5939.45
648.871	5955.83
649.064	6033.66
649.256	6156.54
649.449	5970.17
649.642	5800.19
649.835	5894.4
650.027	5626.11
650.22	5775.61
650.413	5900.54
650.605	5763.33
650.798	5685.5
650.991	5734.65
651.183	5712.13
651.376	5679.36
651.568	5671.17
651.761	5638.4
651.954	5554.43
652.146	5599.49
652.339	5523.71
652.531	5556.48
652.724	5439.75
652.916	5366.02
653.109	5361.92
653.301	5347.59
653.494	5347.59
653.686	5179.65
653.879	5286.15
654.071	5275.91
654.263	5222.66
654.456	5126.41
654.648	5216.52
654.84	5036.3
655.033	5046.54
655.225	5095.69
655.417	5007.62
655.61	5112.07
655.802	5007.62
655.994	5005.58
656.186	4851.98
656.379	4952.33
656.571	4901.13
656.763	4870.41
656.955	4763.92
657.148	4894.99
657.34	4849.93
657.532	4696.33
657.724	4860.17
657.916	4745.48
658.108	4763.92
658.3	4528.4
658.492	4702.48
658.684	4632.85
658.876	4614.41
659.068	4634.89
659.26	4456.72
659.452	4497.68
659.644	4426
659.836	4501.78
660.028	4436.24
660.22	4382.99
660.412	4448.53
660.604	4497.68
660.796	4219.16
660.988	4516.11
661.18	4333.84
661.372	4327.7
661.563	4321.56
661.755	4284.69
661.947	4399.38
662.139	4153.62
662.331	4129.05
662.522	4155.67
662.714	4186.39
662.906	4129.05
663.097	4151.57
663.289	4065.56
663.481	4137.24
663.673	4112.66
663.864	3995.93
664.056	4071.7
664.247	3944.73
664.439	3997.98
664.631	4022.55
664.822	3952.92
665.014	3877.15
665.205	3852.57
665.397	3944.73
665.588	4004.12
665.78	3862.81
665.971	3907.87
666.163	3895.58
666.354	3852.57
666.546	3735.84
666.737	3858.71
666.929	3678.49
667.12	3817.76
667.311	3766.56
667.503	3586.33
667.694	3834.14
667.885	3518.75
668.077	3754.27
668.268	3688.73
668.459	3631.39
668.651	3817.76
668.842	3672.35
669.033	3588.38
669.224	3604.77
669.416	3547.42
669.607	3451.17
669.798	3449.12
669.989	3547.42
670.18	3481.89
670.371	3481.89
670.563	3670.3
670.754	3604.77
670.945	3524.9
671.136	3340.58
671.327	3496.22
671.518	3326.24
671.709	3461.41
671.9	3309.86
672.091	3481.89
672.282	3313.95
672.473	3262.76
672.664	3342.63
672.855	3461.41
673.046	3338.53
673.237	3457.31
673.428	3287.33
673.619	3283.24
673.809	3305.76
674	3229.99
674.191	3229.99
674.382	3207.46
674.573	3295.52
674.764	3258.66
674.954	3275.04
675.145	3203.36
675.336	3342.63
675.527	3227.94
675.717	3055.91
675.908	3207.46
676.099	3189.03
676.289	3156.26
676.48	3252.52
676.671	3084.58
676.861	3158.31
677.052	3123.49
677.243	2998.57
677.433	3154.21
677.624	3154.21
677.814	3154.21
678.005	3096.87
678.195	3082.53
678.386	3076.39
678.576	3092.77
678.767	3029.29
678.957	3039.53
679.148	3166.5
679.338	3029.29
679.529	3105.06
679.719	3000.62
679.909	3041.57
680.1	2965.8
680.29	3123.49
680.481	2959.66
680.671	2955.56
680.861	2982.18
681.052	3019.05
681.242	2918.7
681.432	3021.1
681.622	3000.62
681.813	2951.46
682.003	2959.66
682.193	2842.92
682.383	2933.03
682.573	2951.46
682.764	2951.46
682.954	2998.57
683.144	2900.27
683.334	2986.28
683.524	3035.43
683.714	2859.31
683.904	2769.2
684.094	2961.7
684.284	2763.05
684.474	2857.26
684.664	2859.31
684.854	2830.63
685.044	2830.63
685.234	2814.25
685.424	2861.35
685.614	2785.58
685.804	2861.35
685.994	2887.98
686.184	2869.55
686.374	2722.09
686.564	2758.96
686.753	2736.43
686.943	2746.67
687.133	2617.65
687.323	2728.24
687.513	2732.33
687.702	2597.17
687.892	2666.8
688.082	2568.49
688.272	2707.76
688.461	2756.91
688.651	2744.62
688.841	2756.91
689.03	2500.91
689.22	2527.53
689.41	2605.36
689.599	2648.36
689.789	2560.3
689.979	2521.39
690.168	2482.48
690.358	2500.91
690.547	2517.29
690.737	2564.4
690.926	2552.11
691.116	2531.63
691.305	2572.59
691.495	2474.29
691.684	2378.03
691.874	2523.44
692.063	2369.84
692.252	2459.95
692.442	2355.51
692.631	2351.41
692.82	2318.64
693.01	2335.03
693.199	2367.79
693.388	2318.64
693.578	2216.24
693.767	2359.6
693.956	2380.08
694.146	2324.79
694.335	2240.82
694.524	2218.29
694.713	2220.34
694.902	2285.87
695.092	2261.3
695.281	2187.57
695.47	2179.38
695.659	2208.05
695.848	2134.32
696.037	2046.26
696.226	2163
696.415	2099.51
696.604	2197.81
696.793	2197.81
696.982	2208.05
697.171	2132.28
697.36	2130.23
697.549	2132.28
697.738	2058.55
697.927	2146.61
698.116	2099.51
698.305	2111.8
698.494	2056.5
698.683	1999.16
698.872	1978.68
699.061	2066.74
699.25	2074.93
699.438	1999.16
699.627	2076.98
699.816	2122.04
700.005	2173.24
700.193	2095.41
700.382	1993.01
700.571	2048.31
700.76	2017.59
700.948	1997.11
701.137	2140.47
701.326	1990.97
701.514	1982.78
701.703	1933.62
701.892	2050.36
702.08	2066.74
702.269	2009.4
702.457	1886.52
702.646	2042.17
702.834	1999.16
703.023	2056.5
703.212	1993.01
703.4	1982.78
703.589	1927.48
703.777	2040.12
703.965	1896.76
704.154	1950.01
704.342	1911.1
704.531	1960.25
704.719	1941.82
704.907	1902.9
705.096	1941.82
705.284	2027.83
705.472	2023.73
705.661	1962.3
705.849	1888.57
706.037	1935.67
706.226	2025.78
706.414	2021.69
706.602	1900.86
706.79	1884.47
706.979	2019.64
707.167	1976.63
707.355	1982.78
707.543	1888.57
707.731	2001.21
707.919	1925.43
708.107	1993.01
708.296	1911.1
708.484	1876.28
708.672	1839.42
708.86	1900.86
709.048	1866.04
709.236	1866.04
709.424	1769.79
709.612	1952.06
709.8	1984.82
709.988	1863.99
710.176	1847.61
710.364	1919.29
710.551	1909.05
710.739	1993.01
710.927	1923.38
711.115	1882.42
711.303	2072.89
711.491	1810.75
711.679	1841.47
711.866	1913.14
712.054	2015.54
712.242	1878.33
712.43	2011.45
712.617	1999.16
712.805	1999.16
712.993	2001.21
713.181	1786.17
713.368	1986.87
713.556	1917.24
713.744	1761.59
713.931	2050.36
714.119	1890.62
714.306	1909.05
714.494	1950.01
714.682	1868.09
714.869	1878.33
715.057	1911.1
715.244	1829.18
715.432	1984.82
715.619	1999.16
715.807	1941.82
715.994	2007.35
716.182	1935.67
716.369	1990.97
716.556	1990.97
716.744	1923.38
716.931	1888.57
717.119	2044.21
717.306	1950.01
717.493	1868.09
717.681	1855.8
717.868	1931.58
718.055	1884.47
718.242	1857.85
718.43	1915.19
718.617	1966.39
718.804	1976.63
718.991	1917.24
719.179	1909.05
719.366	1902.9
719.553	1990.97
719.74	2011.45
719.927	1868.09
720.114	1982.78
720.301	1976.63
720.488	1968.44
720.676	2027.83
720.863	1993.01
721.05	1945.91
721.237	2027.83
721.424	1978.68
721.611	2076.98
721.798	1911.1
721.985	1868.09
722.172	2036.02
722.358	1876.28
722.545	2058.55
722.732	1894.71
722.919	1986.87
723.106	2027.83
723.293	1929.53
723.48	1974.58
723.667	1945.91
723.853	2003.25
724.04	1927.48
724.227	1958.2
724.414	1919.29
724.6	2009.4
724.787	1958.2
724.974	2009.4
725.161	1943.86
725.347	1952.06
725.534	2031.93
725.72	2033.97
725.907	2097.46
726.094	2013.49
726.28	1943.86
726.467	1982.78
726.653	2033.97
726.84	2058.55
727.027	2083.13
727.213	1966.39
727.4	2062.65
727.586	1995.06
727.773	2140.47
727.959	2156.85
728.145	2076.98
728.332	2031.93
728.518	2154.8
728.705	2031.93
728.891	2064.69
729.077	2040.12
729.264	2048.31
729.45	2052.41
729.636	2105.65
729.823	2042.17
730.009	2087.22
730.195	2007.35
730.382	2031.93
730.568	2040.12
730.754	1947.96
730.94	2122.04
731.126	2070.84
731.313	2050.36
731.499	2023.73
731.685	2091.32
731.871	2079.03
732.057	2173.24
732.243	2089.27
732.429	2105.65
732.615	2115.89
732.801	2171.19
732.987	1986.87
733.173	2105.65
733.359	2130.23
733.545	2113.85
733.731	2007.35
733.917	2027.83
734.103	2179.38
734.289	2064.69
734.475	2007.35
734.661	2197.81
734.847	2005.3
735.033	2115.89
735.219	2081.08
735.404	2081.08
735.59	2093.37
735.776	2142.52
735.962	2124.08
736.148	2201.91
736.333	2130.23
736.519	2124.08
736.705	2074.93
736.89	2124.08
737.076	2074.93
737.262	2007.35
737.447	2072.89
737.633	2015.54
737.819	2140.47
738.004	1990.97
738.19	2046.26
738.375	2044.21
738.561	2015.54
738.747	2128.18
738.932	2058.55
739.118	2056.5
739.303	2081.08
739.489	1995.06
739.674	2081.08
739.859	2015.54
740.045	1990.97
740.23	2023.73
740.416	2062.65
740.601	2101.56
740.786	2038.07
740.972	1900.86
741.157	1972.54
741.342	1982.78
741.528	1980.73
741.713	2060.6
741.898	2003.25
742.084	1950.01
742.269	2031.93
742.454	1943.86
742.639	2064.69
742.824	1886.52
743.01	2081.08
743.195	1970.49
743.38	1984.82
743.565	1952.06
743.75	2040.12
743.935	1962.3
744.12	1974.58
744.305	1896.76
744.49	2011.45
744.675	1968.44
744.86	1884.47
745.045	1851.71
745.23	1931.58
745.415	1841.47
745.6	1894.71
745.785	1925.43
745.97	1909.05
746.155	1892.66
746.34	1859.9
746.525	1820.99
746.71	1937.72
746.895	1796.41
747.079	1749.31
747.264	1786.17
747.449	1712.44
747.634	1790.27
747.819	1829.18
748.003	1730.87
748.188	1745.21
748.373	1794.36
748.557	1847.61
748.742	1763.64
748.927	1646.91
749.111	1716.54
749.296	1638.72
749.481	1708.35
749.665	1671.48
749.85	1593.66
750.034	1687.87
750.219	1689.92
750.404	1610.04
750.588	1620.28
750.773	1589.57
750.957	1634.62
751.141	1616.19
751.326	1614.14
751.51	1616.19
751.695	1560.89
751.879	1634.62
752.064	1581.37
752.248	1587.52
752.432	1581.37
752.617	1552.7
752.801	1655.1
752.985	1605.95
753.17	1384.77
753.354	1372.48
753.538	1507.65
753.722	1468.73
753.907	1495.36
754.091	1392.96
754.275	1395.01
754.459	1352
754.643	1444.16
754.828	1388.86
755.012	1415.49
755.196	1384.77
755.38	1372.48
755.564	1321.28
755.748	1376.58
755.932	1294.66
756.116	1409.34
756.3	1218.88
756.484	1253.7
756.668	1386.82
756.852	1290.56
757.036	1352
757.22	1317.19
757.404	1321.28
757.588	1290.56
757.772	1327.43
757.956	1278.27
758.14	1384.77
758.323	1237.31
758.507	1179.97
758.691	1222.98
758.875	1251.65
759.059	1296.71
759.242	1130.82
759.426	1194.31
759.61	1173.83
759.794	1184.07
759.977	1159.49
760.161	1196.36
760.345	1175.88
760.528	1139.01
760.712	1179.97
760.895	1110.34
761.079	1110.34
761.263	1073.48
761.446	1145.16
761.63	1077.57
761.813	1212.74
761.997	1106.24
762.18	1057.09
762.364	1089.86
762.547	1026.37
762.731	1077.57
762.914	1147.2
763.098	1067.33
763.281	1024.33
763.464	1065.29
763.648	966.98
763.831	973.13
764.015	1050.95
764.198	1024.33
764.381	997.7
764.564	946.5
764.748	1044.81
764.931	1077.57
765.114	954.69
765.297	1024.33
765.481	971.08
765.664	1040.71
765.847	919.88
766.03	950.6
766.213	919.88
766.397	960.84
766.58	966.98
766.763	979.27
766.946	958.79
767.129	895.3
767.312	995.65
767.495	1009.99
767.678	891.21
767.861	909.64
768.044	885.06
768.227	926.02
768.41	991.56
768.593	856.39
768.776	901.45
768.959	893.26
769.142	995.65
769.324	944.45
769.507	870.73
769.69	868.68
769.873	930.12
770.056	905.54
770.239	979.27
770.421	887.11
770.604	921.93
770.787	856.39
770.97	835.91
771.152	897.35
771.335	897.35
771.518	844.1
771.7	938.31
771.883	889.16
772.066	835.91
772.248	854.34
772.431	825.67
772.613	917.83
772.796	827.72
772.978	854.34
773.161	915.78
773.343	835.91
773.526	840.01
773.708	723.27
773.891	794.95
774.073	758.09
774.256	786.76
774.438	844.1
774.621	706.89
774.803	784.71
774.985	733.51
775.168	708.94
775.35	745.8
775.532	696.65
775.715	797
775.897	725.32
776.079	688.46
776.261	727.37
776.444	692.55
776.626	756.04
776.808	698.7
776.99	622.92
777.173	733.51
777.355	635.21
777.537	713.03
777.719	676.17
777.901	700.75
778.083	614.73
778.265	557.39
778.447	723.27
778.629	561.48
778.811	596.3
778.993	704.84
779.175	729.42
779.357	606.54
779.539	516.43
779.721	594.25
779.903	586.06
780.085	532.81
780.267	612.68
780.449	655.69
780.631	592.2
780.812	586.06
780.994	579.92
781.176	608.59
781.358	559.44
781.54	491.85
781.721	567.63
781.903	624.97
782.085	508.24
782.267	586.06
782.448	516.43
782.63	459.09
782.812	526.67
782.993	512.33
783.175	551.24
783.357	543.05
783.538	541.01
783.72	483.66
783.901	532.81
784.083	442.7
784.264	518.48
784.446	454.99
784.627	461.13
784.809	528.72
784.99	385.36
785.172	450.89
785.353	487.76
785.535	360.78
785.716	498
785.897	403.79
786.079	510.29
786.26	491.85
786.441	354.64
786.623	342.35
786.804	446.8
786.985	438.61
787.167	487.76
787.348	440.65
787.529	379.22
787.71	483.66
787.891	446.8
788.073	424.27
788.254	479.57
788.435	379.22
788.616	442.7
788.797	344.4
788.978	387.41
789.159	454.99
789.34	352.59
789.522	364.88
789.703	397.65
789.884	379.22
790.065	426.32
790.246	409.94
790.427	295.25
790.607	430.41
790.788	483.66
790.969	332.11
791.15	397.65
791.331	276.82
791.512	377.17
791.693	368.98
791.874	338.26
792.054	420.17
792.235	276.82
792.416	319.82
792.597	364.88
792.778	336.21
792.958	328.02
793.139	354.64
793.32	319.82
793.5	393.55
793.681	387.41
793.862	414.03
794.042	321.87
794.223	287.06
794.404	297.3
794.584	248.15
794.765	377.17
794.945	336.21
795.126	315.73
795.306	264.53
795.487	297.3
795.667	313.68
795.848	301.39
796.028	264.53
796.209	338.26
796.389	319.82
796.57	252.24
796.75	205.14
796.93	233.81
797.111	246.1
797.291	328.02
797.471	274.77
797.652	289.1
797.832	270.67
798.012	287.06
798.192	242
798.373	209.23
798.553	231.76
798.733	303.44
798.913	254.29
799.093	239.95
799.274	289.1
799.454	291.15
799.634	217.43
799.814	285.01
799.994	274.77
800.174	225.62
800.354	239.95
800.534	246.1
800.714	323.92
800.894	254.29
801.074	217.43
801.254	158.03
801.434	237.91
801.614	209.23
801.794	239.95
801.974	844.1
802.154	301.39
802.334	239.95
802.514	160.08
802.693	188.75
802.873	229.71
803.053	305.49
803.233	209.23
803.413	196.95
803.592	272.72
803.772	209.23
803.952	137.56
804.131	209.23
804.311	221.52
804.491	252.24
804.67	188.75
804.85	213.33
805.03	239.95
805.209	229.71
805.389	180.56
805.568	278.87
805.748	178.51
805.928	227.67
806.107	192.85
806.287	205.14
806.466	155.99
806.646	258.39
806.825	174.42
807.004	246.1
807.184	158.03
807.363	237.91
807.543	217.43
807.722	153.94
807.901	201.04
808.081	182.61
808.26	98.64
808.439	266.58
808.619	147.8
808.798	158.03
808.977	205.14
809.156	248.15
809.336	254.29
809.515	287.06
809.694	188.75
809.873	192.85
810.052	139.6
810.231	213.33
810.411	135.51
810.59	205.14
810.769	250.19
810.948	207.19
811.127	106.84
811.306	158.03
811.485	127.32
811.664	198.99
811.843	164.18
812.022	231.76
812.201	143.7
812.38	162.13
812.559	164.18
812.737	127.32
812.916	104.79
813.095	141.65
813.274	164.18
813.453	182.61
813.632	143.7
813.811	276.82
813.989	121.17
814.168	151.89
814.347	123.22
814.526	143.7
814.704	182.61
814.883	172.37
815.062	139.6
815.24	246.1
815.419	205.14
815.598	205.14
815.776	90.45
815.955	188.75
816.133	100.69
816.312	205.14
816.49	98.64
816.669	166.23
816.847	139.6
817.026	270.67
817.204	155.99
817.383	94.55
817.561	143.7
817.74	121.17
817.918	160.08
818.097	164.18
818.275	127.32
818.453	131.41
818.632	180.56
818.81	112.98
818.988	151.89
819.167	102.74
819.345	147.8
819.523	172.37
819.701	108.88
819.879	82.26
820.058	123.22
820.236	164.18
820.414	112.98
820.592	86.36
820.77	176.47
820.948	127.32
821.127	135.51
821.305	123.22
821.483	76.12
821.661	125.27
821.839	190.8
822.017	166.23
822.195	215.38
822.373	155.99
822.551	147.8
822.729	162.13
822.907	88.4
823.085	227.67
823.262	147.8
823.44	59.73
823.618	76.12
823.796	100.69
823.974	143.7
824.152	90.45
824.329	123.22
824.507	104.79
824.685	125.27
824.863	121.17
825.04	108.88
825.218	164.18
825.396	61.78
825.574	51.54
825.751	123.22
825.929	108.88
826.107	63.83
826.284	131.41
826.462	131.41
826.639	-7.85
826.817	158.03
826.994	180.56
827.172	100.69
827.349	125.27
827.527	131.41
827.704	84.31
827.882	125.27
828.059	100.69
828.237	67.92
828.414	86.36
828.591	108.88
828.769	69.97
828.946	86.36
829.124	106.84
829.301	213.33
829.478	67.92
829.655	80.21
829.833	76.12
830.01	55.64
830.187	86.36
830.364	100.69
830.542	137.56
830.719	115.03
830.896	72.02
831.073	115.03
831.25	164.18
831.427	115.03
831.604	94.55
831.782	67.92
831.959	26.96
832.136	102.74
832.313	69.97
832.49	69.97
832.667	119.12
832.844	131.41
833.021	106.84
833.198	147.8
833.374	119.12
833.551	139.6
833.728	82.26
833.905	129.36
834.082	26.96
834.259	57.68
834.436	78.16
834.612	49.49
834.789	115.03
834.966	100.69
835.143	43.35
835.319	16.73
835.496	61.78
835.673	76.12
835.85	98.64
836.026	110.93
836.203	110.93
836.38	33.11
836.556	149.84
836.733	59.73
836.909	29.01
837.086	24.92
837.262	153.94
837.439	98.64
837.616	57.68
837.792	57.68
837.968	74.07
838.145	49.49
838.321	94.55
838.498	90.45
838.674	131.41
838.851	65.88
839.027	133.46
839.203	135.51
839.38	84.31
839.556	43.35
839.732	108.88
839.909	80.21
840.085	51.54
840.261	8.53
840.437	33.11
840.614	26.96
840.79	61.78
840.966	-7.85
841.142	49.49
841.318	49.49
841.494	76.12
841.671	84.31
841.847	41.3
842.023	104.79
842.199	108.88
842.375	41.3
842.551	82.26
842.727	-1.71
842.903	24.92
843.079	51.54
843.255	106.84
843.431	133.46
843.607	121.17
843.783	-5.8
843.959	24.92
844.134	80.21
844.31	174.42
844.486	84.31
844.662	67.92
844.838	14.68
845.013	133.46
845.189	74.07
845.365	41.3
845.541	110.93
845.716	67.92
845.892	76.12
846.068	6.49
846.244	47.44
846.419	33.11
846.595	37.2
846.77	29.01
846.946	78.16
847.122	-11.95
847.297	-5.8
847.473	123.22
847.648	22.87
847.824	59.73
847.999	98.64
848.175	76.12
848.35	43.35
848.526	69.97
848.701	106.84
848.876	123.22
849.052	65.88
849.227	106.84
849.403	90.45
849.578	84.31
849.753	24.92
849.929	29.01
850.104	39.25
850.279	98.64
850.454	43.35
850.63	147.8
850.805	57.68
850.98	84.31
851.155	-7.85
851.33	188.75
851.505	-22.19
851.681	117.08
851.856	78.16
852.031	92.5
852.206	2.39
852.381	94.55
852.556	53.59
852.731	12.63
852.906	41.3
853.081	41.3
853.256	35.16
853.431	35.16
853.606	0.34
853.781	2.39
853.956	26.96
854.131	41.3
854.305	49.49
854.48	51.54
854.655	67.92
854.83	47.44
855.005	8.53
855.18	35.16
855.354	0.34
855.529	59.73
855.704	69.97
855.879	125.27
856.053	-1.71
856.228	67.92
856.403	-32.43
856.577	37.2
856.752	80.21
856.926	29.01
857.101	51.54
857.276	78.16
857.45	39.25
857.625	26.96
857.799	47.44
857.974	22.87
858.148	0.34
858.323	-16.04
858.497	-30.38
858.672	61.78
858.846	76.12
859.02	69.97
859.195	59.73
859.369	69.97
859.543	80.21
859.718	74.07
859.892	-36.52
860.066	45.4
860.241	24.92
860.415	-30.38
860.589	65.88
860.763	47.44
860.938	24.92
861.112	106.84
861.286	76.12
861.46	90.45
861.634	90.45
861.808	76.12
861.982	90.45
862.157	45.4
862.331	-5.8
862.505	74.07
862.679	24.92
862.853	0.34
863.027	10.58
863.201	49.49
863.375	24.92
863.549	63.83
863.722	86.36
863.896	49.49
864.07	18.77
864.244	16.73
864.418	65.88
864.592	61.78
864.766	10.58
864.939	0.34
865.113	-28.33
865.287	67.92
865.461	49.49
865.634	43.35
865.808	8.53
865.982	-40.62
866.156	61.78
866.329	12.63
866.503	29.01
866.676	123.22
866.85	8.53
867.024	80.21
867.197	57.68
867.371	65.88
867.544	-16.04
867.718	12.63
867.891	12.63
868.065	-48.81
868.238	-22.19
868.412	33.11
868.585	-28.33
868.759	45.4
868.932	92.5
869.105	16.73
869.279	18.77
869.452	-40.62
869.625	35.16
869.799	37.2
869.972	29.01
870.145	16.73
870.319	74.07
870.492	69.97
870.665	55.64
870.838	10.58
871.011	12.63
871.185	10.58
871.358	-3.75
871.531	0.34
871.704	-24.23
871.877	43.35
872.05	0.34
872.223	-22.19
872.396	29.01
872.569	-7.85
872.742	29.01
872.915	8.53
873.088	10.58
873.261	26.96
873.434	0.34
873.607	51.54
873.78	67.92
873.953	16.73
874.126	8.53
874.299	53.59
874.471	47.44
874.644	33.11
874.817	33.11
874.99	90.45
875.163	49.49
875.335	59.73
875.508	24.92
875.681	88.4
875.853	-18.09
876.026	18.77
876.199	37.2
876.371	41.3
876.544	-24.23
876.717	29.01
876.889	-24.23
877.062	41.3
877.234	-11.95
877.407	16.73
877.579	26.96
877.752	26.96
877.924	100.69
878.097	51.54
878.269	-34.47
878.442	22.87
878.614	59.73
878.786	84.31
878.959	61.78
879.131	12.63
879.303	14.68
879.476	-9.9
879.648	49.49
879.82	57.68
879.993	10.58
880.165	-20.14
880.337	65.88
880.509	8.53
880.681	63.83
880.854	2.39
881.026	35.16
881.198	43.35
881.37	18.77
881.542	35.16
881.714	65.88
881.886	24.92
882.058	24.92
882.23	76.12
882.402	-54.95
882.574	-16.04
882.746	49.49
882.918	49.49
883.09	39.25
883.262	33.11
883.434	31.06
883.606	49.49
883.778	24.92
883.95	14.68
884.122	-20.14
884.293	2.39
884.465	-3.75
884.637	4.44
884.809	2.39
884.98	80.21
885.152	-24.23
885.324	22.87
885.496	-50.86
885.667	51.54
885.839	2.39
886.011	57.68
886.182	53.59
886.354	24.92
886.525	-5.8
886.697	74.07
886.869	57.68
887.04	-11.95
887.212	61.78
887.383	8.53
887.555	39.25
887.726	16.73
887.897	-65.19
888.069	61.78
888.24	0.34
888.412	-9.9
888.583	10.58
888.754	12.63
888.926	24.92
889.097	49.49
889.268	-30.38
889.44	41.3
889.611	2.39
889.782	-52.91
889.953	-13.99
890.125	65.88
890.296	10.58
890.467	-48.81
890.638	16.73
890.809	41.3
890.98	-5.8
891.151	53.59
891.323	74.07
891.494	51.54
891.665	35.16
891.836	35.16
892.007	0.34
892.178	65.88
892.349	33.11
892.52	110.93
892.691	-48.81
892.862	47.44
893.032	12.63
893.203	57.68
893.374	16.73
893.545	65.88
893.716	57.68
893.887	-57
894.057	61.78
894.228	16.73
894.399	47.44
894.57	49.49
894.74	67.92
894.911	-40.62
895.082	41.3
895.253	-44.71
895.423	-20.14
895.594	39.25
895.764	18.77
895.935	8.53
896.106	12.63
896.276	-32.43
896.447	8.53
896.617	74.07
896.788	-40.62
896.958	-24.23
897.129	-5.8
897.299	-13.99
897.47	33.11
897.64	-22.19
897.81	49.49
897.981	49.49
898.151	0.34
898.322	16.73
898.492	37.2
898.662	8.53
898.832	53.59
899.003	37.2
899.173	123.22
899.343	-38.57
899.513	18.77
