Data from USB4F104151__268__14-46-06-179.txt Node

Date: Thu Mar 13 14:46:06 EDT 2025
User: louis
Spectrometer: USB4F10415
Trigger mode: 4
Integration Time (sec): 2.000000E-2
Scans to average: 1
Electric dark correction enabled: true
Nonlinearity correction enabled: false
Boxcar width: 0
XAxis mode: Wavelengths
Number of Pixels in Spectrum: 3648
>>>>>Begin Spectral Data<<<<<
178.204	-83.63
178.424	-83.63
178.644	-83.63
178.864	-124.58
179.084	-32.43
179.304	-18.09
179.524	0.34
179.744	35.16
179.964	-22.19
180.184	-54.95
180.404	16.73
180.624	47.44
180.844	47.44
181.064	-50.86
181.283	51.54
181.503	-42.67
181.723	-9.9
181.943	14.68
182.163	63.83
182.383	6.49
182.602	-30.38
182.822	-52.91
183.042	41.3
183.262	0.34
183.482	76.12
183.701	33.11
183.921	-22.19
184.141	-67.24
184.361	24.92
184.58	-22.19
184.8	31.06
185.02	-50.86
185.239	2.39
185.459	-13.99
185.679	-18.09
185.898	-18.09
186.118	82.26
186.338	-16.04
186.557	55.64
186.777	-81.58
186.997	96.6
187.216	-34.47
187.436	51.54
187.655	20.82
187.875	-18.09
188.095	57.68
188.314	0.34
188.534	37.2
188.753	47.44
188.973	-16.04
189.192	69.97
189.412	31.06
189.631	-9.9
189.851	14.68
190.07	10.58
190.29	-38.57
190.509	37.2
190.729	49.49
190.948	100.69
191.168	92.5
191.387	8.53
191.607	47.44
191.826	-7.85
192.045	31.06
192.265	57.68
192.484	-40.62
192.704	49.49
192.923	-108.2
193.142	39.25
193.362	22.87
193.581	33.11
193.8	-1.71
194.02	12.63
194.239	65.88
194.458	104.79
194.678	39.25
194.897	-22.19
195.116	4.44
195.335	-20.14
195.555	-26.28
195.774	106.84
195.993	-9.9
196.212	-34.47
196.432	-30.38
196.651	-26.28
196.87	-38.57
197.089	108.88
197.308	-20.14
197.528	41.3
197.747	-1.71
197.966	47.44
198.185	108.88
198.404	47.44
198.623	47.44
198.842	112.98
199.062	102.74
199.281	8.53
199.5	49.49
199.719	104.79
199.938	39.25
200.157	123.22
200.376	72.02
200.595	35.16
200.814	0.34
201.033	10.58
201.252	-1.71
201.471	-13.99
201.69	18.77
201.909	31.06
202.128	14.68
202.347	51.54
202.566	8.53
202.785	80.21
203.004	-11.95
203.223	88.4
203.442	22.87
203.661	2.39
203.879	14.68
204.098	39.25
204.317	-13.99
204.536	123.22
204.755	-54.95
204.974	31.06
205.193	-7.85
205.411	59.73
205.63	26.96
205.849	-22.19
206.068	16.73
206.287	47.44
206.505	65.88
206.724	80.21
206.943	8.53
207.162	16.73
207.381	-13.99
207.599	72.02
207.818	98.64
208.037	41.3
208.255	14.68
208.474	63.83
208.693	22.87
208.911	29.01
209.13	22.87
209.349	18.77
209.567	6.49
209.786	76.12
210.005	24.92
210.223	26.96
210.442	-30.38
210.661	-34.47
210.879	14.68
211.098	41.3
211.316	-44.71
211.535	-18.09
211.753	-42.67
211.972	72.02
212.191	33.11
212.409	55.64
212.628	55.64
212.846	35.16
213.065	104.79
213.283	96.6
213.502	-24.23
213.72	65.88
213.938	-9.9
214.157	26.96
214.375	37.2
214.594	-71.34
214.812	55.64
215.031	69.97
215.249	53.59
215.467	18.77
215.686	18.77
215.904	51.54
216.122	-52.91
216.341	35.16
216.559	14.68
216.778	63.83
216.996	51.54
217.214	24.92
217.432	10.58
217.651	47.44
217.869	29.01
218.087	0.34
218.306	96.6
218.524	-26.28
218.742	-5.8
218.96	45.4
219.179	4.44
219.397	-9.9
219.615	74.07
219.833	59.73
220.051	-83.63
220.27	90.45
220.488	-18.09
220.706	-9.9
220.924	6.49
221.142	37.2
221.36	18.77
221.578	88.4
221.796	55.64
222.015	8.53
222.233	-30.38
222.451	119.12
222.669	-42.67
222.887	26.96
223.105	22.87
223.323	45.4
223.541	14.68
223.759	14.68
223.977	-9.9
224.195	45.4
224.413	53.59
224.631	49.49
224.849	6.49
225.067	100.69
225.285	14.68
225.503	0.34
225.721	0.34
225.939	2.39
226.157	22.87
226.375	131.41
226.592	22.87
226.81	80.21
227.028	72.02
227.246	-26.28
227.464	33.11
227.682	22.87
227.9	117.08
228.117	22.87
228.335	43.35
228.553	-3.75
228.771	37.2
228.989	6.49
229.206	37.2
229.424	-18.09
229.642	-9.9
229.86	-13.99
230.077	47.44
230.295	82.26
230.513	123.22
230.731	33.11
230.948	158.03
231.166	39.25
231.384	31.06
231.601	47.44
231.819	88.4
232.037	-9.9
232.254	6.49
232.472	125.27
232.689	-26.28
232.907	63.83
233.125	35.16
233.342	-34.47
233.56	72.02
233.777	-63.15
233.995	2.39
234.213	63.83
234.43	20.82
234.648	18.77
234.865	14.68
235.083	22.87
235.3	0.34
235.518	55.64
235.735	53.59
235.953	47.44
236.17	35.16
236.388	53.59
236.605	2.39
236.822	59.73
237.04	26.96
237.257	-40.62
237.475	0.34
237.692	59.73
237.909	47.44
238.127	-5.8
238.344	-3.75
238.562	125.27
238.779	-38.57
238.996	-7.85
239.214	63.83
239.431	47.44
239.648	6.49
239.865	100.69
240.083	33.11
240.3	39.25
240.517	63.83
240.735	-16.04
240.952	47.44
241.169	104.79
241.386	37.2
241.603	-18.09
241.821	-1.71
242.038	55.64
242.255	-13.99
242.472	14.68
242.689	63.83
242.907	96.6
243.124	41.3
243.341	-32.43
243.558	49.49
243.775	-7.85
243.992	-42.67
244.209	16.73
244.426	67.92
244.643	16.73
244.86	-9.9
245.078	-18.09
245.295	0.34
245.512	14.68
245.729	4.44
245.946	104.79
246.163	43.35
246.38	14.68
246.597	55.64
246.814	51.54
247.031	0.34
247.248	-1.71
247.464	24.92
247.681	39.25
247.898	47.44
248.115	74.07
248.332	39.25
248.549	31.06
248.766	72.02
248.983	59.73
249.2	-13.99
249.417	-54.95
249.633	-7.85
249.85	59.73
250.067	22.87
250.284	63.83
250.501	-38.57
250.717	24.92
250.934	6.49
251.151	16.73
251.368	24.92
251.585	-7.85
251.801	22.87
252.018	6.49
252.235	65.88
252.451	-42.67
252.668	-22.19
252.885	74.07
253.102	-42.67
253.318	80.21
253.535	22.87
253.752	51.54
253.968	18.77
254.185	31.06
254.401	18.77
254.618	47.44
254.835	67.92
255.051	67.92
255.268	14.68
255.484	59.73
255.701	16.73
255.917	55.64
256.134	8.53
256.351	-57
256.567	-50.86
256.784	88.4
257	-1.71
257.217	35.16
257.433	12.63
257.65	-16.04
257.866	24.92
258.082	22.87
258.299	-32.43
258.515	63.83
258.732	10.58
258.948	8.53
259.165	22.87
259.381	-26.28
259.597	-18.09
259.814	29.01
260.03	29.01
260.246	0.34
260.463	-9.9
260.679	90.45
260.895	22.87
261.112	55.64
261.328	-26.28
261.544	14.68
261.761	88.4
261.977	-69.29
262.193	-34.47
262.409	-9.9
262.626	-32.43
262.842	55.64
263.058	-34.47
263.274	104.79
263.49	-1.71
263.707	-75.43
263.923	16.73
264.139	-1.71
264.355	45.4
264.571	16.73
264.787	49.49
265.004	55.64
265.22	0.34
265.436	-5.8
265.652	-24.23
265.868	88.4
266.084	-38.57
266.3	55.64
266.516	0.34
266.732	41.3
266.948	26.96
267.164	31.06
267.38	92.5
267.596	14.68
267.812	112.98
268.028	43.35
268.244	41.3
268.46	35.16
268.676	4.44
268.892	104.79
269.108	22.87
269.324	33.11
269.54	-5.8
269.756	47.44
269.972	-32.43
270.188	29.01
270.403	-3.75
270.619	63.83
270.835	-7.85
271.051	-11.95
271.267	-9.9
271.483	-7.85
271.698	39.25
271.914	72.02
272.13	22.87
272.346	33.11
272.562	12.63
272.777	39.25
272.993	55.64
273.209	22.87
273.425	57.68
273.64	24.92
273.856	2.39
274.072	-20.14
274.287	88.4
274.503	33.11
274.719	61.78
274.934	47.44
275.15	-22.19
275.366	31.06
275.581	-38.57
275.797	-54.95
276.012	26.96
276.228	-83.63
276.444	49.49
276.659	96.6
276.875	14.68
277.09	59.73
277.306	10.58
277.521	55.64
277.737	-18.09
277.952	61.78
278.168	24.92
278.383	55.64
278.599	41.3
278.814	33.11
279.03	20.82
279.245	39.25
279.461	45.4
279.676	63.83
279.892	-1.71
280.107	-9.9
280.322	26.96
280.538	63.83
280.753	22.87
280.969	49.49
281.184	18.77
281.399	39.25
281.615	14.68
281.83	4.44
282.045	-18.09
282.26	10.58
282.476	22.87
282.691	117.08
282.906	26.96
283.122	49.49
283.337	47.44
283.552	72.02
283.767	2.39
283.983	80.21
284.198	31.06
284.413	14.68
284.628	22.87
284.843	98.64
285.058	-16.04
285.274	14.68
285.489	-24.23
285.704	82.26
285.919	51.54
286.134	-3.75
286.349	119.12
286.564	49.49
286.779	18.77
286.995	49.49
287.21	24.92
287.425	55.64
287.64	6.49
287.855	0.34
288.07	-54.95
288.285	24.92
288.5	10.58
288.715	8.53
288.93	10.58
289.145	39.25
289.36	55.64
289.575	-32.43
289.79	141.65
290.004	47.44
290.219	-5.8
290.434	47.44
290.649	-3.75
290.864	2.39
291.079	22.87
291.294	96.6
291.509	-40.62
291.724	22.87
291.938	-34.47
292.153	55.64
292.368	-26.28
292.583	57.68
292.798	39.25
293.012	88.4
293.227	57.68
293.442	67.92
293.657	41.3
293.871	39.25
294.086	6.49
294.301	115.03
294.516	47.44
294.73	72.02
294.945	-32.43
295.16	-18.09
295.374	35.16
295.589	121.17
295.804	-100.01
296.018	-28.33
296.233	49.49
296.447	31.06
296.662	24.92
296.877	90.45
297.091	0.34
297.306	-50.86
297.52	80.21
297.735	-9.9
297.949	-9.9
298.164	69.97
298.378	22.87
298.593	26.96
298.807	35.16
299.022	-28.33
299.236	-1.71
299.451	57.68
299.665	24.92
299.88	6.49
300.094	80.21
300.309	63.83
300.523	51.54
300.737	-30.38
300.952	8.53
301.166	31.06
301.381	2.39
301.595	0.34
301.809	49.49
302.024	-26.28
302.238	6.49
302.452	18.77
302.667	-18.09
302.881	51.54
303.095	31.06
303.309	8.53
303.524	-13.99
303.738	39.25
303.952	-7.85
304.166	49.49
304.381	-77.48
304.595	41.3
304.809	35.16
305.023	8.53
305.237	-11.95
305.452	57.68
305.666	10.58
305.88	57.68
306.094	31.06
306.308	88.4
306.522	37.2
306.736	-71.34
306.95	41.3
307.164	59.73
307.379	14.68
307.593	31.06
307.807	47.44
308.021	90.45
308.235	18.77
308.449	-24.23
308.663	-1.71
308.877	49.49
309.091	14.68
309.305	112.98
309.519	8.53
309.733	2.39
309.947	55.64
310.161	41.3
310.374	2.39
310.588	57.68
310.802	-36.52
311.016	55.64
311.23	72.02
311.444	-28.33
311.658	-7.85
311.872	129.36
312.085	37.2
312.299	20.82
312.513	12.63
312.727	69.97
312.941	35.16
313.154	41.3
313.368	72.02
313.582	96.6
313.796	31.06
314.009	31.06
314.223	6.49
314.437	-5.8
314.651	63.83
314.864	14.68
315.078	59.73
315.292	47.44
315.505	100.69
315.719	29.01
315.933	41.3
316.146	26.96
316.36	22.87
316.573	67.92
316.787	39.25
317.001	47.44
317.214	-46.76
317.428	63.83
317.641	-5.8
317.855	31.06
318.068	-7.85
318.282	-26.28
318.495	82.26
318.709	-24.23
318.922	-9.9
319.136	74.07
319.349	86.36
319.563	72.02
319.776	49.49
319.99	-22.19
320.203	88.4
320.417	6.49
320.63	8.53
320.843	-32.43
321.057	14.68
321.27	53.59
321.483	-5.8
321.697	-5.8
321.91	-16.04
322.124	49.49
322.337	39.25
322.55	-1.71
322.763	76.12
322.977	31.06
323.19	6.49
323.403	10.58
323.617	41.3
323.83	24.92
324.043	47.44
324.256	35.16
324.469	74.07
324.683	67.92
324.896	24.92
325.109	2.39
325.322	-18.09
325.535	88.4
325.748	24.92
325.962	49.49
326.175	63.83
326.388	121.17
326.601	55.64
326.814	59.73
327.027	-9.9
327.24	55.64
327.453	16.73
327.666	55.64
327.879	-13.99
328.092	82.26
328.305	6.49
328.518	51.54
328.731	-30.38
328.944	22.87
329.157	72.02
329.37	-34.47
329.583	22.87
329.796	31.06
330.009	31.06
330.222	8.53
330.435	0.34
330.648	-18.09
330.861	16.73
331.073	45.4
331.286	112.98
331.499	53.59
331.712	45.4
331.925	-9.9
332.138	47.44
332.35	65.88
332.563	49.49
332.776	22.87
332.989	-42.67
333.202	10.58
333.414	63.83
333.627	-26.28
333.84	14.68
334.053	-5.8
334.265	41.3
334.478	2.39
334.691	67.92
334.903	57.68
335.116	-46.76
335.329	72.02
335.541	94.55
335.754	110.93
335.966	33.11
336.179	63.83
336.392	22.87
336.604	41.3
336.817	8.53
337.029	2.39
337.242	45.4
337.454	37.2
337.667	-7.85
337.88	37.2
338.092	10.58
338.305	31.06
338.517	-9.9
338.729	18.77
338.942	112.98
339.154	65.88
339.367	-16.04
339.579	49.49
339.792	-16.04
340.004	47.44
340.217	96.6
340.429	76.12
340.641	-50.86
340.854	41.3
341.066	65.88
341.278	63.83
341.491	39.25
341.703	10.58
341.915	43.35
342.128	55.64
342.34	67.92
342.552	47.44
342.764	24.92
342.977	6.49
343.189	-7.85
343.401	47.44
343.613	-9.9
343.826	31.06
344.038	-73.39
344.25	41.3
344.462	6.49
344.674	29.01
344.886	-16.04
345.099	35.16
345.311	26.96
345.523	22.87
345.735	-30.38
345.947	100.69
346.159	0.34
346.371	96.6
346.583	-5.8
346.795	72.02
347.007	18.77
347.219	67.92
347.431	-13.99
347.643	31.06
347.855	6.49
348.067	43.35
348.279	39.25
348.491	35.16
348.703	8.53
348.915	39.25
349.127	80.21
349.339	6.49
349.551	57.68
349.763	8.53
349.975	65.88
350.187	35.16
350.399	0.34
350.61	63.83
350.822	2.39
351.034	43.35
351.246	57.68
351.458	49.49
351.669	74.07
351.881	63.83
352.093	153.94
352.305	41.3
352.517	29.01
352.728	37.2
352.94	24.92
353.152	84.31
353.363	-18.09
353.575	33.11
353.787	96.6
353.999	-32.43
354.21	57.68
354.422	6.49
354.633	112.98
354.845	90.45
355.057	37.2
355.268	2.39
355.48	45.4
355.692	-9.9
355.903	69.97
356.115	16.73
356.326	-54.95
356.538	90.45
356.749	51.54
356.961	72.02
357.172	35.16
357.384	-18.09
357.595	33.11
357.807	49.49
358.018	-50.86
358.23	59.73
358.441	72.02
358.653	20.82
358.864	72.02
359.075	20.82
359.287	-5.8
359.498	108.88
359.709	43.35
359.921	22.87
360.132	47.44
360.344	8.53
360.555	8.53
360.766	-9.9
360.977	-26.28
361.189	22.87
361.4	41.3
361.611	106.84
361.823	129.36
362.034	72.02
362.245	39.25
362.456	31.06
362.667	31.06
362.879	-9.9
363.09	41.3
363.301	57.68
363.512	16.73
363.723	22.87
363.935	26.96
364.146	2.39
364.357	47.44
364.568	-50.86
364.779	76.12
364.99	8.53
365.201	47.44
365.412	106.84
365.623	4.44
365.834	41.3
366.045	35.16
366.256	41.3
366.467	33.11
366.678	39.25
366.889	80.21
367.1	63.83
367.311	26.96
367.522	72.02
367.733	37.2
367.944	12.63
368.155	24.92
368.366	92.5
368.577	153.94
368.788	100.69
368.999	-26.28
369.209	49.49
369.42	147.8
369.631	35.16
369.842	76.12
370.053	2.39
370.264	63.83
370.474	6.49
370.685	-5.8
370.896	55.64
371.107	84.31
371.317	-9.9
371.528	-16.04
371.739	16.73
371.95	8.53
372.16	47.44
372.371	35.16
372.582	6.49
372.792	2.39
373.003	-16.04
373.214	39.25
373.424	31.06
373.635	29.01
373.846	35.16
374.056	-28.33
374.267	106.84
374.477	49.49
374.688	-34.47
374.898	143.7
375.109	6.49
375.319	84.31
375.53	137.56
375.74	67.92
375.951	82.26
376.161	76.12
376.372	72.02
376.582	-26.28
376.793	80.21
377.003	22.87
377.214	16.73
377.424	35.16
377.635	33.11
377.845	31.06
378.055	92.5
378.266	0.34
378.476	63.83
378.686	86.36
378.897	-1.71
379.107	72.02
379.317	43.35
379.528	63.83
379.738	78.16
379.948	22.87
380.158	4.44
380.369	86.36
380.579	88.4
380.789	35.16
380.999	14.68
381.21	6.49
381.42	98.64
381.63	49.49
381.84	31.06
382.05	26.96
382.261	88.4
382.471	-26.28
382.681	41.3
382.891	41.3
383.101	-11.95
383.311	20.82
383.521	-7.85
383.731	115.03
383.941	6.49
384.151	18.77
384.361	78.16
384.571	43.35
384.781	31.06
384.991	72.02
385.201	90.45
385.411	41.3
385.621	80.21
385.831	24.92
386.041	39.25
386.251	6.49
386.461	47.44
386.671	76.12
386.881	76.12
387.091	106.84
387.301	106.84
387.511	61.78
387.72	53.59
387.93	63.83
388.14	6.49
388.35	100.69
388.56	104.79
388.769	57.68
388.979	67.92
389.189	112.98
389.399	55.64
389.609	104.79
389.818	51.54
390.028	6.49
390.238	41.3
390.447	6.49
390.657	8.53
390.867	57.68
391.076	33.11
391.286	100.69
391.496	72.02
391.705	55.64
391.915	74.07
392.125	33.11
392.334	47.44
392.544	57.68
392.753	80.21
392.963	84.31
393.172	86.36
393.382	0.34
393.591	88.4
393.801	45.4
394.01	162.13
394.22	35.16
394.429	41.3
394.639	55.64
394.848	55.64
395.058	55.64
395.267	55.64
395.477	37.2
395.686	33.11
395.895	100.69
396.105	211.28
396.314	47.44
396.524	96.6
396.733	88.4
396.942	63.83
397.152	117.08
397.361	47.44
397.57	-9.9
397.78	74.07
397.989	98.64
398.198	98.64
398.407	92.5
398.617	22.87
398.826	39.25
399.035	125.27
399.244	82.26
399.453	170.32
399.663	96.6
399.872	55.64
400.081	-1.71
400.29	72.02
400.499	10.58
400.708	112.98
400.917	86.36
401.127	63.83
401.336	14.68
401.545	92.5
401.754	133.46
401.963	80.21
402.172	74.07
402.381	72.02
402.59	170.32
402.799	102.74
403.008	108.88
403.217	98.64
403.426	76.12
403.635	-18.09
403.844	72.02
404.053	100.69
404.262	96.6
404.471	162.13
404.68	84.31
404.888	110.93
405.097	117.08
405.306	133.46
405.515	112.98
405.724	190.8
405.933	145.75
406.142	170.32
406.35	137.56
406.559	151.89
406.768	178.51
406.977	188.75
407.185	155.99
407.394	219.47
407.603	131.41
407.812	190.8
408.02	184.66
408.229	178.51
408.438	182.61
408.646	147.8
408.855	282.96
409.064	178.51
409.272	176.47
409.481	276.82
409.69	178.51
409.898	207.19
410.107	203.09
410.315	219.47
410.524	266.58
410.733	311.63
410.941	264.53
411.15	280.91
411.358	231.76
411.567	356.69
411.775	301.39
411.984	323.92
412.192	366.93
412.401	313.68
412.609	371.02
412.818	481.61
413.026	426.32
413.234	409.94
413.443	489.81
413.651	426.32
413.86	375.12
414.068	465.23
414.276	485.71
414.485	498
414.693	547.15
414.901	575.82
415.11	571.72
415.318	514.38
415.526	594.25
415.734	541.01
415.943	608.59
416.151	702.79
416.359	635.21
416.567	612.68
416.776	647.5
416.984	803.15
417.192	756.04
417.4	645.45
417.608	831.82
417.817	792.91
418.025	866.63
418.233	909.64
418.441	786.76
418.649	854.34
418.857	928.07
419.065	1016.13
419.273	983.37
419.481	1009.99
419.689	1046.85
419.897	1071.43
420.105	1118.53
420.313	1227.07
420.521	1245.51
420.729	1235.27
420.937	1259.84
421.145	1415.49
421.353	1419.58
421.561	1466.69
421.769	1515.84
421.977	1534.27
422.185	1515.84
422.393	1687.87
422.601	1710.4
422.809	1874.23
423.017	1730.87
423.224	1857.85
423.432	1851.71
423.64	1874.23
423.848	2038.07
424.056	1952.06
424.263	2103.61
424.471	2193.72
424.679	2226.48
424.887	2294.07
425.094	2400.56
425.302	2515.25
425.51	2459.95
425.718	2545.97
425.925	2648.36
426.133	2722.09
426.341	2853.16
426.548	2933.03
426.756	2965.8
426.964	3021.1
427.171	3121.45
427.379	3258.66
427.586	3213.6
427.794	3373.35
428.001	3545.38
428.209	3784.99
428.417	3576.09
428.624	3799.32
428.832	4038.94
429.039	3907.87
429.247	3801.37
429.454	4174.1
429.662	4374.8
429.869	4268.31
430.076	4585.74
430.284	4481.3
430.491	4464.91
430.699	4790.54
430.906	4927.75
431.114	4929.8
431.321	5038.34
431.528	5204.23
431.736	5593.34
431.943	5810.43
432.15	5497.09
432.358	5581.06
432.565	5871.87
432.772	5953.79
432.979	6258.93
433.187	6363.38
433.394	6275.32
433.601	6908.14
433.808	6881.52
434.016	6873.32
434.223	7147.75
434.43	7622.88
434.637	7358.69
434.844	7829.73
435.052	7971.04
435.259	7903.45
435.466	7932.12
435.673	7913.69
435.88	8630.48
436.087	8902.86
436.294	8958.16
436.501	8777.94
436.708	8820.94
436.915	9195.72
437.122	9478.34
437.329	9281.74
437.537	9926.85
437.743	10027.2
437.95	9924.8
438.157	10485.94
438.364	11083.95
438.571	10672.31
438.778	10961.07
438.985	11663.52
439.192	11434.15
439.399	11720.87
439.606	11462.82
439.813	12136.6
440.02	12920.98
440.227	12585.11
440.433	12531.86
440.64	12867.73
440.847	12601.49
441.054	13019.28
441.261	13867.14
441.467	13781.12
441.674	14139.52
441.881	14698.61
442.088	14342.27
442.294	14487.67
442.501	14747.76
442.708	15102.06
442.914	15859.81
443.121	16418.91
443.328	15751.27
443.534	17004.63
443.741	16679
443.948	16185.44
444.154	17672.26
444.361	17317.97
444.568	17485.9
444.774	17586.25
444.981	17784.9
445.187	18352.19
445.394	19095.6
445.6	18626.62
445.807	21047.32
446.013	19658.79
446.22	20328.48
446.426	20779.03
446.633	20875.29
446.839	21350.42
447.046	20752.41
447.252	22009.86
447.459	22042.63
447.665	21960.71
447.871	23095.28
448.078	23820.27
448.284	22669.31
448.491	23410.67
448.697	24477.66
448.903	24721.37
449.11	24854.49
449.316	24668.12
449.522	24985.56
449.728	25728.97
449.935	25669.58
450.141	25489.36
450.347	26425.28
450.553	25671.63
450.76	26107.85
450.966	26988.47
451.172	26589.12
451.378	27170.74
451.584	26564.54
451.791	27447.22
451.997	27195.32
452.203	27883.44
452.409	27959.21
452.615	27903.92
452.821	26814.4
453.027	26296.26
453.233	28090.28
453.44	26787.77
453.646	27127.74
453.852	27107.26
454.058	27801.52
454.264	26982.33
454.47	27678.64
454.676	26603.46
454.882	27740.08
455.088	25253.84
455.294	26025.93
455.5	26095.56
455.705	26488.77
455.911	25464.78
456.117	24936.41
456.323	24682.46
456.529	23459.82
456.735	24461.28
456.941	23791.59
457.147	23390.19
457.352	22910.97
457.558	22550.53
457.764	22405.12
457.97	22130.69
458.176	21612.56
458.381	21768.2
458.587	20748.31
458.793	20736.02
458.999	19281.97
459.204	21237.78
459.41	20176.93
459.616	19273.78
459.821	19058.74
460.027	19357.74
460.233	18872.37
460.438	17948.74
460.644	17832.01
460.85	17145.94
461.055	16963.67
461.261	16971.86
461.466	15599.72
461.672	15231.08
461.878	16373.85
462.083	15288.43
462.289	14852.21
462.494	14727.28
462.7	14043.26
462.905	13760.64
463.111	14350.46
463.316	14258.3
463.522	13987.97
463.727	13985.92
463.932	14190.72
464.138	13658.24
464.343	14061.69
464.549	13447.3
464.754	13965.44
464.959	13738.12
465.165	13633.67
465.37	13201.55
465.575	12888.21
465.781	13170.83
465.986	13533.32
466.191	12888.21
466.397	12740.75
466.602	12081.31
466.807	12523.67
467.012	12456.09
467.218	12359.83
467.423	12245.15
467.628	12458.14
467.833	12923.02
468.038	12345.5
468.244	11968.67
468.449	12624.02
468.654	12099.74
468.859	12142.75
469.064	11772.07
469.269	11710.63
469.474	11720.87
469.679	11896.99
469.885	11671.72
470.09	11677.86
470.295	11608.23
470.5	11270.31
470.705	11493.54
470.91	11358.38
471.115	11053.23
471.32	11135.15
471.525	11247.79
471.73	10746.03
471.935	10739.89
472.139	10379.45
472.344	10762.42
472.549	10606.77
472.754	10457.27
472.959	10330.3
473.164	9849.02
473.369	9689.28
473.574	10227.9
473.778	10123.45
473.983	9713.86
474.188	9904.32
474.393	9486.53
474.598	9558.21
474.802	9586.88
475.007	9558.21
475.212	9500.87
475.417	8990.92
475.621	9107.66
475.826	9265.35
476.031	9248.97
476.235	8884.43
476.44	8775.89
476.645	8681.68
476.849	8712.4
477.054	8751.31
477.259	8581.33
477.463	8571.09
477.668	8145.11
477.872	8485.08
478.077	8374.49
478.282	8071.39
478.486	7971.04
478.691	8169.69
478.895	7932.12
479.1	8005.85
479.304	7887.07
479.509	7651.55
479.713	7870.69
479.918	7667.94
480.122	7532.77
480.326	7887.07
480.531	7756
480.735	7694.56
480.94	7364.84
481.144	7604.45
481.348	7289.06
481.553	7364.84
481.757	7416.04
481.961	7375.08
482.166	7397.6
482.37	7411.94
482.574	7104.74
482.778	7223.53
482.983	7493.86
483.187	7403.75
483.391	7418.08
483.595	7266.53
483.8	7192.81
484.004	7178.47
484.208	7489.76
484.412	7299.3
484.616	7340.26
484.821	7295.21
485.025	7041.26
485.229	7360.74
485.433	7297.25
485.637	7282.92
485.841	7219.43
486.045	7207.14
486.249	7330.02
486.453	7207.14
486.657	7411.94
486.861	7375.08
487.065	7176.42
487.269	6971.63
487.473	6988.01
487.677	7268.58
487.881	7506.15
488.085	7381.22
488.289	7362.79
488.493	7358.69
488.697	7438.56
488.901	7528.67
489.105	7346.41
489.309	7461.09
489.512	7340.26
489.716	7473.38
489.92	7403.75
490.124	7493.86
490.328	7594.21
490.531	7344.36
490.735	7590.11
490.939	7575.78
491.143	7561.44
491.346	7567.59
491.55	7680.22
491.754	7649.5
491.958	7637.22
492.161	7680.22
492.365	7612.64
492.569	7674.08
492.772	7731.42
492.976	7848.16
493.18	7782.62
493.383	8026.33
493.587	8175.83
493.79	8186.07
493.994	8100.06
494.197	8116.44
494.401	8050.91
494.605	8237.27
494.808	8319.19
495.012	8468.69
495.215	8415.44
495.419	8370.39
495.622	8483.03
495.825	8456.4
496.029	8548.56
496.232	8759.5
496.436	8632.53
496.639	9025.74
496.843	8929.49
497.046	8960.2
497.249	9124.04
497.453	9255.11
497.656	9461.96
497.859	9488.58
498.063	9406.66
498.266	9599.17
498.469	9412.81
498.673	9871.55
498.876	9793.73
499.079	10002.62
499.282	10025.15
499.485	10332.34
499.689	10125.5
499.892	10377.4
500.095	10500.28
500.298	10709.17
500.501	10637.49
500.705	10942.64
500.908	10983.6
501.111	11141.29
501.314	11210.92
501.517	11442.34
501.72	11548.84
501.923	11485.35
502.126	11747.49
502.329	11907.23
502.532	11987.1
502.735	11985.05
502.938	12226.71
503.141	12128.41
503.344	12540.05
503.547	12484.76
503.75	12593.3
503.953	13058.19
504.156	12849.3
504.359	13168.78
504.562	13549.7
504.765	13678.72
504.968	13703.3
505.17	13904
505.373	13764.74
505.576	14133.37
505.779	14235.77
505.982	14493.82
506.185	14669.94
506.387	15007.86
506.59	14776.44
506.793	15188.08
506.996	14841.97
507.198	15452.27
507.401	15364.2
507.604	15493.22
507.807	15804.52
508.009	15845.48
508.212	16418.91
508.415	16535.64
508.617	16408.67
508.82	16590.94
509.022	16398.43
509.225	17299.53
509.428	17094.74
509.63	17160.27
509.833	17100.88
510.035	18028.61
510.238	17756.23
510.44	18182.21
510.643	18335.81
510.845	18376.76
511.048	18477.12
511.25	18587.71
511.453	18874.42
511.655	19458.09
511.858	19277.87
512.06	19597.35
512.262	19632.17
512.465	19820.58
512.667	19882.02
512.87	20080.67
513.072	20158.5
513.274	20860.95
513.477	21108.76
513.679	20940.82
513.881	21303.31
514.084	21282.83
514.286	21395.47
514.488	21487.63
514.69	22347.78
514.893	22181.89
515.095	22358.02
515.297	22738.94
515.499	22759.42
515.701	22822.91
515.904	23300.08
516.106	23590.89
516.308	23795.69
516.51	23953.38
516.712	24119.27
516.914	23953.38
517.116	24422.37
517.318	24616.93
517.52	24842.2
517.722	24811.48
517.925	25366.48
518.127	25647.05
518.329	25583.57
518.531	25833.42
518.733	26261.44
518.935	26380.23
519.136	26515.39
519.338	27006.91
519.54	26939.32
519.742	27365.3
519.944	27453.36
520.146	27928.49
520.348	28090.28
520.55	28010.41
520.752	27760.56
520.954	28868.51
521.155	28417.96
521.357	29038.49
521.559	29308.82
521.761	29392.79
521.963	29448.08
522.164	29507.48
522.366	29699.98
522.568	30269.32
522.77	29917.07
522.971	30719.87
523.173	30613.38
523.375	30617.47
523.576	30685.06
523.778	30889.85
523.98	31160.19
524.181	31262.58
524.383	31860.59
524.584	31852.4
524.786	31608.69
524.988	31760.24
525.189	32446.31
525.391	32667.49
525.592	32739.17
525.794	32571.24
525.995	32704.35
526.197	32956.25
526.398	33185.63
526.6	33285.98
526.801	33505.11
527.003	33539.93
527.204	33742.67
527.406	33998.67
527.607	33462.1
527.808	33806.16
528.01	33804.11
528.211	33998.67
528.412	34711.36
528.614	34469.7
528.815	34301.77
529.016	34735.94
529.218	34379.59
529.419	35084.09
529.62	34803.52
529.822	34572.1
530.023	35051.33
530.224	34840.39
530.425	34748.23
530.626	34729.8
530.828	34680.64
531.029	35358.52
531.23	34989.89
531.431	34752.32
531.632	34998.08
531.833	34963.26
532.035	35323.71
532.236	35350.33
532.437	35579.7
532.638	35249.98
532.839	35520.31
533.04	35612.47
533.241	35045.18
533.442	36089.65
533.643	35757.88
533.844	35747.64
534.045	35692.34
534.246	35671.86
534.447	35948.34
534.648	35483.45
534.849	35817.27
535.05	35350.33
535.251	35940.14
535.451	35555.13
535.652	35917.62
535.853	35751.73
536.054	35379
536.255	35577.65
536.456	35661.62
536.657	35913.52
536.857	35528.5
537.058	35598.13
537.259	36190
537.46	35608.37
537.66	35557.17
537.861	35551.03
538.062	35598.13
538.263	36032.3
538.463	35874.61
538.664	35800.88
538.865	35522.36
539.065	35839.79
539.266	35419.96
539.466	35778.36
539.667	35315.51
539.868	35866.42
540.068	35528.5
540.269	35616.57
540.469	35860.27
540.67	35286.84
540.87	35727.16
541.071	35532.6
541.271	35569.46
541.472	35426.1
541.672	35290.94
541.873	35596.09
542.073	35149.63
542.274	35751.73
542.474	35755.83
542.675	35104.57
542.875	35737.4
543.075	35190.59
543.276	35118.91
543.476	36007.73
543.676	35510.07
543.877	35764.02
544.077	35399.48
544.277	35725.11
544.478	35256.12
544.678	35784.5
544.878	35442.49
545.078	35403.58
545.279	35342.14
545.479	35548.98
545.679	35436.34
545.879	35452.73
546.079	35366.71
546.28	35307.32
546.48	35456.82
546.68	35366.71
546.88	35481.4
547.08	35385.15
547.28	35428.15
547.48	35260.22
547.68	35532.6
547.88	35108.67
548.081	35467.06
548.281	35704.63
548.481	35082.05
548.681	35182.4
548.881	35241.79
549.081	35391.29
549.28	35098.43
549.48	35645.24
549.68	35290.94
549.88	35721.01
550.08	35176.25
550.28	35209.02
550.48	35086.14
550.68	35135.29
550.88	35067.71
551.08	34867.01
551.279	35329.85
551.479	34748.23
551.679	35469.11
551.879	34922.3
552.079	34889.54
552.278	35120.96
552.478	35094.33
552.678	34570.05
552.878	35127.1
553.077	35077.95
553.277	34924.35
553.477	35651.38
553.676	34940.74
553.876	35084.09
554.076	34688.84
554.275	34705.22
554.475	34559.81
554.674	34727.75
554.874	35063.61
555.074	34754.37
555.273	34983.74
555.473	34901.82
555.672	34428.74
555.872	34967.36
556.071	34447.18
556.271	34770.75
556.47	34375.5
556.67	34340.68
556.869	34625.35
557.068	34758.47
557.268	34232.14
557.467	34400.07
557.667	34219.85
557.866	34481.99
558.065	34264.91
558.265	34037.58
558.464	33955.66
558.663	34305.87
558.863	33787.73
559.062	34402.12
559.261	34037.58
559.461	34350.92
559.66	33611.6
559.859	33654.61
560.058	33482.58
560.258	33480.53
560.457	33627.99
560.656	33949.52
560.855	33472.34
561.054	33793.87
561.253	33539.93
561.453	33619.8
561.652	33701.72
561.851	33892.18
562.05	33361.75
562.249	33245.02
562.448	33802.07
562.647	33701.72
562.846	33113.95
563.045	33326.94
563.244	33050.46
563.443	33410.9
563.642	33058.65
563.841	32978.78
564.04	33122.14
564.239	33369.94
564.438	32704.35
564.637	32661.35
564.836	33083.23
565.035	32296.81
565.234	32755.55
565.432	32464.74
565.631	32345.96
565.83	32341.86
566.029	32757.6
566.228	32335.72
566.427	32337.77
566.625	32364.39
566.824	32096.11
567.023	32225.13
567.222	31494
567.42	32034.67
567.619	32008.04
567.818	31960.94
568.016	31530.87
568.215	31801.2
568.414	31555.44
568.612	31870.83
568.811	31639.41
569.01	31696.75
569.208	31336.31
569.407	31569.78
569.605	31139.71
569.804	31346.55
570.002	31154.04
570.201	31494
570.4	31342.46
570.598	30961.53
570.797	30596.99
570.995	30758.78
571.193	30463.88
571.392	30887.81
571.59	30529.41
571.789	30685.06
571.987	30570.37
572.186	30445.44
572.384	30230.41
572.582	30154.63
572.781	30041.99
572.979	30007.18
573.177	30097.29
573.376	30302.09
573.574	29749.14
573.772	29808.53
573.971	29781.9
574.169	29575.06
574.367	29628.31
574.565	29685.65
574.763	29437.84
574.962	29765.52
575.16	29042.59
575.358	29327.25
575.556	29167.51
575.754	29534.1
575.952	29353.88
576.151	29568.91
576.349	28987.29
576.547	29138.84
576.745	28776.35
576.943	28934.04
577.141	28721.06
577.339	28819.36
577.537	28688.29
577.735	28643.23
577.933	28114.86
578.131	28774.3
578.329	28223.4
578.527	27877.29
578.725	28639.14
578.923	28366.76
579.121	28016.55
579.319	27834.28
579.516	28358.56
579.714	28034.99
579.912	27822
580.11	27543.47
580.308	27518.9
580.506	27398.07
580.704	27142.07
580.901	27400.12
581.099	27371.44
581.297	26812.35
581.495	27211.7
581.692	26976.19
581.89	26814.4
582.088	27273.14
582.285	26714.05
582.483	27017.15
582.681	26970.04
582.878	26546.11
583.076	26273.73
583.274	26740.67
583.471	26023.88
583.669	26558.4
583.866	26269.64
584.064	26429.38
584.262	25958.35
584.459	26378.18
584.657	26148.81
584.854	26134.47
585.052	25714.64
585.249	25855.95
585.447	26042.31
585.644	25651.15
585.841	25810.89
586.039	25665.49
586.236	25475.02
586.434	25466.83
586.631	25540.56
586.828	25462.74
587.026	25364.43
587.223	25309.14
587.42	24889.31
587.618	25090.01
587.815	24537.05
588.012	25106.39
588.21	24592.35
588.407	24932.31
588.604	24700.89
588.801	24510.43
588.999	24614.88
589.196	24315.87
589.393	24676.32
589.59	24733.66
589.787	24690.65
589.984	24072.17
590.182	23797.74
590.379	24385.51
590.576	23838.7
590.773	24174.56
590.97	23660.52
591.167	23877.61
591.364	23969.77
591.561	23893.99
591.758	23611.37
591.955	23715.82
592.152	23738.35
592.349	23347.19
592.546	23658.48
592.743	23402.48
592.94	22947.83
593.137	23384.05
593.334	23289.84
593.531	22994.93
593.727	23158.77
593.924	22847.48
594.121	22609.92
594.318	22958.07
594.515	22648.83
594.712	22937.59
594.908	22722.55
595.105	22779.9
595.302	22263.81
595.499	22298.63
595.696	22360.06
595.892	21948.42
596.089	22341.63
596.286	22345.73
596.482	22005.77
596.679	22038.53
596.876	22173.7
597.072	21798.92
597.269	22190.08
597.466	21987.33
597.662	21925.89
597.859	21825.54
598.055	21413.9
598.252	21407.76
598.448	21555.21
598.645	21481.49
598.841	21268.5
599.038	21288.98
599.234	21147.67
599.431	21139.47
599.627	21323.79
599.824	21164.05
600.02	20985.88
600.217	20944.92
600.413	20983.83
600.609	20688.92
600.806	20576.28
601.002	21094.42
601.198	20414.49
601.395	20549.66
601.591	20330.53
601.787	20305.95
601.984	20574.24
602.18	20412.45
602.376	20109.35
602.572	20203.55
602.769	19896.36
602.965	20064.29
603.161	19984.42
603.357	19761.19
603.553	19730.47
603.75	19904.55
603.946	19529.77
604.142	20092.96
604.338	19230.77
604.534	19521.58
604.73	19587.11
604.926	19499.05
605.122	19628.07
605.318	19333.17
605.514	19277.87
605.71	19204.14
605.906	19009.59
606.102	18894.9
606.298	19048.5
606.494	19134.51
606.69	18821.17
606.886	19038.26
607.082	18518.07
607.278	18636.86
607.474	18368.57
607.67	18872.37
607.866	18579.51
608.062	18604.09
608.257	18358.33
608.453	18399.29
608.649	18575.42
608.845	18204.74
609.041	18241.6
609.236	18339.9
609.432	18409.53
609.628	18413.63
609.824	18315.33
610.019	18184.26
610.215	18333.76
610.411	18444.35
610.606	17903.68
610.802	18112.58
610.998	18153.54
611.193	17942.6
611.389	18004.03
611.584	17686.6
611.78	17774.66
611.976	17918.02
612.171	17963.08
612.367	17819.72
612.562	17604.68
612.758	17457.23
612.953	17694.79
613.149	17801.29
613.344	17655.88
613.539	17610.82
613.735	17479.75
613.93	17467.47
614.126	17119.31
614.321	17578.06
614.517	17444.94
614.712	17504.33
614.907	17125.46
615.103	17215.57
615.298	16857.17
615.493	17021.01
615.688	17037.39
615.884	17119.31
616.079	16797.78
616.274	17193.04
616.47	17143.89
616.665	17064.02
616.86	16951.38
617.055	16660.57
617.25	16435.29
617.445	16978
617.641	16623.7
617.836	16615.51
618.031	16367.71
618.226	16697.43
618.421	16562.26
618.616	16791.64
618.811	16097.38
619.006	16488.54
619.201	15943.78
619.396	16504.92
619.591	15792.23
619.786	16220.25
619.981	15941.73
620.176	16119.9
620.371	15814.76
620.566	15972.45
620.761	15718.5
620.956	15880.29
621.151	15665.25
621.346	15738.98
621.541	15372.39
621.735	15609.96
621.93	15366.25
622.125	15212.65
622.32	15251.56
622.515	15138.93
622.709	14979.18
622.904	14948.47
623.099	14893.17
623.294	14889.07
623.488	14637.17
623.683	14696.57
623.878	14610.55
624.072	14616.69
624.267	14450.81
624.462	14418.04
624.656	14155.9
624.851	14172.29
625.046	14157.95
625.24	14133.37
625.435	13883.52
625.629	13944.96
625.824	13801.6
626.018	13879.43
626.213	13467.78
626.407	13648.01
626.602	13531.27
626.796	13396.1
626.991	13303.95
627.185	13269.13
627.38	13392.01
627.574	13074.57
627.768	13246.6
627.963	12939.41
628.157	12654.74
628.352	12941.46
628.546	12748.95
628.74	12834.96
628.935	12628.12
629.129	12662.93
629.323	12634.26
629.517	12556.44
629.712	12423.32
629.906	12525.72
630.1	12095.64
630.294	12241.05
630.489	12034.21
630.683	12152.99
630.877	12001.44
631.071	11960.48
631.265	11837.6
631.459	11845.79
631.653	11874.46
631.848	11853.98
632.042	11739.3
632.236	11620.52
632.43	11444.39
632.624	11790.5
632.818	11559.08
633.012	11112.62
633.206	11311.27
633.4	11196.59
633.594	11108.52
633.788	11114.67
633.982	11260.07
634.176	11075.76
634.369	10780.85
634.563	10815.66
634.757	10811.57
634.951	10907.82
635.145	10842.29
635.339	10627.25
635.533	10772.66
635.726	10606.77
635.92	10455.22
636.114	10619.06
636.308	10580.15
636.501	10307.77
636.695	10346.68
636.889	10258.62
637.083	10115.26
637.276	9883.84
637.47	10043.58
637.664	10090.68
637.857	10014.91
638.051	10000.57
638.244	9902.27
638.438	9769.15
638.632	9918.65
638.825	9431.24
639.019	9552.07
639.212	9781.44
639.406	9662.66
639.599	9472.2
639.793	9832.64
639.986	9275.59
640.18	9265.35
640.373	9222.34
640.567	9322.7
640.76	9197.77
640.954	9109.71
641.147	9029.84
641.34	8952.01
641.534	9146.57
641.727	8947.92
641.92	8984.78
642.114	8870.09
642.307	8696.02
642.5	8843.47
642.694	8583.38
642.887	8624.34
643.08	8591.57
643.273	8440.02
643.467	8532.18
643.66	8587.47
643.853	8472.79
644.046	8349.91
644.239	8487.12
644.432	8323.29
644.626	8141.02
644.819	8231.13
645.012	8319.19
645.205	8304.85
645.398	8046.81
645.591	7872.73
645.784	8042.71
645.977	7962.84
646.17	7756
646.363	7876.83
646.556	7801.05
646.749	7764.19
646.942	7776.48
647.135	7715.04
647.328	7956.7
647.521	7600.35
647.714	7553.25
647.907	7557.35
648.099	7510.24
648.292	7467.24
648.485	7338.21
648.678	7309.54
648.871	7362.79
649.064	7274.73
649.256	7280.87
649.449	7207.14
649.642	7147.75
649.835	7059.69
650.027	7004.39
650.22	7067.88
650.413	7002.35
650.605	7084.27
650.798	7033.07
650.991	6842.6
651.183	6881.52
651.376	6805.74
651.568	6904.04
651.761	6682.86
651.954	6684.91
652.146	6660.34
652.339	6748.4
652.531	6498.55
652.724	6387.96
652.916	6510.83
653.109	6592.75
653.301	6559.99
653.494	6547.7
653.686	6465.78
653.879	6584.56
654.071	6256.89
654.263	6250.74
654.456	6191.35
654.648	6203.64
654.84	6306.04
655.033	6062.33
655.225	6047.99
655.417	6168.82
655.61	6023.42
655.802	6023.42
655.994	5945.59
656.186	6027.51
656.379	5880.06
656.571	5892.35
656.763	5693.69
656.955	5777.66
657.148	5820.67
657.34	5861.63
657.532	5628.16
657.724	5695.74
657.916	5714.17
658.108	5601.54
658.3	5728.51
658.492	5560.58
658.684	5411.07
658.876	5505.28
659.068	5492.99
659.26	5333.25
659.452	5513.47
659.644	5425.41
659.836	5366.02
660.028	5384.45
660.22	5230.85
660.412	5347.59
660.604	5040.39
660.796	5243.14
660.988	5312.77
661.18	4974.86
661.372	5060.87
661.563	5189.89
661.755	5073.16
661.947	4882.7
662.139	4925.71
662.331	5015.82
662.522	4931.85
662.714	4864.27
662.906	4761.87
663.097	4839.69
663.289	4665.61
663.481	4780.3
663.673	4825.36
663.864	4747.53
664.056	4643.09
664.247	4630.8
664.439	4612.37
664.631	4643.09
664.822	4626.7
665.014	4636.94
665.205	4350.23
665.397	4622.61
665.588	4454.67
665.78	4477.2
665.971	4417.81
666.163	4450.58
666.354	4413.71
666.546	4405.52
666.737	4233.49
666.929	4426
667.12	4524.3
667.311	4325.65
667.503	4233.49
667.694	4200.73
667.885	4036.89
668.077	4108.57
668.268	4253.97
668.459	4374.8
668.651	4075.8
668.842	3983.64
669.033	4057.37
669.224	4073.75
669.416	3975.45
669.607	4018.46
669.798	3965.21
669.989	3987.74
670.18	4024.6
670.371	4071.7
670.563	3981.59
670.754	3948.83
670.945	3848.47
671.136	3856.67
671.327	3873.05
671.518	3932.44
671.709	3778.84
671.9	3813.66
672.091	3682.59
672.282	3791.13
672.473	3629.34
672.664	3873.05
672.855	3696.92
673.046	3692.83
673.237	3883.29
673.428	3539.23
673.619	3561.76
673.809	3555.62
674	3612.96
674.191	3750.17
674.382	3485.98
674.573	3555.62
674.764	3561.76
674.954	3660.06
675.145	3457.31
675.336	3528.99
675.527	3463.46
675.717	3461.41
675.908	3504.42
676.099	3455.26
676.289	3447.07
676.48	3447.07
676.671	3483.94
676.861	3332.39
677.052	3416.35
677.243	3371.3
677.433	3258.66
677.624	3498.27
677.814	3414.31
678.005	3316
678.195	3457.31
678.386	3119.4
678.576	3307.81
678.767	3254.56
678.957	3197.22
679.148	3352.87
679.338	3297.57
679.529	3330.34
679.719	3268.9
679.909	3299.62
680.1	3260.71
680.29	3090.73
680.481	3148.07
680.671	3227.94
680.861	3211.56
681.052	3176.74
681.242	3240.23
681.432	3123.49
681.622	3127.59
681.813	3111.21
682.003	3086.63
682.193	3275.04
682.383	3197.22
682.573	3127.59
682.764	3021.1
682.954	3135.78
683.144	3062.05
683.334	2988.33
683.524	3156.26
683.714	3017
683.904	3006.76
684.094	2976.04
684.284	3012.9
684.474	2971.94
684.664	3017
684.854	3037.48
685.044	2955.56
685.234	2945.32
685.424	2996.52
685.614	3053.86
685.804	3029.29
685.994	2951.46
686.184	2912.55
686.374	2963.75
686.564	2963.75
686.753	2849.07
686.943	2720.04
687.133	2842.92
687.323	2875.69
687.513	2904.36
687.702	2900.27
687.892	2951.46
688.082	2910.5
688.272	2867.5
688.461	2883.88
688.651	2832.68
688.841	2826.54
689.03	2711.85
689.22	2740.52
689.41	2677.04
689.599	2799.91
689.789	2752.81
689.979	2646.32
690.168	2652.46
690.358	2750.76
690.547	2652.46
690.737	2670.89
690.926	2652.46
691.116	2670.89
691.305	2799.91
691.495	2656.56
691.684	2562.35
691.874	2597.17
692.063	2607.41
692.252	2505.01
692.442	2531.63
692.631	2615.6
692.82	2627.89
693.01	2607.41
693.199	2572.59
693.388	2531.63
693.578	2488.62
693.767	2484.53
693.956	2562.35
694.146	2357.55
694.335	2416.94
694.524	2472.24
694.713	2449.71
694.902	2480.43
695.092	2468.14
695.281	2388.27
695.47	2433.33
695.659	2431.28
695.848	2429.23
696.037	2447.66
696.226	2425.14
696.415	2369.84
696.604	2488.62
696.793	2365.75
696.982	2435.38
697.171	2414.9
697.36	2400.56
697.549	2441.52
697.738	2224.44
697.927	2165.04
698.116	2410.8
698.305	2373.94
698.494	2236.72
698.683	2402.61
698.872	2464.05
699.061	2242.87
699.25	2222.39
699.438	2269.49
699.627	2375.99
699.816	2244.92
700.005	2263.35
700.193	2312.5
700.382	2349.36
700.571	2259.25
700.76	2144.56
700.948	2281.78
701.137	2351.41
701.326	2330.93
701.514	2169.14
701.703	2203.96
701.892	2156.85
702.08	2253.11
702.269	2183.48
702.457	2132.28
702.646	2201.91
702.834	2160.95
703.023	2163
703.212	2261.3
703.4	2216.24
703.589	2107.7
703.777	2210.1
703.965	2117.94
704.154	2144.56
704.342	2136.37
704.531	2269.49
704.719	2134.32
704.907	2199.86
705.096	2111.8
705.284	2079.03
705.472	2210.1
705.661	2132.28
705.849	2087.22
706.037	2236.72
706.226	2103.61
706.414	2128.18
706.602	2212.15
706.79	2179.38
706.979	2046.26
707.167	2130.23
707.355	2226.48
707.543	2083.13
707.731	2163
707.919	2079.03
708.107	2087.22
708.296	2064.69
708.484	2025.78
708.672	2046.26
708.86	2152.76
709.048	2040.12
709.236	2064.69
709.424	2119.99
709.612	2119.99
709.8	2042.17
709.988	2070.84
710.176	2169.14
710.364	2064.69
710.551	1999.16
710.739	2083.13
710.927	2048.31
711.115	2085.17
711.303	2107.7
711.491	2052.41
711.679	2033.97
711.866	2044.21
712.054	2031.93
712.242	2001.21
712.43	2054.45
712.617	2033.97
712.805	2042.17
712.993	1933.62
713.181	1962.3
713.368	2109.75
713.556	1995.06
713.744	2021.69
713.931	2033.97
714.119	1964.34
714.306	1943.86
714.494	2052.41
714.682	1995.06
714.869	1980.73
715.057	2007.35
715.244	2079.03
715.432	2070.84
715.619	1980.73
715.807	2021.69
715.994	2005.3
716.182	1911.1
716.369	1935.67
716.556	2062.65
716.744	2046.26
716.931	2009.4
717.119	2031.93
717.306	2040.12
717.493	1974.58
717.681	1900.86
717.868	2005.3
718.055	2038.07
718.242	2023.73
718.43	1958.2
718.617	1907
718.804	2046.26
718.991	1980.73
719.179	2003.25
719.366	1984.82
719.553	2013.49
719.74	1937.72
719.927	1966.39
720.114	1923.38
720.301	1882.42
720.488	1964.34
720.676	1935.67
720.863	1968.44
721.05	2124.08
721.237	1966.39
721.424	1997.11
721.611	1923.38
721.798	1931.58
721.985	1919.29
722.172	1853.75
722.358	1960.25
722.545	1945.91
722.732	1945.91
722.919	1972.54
723.106	1898.81
723.293	2031.93
723.48	1902.9
723.667	1939.77
723.853	1825.08
724.04	1931.58
724.227	1851.71
724.414	1966.39
724.6	1892.66
724.787	1808.7
724.974	1962.3
725.161	1861.94
725.347	1952.06
725.534	1952.06
725.72	1972.54
725.907	1894.71
726.094	2013.49
726.28	1868.09
726.467	1909.05
726.653	1812.79
726.84	1966.39
727.027	2009.4
727.213	1851.71
727.4	1960.25
727.586	1814.84
727.773	1978.68
727.959	1888.57
728.145	1868.09
728.332	1751.35
728.518	1894.71
728.705	1857.85
728.891	1894.71
729.077	1958.2
729.264	1907
729.45	1882.42
729.636	1974.58
729.823	1915.19
730.009	1919.29
730.195	1939.77
730.382	1890.62
730.568	1816.89
730.754	1845.56
730.94	1861.94
731.126	1892.66
731.313	2046.26
731.499	1911.1
731.685	1866.04
731.871	1816.89
732.057	1939.77
732.243	1849.66
732.429	1917.24
732.615	1909.05
732.801	1900.86
732.987	1859.9
733.173	1808.7
733.359	1796.41
733.545	1861.94
733.731	1917.24
733.917	1917.24
734.103	1892.66
734.289	1907
734.475	1771.83
734.661	1958.2
734.847	1800.51
735.033	1888.57
735.219	1765.69
735.404	1820.99
735.59	1896.76
735.776	1763.64
735.962	1792.31
736.148	1841.47
736.333	1839.42
736.519	1800.51
736.705	1812.79
736.89	1874.23
737.076	1868.09
737.262	1900.86
737.447	1870.14
737.633	1812.79
737.819	1745.21
738.004	1747.26
738.19	1841.47
738.375	1767.74
738.561	1802.55
738.747	1734.97
738.932	1808.7
739.118	1775.93
739.303	1741.11
739.489	1624.38
739.674	1696.06
739.859	1694.01
740.045	1808.7
740.23	1698.11
740.416	1640.76
740.601	1765.69
740.786	1720.64
740.972	1743.16
741.157	1564.99
741.342	1751.35
741.528	1685.82
741.713	1661.24
741.898	1677.63
742.084	1657.15
742.269	1614.14
742.454	1677.63
742.639	1710.4
742.824	1612.09
743.01	1696.06
743.195	1659.2
743.38	1622.33
743.565	1663.29
743.75	1630.52
743.935	1640.76
744.12	1636.67
744.305	1728.83
744.49	1579.33
744.675	1483.07
744.86	1513.79
745.045	1603.9
745.23	1571.13
745.415	1515.84
745.6	1581.37
745.785	1403.2
745.97	1448.26
746.155	1485.12
746.34	1542.46
746.525	1571.13
746.71	1651
746.895	1466.69
747.079	1468.73
747.264	1497.41
747.449	1429.82
747.634	1489.21
747.819	1370.43
748.003	1401.15
748.188	1440.06
748.373	1464.64
748.557	1395.01
748.742	1425.73
748.927	1474.88
749.111	1435.97
749.296	1372.48
749.481	1468.73
749.665	1386.82
749.85	1354.05
750.034	1366.34
750.219	1427.78
750.404	1321.28
750.588	1419.58
750.773	1419.58
750.957	1186.12
751.141	1323.33
751.326	1311.04
751.51	1284.42
751.695	1200.45
751.879	1247.55
752.064	1356.1
752.248	1253.7
752.432	1276.23
752.617	1325.38
752.801	1317.19
752.985	1157.44
753.17	1210.69
753.354	1169.73
753.538	1227.07
753.722	1155.4
753.907	1165.64
754.091	1214.79
754.275	1167.68
754.459	1237.31
754.643	1079.62
754.828	1120.58
755.012	1108.29
755.196	1179.97
755.38	1200.45
755.564	1067.33
755.748	1141.06
755.932	1163.59
756.116	1087.81
756.3	1210.69
756.484	1048.9
756.668	1059.14
756.852	1100.1
757.036	1098.05
757.22	1014.09
757.404	1005.89
757.588	1079.62
757.772	1042.76
757.956	1050.95
758.14	1071.43
758.323	1069.38
758.507	995.65
758.691	952.65
758.875	919.88
759.059	981.32
759.242	960.84
759.426	1034.57
759.61	983.37
759.794	919.88
759.977	1018.18
760.161	1038.66
760.345	946.5
760.528	969.03
760.712	956.74
760.895	911.69
761.079	911.69
761.263	856.39
761.446	923.98
761.63	903.5
761.813	1069.38
761.997	942.41
762.18	901.45
762.364	926.02
762.547	858.44
762.731	842.06
762.914	858.44
763.098	870.73
763.281	817.48
763.464	866.63
763.648	827.72
763.831	903.5
764.015	829.77
764.198	926.02
764.381	893.26
764.564	854.34
764.748	866.63
764.931	844.1
765.114	895.3
765.297	807.24
765.481	780.62
765.664	813.38
765.847	735.56
766.03	895.3
766.213	729.42
766.397	745.8
766.58	799.05
766.763	794.95
766.946	780.62
767.129	825.67
767.312	819.53
767.495	792.91
767.678	778.57
767.861	770.38
768.044	817.48
768.227	835.91
768.41	772.43
768.593	743.75
768.776	762.19
768.959	817.48
769.142	727.37
769.324	762.19
769.507	762.19
769.69	682.31
769.873	891.21
770.056	792.91
770.239	665.93
770.421	715.08
770.604	731.47
770.787	827.72
770.97	766.28
771.152	801.1
771.335	674.12
771.518	606.54
771.7	772.43
771.883	686.41
772.066	624.97
772.248	672.08
772.431	696.65
772.613	710.99
772.796	735.56
772.978	678.22
773.161	706.89
773.343	735.56
773.526	649.55
773.708	645.45
773.891	678.22
774.073	622.92
774.256	688.46
774.438	686.41
774.621	647.5
774.803	637.26
774.985	637.26
775.168	694.6
775.35	620.88
775.532	547.15
775.715	672.08
775.897	715.08
776.079	524.62
776.261	600.4
776.444	575.82
776.626	532.81
776.808	590.16
776.99	637.26
777.173	602.44
777.355	510.29
777.537	520.53
777.719	567.63
777.901	629.07
778.083	606.54
778.265	520.53
778.447	551.24
778.629	561.48
778.811	604.49
778.993	612.68
779.175	485.71
779.357	428.37
779.539	563.53
779.721	467.28
779.903	487.76
780.085	567.63
780.267	551.24
780.449	454.99
780.631	489.81
780.812	567.63
780.994	579.92
781.176	452.94
781.358	502.09
781.54	481.61
781.721	506.19
781.903	551.24
782.085	475.47
782.267	536.91
782.448	385.36
782.63	522.57
782.812	530.77
782.993	512.33
783.175	422.22
783.357	440.65
783.538	434.51
783.72	416.08
783.901	473.42
784.083	366.93
784.264	440.65
784.446	465.23
784.627	381.26
784.809	407.89
784.99	416.08
785.172	403.79
785.353	397.65
785.535	373.07
785.716	397.65
785.897	407.89
786.079	477.52
786.26	362.83
786.441	389.46
786.623	385.36
786.804	377.17
786.985	287.06
787.167	411.98
787.348	319.82
787.529	362.83
787.71	407.89
787.891	432.46
788.073	276.82
788.254	346.45
788.435	366.93
788.616	352.59
788.797	256.34
788.978	317.78
789.159	358.74
789.34	395.6
789.522	325.97
789.703	389.46
789.884	276.82
790.065	344.4
790.246	342.35
790.427	352.59
790.607	303.44
790.788	287.06
790.969	268.63
791.15	334.16
791.331	280.91
791.512	375.12
791.693	305.49
791.874	262.48
792.054	352.59
792.235	250.19
792.416	293.2
792.597	260.43
792.778	321.87
792.958	317.78
793.139	305.49
793.32	270.67
793.5	334.16
793.681	360.78
793.862	287.06
794.042	303.44
794.223	244.05
794.404	262.48
794.584	278.87
794.765	215.38
794.945	276.82
795.126	239.95
795.306	338.26
795.487	227.67
795.667	215.38
795.848	358.74
796.028	278.87
796.209	233.81
796.389	334.16
796.57	291.15
796.75	264.53
796.93	244.05
797.111	244.05
797.291	231.76
797.471	229.71
797.652	213.33
797.832	205.14
798.012	237.91
798.192	198.99
798.373	285.01
798.553	213.33
798.733	203.09
798.913	170.32
799.093	203.09
799.274	182.61
799.454	219.47
799.634	231.76
799.814	295.25
799.994	260.43
800.174	248.15
800.354	151.89
800.534	219.47
800.714	203.09
800.894	162.13
801.074	147.8
801.254	211.28
801.434	276.82
801.614	141.65
801.794	178.51
801.974	819.53
802.154	215.38
802.334	225.62
802.514	160.08
802.693	164.18
802.873	143.7
803.053	147.8
803.233	170.32
803.413	221.52
803.592	133.46
803.772	151.89
803.952	203.09
804.131	174.42
804.311	235.86
804.491	282.96
804.67	104.79
804.85	203.09
805.03	166.23
805.209	260.43
805.389	254.29
805.568	117.08
805.748	217.43
805.928	213.33
806.107	184.66
806.287	174.42
806.466	194.9
806.646	188.75
806.825	139.6
807.004	205.14
807.184	207.19
807.363	198.99
807.543	182.61
807.722	203.09
807.901	244.05
808.081	143.7
808.26	147.8
808.439	145.75
808.619	86.36
808.798	67.92
808.977	123.22
809.156	182.61
809.336	139.6
809.515	164.18
809.694	186.71
809.873	131.41
810.052	223.57
810.231	158.03
810.411	106.84
810.59	131.41
810.769	170.32
810.948	137.56
811.127	117.08
811.306	98.64
811.485	88.4
811.664	153.94
811.843	121.17
812.022	84.31
812.201	100.69
812.38	131.41
812.559	137.56
812.737	112.98
812.916	84.31
813.095	112.98
813.274	110.93
813.453	86.36
813.632	94.55
813.811	170.32
813.989	76.12
814.168	188.75
814.347	176.47
814.526	106.84
814.704	166.23
814.883	153.94
815.062	133.46
815.24	123.22
815.419	96.6
815.598	153.94
815.776	112.98
815.955	145.75
816.133	76.12
816.312	65.88
816.49	133.46
816.669	155.99
816.847	143.7
817.026	139.6
817.204	88.4
817.383	121.17
817.561	80.21
817.74	96.6
817.918	178.51
818.097	164.18
818.275	100.69
818.453	194.9
818.632	125.27
818.81	137.56
818.988	35.16
819.167	115.03
819.345	117.08
819.523	104.79
819.701	67.92
819.879	31.06
820.058	88.4
820.236	63.83
820.414	211.28
820.592	84.31
820.77	129.36
820.948	80.21
821.127	35.16
821.305	100.69
821.483	22.87
821.661	164.18
821.839	125.27
822.017	145.75
822.195	76.12
822.373	51.54
822.551	72.02
822.729	80.21
822.907	123.22
823.085	133.46
823.262	96.6
823.44	180.56
823.618	96.6
823.796	108.88
823.974	100.69
824.152	82.26
824.329	76.12
824.507	55.64
824.685	133.46
824.863	74.07
825.04	121.17
825.218	129.36
825.396	88.4
825.574	104.79
825.751	14.68
825.929	94.55
826.107	-57
826.284	51.54
826.462	135.51
826.639	63.83
826.817	35.16
826.994	37.2
827.172	63.83
827.349	72.02
827.527	90.45
827.704	65.88
827.882	96.6
828.059	76.12
828.237	55.64
828.414	125.27
828.591	82.26
828.769	133.46
828.946	80.21
829.124	104.79
829.301	145.75
829.478	74.07
829.655	24.92
829.833	90.45
830.01	35.16
830.187	125.27
830.364	39.25
830.542	80.21
830.719	133.46
830.896	92.5
831.073	67.92
831.25	96.6
831.427	86.36
831.604	76.12
831.782	24.92
831.959	31.06
832.136	74.07
832.313	67.92
832.49	110.93
832.667	72.02
832.844	16.73
833.021	80.21
833.198	-9.9
833.374	20.82
833.551	86.36
833.728	110.93
833.905	96.6
834.082	29.01
834.259	55.64
834.436	82.26
834.612	35.16
834.789	104.79
834.966	26.96
835.143	72.02
835.319	45.4
835.496	35.16
835.673	63.83
835.85	104.79
836.026	57.68
836.203	106.84
836.38	55.64
836.556	49.49
836.733	-9.9
836.909	88.4
837.086	96.6
837.262	-24.23
837.439	31.06
837.616	39.25
837.792	80.21
837.968	14.68
838.145	6.49
838.321	22.87
838.498	69.97
838.674	26.96
838.851	59.73
839.027	29.01
839.203	43.35
839.38	33.11
839.556	80.21
839.732	112.98
839.909	41.3
840.085	22.87
840.261	88.4
840.437	-36.52
840.614	-5.8
840.79	-1.71
840.966	59.73
841.142	96.6
841.318	35.16
841.494	55.64
841.671	90.45
841.847	-5.8
842.023	16.73
842.199	-16.04
842.375	16.73
842.551	65.88
842.727	88.4
842.903	74.07
843.079	31.06
843.255	82.26
843.431	59.73
843.607	63.83
843.783	26.96
843.959	92.5
844.134	88.4
844.31	49.49
844.486	14.68
844.662	39.25
844.838	10.58
845.013	63.83
845.189	49.49
845.365	39.25
845.541	47.44
845.716	57.68
845.892	78.16
846.068	24.92
846.244	6.49
846.419	53.59
846.595	2.39
846.77	-32.43
846.946	59.73
847.122	18.77
847.297	-18.09
847.473	31.06
847.648	65.88
847.824	41.3
847.999	-26.28
848.175	14.68
848.35	24.92
848.526	86.36
848.701	35.16
848.876	63.83
849.052	6.49
849.227	31.06
849.403	0.34
849.578	18.77
849.753	47.44
849.929	86.36
850.104	-50.86
850.279	8.53
850.454	22.87
850.63	94.55
850.805	35.16
850.98	8.53
851.155	-30.38
851.33	31.06
851.505	0.34
851.681	59.73
851.856	92.5
852.031	47.44
852.206	4.44
852.381	-1.71
852.556	-5.8
852.731	104.79
852.906	4.44
853.081	88.4
853.256	67.92
853.431	18.77
853.606	47.44
853.781	-24.23
853.956	-67.24
854.131	-34.47
854.305	65.88
854.48	6.49
854.655	-16.04
854.83	18.77
855.005	0.34
855.18	31.06
855.354	-9.9
855.529	31.06
855.704	51.54
855.879	-1.71
856.053	-40.62
856.228	63.83
856.403	35.16
856.577	49.49
856.752	-18.09
856.926	59.73
857.101	63.83
857.276	14.68
857.45	0.34
857.625	41.3
857.799	24.92
857.974	-7.85
858.148	20.82
858.323	72.02
858.497	-16.04
858.672	35.16
858.846	2.39
859.02	22.87
859.195	29.01
859.369	-50.86
859.543	24.92
859.718	100.69
859.892	72.02
860.066	65.88
860.241	-18.09
860.415	18.77
860.589	24.92
860.763	51.54
860.938	14.68
861.112	49.49
861.286	16.73
861.46	20.82
861.634	47.44
861.808	76.12
861.982	-32.43
862.157	65.88
862.331	-11.95
862.505	22.87
862.679	4.44
862.853	-34.47
863.027	31.06
863.201	16.73
863.375	-9.9
863.549	51.54
863.722	12.63
863.896	63.83
864.07	-20.14
864.244	47.44
864.418	39.25
864.592	69.97
864.766	-26.28
864.939	-1.71
865.113	-26.28
865.287	33.11
865.461	-5.8
865.634	59.73
865.808	16.73
865.982	14.68
866.156	-42.67
866.329	39.25
866.503	16.73
866.676	29.01
866.85	35.16
867.024	-1.71
867.197	-50.86
867.371	22.87
867.544	72.02
867.718	6.49
867.891	51.54
868.065	55.64
868.238	12.63
868.412	96.6
868.585	-26.28
868.759	10.58
868.932	31.06
869.105	22.87
869.279	16.73
869.452	-40.62
869.625	-26.28
869.799	39.25
869.972	31.06
870.145	8.53
870.319	24.92
870.492	-5.8
870.665	18.77
870.838	26.96
871.011	-67.24
871.185	4.44
871.358	41.3
871.531	22.87
871.704	4.44
871.877	8.53
872.05	31.06
872.223	-50.86
872.396	63.83
872.569	47.44
872.742	-16.04
872.915	67.92
873.088	-1.71
873.261	-18.09
873.434	-22.19
873.607	51.54
873.78	51.54
873.953	-59.05
874.126	-42.67
874.299	-9.9
874.471	0.34
874.644	-7.85
874.817	-7.85
874.99	55.64
875.163	14.68
875.335	47.44
875.508	-42.67
875.681	-48.81
875.853	-18.09
876.026	-9.9
876.199	35.16
876.371	22.87
876.544	-48.81
876.717	24.92
876.889	33.11
877.062	90.45
877.234	-5.8
877.407	-16.04
877.579	35.16
877.752	-7.85
877.924	-46.76
878.097	-9.9
878.269	47.44
878.442	63.83
878.614	-9.9
878.786	16.73
878.959	-24.23
879.131	49.49
879.303	-24.23
879.476	39.25
879.648	22.87
879.82	-26.28
879.993	-9.9
880.165	55.64
880.337	20.82
880.509	-18.09
880.681	-50.86
880.854	6.49
881.026	2.39
881.198	35.16
881.37	-1.71
881.542	-30.38
881.714	131.41
881.886	59.73
882.058	-57
882.23	12.63
882.402	10.58
882.574	63.83
882.746	-7.85
882.918	24.92
883.09	39.25
883.262	-5.8
883.434	-3.75
883.606	2.39
883.778	-63.15
883.95	47.44
884.122	-46.76
884.293	2.39
884.465	49.49
884.637	6.49
884.809	-1.71
884.98	49.49
885.152	-46.76
885.324	65.88
885.496	-63.15
885.667	43.35
885.839	63.83
886.011	55.64
886.182	55.64
886.354	22.87
886.525	-30.38
886.697	31.06
886.869	8.53
887.04	41.3
887.212	-18.09
887.383	98.64
887.555	4.44
887.726	-11.95
887.897	59.73
888.069	67.92
888.24	22.87
888.412	14.68
888.583	6.49
888.754	-38.57
888.926	-83.63
889.097	90.45
889.268	39.25
889.44	-28.33
889.611	-40.62
889.782	-48.81
889.953	-46.76
890.125	47.44
890.296	-32.43
890.467	-34.47
890.638	14.68
890.809	-52.91
890.98	35.16
891.151	-18.09
891.323	-16.04
891.494	59.73
891.665	-46.76
891.836	55.64
892.007	-1.71
892.178	59.73
892.349	-42.67
892.52	-34.47
892.691	-5.8
892.862	-34.47
893.032	-1.71
893.203	-67.24
893.374	45.4
893.545	35.16
893.716	63.83
893.887	-1.71
894.057	35.16
894.228	33.11
894.399	-5.8
894.57	6.49
894.74	-5.8
894.911	2.39
895.082	-42.67
895.253	14.68
895.423	2.39
895.594	-40.62
895.764	80.21
895.935	-40.62
896.106	-38.57
896.276	-5.8
896.447	10.58
896.617	16.73
896.788	47.44
896.958	8.53
897.129	31.06
897.299	39.25
897.47	0.34
897.64	33.11
897.81	18.77
897.981	55.64
898.151	80.21
898.322	-7.85
898.492	-63.15
898.662	-44.71
898.832	-30.38
899.003	31.06
899.173	-38.57
899.343	26.96
899.513	2.39
