Data from USB4F104151__22__14-42-42-987.txt Node

Date: Thu Mar 13 14:42:42 EDT 2025
User: louis
Spectrometer: USB4F10415
Trigger mode: 4
Integration Time (sec): 2.000000E-2
Scans to average: 1
Electric dark correction enabled: true
Nonlinearity correction enabled: false
Boxcar width: 0
XAxis mode: Wavelengths
Number of Pixels in Spectrum: 3648
>>>>>Begin Spectral Data<<<<<
178.204	-141.99
178.424	-141.99
178.644	-141.99
178.864	-137.9
179.084	-156.33
179.304	-15.02
179.524	68.95
179.744	-64.17
179.964	-6.83
180.184	-17.07
180.404	7.51
180.624	19.8
180.844	-15.02
181.064	3.41
181.283	-6.83
181.503	-23.21
181.723	48.47
181.943	27.99
182.163	103.76
182.383	93.52
182.602	40.28
182.822	23.89
183.042	-17.07
183.262	9.56
183.482	-0.68
183.701	-6.83
183.921	7.51
184.141	-0.68
184.361	64.85
184.58	52.56
184.8	1.37
185.02	-25.26
185.239	50.52
185.459	27.99
185.679	42.32
185.898	-66.22
186.118	27.99
186.338	7.51
186.557	40.28
186.777	7.51
186.997	144.72
187.216	15.7
187.436	68.95
187.655	23.89
187.875	-0.68
188.095	44.37
188.314	11.61
188.534	32.08
188.753	-0.68
188.973	15.7
189.192	7.51
189.412	15.7
189.631	73.04
189.851	21.85
190.07	68.95
190.29	40.28
190.509	11.61
190.729	-4.78
190.948	-0.68
191.168	68.95
191.387	11.61
191.607	1.37
191.826	13.65
192.045	-8.87
192.265	99.67
192.484	109.91
192.704	-21.16
192.923	-12.97
193.142	89.43
193.362	-0.68
193.581	3.41
193.8	34.13
194.02	13.65
194.239	11.61
194.458	68.95
194.678	15.7
194.897	-8.87
195.116	-23.21
195.335	23.89
195.555	21.85
195.774	11.61
195.993	109.91
196.212	89.43
196.432	32.08
196.651	48.47
196.87	-4.78
197.089	81.24
197.308	66.9
197.528	-25.26
197.747	32.08
197.966	60.76
198.185	-0.68
198.404	42.32
198.623	50.52
198.842	23.89
199.062	60.76
199.281	107.86
199.5	50.52
199.719	23.89
199.938	34.13
200.157	50.52
200.376	64.85
200.595	48.47
200.814	50.52
201.033	36.18
201.252	48.47
201.471	-15.02
201.69	-25.26
201.909	27.99
202.128	21.85
202.347	21.85
202.566	79.19
202.785	-31.4
203.004	-31.4
203.223	64.85
203.442	21.85
203.661	-8.87
203.879	25.94
204.098	25.94
204.317	48.47
204.536	89.43
204.755	13.65
204.974	64.85
205.193	68.95
205.411	81.24
205.63	-15.02
205.849	5.46
206.068	-2.73
206.287	-8.87
206.505	32.08
206.724	11.61
206.943	-6.83
207.162	7.51
207.381	56.66
207.599	27.99
207.818	23.89
208.037	32.08
208.255	34.13
208.474	15.7
208.693	73.04
208.911	93.52
209.13	-4.78
209.349	146.77
209.567	23.89
209.786	73.04
210.005	87.38
210.223	25.94
210.442	-17.07
210.661	-49.83
210.879	48.47
211.098	32.08
211.316	5.46
211.535	99.67
211.753	114
211.972	3.41
212.191	-4.78
212.409	15.7
212.628	109.91
212.846	-21.16
213.065	66.9
213.283	44.37
213.502	-6.83
213.72	44.37
213.938	40.28
214.157	36.18
214.375	36.18
214.594	9.56
214.812	27.99
215.031	19.8
215.249	-25.26
215.467	34.13
215.686	23.89
215.904	89.43
216.122	56.66
216.341	64.85
216.559	-15.02
216.778	15.7
216.996	44.37
217.214	81.24
217.432	27.99
217.651	40.28
217.869	38.23
218.087	52.56
218.306	56.66
218.524	85.33
218.742	-39.59
218.96	5.46
219.179	27.99
219.397	-29.35
219.615	27.99
219.833	66.9
220.051	50.52
220.27	58.71
220.488	32.08
220.706	48.47
220.924	-21.16
221.142	40.28
221.36	13.65
221.578	7.51
221.796	17.75
222.015	64.85
222.233	-17.07
222.451	68.95
222.669	48.47
222.887	52.56
223.105	9.56
223.323	-19.11
223.541	-49.83
223.759	75.09
223.977	97.62
224.195	32.08
224.413	89.43
224.631	56.66
224.849	-25.26
225.067	77.14
225.285	5.46
225.503	52.56
225.721	40.28
225.939	44.37
226.157	25.94
226.375	7.51
226.592	-58.03
226.81	-8.87
227.028	19.8
227.246	75.09
227.464	15.7
227.682	93.52
227.9	46.42
228.117	48.47
228.335	40.28
228.553	54.61
228.771	58.71
228.989	7.51
229.206	52.56
229.424	-19.11
229.642	64.85
229.86	-19.11
230.077	66.9
230.295	-47.79
230.513	15.7
230.731	-12.97
230.948	58.71
231.166	48.47
231.384	15.7
231.601	25.94
231.819	58.71
232.037	-25.26
232.254	-21.16
232.472	-4.78
232.689	-15.02
232.907	58.71
233.125	-29.35
233.342	-51.88
233.56	52.56
233.777	122.2
233.995	48.47
234.213	64.85
234.43	34.13
234.648	101.72
234.865	32.08
235.083	21.85
235.3	48.47
235.518	91.48
235.735	-41.64
235.953	48.47
236.17	34.13
236.388	-66.22
236.605	36.18
236.822	42.32
237.04	40.28
237.257	7.51
237.475	15.7
237.692	-8.87
237.909	64.85
238.127	15.7
238.344	68.95
238.562	19.8
238.779	-17.07
238.996	-0.68
239.214	-96.94
239.431	73.04
239.648	1.37
239.865	56.66
240.083	118.1
240.3	21.85
240.517	-49.83
240.735	-8.87
240.952	95.57
241.169	11.61
241.386	-39.59
241.603	50.52
241.821	3.41
242.038	40.28
242.255	17.75
242.472	-17.07
242.689	48.47
242.907	19.8
243.124	25.94
243.341	17.75
243.558	42.32
243.775	40.28
243.992	-66.22
244.209	32.08
244.426	97.62
244.643	81.24
244.86	11.61
245.078	5.46
245.295	38.23
245.512	40.28
245.729	-23.21
245.946	122.2
246.163	11.61
246.38	-17.07
246.597	19.8
246.814	11.61
247.031	-8.87
247.248	-15.02
247.464	107.86
247.681	-31.4
247.898	71
248.115	107.86
248.332	19.8
248.549	15.7
248.766	58.71
248.983	128.34
249.2	9.56
249.417	56.66
249.633	-8.87
249.85	5.46
250.067	23.89
250.284	34.13
250.501	-23.21
250.717	97.62
250.934	54.61
251.151	58.71
251.368	-25.26
251.585	58.71
251.801	27.99
252.018	81.24
252.235	27.99
252.451	56.66
252.668	21.85
252.885	97.62
253.102	52.56
253.318	-17.07
253.535	32.08
253.752	87.38
253.968	-0.68
254.185	-66.22
254.401	68.95
254.618	7.51
254.835	27.99
255.051	105.81
255.268	-33.45
255.484	-0.68
255.701	-31.4
255.917	56.66
256.134	-0.68
256.351	40.28
256.567	36.18
256.784	7.51
257	-55.98
257.217	38.23
257.433	11.61
257.65	-4.78
257.866	-45.74
258.082	66.9
258.299	-76.46
258.515	42.32
258.732	15.7
258.948	50.52
259.165	40.28
259.381	-21.16
259.597	40.28
259.814	-6.83
260.03	21.85
260.246	27.99
260.463	34.13
260.679	56.66
260.895	-0.68
261.112	11.61
261.328	7.51
261.544	-66.22
261.761	48.47
261.977	83.28
262.193	-41.64
262.409	46.42
262.626	73.04
262.842	7.51
263.058	42.32
263.274	40.28
263.49	44.37
263.707	42.32
263.923	-31.4
264.139	-0.68
264.355	-17.07
264.571	89.43
264.787	97.62
265.004	64.85
265.22	40.28
265.436	58.71
265.652	17.75
265.868	25.94
266.084	7.51
266.3	44.37
266.516	-15.02
266.732	68.95
266.948	52.56
267.164	-55.98
267.38	44.37
267.596	60.76
267.812	9.56
268.028	105.81
268.244	73.04
268.46	-12.97
268.676	15.7
268.892	64.85
269.108	66.9
269.324	25.94
269.54	-17.07
269.756	56.66
269.972	-37.55
270.188	13.65
270.403	-12.97
270.619	17.75
270.835	-25.26
271.051	-8.87
271.267	7.51
271.483	-23.21
271.698	60.76
271.914	56.66
272.13	64.85
272.346	-4.78
272.562	-21.16
272.777	44.37
272.993	73.04
273.209	-0.68
273.425	-23.21
273.64	23.89
273.856	-23.21
274.072	7.51
274.287	25.94
274.503	27.99
274.719	17.75
274.934	23.89
275.15	7.51
275.366	64.85
275.581	-12.97
275.797	56.66
276.012	-49.83
276.228	-8.87
276.444	25.94
276.659	89.43
276.875	-6.83
277.09	40.28
277.306	27.99
277.521	7.51
277.737	-37.55
277.952	11.61
278.168	27.99
278.383	60.76
278.599	64.85
278.814	97.62
279.03	73.04
279.245	30.04
279.461	11.61
279.676	66.9
279.892	-15.02
280.107	32.08
280.322	48.47
280.538	42.32
280.753	68.95
280.969	73.04
281.184	54.61
281.399	75.09
281.615	-0.68
281.83	118.1
282.045	89.43
282.26	-0.68
282.476	13.65
282.691	34.13
282.906	36.18
283.122	93.52
283.337	42.32
283.552	23.89
283.767	-0.68
283.983	73.04
284.198	17.75
284.413	-4.78
284.628	-4.78
284.843	46.42
285.058	40.28
285.274	64.85
285.489	-8.87
285.704	34.13
285.919	-55.98
286.134	9.56
286.349	23.89
286.564	-2.73
286.779	97.62
286.995	-4.78
287.21	7.51
287.425	15.7
287.64	23.89
287.855	42.32
288.07	122.2
288.285	7.51
288.5	48.47
288.715	-25.26
288.93	68.95
289.145	64.85
289.36	64.85
289.575	27.99
289.79	34.13
290.004	50.52
290.219	109.91
290.434	-47.79
290.649	-4.78
290.864	46.42
291.079	114
291.294	77.14
291.509	40.28
291.724	114
291.938	21.85
292.153	-2.73
292.368	40.28
292.583	66.9
292.798	42.32
293.012	3.41
293.227	48.47
293.442	-33.45
293.657	7.51
293.871	79.19
294.086	109.91
294.301	23.89
294.516	15.7
294.73	42.32
294.945	7.51
295.16	-33.45
295.374	44.37
295.589	89.43
295.804	15.7
296.018	-31.4
296.233	9.56
296.447	44.37
296.662	-19.11
296.877	83.28
297.091	25.94
297.306	89.43
297.52	73.04
297.735	48.47
297.949	36.18
298.164	50.52
298.378	34.13
298.593	7.51
298.807	-17.07
299.022	32.08
299.236	25.94
299.451	30.04
299.665	64.85
299.88	17.75
300.094	-55.98
300.309	97.62
300.523	-19.11
300.737	-21.16
300.952	38.23
301.166	44.37
301.381	-25.26
301.595	42.32
301.809	-37.55
302.024	75.09
302.238	23.89
302.452	60.76
302.667	9.56
302.881	140.63
303.095	52.56
303.309	34.13
303.524	15.7
303.738	73.04
303.952	1.37
304.166	9.56
304.381	-39.59
304.595	32.08
304.809	40.28
305.023	46.42
305.237	-49.83
305.452	32.08
305.666	52.56
305.88	34.13
306.094	52.56
306.308	81.24
306.522	-4.78
306.736	36.18
306.95	11.61
307.164	7.51
307.379	81.24
307.593	60.76
307.807	44.37
308.021	64.85
308.235	48.47
308.449	-15.02
308.663	32.08
308.877	66.9
309.091	-31.4
309.305	165.2
309.519	-68.27
309.733	122.2
309.947	-53.93
310.161	40.28
310.374	32.08
310.588	-37.55
310.802	17.75
311.016	21.85
311.23	7.51
311.444	-6.83
311.658	73.04
311.872	3.41
312.085	42.32
312.299	60.76
312.513	64.85
312.727	93.52
312.941	-47.79
313.154	56.66
313.368	-0.68
313.582	66.9
313.796	77.14
314.009	34.13
314.223	54.61
314.437	34.13
314.651	48.47
314.864	56.66
315.078	87.38
315.292	17.75
315.505	50.52
315.719	50.52
315.933	19.8
316.146	7.51
316.36	9.56
316.573	56.66
316.787	19.8
317.001	40.28
317.214	17.75
317.428	1.37
317.641	-41.64
317.855	77.14
318.068	19.8
318.282	52.56
318.495	66.9
318.709	66.9
318.922	44.37
319.136	15.7
319.349	32.08
319.563	17.75
319.776	89.43
319.99	9.56
320.203	7.51
320.417	42.32
320.63	32.08
320.843	60.76
321.057	75.09
321.27	15.7
321.483	15.7
321.697	105.81
321.91	17.75
322.124	-8.87
322.337	-55.98
322.55	19.8
322.763	48.47
322.977	27.99
323.19	-0.68
323.403	11.61
323.617	71
323.83	-6.83
324.043	-6.83
324.256	32.08
324.469	-27.31
324.683	64.85
324.896	46.42
325.109	56.66
325.322	-25.26
325.535	75.09
325.748	32.08
325.962	79.19
326.175	5.46
326.388	118.1
326.601	50.52
326.814	34.13
327.027	-41.64
327.24	25.94
327.453	-8.87
327.666	81.24
327.879	99.67
328.092	32.08
328.305	40.28
328.518	-23.21
328.731	64.85
328.944	3.41
329.157	73.04
329.37	36.18
329.583	83.28
329.796	111.96
330.009	56.66
330.222	52.56
330.435	38.23
330.648	40.28
330.861	81.24
331.073	-21.16
331.286	34.13
331.499	66.9
331.712	-12.97
331.925	23.89
332.138	23.89
332.35	7.51
332.563	-4.78
332.776	-0.68
332.989	36.18
333.202	40.28
333.414	25.94
333.627	50.52
333.84	-33.45
334.053	7.51
334.265	62.8
334.478	17.75
334.691	81.24
334.903	-62.12
335.116	52.56
335.329	27.99
335.541	7.51
335.754	75.09
335.966	7.51
336.179	40.28
336.392	-17.07
336.604	32.08
336.817	-41.64
337.029	81.24
337.242	-10.92
337.454	89.43
337.667	11.61
337.88	7.51
338.092	19.8
338.305	27.99
338.517	36.18
338.729	77.14
338.942	105.81
339.154	30.04
339.367	-17.07
339.579	42.32
339.792	-33.45
340.004	-12.97
340.217	-6.83
340.429	23.89
340.641	93.52
340.854	7.51
341.066	34.13
341.278	71
341.491	-0.68
341.703	-64.17
341.915	36.18
342.128	48.47
342.34	81.24
342.552	23.89
342.764	1.37
342.977	77.14
343.189	13.65
343.401	9.56
343.613	81.24
343.826	11.61
344.038	-25.26
344.25	38.23
344.462	27.99
344.674	32.08
344.886	-23.21
345.099	40.28
345.311	32.08
345.523	-21.16
345.735	-43.69
345.947	48.47
346.159	40.28
346.371	19.8
346.583	-49.83
346.795	7.51
347.007	48.47
347.219	-45.74
347.431	85.33
347.643	52.56
347.855	23.89
348.067	109.91
348.279	-41.64
348.491	36.18
348.703	52.56
348.915	15.7
349.127	15.7
349.339	56.66
349.551	3.41
349.763	122.2
349.975	15.7
350.187	130.39
350.399	83.28
350.61	9.56
350.822	48.47
351.034	114
351.246	40.28
351.458	73.04
351.669	-17.07
351.881	-0.68
352.093	5.46
352.305	42.32
352.517	1.37
352.728	73.04
352.94	17.75
353.152	89.43
353.363	-25.26
353.575	11.61
353.787	64.85
353.999	25.94
354.21	81.24
354.422	15.7
354.633	3.41
354.845	-17.07
355.057	85.33
355.268	17.75
355.48	79.19
355.692	-55.98
355.903	21.85
356.115	-25.26
356.326	-6.83
356.538	66.9
356.749	11.61
356.961	60.76
357.172	81.24
357.384	62.8
357.595	-25.26
357.807	15.7
358.018	48.47
358.23	1.37
358.441	19.8
358.653	68.95
358.864	52.56
359.075	23.89
359.287	56.66
359.498	85.33
359.709	116.05
359.921	81.24
360.132	-58.03
360.344	32.08
360.555	-17.07
360.766	44.37
360.977	27.99
361.189	40.28
361.4	30.04
361.611	56.66
361.823	107.86
362.034	25.94
362.245	60.76
362.456	60.76
362.667	60.76
362.879	-8.87
363.09	-17.07
363.301	66.9
363.512	32.08
363.723	-21.16
363.935	60.76
364.146	48.47
364.357	-4.78
364.568	116.05
364.779	-17.07
364.99	50.52
365.201	36.18
365.412	15.7
365.623	15.7
365.834	42.32
366.045	36.18
366.256	30.04
366.467	-4.78
366.678	5.46
366.889	89.43
367.1	60.76
367.311	52.56
367.522	19.8
367.733	-21.16
367.944	91.48
368.155	56.66
368.366	-6.83
368.577	54.61
368.788	25.94
368.999	19.8
369.209	97.62
369.42	89.43
369.631	154.96
369.842	21.85
370.053	13.65
370.264	89.43
370.474	21.85
370.685	15.7
370.896	15.7
371.107	89.43
371.317	34.13
371.528	7.51
371.739	48.47
371.95	11.61
372.16	116.05
372.371	44.37
372.582	42.32
372.792	-17.07
373.003	15.7
373.214	83.28
373.424	101.72
373.635	-29.35
373.846	36.18
374.056	93.52
374.267	23.89
374.477	105.81
374.688	73.04
374.898	114
375.109	50.52
375.319	66.9
375.53	19.8
375.74	40.28
375.951	-0.68
376.161	-17.07
376.372	105.81
376.582	-55.98
376.793	13.65
377.003	40.28
377.214	23.89
377.424	77.14
377.635	52.56
377.845	75.09
378.055	62.8
378.266	-41.64
378.476	56.66
378.686	73.04
378.897	-0.68
379.107	75.09
379.317	81.24
379.528	-82.6
379.738	73.04
379.948	-17.07
380.158	48.47
380.369	-43.69
380.579	50.52
380.789	-6.83
380.999	66.9
381.21	27.99
381.42	64.85
381.63	-2.73
381.84	38.23
382.05	73.04
382.261	-0.68
382.471	32.08
382.681	91.48
382.891	83.28
383.101	1.37
383.311	36.18
383.521	44.37
383.731	42.32
383.941	-0.68
384.151	44.37
384.361	-8.87
384.571	73.04
384.781	7.51
384.991	32.08
385.201	19.8
385.411	15.7
385.621	48.47
385.831	27.99
386.041	64.85
386.251	7.51
386.461	77.14
386.671	101.72
386.881	64.85
387.091	89.43
387.301	-2.73
387.511	77.14
387.72	40.28
387.93	85.33
388.14	9.56
388.35	64.85
388.56	-6.83
388.769	60.76
388.979	48.47
389.189	19.8
389.399	56.66
389.609	40.28
389.818	23.89
390.028	71
390.238	36.18
390.447	25.94
390.657	114
390.867	48.47
391.076	64.85
391.286	105.81
391.496	50.52
391.705	124.24
391.915	44.37
392.125	52.56
392.334	48.47
392.544	52.56
392.753	40.28
392.963	3.41
393.172	40.28
393.382	19.8
393.591	103.76
393.801	42.32
394.01	56.66
394.22	36.18
394.429	52.56
394.639	7.51
394.848	101.72
395.058	9.56
395.267	30.04
395.477	52.56
395.686	11.61
395.895	81.24
396.105	89.43
396.314	42.32
396.524	60.76
396.733	48.47
396.942	56.66
397.152	64.85
397.361	109.91
397.57	56.66
397.78	15.7
397.989	11.61
398.198	126.29
398.407	48.47
398.617	71
398.826	81.24
399.035	40.28
399.244	105.81
399.453	60.76
399.663	91.48
399.872	105.81
400.081	27.99
400.29	87.38
400.499	93.52
400.708	130.39
400.917	-0.68
401.127	48.47
401.336	105.81
401.545	89.43
401.754	114
401.963	79.19
402.172	15.7
402.381	-31.4
402.59	54.61
402.799	32.08
403.008	73.04
403.217	134.48
403.426	91.48
403.635	73.04
403.844	42.32
404.053	81.24
404.262	91.48
404.471	159.06
404.68	154.96
404.888	134.48
405.097	81.24
405.306	93.52
405.515	159.06
405.724	124.24
405.933	138.58
406.142	132.44
406.35	148.82
406.559	169.3
406.768	116.05
406.977	204.11
407.185	150.87
407.394	167.25
407.603	116.05
407.812	138.58
408.02	175.44
408.229	247.12
408.438	183.63
408.646	140.63
408.855	197.97
409.064	197.97
409.272	159.06
409.481	226.64
409.69	191.83
409.898	187.73
410.107	208.21
410.315	148.82
410.524	171.35
410.733	302.42
410.941	286.03
411.15	230.74
411.358	290.13
411.567	318.8
411.775	273.75
411.984	193.87
412.192	298.32
412.401	275.79
412.609	296.27
412.818	386.38
413.026	318.8
413.234	310.61
413.443	347.47
413.651	275.79
413.86	398.67
414.068	384.34
414.276	441.68
414.485	326.99
414.693	460.11
414.901	466.25
415.11	384.34
415.318	408.91
415.526	417.1
415.734	527.69
415.943	552.27
416.151	474.45
416.359	548.17
416.567	515.41
416.776	525.65
416.984	582.99
417.192	613.71
417.4	542.03
417.608	681.29
417.817	671.05
418.025	621.9
418.233	693.58
418.441	714.06
418.649	691.53
418.857	773.45
419.065	802.12
419.273	847.18
419.481	828.74
419.689	1047.88
419.897	916.81
420.105	922.95
420.313	986.44
420.521	984.39
420.729	996.68
420.937	1051.97
421.145	1101.12
421.353	1094.98
421.561	1219.91
421.769	1158.47
421.977	1215.81
422.185	1181
422.393	1197.38
422.601	1432.9
422.809	1414.46
423.017	1436.99
423.224	1615.16
423.432	1516.86
423.64	1531.2
423.848	1719.61
424.056	1510.72
424.263	1822.01
424.471	1774.91
424.679	1783.1
424.887	1731.9
425.094	1942.84
425.302	1905.98
425.51	2088.25
425.718	2032.95
425.925	2102.58
426.133	2256.18
426.341	2157.88
426.548	2409.78
426.756	2440.5
426.964	2432.3
427.171	2563.37
427.379	2686.25
427.586	2641.2
427.794	2727.21
428.001	2944.3
428.209	2977.06
428.417	2921.77
428.624	3077.41
428.832	3124.52
429.039	3155.24
429.247	3169.57
429.454	3392.8
429.662	3646.75
429.869	3491.1
430.076	3704.09
430.284	3562.78
430.491	3794.2
430.699	3949.85
430.906	4023.58
431.114	4091.16
431.321	4250.9
431.528	4193.56
431.736	4515.09
431.943	4685.07
432.15	4707.6
432.358	4644.11
432.565	4881.67
432.772	4828.43
432.979	5133.57
433.187	5369.09
433.394	5113.1
433.601	5596.42
433.808	5414.15
434.016	5465.35
434.223	5618.94
434.43	6251.77
434.637	6028.54
434.844	6452.47
435.052	6702.32
435.259	6409.46
435.466	6585.58
435.673	6474.99
435.88	7003.37
436.087	7199.98
436.294	7251.17
436.501	7077.1
436.708	7249.13
436.915	7511.27
437.122	7828.7
437.329	7765.21
437.537	7961.82
437.743	8037.59
437.95	7978.2
438.157	8416.47
438.364	8645.84
438.571	8633.55
438.778	8735.95
438.985	9637.06
439.192	9305.29
439.399	9620.67
439.606	9395.4
439.813	9952.45
440.02	10597.56
440.227	10239.16
440.433	10185.91
440.64	10570.93
440.847	10296.5
441.054	10572.98
441.261	11402.41
441.467	11279.53
441.674	11390.12
441.881	12039.33
442.088	11898.02
442.294	12049.57
442.501	12139.68
442.708	12483.73
442.914	12948.62
443.121	13296.78
443.328	13079.69
443.534	13958.27
443.741	13577.35
443.948	13376.65
444.154	14222.46
444.361	14361.72
444.568	14492.79
444.774	14285.95
444.981	14781.56
445.187	15010.93
445.394	15625.32
445.6	15541.35
445.807	16997.46
446.013	16229.47
446.22	16444.51
446.426	17220.69
446.633	17486.92
446.839	18011.2
447.046	17318.99
447.252	18328.64
447.459	18324.54
447.665	18250.81
447.871	19000.37
448.078	19893.29
448.284	18867.25
448.491	19354.67
448.697	20354.08
448.903	20546.59
449.11	20825.11
449.316	20386.85
449.522	20800.54
449.728	21464.08
449.935	21480.46
450.141	21885.96
450.347	21939.21
450.553	21150.74
450.76	21578.76
450.966	22406.14
451.172	22062.08
451.378	22795.26
451.584	22438.91
451.791	22848.5
451.997	22803.45
452.203	23475.18
452.409	23264.24
452.615	22887.42
452.821	22023.17
453.027	22078.47
453.233	23378.93
453.44	22234.11
453.646	22926.33
453.852	22873.08
454.058	23340.02
454.264	22520.83
454.47	23090.16
454.676	22174.72
454.882	23403.5
455.088	21052.44
455.294	21500.94
455.5	21765.13
455.705	22010.89
455.911	21232.66
456.117	20655.13
456.323	20837.4
456.529	19625
456.735	20472.86
456.941	20065.32
457.147	19389.49
457.352	19326
457.558	18838.58
457.764	19080.24
457.97	18463.8
458.176	18072.64
458.381	18318.4
458.587	17089.62
458.793	17378.38
458.999	16419.93
459.204	17673.29
459.41	16952.4
459.616	15998.05
459.821	16002.15
460.027	16120.93
460.233	15666.28
460.438	14963.82
460.644	15113.33
460.85	14449.78
461.055	14396.54
461.261	14081.15
461.466	13229.2
461.672	12737.68
461.878	13655.17
462.083	12752.02
462.289	12534.93
462.494	12364.95
462.7	11773.09
462.905	11666.6
463.111	11762.85
463.316	12106.91
463.522	11693.22
463.727	11607.2
463.932	11599.01
464.138	11633.83
464.343	12027.04
464.549	11328.68
464.754	11664.55
464.959	11347.11
465.165	11429.03
465.37	10912.94
465.575	10837.17
465.781	11005.1
465.986	11168.94
466.191	10988.72
466.397	10624.18
466.602	10173.63
466.807	10683.57
467.012	10493.11
467.218	10519.73
467.423	10251.45
467.628	10460.34
467.833	10806.45
468.038	10398.9
468.244	10210.49
468.449	10560.69
468.654	10341.56
468.859	10316.98
469.064	10003.64
469.269	9727.17
469.474	9888.96
469.679	9874.62
469.885	9710.79
470.09	9878.72
470.295	9747.65
470.5	9471.17
470.705	9692.35
470.91	9206.98
471.115	9458.89
471.32	9391.3
471.525	9319.62
471.73	9170.12
471.935	9249.99
472.139	8735.95
472.344	9002.19
472.549	8748.24
472.754	8846.54
472.959	8641.75
473.164	8414.42
473.369	8387.8
473.574	8813.77
473.778	8645.84
473.983	8375.51
474.188	8424.66
474.393	8113.37
474.598	8119.51
474.802	8078.55
475.007	7838.94
475.212	7914.72
475.417	7625.95
475.621	7808.22
475.826	7908.57
476.031	7472.36
476.235	7511.27
476.44	7650.53
476.645	7474.4
476.849	7498.98
477.054	7468.26
477.259	7183.59
477.463	7118.06
477.668	7085.29
477.872	7159.02
478.077	7120.1
478.282	6868.2
478.486	6853.87
478.691	6683.89
478.895	6862.06
479.1	6726.89
479.304	6798.57
479.509	6583.54
479.713	6702.32
479.918	6565.11
480.122	6384.88
480.326	6608.11
480.531	6474.99
480.735	6501.62
480.94	6178.04
481.144	6505.71
481.348	6200.57
481.553	6323.44
481.757	6184.18
481.961	6219
482.166	6249.72
482.37	6335.73
482.574	6278.39
482.778	6309.11
482.983	6343.92
483.187	6352.12
483.391	6479.09
483.595	6139.13
483.8	6182.14
484.004	6153.46
484.208	6223.09
484.412	6196.47
484.616	6397.17
484.821	6200.57
485.025	5975.29
485.229	6175.99
485.433	6102.26
485.637	6216.95
485.841	6063.35
486.045	6157.56
486.249	6262.01
486.453	6167.8
486.657	6219
486.861	6384.88
487.065	6298.87
487.269	6102.26
487.473	6276.34
487.677	6417.65
487.881	6329.59
488.085	6399.22
488.289	6284.53
488.493	6247.67
488.697	6378.74
488.901	6477.04
489.105	6339.83
489.309	6401.27
489.512	6462.71
489.716	6472.95
489.92	6464.75
490.124	6266.1
490.328	6528.24
490.531	6417.65
490.735	6370.55
490.939	6528.24
491.143	6620.4
491.346	6458.61
491.55	6669.55
491.754	6704.37
491.958	6546.67
492.161	6739.18
492.365	6569.2
492.569	6692.08
492.772	6741.23
492.976	6841.58
493.18	6823.15
493.383	6927.6
493.587	7015.66
493.79	7015.66
493.994	6950.12
494.197	7060.71
494.401	7161.06
494.605	7199.98
494.808	7283.94
495.012	7232.74
495.215	7220.46
495.419	7490.79
495.622	7453.92
495.825	7425.25
496.029	7519.46
496.232	7584.99
496.436	7558.37
496.639	7847.13
496.843	7871.71
497.046	8332.5
497.249	8070.36
497.453	8125.66
497.656	8115.42
497.859	8170.71
498.063	8510.68
498.266	8631.51
498.469	8527.06
498.673	8625.36
498.876	8668.37
499.079	8727.76
499.282	8907.98
499.485	9219.27
499.689	8963.28
499.892	9098.44
500.095	9266.38
500.298	9528.52
500.501	9428.17
500.705	9487.56
500.908	9862.33
501.111	9917.63
501.314	10036.41
501.517	10069.18
501.72	10255.54
501.923	10339.51
502.126	10484.92
502.329	10730.67
502.532	10855.6
502.735	10628.28
502.938	10939.57
503.141	10894.51
503.344	11248.81
503.547	11332.78
503.75	11457.7
503.953	11990.17
504.156	11799.71
504.359	12119.2
504.562	12125.34
504.765	12426.39
504.968	12463.26
505.17	12483.73
505.373	12467.35
505.576	12950.67
505.779	12817.55
505.982	13266.06
506.185	13352.07
506.387	13421.7
506.59	13638.79
506.793	13839.49
506.996	13757.57
507.198	14017.66
507.401	14058.62
507.604	14353.53
507.807	14425.21
508.009	14929.01
508.212	14861.43
508.415	15109.23
508.617	15228.01
508.82	15594.6
509.022	15271.02
509.225	15834.21
509.428	15926.37
509.63	16141.41
509.833	15899.75
510.035	16749.65
510.238	16548.95
510.44	16665.69
510.643	16854.1
510.845	17349.71
511.048	17054.8
511.25	17194.06
511.453	17464.39
511.655	17947.72
511.858	18218.05
512.06	17984.58
512.262	18431.04
512.465	18605.11
512.667	18814.01
512.87	18924.6
513.072	19029.04
513.274	19776.55
513.477	19811.37
513.679	19954.72
513.881	20100.13
514.084	20251.68
514.286	20333.6
514.488	20429.85
514.69	21027.86
514.893	20798.49
515.095	21224.47
515.297	21433.36
515.499	21679.11
515.701	22053.89
515.904	21871.62
516.106	22072.32
516.308	22451.2
516.51	22748.15
516.712	23004.15
516.914	23049.21
517.116	23649.26
517.318	23284.72
517.52	23475.18
517.722	23835.63
517.925	24089.57
518.127	24445.92
518.329	24517.6
518.531	24499.17
518.733	25000.92
518.935	25615.31
519.136	25353.17
519.338	25865.16
519.54	26170.31
519.742	26076.1
519.944	26434.5
520.146	26627.01
520.348	26637.25
520.55	26905.53
520.752	27163.57
520.954	27786.16
521.155	27876.27
521.357	27906.99
521.559	28187.56
521.761	28461.99
521.963	28181.42
522.164	28478.37
522.366	28482.47
522.568	28765.09
522.77	29277.08
522.971	29791.12
523.173	29297.56
523.375	29922.19
523.576	29610.9
523.778	30028.68
523.98	30319.49
524.181	30524.29
524.383	30624.64
524.584	31155.07
524.786	31026.04
524.988	30991.23
525.189	31437.69
525.391	31566.71
525.592	31507.32
525.794	31720.31
525.995	31961.97
526.197	31906.67
526.398	31912.81
526.6	32287.59
526.801	32398.18
527.003	32775.01
527.204	32545.64
527.406	32512.87
527.607	32668.51
527.808	33168.22
528.01	32871.26
528.211	32877.41
528.412	33717.07
528.614	33483.61
528.815	33631.06
529.016	33745.75
529.218	33586
529.419	33565.53
529.62	33508.18
529.822	33534.81
530.023	33874.77
530.224	33975.12
530.425	33833.81
530.626	33885.01
530.828	33860.43
531.029	34532.17
531.23	33882.96
531.431	34253.64
531.632	34644.8
531.833	34161.48
532.035	34265.93
532.236	34429.77
532.437	34829.12
532.638	34710.34
532.839	34458.44
533.04	34845.51
533.241	34552.65
533.442	35232.57
533.643	34646.85
533.844	34474.82
534.045	34913.09
534.246	34675.52
534.447	34986.82
534.648	34642.76
534.849	34696
535.05	34394.95
535.251	34845.51
535.451	34761.54
535.652	34728.77
535.853	34837.31
536.054	35054.4
536.255	34831.17
536.456	34452.3
536.657	35285.82
536.857	34995.01
537.058	34642.76
537.259	35173.18
537.46	35046.21
537.66	35197.76
537.861	35588.92
538.062	34943.81
538.263	35011.39
538.463	34888.51
538.664	34999.1
538.865	34929.47
539.065	35361.59
539.266	34603.85
539.466	35226.43
539.667	34474.82
539.868	35367.74
540.068	34845.51
540.269	34827.07
540.469	35001.15
540.67	34577.22
540.87	35126.08
541.071	34814.79
541.271	35332.92
541.472	35136.32
541.672	34861.89
541.873	34722.63
542.073	34364.23
542.274	35060.54
542.474	35195.71
542.675	34618.18
542.875	35203.9
543.075	34870.08
543.276	34904.9
543.476	35029.82
543.676	34607.94
543.877	34739.01
544.077	34958.14
544.277	34829.12
544.478	35048.25
544.678	35242.81
544.878	34566.98
545.078	34908.99
545.279	34775.87
545.479	34573.13
545.679	34997.06
545.879	34855.75
546.079	34720.58
546.28	34609.99
546.48	34300.75
546.68	34640.71
546.88	34755.39
547.08	34790.21
547.28	34923.33
547.48	34231.11
547.68	34333.51
547.88	34755.39
548.081	34984.77
548.281	34581.32
548.481	34663.24
548.681	34968.38
548.881	34800.45
549.081	34292.55
549.28	34464.58
549.48	34644.8
549.68	34468.68
549.88	34671.43
550.08	34431.82
550.28	35013.44
550.48	34468.68
550.68	34659.14
550.88	34591.56
551.08	34421.58
551.279	34546.5
551.479	34313.03
551.679	34290.51
551.879	34624.32
552.079	34913.09
552.278	34605.89
552.478	34458.44
552.678	34659.14
552.878	35187.52
553.077	34026.32
553.277	34261.83
553.477	34720.58
553.676	34536.26
553.876	34122.57
554.076	34374.47
554.275	34427.72
554.475	34028.37
554.674	34353.99
554.874	34259.79
555.074	34384.71
555.273	34112.33
555.473	34546.5
555.672	34233.16
555.872	34087.76
556.071	34274.12
556.271	34388.81
556.47	33968.97
556.67	33809.23
556.869	33862.48
557.068	34089.81
557.268	33747.79
557.467	33866.58
557.667	33651.54
557.866	34077.52
558.065	33665.88
558.265	33530.71
558.464	33299.29
558.663	33946.45
558.863	33407.83
559.062	33993.55
559.261	33270.62
559.461	33706.83
559.66	33620.82
559.859	33323.86
560.058	33213.27
560.258	33368.92
560.457	33067.87
560.656	33305.43
560.855	32889.7
561.054	33258.33
561.253	33133.4
561.453	33268.57
561.652	33348.44
561.851	32963.42
562.05	33080.16
562.249	32775.01
562.448	32979.81
562.647	32557.92
562.846	32732
563.045	32713.57
563.244	32525.16
563.443	32758.63
563.642	32504.68
563.841	32734.05
564.04	31988.59
564.239	32934.75
564.438	32330.6
564.637	32564.07
564.836	32340.84
565.035	32039.79
565.234	32168.81
565.432	31947.63
565.631	32136.04
565.83	32066.41
566.029	31857.52
566.228	31765.36
566.427	31884.14
566.625	31679.35
566.824	31579
567.023	31861.62
567.222	30940.03
567.42	31617.91
567.619	31435.64
567.818	31466.36
568.016	31445.88
568.215	31368.05
568.414	31306.62
568.612	31390.58
568.811	31200.12
569.01	31183.74
569.208	30755.71
569.407	30724.99
569.605	30352.26
569.804	30991.23
570.002	30415.75
570.201	30782.34
570.4	30567.3
570.598	30153.61
570.797	30417.8
570.995	30694.27
571.193	30305.16
571.392	30378.89
571.59	29778.83
571.789	30380.93
571.987	30178.18
572.186	29617.04
572.384	29629.33
572.582	30133.13
572.781	29838.22
572.979	29614.99
573.177	29586.32
573.376	29813.65
573.574	29307.8
573.772	29604.75
573.971	29475.73
574.169	29162.39
574.367	28722.08
574.565	29164.44
574.763	28857.24
574.962	29010.84
575.16	28781.47
575.358	28953.5
575.556	28531.62
575.754	28832.67
575.952	28396.45
576.151	28842.91
576.349	28183.46
576.547	28416.93
576.745	28373.92
576.943	27941.8
577.141	28150.7
577.339	28220.33
577.537	27980.71
577.735	28003.24
577.933	27634.61
578.131	28009.39
578.329	27888.56
578.527	27567.02
578.725	27481.01
578.923	27579.31
579.121	27362.23
579.319	27077.56
579.516	27489.2
579.714	27386.8
579.912	26989.5
580.11	26962.87
580.308	27145.14
580.506	27251.64
580.704	26598.34
580.901	27034.55
581.099	26934.2
581.297	26430.4
581.495	26510.27
581.692	26610.62
581.89	26629.05
582.088	26381.25
582.285	26330.05
582.483	26475.46
582.681	26233.8
582.878	26364.87
583.076	25807.82
583.274	25899.98
583.471	25699.28
583.669	25455.57
583.866	25828.3
584.064	26014.66
584.262	25627.6
584.459	25932.75
584.657	25091.03
584.854	26084.3
585.052	25027.54
585.249	25203.67
585.447	25308.12
585.644	25125.85
585.841	25234.39
586.039	25207.76
586.236	25007.06
586.434	24564.7
586.631	24794.07
586.828	24968.15
587.026	24703.96
587.223	24587.23
587.42	24378.34
587.618	24525.79
587.815	24368.1
588.012	24296.42
588.21	24341.47
588.407	24298.47
588.604	24108.01
588.801	23841.77
588.999	24087.53
589.196	23958.5
589.393	23809
589.59	23749.61
589.787	24095.72
589.984	23649.26
590.182	23374.83
590.379	23561.2
590.576	23591.92
590.773	23444.46
590.97	22922.23
591.167	23223.28
591.364	22762.49
591.561	23321.59
591.758	22901.75
591.955	22842.36
592.152	23413.74
592.349	22635.52
592.546	22791.16
592.743	22877.18
592.94	22170.63
593.137	22576.12
593.334	22942.71
593.531	22313.98
593.727	22359.04
593.924	22326.27
594.121	22082.56
594.318	22445.05
594.515	21871.62
594.712	22354.94
594.908	21978.12
595.105	22182.91
595.302	21888.01
595.499	21734.41
595.696	21533.71
595.892	21662.73
596.089	21801.99
596.286	21582.86
596.482	21511.18
596.679	21498.89
596.876	21427.21
597.072	21187.6
597.269	21382.16
597.466	21152.79
597.662	21117.97
597.859	20939.8
598.055	20964.37
598.252	20839.45
598.448	20954.13
598.645	20747.29
598.841	20626.46
599.038	21029.91
599.234	20589.6
599.431	20636.7
599.627	20270.11
599.824	20651.03
600.02	20575.26
600.217	20405.28
600.413	20198.43
600.609	20397.09
600.806	20053.03
601.002	20073.51
601.198	19911.72
601.395	20325.41
601.591	19846.18
601.787	20050.98
601.984	19573.8
602.18	19792.94
602.376	19719.21
602.572	19573.8
602.769	19366.96
602.965	19225.65
603.161	19512.36
603.357	19375.15
603.553	19262.51
603.75	19319.85
603.946	19258.42
604.142	19369.01
604.338	19014.71
604.534	18983.99
604.73	18965.56
604.926	18871.35
605.122	18938.93
605.318	18873.4
605.514	18615.35
605.71	18617.4
605.906	18408.51
606.102	18385.98
606.298	18482.24
606.494	18736.18
606.69	18809.91
606.886	18457.66
607.082	18205.76
607.278	18752.57
607.474	17921.09
607.67	18129.98
607.866	17998.91
608.062	18242.62
608.257	17873.99
608.453	17945.67
608.649	17943.62
608.845	17693.77
609.041	17777.73
609.236	17740.87
609.432	17685.58
609.628	17884.23
609.824	17517.64
610.019	17921.09
610.215	17370.19
610.411	17556.55
610.606	17488.97
610.802	17609.8
610.998	17384.52
611.193	17298.51
611.389	17116.24
611.584	16966.74
611.78	16958.55
611.976	17329.23
612.171	17032.27
612.367	17380.43
612.562	17067.09
612.758	16807
612.953	16884.82
613.149	17091.66
613.344	16811.09
613.539	17165.39
613.735	16727.13
613.93	16684.12
614.126	16608.34
614.321	16946.26
614.517	16559.19
614.712	16790.61
614.907	16522.33
615.103	16563.29
615.298	16522.33
615.493	16467.03
615.688	16245.85
615.884	16565.34
616.079	16307.29
616.274	16338.01
616.47	16583.77
616.665	16286.81
616.86	16030.82
617.055	16403.55
617.25	15936.61
617.445	16211.04
617.641	15936.61
617.836	15973.47
618.031	15680.61
618.226	15895.65
618.421	15744.1
618.616	15985.76
618.811	15539.3
619.006	15580.26
619.201	15361.13
619.396	15385.71
619.591	15334.51
619.786	15438.95
619.981	15156.33
620.176	15287.4
620.371	15105.13
620.566	15189.1
620.761	14795.89
620.956	15058.03
621.151	14941.3
621.346	15060.08
621.541	14875.76
621.735	14863.47
621.93	14660.73
622.125	14701.68
622.32	14156.93
622.515	14437.5
622.709	14374.01
622.904	14521.46
623.099	14230.65
623.294	14195.84
623.488	13970.56
623.683	14120.06
623.878	13698.18
624.072	14118.01
624.267	13804.67
624.462	13634.69
624.656	13599.88
624.851	13614.21
625.046	13458.57
625.24	13687.94
625.435	13270.15
625.629	13241.48
625.824	13178
626.018	13239.44
626.213	12735.64
626.407	12893.33
626.602	12887.18
626.796	12952.72
626.991	12825.75
627.185	12876.94
627.38	12618.9
627.574	12487.83
627.768	12459.16
627.963	12551.32
628.157	12168.35
628.352	12321.95
628.546	12117.15
628.74	12129.44
628.935	12065.95
629.129	12108.96
629.323	11969.69
629.517	11879.58
629.712	11936.93
629.906	11844.77
630.1	11658.4
630.294	11699.36
630.489	11402.41
630.683	11543.72
630.877	11254.95
631.071	11300.01
631.265	11461.8
631.459	11439.27
631.653	11279.53
631.848	11324.58
632.042	11111.6
632.236	11070.64
632.43	11050.16
632.624	11011.25
632.818	10822.83
633.012	10759.35
633.206	10771.63
633.4	10802.35
633.594	10509.49
633.788	10607.8
633.982	10396.85
634.176	10669.23
634.369	10591.41
634.563	10468.53
634.757	10491.06
634.951	10452.15
635.145	10292.41
635.339	10405.05
635.533	10163.39
635.726	10071.23
635.92	9970.88
636.114	10067.13
636.308	9821.38
636.501	9999.55
636.695	10020.03
636.889	9716.93
637.083	9772.22
637.276	9643.2
637.47	9704.64
637.664	9422.02
637.857	9612.48
638.051	9362.63
638.244	9370.82
638.438	9309.38
638.632	9370.82
638.825	9239.75
639.019	9184.46
639.212	9100.49
639.406	9094.35
639.599	9026.76
639.793	8936.65
639.986	8871.12
640.18	9055.44
640.373	8670.42
640.567	8604.88
640.76	8740.05
640.954	8721.62
641.147	8664.27
641.34	8715.47
641.534	8541.4
641.727	8453.33
641.92	8551.63
642.114	8451.28
642.307	8316.12
642.5	8193.24
642.694	8125.66
642.887	8090.84
643.08	8158.42
643.273	8207.58
643.467	8002.78
643.66	7949.53
643.853	7898.33
644.046	7783.65
644.239	7963.87
644.432	7736.54
644.626	7671.01
644.819	7740.64
645.012	7787.74
645.205	7668.96
645.398	7437.54
645.591	7511.27
645.784	7384.29
645.977	7392.48
646.17	7421.16
646.363	7392.48
646.556	7195.88
646.749	7285.99
646.942	7269.61
647.135	7230.69
647.328	7292.13
647.521	7202.02
647.714	7091.43
647.907	6989.03
648.099	7056.62
648.292	7156.97
648.485	6647.02
648.678	6855.92
648.871	6767.85
649.064	6714.61
649.256	6937.84
649.449	6708.46
649.642	6577.39
649.835	6604.02
650.027	6593.78
650.22	6612.21
650.413	6423.8
650.605	6655.22
650.798	6587.63
650.991	6397.17
651.183	6464.75
651.376	6106.36
651.568	6503.67
651.761	6192.37
651.954	6210.81
652.146	6364.4
652.339	6259.96
652.531	6098.17
652.724	6292.73
652.916	5872.89
653.109	6049.02
653.301	6175.99
653.494	5932.28
653.686	5825.79
653.879	6012.15
654.071	5758.21
654.263	5750.01
654.456	5823.74
654.648	5913.85
654.84	5799.16
655.033	5784.83
655.225	5614.85
655.417	5641.47
655.61	5664
655.802	5616.9
655.994	5504.26
656.186	5711.1
656.379	5461.25
656.571	5491.97
656.763	5332.23
656.955	5268.74
657.148	5397.76
657.34	5262.6
657.532	5205.25
657.724	5078.28
657.916	5334.28
658.108	5225.73
658.3	5033.22
658.492	4975.88
658.684	5094.66
658.876	4957.45
659.068	4975.88
659.26	4906.25
659.452	4881.67
659.644	4850.96
659.836	4914.44
660.028	4963.59
660.22	4922.63
660.412	4863.24
660.604	4687.12
660.796	4861.2
660.988	4668.69
661.18	4611.34
661.372	4695.31
661.563	4695.31
661.755	4637.97
661.947	4668.69
662.139	4476.18
662.331	4529.42
662.522	4513.04
662.714	4400.4
662.906	4390.16
663.097	4562.19
663.289	4259.09
663.481	4332.82
663.673	4402.45
663.864	4218.13
664.056	4238.61
664.247	4105.49
664.439	4029.72
664.631	4144.41
664.822	4185.37
665.014	4166.93
665.205	4076.82
665.397	4123.93
665.588	4097.3
665.78	4013.34
665.971	4054.3
666.163	4111.64
666.354	4029.72
666.546	3910.94
666.737	4007.19
666.929	3869.98
667.12	3679.52
667.311	3906.84
667.503	3673.37
667.694	3925.27
667.885	3808.54
668.077	3824.92
668.268	3704.09
668.459	3654.94
668.651	3822.88
668.842	3839.26
669.033	3753.24
669.224	3599.65
669.416	3527.97
669.607	3646.75
669.798	3609.89
669.989	3499.3
670.18	3476.77
670.371	3468.58
670.563	3441.95
670.754	3552.54
670.945	3523.87
671.136	3458.34
671.327	3452.19
671.518	3382.56
671.709	3556.64
671.9	3464.48
672.091	3278.12
672.282	3423.52
672.473	3382.56
672.664	3386.66
672.855	3243.3
673.046	3302.69
673.237	3327.27
673.428	3161.38
673.619	3392.8
673.809	3212.58
674	3276.07
674.191	3177.76
674.382	3112.23
674.573	3190.05
674.764	3153.19
674.954	3208.48
675.145	3052.84
675.336	3099.94
675.527	3026.22
675.717	3116.33
675.908	3054.89
676.099	3194.15
676.289	3237.16
676.48	3069.22
676.671	2983.21
676.861	3196.2
677.052	3046.69
677.243	3042.6
677.433	2989.35
677.624	3024.17
677.814	2942.25
678.005	2911.53
678.195	2975.02
678.386	3013.93
678.576	3013.93
678.767	2929.96
678.957	2800.94
679.148	2962.73
679.338	2800.94
679.529	2952.49
679.719	3042.6
679.909	2923.82
680.1	2858.28
680.29	2864.43
680.481	2854.19
680.671	2927.91
680.861	3020.07
681.052	2884.91
681.242	2981.16
681.432	2956.58
681.622	2917.67
681.813	2817.32
682.003	2802.99
682.193	2876.71
682.383	2899.24
682.573	2743.6
682.764	2907.43
682.954	2743.6
683.144	2862.38
683.334	2837.8
683.524	2811.18
683.714	2876.71
683.904	2729.26
684.094	2819.37
684.284	2802.99
684.474	2733.36
684.664	2817.32
684.854	2848.04
685.044	2796.84
685.234	2786.6
685.424	2827.56
685.614	2671.92
685.804	2770.22
685.994	2782.51
686.184	2723.12
686.374	2710.83
686.564	2764.08
686.753	2759.98
686.943	2755.88
687.133	2596.14
687.323	2772.27
687.513	2649.39
687.702	2762.03
687.892	2694.44
688.082	2612.53
688.272	2579.76
688.461	2628.91
688.651	2702.64
688.841	2604.33
689.03	2622.77
689.22	2727.21
689.41	2645.29
689.599	2659.63
689.789	2557.23
689.979	2647.34
690.168	2471.22
690.358	2610.48
690.547	2563.37
690.737	2575.66
690.926	2518.32
691.116	2639.15
691.305	2571.57
691.495	2489.65
691.684	2465.07
691.874	2514.22
692.063	2516.27
692.252	2448.69
692.442	2563.37
692.631	2450.74
692.82	2508.08
693.01	2444.59
693.199	2524.46
693.388	2448.69
693.578	2385.2
693.767	2491.7
693.956	2340.15
694.146	2383.15
694.335	2473.26
694.524	2450.74
694.713	2434.35
694.902	2559.28
695.092	2471.22
695.281	2370.87
695.47	2420.02
695.659	2309.43
695.848	2366.77
696.037	2366.77
696.226	2440.5
696.415	2360.63
696.604	2374.96
696.793	2393.39
696.982	2503.98
697.171	2344.24
697.36	2407.73
697.549	2243.89
697.738	2293.04
697.927	2280.75
698.116	2387.25
698.305	2342.19
698.494	2434.35
698.683	2323.76
698.872	2391.34
699.061	2260.27
699.25	2428.21
699.438	2268.47
699.627	2295.09
699.816	2309.43
700.005	2186.55
700.193	2309.43
700.382	2327.86
700.571	2317.62
700.76	2231.6
700.948	2284.85
701.137	2276.66
701.326	2358.58
701.514	2350.39
701.703	2254.13
701.892	2309.43
702.08	2346.29
702.269	2288.95
702.457	2247.99
702.646	2297.14
702.834	2157.88
703.023	2176.31
703.212	2235.7
703.4	2137.4
703.589	2112.82
703.777	2239.8
703.965	2096.44
704.154	2161.97
704.342	2241.84
704.531	2153.78
704.719	2178.36
704.907	2211.12
705.096	2123.06
705.284	2141.49
705.472	2196.79
705.661	2235.7
705.849	2114.87
706.037	2204.98
706.226	2127.16
706.414	2159.92
706.602	2110.77
706.79	2153.78
706.979	2243.89
707.167	2106.68
707.355	2155.83
707.543	2143.54
707.731	2155.83
707.919	2121.01
708.107	2188.6
708.296	2067.77
708.484	2223.41
708.672	2106.68
708.86	2063.67
709.048	2071.86
709.236	2176.31
709.424	2026.81
709.612	2035
709.8	2166.07
709.988	2080.05
710.176	2026.81
710.364	2145.59
710.551	1998.13
710.739	2161.97
710.927	2090.29
711.115	2000.18
711.303	2006.33
711.491	2063.67
711.679	2026.81
711.866	2086.2
712.054	1975.61
712.242	1981.75
712.43	2078.01
712.617	2043.19
712.805	2051.38
712.993	1994.04
713.181	2010.42
713.368	2080.05
713.556	2071.86
713.744	2039.09
713.931	2047.29
714.119	2014.52
714.306	2024.76
714.494	1965.37
714.682	1926.46
714.869	1998.13
715.057	1967.42
715.244	2016.57
715.432	1985.85
715.619	1944.89
715.807	1912.12
715.994	2000.18
716.182	2014.52
716.369	1961.27
716.556	1977.66
716.744	1903.93
716.931	1918.26
717.119	1924.41
717.306	1893.69
717.493	1920.31
717.681	1953.08
717.868	1905.98
718.055	1998.13
718.242	1828.15
718.43	1901.88
718.617	1871.16
718.804	1824.06
718.991	1903.93
719.179	1959.22
719.366	1908.02
719.553	1932.6
719.74	1918.26
719.927	1867.06
720.114	1834.3
720.301	1916.22
720.488	1916.22
720.676	1885.5
720.863	1932.6
721.05	1916.22
721.237	1842.49
721.424	1867.06
721.611	1932.6
721.798	1908.02
721.985	1875.26
722.172	1862.97
722.358	1850.68
722.545	1793.34
722.732	1926.46
722.919	1834.3
723.106	1910.07
723.293	1826.11
723.48	1854.78
723.667	1877.3
723.853	1779
724.04	1867.06
724.227	1846.59
724.414	1801.53
724.6	1695.04
724.787	1899.83
724.974	1809.72
725.161	1762.62
725.347	1756.47
725.534	1787.19
725.72	1801.53
725.907	1869.11
726.094	1748.28
726.28	1680.7
726.467	1754.43
726.653	1801.53
726.84	1738.04
727.027	1813.82
727.213	1764.67
727.4	1809.72
727.586	1674.56
727.773	1795.39
727.959	1785.15
728.145	1793.34
728.332	1760.57
728.518	1856.83
728.705	1819.96
728.891	1723.71
729.077	1789.24
729.264	1656.12
729.45	1717.56
729.636	1770.81
729.823	1705.28
730.009	1867.06
730.195	1680.7
730.382	1711.42
730.568	1676.6
730.754	1768.76
730.94	1719.61
731.126	1731.9
731.313	1838.39
731.499	1756.47
731.685	1772.86
731.871	1623.36
732.057	1727.8
732.243	1754.43
732.429	1678.65
732.615	1754.43
732.801	1721.66
732.987	1711.42
733.173	1699.13
733.359	1672.51
733.545	1582.4
733.731	1561.92
733.917	1735.99
734.103	1776.95
734.289	1672.51
734.475	1621.31
734.661	1746.23
734.847	1744.19
735.033	1623.36
735.219	1604.92
735.404	1688.89
735.59	1723.71
735.776	1686.84
735.962	1744.19
736.148	1672.51
736.333	1705.28
736.519	1553.73
736.705	1629.5
736.89	1645.88
737.076	1703.23
737.262	1613.12
737.447	1609.02
737.633	1531.2
737.819	1647.93
738.004	1600.83
738.19	1541.44
738.375	1539.39
738.561	1582.4
738.747	1623.36
738.932	1649.98
739.118	1647.93
739.303	1572.16
739.489	1637.69
739.674	1482.05
739.859	1609.02
740.045	1604.92
740.23	1615.16
740.416	1533.25
740.601	1508.67
740.786	1588.54
740.972	1482.05
741.157	1459.52
741.342	1400.13
741.528	1541.44
741.713	1584.45
741.898	1494.33
742.084	1543.49
742.269	1512.77
742.454	1447.23
742.639	1471.81
742.824	1453.38
743.01	1473.85
743.195	1506.62
743.38	1451.33
743.565	1568.06
743.75	1506.62
743.935	1475.9
744.12	1541.44
744.305	1400.13
744.49	1375.55
744.675	1443.14
744.86	1393.98
745.045	1434.94
745.23	1385.79
745.415	1428.8
745.6	1342.78
745.785	1322.31
745.97	1498.43
746.155	1439.04
746.34	1355.07
746.525	1342.78
746.71	1334.59
746.895	1318.21
747.079	1350.98
747.264	1367.36
747.449	1393.98
747.634	1297.73
747.819	1326.4
748.003	1248.58
748.188	1264.96
748.373	1287.49
748.557	1387.84
748.742	1295.68
748.927	1269.06
749.111	1197.38
749.296	1242.43
749.481	1166.66
749.665	1181
749.85	1154.37
750.034	1295.68
750.219	1156.42
750.404	1154.37
750.588	1187.14
750.773	1117.51
750.957	1168.71
751.141	1127.75
751.326	1207.62
751.51	1082.69
751.695	1090.88
751.879	1080.64
752.064	1185.09
752.248	1099.08
752.432	1148.23
752.617	1080.64
752.801	1099.08
752.985	1135.94
753.17	1058.12
753.354	1043.78
753.538	1056.07
753.722	1045.83
753.907	1049.93
754.091	1133.89
754.275	1090.88
754.459	1035.59
754.643	945.48
754.828	1015.11
755.012	992.58
755.196	963.91
755.38	974.15
755.564	982.34
755.748	937.29
755.932	965.96
756.116	1011.01
756.3	965.96
756.484	998.73
756.668	1015.11
756.852	961.86
757.036	838.98
757.22	974.15
757.404	892.23
757.588	867.66
757.772	916.81
757.956	908.62
758.14	922.95
758.323	892.23
758.507	963.91
758.691	867.66
758.875	892.23
759.059	912.71
759.242	830.79
759.426	816.46
759.61	838.98
759.794	761.16
759.977	847.18
760.161	896.33
760.345	929.1
760.528	836.94
760.712	779.59
760.895	843.08
761.079	736.59
761.263	777.55
761.446	798.03
761.63	740.68
761.813	787.79
761.997	869.7
762.18	810.31
762.364	859.46
762.547	736.59
762.731	838.98
762.914	859.46
763.098	740.68
763.281	744.78
763.464	755.02
763.648	812.36
763.831	720.2
764.015	804.17
764.198	699.72
764.381	783.69
764.564	742.73
764.748	738.63
764.931	763.21
765.114	755.02
765.297	765.26
765.481	703.82
765.664	707.91
765.847	744.78
766.03	802.12
766.213	707.91
766.397	687.43
766.58	697.67
766.763	693.58
766.946	671.05
767.129	720.2
767.312	609.61
767.495	666.96
767.678	712.01
767.861	615.76
768.044	601.42
768.227	654.67
768.41	630.09
768.593	695.63
768.776	675.15
768.959	697.67
769.142	736.59
769.324	671.05
769.507	707.91
769.69	679.24
769.873	556.36
770.056	728.39
770.239	660.81
770.421	664.91
770.604	617.8
770.787	638.28
770.97	589.13
771.152	671.05
771.335	660.81
771.518	580.94
771.7	632.14
771.883	630.09
772.066	638.28
772.248	630.09
772.431	566.6
772.613	671.05
772.796	539.98
772.978	644.43
773.161	644.43
773.343	576.84
773.526	587.08
773.708	597.32
773.891	507.21
774.073	654.67
774.256	560.46
774.438	621.9
774.621	527.69
774.803	531.79
774.985	490.83
775.168	542.03
775.35	607.56
775.532	509.26
775.715	486.73
775.897	511.31
776.079	533.84
776.261	443.73
776.444	552.27
776.626	499.02
776.808	556.36
776.99	443.73
777.173	525.65
777.355	470.35
777.537	535.89
777.719	501.07
777.901	468.3
778.083	470.35
778.265	425.29
778.447	503.12
778.629	507.21
778.811	490.83
778.993	474.45
779.175	548.17
779.357	552.27
779.539	441.68
779.721	400.72
779.903	449.87
780.085	433.49
780.267	456.01
780.449	441.68
780.631	460.11
780.812	468.3
780.994	345.42
781.176	355.66
781.358	386.38
781.54	386.38
781.721	451.92
781.903	410.96
782.085	318.8
782.267	417.1
782.448	351.57
782.63	425.29
782.812	408.91
782.993	398.67
783.175	400.72
783.357	306.51
783.538	380.24
783.72	361.81
783.901	351.57
784.083	372.05
784.264	378.19
784.446	253.27
784.627	298.32
784.809	308.56
784.99	359.76
785.172	384.34
785.353	310.61
785.535	306.51
785.716	288.08
785.897	398.67
786.079	433.49
786.26	374.1
786.441	419.15
786.623	253.27
786.804	314.7
786.985	372.05
787.167	353.62
787.348	343.38
787.529	370
787.71	425.29
787.891	320.85
788.073	357.71
788.254	212.31
788.435	363.86
788.616	331.09
788.797	279.89
788.978	304.46
789.159	261.46
789.34	345.42
789.522	312.66
789.703	259.41
789.884	294.22
790.065	304.46
790.246	318.8
790.427	281.94
790.607	271.7
790.788	228.69
790.969	238.93
791.15	257.36
791.331	228.69
791.512	220.5
791.693	245.07
791.874	288.08
792.054	294.22
792.235	290.13
792.416	212.31
792.597	181.59
792.778	290.13
792.958	384.34
793.139	263.51
793.32	187.73
793.5	220.5
793.681	283.99
793.862	257.36
794.042	218.45
794.223	269.65
794.404	255.31
794.584	183.63
794.765	261.46
794.945	236.88
795.126	302.42
795.306	290.13
795.487	222.55
795.667	206.16
795.848	255.31
796.028	253.27
796.209	220.5
796.389	263.51
796.57	202.07
796.75	204.11
796.93	142.68
797.111	236.88
797.291	226.64
797.471	290.13
797.652	212.31
797.832	167.25
798.012	249.17
798.192	193.87
798.373	204.11
798.553	195.92
798.733	249.17
798.913	191.83
799.093	208.21
799.274	322.9
799.454	249.17
799.634	220.5
799.814	195.92
799.994	238.93
800.174	126.29
800.354	132.44
800.534	163.15
800.714	200.02
800.894	93.52
801.074	208.21
801.254	154.96
801.434	191.83
801.614	228.69
801.794	124.24
801.974	697.67
802.154	228.69
802.334	228.69
802.514	157.01
802.693	271.7
802.873	146.77
803.053	240.98
803.233	163.15
803.413	208.21
803.592	169.3
803.772	154.96
803.952	109.91
804.131	138.58
804.311	105.81
804.491	150.87
804.67	116.05
804.85	163.15
805.03	238.93
805.209	185.68
805.389	171.35
805.568	148.82
805.748	159.06
805.928	171.35
806.107	148.82
806.287	140.63
806.466	163.15
806.646	134.48
806.825	236.88
807.004	142.68
807.184	118.1
807.363	171.35
807.543	134.48
807.722	109.91
807.901	165.2
808.081	171.35
808.26	71
808.439	83.28
808.619	154.96
808.798	107.86
808.977	204.11
809.156	154.96
809.336	157.01
809.515	181.59
809.694	93.52
809.873	140.63
810.052	134.48
810.231	236.88
810.411	159.06
810.59	189.78
810.769	114
810.948	130.39
811.127	60.76
811.306	167.25
811.485	146.77
811.664	163.15
811.843	122.2
812.022	163.15
812.201	114
812.38	89.43
812.559	95.57
812.737	91.48
812.916	64.85
813.095	60.76
813.274	103.76
813.453	224.59
813.632	171.35
813.811	159.06
813.989	48.47
814.168	105.81
814.347	85.33
814.526	99.67
814.704	114
814.883	159.06
815.062	97.62
815.24	140.63
815.419	77.14
815.598	91.48
815.776	81.24
815.955	107.86
816.133	44.37
816.312	122.2
816.49	60.76
816.669	95.57
816.847	99.67
817.026	73.04
817.204	93.52
817.383	138.58
817.561	97.62
817.74	116.05
817.918	27.99
818.097	73.04
818.275	19.8
818.453	142.68
818.632	173.39
818.81	146.77
818.988	40.28
819.167	122.2
819.345	138.58
819.523	89.43
819.701	36.18
819.879	85.33
820.058	7.51
820.236	138.58
820.414	103.76
820.592	64.85
820.77	34.13
820.948	23.89
821.127	50.52
821.305	91.48
821.483	68.95
821.661	118.1
821.839	40.28
822.017	93.52
822.195	89.43
822.373	91.48
822.551	87.38
822.729	157.01
822.907	13.65
823.085	81.24
823.262	163.15
823.44	138.58
823.618	48.47
823.796	75.09
823.974	81.24
824.152	91.48
824.329	27.99
824.507	3.41
824.685	118.1
824.863	85.33
825.04	64.85
825.218	126.29
825.396	19.8
825.574	157.01
825.751	105.81
825.929	-49.83
826.107	50.52
826.284	91.48
826.462	64.85
826.639	52.56
826.817	62.8
826.994	85.33
827.172	130.39
827.349	140.63
827.527	77.14
827.704	50.52
827.882	56.66
828.059	114
828.237	48.47
828.414	64.85
828.591	40.28
828.769	44.37
828.946	52.56
829.124	150.87
829.301	48.47
829.478	79.19
829.655	32.08
829.833	32.08
830.01	-17.07
830.187	64.85
830.364	66.9
830.542	122.2
830.719	105.81
830.896	21.85
831.073	99.67
831.25	81.24
831.427	66.9
831.604	93.52
831.782	1.37
831.959	64.85
832.136	64.85
832.313	44.37
832.49	-6.83
832.667	48.47
832.844	40.28
833.021	111.96
833.198	46.42
833.374	56.66
833.551	64.85
833.728	68.95
833.905	23.89
834.082	60.76
834.259	60.76
834.436	32.08
834.612	15.7
834.789	89.43
834.966	56.66
835.143	64.85
835.319	42.32
835.496	114
835.673	114
835.85	48.47
836.026	58.71
836.203	3.41
836.38	23.89
836.556	40.28
836.733	64.85
836.909	89.43
837.086	36.18
837.262	68.95
837.439	-21.16
837.616	34.13
837.792	56.66
837.968	30.04
838.145	81.24
838.321	99.67
838.498	124.24
838.674	27.99
838.851	83.28
839.027	44.37
839.203	64.85
839.38	105.81
839.556	91.48
839.732	91.48
839.909	-33.45
840.085	36.18
840.261	68.95
840.437	99.67
840.614	-0.68
840.79	38.23
840.966	68.95
841.142	15.7
841.318	15.7
841.494	56.66
841.671	73.04
841.847	-10.92
842.023	60.76
842.199	27.99
842.375	116.05
842.551	-6.83
842.727	-25.26
842.903	122.2
843.079	116.05
843.255	83.28
843.431	64.85
843.607	17.75
843.783	23.89
843.959	64.85
844.134	3.41
844.31	116.05
844.486	42.32
844.662	13.65
844.838	15.7
845.013	15.7
845.189	150.87
845.365	48.47
845.541	27.99
845.716	32.08
845.892	64.85
846.068	42.32
846.244	7.51
846.419	118.1
846.595	15.7
846.77	56.66
846.946	71
847.122	34.13
847.297	-6.83
847.473	97.62
847.648	-17.07
847.824	23.89
847.999	19.8
848.175	-25.26
848.35	66.9
848.526	107.86
848.701	-6.83
848.876	81.24
849.052	54.61
849.227	105.81
849.403	23.89
849.578	-8.87
849.753	7.51
849.929	15.7
850.104	27.99
850.279	36.18
850.454	32.08
850.63	60.76
850.805	-25.26
850.98	-39.59
851.155	-21.16
851.33	81.24
851.505	-23.21
851.681	77.14
851.856	-94.89
852.031	36.18
852.206	19.8
852.381	23.89
852.556	77.14
852.731	73.04
852.906	25.94
853.081	23.89
853.256	56.66
853.431	-21.16
853.606	-4.78
853.781	25.94
853.956	-15.02
854.131	32.08
854.305	34.13
854.48	73.04
854.655	-37.55
854.83	40.28
855.005	44.37
855.18	-41.64
855.354	-8.87
855.529	1.37
855.704	56.66
855.879	25.94
856.053	-29.35
856.228	-0.68
856.403	1.37
856.577	58.71
856.752	-0.68
856.926	77.14
857.101	32.08
857.276	-15.02
857.45	-17.07
857.625	58.71
857.799	54.61
857.974	38.23
858.148	-37.55
858.323	-8.87
858.497	32.08
858.672	-33.45
858.846	15.7
859.02	-15.02
859.195	23.89
859.369	44.37
859.543	-31.4
859.718	77.14
859.892	34.13
860.066	81.24
860.241	17.75
860.415	32.08
860.589	-47.79
860.763	9.56
860.938	48.47
861.112	73.04
861.286	23.89
861.46	62.8
861.634	23.89
861.808	48.47
861.982	11.61
862.157	21.85
862.331	56.66
862.505	48.47
862.679	-4.78
862.853	34.13
863.027	-25.26
863.201	66.9
863.375	-25.26
863.549	56.66
863.722	85.33
863.896	50.52
864.07	13.65
864.244	105.81
864.418	36.18
864.592	7.51
864.766	44.37
864.939	-31.4
865.113	27.99
865.287	32.08
865.461	32.08
865.634	-23.21
865.808	-0.68
865.982	32.08
866.156	73.04
866.329	-8.87
866.503	-33.45
866.676	34.13
866.85	11.61
867.024	64.85
867.197	48.47
867.371	15.7
867.544	-21.16
867.718	-23.21
867.891	-4.78
868.065	64.85
868.238	-0.68
868.412	-0.68
868.585	60.76
868.759	-29.35
868.932	7.51
869.105	-15.02
869.279	-17.07
869.452	83.28
869.625	-4.78
869.799	-8.87
869.972	-2.73
870.145	-4.78
870.319	52.56
870.492	-8.87
870.665	34.13
870.838	32.08
871.011	-76.46
871.185	-37.55
871.358	-21.16
871.531	56.66
871.704	27.99
871.877	7.51
872.05	15.7
872.223	-12.97
872.396	91.48
872.569	89.43
872.742	-12.97
872.915	42.32
873.088	48.47
873.261	-8.87
873.434	-70.31
873.607	-45.74
873.78	25.94
873.953	-6.83
874.126	27.99
874.299	48.47
874.471	75.09
874.644	-10.92
874.817	95.57
874.99	50.52
875.163	30.04
875.335	9.56
875.508	-19.11
875.681	48.47
875.853	17.75
876.026	-12.97
876.199	-15.02
876.371	-15.02
876.544	-12.97
876.717	-37.55
876.889	25.94
877.062	73.04
877.234	-0.68
877.407	-15.02
877.579	25.94
877.752	-33.45
877.924	42.32
878.097	34.13
878.269	-0.68
878.442	-0.68
878.614	75.09
878.786	7.51
878.959	48.47
879.131	-68.27
879.303	-21.16
879.476	79.19
879.648	11.61
879.82	56.66
879.993	-45.74
880.165	3.41
880.337	-31.4
880.509	99.67
880.681	23.89
880.854	44.37
881.026	-15.02
881.198	81.24
881.37	23.89
881.542	-17.07
881.714	9.56
881.886	-0.68
882.058	15.7
882.23	1.37
882.402	89.43
882.574	25.94
882.746	-8.87
882.918	83.28
883.09	-47.79
883.262	-6.83
883.434	56.66
883.606	19.8
883.778	-4.78
883.95	81.24
884.122	17.75
884.293	-29.35
884.465	23.89
884.637	11.61
884.809	-0.68
884.98	15.7
885.152	11.61
885.324	23.89
885.496	-62.12
885.667	40.28
885.839	40.28
886.011	-58.03
886.182	40.28
886.354	-23.21
886.525	-41.64
886.697	73.04
886.869	-80.55
887.04	48.47
887.212	58.71
887.383	36.18
887.555	60.76
887.726	-66.22
887.897	-31.4
888.069	15.7
888.24	-0.68
888.412	1.37
888.583	-27.31
888.754	-21.16
888.926	-19.11
889.097	-66.22
889.268	-41.64
889.44	42.32
889.611	-37.55
889.782	32.08
889.953	-29.35
890.125	21.85
890.296	-8.87
890.467	-41.64
890.638	-17.07
890.809	36.18
890.98	-76.46
891.151	25.94
891.323	-41.64
891.494	-78.51
891.665	-10.92
891.836	7.51
892.007	-0.68
892.178	15.7
892.349	40.28
892.52	23.89
892.691	68.95
892.862	34.13
893.032	-82.6
893.203	7.51
893.374	27.99
893.545	32.08
893.716	-15.02
893.887	38.23
894.057	-72.36
894.228	17.75
894.399	23.89
894.57	66.9
894.74	-23.21
894.911	7.51
895.082	5.46
895.253	-0.68
895.423	-17.07
895.594	-37.55
895.764	81.24
895.935	-76.46
896.106	-0.68
896.276	1.37
896.447	-6.83
896.617	-33.45
896.788	32.08
896.958	36.18
897.129	3.41
897.299	34.13
897.47	91.48
897.64	-25.26
897.81	-15.02
897.981	-29.35
898.151	46.42
898.322	19.8
898.492	27.99
898.662	-0.68
898.832	-8.87
899.003	-29.35
899.173	34.13
899.343	-41.64
899.513	-94.89
