Data from USB4F104151__225__14-45-34-106.txt Node

Date: Thu Mar 13 14:45:34 EDT 2025
User: louis
Spectrometer: USB4F10415
Trigger mode: 4
Integration Time (sec): 2.000000E-2
Scans to average: 1
Electric dark correction enabled: true
Nonlinearity correction enabled: false
Boxcar width: 0
XAxis mode: Wavelengths
Number of Pixels in Spectrum: 3648
>>>>>Begin Spectral Data<<<<<
178.204	-120.49
178.424	-120.49
178.644	-120.49
178.864	-159.4
179.084	-104.11
179.304	-69.29
179.524	-1.71
179.744	-13.99
179.964	88.4
180.184	47.44
180.404	-16.04
180.624	14.68
180.844	-34.47
181.064	12.63
181.283	-1.71
181.503	2.39
181.723	-28.33
181.943	-30.38
182.163	26.96
182.383	-24.23
182.602	-7.85
182.822	57.68
183.042	26.96
183.262	14.68
183.482	-83.63
183.701	55.64
183.921	8.53
184.141	-63.15
184.361	33.11
184.58	16.73
184.8	-5.8
185.02	16.73
185.239	53.59
185.459	47.44
185.679	39.25
185.898	-67.24
186.118	76.12
186.338	-18.09
186.557	76.12
186.777	-50.86
186.997	-7.85
187.216	49.49
187.436	43.35
187.655	76.12
187.875	-7.85
188.095	106.84
188.314	-34.47
188.534	2.39
188.753	67.92
188.973	51.54
189.192	8.53
189.412	96.6
189.631	88.4
189.851	-5.8
190.07	55.64
190.29	-5.8
190.509	-5.8
190.729	-1.71
190.948	55.64
191.168	198.99
191.387	80.21
191.607	-32.43
191.826	24.92
192.045	-26.28
192.265	31.06
192.484	6.49
192.704	41.3
192.923	-32.43
193.142	72.02
193.362	-22.19
193.581	16.73
193.8	24.92
194.02	55.64
194.239	22.87
194.458	55.64
194.678	39.25
194.897	8.53
195.116	2.39
195.335	-13.99
195.555	26.96
195.774	6.49
195.993	29.01
196.212	31.06
196.432	24.92
196.651	-61.1
196.87	51.54
197.089	-9.9
197.308	57.68
197.528	0.34
197.747	31.06
197.966	0.34
198.185	112.98
198.404	0.34
198.623	39.25
198.842	33.11
199.062	69.97
199.281	76.12
199.5	33.11
199.719	6.49
199.938	-59.05
200.157	72.02
200.376	31.06
200.595	39.25
200.814	-1.71
201.033	24.92
201.252	-7.85
201.471	26.96
201.69	131.41
201.909	-26.28
202.128	-1.71
202.347	41.3
202.566	33.11
202.785	31.06
203.004	55.64
203.223	117.08
203.442	24.92
203.661	-38.57
203.879	39.25
204.098	135.51
204.317	72.02
204.536	86.36
204.755	31.06
204.974	20.82
205.193	2.39
205.411	129.36
205.63	37.2
205.849	-16.04
206.068	10.58
206.287	112.98
206.505	-5.8
206.724	-44.71
206.943	-9.9
207.162	24.92
207.381	31.06
207.599	43.35
207.818	18.77
208.037	96.6
208.255	47.44
208.474	-38.57
208.693	49.49
208.911	39.25
209.13	57.68
209.349	-48.81
209.567	0.34
209.786	-1.71
210.005	22.87
210.223	-13.99
210.442	-59.05
210.661	-5.8
210.879	22.87
211.098	35.16
211.316	55.64
211.535	88.4
211.753	63.83
211.972	41.3
212.191	57.68
212.409	29.01
212.628	31.06
212.846	-48.81
213.065	-7.85
213.283	72.02
213.502	14.68
213.72	43.35
213.938	-85.67
214.157	8.53
214.375	84.31
214.594	-32.43
214.812	47.44
215.031	31.06
215.249	-9.9
215.467	22.87
215.686	8.53
215.904	49.49
216.122	22.87
216.341	100.69
216.559	-1.71
216.778	90.45
216.996	2.39
217.214	-65.19
217.432	18.77
217.651	-1.71
217.869	72.02
218.087	72.02
218.306	0.34
218.524	55.64
218.742	69.97
218.96	-1.71
219.179	0.34
219.397	39.25
219.615	125.27
219.833	65.88
220.051	-9.9
220.27	31.06
220.488	-18.09
220.706	72.02
220.924	-11.95
221.142	26.96
221.36	33.11
221.578	61.78
221.796	-48.81
222.015	-18.09
222.233	61.78
222.451	49.49
222.669	31.06
222.887	72.02
223.105	6.49
223.323	35.16
223.541	22.87
223.759	57.68
223.977	47.44
224.195	6.49
224.413	-9.9
224.631	39.25
224.849	18.77
225.067	39.25
225.285	72.02
225.503	47.44
225.721	16.73
225.939	74.07
226.157	18.77
226.375	59.73
226.592	29.01
226.81	24.92
227.028	31.06
227.246	31.06
227.464	-7.85
227.682	-3.75
227.9	29.01
228.117	33.11
228.335	47.44
228.553	22.87
228.771	63.83
228.989	115.03
229.206	47.44
229.424	51.54
229.642	55.64
229.86	29.01
230.077	90.45
230.295	67.92
230.513	39.25
230.731	20.82
230.948	55.64
231.166	90.45
231.384	-11.95
231.601	8.53
231.819	33.11
232.037	31.06
232.254	39.25
232.472	31.06
232.689	-61.1
232.907	57.68
233.125	26.96
233.342	55.64
233.56	-5.8
233.777	-26.28
233.995	39.25
234.213	35.16
234.43	14.68
234.648	2.39
234.865	8.53
235.083	49.49
235.3	16.73
235.518	57.68
235.735	67.92
235.953	-18.09
236.17	98.64
236.388	-48.81
236.605	-13.99
236.822	74.07
237.04	8.53
237.257	55.64
237.475	6.49
237.692	37.2
237.909	92.5
238.127	-42.67
238.344	35.16
238.562	31.06
238.779	49.49
238.996	47.44
239.214	37.2
239.431	47.44
239.648	-52.91
239.865	82.26
240.083	61.78
240.3	39.25
240.517	-9.9
240.735	2.39
240.952	26.96
241.169	8.53
241.386	-1.71
241.603	31.06
241.821	88.4
242.038	47.44
242.255	-40.62
242.472	16.73
242.689	16.73
242.907	26.96
243.124	2.39
243.341	-30.38
243.558	43.35
243.775	22.87
243.992	26.96
244.209	57.68
244.426	76.12
244.643	115.03
244.86	65.88
245.078	49.49
245.295	47.44
245.512	65.88
245.729	-11.95
245.946	74.07
246.163	88.4
246.38	-13.99
246.597	-13.99
246.814	18.77
247.031	92.5
247.248	14.68
247.464	26.96
247.681	26.96
247.898	55.64
248.115	59.73
248.332	-1.71
248.549	31.06
248.766	63.83
248.983	26.96
249.2	49.49
249.417	41.3
249.633	-75.43
249.85	-13.99
250.067	29.01
250.284	35.16
250.501	-30.38
250.717	74.07
250.934	16.73
251.151	18.77
251.368	-1.71
251.585	24.92
251.801	63.83
252.018	24.92
252.235	96.6
252.451	33.11
252.668	-20.14
252.885	55.64
253.102	6.49
253.318	6.49
253.535	6.49
253.752	-9.9
253.968	0.34
254.185	-18.09
254.401	41.3
254.618	67.92
254.835	0.34
255.051	0.34
255.268	80.21
255.484	10.58
255.701	8.53
255.917	41.3
256.134	-9.9
256.351	6.49
256.567	47.44
256.784	51.54
257	4.44
257.217	47.44
257.433	47.44
257.65	-42.67
257.866	92.5
258.082	-34.47
258.299	4.44
258.515	35.16
258.732	143.7
258.948	33.11
259.165	31.06
259.381	-13.99
259.597	-9.9
259.814	16.73
260.03	-18.09
260.246	74.07
260.463	45.4
260.679	59.73
260.895	26.96
261.112	82.26
261.328	-26.28
261.544	33.11
261.761	51.54
261.977	35.16
262.193	-9.9
262.409	14.68
262.626	86.36
262.842	47.44
263.058	104.79
263.274	-38.57
263.49	37.2
263.707	16.73
263.923	26.96
264.139	0.34
264.355	80.21
264.571	112.98
264.787	-22.19
265.004	74.07
265.22	47.44
265.436	49.49
265.652	53.59
265.868	80.21
266.084	-71.34
266.3	55.64
266.516	-32.43
266.732	84.31
266.948	14.68
267.164	82.26
267.38	6.49
267.596	69.97
267.812	57.68
268.028	-5.8
268.244	-46.76
268.46	63.83
268.676	59.73
268.892	80.21
269.108	-9.9
269.324	43.35
269.54	-1.71
269.756	35.16
269.972	41.3
270.188	-22.19
270.403	0.34
270.619	49.49
270.835	12.63
271.051	31.06
271.267	-28.33
271.483	10.58
271.698	96.6
271.914	88.4
272.13	67.92
272.346	43.35
272.562	22.87
272.777	53.59
272.993	-22.19
273.209	57.68
273.425	18.77
273.64	-1.71
273.856	72.02
274.072	-20.14
274.287	8.53
274.503	88.4
274.719	24.92
274.934	-34.47
275.15	10.58
275.366	57.68
275.581	22.87
275.797	-9.9
276.012	43.35
276.228	8.53
276.444	119.12
276.659	35.16
276.875	8.53
277.09	72.02
277.306	41.3
277.521	47.44
277.737	16.73
277.952	63.83
278.168	59.73
278.383	10.58
278.599	-3.75
278.814	100.69
279.03	16.73
279.245	63.83
279.461	24.92
279.676	33.11
279.892	26.96
280.107	-1.71
280.322	0.34
280.538	84.31
280.753	-54.95
280.969	59.73
281.184	37.2
281.399	63.83
281.615	55.64
281.83	8.53
282.045	35.16
282.26	88.4
282.476	31.06
282.691	57.68
282.906	26.96
283.122	16.73
283.337	-46.76
283.552	82.26
283.767	41.3
283.983	29.01
284.198	47.44
284.413	-1.71
284.628	-63.15
284.843	76.12
285.058	2.39
285.274	88.4
285.489	-32.43
285.704	74.07
285.919	121.17
286.134	84.31
286.349	39.25
286.564	65.88
286.779	22.87
286.995	20.82
287.21	-5.8
287.425	0.34
287.64	-18.09
287.855	63.83
288.07	-9.9
288.285	49.49
288.5	24.92
288.715	82.26
288.93	6.49
289.145	20.82
289.36	22.87
289.575	18.77
289.79	55.64
290.004	67.92
290.219	67.92
290.434	84.31
290.649	104.79
290.864	14.68
291.079	29.01
291.294	82.26
291.509	-9.9
291.724	-18.09
291.938	47.44
292.153	55.64
292.368	37.2
292.583	149.84
292.798	18.77
293.012	31.06
293.227	61.78
293.442	-9.9
293.657	96.6
293.871	112.98
294.086	47.44
294.301	141.65
294.516	84.31
294.73	-42.67
294.945	-1.71
295.16	-34.47
295.374	63.83
295.589	90.45
295.804	16.73
296.018	106.84
296.233	31.06
296.447	-7.85
296.662	53.59
296.877	39.25
297.091	-5.8
297.306	110.93
297.52	8.53
297.735	6.49
297.949	6.49
298.164	67.92
298.378	80.21
298.593	24.92
298.807	-26.28
299.022	88.4
299.236	26.96
299.451	59.73
299.665	20.82
299.88	-1.71
300.094	16.73
300.309	-28.33
300.523	55.64
300.737	47.44
300.952	-42.67
301.166	47.44
301.381	80.21
301.595	8.53
301.809	0.34
302.024	108.88
302.238	45.4
302.452	72.02
302.667	6.49
302.881	-38.57
303.095	117.08
303.309	20.82
303.524	22.87
303.738	-13.99
303.952	104.79
304.166	84.31
304.381	-42.67
304.595	72.02
304.809	6.49
305.023	90.45
305.237	43.35
305.452	24.92
305.666	26.96
305.88	104.79
306.094	6.49
306.308	26.96
306.522	29.01
306.736	57.68
306.95	100.69
307.164	-50.86
307.379	-24.23
307.593	129.36
307.807	47.44
308.021	39.25
308.235	153.94
308.449	72.02
308.663	-50.86
308.877	55.64
309.091	-65.19
309.305	35.16
309.519	0.34
309.733	74.07
309.947	49.49
310.161	76.12
310.374	47.44
310.588	129.36
310.802	18.77
311.016	51.54
311.23	55.64
311.444	0.34
311.658	35.16
311.872	39.25
312.085	67.92
312.299	88.4
312.513	-16.04
312.727	14.68
312.941	-32.43
313.154	90.45
313.368	24.92
313.582	63.83
313.796	106.84
314.009	63.83
314.223	47.44
314.437	82.26
314.651	90.45
314.864	8.53
315.078	10.58
315.292	-46.76
315.505	2.39
315.719	-1.71
315.933	112.98
316.146	20.82
316.36	125.27
316.573	78.16
316.787	6.49
317.001	92.5
317.214	72.02
317.428	41.3
317.641	-34.47
317.855	-1.71
318.068	51.54
318.282	16.73
318.495	61.78
318.709	35.16
318.922	-9.9
319.136	55.64
319.349	63.83
319.563	0.34
319.776	86.36
319.99	-18.09
320.203	39.25
320.417	49.49
320.63	43.35
320.843	137.56
321.057	-13.99
321.27	76.12
321.483	53.59
321.697	80.21
321.91	33.11
322.124	26.96
322.337	96.6
322.55	61.78
322.763	2.39
322.977	41.3
323.19	8.53
323.403	0.34
323.617	53.59
323.83	49.49
324.043	-30.38
324.256	98.64
324.469	26.96
324.683	61.78
324.896	59.73
325.109	55.64
325.322	14.68
325.535	18.77
325.748	29.01
325.962	31.06
326.175	26.96
326.388	88.4
326.601	82.26
326.814	-42.67
327.027	-13.99
327.24	90.45
327.453	-1.71
327.666	80.21
327.879	57.68
328.092	78.16
328.305	39.25
328.518	0.34
328.731	88.4
328.944	14.68
329.157	-63.15
329.37	115.03
329.583	72.02
329.796	80.21
330.009	22.87
330.222	131.41
330.435	49.49
330.648	37.2
330.861	10.58
331.073	-18.09
331.286	22.87
331.499	76.12
331.712	63.83
331.925	55.64
332.138	31.06
332.35	96.6
332.563	-9.9
332.776	57.68
332.989	63.83
333.202	92.5
333.414	6.49
333.627	6.49
333.84	33.11
334.053	-7.85
334.265	31.06
334.478	35.16
334.691	86.36
334.903	14.68
335.116	14.68
335.329	24.92
335.541	8.53
335.754	41.3
335.966	10.58
336.179	18.77
336.392	-9.9
336.604	47.44
336.817	41.3
337.029	72.02
337.242	88.4
337.454	14.68
337.667	43.35
337.88	49.49
338.092	26.96
338.305	33.11
338.517	-54.95
338.729	14.68
338.942	131.41
339.154	55.64
339.367	-3.75
339.579	26.96
339.792	-46.76
340.004	74.07
340.217	74.07
340.429	33.11
340.641	18.77
340.854	-5.8
341.066	-11.95
341.278	12.63
341.491	112.98
341.703	8.53
341.915	4.44
342.128	82.26
342.34	31.06
342.552	8.53
342.764	-26.28
342.977	90.45
343.189	26.96
343.401	63.83
343.613	-34.47
343.826	-32.43
344.038	31.06
344.25	53.59
344.462	26.96
344.674	24.92
344.886	-1.71
345.099	80.21
345.311	92.5
345.523	14.68
345.735	16.73
345.947	31.06
346.159	10.58
346.371	47.44
346.583	-5.8
346.795	98.64
347.007	63.83
347.219	-24.23
347.431	22.87
347.643	26.96
347.855	18.77
348.067	8.53
348.279	18.77
348.491	100.69
348.703	88.4
348.915	-1.71
349.127	26.96
349.339	53.59
349.551	35.16
349.763	22.87
349.975	39.25
350.187	72.02
350.399	10.58
350.61	90.45
350.822	16.73
351.034	37.2
351.246	-24.23
351.458	16.73
351.669	137.56
351.881	80.21
352.093	37.2
352.305	133.46
352.517	41.3
352.728	55.64
352.94	8.53
353.152	39.25
353.363	31.06
353.575	14.68
353.787	47.44
353.999	59.73
354.21	129.36
354.422	-9.9
354.633	-26.28
354.845	-3.75
355.057	63.83
355.268	24.92
355.48	37.2
355.692	16.73
355.903	72.02
356.115	31.06
356.326	49.49
356.538	96.6
356.749	88.4
356.961	108.88
357.172	16.73
357.384	-26.28
357.595	80.21
357.807	72.02
358.018	-59.05
358.23	49.49
358.441	145.75
358.653	65.88
358.864	112.98
359.075	6.49
359.287	69.97
359.498	98.64
359.709	6.49
359.921	33.11
360.132	26.96
360.344	88.4
360.555	47.44
360.766	47.44
360.977	55.64
361.189	84.31
361.4	8.53
361.611	31.06
361.823	22.87
362.034	92.5
362.245	72.02
362.456	69.97
362.667	43.35
362.879	76.12
363.09	6.49
363.301	104.79
363.512	82.26
363.723	0.34
363.935	6.49
364.146	104.79
364.357	41.3
364.568	106.84
364.779	31.06
364.99	172.37
365.201	-18.09
365.412	65.88
365.623	51.54
365.834	80.21
366.045	14.68
366.256	78.16
366.467	14.68
366.678	41.3
366.889	14.68
367.1	6.49
367.311	37.2
367.522	31.06
367.733	121.17
367.944	86.36
368.155	55.64
368.366	72.02
368.577	22.87
368.788	98.64
368.999	-42.67
369.209	31.06
369.42	100.69
369.631	57.68
369.842	18.77
370.053	55.64
370.264	63.83
370.474	31.06
370.685	59.73
370.896	8.53
371.107	65.88
371.317	51.54
371.528	24.92
371.739	51.54
371.95	39.25
372.16	-50.86
372.371	31.06
372.582	96.6
372.792	26.96
373.003	39.25
373.214	104.79
373.424	76.12
373.635	24.92
373.846	74.07
374.056	78.16
374.267	82.26
374.477	61.78
374.688	20.82
374.898	33.11
375.109	-26.28
375.319	6.49
375.53	115.03
375.74	80.21
375.951	55.64
376.161	80.21
376.372	155.99
376.582	-52.91
376.793	112.98
377.003	14.68
377.214	37.2
377.424	-18.09
377.635	55.64
377.845	8.53
378.055	76.12
378.266	-42.67
378.476	33.11
378.686	47.44
378.897	39.25
379.107	94.55
379.317	121.17
379.528	26.96
379.738	98.64
379.948	35.16
380.158	33.11
380.369	14.68
380.579	59.73
380.789	63.83
380.999	112.98
381.21	35.16
381.42	80.21
381.63	-22.19
381.84	80.21
382.05	51.54
382.261	86.36
382.471	88.4
382.681	63.83
382.891	47.44
383.101	41.3
383.311	55.64
383.521	31.06
383.731	125.27
383.941	76.12
384.151	67.92
384.361	-1.71
384.571	63.83
384.781	41.3
384.991	131.41
385.201	63.83
385.411	131.41
385.621	82.26
385.831	78.16
386.041	76.12
386.251	43.35
386.461	63.83
386.671	104.79
386.881	74.07
387.091	74.07
387.301	65.88
387.511	26.96
387.72	80.21
387.93	112.98
388.14	41.3
388.35	76.12
388.56	88.4
388.769	72.02
388.979	92.5
389.189	35.16
389.399	88.4
389.609	47.44
389.818	90.45
390.028	57.68
390.238	104.79
390.447	22.87
390.657	63.83
390.867	63.83
391.076	31.06
391.286	106.84
391.496	31.06
391.705	49.49
391.915	158.03
392.125	76.12
392.334	41.3
392.544	53.59
392.753	100.69
392.963	31.06
393.172	57.68
393.382	24.92
393.591	92.5
393.801	57.68
394.01	57.68
394.22	123.22
394.429	59.73
394.639	41.3
394.848	123.22
395.058	90.45
395.267	72.02
395.477	74.07
395.686	6.49
395.895	139.6
396.105	186.71
396.314	80.21
396.524	135.51
396.733	96.6
396.942	133.46
397.152	88.4
397.361	63.83
397.57	112.98
397.78	12.63
397.989	188.75
398.198	106.84
398.407	88.4
398.617	108.88
398.826	129.36
399.035	63.83
399.244	94.55
399.453	72.02
399.663	131.41
399.872	69.97
400.081	153.94
400.29	80.21
400.499	151.89
400.708	92.5
400.917	145.75
401.127	123.22
401.336	51.54
401.545	127.32
401.754	123.22
401.963	88.4
402.172	166.23
402.381	22.87
402.59	139.6
402.799	96.6
403.008	104.79
403.217	180.56
403.426	166.23
403.635	123.22
403.844	123.22
404.053	141.65
404.262	137.56
404.471	223.57
404.68	158.03
404.888	129.36
405.097	145.75
405.306	194.9
405.515	201.04
405.724	211.28
405.933	149.84
406.142	242
406.35	260.43
406.559	174.42
406.768	235.86
406.977	227.67
407.185	242
407.394	235.86
407.603	155.99
407.812	219.47
408.02	239.95
408.229	229.71
408.438	280.91
408.646	205.14
408.855	235.86
409.064	262.48
409.272	264.53
409.481	254.29
409.69	317.78
409.898	344.4
410.107	287.06
410.315	342.35
410.524	403.79
410.733	317.78
410.941	344.4
411.15	401.74
411.358	422.22
411.567	420.17
411.775	495.95
411.984	452.94
412.192	522.57
412.401	414.03
412.609	514.38
412.818	555.34
413.026	526.67
413.234	500.05
413.443	514.38
413.651	551.24
413.86	579.92
414.068	645.45
414.276	727.37
414.485	663.88
414.693	731.47
414.901	815.43
415.11	762.19
415.318	768.33
415.526	801.1
415.734	805.19
415.943	817.48
416.151	868.68
416.359	921.93
416.567	874.82
416.776	874.82
416.984	983.37
417.192	1149.25
417.4	1028.42
417.608	1016.13
417.817	1116.48
418.025	1196.36
418.233	1233.22
418.441	1343.81
418.649	1292.61
418.857	1308.99
419.065	1296.71
419.273	1313.09
419.481	1521.98
419.689	1530.17
419.897	1501.5
420.105	1489.21
420.313	1681.72
420.521	1831.23
420.729	1767.74
420.937	1743.16
421.145	1976.63
421.353	2044.21
421.561	2029.88
421.769	2171.19
421.977	2265.39
422.185	2097.46
422.393	2332.98
422.601	2457.9
422.809	2392.37
423.017	2535.73
423.224	2599.21
423.432	2732.33
423.64	2611.5
423.848	3062.05
424.056	2947.37
424.263	3064.1
424.471	3225.89
424.679	3053.86
424.887	3404.07
425.094	3485.98
425.302	3498.27
425.51	3582.24
425.718	3727.64
425.925	3717.4
426.133	3840.28
426.341	4061.46
426.548	4303.12
426.756	4276.5
426.964	4251.92
427.171	4552.98
427.379	4628.75
427.586	4815.12
427.794	5054.73
428.001	5220.61
428.209	5366.02
428.417	5431.55
428.624	5699.84
428.832	5601.54
429.039	5478.66
429.247	5648.64
429.454	6275.32
429.662	6619.38
429.869	6232.31
430.076	6646
430.284	6447.35
430.491	6865.13
430.699	7209.19
430.906	7319.78
431.114	7309.54
431.321	7575.78
431.528	7657.7
431.736	8001.76
431.943	8321.24
432.15	8132.83
432.358	8403.16
432.565	9017.55
432.772	8841.42
432.979	9359.56
433.187	9455.81
433.394	9275.59
433.601	10119.35
433.808	10315.96
434.016	10152.12
434.223	10440.89
434.43	10975.41
434.637	10924.21
434.844	11657.38
435.052	11821.22
435.259	11677.86
435.466	11907.23
435.673	11729.06
435.88	12503.19
436.087	13203.6
436.294	13207.69
436.501	12884.11
436.708	13133.96
436.915	13820.03
437.122	14205.05
437.329	14190.72
437.537	14792.82
437.743	14858.35
437.95	14743.67
438.157	15745.13
438.364	15951.97
438.571	15849.57
438.778	16279.64
438.985	17639.5
439.192	16877.65
439.399	17283.15
439.606	17119.31
439.813	18110.53
440.02	19226.67
440.227	18757.69
440.433	18438.2
440.64	19290.16
440.847	18989.11
441.054	19664.94
441.261	21096.47
441.467	20660.25
441.674	21170.19
441.881	21733.39
442.088	21854.22
442.294	21583.88
442.501	22243.33
442.708	22616.06
442.914	23242.74
443.121	24319.97
443.328	23832.55
443.534	25360.34
443.741	24827.87
443.948	24467.42
444.154	26353.6
444.361	26273.73
444.568	26183.62
444.774	26257.35
444.981	26496.96
445.187	27287.48
445.394	28518.31
445.6	28125.1
445.807	30654.34
446.013	29546.39
446.22	30109.58
446.426	31469.43
446.633	31293.3
446.839	32778.08
447.046	31358.84
447.252	32702.31
447.459	32888.67
447.665	32851.81
447.871	34344.78
448.078	35596.09
448.284	33881.94
448.491	34959.17
448.697	36579.11
448.903	37062.43
449.11	37168.93
449.316	36624.17
449.522	37336.86
449.728	38686.47
449.935	38483.72
450.141	38500.11
450.347	39892.72
450.553	38104.85
450.76	38473.48
450.966	40339.18
451.172	39702.26
451.378	40765.16
451.584	39872.24
451.791	40976.1
451.997	40785.64
452.203	41893.59
452.409	41391.84
452.615	41408.22
452.821	39583.48
453.027	39401.21
453.233	41168.61
453.44	39993.08
453.646	40197.87
453.852	40711.91
454.058	41377.5
454.264	40144.62
454.47	41055.97
454.676	39806.71
454.882	41271.01
455.088	37697.3
455.294	38729.48
455.5	39300.86
455.705	39188.22
455.911	37744.41
456.117	37193.5
456.323	36646.69
456.529	34731.84
456.735	36570.92
456.941	35520.31
457.147	34807.62
457.352	33892.18
457.558	33808.21
457.764	33664.85
457.97	32730.98
458.176	32145.26
458.381	32423.78
458.587	30791.55
458.793	30873.47
458.999	29187.99
459.204	31008.64
459.41	30601.09
459.616	28483.49
459.821	28673.95
460.027	28630.94
460.233	27586.48
460.438	26873.79
460.644	27187.13
460.85	25491.41
461.055	25405.39
461.261	25366.48
461.466	23361.52
461.672	22898.68
461.878	24569.82
462.083	22990.84
462.289	22376.45
462.494	22087.68
462.7	21213.2
462.905	20740.12
463.111	21252.11
463.316	21383.18
463.522	20877.33
463.727	20973.59
463.932	20926.49
464.138	20797.46
464.343	20906.01
464.549	20267.04
464.754	21073.94
464.959	20580.38
465.165	20654.11
465.37	19707.94
465.575	19189.81
465.781	20002.85
465.986	20469.79
466.191	19345.45
466.397	19214.38
466.602	18116.67
466.807	18982.96
467.012	18835.51
467.218	19032.11
467.423	18384.96
467.628	18610.23
467.833	19503.15
468.038	19048.5
468.244	18288.7
468.449	19101.75
468.654	18528.31
468.859	17918.02
469.064	18036.8
469.269	17432.65
469.474	17395.79
469.679	17997.89
469.885	17076.3
470.09	17717.32
470.295	17481.8
470.5	16943.19
470.705	17064.02
470.91	16785.49
471.115	16726.1
471.32	16926.8
471.525	16906.32
471.73	16296.03
471.935	16218.21
472.139	15845.48
472.344	16224.35
472.549	15923.3
472.754	15876.2
472.959	15282.28
473.164	14889.07
473.369	15032.43
473.574	15550.57
473.778	15132.78
473.983	15110.25
474.188	15143.02
474.393	14334.07
474.598	14424.19
474.802	14205.05
475.007	14246.01
475.212	14223.48
475.417	13867.14
475.621	13938.82
475.826	13990.02
476.031	13478.02
476.235	13435.02
476.44	13715.59
476.645	13320.33
476.849	13459.59
477.054	13351.05
477.259	12814.48
477.463	13097.1
477.668	12804.24
477.872	12695.7
478.077	12679.32
478.282	12298.39
478.486	12159.13
478.691	11837.6
478.895	11946.14
479.1	12011.68
479.304	12105.88
479.509	11401.38
479.713	11976.86
479.918	11810.98
480.122	11229.35
480.326	11757.73
480.531	11561.12
480.735	11524.26
480.94	11165.87
481.144	11839.65
481.348	11411.62
481.553	11540.65
481.757	11233.45
481.961	11309.22
482.166	11432.1
482.37	11354.28
482.574	10909.87
482.778	11155.63
482.983	11413.67
483.187	11225.26
483.391	11272.36
483.595	11262.12
483.8	11028.65
484.004	11131.05
484.208	11260.07
484.412	11182.25
484.616	11083.95
484.821	11323.56
485.025	11114.67
485.229	11294.89
485.433	11212.97
485.637	11096.24
485.841	11053.23
486.045	11090.09
486.249	11378.86
486.453	11030.7
486.657	11092.14
486.861	11317.42
487.065	10930.35
487.269	11159.72
487.473	11151.53
487.677	11329.7
487.881	11425.96
488.085	11348.14
488.289	11370.66
488.493	11227.31
488.697	11518.12
488.901	11303.08
489.105	11354.28
489.309	11614.37
489.512	11372.71
489.716	11606.18
489.92	11507.88
490.124	11372.71
490.328	11606.18
490.531	11464.87
490.735	11677.86
490.939	11749.54
491.143	11675.81
491.346	11636.9
491.55	12058.78
491.754	11755.68
491.958	11841.7
492.161	11901.09
492.365	12109.98
492.569	11878.56
492.772	12079.26
492.976	12423.32
493.18	12255.39
493.383	12392.6
493.587	12288.15
493.79	12572.82
493.994	12343.45
494.197	12451.99
494.401	12695.7
494.605	12681.36
494.808	12902.54
495.012	13215.88
495.215	13219.98
495.419	13133.96
495.622	13297.8
495.825	13271.18
496.029	13342.86
496.232	13887.62
496.436	13475.98
496.639	13977.73
496.843	13676.68
497.046	14182.52
497.249	14413.95
497.453	14329.98
497.656	14555.26
497.859	14362.75
498.063	14702.71
498.266	15030.38
498.469	15124.59
498.673	15251.56
498.876	15310.96
499.079	15616.1
499.282	15638.63
499.485	15954.02
499.689	16175.2
499.892	16547.93
500.095	16033.89
500.298	16801.88
500.501	16783.45
500.705	17176.66
500.908	17295.44
501.111	17252.43
501.314	17686.6
501.517	17928.26
501.72	18077.76
501.923	18081.86
502.126	18665.53
502.329	18645.05
502.532	18896.95
502.735	18864.18
502.938	19202.1
503.141	19370.03
503.344	19867.69
503.547	19693.61
503.75	19945.51
503.953	20525.08
504.156	20670.49
504.359	20783.13
504.562	21041.17
504.765	21690.38
504.968	21618.7
505.17	21673.99
505.373	21999.62
505.576	22306.82
505.779	22444.03
505.982	22679.55
506.185	22994.93
506.387	23400.43
506.59	23611.37
506.793	23896.04
506.996	23840.75
507.198	24424.42
507.401	24344.55
507.604	24795.1
507.807	25483.22
508.009	25264.08
508.212	25941.96
508.415	25784.27
508.617	26376.13
508.82	26200.01
509.022	26384.32
509.225	27047.86
509.428	27363.25
509.63	27416.5
509.833	27654.06
510.035	28202.92
510.238	27926.44
510.44	28536.74
510.643	28837.79
510.845	29116.31
511.048	29386.64
511.25	29820.81
511.453	29687.7
511.655	30619.52
511.858	30392.2
512.06	30668.67
512.262	31039.36
512.465	31403.89
512.667	31971.18
512.87	32130.92
513.072	32100.2
513.274	32470.89
513.477	32937.82
513.679	33318.74
513.881	33863.5
514.084	34146.12
514.286	34025.29
514.488	34467.66
514.69	35231.55
514.893	34914.11
515.095	35417.91
515.297	35915.57
515.499	36155.18
515.701	36024.11
515.904	37031.71
516.106	36996.9
516.308	37549.85
516.51	37949.2
516.712	38033.17
516.914	38420.24
517.116	39005.95
517.318	38868.74
517.52	38921.99
517.722	39589.63
517.925	40177.39
518.127	40318.7
518.329	40740.58
518.531	40330.99
518.733	41287.39
518.935	41615.07
519.136	41383.65
519.338	42219.22
519.54	42446.54
519.742	43181.76
519.944	43026.12
520.146	43531.97
520.348	43919.03
520.55	43972.28
520.752	44213.94
520.954	45211.3
521.155	44590.76
521.357	45162.15
521.559	45854.36
521.761	46364.31
521.963	46491.28
522.164	46675.6
522.366	46599.82
522.568	46980.74
522.77	47677.05
522.971	47820.41
523.173	47650.43
523.375	48074.36
523.576	48086.65
523.778	48256.63
523.98	49088.1
524.181	48887.4
524.383	48836.2
524.584	49706.59
524.786	49647.2
524.988	49591.9
525.189	50409.04
525.391	50474.58
525.592	50945.61
525.794	50841.17
525.995	51318.34
526.197	50890.32
526.398	51209.8
526.6	51406.4
526.801	51719.74
527.003	51666.5
527.204	51736.13
527.406	52424.25
527.607	52151.87
527.808	52532.79
528.01	51711.55
528.211	52862.51
528.412	53626.4
528.614	53171.75
528.815	52928.05
529.016	53612.07
529.218	52891.18
529.419	53085.74
529.62	53372.45
529.822	53028.4
530.023	53448.23
530.224	53347.88
530.425	53937.69
530.626	53370.41
530.828	53257.77
531.029	54476.31
531.23	54144.54
531.431	53921.31
531.632	53804.58
531.833	54130.2
532.035	54259.23
532.236	54199.83
532.437	54273.56
532.638	53751.33
532.839	54496.79
533.04	54699.54
533.241	54148.64
533.442	55041.55
533.643	54472.21
533.844	54382.1
534.045	54216.22
534.246	54339.1
534.447	54773.27
534.648	54210.07
534.849	54515.22
535.05	53876.26
535.251	54363.67
535.451	54603.28
535.652	54908.43
535.853	54287.9
536.054	54552.08
536.255	54795.79
536.456	54177.31
536.657	55225.87
536.857	54545.94
537.058	54216.22
537.259	54660.63
537.46	54543.89
537.66	54683.15
537.861	55021.07
538.062	54752.79
538.263	54994.45
538.463	54494.74
538.664	54547.99
538.865	54738.45
539.065	54933.01
539.266	54324.76
539.466	55047.69
539.667	53843.49
539.868	55225.87
540.068	54595.09
540.269	54584.85
540.469	54822.42
540.67	54582.8
540.87	54535.7
541.071	54640.15
541.271	54978.06
541.472	54439.45
541.672	54369.82
541.873	54232.6
542.073	54294.04
542.274	55275.02
542.474	54402.58
542.675	54296.09
542.875	55197.2
543.075	54423.06
543.276	54093.34
543.476	55156.24
543.676	54203.93
543.877	55037.45
544.077	54439.45
544.277	54595.09
544.478	54547.99
544.678	54529.56
544.878	54382.1
545.078	54797.84
545.279	54005.28
545.479	54183.45
545.679	54248.99
545.879	54369.82
546.079	54251.03
546.28	53980.7
546.48	53980.7
546.68	54705.68
546.88	54842.9
547.08	54095.39
547.28	54201.88
547.48	53820.96
547.68	54162.97
547.88	53896.73
548.081	54312.47
548.281	53990.94
548.481	53847.58
548.681	54578.71
548.881	54193.69
549.081	54341.14
549.28	53624.36
549.48	54509.08
549.68	53929.5
549.88	54251.03
550.08	54150.68
550.28	53988.89
550.48	54128.16
550.68	53900.83
550.88	53585.44
551.08	53927.45
551.279	54011.42
551.479	53034.54
551.679	53898.78
551.879	53851.68
552.079	54136.35
552.278	53524
552.478	53769.76
552.678	53700.13
552.878	54502.93
553.077	53515.81
553.277	53399.08
553.477	54013.47
553.676	53593.64
553.876	53354.02
554.076	53431.85
554.275	53394.98
554.475	53075.5
554.674	53575.2
554.874	53544.48
555.074	53390.89
555.273	53683.75
555.473	53919.26
555.672	53151.27
555.872	53276.2
556.071	53571.11
556.271	54013.47
556.47	53296.68
556.67	53079.6
556.869	53284.39
557.068	53448.23
557.268	52704.82
557.467	53100.08
557.667	53394.98
557.866	53034.54
558.065	52817.46
558.265	52565.56
558.464	52440.63
558.663	53495.33
558.863	52801.07
559.062	53464.61
559.261	52334.13
559.461	53280.3
559.66	52289.08
559.859	52252.22
560.058	52506.16
560.258	52485.68
560.457	52084.28
560.656	52618.8
560.855	52094.52
561.054	52381.24
561.253	51576.39
561.453	52510.26
561.652	52573.75
561.851	52620.85
562.05	51676.74
562.249	51547.71
562.448	52088.38
562.647	52059.71
562.846	51664.45
563.045	51646.02
563.244	51330.63
563.443	51945.02
563.642	51062.35
563.841	51332.68
564.04	51107.4
564.239	51367.49
564.438	51261
564.637	51502.66
564.836	51494.47
565.035	50769.49
565.234	51144.26
565.432	51174.98
565.631	51005
565.83	50898.51
566.029	50925.13
566.228	50873.93
566.427	50646.61
566.625	50398.8
566.824	50153.05
567.023	50548.31
567.222	50019.93
567.42	50767.44
567.619	49727.07
567.818	49905.24
568.016	49997.4
568.215	50529.87
568.414	50105.94
568.612	50179.67
568.811	49528.42
569.01	49909.34
569.208	49317.48
569.407	49819.23
569.605	49278.57
569.804	49757.79
570.002	48766.57
570.201	49344.1
570.4	48735.85
570.598	48922.22
570.797	48940.65
570.995	49184.36
571.193	47957.63
571.392	49210.98
571.59	48049.78
571.789	48572.02
571.987	48408.18
572.186	47898.23
572.384	48287.35
572.582	48541.3
572.781	48391.79
572.979	47730.3
573.177	48004.73
573.376	48041.59
573.574	47527.55
573.772	47877.75
573.971	47263.36
574.169	46950.02
574.367	47062.66
574.565	46995.08
574.763	46958.22
574.962	46988.94
575.16	46923.4
575.358	47070.86
575.556	46304.91
575.754	47013.51
575.952	46175.89
576.151	46669.45
576.349	46216.85
576.547	46184.08
576.745	46413.46
576.943	46059.16
577.141	46057.11
577.339	46087.83
577.537	45622.94
577.735	46055.06
577.933	45108.9
578.131	45387.42
578.329	45188.77
578.527	45334.18
578.725	45477.54
578.923	45450.91
579.121	44588.72
579.319	45092.52
579.516	44902.06
579.714	44549.81
579.912	44584.62
580.11	44105.4
580.308	44496.56
580.506	44207.79
580.704	43513.53
580.901	43681.47
581.099	44388.02
581.297	43572.92
581.495	43468.48
581.692	44019.38
581.89	43331.26
582.088	44025.53
582.285	43058.88
582.483	43364.03
582.681	43052.74
582.878	42854.09
583.076	42727.11
583.274	43081.41
583.471	42534.6
583.669	42577.61
583.866	42520.27
584.064	42514.12
584.262	41772.76
584.459	42479.31
584.657	41809.62
584.854	42147.54
585.052	41881.3
585.249	41928.41
585.447	41750.23
585.644	41391.84
585.841	41815.77
586.039	41635.55
586.236	40888.04
586.434	41045.73
586.631	41281.25
586.828	41017.06
587.026	41047.78
587.223	40953.57
587.42	40586.99
587.618	40677.1
587.815	40511.21
588.012	40050.42
588.21	39663.35
588.407	40650.47
588.604	39919.35
588.801	39620.34
588.999	39855.86
589.196	39681.78
589.393	39950.07
589.59	39606.01
589.787	39415.55
589.984	39337.73
590.182	38946.56
590.379	39034.63
590.576	38641.42
590.773	38985.47
590.97	38782.73
591.167	38842.12
591.364	38655.75
591.561	38512.39
591.758	38352.65
591.955	37848.85
592.152	38547.21
592.349	38293.26
592.546	38407.95
592.743	37914.39
592.94	37502.75
593.137	37771.03
593.334	37625.62
593.531	37138.21
593.727	37480.22
593.924	37410.59
594.121	36988.7
594.318	37187.36
594.515	36859.68
594.712	36871.97
594.908	36814.63
595.105	36597.54
595.302	36536.1
595.499	36777.76
595.696	36007.73
595.892	35841.84
596.089	36024.11
596.286	36173.61
596.482	35895.09
596.679	35647.29
596.876	35850.03
597.072	35600.18
597.269	35698.48
597.466	35264.32
597.662	35489.59
597.859	35452.73
598.055	35299.13
598.252	34897.73
598.448	35049.28
598.645	34797.38
598.841	34332.49
599.038	34045.77
599.234	34787.14
599.431	34209.61
599.627	34447.18
599.824	34111.31
600.02	34078.54
600.217	33945.42
600.413	34185.04
600.609	33716.05
600.806	33689.43
601.002	33808.21
601.198	33259.35
601.395	33183.58
601.591	33359.7
601.787	33408.86
601.984	32952.16
602.18	33451.86
602.376	32956.25
602.572	32733.03
602.769	32933.73
602.965	32696.16
603.161	32665.44
603.357	32286.57
603.553	32083.82
603.75	32079.72
603.946	31879.02
604.142	32294.76
604.338	31727.47
604.534	31911.79
604.73	31385.46
604.926	31369.08
605.122	31956.85
605.318	31321.98
605.514	31483.76
605.71	31055.74
605.906	31164.28
606.102	31219.58
606.298	31119.23
606.494	30812.03
606.69	31203.19
606.886	31078.27
607.082	30394.25
607.278	30848.89
607.474	30324.61
607.67	30748.54
607.866	30238.6
608.062	30248.84
608.257	30455.68
608.453	30478.21
608.649	30377.86
608.845	30240.65
609.041	30095.24
609.236	30390.15
609.432	29648.78
609.628	29863.82
609.824	29675.41
610.019	29736.85
610.215	29728.66
610.411	29751.18
610.606	29646.74
610.802	29669.26
610.998	29411.22
611.193	29536.15
611.389	29190.04
611.584	29073.31
611.78	29347.73
611.976	29298.58
612.171	29421.46
612.367	29278.1
612.562	28979.1
612.758	28471.2
612.953	28880.8
613.149	28864.41
613.344	28207.01
613.539	28886.94
613.735	28508.07
613.93	28475.3
614.126	28610.46
614.321	28456.87
614.517	28612.51
614.712	28336.04
614.907	27885.48
615.103	28266.41
615.298	27918.25
615.493	28192.68
615.688	27660.21
615.884	28184.49
616.079	27805.61
616.274	27965.35
616.47	28116.9
616.665	28004.27
616.86	27774.89
617.055	27670.45
617.25	27549.62
617.445	27551.66
617.641	26929.08
617.836	27457.46
618.031	27094.97
618.226	27219.89
618.421	27201.46
618.616	27334.58
618.811	26830.78
619.006	27051.96
619.201	26027.98
619.396	26867.64
619.591	26257.35
619.786	26488.77
619.981	26023.88
620.176	26157
620.371	25923.53
620.566	26232.77
620.761	25655.25
620.956	26222.53
621.151	25378.77
621.346	25585.61
621.541	25049.05
621.735	25386.96
621.93	24764.38
622.125	25094.1
622.32	24979.42
622.515	24877.02
622.709	24498.14
622.904	24713.18
623.099	24365.03
623.294	24270.82
623.488	24111.08
623.683	24301.54
623.878	23752.68
624.072	23713.77
624.267	23760.87
624.462	23965.67
624.656	23287.79
624.851	23490.54
625.046	23099.38
625.24	23033.85
625.435	22786.04
625.629	22859.77
625.824	22601.72
626.018	22515.71
626.213	22040.58
626.407	22278.15
626.602	21886.98
626.796	22177.79
626.991	22044.68
627.185	21760.01
627.38	21583.88
627.574	21418
627.768	21438.48
627.963	21272.59
628.157	21051.41
628.352	21293.07
628.546	20881.43
628.74	21010.45
628.935	20652.06
629.129	20723.74
629.323	20492.32
629.517	20357.15
629.712	20291.62
629.906	20248.61
630.1	19736.62
630.294	20084.77
630.489	19806.25
630.683	20000.8
630.877	19634.22
631.071	19232.82
631.265	19638.31
631.459	19335.21
631.653	19142.71
631.848	19228.72
632.042	19085.36
632.236	19159.09
632.43	18858.04
632.624	18991.16
632.818	19042.35
633.012	18569.27
633.206	18520.12
633.4	18589.75
633.594	18180.16
633.788	18544.7
633.982	18139.2
634.176	18225.22
634.369	17897.54
634.563	18065.47
634.757	17725.51
634.951	18010.18
635.145	17696.84
635.339	17438.8
635.533	17393.74
635.726	17037.39
635.92	17395.79
636.114	16885.84
636.308	17078.35
636.501	16992.34
636.695	17000.53
636.889	16900.18
637.083	16824.4
637.276	16529.5
637.47	16601.18
637.664	16293.98
637.857	16423
638.051	16386.14
638.244	16173.15
638.438	15882.34
638.632	16097.38
638.825	15935.59
639.019	15652.97
639.212	15591.53
639.406	15687.78
639.599	15515.75
639.793	15530.09
639.986	15198.32
640.18	15231.08
640.373	15267.95
640.567	15079.54
640.76	15001.71
640.954	14678.13
641.147	14747.76
641.34	14835.83
641.534	14733.43
641.727	14512.25
641.92	14684.28
642.114	14463.1
642.307	14555.26
642.5	14610.55
642.694	14188.67
642.887	14084.22
643.08	14227.58
643.273	14252.16
643.467	13844.61
643.66	13707.4
643.853	13658.24
644.046	13295.75
644.239	13566.09
644.432	13787.27
644.626	13574.28
644.819	13373.58
645.012	13252.75
645.205	13252.75
645.398	13121.68
645.591	13000.85
645.784	13203.6
645.977	12785.81
646.17	13164.68
646.363	12677.27
646.556	12574.87
646.749	12806.29
646.942	12662.93
647.135	12583.06
647.328	12425.37
647.521	12540.05
647.714	12155.04
647.907	12204.19
648.099	11837.6
648.292	12114.08
648.485	12124.32
648.678	11872.42
648.871	11958.43
649.064	11927.71
649.256	11892.9
649.449	11632.8
649.642	11655.33
649.835	11301.03
650.027	11663.52
650.22	11450.53
650.413	11243.69
650.605	11487.4
650.798	11290.79
650.991	10936.49
651.183	11239.59
651.376	11077.8
651.568	10948.78
651.761	11067.56
651.954	11055.28
652.146	10926.25
652.339	10864.82
652.531	10743.99
652.724	10619.06
652.916	10475.7
653.109	10604.72
653.301	10578.1
653.494	10467.51
653.686	10285.24
653.879	10453.17
654.071	10248.38
654.263	10148.03
654.456	10221.75
654.648	10066.11
654.84	9976
655.033	10057.92
655.225	9808.06
655.417	9666.75
655.61	9861.31
655.802	9691.33
655.994	9732.29
656.186	9638.08
656.379	9504.96
656.571	9341.13
656.763	9590.98
656.955	9447.62
657.148	9386.18
657.34	9246.92
657.532	9353.41
657.724	9205.96
657.916	9214.15
658.108	8874.19
658.3	8925.39
658.492	9150.67
658.684	8798.42
658.876	8909.01
659.068	8943.82
659.26	8960.2
659.452	8790.22
659.644	8765.65
659.836	8677.58
660.028	8706.26
660.22	8411.35
660.412	8446.16
660.604	8413.4
660.796	8235.22
660.988	8440.02
661.18	8181.98
661.372	8229.08
661.563	8280.28
661.755	8065.24
661.947	8188.12
662.139	8100.06
662.331	8077.53
662.522	8016.09
662.714	7821.53
662.906	7700.7
663.097	7739.62
663.289	7858.4
663.481	7567.59
663.673	7594.21
663.864	7647.46
664.056	7403.75
664.247	7479.52
664.439	7264.49
664.631	7452.9
664.822	7463.14
665.014	7307.49
665.205	7426.28
665.397	7344.36
665.588	7241.96
665.78	7145.7
665.971	7168.23
666.163	7282.92
666.354	7227.62
666.546	6977.77
666.737	6895.85
666.929	6854.89
667.12	6830.32
667.311	6707.44
667.503	6670.58
667.694	6684.91
667.885	6584.56
668.077	6639.86
668.268	6660.34
668.459	6625.52
668.651	6551.79
668.842	6562.03
669.033	6455.54
669.224	6230.26
669.416	6447.35
669.607	6473.97
669.798	6256.89
669.989	6410.48
670.18	6365.43
670.371	6234.36
670.563	6191.35
670.754	6226.17
670.945	6191.35
671.136	6181.11
671.327	6142.2
671.518	6152.44
671.709	5978.36
671.9	6177.02
672.091	5931.26
672.282	6045.95
672.473	5761.28
672.664	5955.83
672.855	5748.99
673.046	5841.15
673.237	6019.32
673.428	5779.71
673.619	5814.52
673.809	5746.94
674	5552.38
674.191	5529.86
674.382	5492.99
674.573	5464.32
674.764	5603.58
674.954	5583.1
675.145	5456.13
675.336	5363.97
675.527	5574.91
675.717	5484.8
675.908	5294.34
676.099	5306.63
676.289	5363.97
676.48	5413.12
676.671	5208.33
676.861	5298.44
677.052	5284.1
677.243	5200.13
677.433	5339.4
677.624	5175.56
677.814	5185.8
678.005	5150.98
678.195	5042.44
678.386	5112.07
678.576	4899.08
678.767	4946.19
678.957	5095.69
679.148	5054.73
679.338	4995.34
679.529	5112.07
679.719	4925.71
679.909	4954.38
680.1	4933.9
680.29	4964.62
680.481	4798.73
680.671	4798.73
680.861	4843.79
681.052	4778.25
681.242	4694.29
681.432	4839.69
681.622	4636.94
681.813	4634.89
682.003	4571.41
682.193	4571.41
682.383	4768.01
682.573	4628.75
682.764	4524.3
682.954	4577.55
683.144	4811.02
683.334	4606.22
683.524	4499.73
683.714	4569.36
683.904	4569.36
684.094	4585.74
684.284	4448.53
684.474	4667.66
684.664	4448.53
684.854	4481.3
685.044	4458.77
685.234	4454.67
685.424	4499.73
685.614	4473.11
685.804	4380.95
685.994	4280.6
686.184	4194.58
686.374	4303.12
686.564	4303.12
686.753	4163.86
686.943	4276.5
687.133	4278.55
687.323	4270.36
687.513	4360.47
687.702	4251.92
687.892	4286.74
688.082	4249.88
688.272	4290.84
688.461	4208.92
688.651	4253.97
688.841	4202.77
689.03	4186.39
689.22	4040.98
689.41	4118.81
689.599	4006.17
689.789	4077.85
689.979	4063.51
690.168	3981.59
690.358	3995.93
690.547	3989.78
690.737	4061.46
690.926	3997.98
691.116	3948.83
691.305	3963.16
691.495	3873.05
691.684	3926.3
691.874	3832.09
692.063	3924.25
692.252	3795.23
692.442	3938.59
692.631	3930.39
692.82	3817.76
693.01	3873.05
693.199	3987.74
693.388	3760.41
693.578	3823.9
693.767	3758.36
693.956	3764.51
694.146	3832.09
694.335	3604.77
694.524	3637.53
694.713	3676.45
694.902	3799.32
695.092	3737.88
695.281	3772.7
695.47	3596.57
695.659	3655.97
695.848	3672.35
696.037	3625.25
696.226	3629.34
696.415	3557.66
696.604	3655.97
696.793	3531.04
696.982	3451.17
697.171	3471.65
697.36	3469.6
697.549	3453.22
697.738	3627.29
697.927	3483.94
698.116	3475.74
698.305	3399.97
698.494	3326.24
698.683	3399.97
698.872	3506.46
699.061	3367.2
699.25	3324.19
699.438	3397.92
699.627	3461.41
699.816	3522.85
700.005	3365.15
700.193	3293.48
700.382	3332.39
700.571	3277.09
700.76	3207.46
700.948	3162.41
701.137	3262.76
701.326	3348.77
701.514	3260.71
701.703	3234.08
701.892	3318.05
702.08	3334.43
702.269	3211.56
702.457	3229.99
702.646	3219.75
702.834	3139.88
703.023	3227.94
703.212	3242.28
703.4	3098.92
703.589	3051.81
703.777	3092.77
703.965	3137.83
704.154	3111.21
704.342	3000.62
704.531	2973.99
704.719	3096.87
704.907	3096.87
705.096	2955.56
705.284	3078.44
705.472	3143.97
705.661	3096.87
705.849	3014.95
706.037	2924.84
706.226	2963.75
706.414	3070.25
706.602	2810.15
706.79	2982.18
706.979	2933.03
707.167	2998.57
707.355	2918.7
707.543	2904.36
707.731	2892.07
707.919	2804.01
708.107	2957.61
708.296	2963.75
708.484	2832.68
708.672	2781.48
708.86	2871.59
709.048	2810.15
709.236	2820.39
709.424	2830.63
709.612	2840.87
709.8	2820.39
709.988	2742.57
710.176	2754.86
710.364	2709.8
710.551	2736.43
710.739	2761
710.927	2758.96
711.115	2693.42
711.303	2775.34
711.491	2728.24
711.679	2787.63
711.866	2597.17
712.054	2693.42
712.242	2705.71
712.43	2709.8
712.617	2732.33
712.805	2677.04
712.993	2709.8
713.181	2660.65
713.368	2644.27
713.556	2654.51
713.744	2554.16
713.931	2545.97
714.119	2599.21
714.306	2603.31
714.494	2500.91
714.682	2623.79
714.869	2529.58
715.057	2523.44
715.244	2578.73
715.432	2511.15
715.619	2574.64
715.807	2490.67
715.994	2472.24
716.182	2443.57
716.369	2418.99
716.556	2500.91
716.744	2414.9
716.931	2470.19
717.119	2353.46
717.306	2500.91
717.493	2369.84
717.681	2337.07
717.868	2343.22
718.055	2347.31
718.242	2414.9
718.43	2427.18
718.617	2244.92
718.804	2341.17
718.991	2349.36
719.179	2306.35
719.366	2267.44
719.553	2244.92
719.74	2185.52
719.927	2193.72
720.114	2400.56
720.301	2382.13
720.488	2097.46
720.676	2230.58
720.863	2316.59
721.05	2392.37
721.237	2234.68
721.424	2271.54
721.611	2193.72
721.798	2179.38
721.985	2216.24
722.172	2079.03
722.358	2095.41
722.545	2052.41
722.732	2089.27
722.919	2128.18
723.106	2111.8
723.293	2076.98
723.48	2072.89
723.667	2027.83
723.853	2154.8
724.04	2109.75
724.227	2017.59
724.414	2054.45
724.6	2197.81
724.787	2087.22
724.974	2134.32
725.161	2064.69
725.347	1988.92
725.534	2064.69
725.72	1958.2
725.907	2046.26
726.094	1976.63
726.28	1933.62
726.467	1935.67
726.653	1933.62
726.84	2054.45
727.027	2023.73
727.213	2031.93
727.4	2040.12
727.586	1868.09
727.773	1915.19
727.959	1894.71
728.145	1896.76
728.332	1827.13
728.518	1931.58
728.705	1874.23
728.891	1915.19
729.077	1868.09
729.264	1898.81
729.45	1849.66
729.636	1919.29
729.823	1947.96
730.009	1859.9
730.195	1857.85
730.382	1882.42
730.568	1827.13
730.754	1872.18
730.94	1786.17
731.126	1837.37
731.313	1847.61
731.499	1802.55
731.685	1825.08
731.871	1808.7
732.057	1900.86
732.243	1767.74
732.429	1868.09
732.615	1775.93
732.801	1767.74
732.987	1679.68
733.173	1751.35
733.359	1802.55
733.545	1737.02
733.731	1679.68
733.917	1743.16
734.103	1696.06
734.289	1759.55
734.475	1677.63
734.661	1837.37
734.847	1743.16
735.033	1743.16
735.219	1732.92
735.404	1608
735.59	1710.4
735.776	1644.86
735.962	1734.97
736.148	1653.05
736.333	1730.87
736.519	1530.17
736.705	1526.08
736.89	1712.44
737.076	1634.62
737.262	1640.76
737.447	1564.99
737.633	1567.04
737.819	1581.37
738.004	1538.37
738.19	1593.66
738.375	1558.85
738.561	1521.98
738.747	1407.3
738.932	1507.65
739.118	1661.24
739.303	1425.73
739.489	1526.08
739.674	1433.92
739.859	1481.02
740.045	1556.8
740.23	1442.11
740.416	1460.54
740.601	1548.61
740.786	1534.27
740.972	1378.62
741.157	1505.6
741.342	1419.58
741.528	1425.73
741.713	1450.3
741.898	1421.63
742.084	1419.58
742.269	1401.15
742.454	1421.63
742.639	1452.35
742.824	1382.72
743.01	1407.3
743.195	1458.5
743.38	1456.45
743.565	1419.58
743.75	1454.4
743.935	1372.48
744.12	1399.1
744.305	1325.38
744.49	1362.24
744.675	1358.14
744.86	1288.51
745.045	1327.43
745.23	1304.9
745.415	1333.57
745.6	1284.42
745.785	1280.32
745.97	1300.8
746.155	1366.34
746.34	1214.79
746.525	1333.57
746.71	1300.8
746.895	1231.17
747.079	1257.79
747.264	1276.23
747.449	1327.43
747.634	1196.36
747.819	1354.05
748.003	1235.27
748.188	1157.44
748.373	1120.58
748.557	1200.45
748.742	1227.07
748.927	1268.03
749.111	1149.25
749.296	1173.83
749.481	1147.2
749.665	1065.29
749.85	1112.39
750.034	1175.88
750.219	1196.36
750.404	1112.39
750.588	1151.3
750.773	1063.24
750.957	1075.52
751.141	1055.05
751.326	1071.43
751.51	1007.94
751.695	1075.52
751.879	1012.04
752.064	1155.4
752.248	1112.39
752.432	1075.52
752.617	1061.19
752.801	1048.9
752.985	966.98
753.17	1020.23
753.354	1034.57
753.538	1009.99
753.722	1030.47
753.907	915.78
754.091	954.69
754.275	983.37
754.459	926.02
754.643	952.65
754.828	862.54
755.012	911.69
755.196	993.61
755.38	1005.89
755.564	907.59
755.748	917.83
755.932	926.02
756.116	962.89
756.3	948.55
756.484	950.6
756.668	846.15
756.852	827.72
757.036	940.36
757.22	862.54
757.404	860.49
757.588	952.65
757.772	874.82
757.956	811.34
758.14	817.48
758.323	774.47
758.507	860.49
758.691	788.81
758.875	866.63
759.059	878.92
759.242	768.33
759.426	844.1
759.61	842.06
759.794	811.34
759.977	764.23
760.161	854.34
760.345	733.51
760.528	753.99
760.712	756.04
760.895	864.58
761.079	747.85
761.263	747.85
761.446	762.19
761.63	778.57
761.813	780.62
761.997	764.23
762.18	825.67
762.364	776.52
762.547	694.6
762.731	694.6
762.914	682.31
763.098	710.99
763.281	721.23
763.464	735.56
763.648	764.23
763.831	715.08
764.015	639.31
764.198	735.56
764.381	647.5
764.564	753.99
764.748	756.04
764.931	727.37
765.114	690.51
765.297	694.6
765.481	618.83
765.664	651.6
765.847	637.26
766.03	637.26
766.213	670.03
766.397	676.17
766.58	682.31
766.763	690.51
766.946	651.6
767.129	670.03
767.312	655.69
767.495	629.07
767.678	581.96
767.861	620.88
768.044	715.08
768.227	713.03
768.41	655.69
768.593	672.08
768.776	622.92
768.959	737.61
769.142	616.78
769.324	598.35
769.507	678.22
769.69	653.64
769.873	588.11
770.056	694.6
770.239	610.64
770.421	657.74
770.604	639.31
770.787	620.88
770.97	645.45
771.152	551.24
771.335	678.22
771.518	571.72
771.7	649.55
771.883	637.26
772.066	629.07
772.248	573.77
772.431	682.31
772.613	590.16
772.796	579.92
772.978	538.96
773.161	602.44
773.343	534.86
773.526	551.24
773.708	538.96
773.891	545.1
774.073	608.59
774.256	618.83
774.438	604.49
774.621	514.38
774.803	637.26
774.985	485.71
775.168	592.2
775.35	489.81
775.532	498
775.715	481.61
775.897	555.34
776.079	530.77
776.261	500.05
776.444	493.9
776.626	588.11
776.808	530.77
776.99	457.04
777.173	508.24
777.355	522.57
777.537	538.96
777.719	530.77
777.901	577.87
778.083	452.94
778.265	510.29
778.447	465.23
778.629	444.75
778.811	491.85
778.993	469.33
779.175	469.33
779.357	444.75
779.539	440.65
779.721	409.94
779.903	473.42
780.085	395.6
780.267	477.52
780.449	336.21
780.631	491.85
780.812	498
780.994	393.55
781.176	430.41
781.358	426.32
781.54	432.46
781.721	524.62
781.903	389.46
782.085	346.45
782.267	276.82
782.448	416.08
782.63	411.98
782.812	264.53
782.993	428.37
783.175	391.5
783.357	424.27
783.538	342.35
783.72	346.45
783.901	391.5
784.083	420.17
784.264	401.74
784.446	344.4
784.627	391.5
784.809	405.84
784.99	377.17
785.172	338.26
785.353	358.74
785.535	387.41
785.716	350.54
785.897	311.63
786.079	321.87
786.26	358.74
786.441	307.54
786.623	276.82
786.804	350.54
786.985	440.65
787.167	325.97
787.348	291.15
787.529	309.58
787.71	409.94
787.891	325.97
788.073	309.58
788.254	342.35
788.435	358.74
788.616	344.4
788.797	264.53
788.978	319.82
789.159	248.15
789.34	309.58
789.522	315.73
789.703	254.29
789.884	301.39
790.065	278.87
790.246	346.45
790.427	244.05
790.607	252.24
790.788	264.53
790.969	285.01
791.15	272.72
791.331	229.71
791.512	186.71
791.693	242
791.874	194.9
792.054	317.78
792.235	289.1
792.416	293.2
792.597	237.91
792.778	268.63
792.958	317.78
793.139	198.99
793.32	274.77
793.5	188.75
793.681	280.91
793.862	252.24
794.042	188.75
794.223	125.27
794.404	151.89
794.584	196.95
794.765	291.15
794.945	203.09
795.126	280.91
795.306	289.1
795.487	229.71
795.667	203.09
795.848	233.81
796.028	264.53
796.209	227.67
796.389	203.09
796.57	227.67
796.75	233.81
796.93	166.23
797.111	63.83
797.291	213.33
797.471	239.95
797.652	250.19
797.832	129.36
798.012	268.63
798.192	151.89
798.373	153.94
798.553	172.37
798.733	270.67
798.913	194.9
799.093	194.9
799.274	276.82
799.454	190.8
799.634	219.47
799.814	219.47
799.994	174.42
800.174	260.43
800.354	180.56
800.534	117.08
800.714	178.51
800.894	227.67
801.074	149.84
801.254	112.98
801.434	172.37
801.614	176.47
801.794	162.13
801.974	768.33
802.154	162.13
802.334	227.67
802.514	182.61
802.693	194.9
802.873	158.03
803.053	164.18
803.233	143.7
803.413	209.23
803.592	166.23
803.772	168.27
803.952	143.7
804.131	168.27
804.311	125.27
804.491	147.8
804.67	158.03
804.85	92.5
805.03	223.57
805.209	153.94
805.389	162.13
805.568	121.17
805.748	135.51
805.928	176.47
806.107	102.74
806.287	225.62
806.466	141.65
806.646	213.33
806.825	106.84
807.004	123.22
807.184	139.6
807.363	106.84
807.543	104.79
807.722	47.44
807.901	176.47
808.081	147.8
808.26	164.18
808.439	203.09
808.619	213.33
808.798	143.7
808.977	72.02
809.156	155.99
809.336	96.6
809.515	63.83
809.694	158.03
809.873	121.17
810.052	121.17
810.231	198.99
810.411	129.36
810.59	104.79
810.769	80.21
810.948	139.6
811.127	72.02
811.306	65.88
811.485	94.55
811.664	112.98
811.843	84.31
812.022	172.37
812.201	72.02
812.38	94.55
812.559	125.27
812.737	153.94
812.916	129.36
813.095	22.87
813.274	98.64
813.453	155.99
813.632	119.12
813.811	237.91
813.989	104.79
814.168	88.4
814.347	31.06
814.526	115.03
814.704	137.56
814.883	162.13
815.062	22.87
815.24	198.99
815.419	143.7
815.598	88.4
815.776	33.11
815.955	51.54
816.133	129.36
816.312	129.36
816.49	55.64
816.669	129.36
816.847	74.07
817.026	164.18
817.204	76.12
817.383	123.22
817.561	170.32
817.74	53.59
817.918	104.79
818.097	117.08
818.275	59.73
818.453	92.5
818.632	88.4
818.81	72.02
818.988	-16.04
819.167	55.64
819.345	133.46
819.523	133.46
819.701	72.02
819.879	129.36
820.058	-30.38
820.236	18.77
820.414	145.75
820.592	69.97
820.77	2.39
820.948	108.88
821.127	88.4
821.305	57.68
821.483	65.88
821.661	76.12
821.839	121.17
822.017	6.49
822.195	39.25
822.373	119.12
822.551	41.3
822.729	141.65
822.907	92.5
823.085	170.32
823.262	129.36
823.44	6.49
823.618	80.21
823.796	96.6
823.974	119.12
824.152	63.83
824.329	117.08
824.507	141.65
824.685	110.93
824.863	26.96
825.04	100.69
825.218	98.64
825.396	80.21
825.574	117.08
825.751	76.12
825.929	76.12
826.107	47.44
826.284	96.6
826.462	-5.8
826.639	24.92
826.817	67.92
826.994	108.88
827.172	92.5
827.349	88.4
827.527	82.26
827.704	76.12
827.882	88.4
828.059	80.21
828.237	45.4
828.414	67.92
828.591	47.44
828.769	86.36
828.946	74.07
829.124	49.49
829.301	10.58
829.478	-22.19
829.655	90.45
829.833	100.69
830.01	22.87
830.187	84.31
830.364	29.01
830.542	-9.9
830.719	88.4
830.896	184.66
831.073	74.07
831.25	55.64
831.427	35.16
831.604	57.68
831.782	55.64
831.959	201.04
832.136	16.73
832.313	98.64
832.49	63.83
832.667	18.77
832.844	-20.14
833.021	84.31
833.198	45.4
833.374	10.58
833.551	29.01
833.728	35.16
833.905	14.68
834.082	16.73
834.259	125.27
834.436	49.49
834.612	16.73
834.789	43.35
834.966	115.03
835.143	22.87
835.319	20.82
835.496	121.17
835.673	35.16
835.85	57.68
836.026	86.36
836.203	123.22
836.38	72.02
836.556	33.11
836.733	-34.47
836.909	41.3
837.086	112.98
837.262	72.02
837.439	41.3
837.616	96.6
837.792	69.97
837.968	39.25
838.145	-26.28
838.321	29.01
838.498	10.58
838.674	108.88
838.851	65.88
839.027	-34.47
839.203	33.11
839.38	24.92
839.556	33.11
839.732	53.59
839.909	6.49
840.085	24.92
840.261	-5.8
840.437	2.39
840.614	14.68
840.79	153.94
840.966	65.88
841.142	59.73
841.318	10.58
841.494	18.77
841.671	22.87
841.847	-9.9
842.023	-3.75
842.199	31.06
842.375	80.21
842.551	-16.04
842.727	72.02
842.903	55.64
843.079	22.87
843.255	59.73
843.431	-28.33
843.607	33.11
843.783	-24.23
843.959	74.07
844.134	-57
844.31	49.49
844.486	76.12
844.662	82.26
844.838	47.44
845.013	47.44
845.189	63.83
845.365	2.39
845.541	-5.8
845.716	14.68
845.892	6.49
846.068	72.02
846.244	-54.95
846.419	106.84
846.595	-26.28
846.77	14.68
846.946	45.4
847.122	69.97
847.297	33.11
847.473	31.06
847.648	-67.24
847.824	-32.43
847.999	63.83
848.175	67.92
848.35	-28.33
848.526	53.59
848.701	74.07
848.876	26.96
849.052	39.25
849.227	-38.57
849.403	26.96
849.578	0.34
849.753	-42.67
849.929	151.89
850.104	6.49
850.279	47.44
850.454	-48.81
850.63	37.2
850.805	-61.1
850.98	-9.9
851.155	47.44
851.33	141.65
851.505	49.49
851.681	137.56
851.856	-11.95
852.031	35.16
852.206	90.45
852.381	31.06
852.556	6.49
852.731	-16.04
852.906	47.44
853.081	49.49
853.256	35.16
853.431	84.31
853.606	-24.23
853.781	59.73
853.956	-54.95
854.131	55.64
854.305	4.44
854.48	33.11
854.655	39.25
854.83	41.3
855.005	0.34
855.18	-22.19
855.354	0.34
855.529	90.45
855.704	22.87
855.879	-13.99
856.053	-61.1
856.228	26.96
856.403	-22.19
856.577	59.73
856.752	-3.75
856.926	2.39
857.101	-1.71
857.276	-24.23
857.45	96.6
857.625	-36.52
857.799	12.63
857.974	-65.19
858.148	14.68
858.323	14.68
858.497	16.73
858.672	-16.04
858.846	41.3
859.02	14.68
859.195	-18.09
859.369	2.39
859.543	59.73
859.718	6.49
859.892	-18.09
860.066	-1.71
860.241	55.64
860.415	0.34
860.589	59.73
860.763	2.39
860.938	-59.05
861.112	-50.86
861.286	6.49
861.46	29.01
861.634	-32.43
861.808	-38.57
861.982	-83.63
862.157	6.49
862.331	72.02
862.505	-5.8
862.679	-18.09
862.853	-26.28
863.027	72.02
863.201	24.92
863.375	-1.71
863.549	55.64
863.722	47.44
863.896	55.64
864.07	29.01
864.244	-71.34
864.418	55.64
864.592	-50.86
864.766	-18.09
864.939	8.53
865.113	8.53
865.287	69.97
865.461	-28.33
865.634	16.73
865.808	-42.67
865.982	-7.85
866.156	-46.76
866.329	14.68
866.503	-13.99
866.676	-3.75
866.85	18.77
867.024	-18.09
867.197	43.35
867.371	18.77
867.544	26.96
867.718	4.44
867.891	55.64
868.065	2.39
868.238	74.07
868.412	47.44
868.585	6.49
868.759	-59.05
868.932	14.68
869.105	47.44
869.279	-18.09
869.452	2.39
869.625	-24.23
869.799	37.2
869.972	41.3
870.145	-40.62
870.319	72.02
870.492	74.07
870.665	-59.05
870.838	6.49
871.011	49.49
871.185	33.11
871.358	6.49
871.531	49.49
871.704	0.34
871.877	-5.8
872.05	39.25
872.223	-34.47
872.396	4.44
872.569	51.54
872.742	-36.52
872.915	41.3
873.088	-61.1
873.261	14.68
873.434	-3.75
873.607	14.68
873.78	31.06
873.953	-13.99
874.126	-1.71
874.299	76.12
874.471	0.34
874.644	31.06
874.817	22.87
874.99	72.02
875.163	-34.47
875.335	-7.85
875.508	43.35
875.681	37.2
875.853	-122.54
876.026	-20.14
876.199	80.21
876.371	22.87
876.544	6.49
876.717	18.77
876.889	-26.28
877.062	80.21
877.234	-95.91
877.407	16.73
877.579	-5.8
877.752	22.87
877.924	4.44
878.097	39.25
878.269	16.73
878.442	31.06
878.614	-9.9
878.786	12.63
878.959	39.25
879.131	49.49
879.303	20.82
879.476	8.53
879.648	6.49
879.82	-42.67
879.993	-9.9
880.165	-13.99
880.337	-48.81
880.509	-26.28
880.681	6.49
880.854	-67.24
881.026	-16.04
881.198	82.26
881.37	6.49
881.542	-54.95
881.714	10.58
881.886	-13.99
882.058	6.49
882.23	-9.9
882.402	-40.62
882.574	22.87
882.746	-22.19
882.918	63.83
883.09	0.34
883.262	-1.71
883.434	18.77
883.606	-24.23
883.778	-42.67
883.95	24.92
884.122	14.68
884.293	-5.8
884.465	16.73
884.637	49.49
884.809	-7.85
884.98	-18.09
885.152	37.2
885.324	14.68
885.496	-16.04
885.667	-1.71
885.839	-1.71
886.011	43.35
886.182	10.58
886.354	10.58
886.525	10.58
886.697	-18.09
886.869	-5.8
887.04	88.4
887.212	-26.28
887.383	121.17
887.555	51.54
887.726	-26.28
887.897	-46.76
888.069	-24.23
888.24	16.73
888.412	-26.28
888.583	-42.67
888.754	24.92
888.926	-73.39
889.097	0.34
889.268	-40.62
889.44	47.44
889.611	-67.24
889.782	-75.43
889.953	26.96
890.125	-22.19
890.296	-38.57
890.467	-18.09
890.638	43.35
890.809	-22.19
890.98	67.92
891.151	-54.95
891.323	-26.28
891.494	2.39
891.665	-44.71
891.836	4.44
892.007	90.45
892.178	-38.57
892.349	49.49
892.52	72.02
892.691	8.53
892.862	-32.43
893.032	-79.53
893.203	57.68
893.374	22.87
893.545	22.87
893.716	-26.28
893.887	-9.9
894.057	-28.33
894.228	104.79
894.399	-20.14
894.57	74.07
894.74	6.49
894.911	-9.9
895.082	0.34
895.253	8.53
895.423	-3.75
895.594	18.77
895.764	-18.09
895.935	-40.62
896.106	39.25
896.276	43.35
896.447	-32.43
896.617	-26.28
896.788	-32.43
896.958	-22.19
897.129	22.87
897.299	-13.99
897.47	39.25
897.64	6.49
897.81	-24.23
897.981	-50.86
898.151	72.02
898.322	0.34
898.492	26.96
898.662	-54.95
898.832	-32.43
899.003	24.92
899.173	67.92
899.343	-32.43
899.513	-50.86
