Data from USB4F104151__249__14-45-52-162.txt Node

Date: Thu Mar 13 14:45:52 EDT 2025
User: louis
Spectrometer: USB4F10415
Trigger mode: 4
Integration Time (sec): 2.000000E-2
Scans to average: 1
Electric dark correction enabled: true
Nonlinearity correction enabled: false
Boxcar width: 0
XAxis mode: Wavelengths
Number of Pixels in Spectrum: 3648
>>>>>Begin Spectral Data<<<<<
178.204	-123.22
178.424	-123.22
178.644	-123.22
178.864	-98.64
179.084	-92.5
179.304	-4.44
179.524	9.9
179.744	-65.88
179.964	44.71
180.184	18.09
180.404	24.23
180.624	3.75
180.844	1.71
181.064	-98.64
181.283	34.47
181.503	-65.88
181.723	97.96
181.943	-18.77
182.163	65.19
182.383	48.81
182.602	69.29
182.822	75.43
183.042	-0.34
183.262	-31.06
183.482	7.85
183.701	85.67
183.921	57
184.141	73.39
184.361	73.39
184.58	75.43
184.8	16.04
185.02	48.81
185.239	38.57
185.459	36.52
185.679	24.23
185.898	-29.01
186.118	81.58
186.338	20.14
186.557	18.09
186.777	-39.25
186.997	52.91
187.216	-6.49
187.436	57
187.655	-33.11
187.875	-8.53
188.095	-22.87
188.314	97.96
188.534	75.43
188.753	32.43
188.973	81.58
189.192	16.04
189.412	24.23
189.631	81.58
189.851	22.19
190.07	110.25
190.29	-0.34
190.509	73.39
190.729	-0.34
190.948	83.63
191.168	130.73
191.387	20.14
191.607	32.43
191.826	102.06
192.045	40.62
192.265	34.47
192.484	67.24
192.704	57
192.923	28.33
193.142	138.92
193.362	42.67
193.581	65.19
193.8	36.52
194.02	50.86
194.239	20.14
194.458	20.14
194.678	-22.87
194.897	32.43
195.116	-8.53
195.335	28.33
195.555	48.81
195.774	-31.06
195.993	46.76
196.212	-65.88
196.432	-47.44
196.651	-24.92
196.87	-88.4
197.089	57
197.308	20.14
197.528	26.28
197.747	-8.53
197.966	44.71
198.185	77.48
198.404	-20.82
198.623	20.14
198.842	73.39
199.062	91.82
199.281	46.76
199.5	24.23
199.719	3.75
199.938	57
200.157	89.77
200.376	65.19
200.595	34.47
200.814	16.04
201.033	-20.82
201.252	24.23
201.471	42.67
201.69	-0.34
201.909	89.77
202.128	46.76
202.347	7.85
202.566	57
202.785	-72.02
203.004	24.23
203.223	124.58
203.442	18.09
203.661	1.71
203.879	1.71
204.098	32.43
204.317	-20.82
204.536	9.9
204.755	-49.49
204.974	-8.53
205.193	42.67
205.411	110.25
205.63	57
205.849	1.71
206.068	75.43
206.287	-20.82
206.505	-33.11
206.724	42.67
206.943	-0.34
207.162	48.81
207.381	65.19
207.599	-24.92
207.818	24.23
208.037	-8.53
208.255	-0.34
208.474	89.77
208.693	-8.53
208.911	-39.25
209.13	20.14
209.349	-49.49
209.567	-14.68
209.786	38.57
210.005	32.43
210.223	16.04
210.442	7.85
210.661	73.39
210.879	61.1
211.098	26.28
211.316	42.67
211.535	57
211.753	3.75
211.972	48.81
212.191	20.14
212.409	102.06
212.628	50.86
212.846	-74.07
213.065	73.39
213.283	114.34
213.502	1.71
213.72	57
213.938	-0.34
214.157	18.09
214.375	38.57
214.594	-33.11
214.812	-16.73
215.031	30.38
215.249	13.99
215.467	65.19
215.686	102.06
215.904	93.87
216.122	-4.44
216.341	40.62
216.559	42.67
216.778	69.29
216.996	61.1
217.214	-16.73
217.432	9.9
217.651	11.95
217.869	91.82
218.087	69.29
218.306	34.47
218.524	32.43
218.742	-90.45
218.96	-6.49
219.179	46.76
219.397	1.71
219.615	77.48
219.833	-8.53
220.051	7.85
220.27	50.86
220.488	40.62
220.706	77.48
220.924	20.14
221.142	67.24
221.36	-14.68
221.578	-55.64
221.796	18.09
222.015	34.47
222.233	13.99
222.451	52.91
222.669	-26.96
222.887	-4.44
223.105	-63.83
223.323	67.24
223.541	28.33
223.759	181.93
223.977	-33.11
224.195	102.06
224.413	36.52
224.631	46.76
224.849	83.63
225.067	89.77
225.285	34.47
225.503	-6.49
225.721	-22.87
225.939	11.95
226.157	57
226.375	149.16
226.592	118.44
226.81	57
227.028	50.86
227.246	89.77
227.464	57
227.682	30.38
227.9	-22.87
228.117	59.05
228.335	52.91
228.553	22.19
228.771	-37.2
228.989	73.39
229.206	-16.73
229.424	-33.11
229.642	18.09
229.86	-47.44
230.077	57
230.295	28.33
230.513	83.63
230.731	57
230.948	73.39
231.166	89.77
231.384	50.86
231.601	-8.53
231.819	16.04
232.037	-49.49
232.254	22.19
232.472	81.58
232.689	-12.63
232.907	34.47
233.125	24.23
233.342	24.23
233.56	16.04
233.777	-31.06
233.995	61.1
234.213	50.86
234.43	50.86
234.648	44.71
234.865	48.81
235.083	1.71
235.3	-8.53
235.518	-10.58
235.735	67.24
235.953	16.04
236.17	26.28
236.388	34.47
236.605	108.2
236.822	50.86
237.04	1.71
237.257	24.23
237.475	3.75
237.692	48.81
237.909	26.28
238.127	16.04
238.344	-47.44
238.562	-0.34
238.779	7.85
238.996	32.43
239.214	59.05
239.431	81.58
239.648	69.29
239.865	-22.87
240.083	11.95
240.3	-0.34
240.517	36.52
240.735	26.28
240.952	81.58
241.169	44.71
241.386	13.99
241.603	18.09
241.821	32.43
242.038	67.24
242.255	-22.87
242.472	-8.53
242.689	61.1
242.907	63.15
243.124	79.53
243.341	18.09
243.558	16.04
243.775	-47.44
243.992	61.1
244.209	28.33
244.426	122.54
244.643	1.71
244.86	-10.58
245.078	-12.63
245.295	18.09
245.512	32.43
245.729	44.71
245.946	-14.68
246.163	104.11
246.38	1.71
246.597	18.09
246.814	22.19
247.031	-4.44
247.248	48.81
247.464	65.19
247.681	73.39
247.898	26.28
248.115	87.72
248.332	34.47
248.549	-0.34
248.766	91.82
248.983	20.14
249.2	22.19
249.417	61.1
249.633	-16.73
249.85	40.62
250.067	-37.2
250.284	32.43
250.501	63.15
250.717	89.77
250.934	28.33
251.151	38.57
251.368	9.9
251.585	44.71
251.801	1.71
252.018	-16.73
252.235	63.15
252.451	16.04
252.668	-0.34
252.885	91.82
253.102	20.14
253.318	7.85
253.535	-31.06
253.752	75.43
253.968	-41.3
254.185	57
254.401	-41.3
254.618	24.23
254.835	40.62
255.051	89.77
255.268	28.33
255.484	69.29
255.701	112.3
255.917	7.85
256.134	5.8
256.351	52.91
256.567	50.86
256.784	-14.68
257	-41.3
257.217	40.62
257.433	69.29
257.65	48.81
257.866	3.75
258.082	34.47
258.299	18.09
258.515	28.33
258.732	42.67
258.948	11.95
259.165	-2.39
259.381	73.39
259.597	69.29
259.814	93.87
260.03	50.86
260.246	36.52
260.463	-0.34
260.679	57
260.895	34.47
261.112	-29.01
261.328	22.19
261.544	50.86
261.761	65.19
261.977	48.81
262.193	-37.2
262.409	3.75
262.626	34.47
262.842	73.39
263.058	67.24
263.274	102.06
263.49	24.23
263.707	16.04
263.923	50.86
264.139	-78.16
264.355	34.47
264.571	16.04
264.787	61.1
265.004	118.44
265.22	32.43
265.436	61.1
265.652	83.63
265.868	24.23
266.084	-47.44
266.3	57
266.516	71.34
266.732	20.14
266.948	73.39
267.164	106.15
267.38	69.29
267.596	20.14
267.812	85.67
268.028	28.33
268.244	-33.11
268.46	-8.53
268.676	32.43
268.892	61.1
269.108	9.9
269.324	-8.53
269.54	79.53
269.756	-10.58
269.972	-4.44
270.188	22.19
270.403	-49.49
270.619	59.05
270.835	-65.88
271.051	52.91
271.267	42.67
271.483	57
271.698	89.77
271.914	36.52
272.13	71.34
272.346	28.33
272.562	57
272.777	57
272.993	-12.63
273.209	-2.39
273.425	57
273.64	16.04
273.856	54.95
274.072	48.81
274.287	18.09
274.503	32.43
274.719	57
274.934	42.67
275.15	-53.59
275.366	46.76
275.581	38.57
275.797	48.81
276.012	30.38
276.228	89.77
276.444	-22.87
276.659	100.01
276.875	48.81
277.09	38.57
277.306	22.19
277.521	28.33
277.737	-4.44
277.952	61.1
278.168	34.47
278.383	5.8
278.599	36.52
278.814	-29.01
279.03	48.81
279.245	-2.39
279.461	16.04
279.676	1.71
279.892	83.63
280.107	24.23
280.322	7.85
280.538	75.43
280.753	-0.34
280.969	48.81
281.184	83.63
281.399	124.58
281.615	30.38
281.83	124.58
282.045	-12.63
282.26	34.47
282.476	-0.34
282.691	48.81
282.906	48.81
283.122	28.33
283.337	24.23
283.552	75.43
283.767	-4.44
283.983	65.19
284.198	-24.92
284.413	-12.63
284.628	-16.73
284.843	75.43
285.058	61.1
285.274	-4.44
285.489	-20.82
285.704	30.38
285.919	-24.92
286.134	57
286.349	63.15
286.564	57
286.779	93.87
286.995	157.35
287.21	20.14
287.425	63.15
287.64	28.33
287.855	93.87
288.07	28.33
288.285	30.38
288.5	42.67
288.715	122.54
288.93	-39.25
289.145	20.14
289.36	13.99
289.575	24.23
289.79	-22.87
290.004	-86.36
290.219	48.81
290.434	7.85
290.649	81.58
290.864	83.63
291.079	-12.63
291.294	97.96
291.509	59.05
291.724	18.09
291.938	38.57
292.153	42.67
292.368	40.62
292.583	59.05
292.798	-8.53
293.012	16.04
293.227	9.9
293.442	-14.68
293.657	52.91
293.871	67.24
294.086	81.58
294.301	26.28
294.516	-2.39
294.73	-16.73
294.945	-4.44
295.16	22.19
295.374	59.05
295.589	32.43
295.804	-33.11
296.018	28.33
296.233	122.54
296.447	-20.82
296.662	34.47
296.877	13.99
297.091	59.05
297.306	71.34
297.52	83.63
297.735	-6.49
297.949	63.15
298.164	44.71
298.378	-14.68
298.593	-22.87
298.807	-39.25
299.022	118.44
299.236	34.47
299.451	48.81
299.665	16.04
299.88	13.99
300.094	89.77
300.309	-12.63
300.523	97.96
300.737	-61.78
300.952	20.14
301.166	11.95
301.381	-16.73
301.595	124.58
301.809	26.28
302.024	16.04
302.238	-0.34
302.452	73.39
302.667	44.71
302.881	106.15
303.095	61.1
303.309	5.8
303.524	40.62
303.738	20.14
303.952	57
304.166	65.19
304.381	13.99
304.595	69.29
304.809	-33.11
305.023	18.09
305.237	-33.11
305.452	26.28
305.666	-16.73
305.88	91.82
306.094	48.81
306.308	3.75
306.522	67.24
306.736	67.24
306.95	57
307.164	102.06
307.379	52.91
307.593	108.2
307.807	83.63
308.021	32.43
308.235	46.76
308.449	18.09
308.663	-33.11
308.877	106.15
309.091	30.38
309.305	48.81
309.519	24.23
309.733	83.63
309.947	-63.83
310.161	118.44
310.374	16.04
310.588	130.73
310.802	-39.25
311.016	63.15
311.23	57
311.444	-41.3
311.658	63.15
311.872	81.58
312.085	40.62
312.299	20.14
312.513	-16.73
312.727	-49.49
312.941	26.28
313.154	50.86
313.368	-10.58
313.582	97.96
313.796	71.34
314.009	32.43
314.223	13.99
314.437	57
314.651	7.85
314.864	59.05
315.078	40.62
315.292	91.82
315.505	83.63
315.719	-10.58
315.933	54.95
316.146	9.9
316.36	26.28
316.573	73.39
316.787	57
317.001	-14.68
317.214	3.75
317.428	85.67
317.641	44.71
317.855	57
318.068	77.48
318.282	89.77
318.495	83.63
318.709	77.48
318.922	63.15
319.136	34.47
319.349	26.28
319.563	40.62
319.776	-0.34
319.99	11.95
320.203	85.67
320.417	63.15
320.63	24.23
320.843	118.44
321.057	57
321.27	-2.39
321.483	91.82
321.697	97.96
321.91	122.54
322.124	91.82
322.337	77.48
322.55	48.81
322.763	85.67
322.977	50.86
323.19	-65.88
323.403	44.71
323.617	69.29
323.83	48.81
324.043	52.91
324.256	36.52
324.469	-33.11
324.683	85.67
324.896	-53.59
325.109	16.04
325.322	-24.92
325.535	61.1
325.748	77.48
325.962	-4.44
326.175	67.24
326.388	112.3
326.601	48.81
326.814	-26.96
327.027	122.54
327.24	104.11
327.453	32.43
327.666	59.05
327.879	75.43
328.092	83.63
328.305	114.34
328.518	57
328.731	16.04
328.944	40.62
329.157	-49.49
329.37	20.14
329.583	122.54
329.796	44.71
330.009	-24.92
330.222	97.96
330.435	48.81
330.648	26.28
330.861	24.23
331.073	7.85
331.286	87.72
331.499	28.33
331.712	-24.92
331.925	65.19
332.138	59.05
332.35	89.77
332.563	44.71
332.776	57
332.989	7.85
333.202	26.28
333.414	34.47
333.627	22.19
333.84	75.43
334.053	32.43
334.265	89.77
334.478	28.33
334.691	32.43
334.903	57
335.116	73.39
335.329	54.95
335.541	93.87
335.754	40.62
335.966	24.23
336.179	52.91
336.392	-57.68
336.604	-16.73
336.817	44.71
337.029	-41.3
337.242	-16.73
337.454	67.24
337.667	65.19
337.88	95.91
338.092	-0.34
338.305	59.05
338.517	87.72
338.729	73.39
338.942	67.24
339.154	-6.49
339.367	7.85
339.579	97.96
339.792	57
340.004	77.48
340.217	-26.96
340.429	28.33
340.641	28.33
340.854	9.9
341.066	7.85
341.278	-33.11
341.491	63.15
341.703	20.14
341.915	24.23
342.128	54.95
342.34	-14.68
342.552	116.39
342.764	24.23
342.977	61.1
343.189	91.82
343.401	1.71
343.613	69.29
343.826	48.81
344.038	1.71
344.25	147.11
344.462	93.87
344.674	28.33
344.886	124.58
345.099	126.63
345.311	65.19
345.523	18.09
345.735	-33.11
345.947	40.62
346.159	81.58
346.371	38.57
346.583	-22.87
346.795	93.87
347.007	100.01
347.219	-4.44
347.431	1.71
347.643	89.77
347.855	32.43
348.067	59.05
348.279	75.43
348.491	59.05
348.703	-14.68
348.915	50.86
349.127	18.09
349.339	40.62
349.551	26.28
349.763	-14.68
349.975	11.95
350.187	67.24
350.399	50.86
350.61	40.62
350.822	32.43
351.034	18.09
351.246	73.39
351.458	65.19
351.669	57
351.881	126.63
352.093	57
352.305	36.52
352.517	40.62
352.728	122.54
352.94	36.52
353.152	75.43
353.363	9.9
353.575	36.52
353.787	50.86
353.999	-10.58
354.21	122.54
354.422	73.39
354.633	81.58
354.845	81.58
355.057	73.39
355.268	40.62
355.48	57
355.692	3.75
355.903	-53.59
356.115	18.09
356.326	57
356.538	-0.34
356.749	24.23
356.961	77.48
357.172	-24.92
357.384	7.85
357.595	102.06
357.807	50.86
358.018	-8.53
358.23	112.3
358.441	65.19
358.653	54.95
358.864	106.15
359.075	5.8
359.287	-24.92
359.498	128.68
359.709	11.95
359.921	24.23
360.132	132.78
360.344	42.67
360.555	59.05
360.766	73.39
360.977	40.62
361.189	155.3
361.4	-0.34
361.611	44.71
361.823	54.95
362.034	83.63
362.245	11.95
362.456	65.19
362.667	65.19
362.879	73.39
363.09	73.39
363.301	118.44
363.512	24.23
363.723	81.58
363.935	28.33
364.146	7.85
364.357	57
364.568	89.77
364.779	-47.44
364.99	79.53
365.201	57
365.412	100.01
365.623	40.62
365.834	73.39
366.045	-4.44
366.256	97.96
366.467	77.48
366.678	83.63
366.889	32.43
367.1	57
367.311	132.78
367.522	134.82
367.733	114.34
367.944	89.77
368.155	3.75
368.366	130.73
368.577	32.43
368.788	57
368.999	32.43
369.209	-14.68
369.42	149.16
369.631	130.73
369.842	16.04
370.053	75.43
370.264	67.24
370.474	61.1
370.685	106.15
370.896	87.72
371.107	77.48
371.317	91.82
371.528	57
371.739	114.34
371.95	61.1
372.16	118.44
372.371	-53.59
372.582	42.67
372.792	102.06
373.003	42.67
373.214	36.52
373.424	32.43
373.635	36.52
373.846	122.54
374.056	34.47
374.267	73.39
374.477	81.58
374.688	50.86
374.898	28.33
375.109	7.85
375.319	36.52
375.53	134.82
375.74	128.68
375.951	18.09
376.161	44.71
376.372	97.96
376.582	42.67
376.793	83.63
377.003	57
377.214	100.01
377.424	73.39
377.635	61.1
377.845	42.67
378.055	81.58
378.266	-24.92
378.476	-16.73
378.686	57
378.897	26.28
379.107	89.77
379.317	138.92
379.528	89.77
379.738	130.73
379.948	69.29
380.158	63.15
380.369	71.34
380.579	32.43
380.789	26.28
380.999	85.67
381.21	106.15
381.42	165.54
381.63	-2.39
381.84	77.48
382.05	13.99
382.261	59.05
382.471	77.48
382.681	-14.68
382.891	130.73
383.101	40.62
383.311	11.95
383.521	63.15
383.731	106.15
383.941	85.67
384.151	59.05
384.361	106.15
384.571	147.11
384.781	59.05
384.991	40.62
385.201	97.96
385.411	118.44
385.621	40.62
385.831	120.49
386.041	16.04
386.251	57
386.461	85.67
386.671	44.71
386.881	77.48
387.091	11.95
387.301	165.54
387.511	-12.63
387.72	65.19
387.93	7.85
388.14	59.05
388.35	38.57
388.56	50.86
388.769	81.58
388.979	24.23
389.189	44.71
389.399	65.19
389.609	100.01
389.818	91.82
390.028	83.63
390.238	48.81
390.447	16.04
390.657	65.19
390.867	46.76
391.076	57
391.286	126.63
391.496	124.58
391.705	61.1
391.915	40.62
392.125	67.24
392.334	48.81
392.544	67.24
392.753	77.48
392.963	102.06
393.172	132.78
393.382	48.81
393.591	89.77
393.801	106.15
394.01	114.34
394.22	89.77
394.429	97.96
394.639	75.43
394.848	69.29
395.058	79.53
395.267	30.38
395.477	77.48
395.686	89.77
395.895	118.44
396.105	138.92
396.314	91.82
396.524	83.63
396.733	75.43
396.942	198.31
397.152	89.77
397.361	147.11
397.57	106.15
397.78	118.44
397.989	116.39
398.198	138.92
398.407	116.39
398.617	42.67
398.826	153.26
399.035	159.4
399.244	122.54
399.453	83.63
399.663	75.43
399.872	122.54
400.081	75.43
400.29	132.78
400.499	81.58
400.708	188.07
400.917	128.68
401.127	134.82
401.336	196.26
401.545	190.12
401.754	206.5
401.963	173.74
402.172	89.77
402.381	110.25
402.59	83.63
402.799	114.34
403.008	198.31
403.217	157.35
403.426	138.92
403.635	140.97
403.844	110.25
404.053	179.88
404.262	175.78
404.471	208.55
404.68	198.31
404.888	114.34
405.097	159.4
405.306	100.01
405.515	194.22
405.724	149.16
405.933	145.06
406.142	200.36
406.35	171.69
406.559	239.27
406.768	247.46
406.977	192.17
407.185	204.46
407.394	280.23
407.603	161.45
407.812	222.89
408.02	231.08
408.229	290.47
408.438	263.85
408.646	220.84
408.855	280.23
409.064	212.65
409.272	313
409.481	313
409.69	278.18
409.898	335.53
410.107	343.72
410.315	386.72
410.524	360.1
410.733	345.77
410.941	384.68
411.15	419.49
411.358	474.79
411.567	474.79
411.775	454.31
411.984	482.98
412.192	566.95
412.401	534.18
412.609	581.28
412.818	630.43
413.026	603.81
413.234	577.19
413.443	577.19
413.651	614.05
413.86	655.01
414.068	695.97
414.276	695.97
414.485	671.39
414.693	816.8
414.901	767.65
415.11	769.69
415.318	773.79
415.526	829.09
415.734	855.71
415.943	884.38
416.151	978.59
416.359	911
416.567	990.88
416.776	1121.95
416.984	1052.31
417.192	1130.14
417.4	1093.27
417.608	1189.53
417.817	1228.44
418.025	1246.87
418.233	1318.55
418.441	1281.69
418.649	1388.18
418.857	1484.44
419.065	1584.79
419.273	1470.1
419.481	1597.07
419.689	1599.12
419.897	1744.53
420.105	1695.38
420.313	1746.58
420.521	1826.45
420.729	2027.15
420.937	2018.96
421.145	1965.71
421.353	2080.39
421.561	2229.9
421.769	2190.99
421.977	2377.35
422.185	2277
422.393	2514.56
422.601	2612.87
422.809	2563.72
423.017	2698.88
423.224	2877.05
423.432	2848.38
423.64	2899.58
423.848	3128.95
424.056	3079.8
424.263	3329.66
424.471	3391.09
424.679	3245.69
424.887	3528.31
425.094	3649.14
425.302	3784.3
425.51	3726.96
425.718	3892.85
425.925	4042.35
426.133	4249.19
426.341	4453.99
426.548	4617.83
426.756	4529.77
426.964	4615.78
427.171	4925.02
427.379	4994.65
427.586	5078.62
427.794	5373.53
428.001	5514.84
428.209	5774.93
428.417	5596.76
428.624	6078.03
428.832	6061.65
429.039	5994.06
429.247	5979.73
429.454	6532.68
429.662	6983.23
429.869	6598.21
430.076	7114.3
430.284	6889.03
430.491	7269.95
430.699	7472.7
430.906	7663.16
431.114	7622.2
431.321	8199.73
431.528	7980.59
431.736	8603.18
431.943	8910.37
432.15	8840.74
432.358	8877.6
432.565	9373.21
432.772	9459.23
432.979	9831.96
433.187	9977.36
433.394	9983.51
433.601	10702.34
433.808	10970.63
434.016	10710.54
434.223	11228.67
434.43	11814.39
434.637	11591.16
434.844	12307.95
435.052	12525.04
435.259	12453.36
435.466	12717.54
435.673	12330.48
435.88	13149.67
436.087	14042.58
436.294	13979.09
436.501	13712.86
436.708	14007.76
436.915	14364.11
437.122	15119.81
437.329	15125.96
437.537	15478.21
437.743	15873.46
437.95	15603.13
438.157	16491.95
438.364	17010.09
438.571	16999.85
438.778	17079.72
438.985	18691.47
439.192	18085.27
439.399	18433.43
439.606	17997.21
439.813	19060.1
440.02	20084.09
440.227	20014.46
440.433	19742.08
440.64	20749.68
440.847	20139.38
441.054	20735.34
441.261	22052.19
441.467	21839.2
441.674	22291.8
441.881	22981.96
442.088	22918.48
442.294	22764.88
442.501	23434.57
442.708	23821.63
442.914	24706.35
443.121	26178.84
443.328	25097.52
443.534	26731.79
443.741	26189.08
443.948	25816.35
444.154	27874.56
444.361	27725.06
444.568	27868.42
444.774	27819.27
444.981	27989.25
445.187	28857.59
445.394	30321.88
445.6	29879.52
445.807	32894.13
446.013	31169.74
446.22	32312.51
446.426	32793.78
446.633	33473.71
446.839	34772.12
447.046	33277.1
447.252	34808.98
447.459	35030.16
447.665	34960.53
447.871	36224.13
448.078	38036.58
448.284	36154.5
448.491	37532.78
448.697	38458.46
448.903	39427.15
449.11	39560.27
449.316	39255.12
449.522	39896.14
449.728	40735.81
449.935	41452.59
450.141	41047.1
450.347	42447.91
450.553	40684.61
450.76	41313.33
450.966	42570.79
451.172	42087.46
451.378	43312.15
451.584	42062.89
451.791	43338.77
451.997	43586.58
452.203	43994.12
452.409	43947.02
452.615	44225.54
452.821	42736.67
453.027	42439.72
453.233	44723.2
453.44	42628.13
453.646	43162.65
453.852	43670.54
454.058	44030.99
454.264	42738.72
454.47	43854.86
454.676	42456.1
454.882	44645.38
455.088	40152.13
455.294	40940.6
455.5	41751.6
455.705	42062.89
455.911	40754.24
456.117	39773.26
456.323	39357.52
456.529	37141.62
456.735	39220.31
456.941	38161.51
457.147	37938.28
457.352	36492.41
457.558	36359.3
457.764	36457.6
457.97	35513.48
458.176	34731.16
458.381	34845.85
458.587	33543.34
458.793	33748.14
458.999	31626.44
459.204	34120.87
459.41	33008.82
459.616	30971.09
459.821	31048.91
460.027	30655.7
460.233	30303.45
460.438	28890.35
460.644	28974.32
460.85	27919.62
461.055	27270.41
461.261	27485.45
461.466	25128.24
461.672	24497.46
461.878	26363.16
462.083	24898.86
462.289	23983.42
462.494	23926.08
462.7	22781.26
462.905	22281.56
463.111	23086.41
463.316	23088.46
463.522	22572.37
463.727	22826.32
463.932	22916.43
464.138	22388.05
464.343	22431.06
464.549	21988.7
464.754	22820.17
464.959	22322.52
465.165	22109.53
465.37	21454.18
465.575	20782.45
465.781	21646.69
465.986	21572.96
466.191	20759.92
466.397	20569.46
466.602	19346.82
466.807	20563.31
467.012	20475.25
467.218	20454.77
467.423	19703.17
467.628	20192.63
467.833	20743.53
468.038	20161.91
468.244	19295.62
468.449	20618.61
468.654	19799.42
468.859	19629.44
469.064	19608.96
469.269	18714
469.474	18881.93
469.679	19254.66
469.885	18505.1
470.09	18879.88
470.295	18939.27
470.5	18341.27
470.705	18699.66
470.91	18228.63
471.115	18159
471.32	18245.01
471.525	18005.4
471.73	17900.95
471.935	17708.44
472.139	17036.71
472.344	17313.19
472.549	17169.83
472.754	16969.13
472.959	16631.21
473.164	16324.02
473.369	16381.36
473.574	16420.27
473.778	16473.52
473.983	16336.31
474.188	16432.56
474.393	15594.94
474.598	15795.64
474.802	15437.25
475.007	15377.86
475.212	15521.21
475.417	14726.6
475.621	15101.38
475.826	15035.85
476.031	14767.56
476.235	14282.19
476.44	14665.16
476.645	14212.56
476.849	14104.02
477.054	14132.69
477.259	13923.8
477.463	13934.04
477.668	13684.19
477.872	13657.56
478.077	13153.76
478.282	13229.54
478.486	13006.31
478.691	13020.64
478.895	13000.16
479.1	12965.35
479.304	13012.45
479.509	12824.04
479.713	12807.66
479.918	12355.05
480.122	12387.82
480.326	12660.2
480.531	12518.89
480.735	12377.58
480.94	12287.47
481.144	12633.58
481.348	12019.19
481.553	12082.67
481.757	11955.7
481.961	12092.91
482.166	12246.51
482.37	11779.57
482.574	11838.97
482.778	11869.69
482.983	12158.45
483.187	11949.56
483.391	12064.24
483.595	11838.97
483.8	11830.77
484.004	11974.13
484.208	12068.34
484.412	11867.64
484.616	12066.29
484.821	11863.54
485.025	11945.46
485.229	12029.43
485.433	11912.69
485.637	11910.64
485.841	11804.15
486.045	12092.91
486.249	11845.11
486.453	11884.02
486.657	12015.09
486.861	12068.34
487.065	11689.46
487.269	11947.51
487.473	11849.21
487.677	12088.82
487.881	12078.58
488.085	11763.19
488.289	12197.36
488.493	11896.31
488.697	12068.34
488.901	12158.45
489.105	12035.57
489.309	12094.96
489.512	11967.99
489.716	12477.93
489.92	12140.02
490.124	12393.97
490.328	12525.04
490.531	12537.32
490.735	12459.5
490.939	12461.55
491.143	12221.94
491.346	12574.19
491.55	12819.94
491.754	12764.65
491.958	12738.02
492.161	12615.15
492.365	12711.4
492.569	12758.5
492.772	12830.18
492.976	13055.46
493.18	13065.7
493.383	13077.99
493.587	13159.91
493.79	13450.72
493.994	13190.63
494.197	13319.65
494.401	13450.72
494.605	13698.52
494.808	13852.12
495.012	13770.2
495.215	13989.33
495.419	14153.17
495.622	13993.43
495.825	14095.83
496.029	14202.32
496.232	14917.06
496.436	14433.74
496.639	14933.45
496.843	14810.57
497.046	15093.19
497.249	15244.74
497.453	15211.97
497.656	15683
497.859	15756.73
498.063	15744.44
498.266	16260.53
498.469	16244.15
498.673	16240.05
498.876	16520.62
499.079	16745.9
499.282	16657.84
499.485	17094.05
499.689	16897.45
499.892	17634.72
500.095	17606.05
500.298	17741.21
500.501	17868.19
500.705	18247.06
500.908	18386.32
501.111	18773.39
501.314	18754.96
501.517	19029.38
501.72	19246.47
501.923	19010.95
502.126	19643.77
502.329	19914.11
502.532	20067.7
502.735	20243.83
502.938	20712.81
503.141	20698.48
503.344	21265.77
503.547	21110.12
503.75	21288.29
503.953	21914.97
504.156	22121.82
504.359	22185.3
504.562	22535.51
504.765	22924.62
504.968	22803.79
505.17	23514.44
505.373	23426.37
505.576	23764.29
505.779	24106.3
505.982	24386.87
506.185	24583.48
506.387	25027.88
506.59	24978.73
506.793	25593.12
506.996	25687.33
507.198	26178.84
507.401	26340.63
507.604	26402.07
507.807	27104.53
508.009	26909.97
508.212	27651.33
508.415	27931.9
508.617	27958.53
508.82	28140.8
509.022	28210.43
509.225	28974.32
509.428	29138.16
509.63	29523.18
509.833	29603.05
510.035	30438.62
510.238	30485.72
510.44	30532.82
510.643	30917.84
510.845	31407.31
511.048	31423.69
511.25	32019.65
511.453	32294.08
511.655	33207.47
511.858	32634.04
512.06	32980.15
512.262	33414.32
512.465	33455.28
512.667	34071.71
512.87	34264.22
513.072	34440.35
513.274	35474.57
513.477	35724.43
513.679	36045.96
513.881	36199.55
514.084	36476.03
514.286	36615.29
514.488	36820.09
514.69	38134.88
514.893	38542.43
515.095	38032.49
515.297	38724.7
515.499	38470.75
515.701	39156.82
515.904	39887.95
516.106	40121.41
516.308	40604.74
516.51	40641.6
516.712	40795.2
516.914	41331.76
517.116	41964.59
517.318	41755.69
517.52	42079.27
517.722	42480.67
517.925	43058.2
518.127	43557.91
518.329	43936.78
518.531	43658.26
518.733	44477.44
518.935	44880.89
519.136	45212.66
519.338	45216.76
519.54	45868.01
519.742	46519.27
519.944	46197.74
520.146	46621.67
520.348	47313.88
520.55	47715.28
520.752	47705.04
520.954	48671.68
521.155	48124.88
521.357	48919.49
521.559	48784.32
521.761	49816.5
521.963	49490.87
522.164	50183.08
522.366	50056.11
522.568	50488.23
522.77	50809.76
522.971	51516.31
523.173	51225.5
523.375	51854.23
523.576	51389.34
523.778	52081.55
523.98	52634.5
524.181	52697.99
524.383	52636.55
524.584	53930.87
524.786	53324.67
524.988	53285.76
525.189	54203.25
525.391	54227.82
525.592	54373.23
525.794	54283.12
525.995	54858.6
526.197	54649.7
526.398	54991.72
526.6	55141.22
526.801	55597.91
527.003	55669.59
527.204	55931.73
527.406	56247.12
527.607	56275.79
527.808	56769.35
528.01	56144.72
528.211	56898.37
528.412	57459.52
528.614	57062.21
528.815	57013.06
529.016	57699.13
529.218	57512.77
529.419	57273.15
529.62	57455.42
529.822	57430.85
530.023	57477.95
530.224	57580.35
530.425	57684.79
530.626	57324.35
530.828	57633.6
531.029	58663.72
531.23	57889.59
531.431	57987.89
531.632	58071.86
531.833	58463.02
532.035	58440.49
532.236	58532.65
532.437	58921.77
532.638	58172.21
532.839	58897.19
533.04	59192.1
533.241	58610.48
533.442	59454.24
533.643	58604.33
533.844	59022.12
534.045	59058.98
534.246	58250.03
534.447	58938.15
534.648	58884.9
534.849	58917.67
535.05	58278.71
535.251	59155.24
535.451	58614.57
535.652	59167.52
535.853	59112.23
536.054	59044.65
536.255	58805.03
536.456	58821.42
536.657	59167.52
536.857	58962.73
537.058	58903.34
537.259	59480.86
537.46	58925.86
537.66	58493.74
537.861	58823.47
538.062	58712.87
538.263	59120.42
538.463	58802.99
538.664	59032.36
538.865	59304.74
539.065	59417.38
539.266	58432.3
539.466	59405.09
539.667	58430.26
539.868	59360.03
540.068	58911.53
540.269	58936.1
540.469	59188
540.67	58508.08
540.87	58815.27
541.071	58790.7
541.271	59220.77
541.472	59024.17
541.672	58622.76
541.873	58688.3
542.073	58422.06
542.274	59042.6
542.474	58706.73
542.675	58391.34
542.875	59044.65
543.075	58768.17
543.276	58024.76
543.476	59216.68
543.676	58342.19
543.877	58493.74
544.077	59157.28
544.277	58657.58
544.478	58673.96
544.678	59120.42
544.878	58970.92
545.078	58600.24
545.279	58104.63
545.479	58602.28
545.679	58755.88
545.879	58303.28
546.079	58663.72
546.28	58577.71
546.48	58331.95
546.68	58714.92
546.88	58854.18
547.08	58749.74
547.28	58714.92
547.48	58372.91
547.68	58583.85
547.88	58053.43
548.081	58737.45
548.281	58479.41
548.481	58729.26
548.681	58682.16
548.881	58510.13
549.081	58422.06
549.28	58401.58
549.48	58532.65
549.68	58446.64
549.88	59052.84
550.08	58276.66
550.28	58381.1
550.48	58135.35
550.68	58905.38
550.88	58346.29
551.08	58336.05
551.279	58204.98
551.479	58151.73
551.679	58682.16
551.879	57963.32
552.079	58188.59
552.278	57881.4
552.478	58282.8
552.678	58348.34
552.878	58454.83
553.077	58221.36
553.277	57860.92
553.477	58600.24
553.676	58213.17
553.876	58127.16
554.076	57783.1
554.275	57701.18
554.475	57463.61
554.674	57920.31
554.874	58110.77
555.074	57799.48
555.273	58028.85
555.473	57912.12
555.672	57758.52
555.872	57893.69
556.071	57793.34
556.271	57930.55
556.47	57168.71
556.67	56853.32
556.869	57434.94
557.068	57731.9
557.268	57056.07
557.467	57535.29
557.667	57271.1
557.866	57043.78
558.065	57410.37
558.265	57232.19
558.464	56970.05
558.663	57377.6
558.863	56929.09
559.062	57840.44
559.261	56746.82
559.461	57289.54
559.66	56230.74
559.859	56685.39
560.058	56699.72
560.258	56685.39
560.457	56292.18
560.656	57062.21
560.855	56312.66
561.054	57025.35
561.253	56052.56
561.453	56322.9
561.652	56505.16
561.851	56521.55
562.05	56552.27
562.249	55751.51
562.448	56648.52
562.647	56077.14
562.846	56175.44
563.045	55724.89
563.244	55454.56
563.443	56621.9
563.642	55348.06
563.841	55538.52
564.04	55419.74
564.239	56111.95
564.438	55339.87
564.637	55401.31
564.836	55337.82
565.035	55200.61
565.234	55063.39
565.432	54559.59
565.631	55245.66
565.83	55296.86
566.029	54705
566.228	54825.83
566.427	54496.11
566.625	54631.27
566.824	54217.58
567.023	55116.64
567.222	53775.22
567.42	54571.88
567.619	54274.93
567.818	54678.38
568.016	54145.9
568.215	54416.24
568.414	54082.42
568.612	54479.72
568.811	53969.78
569.01	54018.93
569.208	52900.74
569.407	53728.12
569.605	53240.7
569.804	53824.37
570.002	53486.46
570.201	53676.92
570.4	52837.25
570.598	53267.33
570.797	53037.95
570.995	53003.14
571.193	52372.36
571.392	52917.12
571.59	52343.69
571.789	52683.65
571.987	52458.38
572.186	52491.15
572.384	51956.63
572.582	52312.97
572.781	52702.09
572.979	51985.3
573.177	52044.69
573.376	52005.78
573.574	51729.3
573.772	51839.89
573.971	51123.1
574.169	51168.16
574.367	51266.46
574.565	51538.84
574.763	50979.74
574.962	50736.04
575.16	50508.71
575.358	51090.34
575.556	50123.69
575.754	50983.84
575.952	50140.08
576.151	50758.56
576.349	49982.38
576.547	49976.24
576.745	50371.5
576.943	49839.03
577.141	49777.59
577.339	49671.09
577.537	49654.71
577.735	49509.3
577.933	49275.83
578.131	49357.75
578.329	48956.35
578.527	48712.64
578.725	48808.9
578.923	49228.73
579.121	48759.75
579.319	48448.46
579.516	48628.68
579.714	48292.81
579.912	48065.49
580.11	48305.1
580.308	48219.08
580.506	48190.41
580.704	47553.49
580.901	47870.93
581.099	47961.04
581.297	47293.4
581.495	47182.81
581.692	47350.74
581.89	46730.21
582.088	47512.53
582.285	46730.21
582.483	47080.41
582.681	46593
582.878	46722.02
583.076	46404.58
583.274	46455.78
583.471	46269.42
583.669	46199.79
583.866	45628.4
584.064	46306.28
584.262	45331.45
584.459	46126.06
584.657	45816.82
584.854	45704.18
585.052	45151.23
585.249	45233.14
585.447	45513.72
585.644	44913.66
585.841	45509.62
586.039	44844.03
586.236	44506.12
586.434	44852.22
586.631	44362.76
586.828	44780.54
587.026	44487.68
587.223	43885.58
587.42	44135.43
587.618	44033.03
587.815	43811.85
588.012	43406.36
588.21	43662.35
588.407	44313.61
588.604	43267.09
588.801	43011.1
588.999	42945.56
589.196	42736.67
589.393	43553.81
589.59	42431.52
589.787	42687.52
589.984	42480.67
590.182	42130.47
590.379	42736.67
590.576	42191.91
590.773	42103.85
590.97	41874.48
591.167	42224.68
591.364	41780.27
591.561	41724.97
591.758	41401.39
591.955	41409.59
592.152	41792.56
592.349	41264.18
592.546	41389.11
592.743	41073.72
592.94	40766.52
593.137	40959.03
593.334	41153.59
593.531	40342.6
593.727	40733.76
593.924	40424.51
594.121	40207.43
594.318	40719.42
594.515	39732.3
594.712	40154.18
594.908	39316.56
595.105	39736.4
595.302	39367.76
595.499	39552.08
595.696	39300.18
595.892	39074.9
596.089	39357.52
596.286	39437.39
596.482	38954.07
596.679	38745.18
596.876	39138.39
597.072	38300.77
597.269	38913.11
597.466	38042.73
597.662	37942.38
597.859	38126.69
598.055	38012.01
598.252	37713
598.448	38001.77
598.645	37620.84
598.841	37207.15
599.038	37682.28
599.234	37284.98
599.431	37205.11
599.627	37037.17
599.824	37485.68
600.02	36949.11
600.217	36861.05
600.413	37098.61
600.609	36707.45
600.806	36549.76
601.002	36654.2
601.198	36371.58
601.395	35927.17
601.591	36064.39
601.787	36181.12
601.984	35658.89
602.18	36660.35
602.376	35695.75
602.572	35511.44
602.769	35576.97
602.965	34999.44
603.161	35509.39
603.357	34964.63
603.553	34911.38
603.75	35204.24
603.946	34862.23
604.142	34751.64
604.338	34569.37
604.534	34788.5
604.73	34473.12
604.926	33895.59
605.122	34608.28
605.318	34190.5
605.514	33997.99
605.71	33324.21
605.906	33686.7
606.102	33907.88
606.298	33868.97
606.494	33688.74
606.69	33713.32
606.886	33557.67
607.082	33023.15
607.278	33477.8
607.474	32799.93
607.67	33266.86
607.866	32824.5
608.062	32994.48
608.257	32732.34
608.453	32820.41
608.649	33006.77
608.845	32515.26
609.041	32685.24
609.236	32740.54
609.432	32400.57
609.628	32144.58
609.824	32533.69
610.019	32337.09
610.215	32160.96
610.411	31902.92
610.606	32214.21
610.802	31980.74
610.998	31923.4
611.193	31900.87
611.389	31468.75
611.584	31931.59
611.78	31470.79
611.976	31456.46
612.171	31622.34
612.367	31620.3
612.562	31376.59
612.758	30555.35
612.953	31112.4
613.149	31259.85
613.344	30772.44
613.539	31409.36
613.735	31071.44
613.93	30936.27
614.126	30450.91
614.321	30856.4
614.517	31003.86
614.712	30561.5
614.907	30430.43
615.103	30717.14
615.298	30299.36
615.493	30743.77
615.688	30080.22
615.884	30975.19
616.079	29897.95
616.274	30465.24
616.47	30059.74
616.665	30231.77
616.86	29646.05
617.055	29658.34
617.25	29736.16
617.445	30278.88
617.641	29342.95
617.836	29506.79
618.031	29064.43
618.226	29310.19
618.421	29312.24
618.616	29523.18
618.811	29179.12
619.006	29314.28
619.201	28865.78
619.396	28833.01
619.591	28372.22
619.786	28577.01
619.981	28298.49
620.176	28368.12
620.371	28034.3
620.566	28003.58
620.761	27936
620.956	28093.69
621.151	27284.75
621.346	27759.88
621.541	27464.97
621.735	27593.99
621.93	27082
622.125	27231.5
622.32	26885.39
622.515	27131.15
622.709	26918.16
622.904	26557.72
623.099	26553.62
623.294	26490.13
623.488	26064.16
623.683	26084.64
623.878	25640.23
624.072	25881.89
624.267	25634.08
624.462	25687.33
624.656	25316.65
624.851	25259.31
625.046	25244.97
625.24	24986.93
625.435	24716.59
625.629	24798.51
625.824	24171.83
626.018	24376.63
626.213	24061.24
626.407	24360.25
626.602	23962.94
626.796	24102.2
626.991	24024.38
627.185	23774.53
627.38	23674.18
627.574	23405.89
627.768	23123.27
627.963	23156.04
628.157	22535.51
628.352	23117.13
628.546	22607.19
628.74	22799.69
628.935	22386.01
629.129	22361.43
629.323	22269.27
629.517	22220.12
629.712	22166.87
629.906	22013.27
630.1	21732.7
630.294	21773.66
630.489	21681.5
630.683	21937.5
630.877	21142.89
631.071	21216.61
631.265	21310.82
631.459	21116.26
631.653	20948.33
631.848	21120.36
632.042	20606.32
632.236	20700.53
632.43	20358.52
632.624	20766.06
632.818	20444.53
633.012	19864.96
633.206	19996.03
633.4	20309.36
633.594	19901.82
633.788	19901.82
633.982	19934.59
634.176	19420.55
634.369	19522.94
634.563	19299.72
634.757	19359.11
634.951	19357.06
635.145	18990.47
635.339	18992.52
635.533	18742.67
635.726	19123.59
635.92	18476.43
636.114	18726.28
636.308	18390.42
636.501	18339.22
636.695	18421.14
636.889	18011.54
637.083	17919.39
637.276	18056.6
637.47	18066.84
637.664	17546.65
637.857	17640.86
638.051	17599.9
638.244	17583.52
638.438	17532.32
638.632	17339.81
638.825	17321.38
639.019	17227.17
639.212	17126.82
639.406	17049
639.599	16928.17
639.793	16776.62
639.986	16717.23
640.18	16694.7
640.373	16571.82
640.567	16547.25
640.76	16440.75
640.954	16049.59
641.147	16149.94
641.34	15904.18
641.534	16061.88
641.727	15781.31
641.92	15840.7
642.114	15592.89
642.307	15732.15
642.5	15695.29
642.694	15357.38
642.887	15275.46
643.08	15377.86
643.273	15066.56
643.467	15236.55
643.66	14933.45
643.853	14800.33
644.046	14841.29
644.239	14753.23
644.432	14695.88
644.626	14583.24
644.819	14493.13
645.012	14509.52
645.205	14527.95
645.398	14276.05
645.591	14265.81
645.784	14048.72
645.977	13946.33
646.17	13991.38
646.363	13903.32
646.556	13622.75
646.749	13622.75
646.942	13829.59
647.135	13442.53
647.328	13319.65
647.521	13153.76
647.714	13116.9
647.907	12936.68
648.099	13295.07
648.292	13139.43
648.485	12969.44
648.678	12852.71
648.871	12721.64
649.064	12809.7
649.256	12787.18
649.449	12629.48
649.642	12688.87
649.835	12527.08
650.027	12594.67
650.22	12357.1
650.413	12291.57
650.605	12254.7
650.798	12135.92
650.991	12109.3
651.183	12047.86
651.376	11967.99
651.568	11947.51
651.761	11806.2
651.954	11935.22
652.146	11574.78
652.339	11494.91
652.531	11673.08
652.724	11337.21
652.916	11339.26
653.109	11453.95
653.301	11509.24
653.494	11329.02
653.686	10993.15
653.879	11337.21
654.071	11200
654.263	11038.21
654.456	11038.21
654.648	11048.45
654.84	10638.86
655.033	10884.61
655.225	10714.63
655.417	10651.14
655.61	10657.29
655.802	10649.1
655.994	10577.42
656.186	10485.26
656.379	10329.61
656.571	10364.43
656.763	10245.65
656.955	10126.86
657.148	10159.63
657.34	9971.22
657.532	9733.65
657.724	9844.24
657.916	9889.3
658.108	9760.28
658.3	9588.25
658.492	9633.3
658.684	9588.25
658.876	9588.25
659.068	9537.05
659.26	9317.92
659.452	9578.01
659.644	9584.15
659.836	9233.95
660.028	9092.64
660.22	9219.61
660.412	9236
660.604	8783.4
660.796	9070.11
660.988	8881.7
661.18	9016.87
661.372	8951.33
661.563	8678.95
661.755	8664.61
661.947	8810.02
662.139	8588.84
662.331	8470.06
662.522	8379.95
662.714	8621.61
662.906	8375.85
663.097	8429.1
663.289	8330.8
663.481	8347.18
663.673	8160.81
663.864	8197.68
664.056	8085.04
664.247	8162.86
664.439	7827
664.631	7941.68
664.822	7904.82
665.014	7837.24
665.205	7710.26
665.397	7796.28
665.588	7685.69
665.78	7527.99
665.971	7505.46
666.163	7542.33
666.354	7587.38
666.546	7509.56
666.737	7489.08
666.929	7378.49
667.12	7243.32
667.311	7347.77
667.503	7147.07
667.694	7216.7
667.885	7169.6
668.077	7147.07
668.268	7140.93
668.459	7140.93
668.651	7075.39
668.842	6958.66
669.033	6811.2
669.224	6704.71
669.416	6764.1
669.607	6827.59
669.798	6598.21
669.989	6762.05
670.18	6585.93
670.371	6508.1
670.563	6653.51
670.754	6614.6
670.945	6569.54
671.136	6481.48
671.327	6604.36
671.518	6274.63
671.709	6438.47
671.9	6258.25
672.091	6387.27
672.282	6215.24
672.473	6217.29
672.664	6258.25
672.855	6250.06
673.046	6205
673.237	6116.94
673.428	6233.68
673.619	6227.53
673.809	5951.06
674	5799.51
674.191	5981.78
674.382	5967.44
674.573	5953.1
674.764	5928.53
674.954	5869.14
675.145	5697.11
675.336	5850.71
675.527	5785.17
675.717	5785.17
675.908	5764.69
676.099	5776.98
676.289	5664.34
676.48	5690.96
676.671	5441.11
676.861	5690.96
677.052	5572.18
677.243	5553.75
677.433	5594.71
677.624	5529.17
677.814	5359.19
678.005	5414.49
678.195	5283.42
678.386	5383.77
678.576	5379.67
678.767	5277.27
678.957	5340.76
679.148	5346.91
679.338	5183.07
679.529	5221.98
679.719	5150.3
679.909	5424.73
680.1	5242.46
680.29	5117.53
680.481	5131.87
680.671	5021.28
680.861	5246.55
681.052	5348.95
681.242	5178.97
681.432	5095
681.622	5111.39
681.813	5088.86
682.003	4992.61
682.193	5023.33
682.383	5006.94
682.573	5027.42
682.764	4978.27
682.954	5113.44
683.144	5086.81
683.334	4996.7
683.524	4970.08
683.714	4898.4
683.904	4857.44
684.094	4976.22
684.284	4771.43
684.474	4888.16
684.664	4791.91
684.854	4816.48
685.044	4804.19
685.234	4626.02
685.424	4783.71
685.614	4808.29
685.804	4607.59
685.994	4677.22
686.184	4746.85
686.374	4611.68
686.564	4755.04
686.753	4638.31
686.943	4603.49
687.133	4537.96
687.323	4599.4
687.513	4552.29
687.702	4548.2
687.892	4619.88
688.082	4576.87
688.272	4548.2
688.461	4546.15
688.651	4769.38
688.841	4570.72
689.03	4482.66
689.22	4298.35
689.41	4361.83
689.599	4507.24
689.789	4494.95
689.979	4441.7
690.168	4329.06
690.358	4390.5
690.547	4361.83
690.737	4367.98
690.926	4341.35
691.116	4288.11
691.305	4390.5
691.495	4234.86
691.684	4253.29
691.874	4124.27
692.063	4312.68
692.252	4384.36
692.442	4138.6
692.631	4144.75
692.82	4140.65
693.01	4138.6
693.199	4165.23
693.388	3944.05
693.578	4095.6
693.767	4081.26
693.956	4146.8
694.146	4152.94
694.335	4075.12
694.524	4111.98
694.713	4144.75
694.902	4140.65
695.092	3948.14
695.281	3935.85
695.47	3982.96
695.659	4054.64
695.848	3966.57
696.037	3876.46
696.226	3919.47
696.415	3917.42
696.604	3980.91
696.793	3892.85
696.982	4058.73
697.171	3898.99
697.36	3841.65
697.549	3812.98
697.738	3976.81
697.927	3763.83
698.116	3849.84
698.305	3915.37
698.494	3862.13
698.683	3735.15
698.872	3866.22
699.061	3890.8
699.25	3716.72
699.438	3753.59
699.627	3665.52
699.816	3868.27
700.005	3548.79
700.193	3808.88
700.382	3608.18
700.571	3614.32
700.76	3720.82
700.948	3681.91
701.137	3751.54
701.326	3677.81
701.514	3620.47
701.703	3550.84
701.892	3597.94
702.08	3636.85
702.269	3542.64
702.457	3626.61
702.646	3624.56
702.834	3505.78
703.023	3493.49
703.212	3554.93
703.4	3413.62
703.589	3440.25
703.777	3475.06
703.965	3468.92
704.154	3513.97
704.342	3483.25
704.531	3452.53
704.719	3393.14
704.907	3387
705.096	3393.14
705.284	3298.94
705.472	3333.75
705.661	3305.08
705.849	3391.09
706.037	3421.81
706.226	3305.08
706.414	3260.02
706.602	3280.5
706.79	3276.41
706.979	3350.14
707.167	3350.14
707.355	3296.89
707.543	3352.18
707.731	3247.74
707.919	3376.76
708.107	3247.74
708.296	3124.86
708.484	3292.79
708.672	3178.11
708.86	3206.78
709.048	3108.48
709.236	3077.76
709.424	3235.45
709.612	3217.02
709.8	3051.13
709.988	3126.91
710.176	3063.42
710.364	2963.07
710.551	3100.28
710.739	3030.65
710.927	3108.48
711.115	3047.04
711.303	3112.57
711.491	2856.58
711.679	2948.73
711.866	2932.35
712.054	2879.1
712.242	2850.43
712.43	2989.69
712.617	2842.24
712.805	2999.93
712.993	2836.1
713.181	2930.3
713.368	2973.31
713.556	2915.97
713.744	2793.09
713.931	2909.82
714.119	2793.09
714.306	2809.47
714.494	2825.86
714.682	2750.08
714.869	2832
715.057	2852.48
715.244	2731.65
715.432	2879.1
715.619	2825.86
715.807	2793.09
715.994	2666.11
716.182	2811.52
716.369	2686.59
716.556	2762.37
716.744	2666.11
716.931	2565.76
717.119	2866.81
717.306	2616.96
717.493	2688.64
717.681	2739.84
717.868	2571.91
718.055	2598.53
718.242	2731.65
718.43	2608.77
718.617	2788.99
718.804	2594.44
718.991	2698.88
719.179	2629.25
719.366	2571.91
719.553	2573.96
719.74	2541.19
719.927	2641.54
720.114	2614.91
720.301	2508.42
720.488	2547.33
720.676	2326.15
720.863	2432.65
721.05	2420.36
721.237	2489.99
721.424	2451.08
721.611	2444.93
721.798	2371.21
721.985	2535.04
722.172	2416.26
722.358	2238.09
722.545	2358.92
722.732	2440.84
722.919	2377.35
723.106	2301.58
723.293	2360.97
723.48	2352.77
723.667	2420.36
723.853	2262.66
724.04	2317.96
724.227	2266.76
724.414	2320.01
724.6	2197.13
724.787	2420.36
724.974	2383.49
725.161	2277
725.347	2322.06
725.534	2238.09
725.72	2295.43
725.907	2291.34
726.094	2236.04
726.28	2231.94
726.467	2207.37
726.653	2211.46
726.84	2289.29
727.027	2307.72
727.213	2176.65
727.4	2117.26
727.586	2174.6
727.773	2258.57
727.959	2287.24
728.145	2195.08
728.332	2104.97
728.518	2115.21
728.705	2147.98
728.891	2141.83
729.077	2055.82
729.264	2129.55
729.45	2213.51
729.636	2109.07
729.823	2014.86
730.009	2170.51
730.195	2104.97
730.382	2061.96
730.568	2057.87
730.754	2043.53
730.94	2004.62
731.126	1986.19
731.313	1982.09
731.499	2074.25
731.685	2088.59
731.871	2043.53
732.057	1959.56
732.243	1982.09
732.429	1965.71
732.615	1953.42
732.801	2025.1
732.987	1949.32
733.173	1934.99
733.359	1918.61
733.545	2039.44
733.731	1932.94
733.917	1969.8
734.103	1896.08
734.289	2055.82
734.475	1965.71
734.661	1996.43
734.847	1810.06
735.033	1912.46
735.219	1865.36
735.404	1980.04
735.59	1887.89
735.776	1853.07
735.962	1834.64
736.148	1894.03
736.333	1869.45
736.519	1760.91
736.705	1738.38
736.89	1851.02
737.076	1689.23
737.262	1748.62
737.447	1814.16
737.633	1861.26
737.819	1777.3
738.004	1793.68
738.19	1681.04
738.375	1746.58
738.561	1769.1
738.747	1769.1
738.932	1785.49
739.118	1816.21
739.303	1797.78
739.489	1769.1
739.674	1687.18
739.859	1754.77
740.045	1834.64
740.23	1564.31
740.416	1699.47
740.601	1646.23
740.786	1621.65
740.972	1638.03
741.157	1564.31
741.342	1670.8
741.528	1556.11
741.713	1609.36
741.898	1588.88
742.084	1621.65
742.269	1605.27
742.454	1629.84
742.639	1662.61
742.824	1541.78
743.01	1599.12
743.195	1556.11
743.38	1529.49
743.565	1533.59
743.75	1586.83
743.935	1597.07
744.12	1541.78
744.305	1410.71
744.49	1529.49
744.675	1523.35
744.86	1416.85
745.045	1525.4
745.23	1478.29
745.415	1562.26
745.6	1531.54
745.785	1564.31
745.97	1547.92
746.155	1343.13
746.34	1441.43
746.525	1441.43
746.71	1470.1
746.895	1361.56
747.079	1408.66
747.264	1351.32
747.449	1367.7
747.634	1400.47
747.819	1349.27
748.003	1359.51
748.188	1353.37
748.373	1304.21
748.557	1304.21
748.742	1384.09
748.927	1228.44
749.111	1394.33
749.296	1277.59
749.481	1279.64
749.665	1210.01
749.85	1281.69
750.034	1261.21
750.219	1371.8
750.404	1332.89
750.588	1224.34
750.773	1171.1
750.957	1191.58
751.141	1226.39
751.326	1222.3
751.51	1158.81
751.695	1205.91
751.879	1099.42
752.064	1220.25
752.248	1183.38
752.432	1162.9
752.617	1199.77
752.801	1140.38
752.985	1115.8
753.17	1189.53
753.354	1142.43
753.538	1152.67
753.722	1052.31
753.907	1087.13
754.091	1064.6
754.275	1078.94
754.459	1130.14
754.643	1093.27
754.828	1089.18
755.012	1076.89
755.196	1130.14
755.38	1058.46
755.564	1040.03
755.748	1074.84
755.932	974.49
756.116	982.68
756.3	908.96
756.484	1011.36
756.668	1056.41
756.852	1001.12
757.036	982.68
757.22	882.33
757.404	884.38
757.588	904.86
757.772	1001.12
757.956	958.11
758.14	898.72
758.323	845.47
758.507	884.38
758.691	976.54
758.875	935.58
759.059	900.76
759.242	888.48
759.426	845.47
759.61	868
759.794	943.77
759.977	835.23
760.161	984.73
760.345	872.09
760.528	861.85
760.712	798.37
760.895	843.42
761.079	784.03
761.263	798.37
761.446	935.58
761.63	851.61
761.813	859.81
761.997	763.55
762.18	781.98
762.364	777.89
762.547	888.48
762.731	716.45
762.914	843.42
763.098	820.89
763.281	769.69
763.464	859.81
763.648	790.17
763.831	786.08
764.015	781.98
764.198	820.89
764.381	814.75
764.564	728.74
764.748	771.74
764.931	683.68
765.114	831.13
765.297	831.13
765.481	827.04
765.664	700.06
765.847	722.59
766.03	775.84
766.213	751.26
766.397	769.69
766.58	779.93
766.763	712.35
766.946	691.87
767.129	763.55
767.312	777.89
767.495	814.75
767.678	708.26
767.861	798.37
768.044	728.74
768.227	763.55
768.41	685.73
768.593	796.32
768.776	732.83
768.959	712.35
769.142	640.67
769.324	683.68
769.507	687.78
769.69	650.91
769.873	616.1
770.056	784.03
770.239	675.49
770.421	730.78
770.604	745.12
770.787	665.25
770.97	673.44
771.152	655.01
771.335	755.36
771.518	638.62
771.7	738.98
771.883	728.74
772.066	671.39
772.248	568.99
772.431	609.95
772.613	634.53
772.796	718.5
772.978	640.67
773.161	616.1
773.343	683.68
773.526	702.11
773.708	544.42
773.891	671.39
774.073	605.86
774.256	566.95
774.438	706.21
774.621	573.09
774.803	679.58
774.985	548.51
775.168	622.24
775.35	622.24
775.532	566.95
775.715	655.01
775.897	562.85
776.079	511.65
776.261	671.39
776.444	597.67
776.626	577.19
776.808	609.95
776.99	568.99
777.173	509.6
777.355	581.28
777.537	497.32
777.719	607.91
777.901	583.33
778.083	573.09
778.265	532.13
778.447	493.22
778.629	450.21
778.811	536.23
778.993	618.15
779.175	564.9
779.357	515.75
779.539	392.87
779.721	446.12
779.903	525.99
780.085	552.61
780.267	581.28
780.449	442.02
780.631	468.64
780.812	511.65
780.994	456.36
781.176	433.83
781.358	501.41
781.54	425.64
781.721	511.65
781.903	444.07
782.085	442.02
782.267	474.79
782.448	368.29
782.63	507.55
782.812	417.44
782.993	433.83
783.175	396.96
783.357	415.4
783.538	394.92
783.72	306.85
783.901	386.72
784.083	401.06
784.264	388.77
784.446	323.24
784.627	325.29
784.809	421.54
784.99	388.77
785.172	458.4
785.353	384.68
785.535	356.01
785.716	313
785.897	351.91
786.079	368.29
786.26	343.72
786.441	382.63
786.623	444.07
786.804	343.72
786.985	302.76
787.167	251.56
787.348	341.67
787.529	360.1
787.71	378.53
787.891	372.39
788.073	310.95
788.254	315.05
788.435	370.34
788.616	343.72
788.797	261.8
788.978	343.72
789.159	378.53
789.34	269.99
789.522	319.14
789.703	269.99
789.884	237.22
790.065	288.42
790.246	327.33
790.427	286.37
790.607	323.24
790.788	265.89
790.969	353.96
791.15	362.15
791.331	251.56
791.512	237.22
791.693	245.41
791.874	302.76
792.054	304.81
792.235	269.99
792.416	255.65
792.597	323.24
792.778	313
792.958	294.57
793.139	247.46
793.32	253.61
793.5	245.41
793.681	323.24
793.862	360.1
794.042	237.22
794.223	155.3
794.404	335.53
794.584	231.08
794.765	274.09
794.945	224.94
795.126	253.61
795.306	323.24
795.487	239.27
795.667	296.61
795.848	290.47
796.028	282.28
796.209	272.04
796.389	214.7
796.57	229.03
796.75	165.54
796.93	276.13
797.111	255.65
797.291	214.7
797.471	224.94
797.652	179.88
797.832	173.74
798.012	237.22
798.192	245.41
798.373	204.46
798.553	294.57
798.733	267.94
798.913	165.54
799.093	222.89
799.274	183.98
799.454	278.18
799.634	181.93
799.814	274.09
799.994	212.65
800.174	147.11
800.354	261.8
800.534	153.26
800.714	220.84
800.894	198.31
801.074	114.34
801.254	157.35
801.434	206.5
801.614	175.78
801.794	151.21
801.974	728.74
802.154	200.36
802.334	229.03
802.514	110.25
802.693	216.74
802.873	212.65
803.053	224.94
803.233	233.13
803.413	190.12
803.592	75.43
803.772	114.34
803.952	155.3
804.131	204.46
804.311	165.54
804.491	208.55
804.67	212.65
804.85	147.11
805.03	190.12
805.209	159.4
805.389	147.11
805.568	122.54
805.748	159.4
805.928	147.11
806.107	222.89
806.287	206.5
806.466	198.31
806.646	188.07
806.825	181.93
807.004	130.73
807.184	136.87
807.363	206.5
807.543	181.93
807.722	116.39
807.901	114.34
808.081	222.89
808.26	83.63
808.439	89.77
808.619	112.3
808.798	110.25
808.977	183.98
809.156	132.78
809.336	95.91
809.515	126.63
809.694	165.54
809.873	134.82
810.052	61.1
810.231	151.21
810.411	208.55
810.59	196.26
810.769	114.34
810.948	130.73
811.127	61.1
811.306	140.97
811.485	69.29
811.664	120.49
811.843	116.39
812.022	147.11
812.201	128.68
812.38	102.06
812.559	138.92
812.737	159.4
812.916	118.44
813.095	108.2
813.274	100.01
813.453	179.88
813.632	126.63
813.811	147.11
813.989	89.77
814.168	155.3
814.347	65.19
814.526	36.52
814.704	165.54
814.883	114.34
815.062	16.04
815.24	104.11
815.419	130.73
815.598	165.54
815.776	130.73
815.955	57
816.133	110.25
816.312	140.97
816.49	65.19
816.669	132.78
816.847	106.15
817.026	122.54
817.204	138.92
817.383	138.92
817.561	16.04
817.74	130.73
817.918	81.58
818.097	132.78
818.275	83.63
818.453	163.5
818.632	138.92
818.81	73.39
818.988	67.24
819.167	100.01
819.345	134.82
819.523	-8.53
819.701	57
819.879	89.77
820.058	124.58
820.236	91.82
820.414	1.71
820.592	81.58
820.77	116.39
820.948	95.91
821.127	81.58
821.305	147.11
821.483	97.96
821.661	102.06
821.839	147.11
822.017	118.44
822.195	79.53
822.373	100.01
822.551	11.95
822.729	100.01
822.907	57
823.085	91.82
823.262	95.91
823.44	67.24
823.618	69.29
823.796	126.63
823.974	95.91
824.152	116.39
824.329	65.19
824.507	69.29
824.685	100.01
824.863	57
825.04	81.58
825.218	71.34
825.396	124.58
825.574	48.81
825.751	18.09
825.929	118.44
826.107	-4.44
826.284	57
826.462	71.34
826.639	102.06
826.817	36.52
826.994	50.86
827.172	-16.73
827.349	124.58
827.527	91.82
827.704	89.77
827.882	-49.49
828.059	61.1
828.237	28.33
828.414	83.63
828.591	16.04
828.769	7.85
828.946	48.81
829.124	128.68
829.301	126.63
829.478	18.09
829.655	147.11
829.833	91.82
830.01	42.67
830.187	81.58
830.364	85.67
830.542	81.58
830.719	93.87
830.896	7.85
831.073	97.96
831.25	34.47
831.427	7.85
831.604	97.96
831.782	106.15
831.959	30.38
832.136	61.1
832.313	52.91
832.49	-4.44
832.667	32.43
832.844	48.81
833.021	81.58
833.198	-47.44
833.374	122.54
833.551	61.1
833.728	67.24
833.905	124.58
834.082	42.67
834.259	69.29
834.436	110.25
834.612	40.62
834.789	83.63
834.966	67.24
835.143	97.96
835.319	22.19
835.496	24.23
835.673	1.71
835.85	106.15
836.026	61.1
836.203	140.97
836.38	100.01
836.556	67.24
836.733	65.19
836.909	116.39
837.086	3.75
837.262	-6.49
837.439	11.95
837.616	48.81
837.792	24.23
837.968	79.53
838.145	65.19
838.321	116.39
838.498	-0.34
838.674	132.78
838.851	85.67
839.027	24.23
839.203	26.28
839.38	89.77
839.556	54.95
839.732	57
839.909	7.85
840.085	61.1
840.261	-8.53
840.437	61.1
840.614	-4.44
840.79	75.43
840.966	46.76
841.142	40.62
841.318	22.19
841.494	50.86
841.671	-4.44
841.847	16.04
842.023	52.91
842.199	83.63
842.375	91.82
842.551	-12.63
842.727	26.28
842.903	44.71
843.079	-0.34
843.255	106.15
843.431	18.09
843.607	38.57
843.783	20.14
843.959	65.19
844.134	34.47
844.31	73.39
844.486	-0.34
844.662	24.23
844.838	57
845.013	-8.53
845.189	73.39
845.365	36.52
845.541	-53.59
845.716	-4.44
845.892	114.34
846.068	34.47
846.244	73.39
846.419	28.33
846.595	7.85
846.77	1.71
846.946	50.86
847.122	7.85
847.297	57
847.473	24.23
847.648	26.28
847.824	13.99
847.999	-43.35
848.175	100.01
848.35	100.01
848.526	73.39
848.701	32.43
848.876	20.14
849.052	16.04
849.227	18.09
849.403	-16.73
849.578	-8.53
849.753	61.1
849.929	-8.53
850.104	-8.53
850.279	16.04
850.454	11.95
850.63	26.28
850.805	124.58
850.98	83.63
851.155	-8.53
851.33	-6.49
851.505	59.05
851.681	7.85
851.856	34.47
852.031	16.04
852.206	-45.4
852.381	24.23
852.556	16.04
852.731	13.99
852.906	40.62
853.081	36.52
853.256	50.86
853.431	11.95
853.606	-4.44
853.781	16.04
853.956	11.95
854.131	40.62
854.305	85.67
854.48	7.85
854.655	48.81
854.83	30.38
855.005	-6.49
855.18	54.95
855.354	-8.53
855.529	59.05
855.704	34.47
855.879	79.53
856.053	-49.49
856.228	32.43
856.403	67.24
856.577	20.14
856.752	24.23
856.926	69.29
857.101	-6.49
857.276	1.71
857.45	52.91
857.625	3.75
857.799	44.71
857.974	57
858.148	-18.77
858.323	-2.39
858.497	-20.82
858.672	11.95
858.846	13.99
859.02	57
859.195	20.14
859.369	-47.44
859.543	75.43
859.718	32.43
859.892	-16.73
860.066	16.04
860.241	34.47
860.415	32.43
860.589	18.09
860.763	-39.25
860.938	-33.11
861.112	24.23
861.286	40.62
861.46	48.81
861.634	24.23
861.808	3.75
861.982	-33.11
862.157	13.99
862.331	18.09
862.505	7.85
862.679	-39.25
862.853	50.86
863.027	13.99
863.201	93.87
863.375	-41.3
863.549	11.95
863.722	7.85
863.896	132.78
864.07	9.9
864.244	-55.64
864.418	57
864.592	-16.73
864.766	-57.68
864.939	89.77
865.113	3.75
865.287	40.62
865.461	-20.82
865.634	30.38
865.808	-24.92
865.982	18.09
866.156	-55.64
866.329	-33.11
866.503	28.33
866.676	1.71
866.85	18.09
867.024	7.85
867.197	-49.49
867.371	28.33
867.544	5.8
867.718	16.04
867.891	-0.34
868.065	-20.82
868.238	7.85
868.412	28.33
868.585	32.43
868.759	-0.34
868.932	93.87
869.105	50.86
869.279	-88.4
869.452	-6.49
869.625	46.76
869.799	26.28
869.972	75.43
870.145	18.09
870.319	38.57
870.492	34.47
870.665	11.95
870.838	-20.82
871.011	-41.3
871.185	-2.39
871.358	-37.2
871.531	-0.34
871.704	-4.44
871.877	7.85
872.05	24.23
872.223	-0.34
872.396	16.04
872.569	81.58
872.742	34.47
872.915	-2.39
873.088	-2.39
873.261	-8.53
873.434	81.58
873.607	-45.4
873.78	-39.25
873.953	-14.68
874.126	-18.77
874.299	9.9
874.471	13.99
874.644	28.33
874.817	-16.73
874.99	32.43
875.163	-39.25
875.335	-47.44
875.508	-8.53
875.681	81.58
875.853	-41.3
876.026	3.75
876.199	52.91
876.371	40.62
876.544	-20.82
876.717	-8.53
876.889	-26.96
877.062	11.95
877.234	-45.4
877.407	-45.4
877.579	20.14
877.752	26.28
877.924	20.14
878.097	18.09
878.269	-0.34
878.442	42.67
878.614	102.06
878.786	-78.16
878.959	7.85
879.131	-41.3
879.303	-86.36
879.476	-8.53
879.648	32.43
879.82	44.71
879.993	32.43
880.165	36.52
880.337	1.71
880.509	52.91
880.681	-37.2
880.854	-4.44
881.026	34.47
881.198	106.15
881.37	-8.53
881.542	-8.53
881.714	-35.16
881.886	-31.06
882.058	1.71
882.23	-6.49
882.402	-37.2
882.574	20.14
882.746	-24.92
882.918	36.52
883.09	83.63
883.262	-22.87
883.434	-12.63
883.606	-41.3
883.778	85.67
883.95	11.95
884.122	-61.78
884.293	67.24
884.465	-55.64
884.637	81.58
884.809	-2.39
884.98	-49.49
885.152	7.85
885.324	-39.25
885.496	-24.92
885.667	-12.63
885.839	13.99
886.011	5.8
886.182	46.76
886.354	11.95
886.525	7.85
886.697	79.53
886.869	-41.3
887.04	30.38
887.212	85.67
887.383	42.67
887.555	32.43
887.726	18.09
887.897	-12.63
888.069	-6.49
888.24	-37.2
888.412	-20.82
888.583	-43.35
888.754	-20.82
888.926	61.1
889.097	-29.01
889.268	32.43
889.44	-14.68
889.611	-59.73
889.782	-8.53
889.953	24.23
890.125	7.85
890.296	-16.73
890.467	-8.53
890.638	-24.92
890.809	-72.02
890.98	-61.78
891.151	16.04
891.323	30.38
891.494	59.05
891.665	-6.49
891.836	1.71
892.007	-22.87
892.178	-45.4
892.349	20.14
892.52	-55.64
892.691	-8.53
892.862	7.85
893.032	-16.73
893.203	-6.49
893.374	3.75
893.545	48.81
893.716	18.09
893.887	7.85
894.057	-33.11
894.228	-84.31
894.399	-24.92
894.57	57
894.74	-49.49
894.911	59.05
895.082	-24.92
895.253	-47.44
895.423	-51.54
895.594	-45.4
895.764	-24.92
895.935	-24.92
896.106	-4.44
896.276	-41.3
896.447	44.71
896.617	-37.2
896.788	24.23
896.958	-0.34
897.129	24.23
897.299	32.43
897.47	32.43
897.64	44.71
897.81	48.81
897.981	42.67
898.151	-49.49
898.322	18.09
898.492	-20.82
898.662	-0.34
898.832	-31.06
899.003	-22.87
899.173	28.33
899.343	-16.73
899.513	5.8
