Data from USB4F104151__65__14-43-17-458.txt Node

Date: Thu Mar 13 14:43:17 EDT 2025
User: louis
Spectrometer: USB4F10415
Trigger mode: 4
Integration Time (sec): 2.000000E-2
Scans to average: 1
Electric dark correction enabled: true
Nonlinearity correction enabled: false
Boxcar width: 0
XAxis mode: Wavelengths
Number of Pixels in Spectrum: 3648
>>>>>Begin Spectral Data<<<<<
178.204	-106.67
178.424	-106.67
178.644	-106.67
178.864	-55.47
179.084	-125.1
179.304	-90.28
179.524	12.12
179.744	-0.17
179.964	71.51
180.184	16.21
180.404	-18.6
180.624	-34.99
180.844	18.26
181.064	-6.31
181.283	-18.6
181.503	46.93
181.723	3.93
181.943	-22.7
182.163	14.17
182.383	57.17
182.602	63.32
182.822	-12.46
183.042	-8.36
183.262	51.03
183.482	55.12
183.701	-43.18
183.921	-10.41
184.141	71.51
184.361	-51.37
184.58	14.17
184.8	40.79
185.02	22.36
185.239	22.36
185.459	10.07
185.679	85.84
185.898	-18.6
186.118	73.56
186.338	8.02
186.557	116.56
186.777	14.17
186.997	10.07
187.216	-18.6
187.436	30.55
187.655	44.88
187.875	120.66
188.095	89.94
188.314	55.12
188.534	114.52
188.753	28.5
188.973	63.32
189.192	112.47
189.412	63.32
189.631	-6.31
189.851	75.6
190.07	61.27
190.29	-8.36
190.509	16.21
190.729	-43.18
190.948	-4.27
191.168	114.52
191.387	1.88
191.607	1.88
191.826	-18.6
192.045	-24.75
192.265	67.41
192.484	-28.84
192.704	24.4
192.923	18.26
193.142	83.8
193.362	-18.6
193.581	55.12
193.8	40.79
194.02	18.26
194.239	46.93
194.458	5.97
194.678	71.51
194.897	14.17
195.116	32.6
195.335	87.89
195.555	59.22
195.774	-10.41
195.993	81.75
196.212	87.89
196.432	14.17
196.651	79.7
196.87	-2.22
197.089	112.47
197.308	32.6
197.528	102.23
197.747	16.21
197.966	38.74
198.185	96.08
198.404	51.03
198.623	46.93
198.842	130.9
199.062	57.17
199.281	126.8
199.5	57.17
199.719	51.03
199.938	1.88
200.157	26.45
200.376	67.41
200.595	61.27
200.814	63.32
201.033	55.12
201.252	124.76
201.471	89.94
201.69	104.28
201.909	-0.17
202.128	-8.36
202.347	38.74
202.566	55.12
202.785	22.36
203.004	5.97
203.223	100.18
203.442	104.28
203.661	46.93
203.879	22.36
204.098	46.93
204.317	24.4
204.536	26.45
204.755	65.36
204.974	71.51
205.193	24.4
205.411	71.51
205.63	165.71
205.849	96.08
206.068	32.6
206.287	-0.17
206.505	16.21
206.724	-18.6
206.943	42.84
207.162	46.93
207.381	65.36
207.599	63.32
207.818	22.36
208.037	71.51
208.255	71.51
208.474	55.12
208.693	10.07
208.911	89.94
209.13	32.6
209.349	24.4
209.567	38.74
209.786	71.51
210.005	5.97
210.223	28.5
210.442	-49.32
210.661	-84.14
210.879	28.5
211.098	-10.41
211.316	-26.79
211.535	5.97
211.753	22.36
211.972	-10.41
212.191	10.07
212.409	63.32
212.628	57.17
212.846	-10.41
213.065	65.36
213.283	104.28
213.502	81.75
213.72	71.51
213.938	55.12
214.157	14.17
214.375	122.71
214.594	-4.27
214.812	124.76
215.031	-18.6
215.249	55.12
215.467	87.89
215.686	34.64
215.904	100.18
216.122	14.17
216.341	79.7
216.559	145.24
216.778	89.94
216.996	71.51
217.214	3.93
217.432	22.36
217.651	24.4
217.869	63.32
218.087	14.17
218.306	-39.08
218.524	79.7
218.742	22.36
218.96	71.51
219.179	57.17
219.397	22.36
219.615	71.51
219.833	178
220.051	-63.66
220.27	128.85
220.488	40.79
220.706	48.98
220.924	122.71
221.142	26.45
221.36	30.55
221.578	38.74
221.796	22.36
222.015	34.64
222.233	-14.51
222.451	57.17
222.669	55.12
222.887	22.36
223.105	34.64
223.323	26.45
223.541	5.97
223.759	46.93
223.977	-51.37
224.195	22.36
224.413	-2.22
224.631	46.93
224.849	5.97
225.067	122.71
225.285	55.12
225.503	46.93
225.721	46.93
225.939	30.55
226.157	20.31
226.375	65.36
226.592	18.26
226.81	-80.04
227.028	65.36
227.246	139.09
227.464	96.08
227.682	-10.41
227.9	34.64
228.117	-22.7
228.335	40.79
228.553	40.79
228.771	65.36
228.989	128.85
229.206	26.45
229.424	3.93
229.642	122.71
229.86	22.36
230.077	102.23
230.295	16.21
230.513	16.21
230.731	10.07
230.948	94.04
231.166	83.8
231.384	94.04
231.601	139.09
231.819	40.79
232.037	-51.37
232.254	-71.85
232.472	83.8
232.689	14.17
232.907	73.56
233.125	14.17
233.342	-32.94
233.56	46.93
233.777	-8.36
233.995	106.32
234.213	81.75
234.43	30.55
234.648	98.13
234.865	26.45
235.083	48.98
235.3	38.74
235.518	59.22
235.735	20.31
235.953	48.98
236.17	-8.36
236.388	8.02
236.605	-6.31
236.822	100.18
237.04	91.99
237.257	85.84
237.475	30.55
237.692	32.6
237.909	5.97
238.127	10.07
238.344	8.02
238.562	42.84
238.779	73.56
238.996	-10.41
239.214	44.88
239.431	38.74
239.648	98.13
239.865	71.51
240.083	55.12
240.3	46.93
240.517	57.17
240.735	65.36
240.952	79.7
241.169	63.32
241.386	28.5
241.603	67.41
241.821	5.97
242.038	59.22
242.255	22.36
242.472	14.17
242.689	55.12
242.907	120.66
243.124	85.84
243.341	-8.36
243.558	-2.22
243.775	-10.41
243.992	87.89
244.209	42.84
244.426	96.08
244.643	24.4
244.86	38.74
245.078	-0.17
245.295	135
245.512	-16.55
245.729	104.28
245.946	14.17
246.163	32.6
246.38	71.51
246.597	-51.37
246.814	79.7
247.031	65.36
247.248	128.85
247.464	63.32
247.681	-6.31
247.898	112.47
248.115	18.26
248.332	-32.94
248.549	128.85
248.766	48.98
248.983	3.93
249.2	57.17
249.417	171.86
249.633	28.5
249.85	18.26
250.067	-32.94
250.284	-8.36
250.501	3.93
250.717	53.08
250.934	34.64
251.151	63.32
251.368	-41.13
251.585	8.02
251.801	-6.31
252.018	-26.79
252.235	102.23
252.451	26.45
252.668	26.45
252.885	71.51
253.102	22.36
253.318	38.74
253.535	-14.51
253.752	59.22
253.968	12.12
254.185	14.17
254.401	38.74
254.618	48.98
254.835	18.26
255.051	120.66
255.268	145.24
255.484	106.32
255.701	5.97
255.917	46.93
256.134	-39.08
256.351	36.69
256.567	8.02
256.784	-18.6
257	10.07
257.217	79.7
257.433	36.69
257.65	73.56
257.866	38.74
258.082	-59.56
258.299	18.26
258.515	30.55
258.732	34.64
258.948	1.88
259.165	63.32
259.381	3.93
259.597	48.98
259.814	-8.36
260.03	8.02
260.246	3.93
260.463	65.36
260.679	130.9
260.895	51.03
261.112	30.55
261.328	10.07
261.544	77.65
261.761	63.32
261.977	-8.36
262.193	71.51
262.409	67.41
262.626	5.97
262.842	79.7
263.058	91.99
263.274	157.52
263.49	57.17
263.707	51.03
263.923	24.4
264.139	-49.32
264.355	30.55
264.571	63.32
264.787	1.88
265.004	8.02
265.22	57.17
265.436	65.36
265.652	-34.99
265.868	87.89
266.084	48.98
266.3	-32.94
266.516	-53.42
266.732	34.64
266.948	26.45
267.164	40.79
267.38	8.02
267.596	104.28
267.812	112.47
268.028	51.03
268.244	30.55
268.46	73.56
268.676	55.12
268.892	-16.55
269.108	57.17
269.324	20.31
269.54	10.07
269.756	102.23
269.972	22.36
270.188	-32.94
270.403	8.02
270.619	34.64
270.835	55.12
271.051	-16.55
271.267	71.51
271.483	55.12
271.698	116.56
271.914	-2.22
272.13	-18.6
272.346	8.02
272.562	5.97
272.777	48.98
272.993	42.84
273.209	42.84
273.425	63.32
273.64	38.74
273.856	-2.22
274.072	5.97
274.287	38.74
274.503	24.4
274.719	55.12
274.934	55.12
275.15	57.17
275.366	-14.51
275.581	61.27
275.797	55.12
276.012	32.6
276.228	91.99
276.444	14.17
276.659	63.32
276.875	-2.22
277.09	51.03
277.306	36.69
277.521	48.98
277.737	63.32
277.952	59.22
278.168	24.4
278.383	5.97
278.599	-8.36
278.814	55.12
279.03	36.69
279.245	30.55
279.461	79.7
279.676	18.26
279.892	-14.51
280.107	-63.66
280.322	-0.17
280.538	114.52
280.753	-0.17
280.969	-2.22
281.184	24.4
281.399	89.94
281.615	73.56
281.83	79.7
282.045	8.02
282.26	20.31
282.476	18.26
282.691	46.93
282.906	71.51
283.122	38.74
283.337	20.31
283.552	57.17
283.767	73.56
283.983	42.84
284.198	5.97
284.413	57.17
284.628	22.36
284.843	14.17
285.058	53.08
285.274	5.97
285.489	-0.17
285.704	55.12
285.919	5.97
286.134	3.93
286.349	96.08
286.564	36.69
286.779	51.03
286.995	38.74
287.21	14.17
287.425	38.74
287.64	46.93
287.855	42.84
288.07	1.88
288.285	30.55
288.5	55.12
288.715	51.03
288.93	32.6
289.145	120.66
289.36	24.4
289.575	32.6
289.79	51.03
290.004	5.97
290.219	124.76
290.434	5.97
290.649	16.21
290.864	71.51
291.079	5.97
291.294	-49.32
291.509	30.55
291.724	16.21
291.938	-8.36
292.153	73.56
292.368	5.97
292.583	14.17
292.798	57.17
293.012	96.08
293.227	10.07
293.442	12.12
293.657	79.7
293.871	71.51
294.086	59.22
294.301	18.26
294.516	38.74
294.73	55.12
294.945	-10.41
295.16	-18.6
295.374	55.12
295.589	-30.89
295.804	40.79
296.018	89.94
296.233	20.31
296.447	96.08
296.662	65.36
296.877	36.69
297.091	18.26
297.306	38.74
297.52	34.64
297.735	91.99
297.949	10.07
298.164	44.88
298.378	71.51
298.593	5.97
298.807	1.88
299.022	5.97
299.236	104.28
299.451	36.69
299.665	24.4
299.88	30.55
300.094	63.32
300.309	48.98
300.523	12.12
300.737	-0.17
300.952	10.07
301.166	-2.22
301.381	69.46
301.595	22.36
301.809	-18.6
302.024	16.21
302.238	34.64
302.452	124.76
302.667	32.6
302.881	87.89
303.095	63.32
303.309	-26.79
303.524	8.02
303.738	79.7
303.952	5.97
304.166	83.8
304.381	-10.41
304.595	96.08
304.809	-8.36
305.023	63.32
305.237	-0.17
305.452	5.97
305.666	14.17
305.88	48.98
306.094	79.7
306.308	73.56
306.522	63.32
306.736	71.51
306.95	22.36
307.164	-2.22
307.379	83.8
307.593	46.93
307.807	69.46
308.021	96.08
308.235	89.94
308.449	14.17
308.663	59.22
308.877	55.12
309.091	22.36
309.305	63.32
309.519	22.36
309.733	83.8
309.947	14.17
310.161	28.5
310.374	38.74
310.588	71.51
310.802	-18.6
311.016	22.36
311.23	22.36
311.444	-0.17
311.658	8.02
311.872	114.52
312.085	48.98
312.299	48.98
312.513	65.36
312.727	57.17
312.941	-41.13
313.154	79.7
313.368	-26.79
313.582	30.55
313.796	26.45
314.009	32.6
314.223	14.17
314.437	128.85
314.651	34.64
314.864	-43.18
315.078	104.28
315.292	5.97
315.505	38.74
315.719	-45.23
315.933	12.12
316.146	26.45
316.36	20.31
316.573	-0.17
316.787	16.21
317.001	87.89
317.214	-2.22
317.428	22.36
317.641	-8.36
317.855	89.94
318.068	8.02
318.282	65.36
318.495	104.28
318.709	59.22
318.922	63.32
319.136	98.13
319.349	67.41
319.563	34.64
319.776	22.36
319.99	34.64
320.203	22.36
320.417	96.08
320.63	32.6
320.843	48.98
321.057	110.42
321.27	32.6
321.483	-0.17
321.697	24.4
321.91	145.24
322.124	-26.79
322.337	22.36
322.55	-20.65
322.763	14.17
322.977	106.32
323.19	73.56
323.403	85.84
323.617	51.03
323.83	124.76
324.043	79.7
324.256	18.26
324.469	-0.17
324.683	65.36
324.896	-39.08
325.109	71.51
325.322	57.17
325.535	51.03
325.748	91.99
325.962	10.07
326.175	96.08
326.388	38.74
326.601	48.98
326.814	46.93
327.027	73.56
327.24	112.47
327.453	-41.13
327.666	42.84
327.879	79.7
328.092	-2.22
328.305	59.22
328.518	-10.41
328.731	-2.22
328.944	59.22
329.157	44.88
329.37	-51.37
329.583	104.28
329.796	75.6
330.009	38.74
330.222	91.99
330.435	5.97
330.648	79.7
330.861	-10.41
331.073	42.84
331.286	48.98
331.499	44.88
331.712	57.17
331.925	81.75
332.138	30.55
332.35	87.89
332.563	14.17
332.776	128.85
332.989	10.07
333.202	59.22
333.414	16.21
333.627	83.8
333.84	-30.89
334.053	46.93
334.265	42.84
334.478	26.45
334.691	73.56
334.903	112.47
335.116	46.93
335.329	57.17
335.541	57.17
335.754	5.97
335.966	53.08
336.179	14.17
336.392	65.36
336.604	53.08
336.817	32.6
337.029	120.66
337.242	77.65
337.454	75.6
337.667	69.46
337.88	112.47
338.092	30.55
338.305	57.17
338.517	18.26
338.729	104.28
338.942	-8.36
339.154	14.17
339.367	18.26
339.579	5.97
339.792	24.4
340.004	22.36
340.217	83.8
340.429	34.64
340.641	8.02
340.854	55.12
341.066	20.31
341.278	122.71
341.491	106.32
341.703	34.64
341.915	-24.75
342.128	40.79
342.34	26.45
342.552	5.97
342.764	96.08
342.977	63.32
343.189	96.08
343.401	71.51
343.613	22.36
343.826	71.51
344.038	79.7
344.25	65.36
344.462	5.97
344.674	-30.89
344.886	3.93
345.099	83.8
345.311	91.99
345.523	112.47
345.735	22.36
345.947	5.97
346.159	22.36
346.371	71.51
346.583	91.99
346.795	51.03
347.007	77.65
347.219	-2.22
347.431	-8.36
347.643	98.13
347.855	89.94
348.067	89.94
348.279	-30.89
348.491	57.17
348.703	69.46
348.915	71.51
349.127	55.12
349.339	8.02
349.551	10.07
349.763	32.6
349.975	48.98
350.187	65.36
350.399	18.26
350.61	26.45
350.822	96.08
351.034	135
351.246	59.22
351.458	96.08
351.669	120.66
351.881	51.03
352.093	75.6
352.305	79.7
352.517	69.46
352.728	48.98
352.94	61.27
353.152	71.51
353.363	-4.27
353.575	38.74
353.787	71.51
353.999	57.17
354.21	104.28
354.422	-6.31
354.633	26.45
354.845	38.74
355.057	63.32
355.268	75.6
355.48	1.88
355.692	34.64
355.903	16.21
356.115	30.55
356.326	24.4
356.538	89.94
356.749	98.13
356.961	81.75
357.172	96.08
357.384	22.36
357.595	79.7
357.807	-8.36
358.018	42.84
358.23	-2.22
358.441	73.56
358.653	30.55
358.864	20.31
359.075	59.22
359.287	73.56
359.498	22.36
359.709	83.8
359.921	106.32
360.132	-8.36
360.344	-0.17
360.555	98.13
360.766	132.95
360.977	89.94
361.189	48.98
361.4	-12.46
361.611	89.94
361.823	79.7
362.034	69.46
362.245	5.97
362.456	40.79
362.667	55.12
362.879	34.64
363.09	46.93
363.301	22.36
363.512	38.74
363.723	61.27
363.935	-43.18
364.146	87.89
364.357	102.23
364.568	128.85
364.779	-30.89
364.99	87.89
365.201	30.55
365.412	75.6
365.623	-67.75
365.834	46.93
366.045	48.98
366.256	16.21
366.467	83.8
366.678	1.88
366.889	132.95
367.1	79.7
367.311	79.7
367.522	48.98
367.733	73.56
367.944	38.74
368.155	1.88
368.366	71.51
368.577	38.74
368.788	145.24
368.999	91.99
369.209	53.08
369.42	71.51
369.631	196.43
369.842	122.71
370.053	55.12
370.264	120.66
370.474	36.69
370.685	100.18
370.896	38.74
371.107	59.22
371.317	73.56
371.528	38.74
371.739	186.19
371.95	59.22
372.16	5.97
372.371	42.84
372.582	46.93
372.792	91.99
373.003	79.7
373.214	100.18
373.424	73.56
373.635	-10.41
373.846	122.71
374.056	63.32
374.267	73.56
374.477	61.27
374.688	8.02
374.898	96.08
375.109	-59.56
375.319	65.36
375.53	71.51
375.74	85.84
375.951	-26.79
376.161	73.56
376.372	79.7
376.582	10.07
376.793	63.32
377.003	26.45
377.214	83.8
377.424	65.36
377.635	104.28
377.845	10.07
378.055	126.8
378.266	28.5
378.476	38.74
378.686	137.04
378.897	79.7
379.107	-8.36
379.317	51.03
379.528	14.17
379.738	5.97
379.948	96.08
380.158	38.74
380.369	120.66
380.579	57.17
380.789	30.55
380.999	63.32
381.21	71.51
381.42	63.32
381.63	-18.6
381.84	40.79
382.05	135
382.261	163.67
382.471	63.32
382.681	79.7
382.891	79.7
383.101	63.32
383.311	8.02
383.521	42.84
383.731	16.21
383.941	79.7
384.151	38.74
384.361	-41.13
384.571	91.99
384.781	16.21
384.991	112.47
385.201	96.08
385.411	102.23
385.621	87.89
385.831	100.18
386.041	34.64
386.251	42.84
386.461	46.93
386.671	87.89
386.881	-8.36
387.091	24.4
387.301	65.36
387.511	22.36
387.72	89.94
387.93	32.6
388.14	-12.46
388.35	75.6
388.56	28.5
388.769	85.84
388.979	63.32
389.189	30.55
389.399	57.17
389.609	96.08
389.818	59.22
390.028	-18.6
390.238	73.56
390.447	-6.31
390.657	34.64
390.867	59.22
391.076	67.41
391.286	87.89
391.496	75.6
391.705	18.26
391.915	145.24
392.125	83.8
392.334	108.37
392.544	-22.7
392.753	122.71
392.963	116.56
393.172	22.36
393.382	110.42
393.591	149.33
393.801	-22.7
394.01	145.24
394.22	87.89
394.429	5.97
394.639	73.56
394.848	108.37
395.058	34.64
395.267	73.56
395.477	30.55
395.686	91.99
395.895	87.89
396.105	139.09
396.314	32.6
396.524	116.56
396.733	59.22
396.942	87.89
397.152	30.55
397.361	77.65
397.57	32.6
397.78	194.39
397.989	108.37
398.198	102.23
398.407	161.62
398.617	163.67
398.826	153.43
399.035	73.56
399.244	67.41
399.453	139.09
399.663	132.95
399.872	81.75
400.081	40.79
400.29	128.85
400.499	132.95
400.708	122.71
400.917	94.04
401.127	20.31
401.336	128.85
401.545	124.76
401.754	169.81
401.963	112.47
402.172	128.85
402.381	46.93
402.59	108.37
402.799	65.36
403.008	130.9
403.217	210.77
403.426	79.7
403.635	112.47
403.844	73.56
404.053	137.04
404.262	149.33
404.471	178
404.68	87.89
404.888	124.76
405.097	126.8
405.306	130.9
405.515	98.13
405.724	130.9
405.933	141.14
406.142	153.43
406.35	218.96
406.559	210.77
406.768	104.28
406.977	212.82
407.185	114.52
407.394	180.05
407.603	218.96
407.812	178
408.02	227.15
408.229	106.32
408.438	173.91
408.646	155.47
408.855	194.39
409.064	218.96
409.272	173.91
409.481	237.39
409.69	112.47
409.898	247.63
410.107	302.93
410.315	309.07
410.524	235.35
410.733	296.78
410.941	270.16
411.15	384.85
411.358	358.22
411.567	382.8
411.775	315.22
411.984	325.46
412.192	364.37
412.401	345.94
412.609	421.71
412.818	464.72
413.026	333.65
413.234	337.74
413.443	423.76
413.651	472.91
413.86	456.53
414.068	499.53
414.276	468.81
414.485	431.95
414.693	520.01
414.901	565.07
415.11	558.92
415.318	546.64
415.526	556.88
415.734	612.17
415.943	571.21
416.151	692.04
416.359	589.64
416.567	735.05
416.776	698.19
416.984	780.11
417.192	737.1
417.4	763.72
417.608	728.91
417.817	720.71
418.025	835.4
418.233	952.13
418.441	841.54
418.649	935.75
418.857	964.42
419.065	1009.48
419.273	1064.77
419.481	956.23
419.689	1003.33
419.897	1208.13
420.105	1083.2
420.313	1171.27
420.521	1265.47
420.729	1300.29
420.937	1300.29
421.145	1345.34
421.353	1417.02
421.561	1472.32
421.769	1382.21
421.977	1554.24
422.185	1513.28
422.393	1597.24
422.601	1716.03
422.809	1664.83
423.017	1773.37
423.224	1744.7
423.432	1744.7
423.64	1869.62
423.848	1990.45
424.056	2094.9
424.263	2199.35
424.471	2238.26
424.679	2197.3
424.887	2326.32
425.094	2307.89
425.302	2402.1
425.51	2459.44
425.718	2643.76
425.925	2588.46
426.133	2680.62
426.341	2844.46
426.548	2869.03
426.756	2848.55
426.964	2920.23
427.171	3276.58
427.379	3213.09
427.586	3327.78
427.794	3415.84
428.001	3606.3
428.209	3626.78
428.417	3602.21
428.624	3899.16
428.832	3733.28
429.039	3897.11
429.247	3942.17
429.454	4280.08
429.662	4372.24
429.869	4169.49
430.076	4644.62
430.284	4351.76
430.491	4515.6
430.699	4701.97
430.906	4830.99
431.114	4937.48
431.321	4988.68
431.528	5115.66
431.736	5529.34
431.943	5807.87
432.15	5631.74
432.358	5545.73
432.565	5873.4
432.772	5938.94
432.979	6244.09
433.187	6143.74
433.394	6082.3
433.601	6731.5
433.808	6700.78
434.016	6715.12
434.223	6995.69
434.43	7399.14
434.637	7333.61
434.844	7636.7
435.052	8031.96
435.259	7978.72
435.466	7966.43
435.673	7708.38
435.88	8601.3
436.087	8840.91
436.294	8814.29
436.501	8576.72
436.708	8636.11
436.915	9066.19
437.122	9373.38
437.329	9483.97
437.537	9760.45
437.743	9975.49
437.95	9705.15
438.157	10499.77
438.364	10667.7
438.571	10596.02
438.778	10665.65
438.985	11708.07
439.192	11415.21
439.399	11681.44
439.606	11116.2
439.813	12023.45
440.02	12641.94
440.227	12283.55
440.433	12357.27
440.64	12986
440.847	12732.05
441.054	12981.9
441.261	13819.52
441.467	13620.87
441.674	13850.24
441.881	14392.95
442.088	14392.95
442.294	14343.8
442.501	14675.57
442.708	14956.15
442.914	15644.26
443.121	15928.93
443.328	15677.03
443.534	16733.78
443.741	16223.84
443.948	16209.5
444.154	17282.64
444.361	17028.69
444.568	17282.64
444.774	17348.17
444.981	17348.17
445.187	17897.03
445.394	18710.07
445.6	18576.95
445.807	20108.83
446.013	19633.71
446.22	19621.42
446.426	20436.51
446.633	20629.02
446.839	21689.87
447.046	20563.48
447.252	21829.13
447.459	21667.34
447.665	21499.41
447.871	22840.82
448.078	23813.61
448.284	22560.25
448.491	22855.16
448.697	23815.66
448.903	24581.6
449.11	24247.78
449.316	24184.29
449.522	24645.09
449.728	25378.26
449.935	25660.88
450.141	25738.7
450.347	26052.04
450.553	25206.23
450.76	25632.21
450.966	26641.85
451.172	26230.21
451.378	26672.57
451.584	26179.01
451.791	26940.86
451.997	27131.32
452.203	27397.56
452.409	27266.49
452.615	27514.29
452.821	26308.04
453.027	26047.94
453.233	27590.06
453.44	26340.8
453.646	26830.27
453.852	26883.52
454.058	27749.81
454.264	26523.07
454.47	27379.12
454.676	26340.8
454.882	27698.61
455.088	25009.62
455.294	25720.27
455.5	25916.87
455.705	26123.72
455.911	25062.87
456.117	24714.72
456.323	24423.9
456.529	23291.38
456.735	24194.53
456.941	23608.81
457.147	23307.76
457.352	22752.76
457.558	22455.81
457.764	22304.26
457.97	21913.09
458.176	21431.82
458.381	21569.04
458.587	20375.07
458.793	20547.1
458.999	19332.65
459.204	21063.19
459.41	20258.34
459.616	19117.62
459.821	18914.87
460.027	19193.39
460.233	18384.44
460.438	17552.97
460.644	17679.94
460.85	17024.59
461.055	16862.8
461.261	16858.71
461.466	15537.77
461.672	14915.19
461.878	15898.21
462.083	15124.08
462.289	14694.01
462.494	14579.32
462.7	14022.27
462.905	13729.41
463.111	13932.16
463.316	13960.83
463.522	13678.21
463.727	13866.63
463.932	13778.56
464.138	13620.87
464.343	13584.01
464.549	13385.35
464.754	13686.4
464.959	13737.6
465.165	13432.46
465.37	12942.99
465.575	12469.91
465.781	12971.66
465.986	13078.16
466.191	12502.68
466.397	12504.73
466.602	11577
466.807	12265.11
467.012	12189.34
467.218	11959.97
467.423	11951.77
467.628	12283.55
467.833	12699.28
468.038	12359.32
468.244	11759.27
468.449	12170.91
468.654	11861.66
468.859	11916.96
469.064	11540.13
469.269	11269.8
469.474	11370.15
469.679	11544.23
469.885	11155.12
470.09	11359.91
470.295	11327.14
470.5	11040.43
470.705	11212.46
470.91	10927.79
471.115	10843.82
471.32	11099.82
471.525	11022
471.73	10647.22
471.935	10542.77
472.139	10294.97
472.344	10411.7
472.549	10301.11
472.754	10170.04
472.959	9868.99
473.164	9674.43
473.369	9633.47
473.574	10106.56
473.778	9764.54
473.983	9805.5
474.188	9764.54
474.393	9508.55
474.598	9395.91
474.802	9295.56
475.007	9377.48
475.212	9365.19
475.417	8996.56
475.621	9051.85
475.826	8828.62
476.031	8586.96
476.235	8681.17
476.44	8840.91
476.645	8744.66
476.849	8632.02
477.054	8552.15
477.259	8369.88
477.463	8392.41
477.668	8015.58
477.872	8433.36
478.077	8048.35
478.282	7800.54
478.486	7896.8
478.691	7761.63
478.895	8025.82
479.1	7667.42
479.304	7868.13
479.509	7585.51
479.713	7732.96
479.918	7468.77
480.122	7536.35
480.326	7378.66
480.531	7382.76
480.735	7319.27
480.94	7309.03
481.144	7517.92
481.348	7182.06
481.553	7329.51
481.757	6948.59
481.961	7317.22
482.166	7290.6
482.37	7272.17
482.574	6928.11
482.778	7093.99
482.983	7188.2
483.187	7093.99
483.391	7184.1
483.595	7020.27
483.8	6977.26
484.004	7184.1
484.208	7280.36
484.412	7048.94
484.616	7067.37
484.821	7044.84
485.025	6878.96
485.229	7106.28
485.433	7046.89
485.637	7214.82
485.841	6979.31
486.045	7192.3
486.249	7167.72
486.453	7032.55
486.657	7134.95
486.861	6883.05
487.065	6985.45
487.269	7116.52
487.473	6977.26
487.677	6969.07
487.881	7233.25
488.085	6964.97
488.289	7202.54
488.493	6954.73
488.697	7233.25
488.901	7218.92
489.105	6999.79
489.309	7190.25
489.512	7149.29
489.716	7071.47
489.92	7208.68
490.124	7259.88
490.328	7429.86
490.531	7153.38
490.735	7198.44
490.939	7460.58
491.143	7401.19
491.346	7306.98
491.55	7481.06
491.754	7325.41
491.958	7419.62
492.161	7665.38
492.365	7501.54
492.569	7487.2
492.772	7438.05
492.976	7679.71
493.18	7442.15
493.383	7732.96
493.587	7911.13
493.79	7909.08
493.994	7679.71
494.197	7761.63
494.401	7798.49
494.605	7753.44
494.808	7886.56
495.012	7993.05
495.215	8195.8
495.419	8267.48
495.622	8197.85
495.825	8265.43
496.029	8275.67
496.232	8345.3
496.436	8206.04
496.639	8660.69
496.843	8431.32
497.046	8828.62
497.249	8787.66
497.453	8830.67
497.656	8847.05
497.859	8885.97
498.063	9162.44
498.266	9217.74
498.469	9320.14
498.673	9348.81
498.876	9670.34
499.079	9688.77
499.282	9436.87
499.485	9789.12
499.689	9778.88
499.892	9860.8
500.095	9866.94
500.298	10321.59
500.501	10135.23
500.705	10346.17
500.908	10450.61
501.111	10397.37
501.314	10581.68
501.517	10897.07
501.72	11167.4
501.923	10876.59
502.126	11079.34
502.329	11370.15
502.532	11343.53
502.735	11376.3
502.938	11839.14
503.141	11597.48
503.344	11812.51
503.547	12041.89
503.75	12103.32
503.953	12351.13
504.156	12490.39
504.359	12402.33
504.562	12451.48
504.765	12701.33
504.968	12844.69
505.17	13276.81
505.373	13104.78
505.576	13596.29
505.779	13635.21
505.982	13543.05
506.185	13827.71
506.387	13837.95
506.59	13995.65
506.793	14257.79
506.996	14032.51
507.198	14575.22
507.401	14423.67
507.604	14685.81
507.807	14966.38
508.009	15023.73
508.212	15031.92
508.415	15556.2
508.617	15713.89
508.82	15619.69
509.022	15851.11
509.225	16092.77
509.428	16299.61
509.63	16221.79
509.833	16490.07
510.035	16737.88
510.238	16545.37
510.44	16827.99
510.643	17327.69
510.845	17464.91
511.048	17323.6
511.25	17471.05
511.453	17694.28
511.655	18200.13
511.858	18204.22
512.06	18189.89
512.262	18703.93
512.465	18822.71
512.667	18710.07
512.87	19002.93
513.072	18937.4
513.274	19545.64
513.477	19521.07
513.679	19693.1
513.881	19949.09
514.084	20092.45
514.286	20078.11
514.488	20287.01
514.69	20817.43
514.893	20772.38
515.095	20874.77
515.297	21255.7
515.499	21341.71
515.701	21595.66
515.904	21640.72
516.106	22093.32
516.308	22294.02
516.51	22683.13
516.712	22511.1
516.914	22877.69
517.116	23268.85
517.318	23037.43
517.52	23418.35
517.722	23178.74
517.925	23627.24
518.127	23829.99
518.329	24372.71
518.531	24190.44
518.733	24757.72
518.935	24866.27
519.136	24653.28
519.338	25347.54
519.54	25306.58
519.742	25648.59
519.944	25576.91
520.146	25933.26
520.348	26297.8
520.55	26185.16
520.752	26682.81
520.954	26967.48
521.155	26346.95
521.357	26998.2
521.559	27467.19
521.761	27628.98
521.963	27635.12
522.164	27653.55
522.366	27645.36
522.568	28151.21
522.77	28376.48
522.971	28831.13
523.173	28642.72
523.375	28863.9
523.576	28906.91
523.778	29273.49
523.98	29582.74
524.181	29543.83
524.383	29265.3
524.584	29693.33
524.786	29789.58
524.988	29625.75
525.189	30213.51
525.391	30451.08
525.592	30477.7
525.794	31051.13
525.995	30698.88
526.197	30682.5
526.398	31096.19
526.6	31122.81
526.801	31427.96
527.003	31479.16
527.204	31264.12
527.406	31884.65
527.607	31456.63
527.808	32073.07
528.01	31323.51
528.211	31876.46
528.412	32548.2
528.614	31954.29
528.815	32376.17
529.016	32519.53
529.218	32197.99
529.419	32527.72
529.62	32554.34
529.822	32472.42
530.023	32476.52
530.224	32714.08
530.425	32779.62
530.626	32347.5
530.828	32324.97
531.029	33572.18
531.23	32626.02
531.431	32777.57
531.632	33303.9
531.833	33062.24
532.035	32982.37
532.236	33213.79
532.437	33377.62
532.638	33049.95
532.839	33154.4
533.04	33609.04
533.241	32982.37
533.442	33394.01
533.643	33295.71
533.844	33404.25
534.045	33058.14
534.246	33539.41
534.447	33555.8
534.648	33314.14
534.849	33461.59
535.05	33289.56
535.251	33629.52
535.451	33695.06
535.652	33518.93
535.853	33752.4
536.054	33512.79
536.255	33506.65
536.456	33287.51
536.657	34172.24
536.857	33752.4
537.058	33299.8
537.259	33643.86
537.46	33379.67
537.66	33486.17
537.861	33459.54
538.062	33125.72
538.263	33672.53
538.463	33234.27
538.664	33391.96
538.865	33746.26
539.065	33621.33
539.266	33340.76
539.466	33596.76
539.667	33166.68
539.868	33840.46
540.068	33664.34
540.269	33635.67
540.469	33580.37
540.67	33328.47
540.87	33754.45
541.071	33602.9
541.271	33580.37
541.472	33107.29
541.672	33006.94
541.873	33303.9
542.073	32752.99
542.274	34110.8
542.474	33344.86
542.675	33607
542.875	33678.68
543.075	33459.54
543.276	33029.47
543.476	33271.13
543.676	33160.54
543.877	32742.75
544.077	33320.28
544.277	33398.1
544.478	33027.42
544.678	33135.96
544.878	33078.62
545.078	33197.4
545.279	33045.85
545.479	33252.7
545.679	33609.04
545.879	33162.59
546.079	33183.07
546.28	33213.79
546.48	32761.19
546.68	33271.13
546.88	33371.48
547.08	32867.68
547.28	32886.11
547.48	32705.89
547.68	32761.19
547.88	32781.67
548.081	33111.39
548.281	32865.63
548.481	32982.37
548.681	33193.31
548.881	32990.56
549.081	33299.8
549.28	32660.83
549.48	33193.31
549.68	32773.47
549.88	33434.97
550.08	32640.36
550.28	33138.01
550.48	32839.01
550.68	33213.79
550.88	32752.99
551.08	32894.3
551.279	32781.67
551.479	32992.61
551.679	33088.86
551.879	32638.31
552.079	33035.61
552.278	32724.32
552.478	32996.7
552.678	33191.26
552.878	33131.87
553.077	32927.07
553.277	32535.91
553.477	33131.87
553.676	32515.43
553.876	32722.27
554.076	32666.98
554.275	32769.38
554.475	32318.82
554.674	32531.81
554.874	32537.96
555.074	32609.64
555.273	32574.82
555.473	32636.26
555.672	32734.56
555.872	32548.2
556.071	32427.37
556.271	32480.61
556.47	32456.04
556.67	32058.73
556.869	32210.28
557.068	32216.43
557.268	31907.18
557.467	32251.24
557.667	32384.36
557.866	32054.64
558.065	32134.51
558.265	32261.48
558.464	31894.89
558.663	31878.51
558.863	31767.92
559.062	32044.4
559.261	31892.85
559.461	32111.98
559.66	31702.39
559.859	31692.15
560.058	31649.14
560.258	31890.8
560.457	31223.16
560.656	31470.97
560.855	31542.64
561.054	31608.18
561.253	31272.31
561.453	31190.39
561.652	31159.67
561.851	31585.65
562.05	31051.13
562.249	31397.24
562.448	31550.84
562.647	31419.77
562.846	30999.93
563.045	31395.19
563.244	30700.93
563.443	31507.83
563.642	30801.28
563.841	30786.94
564.04	30866.81
564.239	31348.09
564.438	30328.2
564.637	30772.61
564.836	30600.58
565.035	30104.97
565.234	30565.76
565.432	30766.46
565.631	30154.12
565.83	30475.65
566.029	30023.05
566.228	30205.32
566.427	30221.7
566.625	29959.56
566.824	29603.22
567.023	30344.58
567.222	29613.46
567.42	30039.43
567.619	29912.46
567.818	29633.94
568.016	29476.24
568.215	29771.15
568.414	29597.07
568.612	29787.53
568.811	29408.66
569.01	29515.15
569.208	28954.01
569.407	29250.97
569.605	29242.78
569.804	29197.72
570.002	29035.93
570.201	28931.48
570.4	28720.54
570.598	28673.44
570.797	28706.21
570.995	28370.34
571.193	28376.48
571.392	28628.38
571.59	28480.93
571.789	28446.12
571.987	28038.57
572.186	28210.6
572.384	28235.17
572.582	28333.48
572.781	28020.14
572.979	27848.11
573.177	27819.44
573.376	27985.32
573.574	27659.7
573.772	27837.87
573.971	27678.13
574.169	27424.18
574.367	27424.18
574.565	27440.56
574.763	27311.54
574.962	27340.21
575.16	27135.42
575.358	27338.16
575.556	26858.94
575.754	27325.88
575.952	26887.61
576.151	26908.09
576.349	26609.09
576.547	26553.79
576.745	26871.23
576.943	26731.97
577.141	26553.79
577.339	26860.99
577.537	26367.43
577.735	26357.19
577.933	26406.34
578.131	26457.54
578.329	26351.04
578.527	26320.32
578.725	26248.64
578.923	26359.24
579.121	25945.55
579.319	25906.63
579.516	25697.74
579.714	26052.04
579.912	25652.69
580.11	25957.83
580.308	25730.51
580.506	25671.12
580.704	25128.41
580.901	25521.62
581.099	25435.6
581.297	25007.58
581.495	24919.51
581.692	25243.09
581.89	25212.37
582.088	25273.81
582.285	24921.56
582.483	25384.4
582.681	25150.93
582.878	24950.23
583.076	24845.79
583.274	24796.63
583.471	24499.68
583.669	24684
583.866	24311.27
584.064	24634.85
584.262	24313.31
584.459	24430.05
584.657	24022.5
584.854	24458.72
585.052	23703.02
585.249	23987.69
585.447	24106.47
585.644	23600.62
585.841	23797.23
586.039	23991.78
586.236	23397.87
586.434	23639.53
586.631	23635.44
586.828	23383.54
587.026	23748.07
587.223	23621.1
587.42	23430.64
587.618	23332.34
587.815	23143.92
588.012	23315.95
588.21	22875.64
588.407	23115.25
588.604	22879.74
588.801	22648.32
588.999	22650.36
589.196	22652.41
589.393	22775.29
589.59	22447.61
589.787	22568.44
589.984	22445.57
590.182	22165
590.379	22332.93
590.576	22353.41
590.773	22586.88
590.97	21929.48
591.167	22078.98
591.364	21956.1
591.561	21972.49
591.758	21831.18
591.955	21802.5
592.152	22140.42
592.349	21755.4
592.546	21716.49
592.743	21841.42
592.94	21452.3
593.137	21466.64
593.334	21640.72
593.531	21233.17
593.727	21487.12
593.924	21358.1
594.121	21288.46
594.318	21222.93
594.515	21229.07
594.712	21167.63
594.908	20899.35
595.105	20925.97
595.302	20827.67
595.499	20770.33
595.696	20643.35
595.892	20596.25
596.089	20510.24
596.286	20620.83
596.482	20657.69
596.679	20674.07
596.876	20213.28
597.072	20239.9
597.269	20018.72
597.466	20010.53
597.662	20153.89
597.859	19912.23
598.055	20063.78
598.252	19975.72
598.448	20035.11
598.645	19635.75
598.841	19803.69
599.038	19641.9
599.234	19777.06
599.431	19314.22
599.627	19705.38
599.824	19545.64
600.02	19502.64
600.217	19445.29
600.413	19340.85
600.609	19263.02
600.806	18972.21
601.002	19355.18
601.198	19121.71
601.395	18794.04
601.591	19021.36
601.787	18902.58
601.984	18765.37
602.18	18984.5
602.376	18640.44
602.572	18619.96
602.769	18558.52
602.965	18456.12
603.161	18617.91
603.357	18343.49
603.553	18419.26
603.75	18384.44
603.946	18431.55
604.142	18220.61
604.338	17976.9
604.534	18077.25
604.73	18007.62
604.926	17778.25
605.122	18069.06
605.318	18060.87
605.514	17733.19
605.71	17698.38
605.906	17831.49
606.102	17739.33
606.298	17583.69
606.494	17624.65
606.69	17487.43
606.886	17499.72
607.082	17118.8
607.278	17331.79
607.474	17413.71
607.67	17589.83
607.866	17049.17
608.062	17419.85
608.257	17247.82
608.453	17241.68
608.649	17075.79
608.845	16852.56
609.041	16922.2
609.236	17153.62
609.432	16985.68
609.628	16840.28
609.824	17040.98
610.019	16680.53
610.215	16873.04
610.411	16985.68
610.606	16864.85
610.802	16881.24
610.998	16559.7
611.193	16631.38
611.389	16619.1
611.584	16246.37
611.78	16248.41
611.976	16627.29
612.171	16328.28
612.367	16373.34
612.562	16399.96
612.758	16135.78
612.953	16348.76
613.149	16547.42
613.344	16096.86
613.539	16463.45
613.735	16449.11
613.93	16234.08
614.126	16062.05
614.321	16207.45
614.517	16217.69
614.712	15992.42
614.907	16121.44
615.103	16176.73
615.298	15787.62
615.493	16105.06
615.688	15728.23
615.884	16242.27
616.079	15513.19
616.274	15953.51
616.47	15558.25
616.665	15660.65
616.86	15615.59
617.055	15578.73
617.25	15595.11
617.445	15853.16
617.641	15595.11
617.836	15443.56
618.031	15255.15
618.226	15695.46
618.421	15244.91
618.616	15746.66
618.811	15068.78
619.006	15322.73
619.201	15046.26
619.396	15132.27
619.591	15042.16
619.786	15031.92
619.981	14671.48
620.176	15050.35
620.371	14755.44
620.566	14984.82
620.761	14640.76
620.956	14640.76
621.151	14538.36
621.346	14521.98
621.541	14368.38
621.735	14423.67
621.93	14341.75
622.125	14302.84
622.32	13934.21
622.515	14014.08
622.709	13975.17
622.904	13946.5
623.099	13874.82
623.294	13768.32
623.488	13833.86
623.683	13813.38
623.878	13414.02
624.072	13551.24
624.267	13323.91
624.462	13350.54
624.656	13178.51
624.851	13446.79
625.046	13403.78
625.24	13211.28
625.435	13014.67
625.629	12969.62
625.824	12787.35
626.018	12756.63
626.213	12789.39
626.407	12738.19
626.602	12449.43
626.796	12764.82
626.991	12512.92
627.185	12547.73
627.38	12342.94
627.574	12342.94
627.768	12064.41
627.963	12031.65
628.157	12058.27
628.352	12123.8
628.546	11878.05
628.74	12007.07
628.935	11863.71
629.129	11947.68
629.323	11693.73
629.517	11517.61
629.712	11640.48
629.906	11531.94
630.1	11380.39
630.294	11501.22
630.489	11386.54
630.683	11318.95
630.877	11198.12
631.071	11103.92
631.265	10950.32
631.459	10960.56
631.653	10845.87
631.848	10978.99
632.042	10841.78
632.236	10890.93
632.43	10690.23
632.624	10790.58
632.818	10655.41
633.012	10348.22
633.206	10624.69
633.4	10747.57
633.594	10372.79
633.788	10423.99
633.982	10397.37
634.176	10489.53
634.369	9959.1
634.563	10239.67
634.757	9971.39
634.951	10106.56
635.145	10157.75
635.339	10059.45
635.533	9705.15
635.726	9721.54
635.92	9762.5
636.114	9719.49
636.308	9715.39
636.501	9789.12
636.695	9787.07
636.889	9608.9
637.083	9416.39
637.276	9516.74
637.47	9467.59
637.664	9516.74
637.857	9381.57
638.051	9461.44
638.244	8888.01
638.438	9189.07
638.632	9039.56
638.825	9023.18
639.019	9041.61
639.212	8949.45
639.406	8961.74
639.599	8885.97
639.793	8804.05
639.986	8609.49
640.18	8853.2
640.373	8578.77
640.567	8503
640.76	8666.83
640.954	8558.29
641.147	8386.26
641.34	8562.39
641.534	8470.23
641.727	8533.72
641.92	8382.17
642.114	8183.51
642.307	8165.08
642.5	8197.85
642.694	8085.21
642.887	8132.31
643.08	8058.59
643.273	7999.2
643.467	7993.05
643.66	7878.37
643.853	7833.31
644.046	7724.77
644.239	7808.73
644.432	7718.62
644.626	7702.24
644.819	7714.53
645.012	7610.08
645.205	7657.18
645.398	7503.59
645.591	7483.11
645.784	7499.49
645.977	7425.76
646.17	7562.98
646.363	7329.51
646.556	7268.07
646.749	7339.75
646.942	7423.72
647.135	7110.38
647.328	7177.96
647.521	7153.38
647.714	7063.27
647.907	6913.77
648.099	6905.58
648.292	6971.11
648.485	7022.31
648.678	7010.03
648.871	6805.23
649.064	6840.04
649.256	6932.2
649.449	6780.65
649.642	6919.92
649.835	6708.97
650.027	6594.29
650.22	6651.63
650.413	6493.94
650.605	6655.73
650.798	6393.59
650.991	6543.09
651.183	6338.29
651.376	6436.6
651.568	6387.44
651.761	6233.85
651.954	6461.17
652.146	6256.37
652.339	6266.61
652.531	6248.18
652.724	6096.63
652.916	6014.71
653.109	6043.39
653.301	6160.12
653.494	6051.58
653.686	5865.21
653.879	6215.41
654.071	5877.5
654.263	5760.77
654.456	5981.95
654.648	5977.85
654.84	5863.16
655.033	5779.2
655.225	5709.57
655.417	5586.69
655.61	5711.61
655.802	5603.07
655.994	5568.26
656.186	5732.09
656.379	5592.83
656.571	5580.54
656.763	5562.11
656.955	5377.8
657.148	5474.05
657.34	5396.23
657.532	5357.32
657.724	5385.99
657.916	5363.46
658.108	5312.26
658.3	5160.71
658.492	5232.39
658.684	4986.63
658.876	5177.09
659.068	5244.68
659.26	5048.07
659.452	5019.4
659.644	5052.17
659.836	5246.73
660.028	5150.47
660.22	4855.56
660.412	4826.89
660.604	4824.84
660.796	4896.52
660.988	4865.8
661.18	4673.29
661.372	4964.11
661.563	4785.93
661.755	4728.59
661.947	4652.81
662.139	4699.92
662.331	4722.45
662.522	4691.73
662.714	4611.85
662.906	4595.47
663.097	4478.74
663.289	4638.48
663.481	4441.87
663.673	4562.7
663.864	4380.43
664.056	4488.98
664.247	4437.78
664.439	4331.28
664.631	4316.95
664.822	4472.59
665.014	4388.63
665.205	4357.91
665.397	4220.69
665.588	4321.04
665.78	4159.25
665.971	4286.23
666.163	4400.91
666.354	4314.9
666.546	4120.34
666.737	4142.87
666.929	4185.88
667.12	4241.17
667.311	4144.92
667.503	4126.49
667.694	4124.44
667.885	4052.76
668.077	3958.55
668.268	3911.45
668.459	3940.12
668.651	3907.35
668.842	3839.77
669.033	3856.15
669.224	3868.44
669.416	3958.55
669.607	3950.36
669.798	3843.87
669.989	3938.07
670.18	3815.2
670.371	3899.16
670.563	3864.35
670.754	3831.58
670.945	3716.89
671.136	3753.76
671.327	3725.08
671.518	3604.25
671.709	3708.7
671.9	3655.45
672.091	3659.55
672.282	3729.18
672.473	3616.54
672.664	3686.17
672.855	3473.18
673.046	3600.16
673.237	3653.41
673.428	3563.29
673.619	3561.25
673.809	3544.86
674	3471.14
674.191	3436.32
674.382	3495.71
674.573	3372.83
674.764	3385.12
674.954	3436.32
675.145	3342.11
675.336	3464.99
675.527	3321.63
675.717	3430.18
675.908	3426.08
676.099	3374.88
676.289	3421.99
676.48	3272.48
676.671	3133.22
676.861	3346.21
677.052	3311.39
677.243	3258.15
677.433	3274.53
677.624	3440.42
677.814	3342.11
678.005	3204.9
678.195	3252
678.386	3102.5
678.576	3213.09
678.767	3184.42
678.957	3073.83
679.148	3229.48
679.338	3196.71
679.529	3120.93
679.719	3045.16
679.909	3151.65
680.1	3184.42
680.29	3159.85
680.481	3209
680.671	3202.85
680.861	3159.85
681.052	3036.97
681.242	3020.58
681.432	3184.42
681.622	3024.68
681.813	3014.44
682.003	3090.21
682.193	2977.58
682.383	2903.85
682.573	2948.9
682.764	3049.25
682.954	3004.2
683.144	3012.39
683.334	2834.22
683.524	2934.57
683.714	2996.01
683.904	2875.18
684.094	2883.37
684.284	2979.62
684.474	2975.53
684.664	2967.34
684.854	2940.71
685.044	2969.38
685.234	2885.42
685.424	2897.71
685.614	2860.84
685.804	2819.88
685.994	2920.23
686.184	2846.51
686.374	2940.71
686.564	2795.31
686.753	2785.07
686.943	2848.55
687.133	2717.48
687.323	2656.04
687.513	2750.25
687.702	2664.24
687.892	2719.53
688.082	2672.43
688.272	2709.29
688.461	2637.61
688.651	2774.83
688.841	2717.48
689.03	2697
689.22	2621.23
689.41	2662.19
689.599	2602.8
689.789	2629.42
689.979	2555.69
690.168	2570.03
690.358	2539.31
690.547	2514.73
690.737	2541.36
690.926	2512.69
691.116	2549.55
691.305	2594.61
691.495	2561.84
691.684	2471.73
691.874	2357.04
692.063	2365.23
692.252	2424.62
692.442	2481.97
692.631	2375.47
692.82	2371.38
693.01	2455.34
693.199	2398
693.388	2301.75
693.578	2357.04
693.767	2445.1
693.956	2361.14
694.146	2430.77
694.335	2352.95
694.524	2316.08
694.713	2238.26
694.902	2252.59
695.092	2316.08
695.281	2225.97
695.47	2330.42
695.659	2219.83
695.848	2305.84
696.037	2168.63
696.226	2236.21
696.415	2178.87
696.604	2146.1
696.793	2217.78
696.982	2070.33
697.171	2283.31
697.36	2275.12
697.549	2217.78
697.738	2033.46
697.927	2209.59
698.116	2307.89
698.305	2115.38
698.494	2187.06
698.683	2176.82
698.872	2223.92
699.061	2168.63
699.25	2160.44
699.438	2148.15
699.627	2144.05
699.816	2234.16
700.005	2051.89
700.193	2158.39
700.382	2105.14
700.571	2033.46
700.76	2115.38
700.948	2094.9
701.137	2070.33
701.326	2101.05
701.514	2078.52
701.703	2152.24
701.892	2152.24
702.08	2096.95
702.269	2088.76
702.457	2053.94
702.646	2187.06
702.834	2049.85
703.023	2107.19
703.212	2094.9
703.4	2113.33
703.589	2023.22
703.777	2139.96
703.965	2004.79
704.154	2064.18
704.342	2045.75
704.531	2004.79
704.719	1959.74
704.907	2152.24
705.096	1963.83
705.284	1963.83
705.472	2078.52
705.661	2037.56
705.849	2080.57
706.037	2096.95
706.226	1988.41
706.414	1976.12
706.602	1969.98
706.79	2070.33
706.979	1965.88
707.167	2086.71
707.355	2070.33
707.543	2000.69
707.731	2088.76
707.919	2033.46
708.107	2078.52
708.296	2031.41
708.484	1933.11
708.672	1967.93
708.86	1974.07
709.048	2049.85
709.236	1924.92
709.424	2045.75
709.612	1982.26
709.8	1978.17
709.988	1931.06
710.176	1910.58
710.364	1931.06
710.551	1892.15
710.739	1963.83
710.927	1972.02
711.115	1951.54
711.303	2039.61
711.491	2029.37
711.679	2023.22
711.866	2037.56
712.054	1947.45
712.242	1955.64
712.43	2012.98
712.617	1947.45
712.805	2004.79
712.993	2019.13
713.181	1736.51
713.368	1939.26
713.556	1974.07
713.744	1951.54
713.931	1978.17
714.119	1978.17
714.306	1922.87
714.494	1959.74
714.682	2002.74
714.869	1943.35
715.057	2129.72
715.244	1902.39
715.432	1916.73
715.619	1867.58
715.807	1933.11
715.994	1998.65
716.182	1935.16
716.369	1939.26
716.556	2029.37
716.744	1996.6
716.931	1816.38
717.119	1972.02
717.306	1988.41
717.493	2064.18
717.681	2023.22
717.868	1937.21
718.055	1914.68
718.242	1926.97
718.43	2103.09
718.617	1881.91
718.804	1906.49
718.991	1988.41
719.179	1908.54
719.366	1931.06
719.553	1947.45
719.74	1949.5
719.927	2058.04
720.114	1935.16
720.301	1945.4
720.488	1918.78
720.676	1965.88
720.863	1953.59
721.05	1978.17
721.237	1988.41
721.424	2027.32
721.611	1851.19
721.798	1810.23
721.985	1838.91
722.172	1912.63
722.358	1931.06
722.545	1957.69
722.732	1963.83
722.919	1855.29
723.106	2045.75
723.293	1849.15
723.48	1984.31
723.667	1830.71
723.853	1939.26
724.04	1873.72
724.227	1992.5
724.414	1924.92
724.6	1900.34
724.787	1996.6
724.974	1980.22
725.161	1881.91
725.347	1845.05
725.534	1857.34
725.72	1941.3
725.907	2000.69
726.094	1883.96
726.28	1922.87
726.467	1900.34
726.653	1926.97
726.84	1894.2
727.027	1988.41
727.213	1894.2
727.4	1830.71
727.586	1847.1
727.773	1867.58
727.959	1943.35
728.145	1920.82
728.332	1902.39
728.518	1924.92
728.705	1976.12
728.891	1906.49
729.077	1890.1
729.264	1902.39
729.45	1931.06
729.636	2017.08
729.823	1902.39
730.009	2037.56
730.195	1875.77
730.382	1988.41
730.568	1883.96
730.754	1875.77
730.94	1900.34
731.126	1990.45
731.313	1963.83
731.499	1890.1
731.685	1965.88
731.871	1886.01
732.057	1922.87
732.243	1910.58
732.429	1974.07
732.615	1967.93
732.801	1845.05
732.987	1890.1
733.173	1857.34
733.359	2012.98
733.545	1922.87
733.731	1816.38
733.917	1947.45
734.103	1947.45
734.289	1799.99
734.475	1906.49
734.661	1914.68
734.847	1922.87
735.033	1847.1
735.219	1947.45
735.404	1871.67
735.59	1865.53
735.776	1867.58
735.962	1883.96
736.148	1900.34
736.333	1892.15
736.519	1849.15
736.705	1849.15
736.89	1799.99
737.076	1840.95
737.262	1840.95
737.447	1812.28
737.633	1791.8
737.819	1824.57
738.004	1824.57
738.19	1875.77
738.375	1759.03
738.561	1869.62
738.747	1832.76
738.932	1894.2
739.118	1804.09
739.303	1750.84
739.489	1783.61
739.674	1879.86
739.859	1767.23
740.045	1646.4
740.23	1861.43
740.416	1736.51
740.601	1726.27
740.786	1756.99
740.972	1750.84
741.157	1814.33
741.342	1683.26
741.528	1742.65
741.713	1668.92
741.898	1736.51
742.084	1843
742.269	1799.99
742.454	1632.06
742.639	1742.65
742.824	1804.09
743.01	1826.62
743.195	1752.89
743.38	1716.03
743.565	1736.51
743.75	1636.16
743.935	1722.17
744.12	1703.74
744.305	1693.5
744.49	1619.77
744.675	1720.12
744.86	1599.29
745.045	1718.08
745.23	1709.88
745.415	1595.2
745.6	1664.83
745.785	1589.05
745.97	1554.24
746.155	1603.39
746.34	1605.44
746.525	1552.19
746.71	1546.05
746.895	1464.13
747.079	1562.43
747.264	1570.62
747.449	1529.66
747.634	1488.7
747.819	1546.05
748.003	1527.61
748.188	1503.04
748.373	1472.32
748.557	1554.24
748.742	1521.47
748.927	1490.75
749.111	1435.46
749.296	1439.55
749.481	1464.13
749.665	1472.32
749.85	1382.21
750.034	1402.69
750.219	1431.36
750.404	1365.82
750.588	1404.74
750.773	1455.94
750.957	1302.34
751.141	1302.34
751.326	1390.4
751.51	1449.79
751.695	1310.53
751.879	1390.4
752.064	1259.33
752.248	1255.23
752.432	1296.19
752.617	1322.82
752.801	1271.62
752.985	1347.39
753.17	1191.75
753.354	1359.68
753.538	1326.91
753.722	1247.04
753.907	1152.84
754.091	1234.75
754.275	1294.15
754.459	1204.03
754.643	1171.27
754.828	1093.44
755.012	1169.22
755.196	1193.8
755.38	1201.99
755.564	1226.56
755.748	1189.7
755.932	1150.79
756.116	1115.97
756.3	1111.88
756.484	1095.49
756.668	1212.23
756.852	1013.57
757.036	1113.92
757.22	1040.2
757.404	1070.92
757.588	1130.31
757.772	1105.73
757.956	1048.39
758.14	1072.96
758.323	966.47
758.507	1038.15
758.691	1064.77
758.875	1095.49
759.059	1046.34
759.242	1087.3
759.426	1099.59
759.61	1070.92
759.794	993.09
759.977	1046.34
760.161	1087.3
760.345	972.61
760.528	968.52
760.712	1009.48
760.895	993.09
761.079	1040.2
761.263	950.09
761.446	939.85
761.63	970.57
761.813	1048.39
761.997	948.04
762.18	900.94
762.364	919.37
762.547	948.04
762.731	968.52
762.914	874.31
763.098	907.08
763.281	968.52
763.464	917.32
763.648	993.09
763.831	866.12
764.015	845.64
764.198	864.07
764.381	794.44
764.564	884.55
764.748	876.36
764.931	907.08
765.114	808.78
765.297	898.89
765.481	776.01
765.664	939.85
765.847	876.36
766.03	876.36
766.213	862.02
766.397	915.27
766.58	778.06
766.763	874.31
766.946	800.59
767.129	790.35
767.312	685.9
767.495	849.74
767.678	778.06
767.861	808.78
768.044	847.69
768.227	796.49
768.41	800.59
768.593	825.16
768.776	814.92
768.959	796.49
769.142	816.97
769.324	843.59
769.507	718.67
769.69	849.74
769.873	819.02
770.056	952.13
770.239	792.39
770.421	726.86
770.604	886.6
770.787	761.67
770.97	765.77
771.152	755.53
771.335	808.78
771.518	753.48
771.7	780.11
771.883	876.36
772.066	804.68
772.248	784.2
772.431	792.39
772.613	784.2
772.796	735.05
772.978	745.29
773.161	747.34
773.343	710.47
773.526	771.91
773.708	661.32
773.891	743.24
774.073	689.99
774.256	696.14
774.438	761.67
774.621	657.23
774.803	706.38
774.985	661.32
775.168	679.75
775.35	642.89
775.532	694.09
775.715	628.56
775.897	718.67
776.079	640.84
776.261	696.14
776.444	751.43
776.626	595.79
776.808	696.14
776.99	616.27
777.173	569.16
777.355	589.64
777.537	618.32
777.719	620.36
777.901	595.79
778.083	665.42
778.265	503.63
778.447	626.51
778.629	567.12
778.811	581.45
778.993	673.61
779.175	665.42
779.357	618.32
779.539	522.06
779.721	583.5
779.903	589.64
780.085	552.78
780.267	595.79
780.449	554.83
780.631	563.02
780.812	540.49
780.994	558.92
781.176	489.29
781.358	532.3
781.54	489.29
781.721	589.64
781.903	522.06
782.085	526.16
782.267	544.59
782.448	462.67
782.63	419.66
782.812	436.05
782.993	456.53
783.175	532.3
783.357	456.53
783.538	450.38
783.72	452.43
783.901	452.43
784.083	554.83
784.264	442.19
784.446	513.87
784.627	390.99
784.809	489.29
784.99	390.99
785.172	497.49
785.353	452.43
785.535	384.85
785.716	393.04
785.897	462.67
786.079	368.46
786.26	354.13
786.441	343.89
786.623	368.46
786.804	350.03
786.985	481.1
787.167	390.99
787.348	434
787.529	333.65
787.71	431.95
787.891	454.48
788.073	376.66
788.254	341.84
788.435	395.09
788.616	300.88
788.797	358.22
788.978	298.83
789.159	374.61
789.34	474.96
789.522	339.79
789.703	329.55
789.884	296.78
790.065	364.37
790.246	288.59
790.427	384.85
790.607	341.84
790.788	401.23
790.969	341.84
791.15	384.85
791.331	315.22
791.512	341.84
791.693	309.07
791.874	329.55
792.054	397.14
792.235	325.46
792.416	339.79
792.597	343.89
792.778	325.46
792.958	327.5
793.139	288.59
793.32	331.6
793.5	204.63
793.681	378.7
793.862	356.18
794.042	337.74
794.223	239.44
794.404	276.31
794.584	307.02
794.765	321.36
794.945	288.59
795.126	290.64
795.306	339.79
795.487	268.11
795.667	302.93
795.848	302.93
796.028	255.83
796.209	325.46
796.389	247.63
796.57	278.35
796.75	255.83
796.93	300.88
797.111	212.82
797.291	268.11
797.471	309.07
797.652	333.65
797.832	225.11
798.012	290.64
798.192	268.11
798.373	202.58
798.553	227.15
798.733	272.21
798.913	216.91
799.093	284.5
799.274	210.77
799.454	284.5
799.634	186.19
799.814	272.21
799.994	292.69
800.174	261.97
800.354	251.73
800.534	173.91
800.714	325.46
800.894	257.87
801.074	202.58
801.254	259.92
801.434	270.16
801.614	227.15
801.794	186.19
801.974	849.74
802.154	178
802.334	270.16
802.514	184.15
802.693	218.96
802.873	116.56
803.053	272.21
803.233	188.24
803.413	155.47
803.592	200.53
803.772	182.1
803.952	235.35
804.131	161.62
804.311	292.69
804.491	218.96
804.67	180.05
804.85	175.95
805.03	180.05
805.209	235.35
805.389	130.9
805.568	188.24
805.748	204.63
805.928	190.29
806.107	284.5
806.287	227.15
806.466	233.3
806.646	163.67
806.825	171.86
807.004	112.47
807.184	245.59
807.363	153.43
807.543	280.4
807.722	145.24
807.901	253.78
808.081	270.16
808.26	100.18
808.439	200.53
808.619	198.48
808.798	231.25
808.977	163.67
809.156	186.19
809.336	235.35
809.515	229.2
809.694	178
809.873	149.33
810.052	145.24
810.231	202.58
810.411	171.86
810.59	163.67
810.769	204.63
810.948	165.71
811.127	130.9
811.306	153.43
811.485	141.14
811.664	253.78
811.843	180.05
812.022	83.8
812.201	112.47
812.38	194.39
812.559	190.29
812.737	212.82
812.916	106.32
813.095	128.85
813.274	126.8
813.453	178
813.632	145.24
813.811	163.67
813.989	98.13
814.168	112.47
814.347	63.32
814.526	116.56
814.704	169.81
814.883	210.77
815.062	79.7
815.24	210.77
815.419	102.23
815.598	91.99
815.776	137.04
815.955	91.99
816.133	81.75
816.312	178
816.49	139.09
816.669	149.33
816.847	114.52
817.026	171.86
817.204	42.84
817.383	145.24
817.561	139.09
817.74	122.71
817.918	108.37
818.097	87.89
818.275	100.18
818.453	208.72
818.632	40.79
818.81	132.95
818.988	104.28
819.167	157.52
819.345	147.28
819.523	114.52
819.701	57.17
819.879	112.47
820.058	100.18
820.236	151.38
820.414	143.19
820.592	98.13
820.77	14.17
820.948	141.14
821.127	94.04
821.305	98.13
821.483	89.94
821.661	114.52
821.839	104.28
822.017	55.12
822.195	63.32
822.373	139.09
822.551	132.95
822.729	145.24
822.907	128.85
823.085	71.51
823.262	94.04
823.44	104.28
823.618	46.93
823.796	87.89
823.974	106.32
824.152	128.85
824.329	122.71
824.507	-10.41
824.685	44.88
824.863	71.51
825.04	182.1
825.218	53.08
825.396	32.6
825.574	178
825.751	89.94
825.929	124.76
826.107	71.51
826.284	65.36
826.462	89.94
826.639	48.98
826.817	87.89
826.994	75.6
827.172	143.19
827.349	120.66
827.527	83.8
827.704	161.62
827.882	157.52
828.059	120.66
828.237	114.52
828.414	79.7
828.591	59.22
828.769	120.66
828.946	34.64
829.124	137.04
829.301	161.62
829.478	130.9
829.655	137.04
829.833	81.75
830.01	44.88
830.187	83.8
830.364	71.51
830.542	114.52
830.719	120.66
830.896	114.52
831.073	100.18
831.25	100.18
831.427	132.95
831.604	114.52
831.782	65.36
831.959	81.75
832.136	55.12
832.313	106.32
832.49	71.51
832.667	81.75
832.844	63.32
833.021	96.08
833.198	75.6
833.374	59.22
833.551	108.37
833.728	104.28
833.905	71.51
834.082	38.74
834.259	106.32
834.436	34.64
834.612	75.6
834.789	163.67
834.966	63.32
835.143	108.37
835.319	89.94
835.496	112.47
835.673	79.7
835.85	96.08
836.026	14.17
836.203	63.32
836.38	51.03
836.556	79.7
836.733	120.66
836.909	55.12
837.086	108.37
837.262	65.36
837.439	14.17
837.616	-18.6
837.792	30.55
837.968	67.41
838.145	16.21
838.321	42.84
838.498	32.6
838.674	75.6
838.851	104.28
839.027	1.88
839.203	63.32
839.38	65.36
839.556	75.6
839.732	120.66
839.909	22.36
840.085	55.12
840.261	96.08
840.437	48.98
840.614	96.08
840.79	61.27
840.966	79.7
841.142	87.89
841.318	57.17
841.494	81.75
841.671	77.65
841.847	-0.17
842.023	87.89
842.199	89.94
842.375	143.19
842.551	55.12
842.727	-2.22
842.903	155.47
843.079	-22.7
843.255	100.18
843.431	48.98
843.607	46.93
843.783	-57.51
843.959	42.84
844.134	46.93
844.31	210.77
844.486	22.36
844.662	61.27
844.838	73.56
845.013	69.46
845.189	55.12
845.365	81.75
845.541	77.65
845.716	34.64
845.892	55.12
846.068	61.27
846.244	42.84
846.419	106.32
846.595	42.84
846.77	55.12
846.946	46.93
847.122	55.12
847.297	42.84
847.473	79.7
847.648	24.4
847.824	83.8
847.999	-0.17
848.175	10.07
848.35	51.03
848.526	71.51
848.701	161.62
848.876	38.74
849.052	-10.41
849.227	-8.36
849.403	98.13
849.578	40.79
849.753	46.93
849.929	155.47
850.104	28.5
850.279	79.7
850.454	40.79
850.63	81.75
850.805	46.93
850.98	65.36
851.155	46.93
851.33	24.4
851.505	-10.41
851.681	122.71
851.856	81.75
852.031	94.04
852.206	108.37
852.381	30.55
852.556	5.97
852.731	46.93
852.906	130.9
853.081	94.04
853.256	77.65
853.431	16.21
853.606	79.7
853.781	18.26
853.956	98.13
854.131	-2.22
854.305	5.97
854.48	42.84
854.655	26.45
854.83	46.93
855.005	8.02
855.18	30.55
855.354	48.98
855.529	38.74
855.704	16.21
855.879	71.51
856.053	46.93
856.228	81.75
856.403	-34.99
856.577	24.4
856.752	-20.65
856.926	46.93
857.101	34.64
857.276	10.07
857.45	14.17
857.625	-34.99
857.799	46.93
857.974	18.26
858.148	-10.41
858.323	96.08
858.497	-14.51
858.672	18.26
858.846	63.32
859.02	112.47
859.195	71.51
859.369	-8.36
859.543	-4.27
859.718	73.56
859.892	-18.6
860.066	-14.51
860.241	-67.75
860.415	46.93
860.589	-22.7
860.763	75.6
860.938	22.36
861.112	10.07
861.286	55.12
861.46	118.61
861.634	1.88
861.808	104.28
861.982	55.12
862.157	5.97
862.331	14.17
862.505	12.12
862.679	-65.71
862.853	91.99
863.027	-20.65
863.201	114.52
863.375	-59.56
863.549	40.79
863.722	104.28
863.896	48.98
864.07	18.26
864.244	-28.84
864.418	14.17
864.592	87.89
864.766	46.93
864.939	10.07
865.113	8.02
865.287	22.36
865.461	-39.08
865.634	65.36
865.808	22.36
865.982	96.08
866.156	26.45
866.329	5.97
866.503	18.26
866.676	55.12
866.85	30.55
867.024	71.51
867.197	-4.27
867.371	55.12
867.544	-10.41
867.718	-34.99
867.891	53.08
868.065	5.97
868.238	100.18
868.412	104.28
868.585	30.55
868.759	20.31
868.932	18.26
869.105	-41.13
869.279	96.08
869.452	34.64
869.625	-51.37
869.799	5.97
869.972	14.17
870.145	-8.36
870.319	-8.36
870.492	53.08
870.665	22.36
870.838	46.93
871.011	14.17
871.185	-53.42
871.358	1.88
871.531	-24.75
871.704	-6.31
871.877	71.51
872.05	100.18
872.223	1.88
872.396	1.88
872.569	16.21
872.742	20.31
872.915	106.32
873.088	-43.18
873.261	-24.75
873.434	69.46
873.607	-2.22
873.78	48.98
873.953	5.97
874.126	57.17
874.299	34.64
874.471	34.64
874.644	79.7
874.817	18.26
874.99	30.55
875.163	57.17
875.335	59.22
875.508	30.55
875.681	73.56
875.853	73.56
876.026	22.36
876.199	3.93
876.371	57.17
876.544	-51.37
876.717	79.7
876.889	-8.36
877.062	38.74
877.234	14.17
877.407	71.51
877.579	1.88
877.752	112.47
877.924	22.36
878.097	87.89
878.269	-2.22
878.442	36.69
878.614	73.56
878.786	40.79
878.959	14.17
879.131	46.93
879.303	71.51
879.476	-10.41
879.648	8.02
879.82	42.84
879.993	57.17
880.165	26.45
880.337	-32.94
880.509	-0.17
880.681	38.74
880.854	63.32
881.026	104.28
881.198	110.42
881.37	63.32
881.542	-67.75
881.714	18.26
881.886	-18.6
882.058	59.22
882.23	57.17
882.402	-51.37
882.574	79.7
882.746	16.21
882.918	38.74
883.09	14.17
883.262	38.74
883.434	3.93
883.606	14.17
883.778	73.56
883.95	137.04
884.122	24.4
884.293	75.6
884.465	63.32
884.637	77.65
884.809	-73.9
884.98	-26.79
885.152	-32.94
885.324	87.89
885.496	-0.17
885.667	1.88
885.839	40.79
886.011	73.56
886.182	91.99
886.354	-10.41
886.525	16.21
886.697	53.08
886.869	59.22
887.04	14.17
887.212	-59.56
887.383	57.17
887.555	26.45
887.726	51.03
887.897	30.55
888.069	55.12
888.24	71.51
888.412	8.02
888.583	36.69
888.754	81.75
888.926	16.21
889.097	40.79
889.268	-73.9
889.44	18.26
889.611	5.97
889.782	30.55
889.953	24.4
890.125	1.88
890.296	-6.31
890.467	71.51
890.638	53.08
890.809	46.93
890.98	-14.51
891.151	-18.6
891.323	38.74
891.494	57.17
891.665	55.12
891.836	73.56
892.007	-4.27
892.178	73.56
892.349	14.17
892.52	55.12
892.691	24.4
892.862	51.03
893.032	14.17
893.203	-2.22
893.374	48.98
893.545	81.75
893.716	-14.51
893.887	-2.22
894.057	8.02
894.228	5.97
894.399	10.07
894.57	26.45
894.74	-2.22
894.911	-32.94
895.082	-4.27
895.253	59.22
895.423	-49.32
895.594	-30.89
895.764	-37.03
895.935	-20.65
896.106	75.6
896.276	32.6
896.447	10.07
896.617	59.22
896.788	24.4
896.958	32.6
897.129	1.88
897.299	-14.51
897.47	1.88
897.64	122.71
897.81	-22.7
897.981	71.51
898.151	14.17
898.322	-24.75
898.492	-14.51
898.662	51.03
898.832	-18.6
899.003	38.74
899.173	40.79
899.343	-90.28
899.513	-8.36
