Data from USB4F104151__111__14-43-49-711.txt Node

Date: Thu Mar 13 14:43:49 EDT 2025
User: louis
Spectrometer: USB4F10415
Trigger mode: 4
Integration Time (sec): 2.000000E-2
Scans to average: 1
Electric dark correction enabled: true
Nonlinearity correction enabled: false
Boxcar width: 0
XAxis mode: Wavelengths
Number of Pixels in Spectrum: 3648
>>>>>Begin Spectral Data<<<<<
178.204	-104.11
178.424	-104.11
178.644	-104.11
178.864	-118.44
179.084	-177.83
179.304	-11.95
179.524	26.96
179.744	10.58
179.964	76.12
180.184	29.01
180.404	-34.47
180.624	-16.04
180.844	41.3
181.064	-65.19
181.283	-36.52
181.503	-22.19
181.723	2.39
181.943	4.44
182.163	82.26
182.383	90.45
182.602	-3.75
182.822	76.12
183.042	82.26
183.262	82.26
183.482	-46.76
183.701	26.96
183.921	90.45
184.141	4.44
184.361	98.64
184.58	26.96
184.8	63.83
185.02	8.53
185.239	49.49
185.459	24.92
185.679	108.88
185.898	8.53
186.118	119.12
186.338	29.01
186.557	123.22
186.777	0.34
186.997	-22.19
187.216	69.97
187.436	115.03
187.655	53.59
187.875	215.38
188.095	14.68
188.314	59.73
188.534	94.55
188.753	90.45
188.973	104.79
189.192	96.6
189.412	8.53
189.631	57.68
189.851	102.74
190.07	117.08
190.29	37.2
190.509	31.06
190.729	-7.85
190.948	92.5
191.168	104.79
191.387	47.44
191.607	14.68
191.826	49.49
192.045	26.96
192.265	35.16
192.484	65.88
192.704	90.45
192.923	41.3
193.142	69.97
193.362	33.11
193.581	92.5
193.8	12.63
194.02	18.77
194.239	80.21
194.458	49.49
194.678	29.01
194.897	-16.04
195.116	112.98
195.335	74.07
195.555	24.92
195.774	4.44
195.993	33.11
196.212	74.07
196.432	33.11
196.651	-20.14
196.87	-7.85
197.089	69.97
197.308	16.73
197.528	72.02
197.747	-16.04
197.966	12.63
198.185	100.69
198.404	90.45
198.623	12.63
198.842	37.2
199.062	-44.71
199.281	8.53
199.5	51.54
199.719	149.84
199.938	39.25
200.157	24.92
200.376	80.21
200.595	-20.14
200.814	12.63
201.033	100.69
201.252	84.31
201.471	57.68
201.69	41.3
201.909	35.16
202.128	0.34
202.347	98.64
202.566	69.97
202.785	47.44
203.004	41.3
203.223	82.26
203.442	86.36
203.661	26.96
203.879	-22.19
204.098	78.16
204.317	59.73
204.536	76.12
204.755	61.78
204.974	33.11
205.193	72.02
205.411	131.41
205.63	24.92
205.849	16.73
206.068	43.35
206.287	47.44
206.505	12.63
206.724	39.25
206.943	57.68
207.162	37.2
207.381	57.68
207.599	57.68
207.818	-9.9
208.037	92.5
208.255	65.88
208.474	69.97
208.693	4.44
208.911	-9.9
209.13	51.54
209.349	98.64
209.567	76.12
209.786	39.25
210.005	82.26
210.223	100.69
210.442	86.36
210.661	94.55
210.879	90.45
211.098	69.97
211.316	61.78
211.535	94.55
211.753	84.31
211.972	31.06
212.191	37.2
212.409	8.53
212.628	168.27
212.846	33.11
213.065	-93.87
213.283	61.78
213.502	31.06
213.72	12.63
213.938	10.58
214.157	86.36
214.375	98.64
214.594	12.63
214.812	92.5
215.031	29.01
215.249	53.59
215.467	106.84
215.686	14.68
215.904	51.54
216.122	29.01
216.341	123.22
216.559	49.49
216.778	98.64
216.996	57.68
217.214	24.92
217.432	33.11
217.651	4.44
217.869	18.77
218.087	26.96
218.306	49.49
218.524	76.12
218.742	41.3
218.96	76.12
219.179	53.59
219.397	90.45
219.615	57.68
219.833	61.78
220.051	-44.71
220.27	123.22
220.488	16.73
220.706	72.02
220.924	57.68
221.142	59.73
221.36	63.83
221.578	8.53
221.796	18.77
222.015	6.49
222.233	82.26
222.451	98.64
222.669	43.35
222.887	147.8
223.105	35.16
223.323	24.92
223.541	-30.38
223.759	76.12
223.977	61.78
224.195	98.64
224.413	115.03
224.631	69.97
224.849	63.83
225.067	100.69
225.285	-3.75
225.503	0.34
225.721	-57
225.939	88.4
226.157	37.2
226.375	147.8
226.592	-16.04
226.81	-36.52
227.028	37.2
227.246	176.47
227.464	16.73
227.682	57.68
227.9	78.16
228.117	53.59
228.335	47.44
228.553	-7.85
228.771	16.73
228.989	51.54
229.206	4.44
229.424	102.74
229.642	-16.04
229.86	-24.23
230.077	20.82
230.295	35.16
230.513	16.73
230.731	106.84
230.948	102.74
231.166	41.3
231.384	86.36
231.601	69.97
231.819	84.31
232.037	51.54
232.254	8.53
232.472	53.59
232.689	20.82
232.907	61.78
233.125	16.73
233.342	90.45
233.56	20.82
233.777	110.93
233.995	53.59
234.213	141.65
234.43	-11.95
234.648	8.53
234.865	-65.19
235.083	49.49
235.3	31.06
235.518	41.3
235.735	33.11
235.953	41.3
236.17	67.92
236.388	76.12
236.605	45.4
236.822	160.08
237.04	67.92
237.257	63.83
237.475	-40.62
237.692	76.12
237.909	74.07
238.127	139.6
238.344	57.68
238.562	102.74
238.779	14.68
238.996	26.96
239.214	6.49
239.431	59.73
239.648	39.25
239.865	29.01
240.083	31.06
240.3	16.73
240.517	43.35
240.735	51.54
240.952	74.07
241.169	53.59
241.386	67.92
241.603	41.3
241.821	37.2
242.038	98.64
242.255	82.26
242.472	8.53
242.689	10.58
242.907	160.08
243.124	4.44
243.341	-38.57
243.558	65.88
243.775	41.3
243.992	8.53
244.209	78.16
244.426	43.35
244.643	29.01
244.86	59.73
245.078	123.22
245.295	-16.04
245.512	0.34
245.729	0.34
245.946	67.92
246.163	43.35
246.38	57.68
246.597	0.34
246.814	35.16
247.031	29.01
247.248	10.58
247.464	84.31
247.681	63.83
247.898	31.06
248.115	39.25
248.332	35.16
248.549	133.46
248.766	65.88
248.983	94.55
249.2	88.4
249.417	63.83
249.633	37.2
249.85	90.45
250.067	-5.8
250.284	-7.85
250.501	49.49
250.717	65.88
250.934	65.88
251.151	-18.09
251.368	33.11
251.585	45.4
251.801	35.16
252.018	-7.85
252.235	92.5
252.451	37.2
252.668	-1.71
252.885	45.4
253.102	49.49
253.318	49.49
253.535	22.87
253.752	76.12
253.968	4.44
254.185	41.3
254.401	131.41
254.618	43.35
254.835	37.2
255.051	139.6
255.268	67.92
255.484	78.16
255.701	-32.43
255.917	119.12
256.134	8.53
256.351	-3.75
256.567	-54.95
256.784	55.64
257	24.92
257.217	57.68
257.433	90.45
257.65	33.11
257.866	102.74
258.082	4.44
258.299	55.64
258.515	65.88
258.732	33.11
258.948	49.49
259.165	51.54
259.381	74.07
259.597	-11.95
259.814	-40.62
260.03	18.77
260.246	59.73
260.463	37.2
260.679	82.26
260.895	-30.38
261.112	86.36
261.328	24.92
261.544	20.82
261.761	41.3
261.977	-7.85
262.193	45.4
262.409	26.96
262.626	76.12
262.842	92.5
263.058	-24.23
263.274	24.92
263.49	-40.62
263.707	117.08
263.923	147.8
264.139	20.82
264.355	29.01
264.571	-24.23
264.787	47.44
265.004	86.36
265.22	112.98
265.436	18.77
265.652	78.16
265.868	57.68
266.084	41.3
266.3	24.92
266.516	16.73
266.732	-3.75
266.948	-16.04
267.164	4.44
267.38	65.88
267.596	49.49
267.812	53.59
268.028	115.03
268.244	-7.85
268.46	112.98
268.676	8.53
268.892	0.34
269.108	-16.04
269.324	61.78
269.54	10.58
269.756	63.83
269.972	59.73
270.188	33.11
270.403	49.49
270.619	57.68
270.835	63.83
271.051	59.73
271.267	59.73
271.483	41.3
271.698	74.07
271.914	41.3
272.13	90.45
272.346	37.2
272.562	82.26
272.777	74.07
272.993	-30.38
273.209	49.49
273.425	-30.38
273.64	43.35
273.856	96.6
274.072	69.97
274.287	80.21
274.503	57.68
274.719	90.45
274.934	51.54
275.15	-30.38
275.366	16.73
275.581	74.07
275.797	55.64
276.012	82.26
276.228	78.16
276.444	16.73
276.659	82.26
276.875	57.68
277.09	16.73
277.306	108.88
277.521	131.41
277.737	-11.95
277.952	16.73
278.168	37.2
278.383	16.73
278.599	102.74
278.814	0.34
279.03	59.73
279.245	106.84
279.461	94.55
279.676	67.92
279.892	41.3
280.107	-16.04
280.322	16.73
280.538	102.74
280.753	-22.19
280.969	100.69
281.184	18.77
281.399	106.84
281.615	43.35
281.83	12.63
282.045	-20.14
282.26	-7.85
282.476	61.78
282.691	33.11
282.906	41.3
283.122	0.34
283.337	69.97
283.552	-44.71
283.767	-48.81
283.983	63.83
284.198	76.12
284.413	8.53
284.628	16.73
284.843	98.64
285.058	67.92
285.274	84.31
285.489	0.34
285.704	61.78
285.919	84.31
286.134	35.16
286.349	16.73
286.564	20.82
286.779	86.36
286.995	90.45
287.21	43.35
287.425	-7.85
287.64	4.44
287.855	57.68
288.07	43.35
288.285	8.53
288.5	61.78
288.715	76.12
288.93	76.12
289.145	24.92
289.36	106.84
289.575	53.59
289.79	92.5
290.004	-22.19
290.219	102.74
290.434	-7.85
290.649	33.11
290.864	43.35
291.079	33.11
291.294	10.58
291.509	6.49
291.724	82.26
291.938	84.31
292.153	47.44
292.368	39.25
292.583	80.21
292.798	-1.71
293.012	18.77
293.227	117.08
293.442	59.73
293.657	35.16
293.871	39.25
294.086	37.2
294.301	33.11
294.516	125.27
294.73	98.64
294.945	12.63
295.16	53.59
295.374	31.06
295.589	117.08
295.804	24.92
296.018	24.92
296.233	49.49
296.447	43.35
296.662	16.73
296.877	110.93
297.091	108.88
297.306	26.96
297.52	82.26
297.735	106.84
297.949	143.7
298.164	100.69
298.378	74.07
298.593	94.55
298.807	14.68
299.022	6.49
299.236	59.73
299.451	69.97
299.665	78.16
299.88	76.12
300.094	53.59
300.309	78.16
300.523	37.2
300.737	123.22
300.952	55.64
301.166	43.35
301.381	45.4
301.595	65.88
301.809	35.16
302.024	12.63
302.238	8.53
302.452	102.74
302.667	106.84
302.881	74.07
303.095	98.64
303.309	82.26
303.524	108.88
303.738	49.49
303.952	35.16
304.166	43.35
304.381	-54.95
304.595	90.45
304.809	20.82
305.023	43.35
305.237	51.54
305.452	43.35
305.666	100.69
305.88	24.92
306.094	53.59
306.308	20.82
306.522	8.53
306.736	125.27
306.95	139.6
307.164	53.59
307.379	-57
307.593	53.59
307.807	41.3
308.021	74.07
308.235	106.84
308.449	24.92
308.663	94.55
308.877	153.94
309.091	-13.99
309.305	-11.95
309.519	26.96
309.733	59.73
309.947	-22.19
310.161	33.11
310.374	22.87
310.588	67.92
310.802	18.77
311.016	82.26
311.23	74.07
311.444	67.92
311.658	20.82
311.872	74.07
312.085	74.07
312.299	37.2
312.513	145.75
312.727	115.03
312.941	16.73
313.154	82.26
313.368	82.26
313.582	8.53
313.796	135.51
314.009	18.77
314.223	123.22
314.437	20.82
314.651	41.3
314.864	115.03
315.078	76.12
315.292	51.54
315.505	78.16
315.719	53.59
315.933	61.78
316.146	43.35
316.36	45.4
316.573	98.64
316.787	74.07
317.001	123.22
317.214	78.16
317.428	35.16
317.641	65.88
317.855	49.49
318.068	61.78
318.282	57.68
318.495	84.31
318.709	65.88
318.922	53.59
319.136	49.49
319.349	49.49
319.563	-40.62
319.776	94.55
319.99	72.02
320.203	35.16
320.417	117.08
320.63	115.03
320.843	158.03
321.057	16.73
321.27	37.2
321.483	33.11
321.697	51.54
321.91	82.26
322.124	115.03
322.337	65.88
322.55	78.16
322.763	57.68
322.977	67.92
323.19	-7.85
323.403	74.07
323.617	24.92
323.83	102.74
324.043	106.84
324.256	18.77
324.469	31.06
324.683	100.69
324.896	123.22
325.109	90.45
325.322	-5.8
325.535	104.79
325.748	80.21
325.962	43.35
326.175	-7.85
326.388	80.21
326.601	57.68
326.814	65.88
327.027	127.32
327.24	29.01
327.453	-5.8
327.666	78.16
327.879	108.88
328.092	37.2
328.305	10.58
328.518	82.26
328.731	35.16
328.944	53.59
329.157	39.25
329.37	90.45
329.583	125.27
329.796	92.5
330.009	0.34
330.222	49.49
330.435	69.97
330.648	16.73
330.861	69.97
331.073	125.27
331.286	24.92
331.499	102.74
331.712	22.87
331.925	-28.33
332.138	39.25
332.35	82.26
332.563	0.34
332.776	131.41
332.989	16.73
333.202	69.97
333.414	80.21
333.627	16.73
333.84	65.88
334.053	49.49
334.265	57.68
334.478	69.97
334.691	-18.09
334.903	59.73
335.116	37.2
335.329	43.35
335.541	108.88
335.754	98.64
335.966	94.55
336.179	33.11
336.392	20.82
336.604	45.4
336.817	67.92
337.029	78.16
337.242	102.74
337.454	76.12
337.667	74.07
337.88	16.73
338.092	49.49
338.305	98.64
338.517	-5.8
338.729	123.22
338.942	135.51
339.154	61.78
339.367	-28.33
339.579	82.26
339.792	10.58
340.004	76.12
340.217	-13.99
340.429	102.74
340.641	86.36
340.854	10.58
341.066	24.92
341.278	98.64
341.491	131.41
341.703	61.78
341.915	16.73
342.128	69.97
342.34	65.88
342.552	43.35
342.764	41.3
342.977	49.49
343.189	67.92
343.401	26.96
343.613	67.92
343.826	133.46
344.038	45.4
344.25	2.39
344.462	100.69
344.674	33.11
344.886	8.53
345.099	78.16
345.311	18.77
345.523	51.54
345.735	-5.8
345.947	67.92
346.159	72.02
346.371	53.59
346.583	94.55
346.795	117.08
347.007	94.55
347.219	37.2
347.431	16.73
347.643	108.88
347.855	84.31
348.067	74.07
348.279	35.16
348.491	51.54
348.703	-11.95
348.915	41.3
349.127	12.63
349.339	20.82
349.551	41.3
349.763	51.54
349.975	57.68
350.187	86.36
350.399	125.27
350.61	16.73
350.822	76.12
351.034	110.93
351.246	61.78
351.458	43.35
351.669	90.45
351.881	94.55
352.093	51.54
352.305	33.11
352.517	78.16
352.728	106.84
352.94	65.88
353.152	65.88
353.363	33.11
353.575	55.64
353.787	82.26
353.999	-32.43
354.21	72.02
354.422	20.82
354.633	29.01
354.845	41.3
355.057	37.2
355.268	69.97
355.48	88.4
355.692	41.3
355.903	53.59
356.115	24.92
356.326	16.73
356.538	139.6
356.749	18.77
356.961	45.4
357.172	16.73
357.384	65.88
357.595	155.99
357.807	24.92
358.018	22.87
358.23	76.12
358.441	84.31
358.653	133.46
358.864	35.16
359.075	-32.43
359.287	59.73
359.498	92.5
359.709	108.88
359.921	106.84
360.132	78.16
360.344	69.97
360.555	63.83
360.766	123.22
360.977	0.34
361.189	67.92
361.4	20.82
361.611	47.44
361.823	86.36
362.034	57.68
362.245	69.97
362.456	65.88
362.667	80.21
362.879	59.73
363.09	82.26
363.301	135.51
363.512	63.83
363.723	61.78
363.935	67.92
364.146	57.68
364.357	47.44
364.568	92.5
364.779	2.39
364.99	41.3
365.201	16.73
365.412	59.73
365.623	12.63
365.834	78.16
366.045	49.49
366.256	100.69
366.467	78.16
366.678	-16.04
366.889	16.73
367.1	76.12
367.311	4.44
367.522	82.26
367.733	61.78
367.944	55.64
368.155	51.54
368.366	78.16
368.577	18.77
368.788	123.22
368.999	8.53
369.209	0.34
369.42	61.78
369.631	160.08
369.842	123.22
370.053	10.58
370.264	100.69
370.474	12.63
370.685	41.3
370.896	65.88
371.107	104.79
371.317	49.49
371.528	65.88
371.739	57.68
371.95	65.88
372.16	98.64
372.371	-32.43
372.582	59.73
372.792	35.16
373.003	26.96
373.214	-1.71
373.424	110.93
373.635	39.25
373.846	84.31
374.056	57.68
374.267	26.96
374.477	-11.95
374.688	90.45
374.898	106.84
375.109	86.36
375.319	117.08
375.53	98.64
375.74	49.49
375.951	31.06
376.161	90.45
376.372	166.23
376.582	76.12
376.793	82.26
377.003	49.49
377.214	100.69
377.424	78.16
377.635	65.88
377.845	76.12
378.055	33.11
378.266	-28.33
378.476	57.68
378.686	117.08
378.897	49.49
379.107	108.88
379.317	53.59
379.528	61.78
379.738	155.99
379.948	8.53
380.158	61.78
380.369	82.26
380.579	86.36
380.789	2.39
380.999	37.2
381.21	123.22
381.42	49.49
381.63	65.88
381.84	49.49
382.05	117.08
382.261	82.26
382.471	-11.95
382.681	0.34
382.891	88.4
383.101	127.32
383.311	-20.14
383.521	8.53
383.731	96.6
383.941	108.88
384.151	49.49
384.361	108.88
384.571	45.4
384.781	164.18
384.991	137.56
385.201	158.03
385.411	127.32
385.621	104.79
385.831	57.68
386.041	2.39
386.251	29.01
386.461	35.16
386.671	24.92
386.881	24.92
387.091	63.83
387.301	108.88
387.511	166.23
387.72	78.16
387.93	117.08
388.14	41.3
388.35	49.49
388.56	69.97
388.769	69.97
388.979	74.07
389.189	131.41
389.399	-16.04
389.609	29.01
389.818	53.59
390.028	24.92
390.238	69.97
390.447	76.12
390.657	133.46
390.867	-40.62
391.076	18.77
391.286	20.82
391.496	65.88
391.705	106.84
391.915	145.75
392.125	104.79
392.334	108.88
392.544	133.46
392.753	26.96
392.963	8.53
393.172	51.54
393.382	39.25
393.591	143.7
393.801	131.41
394.01	127.32
394.22	129.36
394.429	98.64
394.639	10.58
394.848	178.51
395.058	53.59
395.267	117.08
395.477	90.45
395.686	98.64
395.895	82.26
396.105	115.03
396.314	61.78
396.524	57.68
396.733	29.01
396.942	86.36
397.152	82.26
397.361	98.64
397.57	74.07
397.78	49.49
397.989	49.49
398.198	172.37
398.407	131.41
398.617	102.74
398.826	117.08
399.035	49.49
399.244	74.07
399.453	98.64
399.663	61.78
399.872	143.7
400.081	43.35
400.29	117.08
400.499	69.97
400.708	147.8
400.917	90.45
401.127	59.73
401.336	59.73
401.545	65.88
401.754	115.03
401.963	172.37
402.172	57.68
402.381	84.31
402.59	98.64
402.799	123.22
403.008	180.56
403.217	96.6
403.426	166.23
403.635	51.54
403.844	125.27
404.053	102.74
404.262	43.35
404.471	149.84
404.68	69.97
404.888	174.42
405.097	98.64
405.306	108.88
405.515	188.75
405.724	164.18
405.933	192.85
406.142	139.6
406.35	201.04
406.559	172.37
406.768	110.93
406.977	190.8
407.185	151.89
407.394	82.26
407.603	160.08
407.812	188.75
408.02	221.52
408.229	219.47
408.438	158.03
408.646	94.55
408.855	186.71
409.064	270.67
409.272	135.51
409.481	213.33
409.69	231.76
409.898	176.47
410.107	248.15
410.315	225.62
410.524	174.42
410.733	336.21
410.941	217.43
411.15	278.87
411.358	344.4
411.567	371.02
411.775	352.59
411.984	295.25
412.192	385.36
412.401	354.64
412.609	360.78
412.818	459.09
413.026	393.55
413.234	461.13
413.443	354.64
413.651	409.94
413.86	469.33
414.068	477.52
414.276	452.94
414.485	450.89
414.693	498
414.901	528.72
415.11	514.38
415.318	520.53
415.526	508.24
415.734	606.54
415.943	581.96
416.151	590.16
416.359	598.35
416.567	690.51
416.776	696.65
416.984	696.65
417.192	813.38
417.4	753.99
417.608	749.9
417.817	715.08
418.025	856.39
418.233	901.45
418.441	721.23
418.649	739.66
418.857	958.79
419.065	1024.33
419.273	928.07
419.481	969.03
419.689	1036.61
419.897	1020.23
420.105	983.37
420.313	1196.36
420.521	1132.87
420.729	1231.17
420.937	1268.03
421.145	1147.2
421.353	1372.48
421.561	1448.26
421.769	1433.92
421.977	1493.31
422.185	1509.69
422.393	1630.52
422.601	1726.78
422.809	1593.66
423.017	1620.28
423.224	1712.44
423.432	1794.36
423.64	1737.02
423.848	1935.67
424.056	1767.74
424.263	2009.4
424.471	2050.36
424.679	2013.49
424.887	2134.32
425.094	2203.96
425.302	2234.68
425.51	2214.2
425.718	2335.03
425.925	2451.76
426.133	2457.9
426.341	2720.04
426.548	2795.82
426.756	2744.62
426.964	2838.83
427.171	2955.56
427.379	2961.7
427.586	2892.07
427.794	3195.17
428.001	3313.95
428.209	3416.35
428.417	3533.09
428.624	3758.36
428.832	3719.45
429.039	3567.9
429.247	3703.07
429.454	3967.26
429.662	4253.97
429.869	3969.3
430.076	4278.55
430.284	4172.05
430.491	4184.34
430.699	4526.35
430.906	4440.34
431.114	4647.18
431.321	4612.37
431.528	4727.05
431.736	5120.26
431.943	5357.83
432.15	5220.61
432.358	5247.24
432.565	5599.49
432.772	5513.47
432.979	5839.1
433.187	5826.81
433.394	5814.52
433.601	6400.24
433.808	6430.96
434.016	6293.75
434.223	6533.36
434.43	6936.81
434.637	6842.6
434.844	7336.17
435.052	7381.22
435.259	7340.26
435.466	7446.76
435.673	7274.73
435.88	7778.53
436.087	8233.18
436.294	8155.35
436.501	8003.8
436.708	8270.04
436.915	8358.1
437.122	8779.98
437.329	8818.89
437.537	9134.28
437.743	9457.86
437.95	9273.54
438.157	9605.31
438.364	9814.21
438.571	9918.65
438.778	10084.54
438.985	10782.9
439.192	10592.44
439.399	10830
439.606	10399.93
439.813	11305.13
440.02	11980.96
440.227	11479.21
440.433	11460.77
440.64	11960.48
440.847	11808.93
441.054	12267.67
441.261	13009.04
441.467	12841.11
441.674	13168.78
441.881	13420.68
442.088	13314.19
442.294	13361.29
442.501	13635.72
442.708	14024.83
442.914	14395.51
443.121	15147.12
443.328	14645.37
443.534	15538.28
443.741	15194.22
443.948	14940.27
444.154	16214.11
444.361	16074.85
444.568	15865.96
444.774	16031.84
444.981	16250.97
445.187	16787.54
445.394	17526.86
445.6	17047.63
445.807	19032.11
446.013	17961.03
446.22	18358.33
446.426	19044.4
446.633	19431.47
446.839	20080.67
447.046	18907.19
447.252	20164.64
447.459	20144.16
447.665	20144.16
447.871	20908.05
448.078	22048.77
448.284	20793.37
448.491	21723.15
448.697	22462.46
448.903	22650.88
449.11	23005.17
449.316	22360.06
449.522	22949.88
449.728	23394.29
449.935	23447.54
450.141	23203.83
450.347	24018.92
450.553	23422.96
450.76	23613.42
450.966	24430.56
451.172	24149.99
451.378	24772.57
451.584	24381.41
451.791	25061.33
451.997	24813.53
452.203	25249.75
452.409	25491.41
452.615	25100.25
452.821	24420.32
453.027	23793.64
453.233	25104.34
453.44	24154.08
453.646	24551.39
453.852	24877.02
454.058	25149.4
454.264	24242.15
454.47	25184.21
454.676	24377.31
454.882	25075.67
455.088	23017.46
455.294	23244.79
455.5	23588.85
455.705	23732.2
455.911	23113.72
456.117	22364.16
456.323	22464.51
456.529	20987.93
456.735	22040.58
456.941	21485.58
457.147	21217.3
457.352	20580.38
457.558	20537.37
457.764	20359.2
457.97	20252.7
458.176	19626.03
458.381	19456.04
458.587	18563.13
458.793	18614.33
458.999	17715.27
459.204	19277.87
459.41	18382.91
459.616	17084.5
459.821	17279.05
460.027	16965.71
460.233	16783.45
460.438	16240.73
460.644	16189.53
460.85	15505.51
461.055	15081.58
461.261	15179.89
461.466	14354.55
461.672	13703.3
461.878	14395.51
462.083	13844.61
462.289	13353.1
462.494	13455.5
462.7	12705.94
462.905	12365.98
463.111	12767.38
463.316	12802.19
463.522	12462.23
463.727	12607.64
463.932	12564.63
464.138	12413.08
464.343	12552.34
464.549	12216.47
464.754	12306.59
464.959	12507.29
465.165	12042.4
465.37	11831.46
465.575	11348.14
465.781	11896.99
465.986	11671.72
466.191	11532.45
466.397	11280.55
466.602	10834.1
466.807	11157.68
467.012	11124.91
467.218	11190.44
467.423	10905.77
467.628	11141.29
467.833	11339.94
468.038	11088.04
468.244	10703.03
468.449	11083.95
468.654	10705.07
468.859	10848.43
469.064	10494.13
469.269	10430.65
469.474	10344.63
469.679	10737.84
469.885	10381.49
470.09	10393.78
470.295	10240.19
470.5	10035.39
470.705	10125.5
470.91	9969.85
471.115	9916.61
471.32	10158.27
471.525	9859.26
471.73	9695.43
471.935	9525.44
472.139	9494.72
472.344	9298.12
472.549	9472.2
472.754	9156.81
472.959	9175.24
473.164	8814.8
473.369	8906.96
473.574	9216.2
473.778	9089.23
473.983	8870.09
474.188	8984.78
474.393	8558.8
474.598	8511.7
474.802	8339.67
475.007	8413.4
475.212	8362.2
475.417	8222.94
475.621	8089.82
475.826	8122.59
476.031	8087.77
476.235	7856.35
476.44	8251.61
476.645	7692.51
476.849	7862.49
477.054	7678.18
477.259	7454.95
477.463	7647.46
477.668	7168.23
477.872	7538.91
478.077	7309.54
478.282	7198.95
478.486	7219.43
478.691	7035.11
478.895	7104.74
479.1	6957.29
479.304	7098.6
479.509	6904.04
479.713	6996.2
479.918	7033.07
480.122	6777.07
480.326	6734.06
480.531	6746.35
480.735	6652.14
480.94	6709.49
481.144	7028.97
481.348	6580.46
481.553	6717.68
481.757	6506.74
481.961	6729.97
482.166	6738.16
482.37	6537.46
482.574	6490.35
482.778	6594.8
482.983	6799.6
483.187	6529.27
483.391	6578.42
483.595	6400.24
483.8	6414.58
484.004	6494.45
484.208	6559.99
484.412	6553.84
484.616	6521.07
484.821	6357.24
485.025	6275.32
485.229	6590.7
485.433	6453.49
485.637	6588.66
485.841	6408.44
486.045	6385.91
486.249	6580.46
486.453	6428.92
486.657	6478.07
486.861	6537.46
487.065	6222.07
487.269	6461.68
487.473	6316.28
487.677	6553.84
487.881	6715.63
488.085	6422.77
488.289	6519.03
488.493	6686.96
488.697	6492.4
488.901	6613.23
489.105	6492.4
489.309	6635.76
489.512	6660.34
489.716	6533.36
489.92	6594.8
490.124	6508.79
490.328	6856.94
490.531	6654.19
490.735	6572.27
490.939	6697.2
491.143	6750.45
491.346	6670.58
491.55	6834.41
491.754	6770.93
491.958	6996.2
492.161	6828.27
492.365	6842.6
492.569	6750.45
492.772	6815.98
492.976	7069.93
493.18	6883.56
493.383	7119.08
493.587	6983.91
493.79	7035.11
493.994	7082.22
494.197	7217.38
494.401	7540.96
494.605	7201
494.808	7436.52
495.012	7141.61
495.215	7375.08
495.419	7465.19
495.622	7219.43
495.825	7559.39
496.029	7661.79
496.232	7739.62
496.436	7891.16
496.639	7950.56
496.843	7688.42
497.046	8155.35
497.249	8104.15
497.453	8052.95
497.656	8061.15
497.859	8243.42
498.063	8290.52
498.266	8511.7
498.469	8454.36
498.673	8509.65
498.876	8550.61
499.079	8757.46
499.282	8716.5
499.485	9001.16
499.689	8870.09
499.892	8892.62
500.095	9021.64
500.298	9261.26
500.501	9240.78
500.705	9605.31
500.908	9502.92
501.111	9687.23
501.314	9824.45
501.517	9961.66
501.72	10002.62
501.923	10002.62
502.126	10344.63
502.329	10422.45
502.532	10502.33
502.735	10430.65
502.938	10746.03
503.141	10559.67
503.344	10637.49
503.547	10954.93
503.75	11163.82
503.953	11081.9
504.156	11255.98
504.359	11442.34
504.562	11151.53
504.765	11825.31
504.968	12046.49
505.17	11896.99
505.373	11698.34
505.576	12042.4
505.779	12206.24
505.982	12363.93
506.185	12558.49
506.387	12400.79
506.59	12832.91
506.793	13035.66
506.996	12966.03
507.198	13269.13
507.401	13254.8
507.604	13359.24
507.807	13631.62
508.009	13535.37
508.212	13695.11
508.415	13846.66
508.617	13979.78
508.82	14239.87
509.022	14162.05
509.225	14602.36
509.428	14751.86
509.63	14848.11
509.833	15026.29
510.035	15296.62
510.238	15249.52
510.44	15294.57
510.643	15505.51
510.845	15806.56
511.048	15771.75
511.25	15822.95
511.453	16005.22
511.655	16515.16
511.858	16373.85
512.06	16326.75
512.262	16838.74
512.465	16582.74
512.667	16812.12
512.87	17045.59
513.072	17322.06
513.274	17621.06
513.477	17590.34
513.679	17719.37
513.881	17913.92
514.084	18010.18
514.286	18368.57
514.488	18399.29
514.69	18602.04
514.893	18726.97
515.095	18833.46
515.297	19406.89
515.499	19079.22
515.701	19114.03
515.904	19775.53
516.106	20103.2
516.308	20054.05
516.51	19908.65
516.712	20271.14
516.914	20287.52
517.116	20590.62
517.318	20604.95
517.52	21112.85
517.722	20989.97
517.925	21135.38
518.127	21485.58
518.329	21489.68
518.531	21688.33
518.733	22167.56
518.935	21970.95
519.136	21899.27
519.338	22331.39
519.54	22593.53
519.742	22677.5
519.944	22728.7
520.146	23212.02
520.348	23201.78
520.55	23406.58
520.752	23629.8
520.954	23988.2
521.155	23748.59
521.357	24195.04
521.559	24418.27
521.761	24762.33
521.963	24469.47
522.164	24807.39
522.366	24774.62
522.568	24979.42
522.77	25219.03
522.971	25536.46
523.173	25468.88
523.375	25894.86
523.576	25755.6
523.778	25589.71
523.98	26046.41
524.181	26040.26
524.383	26281.92
524.584	26662.85
524.786	26621.89
524.988	26558.4
525.189	26613.7
525.391	27457.46
525.592	26863.55
525.794	26843.07
525.995	27353.01
526.197	27213.75
526.398	27545.52
526.6	27541.43
526.801	27604.91
527.003	27797.42
527.204	27803.57
527.406	28196.78
527.607	28102.57
527.808	28268.45
528.01	27869.1
528.211	28342.18
528.412	28506.02
528.614	28377
528.815	28270.5
529.016	28616.61
529.218	28559.27
529.419	28528.55
529.62	28757.92
529.822	28860.32
530.023	28598.18
530.224	29040.54
530.425	28956.57
530.626	28747.68
530.828	28495.78
531.029	29362.07
531.23	28915.61
531.431	28835.74
531.632	28850.08
531.833	28848.03
532.035	29128.6
532.236	29155.22
532.437	29499.28
532.638	28940.19
532.839	29310.87
533.04	29335.45
533.241	29284.25
533.442	29431.7
533.643	29390.74
533.844	29265.81
534.045	29366.17
534.246	29122.46
534.447	29452.18
534.648	29286.29
534.849	29317.01
535.05	29155.22
535.251	29259.67
535.451	29226.9
535.652	29409.17
535.853	29190.04
536.054	29413.27
536.255	29200.28
536.456	29396.88
536.657	29530
536.857	29364.12
537.058	29044.63
537.259	29427.6
537.46	29452.18
537.66	29554.58
537.861	29646.74
538.062	29210.52
538.263	29368.21
538.463	29300.63
538.664	29159.32
538.865	29265.81
539.065	29499.28
539.266	29022.11
539.466	29478.8
539.667	28999.58
539.868	29239.19
540.068	29247.38
540.269	29228.95
540.469	29271.96
540.67	29202.33
540.87	29093.79
541.071	29036.44
541.271	29138.84
541.472	29151.13
541.672	29126.55
541.873	28821.41
542.073	28743.58
542.274	29167.51
542.474	29310.87
542.675	29003.67
542.875	29368.21
543.075	29151.13
543.276	28925.85
543.476	29357.97
543.676	29061.02
543.877	29140.89
544.077	28938.14
544.277	28739.49
544.478	28893.08
544.678	29314.97
544.878	29179.8
545.078	29374.36
545.279	28776.35
545.479	28934.04
545.679	29030.3
545.879	28837.79
546.079	29079.45
546.28	28913.56
546.48	28932
546.68	28823.45
546.88	28950.43
547.08	29198.23
547.28	28909.47
547.48	28635.04
547.68	29171.61
547.88	28813.21
548.081	28784.54
548.281	28782.49
548.481	29079.45
548.681	29138.84
548.881	28829.6
549.081	28684.19
549.28	28960.67
549.48	29018.01
549.68	28743.58
549.88	28858.27
550.08	28299.17
550.28	28776.35
550.48	28614.56
550.68	28645.28
550.88	28436.39
551.08	28465.06
551.279	28776.35
551.479	28063.66
551.679	28757.92
551.879	28587.94
552.079	28821.41
552.278	28413.86
552.478	28604.32
552.678	28250.02
552.878	28815.26
553.077	28305.32
553.277	28575.65
553.477	28854.17
553.676	28690.34
553.876	28751.77
554.076	28235.69
554.275	28225.45
554.475	28405.67
554.674	28530.59
554.874	28471.2
555.074	28219.3
555.273	28327.85
555.473	28518.31
555.672	28143.53
555.872	28465.06
556.071	28342.18
556.271	28415.91
556.47	28229.54
556.67	27862.96
556.869	27996.07
557.068	28153.77
557.268	27680.69
557.467	27723.69
557.667	28182.44
557.866	27836.33
558.065	27826.09
558.265	27406.26
558.464	27496.37
558.663	27910.06
558.863	27678.64
559.062	28227.49
559.261	27713.45
559.461	27815.85
559.66	27465.65
559.859	27357.11
560.058	27705.26
560.258	27522.99
560.457	27285.43
560.656	27711.41
560.855	27508.66
561.054	27592.62
561.253	27086.78
561.453	27262.9
561.652	27412.4
561.851	27271.09
562.05	27379.64
562.249	27174.84
562.448	27236.28
562.647	27076.54
562.846	27019.19
563.045	27039.67
563.244	26808.25
563.443	27310
563.642	26517.44
563.841	26922.94
564.04	26650.56
564.239	26951.61
564.438	26476.48
564.637	26513.34
564.836	26472.39
565.035	26277.83
565.234	26388.42
565.432	26107.85
565.631	26421.19
565.83	26324.93
566.029	26294.21
566.228	26574.78
566.427	26124.23
566.625	26140.61
566.824	25855.95
567.023	26146.76
567.222	25638.86
567.42	26056.65
567.619	25845.71
567.818	25860.04
568.016	25972.68
568.215	25929.67
568.414	25737.16
568.612	25825.23
568.811	25561.04
569.01	25483.22
569.208	25296.85
569.407	25565.14
569.605	24985.56
569.804	25589.71
570.002	25354.19
570.201	25212.88
570.4	25221.08
570.598	24913.88
570.797	25022.42
570.995	24991.7
571.193	24729.56
571.392	24915.93
571.59	24297.44
571.789	24727.52
571.987	24666.08
572.186	24717.28
572.384	24625.12
572.582	24158.18
572.781	24547.29
572.979	23881.7
573.177	24565.73
573.376	24317.92
573.574	24311.78
573.772	24477.66
573.971	24289.25
574.169	23943.14
574.367	23754.73
574.565	24094.69
574.763	23668.72
574.962	23537.65
575.16	23400.43
575.358	23818.22
575.556	23898.09
575.754	23486.45
575.952	23445.49
576.151	23664.62
576.349	23468.02
576.547	23238.64
576.745	23562.22
576.943	23148.53
577.141	23427.06
577.339	23312.37
577.537	23209.97
577.735	23201.78
577.933	22974.45
578.131	22874.1
578.329	22859.77
578.527	22827
578.725	23134.2
578.923	22992.89
579.121	22681.6
579.319	22597.63
579.516	22695.93
579.714	22548.48
579.912	22548.48
580.11	22315.01
580.308	22282.24
580.506	22421.5
580.704	21749.77
580.901	22280.19
581.099	22515.71
581.297	21811.21
581.495	21856.26
581.692	22126.6
581.89	21805.06
582.088	22063.11
582.285	21710.86
582.483	21770.25
582.681	21766.15
582.878	21504.01
583.076	21467.15
583.274	21628.94
583.471	21274.64
583.669	21520.4
583.866	21395.47
584.064	21362.7
584.262	21032.98
584.459	21129.23
584.657	21020.69
584.854	21483.53
585.052	20942.87
585.249	21114.9
585.447	20733.98
585.644	20697.11
585.841	20865.05
586.039	20891.67
586.236	20662.3
586.434	20523.04
586.631	20643.87
586.828	20600.86
587.026	20471.84
587.223	20414.49
587.42	20512.8
587.618	20564
587.815	20178.98
588.012	20148.26
588.21	20041.76
588.407	20303.9
588.604	20172.83
588.801	19773.48
588.999	19855.4
589.196	19707.94
589.393	19791.91
589.59	19937.32
589.787	19918.89
589.984	19636.27
590.182	19474.48
590.379	19415.09
590.576	19363.89
590.773	19542.06
590.97	19312.69
591.167	19589.16
591.364	19128.37
591.561	19142.71
591.758	19327.02
591.955	19075.12
592.152	19179.57
592.349	19171.38
592.546	19128.37
592.743	18939.96
592.94	18724.92
593.137	18888.76
593.334	19028.02
593.531	18686.01
593.727	18735.16
593.924	18567.23
594.121	18612.28
594.318	18577.47
594.515	18477.12
594.712	18409.53
594.908	18348.09
595.105	18415.68
595.302	17973.32
595.499	18368.57
595.696	18038.85
595.892	17991.75
596.089	18102.34
596.286	17915.97
596.482	18067.52
596.679	17911.88
596.876	17969.22
597.072	17639.5
597.269	17596.49
597.466	17670.22
597.662	17612.87
597.859	17590.34
598.055	17446.99
598.252	17354.83
598.448	17608.78
598.645	17473.61
598.841	17117.26
599.038	17197.13
599.234	17340.49
599.431	17156.18
599.627	17145.94
599.824	16973.91
600.02	16853.08
600.217	16941.14
600.413	16994.39
600.609	16730.2
600.806	16797.78
601.002	16562.26
601.198	16683.09
601.395	16679
601.591	16674.9
601.787	16500.83
601.984	16609.37
602.18	16527.45
602.376	16435.29
602.572	16392.28
602.769	16408.67
602.965	16343.13
603.161	16396.38
603.357	15808.61
603.553	16154.72
603.75	16238.69
603.946	16023.65
604.142	15923.3
604.338	15853.67
604.534	15743.08
604.73	15546.47
604.926	15779.94
605.122	15673.45
605.318	15741.03
605.514	15589.48
605.71	15554.66
605.906	15544.42
606.102	15614.06
606.298	15515.75
606.494	15525.99
606.69	15556.71
606.886	15720.55
607.082	15067.25
607.278	15243.37
607.474	15044.72
607.67	15048.82
607.866	14792.82
608.062	15413.35
608.257	15171.69
608.453	15130.73
608.649	15255.66
608.845	14854.26
609.041	14942.32
609.236	14880.88
609.432	14821.49
609.628	14696.57
609.824	14776.44
610.019	14547.06
610.215	14837.87
610.411	14964.85
610.606	14391.42
610.802	14860.4
610.998	14583.93
611.193	14889.07
611.389	14663.8
611.584	14499.96
611.78	14358.65
611.976	14397.56
612.171	14581.88
612.367	14577.78
612.562	14528.63
612.758	14276.73
612.953	14182.52
613.149	14671.99
613.344	14168.19
613.539	14344.31
613.735	14182.52
613.93	14262.4
614.126	14045.31
614.321	14323.83
614.517	14174.33
614.712	14225.53
614.907	14131.33
615.103	14303.36
615.298	13869.19
615.493	14065.79
615.688	13516.94
615.884	13889.67
616.079	13547.65
616.274	13904
616.47	13854.85
616.665	13856.9
616.86	13631.62
617.055	13672.58
617.25	13459.59
617.445	13633.67
617.641	13613.19
617.836	13539.46
618.031	13334.67
618.226	13527.17
618.421	13590.66
618.616	13635.72
618.811	13342.86
619.006	13691.01
619.201	13070.48
619.396	13408.39
619.591	13332.62
619.786	13283.47
619.981	12996.75
620.176	13226.12
620.371	12837.01
620.566	12904.59
620.761	12726.42
620.956	13224.08
621.151	12658.84
621.346	12767.38
621.541	12634.26
621.735	12603.54
621.93	12466.33
622.125	12595.35
622.32	12279.96
622.515	12550.29
622.709	12144.8
622.904	12380.31
623.099	12501.14
623.294	11843.74
623.488	12169.37
623.683	12001.44
623.878	11989.15
624.072	11866.27
624.267	11823.26
624.462	11718.82
624.656	11686.05
624.851	11554.98
625.046	11526.31
625.24	11471.01
625.435	11485.35
625.629	11624.61
625.824	11178.15
626.018	11317.42
626.213	10825.9
626.407	11086
626.602	10989.74
626.796	10944.69
626.991	11028.65
627.185	10836.14
627.38	10653.87
627.574	10625.2
627.768	10633.4
627.963	10514.61
628.157	10518.71
628.352	10666.16
628.546	10299.58
628.74	10526.9
628.935	10348.73
629.129	10242.23
629.323	10379.45
629.517	10324.15
629.712	10191.03
629.906	10180.79
630.1	10025.15
630.294	10021.05
630.489	9896.13
630.683	10109.12
630.877	9709.76
631.071	9935.04
631.265	9898.17
631.459	9572.55
631.653	9578.69
631.848	9756.86
632.042	9736.38
632.236	9507.01
632.43	9382.09
632.624	9380.04
632.818	9353.41
633.012	9273.54
633.206	9396.42
633.4	9156.81
633.594	9117.9
633.788	9070.79
633.982	9093.32
634.176	8929.49
634.369	9101.51
634.563	8724.69
634.757	8868.05
634.951	8929.49
635.145	8954.06
635.339	8898.77
635.533	8845.52
635.726	8593.62
635.92	8669.39
636.114	8587.47
636.308	8423.64
636.501	8470.74
636.695	8509.65
636.889	8544.47
637.083	8274.14
637.276	8306.9
637.47	8220.89
637.664	8300.76
637.857	8374.49
638.051	8157.4
638.244	8128.73
638.438	7948.51
638.632	7948.51
638.825	8028.38
639.019	7948.51
639.212	7667.94
639.406	7921.88
639.599	7856.35
639.793	7880.93
639.986	7678.18
640.18	7598.31
640.373	7645.41
640.567	7622.88
640.76	7524.58
640.954	7575.78
641.147	7401.7
641.34	7510.24
641.534	7485.67
641.727	7397.6
641.92	7573.73
642.114	7266.53
642.307	7284.97
642.5	7080.17
642.694	7192.81
642.887	7016.68
643.08	7198.95
643.273	6988.01
643.467	6940.91
643.66	6942.96
643.853	6777.07
644.046	7022.83
644.239	6807.79
644.432	6852.84
644.626	6777.07
644.819	6775.02
645.012	6856.94
645.205	6869.23
645.398	6699.25
645.591	6707.44
645.784	6602.99
645.977	6549.75
646.17	6453.49
646.363	6465.78
646.556	6381.81
646.749	6484.21
646.942	6510.83
647.135	6265.08
647.328	6275.32
647.521	6152.44
647.714	6134.01
647.907	6144.25
648.099	6205.69
648.292	6361.33
648.485	6119.67
648.678	6025.47
648.871	6029.56
649.064	5972.22
649.256	5925.11
649.449	6007.03
649.642	5980.41
649.835	5832.96
650.027	5888.25
650.22	6013.18
650.413	5738.75
650.605	5935.35
650.798	5777.66
650.991	5624.06
651.183	5671.17
651.376	5660.93
651.568	5669.12
651.761	5564.67
651.954	5515.52
652.146	5603.58
652.339	5595.39
652.531	5476.61
652.724	5529.86
652.916	5351.68
653.109	5345.54
653.301	5433.6
653.494	5507.33
653.686	5181.7
653.879	5292.29
654.071	5224.71
654.263	5202.18
654.456	5337.35
654.648	5261.57
654.84	5157.13
655.033	5136.65
655.225	5138.69
655.417	5048.58
655.61	5142.79
655.802	4935.95
655.994	5056.78
656.186	4995.34
656.379	5026.06
656.571	4825.36
656.763	4884.75
656.955	4913.42
657.148	4995.34
657.34	4888.84
657.532	4718.86
657.724	4671.76
657.916	4720.91
658.108	4745.48
658.3	4659.47
658.492	4716.81
658.684	4573.46
658.876	4636.94
659.068	4595.98
659.26	4524.3
659.452	4475.15
659.644	4512.02
659.836	4475.15
660.028	4552.98
660.22	4370.71
660.412	4428.05
660.604	4430.1
660.796	4352.27
660.988	4362.51
661.18	4354.32
661.372	4296.98
661.563	4268.31
661.755	4266.26
661.947	4350.23
662.139	4391.19
662.331	4227.35
662.522	4206.87
662.714	4104.47
662.906	4182.29
663.097	4159.77
663.289	4102.42
663.481	4067.61
663.673	4247.83
663.864	4022.55
664.056	4014.36
664.247	3938.59
664.439	4053.27
664.631	3914.01
664.822	4038.94
665.014	3973.4
665.205	3944.73
665.397	3776.8
665.588	3987.74
665.78	3895.58
665.971	3844.38
666.163	4000.02
666.354	3705.12
666.546	3768.6
666.737	3719.45
666.929	3731.74
667.12	3846.43
667.311	3809.56
667.503	3694.88
667.694	3723.55
667.885	3717.4
668.077	3719.45
668.268	3668.25
668.459	3612.96
668.651	3725.6
668.842	3572
669.033	3625.25
669.224	3506.46
669.416	3678.49
669.607	3612.96
669.798	3440.93
669.989	3563.81
670.18	3590.43
670.371	3379.49
670.563	3393.83
670.754	3440.93
670.945	3494.18
671.136	3383.59
671.327	3371.3
671.518	3455.26
671.709	3393.83
671.9	3383.59
672.091	3393.83
672.282	3240.23
672.473	3399.97
672.664	3260.71
672.855	3334.43
673.046	3397.92
673.237	3481.89
673.428	3352.87
673.619	3244.32
673.809	3285.28
674	3363.11
674.191	3385.63
674.382	3213.6
674.573	3166.5
674.764	3189.03
674.954	3203.36
675.145	3244.32
675.336	3076.39
675.527	3221.8
675.717	3229.99
675.908	3088.68
676.099	2984.23
676.289	3060.01
676.48	3324.19
676.671	3127.59
676.861	3160.36
677.052	3182.88
677.243	3039.53
677.433	3000.62
677.624	3100.97
677.814	3031.34
678.005	3078.44
678.195	3111.21
678.386	3035.43
678.576	3004.71
678.767	2984.23
678.957	3080.49
679.148	3080.49
679.338	3047.72
679.529	2908.46
679.719	3025.19
679.909	2996.52
680.1	2918.7
680.29	3086.63
680.481	3096.87
680.671	3103.01
680.861	2922.79
681.052	2937.13
681.242	3000.62
681.432	2965.8
681.622	3023.14
681.813	2849.07
682.003	2933.03
682.193	2916.65
682.383	2965.8
682.573	2957.61
682.764	2965.8
682.954	3117.35
683.144	2916.65
683.334	2910.5
683.524	2935.08
683.714	2894.12
683.904	2924.84
684.094	2873.64
684.284	2793.77
684.474	2986.28
684.664	2924.84
684.854	2976.04
685.044	2801.96
685.234	2906.41
685.424	2789.67
685.614	2818.35
685.804	2908.46
685.994	2793.77
686.184	2801.96
686.374	2828.59
686.564	2896.17
686.753	2812.2
686.943	2631.98
687.133	2724.14
687.323	2705.71
687.513	2685.23
687.702	2761
687.892	2752.81
688.082	2724.14
688.272	2672.94
688.461	2625.84
688.651	2677.04
688.841	2670.89
689.03	2615.6
689.22	2670.89
689.41	2580.78
689.599	2625.84
689.789	2490.67
689.979	2531.63
690.168	2527.53
690.358	2535.73
690.547	2435.38
690.737	2523.44
690.926	2507.06
691.116	2478.38
691.305	2541.87
691.495	2474.29
691.684	2441.52
691.874	2470.19
692.063	2421.04
692.252	2519.34
692.442	2531.63
692.631	2457.9
692.82	2386.22
693.01	2263.35
693.199	2218.29
693.388	2359.6
693.578	2285.87
693.767	2224.44
693.956	2206
694.146	2232.63
694.335	2163
694.524	2296.11
694.713	2361.65
694.902	2195.76
695.092	2236.72
695.281	2220.34
695.47	2130.23
695.659	2294.07
695.848	2226.48
696.037	2189.62
696.226	2230.58
696.415	2208.05
696.604	2171.19
696.793	2165.04
696.982	2181.43
697.171	2158.9
697.36	2255.15
697.549	2052.41
697.738	2085.17
697.927	2083.13
698.116	2115.89
698.305	2154.8
698.494	2124.08
698.683	2074.93
698.872	2154.8
699.061	2234.68
699.25	2099.51
699.438	2105.65
699.627	2079.03
699.816	2009.4
700.005	2017.59
700.193	2009.4
700.382	2089.27
700.571	2007.35
700.76	2105.65
700.948	2036.02
701.137	1982.78
701.326	1950.01
701.514	1956.15
701.703	1990.97
701.892	1999.16
702.08	2044.21
702.269	1986.87
702.457	1945.91
702.646	2109.75
702.834	2015.54
703.023	2056.5
703.212	2117.94
703.4	2036.02
703.589	1937.72
703.777	1966.39
703.965	1954.1
704.154	2068.79
704.342	1968.44
704.531	2011.45
704.719	2011.45
704.907	1941.82
705.096	1927.48
705.284	1950.01
705.472	2029.88
705.661	1982.78
705.849	1952.06
706.037	1993.01
706.226	2064.69
706.414	1913.14
706.602	1966.39
706.79	1917.24
706.979	1915.19
707.167	2064.69
707.355	1921.34
707.543	1904.95
707.731	1878.33
707.919	1917.24
708.107	1931.58
708.296	1984.82
708.484	1909.05
708.672	1954.1
708.86	1925.43
709.048	1915.19
709.236	1917.24
709.424	1917.24
709.612	1925.43
709.8	1878.33
709.988	1950.01
710.176	2025.78
710.364	1937.72
710.551	2023.73
710.739	1913.14
710.927	1884.47
711.115	1812.79
711.303	1927.48
711.491	1820.99
711.679	1882.42
711.866	1870.14
712.054	1927.48
712.242	1913.14
712.43	1870.14
712.617	1911.1
712.805	1812.79
712.993	1945.91
713.181	2017.59
713.368	1919.29
713.556	1947.96
713.744	1907
713.931	1958.2
714.119	1853.75
714.306	1880.38
714.494	1845.56
714.682	1966.39
714.869	1804.6
715.057	1995.06
715.244	1937.72
715.432	2033.97
715.619	1874.23
715.807	1904.95
715.994	2036.02
716.182	1851.71
716.369	1958.2
716.556	1999.16
716.744	1925.43
716.931	2015.54
717.119	2009.4
717.306	2011.45
717.493	1876.28
717.681	1859.9
717.868	1988.92
718.055	1950.01
718.242	1984.82
718.43	1894.71
718.617	1964.34
718.804	1917.24
718.991	2040.12
719.179	1917.24
719.366	1988.92
719.553	2013.49
719.74	1950.01
719.927	2009.4
720.114	1820.99
720.301	1966.39
720.488	1868.09
720.676	1974.58
720.863	2027.83
721.05	2052.41
721.237	2072.89
721.424	2050.36
721.611	1993.01
721.798	1960.25
721.985	1958.2
722.172	1939.77
722.358	1868.09
722.545	2072.89
722.732	1884.47
722.919	2079.03
723.106	2048.31
723.293	2040.12
723.48	2011.45
723.667	1933.62
723.853	2019.64
724.04	2056.5
724.227	1902.9
724.414	1960.25
724.6	2060.6
724.787	2074.93
724.974	2072.89
725.161	1921.34
725.347	1984.82
725.534	2054.45
725.72	2031.93
725.907	2052.41
726.094	2081.08
726.28	1929.53
726.467	2042.17
726.653	1950.01
726.84	2138.42
727.027	2097.46
727.213	2019.64
727.4	2111.8
727.586	2126.13
727.773	1970.49
727.959	2015.54
728.145	1995.06
728.332	2066.74
728.518	2011.45
728.705	1958.2
728.891	2074.93
729.077	1999.16
729.264	1962.3
729.45	2107.7
729.636	2107.7
729.823	2177.33
730.009	2109.75
730.195	2115.89
730.382	2126.13
730.568	2040.12
730.754	2027.83
730.94	2091.32
731.126	2203.96
731.313	2064.69
731.499	1988.92
731.685	2130.23
731.871	2146.61
732.057	2072.89
732.243	2091.32
732.429	2046.26
732.615	2093.37
732.801	2140.47
732.987	2175.28
733.173	2031.93
733.359	2140.47
733.545	2105.65
733.731	1917.24
733.917	1997.11
734.103	2031.93
734.289	2060.6
734.475	1995.06
734.661	2060.6
734.847	2072.89
735.033	2220.34
735.219	2064.69
735.404	2128.18
735.59	2097.46
735.776	2101.56
735.962	2007.35
736.148	2134.32
736.333	2107.7
736.519	2081.08
736.705	2113.85
736.89	2122.04
737.076	2038.07
737.262	2015.54
737.447	2122.04
737.633	1966.39
737.819	2171.19
738.004	2130.23
738.19	2085.17
738.375	2060.6
738.561	2011.45
738.747	2056.5
738.932	2093.37
739.118	2050.36
739.303	2025.78
739.489	2003.25
739.674	1980.73
739.859	2040.12
740.045	2132.28
740.23	1986.87
740.416	1941.82
740.601	1999.16
740.786	2115.89
740.972	2064.69
741.157	2083.13
741.342	1884.47
741.528	1986.87
741.713	2076.98
741.898	2021.69
742.084	2036.02
742.269	2005.3
742.454	1966.39
742.639	2058.55
742.824	2011.45
743.01	1945.91
743.195	2042.17
743.38	1939.77
743.565	1884.47
743.75	1874.23
743.935	2015.54
744.12	1941.82
744.305	1892.66
744.49	1943.86
744.675	1941.82
744.86	1929.53
745.045	1896.76
745.23	1880.38
745.415	1833.27
745.6	1872.18
745.785	1892.66
745.97	1851.71
746.155	1900.86
746.34	1952.06
746.525	1810.75
746.71	1909.05
746.895	1878.33
747.079	1814.84
747.264	1911.1
747.449	1769.79
747.634	1790.27
747.819	1722.68
748.003	1810.75
748.188	1712.44
748.373	1853.75
748.557	1777.98
748.742	1683.77
748.927	1777.98
749.111	1679.68
749.296	1728.83
749.481	1745.21
749.665	1685.82
749.85	1696.06
750.034	1786.17
750.219	1622.33
750.404	1737.02
750.588	1581.37
750.773	1532.22
750.957	1659.2
751.141	1708.35
751.326	1622.33
751.51	1589.57
751.695	1618.24
751.879	1540.41
752.064	1597.76
752.248	1540.41
752.432	1585.47
752.617	1499.45
752.801	1483.07
752.985	1554.75
753.17	1564.99
753.354	1458.5
753.538	1503.55
753.722	1528.13
753.907	1450.3
754.091	1343.81
754.275	1450.3
754.459	1380.67
754.643	1425.73
754.828	1435.97
755.012	1417.54
755.196	1425.73
755.38	1364.29
755.564	1347.9
755.748	1360.19
755.932	1386.82
756.116	1362.24
756.3	1311.04
756.484	1220.93
756.668	1302.85
756.852	1222.98
757.036	1255.75
757.22	1339.71
757.404	1282.37
757.588	1167.68
757.772	1253.7
757.956	1237.31
758.14	1311.04
758.323	1210.69
758.507	1184.07
758.691	1231.17
758.875	1311.04
759.059	1296.71
759.242	1245.51
759.426	1208.64
759.61	1196.36
759.794	1132.87
759.977	1200.45
760.161	1294.66
760.345	1204.55
760.528	1243.46
760.712	1182.02
760.895	1112.39
761.079	1171.78
761.263	1114.44
761.446	1089.86
761.63	1098.05
761.813	1053
761.997	1032.52
762.18	1067.33
762.364	1073.48
762.547	1061.19
762.731	1118.53
762.914	1130.82
763.098	1089.86
763.281	1040.71
763.464	1139.01
763.648	1077.57
763.831	960.84
764.015	1073.48
764.198	993.61
764.381	979.27
764.564	1143.11
764.748	1038.66
764.931	1073.48
765.114	1026.37
765.297	954.69
765.481	1007.94
765.664	999.75
765.847	946.5
766.03	962.89
766.213	979.27
766.397	1065.29
766.58	958.79
766.763	987.46
766.946	958.79
767.129	901.45
767.312	975.17
767.495	911.69
767.678	950.6
767.861	862.54
768.044	954.69
768.227	903.5
768.41	887.11
768.593	860.49
768.776	805.19
768.959	966.98
769.142	952.65
769.324	878.92
769.507	921.93
769.69	887.11
769.873	872.78
770.056	903.5
770.239	876.87
770.421	938.31
770.604	919.88
770.787	852.3
770.97	854.34
771.152	860.49
771.335	885.06
771.518	823.62
771.7	825.67
771.883	760.14
772.066	848.2
772.248	878.92
772.431	876.87
772.613	848.2
772.796	768.33
772.978	747.85
773.161	860.49
773.343	829.77
773.526	680.27
773.708	803.15
773.891	756.04
774.073	803.15
774.256	725.32
774.438	837.96
774.621	794.95
774.803	737.61
774.985	792.91
775.168	790.86
775.35	661.84
775.532	723.27
775.715	694.6
775.897	704.84
776.079	647.5
776.261	725.32
776.444	631.12
776.626	799.05
776.808	713.03
776.99	684.36
777.173	688.46
777.355	676.17
777.537	663.88
777.719	649.55
777.901	694.6
778.083	663.88
778.265	635.21
778.447	624.97
778.629	581.96
778.811	704.84
778.993	655.69
779.175	602.44
779.357	624.97
779.539	649.55
779.721	608.59
779.903	627.02
780.085	627.02
780.267	606.54
780.449	704.84
780.631	645.45
780.812	592.2
780.994	680.27
781.176	600.4
781.358	606.54
781.54	545.1
781.721	606.54
781.903	684.36
782.085	622.92
782.267	524.62
782.448	557.39
782.63	524.62
782.812	606.54
782.993	553.29
783.175	512.33
783.357	524.62
783.538	428.37
783.72	534.86
783.901	504.14
784.083	627.02
784.264	489.81
784.446	532.81
784.627	450.89
784.809	491.85
784.99	469.33
785.172	442.7
785.353	403.79
785.535	481.61
785.716	362.83
785.897	366.93
786.079	395.6
786.26	538.96
786.441	409.94
786.623	397.65
786.804	350.54
786.985	422.22
787.167	442.7
787.348	461.13
787.529	500.05
787.71	475.47
787.891	377.17
788.073	395.6
788.254	434.51
788.435	452.94
788.616	311.63
788.797	379.22
788.978	356.69
789.159	426.32
789.34	442.7
789.522	368.98
789.703	411.98
789.884	399.7
790.065	360.78
790.246	393.55
790.427	319.82
790.607	348.5
790.788	391.5
790.969	364.88
791.15	416.08
791.331	387.41
791.512	389.46
791.693	313.68
791.874	418.13
792.054	379.22
792.235	405.84
792.416	377.17
792.597	368.98
792.778	315.73
792.958	325.97
793.139	362.83
793.32	297.3
793.5	299.34
793.681	270.67
793.862	373.07
794.042	330.06
794.223	285.01
794.404	342.35
794.584	332.11
794.765	237.91
794.945	311.63
795.126	393.55
795.306	426.32
795.487	323.92
795.667	364.88
795.848	330.06
796.028	282.96
796.209	348.5
796.389	334.16
796.57	334.16
796.75	289.1
796.93	256.34
797.111	227.67
797.291	344.4
797.471	340.3
797.652	221.52
797.832	262.48
798.012	311.63
798.192	297.3
798.373	289.1
798.553	342.35
798.733	295.25
798.913	260.43
799.093	264.53
799.274	291.15
799.454	297.3
799.634	213.33
799.814	274.77
799.994	287.06
800.174	270.67
800.354	262.48
800.534	215.38
800.714	244.05
800.894	182.61
801.074	223.57
801.254	221.52
801.434	297.3
801.614	291.15
801.794	196.95
801.974	876.87
802.154	221.52
802.334	233.81
802.514	203.09
802.693	248.15
802.873	186.71
803.053	272.72
803.233	217.43
803.413	198.99
803.592	256.34
803.772	201.04
803.952	188.75
804.131	270.67
804.311	205.14
804.491	223.57
804.67	203.09
804.85	213.33
805.03	174.42
805.209	209.23
805.389	223.57
805.568	164.18
805.748	196.95
805.928	153.94
806.107	323.92
806.287	182.61
806.466	221.52
806.646	182.61
806.825	203.09
807.004	291.15
807.184	291.15
807.363	246.1
807.543	133.46
807.722	131.41
807.901	172.37
808.081	239.95
808.26	231.76
808.439	282.96
808.619	229.71
808.798	139.6
808.977	98.64
809.156	287.06
809.336	190.8
809.515	190.8
809.694	115.03
809.873	264.53
810.052	201.04
810.231	264.53
810.411	129.36
810.59	188.75
810.769	192.85
810.948	141.65
811.127	162.13
811.306	133.46
811.485	192.85
811.664	213.33
811.843	164.18
812.022	188.75
812.201	178.51
812.38	115.03
812.559	98.64
812.737	209.23
812.916	131.41
813.095	180.56
813.274	98.64
813.453	137.56
813.632	182.61
813.811	166.23
813.989	135.51
814.168	233.81
814.347	110.93
814.526	160.08
814.704	192.85
814.883	201.04
815.062	151.89
815.24	176.47
815.419	108.88
815.598	186.71
815.776	92.5
815.955	147.8
816.133	198.99
816.312	172.37
816.49	180.56
816.669	123.22
816.847	94.55
817.026	201.04
817.204	135.51
817.383	145.75
817.561	139.6
817.74	217.43
817.918	131.41
818.097	102.74
818.275	117.08
818.453	158.03
818.632	168.27
818.81	141.65
818.988	45.4
819.167	188.75
819.345	229.71
819.523	123.22
819.701	90.45
819.879	182.61
820.058	94.55
820.236	172.37
820.414	149.84
820.592	125.27
820.77	94.55
820.948	117.08
821.127	190.8
821.305	180.56
821.483	51.54
821.661	155.99
821.839	106.84
822.017	127.32
822.195	168.27
822.373	198.99
822.551	133.46
822.729	92.5
822.907	92.5
823.085	164.18
823.262	98.64
823.44	51.54
823.618	86.36
823.796	92.5
823.974	119.12
824.152	135.51
824.329	143.7
824.507	92.5
824.685	160.08
824.863	127.32
825.04	45.4
825.218	115.03
825.396	106.84
825.574	205.14
825.751	125.27
825.929	168.27
826.107	127.32
826.284	106.84
826.462	106.84
826.639	147.8
826.817	90.45
826.994	209.23
827.172	106.84
827.349	131.41
827.527	92.5
827.704	180.56
827.882	135.51
828.059	180.56
828.237	98.64
828.414	207.19
828.591	67.92
828.769	67.92
828.946	59.73
829.124	82.26
829.301	237.91
829.478	88.4
829.655	-18.09
829.833	143.7
830.01	65.88
830.187	147.8
830.364	98.64
830.542	108.88
830.719	147.8
830.896	98.64
831.073	90.45
831.25	135.51
831.427	90.45
831.604	90.45
831.782	119.12
831.959	37.2
832.136	133.46
832.313	155.99
832.49	143.7
832.667	106.84
832.844	139.6
833.021	94.55
833.198	155.99
833.374	145.75
833.551	106.84
833.728	94.55
833.905	153.94
834.082	108.88
834.259	65.88
834.436	147.8
834.612	53.59
834.789	158.03
834.966	33.11
835.143	53.59
835.319	90.45
835.496	158.03
835.673	90.45
835.85	164.18
836.026	76.12
836.203	139.6
836.38	43.35
836.556	80.21
836.733	59.73
836.909	133.46
837.086	53.59
837.262	98.64
837.439	69.97
837.616	94.55
837.792	74.07
837.968	115.03
838.145	49.49
838.321	76.12
838.498	8.53
838.674	49.49
838.851	33.11
839.027	57.68
839.203	49.49
839.38	49.49
839.556	24.92
839.732	98.64
839.909	33.11
840.085	69.97
840.261	33.11
840.437	125.27
840.614	45.4
840.79	57.68
840.966	131.41
841.142	86.36
841.318	82.26
841.494	82.26
841.671	100.69
841.847	82.26
842.023	84.31
842.199	78.16
842.375	90.45
842.551	18.77
842.727	94.55
842.903	215.38
843.079	82.26
843.255	63.83
843.431	98.64
843.607	141.65
843.783	33.11
843.959	59.73
844.134	22.87
844.31	141.65
844.486	61.78
844.662	39.25
844.838	94.55
845.013	106.84
845.189	49.49
845.365	131.41
845.541	55.64
845.716	33.11
845.892	33.11
846.068	104.79
846.244	33.11
846.419	115.03
846.595	57.68
846.77	33.11
846.946	41.3
847.122	86.36
847.297	20.82
847.473	108.88
847.648	24.92
847.824	88.4
847.999	82.26
848.175	37.2
848.35	26.96
848.526	33.11
848.701	67.92
848.876	92.5
849.052	125.27
849.227	0.34
849.403	26.96
849.578	92.5
849.753	88.4
849.929	24.92
850.104	20.82
850.279	76.12
850.454	6.49
850.63	82.26
850.805	59.73
850.98	72.02
851.155	-20.14
851.33	65.88
851.505	63.83
851.681	123.22
851.856	39.25
852.031	155.99
852.206	43.35
852.381	74.07
852.556	45.4
852.731	65.88
852.906	51.54
853.081	92.5
853.256	106.84
853.431	6.49
853.606	4.44
853.781	72.02
853.956	33.11
854.131	115.03
854.305	45.4
854.48	100.69
854.655	49.49
854.83	10.58
855.005	37.2
855.18	39.25
855.354	67.92
855.529	39.25
855.704	24.92
855.879	31.06
856.053	84.31
856.228	16.73
856.403	61.78
856.577	26.96
856.752	10.58
856.926	82.26
857.101	-5.8
857.276	2.39
857.45	8.53
857.625	53.59
857.799	41.3
857.974	29.01
858.148	-22.19
858.323	76.12
858.497	2.39
858.672	65.88
858.846	-44.71
859.02	18.77
859.195	0.34
859.369	65.88
859.543	8.53
859.718	31.06
859.892	31.06
860.066	106.84
860.241	61.78
860.415	65.88
860.589	2.39
860.763	53.59
860.938	24.92
861.112	12.63
861.286	57.68
861.46	45.4
861.634	20.82
861.808	69.97
861.982	16.73
862.157	20.82
862.331	35.16
862.505	-63.15
862.679	33.11
862.853	37.2
863.027	-5.8
863.201	84.31
863.375	-16.04
863.549	72.02
863.722	65.88
863.896	47.44
864.07	35.16
864.244	12.63
864.418	51.54
864.592	20.82
864.766	33.11
864.939	106.84
865.113	16.73
865.287	67.92
865.461	65.88
865.634	29.01
865.808	24.92
865.982	63.83
866.156	-24.23
866.329	51.54
866.503	39.25
866.676	61.78
866.85	-3.75
867.024	14.68
867.197	41.3
867.371	43.35
867.544	8.53
867.718	-28.33
867.891	-3.75
868.065	29.01
868.238	0.34
868.412	119.12
868.585	63.83
868.759	57.68
868.932	24.92
869.105	-38.57
869.279	55.64
869.452	29.01
869.625	20.82
869.799	53.59
869.972	-20.14
870.145	115.03
870.319	29.01
870.492	4.44
870.665	20.82
870.838	82.26
871.011	-44.71
871.185	108.88
871.358	67.92
871.531	0.34
871.704	8.53
871.877	24.92
872.05	41.3
872.223	10.58
872.396	43.35
872.569	49.49
872.742	57.68
872.915	84.31
873.088	18.77
873.261	-24.23
873.434	43.35
873.607	4.44
873.78	8.53
873.953	26.96
874.126	59.73
874.299	18.77
874.471	4.44
874.644	10.58
874.817	76.12
874.99	74.07
875.163	43.35
875.335	53.59
875.508	8.53
875.681	33.11
875.853	-48.81
876.026	65.88
876.199	26.96
876.371	33.11
876.544	-1.71
876.717	24.92
876.889	33.11
877.062	100.69
877.234	49.49
877.407	33.11
877.579	86.36
877.752	90.45
877.924	92.5
878.097	-5.8
878.269	-1.71
878.442	2.39
878.614	59.73
878.786	39.25
878.959	55.64
879.131	-30.38
879.303	24.92
879.476	14.68
879.648	33.11
879.82	82.26
879.993	-24.23
880.165	31.06
880.337	82.26
880.509	33.11
880.681	18.77
880.854	0.34
881.026	53.59
881.198	102.74
881.37	-5.8
881.542	-9.9
881.714	24.92
881.886	0.34
882.058	65.88
882.23	67.92
882.402	49.49
882.574	41.3
882.746	29.01
882.918	65.88
883.09	47.44
883.262	86.36
883.434	16.73
883.606	10.58
883.778	57.68
883.95	59.73
884.122	-44.71
884.293	57.68
884.465	53.59
884.637	47.44
884.809	8.53
884.98	59.73
885.152	-20.14
885.324	55.64
885.496	37.2
885.667	26.96
885.839	-61.1
886.011	100.69
886.182	4.44
886.354	24.92
886.525	33.11
886.697	65.88
886.869	47.44
887.04	8.53
887.212	127.32
887.383	61.78
887.555	49.49
887.726	33.11
887.897	59.73
888.069	82.26
888.24	-20.14
888.412	24.92
888.583	74.07
888.754	24.92
888.926	16.73
889.097	41.3
889.268	-71.34
889.44	33.11
889.611	10.58
889.782	-22.19
889.953	74.07
890.125	61.78
890.296	49.49
890.467	20.82
890.638	2.39
890.809	57.68
890.98	-24.23
891.151	82.26
891.323	69.97
891.494	-11.95
891.665	24.92
891.836	-5.8
892.007	43.35
892.178	61.78
892.349	35.16
892.52	39.25
892.691	39.25
892.862	26.96
893.032	-3.75
893.203	-13.99
893.374	69.97
893.545	65.88
893.716	8.53
893.887	33.11
894.057	14.68
894.228	20.82
894.399	8.53
894.57	160.08
894.74	8.53
894.911	76.12
895.082	-11.95
895.253	51.54
895.423	41.3
895.594	65.88
895.764	57.68
895.935	0.34
896.106	49.49
896.276	26.96
896.447	61.78
896.617	8.53
896.788	-34.47
896.958	72.02
897.129	-20.14
897.299	-38.57
897.47	76.12
897.64	16.73
897.81	-3.75
897.981	63.83
898.151	106.84
898.322	45.4
898.492	78.16
898.662	51.54
898.832	10.58
899.003	12.63
899.173	8.53
899.343	0.34
899.513	-38.57
