Data from USB4F104151__264__14-46-03-039.txt Node

Date: Thu Mar 13 14:46:03 EDT 2025
User: louis
Spectrometer: USB4F10415
Trigger mode: 4
Integration Time (sec): 2.000000E-2
Scans to average: 1
Electric dark correction enabled: true
Nonlinearity correction enabled: false
Boxcar width: 0
XAxis mode: Wavelengths
Number of Pixels in Spectrum: 3648
>>>>>Begin Spectral Data<<<<<
178.204	-118.27
178.424	-118.27
178.644	-118.27
178.864	-181.76
179.084	-159.23
179.304	-15.87
179.524	-19.97
179.744	-40.45
179.964	-17.92
180.184	-26.11
180.404	29.18
180.624	45.57
180.844	53.76
181.064	4.61
181.283	12.8
181.503	-32.26
181.723	6.66
181.943	-19.97
182.163	109.05
182.383	-36.35
182.602	96.77
182.822	18.94
183.042	37.38
183.262	29.18
183.482	113.15
183.701	-48.64
183.921	-24.06
184.141	-32.26
184.361	119.29
184.58	33.28
184.8	43.52
185.02	-9.73
185.239	4.61
185.459	-15.87
185.679	96.77
185.898	10.75
186.118	78.33
186.338	4.61
186.557	8.7
186.777	-11.78
186.997	12.8
187.216	84.48
187.436	70.14
187.655	-28.16
187.875	80.38
188.095	64
188.314	55.81
188.534	49.66
188.753	59.9
188.973	64
189.192	53.76
189.412	-7.68
189.631	74.24
189.851	37.38
190.07	86.53
190.29	-9.73
190.509	-42.5
190.729	88.57
190.948	115.2
191.168	147.97
191.387	45.57
191.607	-19.97
191.826	64
192.045	47.62
192.265	41.47
192.484	6.66
192.704	-17.92
192.923	23.04
193.142	94.72
193.362	25.09
193.581	53.76
193.8	102.91
194.02	6.66
194.239	-9.73
194.458	49.66
194.678	0.51
194.897	90.62
195.116	10.75
195.335	10.75
195.555	70.14
195.774	-28.16
195.993	72.19
196.212	96.77
196.432	68.09
196.651	39.42
196.87	-48.64
197.089	111.1
197.308	16.9
197.528	10.75
197.747	-11.78
197.966	27.14
198.185	66.05
198.404	39.42
198.623	137.73
198.842	88.57
199.062	100.86
199.281	6.66
199.5	-46.59
199.719	70.14
199.938	6.66
200.157	37.38
200.376	23.04
200.595	66.05
200.814	29.18
201.033	55.81
201.252	20.99
201.471	59.9
201.69	27.14
201.909	111.1
202.128	12.8
202.347	41.47
202.566	96.77
202.785	64
203.004	12.8
203.223	98.81
203.442	57.86
203.661	-13.82
203.879	29.18
204.098	104.96
204.317	-34.3
204.536	61.95
204.755	-17.92
204.974	16.9
205.193	96.77
205.411	104.96
205.63	29.18
205.849	59.9
206.068	55.81
206.287	47.62
206.505	72.19
206.724	55.81
206.943	39.42
207.162	14.85
207.381	127.49
207.599	66.05
207.818	14.85
208.037	78.33
208.255	49.66
208.474	14.85
208.693	107.01
208.911	82.43
209.13	66.05
209.349	4.61
209.567	86.53
209.786	41.47
210.005	47.62
210.223	80.38
210.442	49.66
210.661	31.23
210.879	-36.35
211.098	119.29
211.316	45.57
211.535	41.47
211.753	23.04
211.972	53.76
212.191	90.62
212.409	94.72
212.628	25.09
212.846	29.18
213.065	23.04
213.283	92.67
213.502	6.66
213.72	37.38
213.938	16.9
214.157	31.23
214.375	113.15
214.594	72.19
214.812	80.38
215.031	45.57
215.249	23.04
215.467	49.66
215.686	6.66
215.904	37.38
216.122	74.24
216.341	115.2
216.559	111.1
216.778	80.38
216.996	74.24
217.214	45.57
217.432	0.51
217.651	31.23
217.869	43.52
218.087	39.42
218.306	-44.54
218.524	80.38
218.742	29.18
218.96	70.14
219.179	-56.83
219.397	74.24
219.615	107.01
219.833	-7.68
220.051	31.23
220.27	49.66
220.488	66.05
220.706	100.86
220.924	61.95
221.142	61.95
221.36	-15.87
221.578	53.76
221.796	98.81
222.015	57.86
222.233	80.38
222.451	72.19
222.669	6.66
222.887	33.28
223.105	20.99
223.323	49.66
223.541	29.18
223.759	51.71
223.977	14.85
224.195	92.67
224.413	10.75
224.631	37.38
224.849	49.66
225.067	72.19
225.285	-1.54
225.503	-42.5
225.721	-36.35
225.939	37.38
226.157	14.85
226.375	90.62
226.592	16.9
226.81	47.62
227.028	66.05
227.246	20.99
227.464	115.2
227.682	45.57
227.9	72.19
228.117	45.57
228.335	47.62
228.553	72.19
228.771	78.33
228.989	143.87
229.206	59.9
229.424	72.19
229.642	55.81
229.86	-26.11
230.077	31.23
230.295	78.33
230.513	55.81
230.731	-11.78
230.948	98.81
231.166	64
231.384	-1.54
231.601	53.76
231.819	29.18
232.037	78.33
232.254	8.7
232.472	-40.45
232.689	-32.26
232.907	145.92
233.125	-28.16
233.342	49.66
233.56	20.99
233.777	-32.26
233.995	78.33
234.213	29.18
234.43	-1.54
234.648	88.57
234.865	49.66
235.083	90.62
235.3	96.77
235.518	86.53
235.735	53.76
235.953	31.23
236.17	-24.06
236.388	47.62
236.605	31.23
236.822	27.14
237.04	115.2
237.257	-1.54
237.475	53.76
237.692	29.18
237.909	-7.68
238.127	74.24
238.344	-9.73
238.562	29.18
238.779	78.33
238.996	23.04
239.214	37.38
239.431	66.05
239.648	-17.92
239.865	104.96
240.083	20.99
240.3	47.62
240.517	64
240.735	76.29
240.952	6.66
241.169	27.14
241.386	-30.21
241.603	123.39
241.821	86.53
242.038	119.29
242.255	86.53
242.472	-24.06
242.689	117.25
242.907	20.99
243.124	45.57
243.341	57.86
243.558	78.33
243.775	12.8
243.992	18.94
244.209	70.14
244.426	131.58
244.643	35.33
244.86	72.19
245.078	18.94
245.295	39.42
245.512	61.95
245.729	31.23
245.946	57.86
246.163	45.57
246.38	43.52
246.597	53.76
246.814	39.42
247.031	90.62
247.248	90.62
247.464	72.19
247.681	64
247.898	94.72
248.115	119.29
248.332	57.86
248.549	78.33
248.766	55.81
248.983	55.81
249.2	92.67
249.417	39.42
249.633	16.9
249.85	37.38
250.067	14.85
250.284	51.71
250.501	70.14
250.717	82.43
250.934	12.8
251.151	55.81
251.368	-3.58
251.585	45.57
251.801	29.18
252.018	-42.5
252.235	6.66
252.451	25.09
252.668	33.28
252.885	70.14
253.102	84.48
253.318	80.38
253.535	64
253.752	14.85
253.968	37.38
254.185	37.38
254.401	35.33
254.618	80.38
254.835	78.33
255.051	76.29
255.268	88.57
255.484	43.52
255.701	31.23
255.917	84.48
256.134	12.8
256.351	39.42
256.567	-60.93
256.784	33.28
257	-13.82
257.217	37.38
257.433	12.8
257.65	8.7
257.866	4.61
258.082	20.99
258.299	25.09
258.515	-1.54
258.732	55.81
258.948	-67.07
259.165	39.42
259.381	25.09
259.597	84.48
259.814	29.18
260.03	39.42
260.246	41.47
260.463	14.85
260.679	72.19
260.895	113.15
261.112	127.49
261.328	35.33
261.544	6.66
261.761	45.57
261.977	78.33
262.193	-5.63
262.409	145.92
262.626	70.14
262.842	119.29
263.058	80.38
263.274	6.66
263.49	96.77
263.707	78.33
263.923	35.33
264.139	78.33
264.355	66.05
264.571	88.57
264.787	16.9
265.004	53.76
265.22	88.57
265.436	55.81
265.652	16.9
265.868	49.66
266.084	-32.26
266.3	12.8
266.516	0.51
266.732	160.25
266.948	41.47
267.164	135.68
267.38	29.18
267.596	55.81
267.812	2.56
268.028	49.66
268.244	80.38
268.46	61.95
268.676	90.62
268.892	96.77
269.108	82.43
269.324	-32.26
269.54	-91.65
269.756	88.57
269.972	23.04
270.188	68.09
270.403	23.04
270.619	82.43
270.835	14.85
271.051	74.24
271.267	104.96
271.483	35.33
271.698	16.9
271.914	102.91
272.13	74.24
272.346	-3.58
272.562	68.09
272.777	78.33
272.993	-24.06
273.209	39.42
273.425	47.62
273.64	-3.58
273.856	104.96
274.072	-7.68
274.287	-5.63
274.503	76.29
274.719	31.23
274.934	39.42
275.15	14.85
275.366	20.99
275.581	53.76
275.797	98.81
276.012	78.33
276.228	70.14
276.444	72.19
276.659	100.86
276.875	102.91
277.09	6.66
277.306	66.05
277.521	78.33
277.737	16.9
277.952	135.68
278.168	86.53
278.383	68.09
278.599	61.95
278.814	72.19
279.03	57.86
279.245	45.57
279.461	86.53
279.676	37.38
279.892	-19.97
280.107	53.76
280.322	57.86
280.538	76.29
280.753	12.8
280.969	94.72
281.184	37.38
281.399	49.66
281.615	45.57
281.83	70.14
282.045	16.9
282.26	74.24
282.476	31.23
282.691	16.9
282.906	39.42
283.122	119.29
283.337	25.09
283.552	64
283.767	98.81
283.983	51.71
284.198	92.67
284.413	57.86
284.628	-58.88
284.843	113.15
285.058	57.86
285.274	72.19
285.489	8.7
285.704	61.95
285.919	90.62
286.134	31.23
286.349	66.05
286.564	107.01
286.779	78.33
286.995	94.72
287.21	70.14
287.425	35.33
287.64	76.29
287.855	100.86
288.07	16.9
288.285	88.57
288.5	20.99
288.715	61.95
288.93	102.91
289.145	33.28
289.36	68.09
289.575	53.76
289.79	109.05
290.004	51.71
290.219	104.96
290.434	127.49
290.649	72.19
290.864	4.61
291.079	70.14
291.294	107.01
291.509	20.99
291.724	57.86
291.938	90.62
292.153	25.09
292.368	8.7
292.583	20.99
292.798	45.57
293.012	55.81
293.227	23.04
293.442	29.18
293.657	18.94
293.871	102.91
294.086	18.94
294.301	145.92
294.516	74.24
294.73	57.86
294.945	86.53
295.16	-7.68
295.374	47.62
295.589	39.42
295.804	20.99
296.018	64
296.233	41.47
296.447	98.81
296.662	37.38
296.877	102.91
297.091	66.05
297.306	72.19
297.52	57.86
297.735	47.62
297.949	0.51
298.164	88.57
298.378	49.66
298.593	86.53
298.807	49.66
299.022	41.47
299.236	41.47
299.451	111.1
299.665	135.68
299.88	29.18
300.094	-3.58
300.309	86.53
300.523	64
300.737	-65.02
300.952	-32.26
301.166	80.38
301.381	61.95
301.595	45.57
301.809	33.28
302.024	117.25
302.238	41.47
302.452	74.24
302.667	14.85
302.881	53.76
303.095	45.57
303.309	61.95
303.524	8.7
303.738	74.24
303.952	35.33
304.166	12.8
304.381	61.95
304.595	121.34
304.809	86.53
305.023	45.57
305.237	131.58
305.452	31.23
305.666	29.18
305.88	57.86
306.094	96.77
306.308	80.38
306.522	100.86
306.736	88.57
306.95	80.38
307.164	45.57
307.379	119.29
307.593	23.04
307.807	6.66
308.021	129.53
308.235	100.86
308.449	16.9
308.663	53.76
308.877	135.68
309.091	84.48
309.305	94.72
309.519	70.14
309.733	23.04
309.947	-1.54
310.161	94.72
310.374	41.47
310.588	172.54
310.802	39.42
311.016	43.52
311.23	-19.97
311.444	16.9
311.658	37.38
311.872	49.66
312.085	8.7
312.299	74.24
312.513	150.01
312.727	25.09
312.941	20.99
313.154	70.14
313.368	66.05
313.582	31.23
313.796	80.38
314.009	61.95
314.223	96.77
314.437	70.14
314.651	135.68
314.864	39.42
315.078	113.15
315.292	29.18
315.505	-19.97
315.719	16.9
315.933	64
316.146	47.62
316.36	0.51
316.573	70.14
316.787	70.14
317.001	64
317.214	39.42
317.428	20.99
317.641	-22.02
317.855	66.05
318.068	86.53
318.282	31.23
318.495	78.33
318.709	6.66
318.922	4.61
319.136	47.62
319.349	143.87
319.563	39.42
319.776	39.42
319.99	12.8
320.203	82.43
320.417	20.99
320.63	-7.68
320.843	86.53
321.057	78.33
321.27	66.05
321.483	86.53
321.697	70.14
321.91	39.42
322.124	76.29
322.337	53.76
322.55	49.66
322.763	135.68
322.977	35.33
323.19	23.04
323.403	68.09
323.617	121.34
323.83	70.14
324.043	8.7
324.256	98.81
324.469	-3.58
324.683	53.76
324.896	-11.78
325.109	29.18
325.322	45.57
325.535	57.86
325.748	96.77
325.962	117.25
326.175	55.81
326.388	160.25
326.601	94.72
326.814	29.18
327.027	74.24
327.24	98.81
327.453	0.51
327.666	37.38
327.879	80.38
328.092	57.86
328.305	111.1
328.518	66.05
328.731	16.9
328.944	121.34
329.157	102.91
329.37	-3.58
329.583	94.72
329.796	47.62
330.009	49.66
330.222	72.19
330.435	82.43
330.648	8.7
330.861	8.7
331.073	47.62
331.286	-42.5
331.499	37.38
331.712	39.42
331.925	98.81
332.138	68.09
332.35	135.68
332.563	43.52
332.776	51.71
332.989	12.8
333.202	80.38
333.414	43.52
333.627	31.23
333.84	8.7
334.053	20.99
334.265	80.38
334.478	86.53
334.691	29.18
334.903	72.19
335.116	66.05
335.329	8.7
335.541	102.91
335.754	152.06
335.966	72.19
336.179	29.18
336.392	61.95
336.604	70.14
336.817	125.44
337.029	102.91
337.242	104.96
337.454	96.77
337.667	49.66
337.88	61.95
338.092	47.62
338.305	119.29
338.517	49.66
338.729	88.57
338.942	49.66
339.154	70.14
339.367	123.39
339.579	55.81
339.792	29.18
340.004	156.16
340.217	90.62
340.429	51.71
340.641	57.86
340.854	47.62
341.066	111.1
341.278	88.57
341.491	76.29
341.703	53.76
341.915	33.28
342.128	70.14
342.34	72.19
342.552	53.76
342.764	-9.73
342.977	64
343.189	41.47
343.401	129.53
343.613	37.38
343.826	20.99
344.038	53.76
344.25	70.14
344.462	31.23
344.674	135.68
344.886	12.8
345.099	64
345.311	80.38
345.523	29.18
345.735	31.23
345.947	96.77
346.159	37.38
346.371	119.29
346.583	154.11
346.795	145.92
347.007	43.52
347.219	78.33
347.431	121.34
347.643	88.57
347.855	90.62
348.067	84.48
348.279	37.38
348.491	102.91
348.703	57.86
348.915	96.77
349.127	20.99
349.339	39.42
349.551	4.61
349.763	160.25
349.975	37.38
350.187	109.05
350.399	92.67
350.61	113.15
350.822	59.9
351.034	88.57
351.246	88.57
351.458	31.23
351.669	33.28
351.881	139.77
352.093	45.57
352.305	29.18
352.517	29.18
352.728	68.09
352.94	94.72
353.152	107.01
353.363	8.7
353.575	37.38
353.787	86.53
353.999	102.91
354.21	53.76
354.422	68.09
354.633	88.57
354.845	88.57
355.057	156.16
355.268	96.77
355.48	78.33
355.692	41.47
355.903	74.24
356.115	98.81
356.326	37.38
356.538	96.77
356.749	78.33
356.961	70.14
357.172	37.38
357.384	29.18
357.595	68.09
357.807	61.95
358.018	88.57
358.23	47.62
358.441	82.43
358.653	53.76
358.864	98.81
359.075	27.14
359.287	70.14
359.498	47.62
359.709	78.33
359.921	31.23
360.132	41.47
360.344	45.57
360.555	78.33
360.766	94.72
360.977	70.14
361.189	107.01
361.4	96.77
361.611	98.81
361.823	92.67
362.034	94.72
362.245	64
362.456	88.57
362.667	61.95
362.879	96.77
363.09	68.09
363.301	80.38
363.512	80.38
363.723	45.57
363.935	35.33
364.146	102.91
364.357	78.33
364.568	102.91
364.779	10.75
364.99	57.86
365.201	125.44
365.412	109.05
365.623	-7.68
365.834	94.72
366.045	133.63
366.256	109.05
366.467	137.73
366.678	57.86
366.889	20.99
367.1	33.28
367.311	135.68
367.522	45.57
367.733	139.77
367.944	55.81
368.155	37.38
368.366	78.33
368.577	8.7
368.788	29.18
368.999	-24.06
369.209	107.01
369.42	88.57
369.631	70.14
369.842	-1.54
370.053	90.62
370.264	131.58
370.474	121.34
370.685	139.77
370.896	49.66
371.107	43.52
371.317	96.77
371.528	53.76
371.739	86.53
371.95	152.06
372.16	61.95
372.371	80.38
372.582	55.81
372.792	74.24
373.003	64
373.214	107.01
373.424	70.14
373.635	57.86
373.846	111.1
374.056	82.43
374.267	68.09
374.477	12.8
374.688	57.86
374.898	57.86
375.109	131.58
375.319	47.62
375.53	20.99
375.74	76.29
375.951	119.29
376.161	4.61
376.372	94.72
376.582	47.62
376.793	35.33
377.003	74.24
377.214	64
377.424	61.95
377.635	94.72
377.845	18.94
378.055	70.14
378.266	78.33
378.476	127.49
378.686	72.19
378.897	131.58
379.107	23.04
379.317	45.57
379.528	37.38
379.738	131.58
379.948	61.95
380.158	49.66
380.369	94.72
380.579	145.92
380.789	100.86
380.999	125.44
381.21	141.82
381.42	86.53
381.63	12.8
381.84	98.81
382.05	61.95
382.261	86.53
382.471	90.62
382.681	51.71
382.891	137.73
383.101	78.33
383.311	33.28
383.521	147.97
383.731	127.49
383.941	147.97
384.151	37.38
384.361	59.9
384.571	47.62
384.781	53.76
384.991	86.53
385.201	121.34
385.411	133.63
385.621	70.14
385.831	16.9
386.041	121.34
386.251	88.57
386.461	127.49
386.671	115.2
386.881	78.33
387.091	37.38
387.301	117.25
387.511	80.38
387.72	64
387.93	70.14
388.14	-9.73
388.35	133.63
388.56	45.57
388.769	168.45
388.979	29.18
389.189	51.71
389.399	176.64
389.609	-1.54
389.818	109.05
390.028	133.63
390.238	29.18
390.447	90.62
390.657	8.7
390.867	29.18
391.076	37.38
391.286	51.71
391.496	27.14
391.705	88.57
391.915	45.57
392.125	119.29
392.334	127.49
392.544	160.25
392.753	135.68
392.963	143.87
393.172	104.96
393.382	72.19
393.591	141.82
393.801	86.53
394.01	139.77
394.22	41.47
394.429	45.57
394.639	47.62
394.848	64
395.058	90.62
395.267	100.86
395.477	135.68
395.686	45.57
395.895	125.44
396.105	164.35
396.314	29.18
396.524	113.15
396.733	84.48
396.942	82.43
397.152	94.72
397.361	72.19
397.57	152.06
397.78	70.14
397.989	184.83
398.198	154.11
398.407	168.45
398.617	127.49
398.826	111.1
399.035	70.14
399.244	64
399.453	57.86
399.663	33.28
399.872	111.1
400.081	84.48
400.29	211.45
400.499	41.47
400.708	139.77
400.917	178.69
401.127	86.53
401.336	174.59
401.545	190.97
401.754	119.29
401.963	160.25
402.172	111.1
402.381	82.43
402.59	137.73
402.799	170.49
403.008	121.34
403.217	162.3
403.426	107.01
403.635	147.97
403.844	127.49
404.053	147.97
404.262	90.62
404.471	242.17
404.68	102.91
404.888	180.73
405.097	145.92
405.306	182.78
405.515	217.6
405.724	154.11
405.933	207.36
406.142	178.69
406.35	127.49
406.559	201.21
406.768	299.52
406.977	145.92
407.185	236.03
407.394	219.64
407.603	160.25
407.812	252.41
408.02	276.99
408.229	227.84
408.438	246.27
408.646	211.45
408.855	287.23
409.064	307.71
409.272	274.94
409.481	303.61
409.69	365.05
409.898	289.28
410.107	334.33
410.315	332.28
410.524	385.53
410.733	334.33
410.941	317.95
411.15	311.8
411.358	385.53
411.567	383.48
411.775	356.86
411.984	475.64
412.192	449.02
412.401	469.5
412.609	473.59
412.818	549.37
413.026	479.74
413.234	520.7
413.443	524.79
413.651	512.5
413.86	594.42
414.068	610.81
414.276	659.96
414.485	604.66
414.693	686.58
414.901	774.64
415.11	643.57
415.318	729.59
415.526	700.92
415.734	782.84
415.943	825.84
416.151	809.46
416.359	758.26
416.567	831.99
416.776	860.66
416.984	928.24
417.192	1008.11
417.4	1047.02
417.608	985.58
417.817	1024.5
418.025	1102.32
418.233	1182.19
418.441	1055.22
418.649	1194.48
418.857	1294.83
419.065	1382.89
419.273	1219.05
419.481	1319.4
419.689	1473
419.897	1511.91
420.105	1436.14
420.313	1520.1
420.521	1692.13
420.729	1604.07
420.937	1702.37
421.145	1782.24
421.353	1808.87
421.561	2054.62
421.769	1905.12
421.977	2228.7
422.185	1966.56
422.393	2249.18
422.601	2200.03
422.809	2224.61
423.017	2273.76
423.224	2378.2
423.432	2494.94
423.64	2445.79
423.848	2681.3
424.056	2585.05
424.263	2920.92
424.471	2937.3
424.679	2873.81
424.887	3015.12
425.094	3174.86
425.302	3273.17
425.51	3299.79
425.718	3350.99
425.925	3439.05
426.133	3543.5
426.341	3666.38
426.548	3969.48
426.756	4004.29
426.964	4012.48
427.171	4190.66
427.379	4282.81
427.586	4329.92
427.794	4569.53
428.001	4714.94
428.209	4882.87
428.417	4727.22
428.624	5110.19
428.832	5210.54
429.039	5134.77
429.247	5147.06
429.454	5599.66
429.662	5908.9
429.869	5673.39
430.076	5992.87
430.284	5919.14
430.491	6078.88
430.699	6570.4
430.906	6412.7
431.114	6439.33
431.321	6709.66
431.528	6922.65
431.736	7272.85
431.943	7688.59
432.15	7258.51
432.358	7516.56
432.565	7768.46
432.772	7729.55
432.979	8354.18
433.187	8475.01
433.394	8423.81
433.601	8991.09
433.808	9159.03
434.016	8919.42
434.223	9580.91
434.43	10039.65
434.637	9720.17
434.844	10314.08
435.052	10502.5
435.259	10346.85
435.466	10570.08
435.673	10479.97
435.88	11172.18
436.087	11727.18
436.294	11680.08
436.501	11471.18
436.708	11698.51
436.915	12144.97
437.122	12761.41
437.329	12726.59
437.537	12970.3
437.743	13175.09
437.95	12888.38
438.157	13642.03
438.364	14219.56
438.571	14410.02
438.778	14432.55
438.985	15520.02
439.192	14881.05
439.399	15548.69
439.606	15182.1
439.813	15966.48
440.02	17146.11
440.227	16507.14
440.433	16560.39
440.64	16941.31
440.847	17199.35
441.054	17420.53
441.261	18858.21
441.467	18264.3
441.674	18655.46
441.881	19515.61
442.088	19198.17
442.294	19255.51
442.501	19599.57
442.708	20066.51
442.914	20791.49
443.121	21694.64
443.328	21129.41
443.534	22595.75
443.741	21864.63
443.948	21502.14
444.154	23177.37
444.361	23419.03
444.568	23353.5
444.774	23349.4
444.981	23476.38
445.187	24402.06
445.394	25231.49
445.6	24901.76
445.807	27463.77
446.013	26128.5
446.22	26849.38
446.426	27926.61
446.633	28350.54
446.839	29165.63
447.046	28022.87
447.252	29599.8
447.459	29562.94
447.665	29282.37
447.871	31090.73
448.078	32366.61
448.284	30670.89
448.491	31281.19
448.697	32890.89
448.903	33419.27
449.11	33714.17
449.316	33073.16
449.522	33470.47
449.728	34619.38
449.935	34924.52
450.141	34947.05
450.347	35569.63
450.553	34547.7
450.76	34955.24
450.966	36423.64
451.172	35745.76
451.378	36784.08
451.584	35817.44
451.791	36691.92
451.997	37066.7
452.203	37713.86
452.409	37533.64
452.615	37615.55
452.821	36026.33
453.027	35647.46
453.233	37748.67
453.44	36403.16
453.646	36489.17
453.852	36962.25
454.058	37693.38
454.264	36335.57
454.47	37095.37
454.676	36450.26
454.882	37666.75
455.088	34590.7
455.294	35209.19
455.5	35780.57
455.705	36106.2
455.911	34154.49
456.117	33857.53
456.323	33640.45
456.529	31848.47
456.735	33277.96
456.941	32382.99
457.147	31858.71
457.352	30943.27
457.558	31057.96
457.764	30625.84
457.97	30195.76
458.176	29538.37
458.381	29614.14
458.587	28119.12
458.793	28485.71
458.999	26771.56
459.204	28598.35
459.41	28117.07
459.616	26374.25
459.821	26370.16
460.027	26046.58
460.233	25440.38
460.438	24293.52
460.644	24668.3
460.85	23660.69
461.055	23089.31
461.261	23298.2
461.466	21512.38
461.672	20449.48
461.878	22292.65
462.083	20740.29
462.289	20269.26
462.494	20320.46
462.7	19613.91
462.905	18987.23
463.111	19450.07
463.316	19605.72
463.522	19065.05
463.727	19097.82
463.932	19235.03
464.138	18778.34
464.343	18927.84
464.549	18438.37
464.754	19278.04
464.959	18940.13
465.165	19063.01
465.37	18039.02
465.575	17742.07
465.781	18383.08
465.986	18331.88
466.191	17838.32
466.397	17545.46
466.602	16644.35
466.807	17185.02
467.012	17381.62
467.218	16990.46
467.423	17037.56
467.628	16759.04
467.833	17651.95
468.038	17156.35
468.244	16673.03
468.449	17207.55
468.654	16693.51
468.859	16546.05
469.064	16560.39
469.269	15782.16
469.474	15976.72
469.679	16201.99
469.885	15931.66
470.09	16257.29
470.295	16189.7
470.5	15520.02
470.705	15989
470.91	15442.2
471.115	15167.77
471.32	15655.19
471.525	15337.75
471.73	15057.18
471.935	15235.35
472.139	14504.23
472.344	14819.61
472.549	14577.95
472.754	14539.04
472.959	14168.36
473.164	13812.01
473.369	13496.63
473.574	14178.6
473.778	14008.62
473.983	13955.37
474.188	13818.16
474.393	13394.23
474.598	13508.91
474.802	13306.16
475.007	13062.46
475.212	12982.59
475.417	12599.62
475.621	12874.04
475.826	12714.3
476.031	12374.34
476.235	12087.62
476.44	12497.22
476.645	12147.01
476.849	12323.14
477.054	12255.56
477.259	11845.96
477.463	11911.5
477.668	11544.91
477.872	11874.63
478.077	11632.97
478.282	11188.57
478.486	11303.25
478.691	11135.32
478.895	11213.14
479.1	11102.55
479.304	11024.73
479.509	10752.35
479.713	11098.45
479.918	10565.98
480.122	10525.02
480.326	10813.79
480.531	10811.74
480.735	10477.92
480.94	10559.84
481.144	10838.36
481.348	10086.76
481.553	10498.4
481.757	10193.25
481.961	10320.23
482.166	10436.96
482.37	10170.72
482.574	10256.74
482.778	10066.28
482.983	10412.39
483.187	10297.7
483.391	10365.28
483.595	10289.51
483.8	10051.94
484.004	10056.04
484.208	10445.15
484.412	10260.84
484.616	10443.1
484.821	10158.44
485.025	10123.62
485.229	10398.05
485.433	10285.41
485.637	10385.76
485.841	10228.07
486.045	10281.32
486.249	10342.75
486.453	10226.02
486.657	10297.7
486.861	10471.78
487.065	10172.77
487.269	10277.22
487.473	10271.08
487.677	10690.91
487.881	10551.65
488.085	10051.94
488.289	10340.71
488.493	10312.03
488.697	10572.13
488.901	10475.87
489.105	10428.77
489.309	10457.44
489.512	10514.78
489.716	10543.46
489.92	10518.88
490.124	10617.18
490.328	10617.18
490.531	10379.62
490.735	10869.08
490.939	10799.45
491.143	10862.94
491.346	10666.33
491.55	11034.97
491.754	10785.12
491.958	11104.6
492.161	10910.04
492.365	10916.19
492.569	11082.07
492.772	11172.18
492.976	11241.81
493.18	11241.81
493.383	11198.81
493.587	11501.9
493.79	11565.39
493.994	11522.38
494.197	11549.01
494.401	11825.48
494.605	11700.56
494.808	12058.95
495.012	12030.28
495.215	11983.18
495.419	11964.75
495.622	12142.92
495.825	12271.94
496.029	12317
496.232	12462.4
496.436	12550.46
496.639	13050.17
496.843	12912.95
497.046	12984.63
497.249	13164.86
497.453	13287.73
497.656	13222.2
497.859	13424.95
498.063	13703.47
498.266	13922.6
498.469	14174.5
498.673	13889.84
498.876	14328.1
499.079	14506.27
499.282	14506.27
499.485	14911.77
499.689	14670.11
499.892	15128.86
500.095	15366.42
500.298	15573.27
500.501	15503.64
500.705	15843.6
500.908	15935.76
501.111	16224.52
501.314	16568.58
501.517	16752.9
501.72	16818.43
501.923	16863.49
502.126	17187.07
502.329	17295.61
502.532	17703.15
502.735	17651.95
502.938	18077.93
503.141	18108.65
503.344	18639.08
503.547	18645.22
503.75	18954.46
503.953	19437.78
504.156	19345.62
504.359	19632.34
504.562	19728.59
504.765	19900.62
504.968	20201.68
505.17	20842.69
505.373	20734.15
505.576	21174.46
505.779	21307.58
505.982	21379.26
506.185	21952.69
506.387	21969.07
506.59	22059.18
506.793	22880.42
506.996	22347.95
507.198	23242.91
507.401	23326.88
507.604	23662.74
507.807	24064.14
508.009	24244.37
508.212	24422.54
508.415	24756.36
508.617	24866.95
508.82	25094.27
509.022	25256.06
509.225	26157.17
509.428	26153.07
509.63	26155.12
509.833	26638.44
510.035	27344.99
510.238	26927.21
510.44	27406.43
510.643	27830.36
510.845	28104.79
511.048	27967.57
511.25	28571.72
511.453	28334.16
511.655	29943.86
511.858	29149.25
512.06	29491.26
512.262	30150.71
512.465	30152.76
512.667	30824.49
512.87	30838.83
513.072	31031.33
513.274	31930.39
513.477	32276.5
513.679	32305.17
513.881	32851.98
514.084	32917.51
514.286	32985.1
514.488	33492.99
514.69	34103.29
514.893	34142.2
515.095	34435.06
515.297	34709.49
515.499	35047.4
515.701	35459.04
515.904	35901.4
516.106	36128.73
516.308	36407.25
516.51	36976.59
516.712	36810.7
516.914	36931.53
517.116	37998.52
517.318	38373.3
517.52	38713.27
517.722	38815.66
517.925	39036.84
518.127	39980.96
518.329	39874.46
518.531	39911.33
518.733	40239
518.935	40888.21
519.136	41105.29
519.338	41760.64
519.54	41658.24
519.742	42282.87
519.944	42090.37
520.146	43108.21
520.348	43003.76
520.55	43419.5
520.752	43626.34
520.954	44375.9
521.155	44224.35
521.357	44691.29
521.559	45336.4
521.761	45561.67
521.963	45682.5
522.164	45860.68
522.366	46219.07
522.568	46153.54
522.77	46753.59
522.971	47642.41
523.173	47583.02
523.375	47644.46
523.576	47982.37
523.778	48029.48
523.98	48682.78
524.181	48656.15
524.383	48598.81
524.584	49205.01
524.786	49207.06
524.988	49245.97
525.189	49743.62
525.391	50190.08
525.592	50489.09
525.794	50310.91
525.995	50386.69
526.197	50523.9
526.398	50951.93
526.6	50904.82
526.801	51566.32
527.003	51455.73
527.204	51445.49
527.406	52432.61
527.607	52514.53
527.808	52240.1
528.01	51721.96
528.211	51566.32
528.412	53321.43
528.614	52659.93
528.815	52528.86
529.016	53178.07
529.218	53171.92
529.419	53090.01
529.62	53452.5
529.822	53278.42
530.023	53657.29
530.224	53368.53
530.425	53526.22
530.626	53542.61
530.828	53255.89
531.029	54621.89
531.23	53380.82
531.431	53800.65
531.632	53948.1
531.833	54081.22
532.035	54378.18
532.236	54070.98
532.437	54247.11
532.638	54138.57
532.839	54535.87
533.04	54666.94
533.241	54189.77
533.442	55148.21
533.643	54634.17
533.844	54658.75
534.045	55084.73
534.246	54449.86
534.447	54687.42
534.648	54558.4
534.849	54642.37
535.05	54537.92
535.251	54591.17
535.451	54568.64
535.652	54861.5
535.853	54515.39
536.054	54513.34
536.255	54838.97
536.456	54806.2
536.657	55353.01
536.857	55058.1
537.058	54443.71
537.259	55140.02
537.46	54902.46
537.66	54566.59
537.861	55023.29
538.062	54675.13
538.263	55240.37
538.463	54732.48
538.664	54453.95
538.865	55461.55
539.065	55107.26
539.266	54697.66
539.466	55150.26
539.667	54310.6
539.868	55297.72
540.068	54314.69
540.269	54877.88
540.469	55240.37
540.67	54662.85
540.87	54871.74
541.071	54707.9
541.271	55107.26
541.472	54795.96
541.672	55033.53
541.873	54355.65
542.073	54212.29
542.274	55000.76
542.474	54632.13
542.675	54404.8
542.875	55025.34
543.075	54881.98
543.276	54408.9
543.476	55379.63
543.676	54666.94
543.877	54806.2
544.077	54894.27
544.277	54206.15
544.478	54953.66
544.678	54644.41
544.878	54865.59
545.078	54877.88
545.279	54208.2
545.479	54386.37
545.679	54378.18
545.879	54484.67
546.079	54666.94
546.28	54544.06
546.48	54277.83
546.68	54697.66
546.88	54587.07
547.08	54625.98
547.28	54732.48
547.48	54099.65
547.68	54314.69
547.88	54220.48
548.081	54888.12
548.281	54554.3
548.481	53970.63
548.681	54527.68
548.881	54339.27
549.081	54437.57
549.28	54390.47
549.48	55273.14
549.68	54666.94
549.88	55027.38
550.08	53905.1
550.28	54378.18
550.48	54257.35
550.68	54869.69
550.88	54492.86
551.08	54480.58
551.279	54316.74
551.479	53604.05
551.679	53976.78
551.879	54269.64
552.079	54384.32
552.278	53790.41
552.478	54286.02
552.678	54191.81
552.878	54081.22
553.077	53911.24
553.277	54150.85
553.477	54658.75
553.676	54027.98
553.876	54290.12
554.076	53618.38
554.275	53941.96
554.475	53827.27
554.674	53946.06
554.874	54017.74
555.074	53690.06
555.273	54052.55
555.473	53999.3
555.672	53614.29
555.872	53497.55
556.071	53927.63
556.271	53716.68
556.47	53688.01
556.67	53210.84
556.869	53778.12
557.068	53833.42
557.268	53331.67
557.467	53649.1
557.667	53704.4
557.866	53391.06
558.065	53769.93
558.265	52965.08
558.464	52963.03
558.663	53657.29
558.863	52340.45
559.062	53298.9
559.261	52469.47
559.461	53634.77
559.66	52248.29
559.859	52852.44
560.058	52535.01
560.258	53235.41
560.457	52483.81
560.656	53010.14
560.855	52238.05
561.054	52592.35
561.253	52373.22
561.453	52170.47
561.652	52905.69
561.851	52608.73
562.05	52018.92
562.249	51726.06
562.448	52584.16
562.647	52070.12
562.846	51943.14
563.045	51844.84
563.244	51584.75
563.443	52528.86
563.642	51830.51
563.841	51554.03
564.04	51525.36
564.239	52045.54
564.438	51152.63
564.637	51695.34
564.836	51795.69
565.035	50548.48
565.234	51513.07
565.432	51054.32
565.631	51136.24
565.83	51209.97
566.029	50769.66
566.228	50783.99
566.427	50710.27
566.625	50638.59
566.824	49870.6
567.023	50841.34
567.222	49993.48
567.42	50611.96
567.619	50194.18
567.818	50042.63
568.016	50243.33
568.215	50446.08
568.414	50288.38
568.612	50331.39
568.811	49970.95
569.01	50292.48
569.208	49145.62
569.407	50120.45
569.605	49448.72
569.804	49678.09
570.002	48740.12
570.201	50003.72
570.4	48955.16
570.598	48881.43
570.797	48897.81
570.995	49274.64
571.193	48369.44
571.392	49192.72
571.59	48277.28
571.789	48604.95
571.987	48400.16
572.186	48203.55
572.384	47714.09
572.582	48236.32
572.781	48160.55
572.979	47828.77
573.177	47818.53
573.376	47857.45
573.574	47499.05
573.772	48121.63
573.971	47292.21
574.169	47048.5
574.367	47025.97
574.565	47562.54
574.763	47120.18
574.962	46958.39
575.16	46548.79
575.358	46968.63
575.556	46372.67
575.754	46845.75
575.952	46026.56
576.151	46653.24
576.349	45930.31
576.547	46217.02
576.745	46065.47
576.943	45825.86
577.141	45678.41
577.339	46008.13
577.537	45580.1
577.735	45539.15
577.933	44943.19
578.131	45524.81
578.329	45340.49
578.527	44738.39
578.725	44967.76
578.923	45170.51
579.121	44525.4
579.319	44169.05
579.516	44545.88
579.714	44787.54
579.912	44482.39
580.11	43902.82
580.308	44310.36
580.506	44406.62
580.704	43452.26
580.901	43861.86
581.099	43755.36
581.297	43319.15
581.495	43319.15
581.692	43329.39
581.89	42964.85
582.088	43525.99
582.285	42958.7
582.483	43110.25
582.681	43009.9
582.878	42497.91
583.076	42393.47
583.274	42923.89
583.471	42110.85
583.669	42422.14
583.866	42002.3
584.064	42536.82
584.262	41869.19
584.459	42301.31
584.657	41613.19
584.854	42039.17
585.052	41555.85
585.249	41643.91
585.447	41490.31
585.644	40806.29
585.841	41148.3
586.039	41531.27
586.236	40914.83
586.434	40761.23
586.631	40538.01
586.828	40550.29
587.026	40712.08
587.223	40513.43
587.42	40316.82
587.618	39978.91
587.815	39962.53
588.012	39770.02
588.21	39690.15
588.407	40112.03
588.604	39530.4
588.801	39264.17
588.999	39157.67
589.196	39522.21
589.393	39298.98
589.59	39155.63
589.787	38725.55
589.984	38817.71
590.182	38477.75
590.379	38621.11
590.576	38436.79
590.773	38393.78
590.97	38334.39
591.167	38459.32
591.364	38068.16
591.561	38424.5
591.758	37750.72
591.955	37717.95
592.152	37869.5
592.349	37332.93
592.546	37619.65
592.743	37617.6
592.94	36804.56
593.137	37066.7
593.334	37670.85
593.531	36880.33
593.727	37203.91
593.924	36644.82
594.121	36767.69
594.318	36779.98
594.515	36239.32
594.712	36411.35
594.908	36120.54
595.105	36270.04
595.302	35790.81
595.499	35917.79
595.696	36083.67
595.892	35823.58
596.089	35827.68
596.286	35801.05
596.482	35538.91
596.679	35340.26
596.876	35364.84
597.072	34846.7
597.269	35338.21
597.466	34586.61
597.662	34828.27
597.859	35004.39
598.055	34916.33
598.252	34211.83
598.448	34717.68
598.645	34258.93
598.841	33892.35
599.038	34113.53
599.234	34082.81
599.431	33742.85
599.627	33744.89
599.824	34129.91
600.02	33501.18
600.217	34064.38
600.413	33372.16
600.609	33501.18
600.806	33081.35
601.002	33409.03
601.198	32851.98
601.395	32976.9
601.591	33058.82
601.787	32698.38
601.984	32780.3
602.18	33198.09
602.376	32245.78
602.572	32440.34
602.769	32268.31
602.965	31758.36
603.161	32454.67
603.357	31979.54
603.553	31658.01
603.75	32260.12
603.946	31733.79
604.142	31592.48
604.338	31082.53
604.534	31567.9
604.73	31002.66
604.926	31410.21
605.122	31193.12
605.318	30865.45
605.514	30466.1
605.71	30666.8
605.906	30816.3
606.102	30947.37
606.298	31057.96
606.494	30453.81
606.69	30568.49
606.886	30744.62
607.082	29820.98
607.278	30122.04
607.474	29716.54
607.67	30101.56
607.866	29657.15
608.062	30115.89
608.257	29980.73
608.453	29636.67
608.649	29968.44
608.845	29521.98
609.041	29472.83
609.236	29556.8
609.432	29407.3
609.628	29270.08
609.824	29337.66
610.019	29362.24
610.215	29511.74
610.411	29159.49
610.606	28684.36
610.802	29259.84
610.998	28723.27
611.193	28682.31
611.389	28637.26
611.584	28895.3
611.78	28360.78
611.976	28350.54
612.171	28690.51
612.367	28504.14
612.562	27953.24
612.758	27824.22
612.953	27891.8
613.149	28334.16
613.344	28100.69
613.539	28266.58
613.735	28035.16
613.93	28301.39
614.126	27773.02
614.321	28135.51
614.517	27664.47
614.712	27789.4
614.907	27486.3
615.103	27476.06
615.298	27369.57
615.493	27517.02
615.688	26622.06
615.884	27830.36
616.079	27088.99
616.274	27443.29
616.47	27107.43
616.665	27195.49
616.86	26820.71
617.055	26865.77
617.25	26863.72
617.445	27062.37
617.641	26378.35
617.836	26744.94
618.031	26445.93
618.226	26880.1
618.421	26316.91
618.616	26468.46
618.811	26044.53
619.006	26327.15
619.201	25573.5
619.396	26327.15
619.591	25825.4
619.786	25991.28
619.981	25274.49
620.176	25665.66
620.371	25477.24
620.566	25460.86
620.761	25202.82
620.956	25227.39
621.151	24869
621.346	24733.83
621.541	24672.39
621.735	24985.73
621.93	24146.06
622.125	24246.41
622.32	23906.45
622.515	24268.94
622.709	23941.27
622.904	23914.64
623.099	23980.18
623.294	23662.74
623.488	23388.32
623.683	23300.25
623.878	22997.15
624.072	23419.03
624.267	22950.05
624.462	22915.23
624.656	22517.93
624.851	22663.33
625.046	22407.34
625.24	22479.02
625.435	22139.05
625.629	22147.25
625.824	21993.65
626.018	22046.9
626.213	21442.74
626.407	21590.2
626.602	21422.27
626.796	21407.93
626.991	21487.8
627.185	21264.57
627.38	21004.48
627.574	20740.29
627.768	20678.85
627.963	20766.92
628.157	20357.32
628.352	20818.11
628.546	20115.66
628.74	20377.8
628.935	20195.53
629.129	20168.91
629.323	19896.53
629.517	19679.44
629.712	19843.28
629.906	19697.88
630.1	19411.16
630.294	19271.9
630.489	19269.85
630.683	19423.45
630.877	19257.56
631.071	19099.87
631.265	19157.21
631.459	18999.52
631.653	18815.2
631.848	18596.07
632.042	18438.37
632.236	18571.49
632.43	18403.56
632.624	18333.93
632.818	18215.15
633.012	17762.54
633.206	18014.45
633.4	18153.71
633.594	17633.52
633.788	17717.49
633.982	17694.96
634.176	17664.24
634.369	17445.11
634.563	17260.79
634.757	17154.3
634.951	17537.27
635.145	17336.57
635.339	17398.01
635.533	16965.89
635.726	16826.62
635.92	16634.11
636.114	16584.96
636.308	16548.1
636.501	16509.19
636.695	16582.91
636.889	16130.31
637.083	16089.35
637.276	15982.86
637.47	16052.49
637.664	15847.69
637.857	15708.43
638.051	15995.15
638.244	15657.23
638.438	15587.6
638.632	15382.81
638.825	15458.58
639.019	15513.88
639.212	15163.67
639.406	15329.56
639.599	15065.37
639.793	15118.62
639.986	14780.7
640.18	14817.57
640.373	14827.81
640.567	14696.74
640.76	14471.46
640.954	14475.56
641.147	14467.36
641.34	14270.76
641.534	14233.89
641.727	14201.13
641.92	14111.02
642.114	13934.89
642.307	13898.03
642.5	13990.19
642.694	13762.86
642.887	13566.26
643.08	13779.25
643.273	13248.82
643.467	13754.67
643.66	13140.28
643.853	13461.81
644.046	13039.93
644.239	13205.81
644.432	13035.83
644.626	13037.88
644.819	12792.12
645.012	12908.86
645.205	12910.91
645.398	12620.1
645.591	12413.25
645.784	12749.12
645.977	12290.37
646.17	12386.63
646.363	12450.11
646.556	11964.75
646.749	12218.69
646.942	12216.65
647.135	12083.53
647.328	12147.01
647.521	11735.37
647.714	11649.36
647.907	11899.21
648.099	11589.97
648.292	11647.31
648.485	11510.1
648.678	11579.73
648.871	11354.45
649.064	11207
649.256	11458.9
649.449	11311.44
649.642	11309.4
649.835	11133.27
650.027	11034.97
650.22	11112.79
650.413	10715.48
650.605	10983.77
650.798	10600.8
650.991	10981.72
651.183	10688.86
651.376	10555.74
651.568	10627.42
651.761	10508.64
651.954	10490.21
652.146	10271.08
652.339	10418.53
652.531	10043.75
652.724	10137.96
652.916	9892.2
653.109	10129.77
653.301	9937.26
653.494	10043.75
653.686	9996.65
653.879	9855.34
654.071	9900.39
654.263	9687.4
654.456	9585.01
654.648	9554.29
654.84	9494.9
655.033	9525.61
655.225	9296.24
655.417	9392.5
655.61	9533.81
655.802	9484.66
655.994	9148.79
656.186	9079.16
656.379	9017.72
656.571	9167.22
656.763	9099.64
656.955	8894.84
657.148	9009.53
657.34	8868.22
657.532	8741.24
657.724	8614.27
657.916	8755.58
658.108	8565.12
658.3	8606.08
658.492	8487.29
658.684	8321.41
658.876	8241.54
659.068	8137.09
659.26	8161.67
659.452	8417.66
659.644	8249.73
659.836	8012.17
660.028	8053.13
660.22	8034.69
660.412	7909.77
660.604	7936.39
660.796	7848.33
660.988	7842.18
661.18	7758.22
661.372	7688.59
661.563	7762.31
661.755	7709.07
661.947	7606.67
662.139	7502.22
662.331	7567.76
662.522	7301.52
662.714	7377.3
662.906	7395.73
663.097	7371.15
663.289	7141.78
663.481	7215.51
663.673	7235.99
663.864	7078.29
664.056	7059.86
664.247	6883.73
664.439	6920.6
664.631	6783.38
664.822	6838.68
665.014	6881.69
665.205	6611.36
665.397	6746.52
665.588	6603.16
665.78	6656.41
665.971	6738.33
666.163	6574.49
666.354	6566.3
666.546	6502.81
666.737	6478.24
666.929	6209.95
667.12	6177.19
667.311	6226.34
667.503	6136.23
667.694	6193.57
667.885	6230.43
668.077	6089.12
668.268	6019.49
668.459	6148.51
668.651	6017.44
668.842	5976.48
669.033	6093.22
669.224	5953.96
669.416	5904.81
669.607	5935.53
669.798	5761.45
669.989	5894.57
670.18	5812.65
670.371	5714.34
670.563	5669.29
670.754	5689.77
670.945	5487.02
671.136	5624.23
671.327	5411.25
671.518	5505.45
671.709	5685.67
671.9	5663.15
672.091	5413.29
672.282	5487.02
672.473	5298.61
672.664	5390.77
672.855	5353.9
673.046	5339.57
673.237	5390.77
673.428	5235.12
673.619	5290.42
673.809	5249.46
674	5093.81
674.191	5280.18
674.382	5288.37
674.573	5091.76
674.764	5126.58
674.954	5120.43
675.145	4899.25
675.336	5097.91
675.527	4948.4
675.717	4991.41
675.908	5071.28
676.099	4940.21
676.289	4864.44
676.48	4932.02
676.671	4825.53
676.861	4848.05
677.052	4774.33
677.243	4682.17
677.433	4772.28
677.624	4866.49
677.814	4682.17
678.005	4774.33
678.195	4690.36
678.386	4686.26
678.576	4708.79
678.767	4757.94
678.957	4772.28
679.148	4663.74
679.338	4616.63
679.529	4649.4
679.719	4544.95
679.909	4694.46
680.1	4477.37
680.29	4465.08
680.481	4594.11
680.671	4530.62
680.861	4520.38
681.052	4508.09
681.242	4538.81
681.432	4600.25
681.622	4432.32
681.813	4610.49
682.003	4463.04
682.193	4358.59
682.383	4331.97
682.573	4411.84
682.764	4508.09
682.954	4370.88
683.144	4311.49
683.334	4405.69
683.524	4301.25
683.714	4360.64
683.904	4305.34
684.094	4374.97
684.284	4342.21
684.474	4506.04
684.664	4331.97
684.854	4235.71
685.044	4350.4
685.234	4166.08
685.424	4104.64
685.614	4338.11
685.804	4295.1
685.994	4356.54
686.184	4430.27
686.374	4196.8
686.564	4102.59
686.753	4202.94
686.943	4100.55
687.133	4075.97
687.323	4049.35
687.513	4063.68
687.702	4069.83
687.892	4010.43
688.082	4110.79
688.272	4135.36
688.461	4055.49
688.651	4180.42
688.841	4161.98
689.03	4026.82
689.22	3969.48
689.41	3946.95
689.599	3959.24
689.789	3830.21
689.979	4127.17
690.168	3994.05
690.358	3953.09
690.547	3879.36
690.737	4004.29
690.926	3955.14
691.116	4010.43
691.305	3985.86
691.495	4047.3
691.684	4053.44
691.874	3889.6
692.063	3905.99
692.252	3920.32
692.442	3987.91
692.631	3895.75
692.82	3860.93
693.01	3756.49
693.199	3740.1
693.388	3752.39
693.578	3822.02
693.767	3832.26
693.956	3635.66
694.146	3815.88
694.335	3707.34
694.524	3576.27
694.713	3797.45
694.902	3748.29
695.092	3846.6
695.281	3815.88
695.47	3664.33
695.659	3576.27
695.848	3682.76
696.037	3727.82
696.226	3772.87
696.415	3635.66
696.604	3766.73
696.793	3576.27
696.982	3563.98
697.171	3645.9
697.36	3609.03
697.549	3559.88
697.738	3672.52
697.927	3512.78
698.116	3684.81
698.305	3514.83
698.494	3582.41
698.683	3512.78
698.872	3502.54
699.061	3547.59
699.25	3514.83
699.438	3408.33
699.627	3510.73
699.816	3463.63
700.005	3379.66
700.193	3428.81
700.382	3510.73
700.571	3404.24
700.76	3480.01
700.948	3516.87
701.137	3502.54
701.326	3461.58
701.514	3453.39
701.703	3379.66
701.892	3428.81
702.08	3379.66
702.269	3396.04
702.457	3359.18
702.646	3396.04
702.834	3355.08
703.023	3502.54
703.212	3338.7
703.4	3281.36
703.589	3256.78
703.777	3193.3
703.965	3174.86
704.154	3244.49
704.342	3248.59
704.531	3389.9
704.719	3183.06
704.907	3338.7
705.096	3084.75
705.284	3174.86
705.472	3101.14
705.661	3015.12
705.849	3232.21
706.037	3117.52
706.226	3228.11
706.414	3080.66
706.602	3092.94
706.79	3135.95
706.979	3164.62
707.167	3062.23
707.355	3119.57
707.543	3178.96
707.731	3058.13
707.919	3051.99
708.107	2912.72
708.296	2884.05
708.484	2988.5
708.672	3107.28
708.86	2972.11
709.048	2941.4
709.236	2961.87
709.424	2908.63
709.612	2955.73
709.8	2851.28
709.988	2890.2
710.176	2937.3
710.364	2925.01
710.551	2904.53
710.739	2871.76
710.927	2873.81
711.115	2843.09
711.303	2920.92
711.491	2890.2
711.679	2935.25
711.866	2752.98
712.054	2763.22
712.242	2920.92
712.43	2748.89
712.617	2884.05
712.805	2830.8
712.993	2779.61
713.181	2691.54
713.368	2697.69
713.556	2798.04
713.744	2701.78
713.931	2775.51
714.119	2660.82
714.306	2707.93
714.494	2716.12
714.682	2546.14
714.869	2603.48
715.057	2572.76
715.244	2693.59
715.432	2558.42
715.619	2732.5
715.807	2548.19
715.994	2585.05
716.182	2529.75
716.369	2464.22
716.556	2576.86
716.744	2609.62
716.931	2695.64
717.119	2634.2
717.306	2568.66
717.493	2507.23
717.681	2544.09
717.868	2398.68
718.055	2359.77
718.242	2417.12
718.43	2468.31
718.617	2439.64
718.804	2443.74
718.991	2431.45
719.179	2511.32
719.366	2347.48
719.553	2384.35
719.74	2333.15
719.927	2413.02
720.114	2396.64
720.301	2486.75
720.488	2331.1
720.676	2234.85
720.863	2408.92
721.05	2261.47
721.237	2281.95
721.424	2433.5
721.611	2349.53
721.798	2298.33
721.985	2333.15
722.172	2185.69
722.358	2257.37
722.545	2216.41
722.732	2210.27
722.919	2267.61
723.106	2175.45
723.293	2208.22
723.48	2126.3
723.667	2224.61
723.853	2177.5
724.04	2095.58
724.227	2249.18
724.414	2154.98
724.6	2111.97
724.787	2136.54
724.974	2173.41
725.161	2120.16
725.347	2093.54
725.534	2093.54
725.72	2056.67
725.907	2189.79
726.094	2101.73
726.28	1921.51
726.467	2087.39
726.653	2073.06
726.84	1995.23
727.027	2120.16
727.213	1989.09
727.4	2056.67
727.586	2040.29
727.773	1976.8
727.959	2058.72
728.145	1997.28
728.332	1970.66
728.518	1868.26
728.705	2009.57
728.891	1941.99
729.077	1874.4
729.264	2003.43
729.45	1896.93
729.636	1921.51
729.823	1958.37
730.009	1954.27
730.195	1937.89
730.382	1823.2
730.568	1974.75
730.754	1847.78
730.94	1888.74
731.126	1933.79
731.313	1911.27
731.499	1878.5
731.685	1976.8
731.871	1923.55
732.057	1860.07
732.243	1941.99
732.429	1835.49
732.615	1925.6
732.801	1825.25
732.987	1901.03
733.173	1759.72
733.359	1743.33
733.545	1708.52
733.731	1806.82
733.917	1847.78
734.103	1790.44
734.289	1851.88
734.475	1683.94
734.661	1782.24
734.847	1729
735.033	1726.95
735.219	1720.81
735.404	1733.09
735.59	1726.95
735.776	1663.46
735.962	1663.46
736.148	1724.9
736.333	1753.57
736.519	1726.95
736.705	1651.17
736.89	1708.52
737.076	1620.46
737.262	1559.02
737.447	1610.22
737.633	1720.81
737.819	1651.17
738.004	1665.51
738.19	1642.98
738.375	1528.3
738.561	1704.42
738.747	1530.34
738.932	1567.21
739.118	1552.87
739.303	1683.94
739.489	1595.88
739.674	1581.54
739.859	1522.15
740.045	1659.37
740.23	1663.46
740.416	1503.72
740.601	1513.96
740.786	1507.82
740.972	1481.19
741.157	1464.81
741.342	1464.81
741.528	1462.76
741.713	1436.14
741.898	1475.05
742.084	1440.23
742.269	1481.19
742.454	1456.62
742.639	1526.25
742.824	1456.62
743.01	1509.86
743.195	1479.15
743.38	1483.24
743.565	1436.14
743.75	1450.47
743.935	1413.61
744.12	1421.8
744.305	1315.31
744.49	1339.88
744.675	1331.69
744.86	1364.46
745.045	1368.56
745.23	1487.34
745.415	1300.97
745.6	1327.6
745.785	1389.03
745.97	1268.2
746.155	1399.27
746.34	1452.52
746.525	1325.55
746.71	1321.45
746.895	1260.01
747.079	1237.49
747.264	1262.06
747.449	1366.51
747.634	1321.45
747.819	1233.39
748.003	1225.2
748.188	1167.85
748.373	1255.92
748.557	1217.01
748.742	1241.58
748.927	1167.85
749.111	1110.51
749.296	1130.99
749.481	1217.01
749.665	1223.15
749.85	1147.37
750.034	1186.29
750.219	1178.09
750.404	1077.74
750.588	1090.03
750.773	1165.81
750.957	1110.51
751.141	1073.65
751.326	1167.85
751.51	1077.74
751.695	1120.75
751.879	1079.79
752.064	1118.7
752.248	1030.64
752.432	1071.6
752.617	1057.26
752.801	1008.11
752.985	1053.17
753.17	1186.29
753.354	1077.74
753.538	1108.46
753.722	995.82
753.907	1110.51
754.091	1028.59
754.275	981.49
754.459	995.82
754.643	922.1
754.828	954.87
755.012	1049.07
755.196	844.28
755.38	926.19
755.564	1073.65
755.748	954.87
755.932	1004.02
756.116	1001.97
756.3	934.39
756.484	872.95
756.668	958.96
756.852	907.76
757.036	870.9
757.22	893.43
757.404	831.99
757.588	852.47
757.772	823.8
757.956	913.91
758.14	874.99
758.323	834.04
758.507	860.66
758.691	905.71
758.875	803.32
759.059	840.18
759.242	819.7
759.426	823.8
759.61	852.47
759.794	858.61
759.977	778.74
760.161	897.52
760.345	864.75
760.528	836.08
760.712	907.76
760.895	784.88
761.079	803.32
761.263	827.89
761.446	743.92
761.63	711.16
761.813	786.93
761.997	766.45
762.18	793.08
762.364	815.6
762.547	702.97
762.731	823.8
762.914	799.22
763.098	750.07
763.281	647.67
763.464	733.68
763.648	743.92
763.831	702.97
764.015	786.93
764.198	725.49
764.381	764.4
764.564	682.49
764.748	782.84
764.931	801.27
765.114	741.88
765.297	721.4
765.481	702.97
765.664	629.24
765.847	670.2
766.03	756.21
766.213	717.3
766.397	694.77
766.58	717.3
766.763	729.59
766.946	700.92
767.129	659.96
767.312	676.34
767.495	700.92
767.678	694.77
767.861	608.76
768.044	573.94
768.227	727.54
768.41	641.53
768.593	766.45
768.776	639.48
768.959	674.29
769.142	760.31
769.324	670.2
769.507	696.82
769.69	684.53
769.873	717.3
770.056	733.68
770.239	627.19
770.421	651.77
770.604	639.48
770.787	553.46
770.97	729.59
771.152	676.34
771.335	700.92
771.518	602.61
771.7	700.92
771.883	684.53
772.066	672.25
772.248	623.09
772.431	625.14
772.613	578.04
772.796	672.25
772.978	651.77
773.161	668.15
773.343	563.7
773.526	569.85
773.708	573.94
773.891	487.93
774.073	610.81
774.256	557.56
774.438	657.91
774.621	592.37
774.803	584.18
774.985	604.66
775.168	508.41
775.35	541.18
775.532	610.81
775.715	485.88
775.897	602.61
776.079	537.08
776.261	604.66
776.444	500.22
776.626	520.7
776.808	494.07
776.99	553.46
777.173	483.83
777.355	543.22
777.537	610.81
777.719	479.74
777.901	528.89
778.083	502.26
778.265	483.83
778.447	430.59
778.629	496.12
778.811	569.85
778.993	541.18
779.175	457.21
779.357	434.68
779.539	414.2
779.721	432.63
779.903	401.91
780.085	473.59
780.267	406.01
780.449	512.5
780.631	492.02
780.812	494.07
780.994	444.92
781.176	535.03
781.358	469.5
781.54	358.91
781.721	408.06
781.903	494.07
782.085	475.64
782.267	487.93
782.448	344.57
782.63	369.15
782.812	399.87
782.993	410.11
783.175	406.01
783.357	422.39
783.538	418.3
783.72	434.68
783.901	393.72
784.083	440.83
784.264	422.39
784.446	332.28
784.627	383.48
784.809	406.01
784.99	356.86
785.172	428.54
785.353	373.24
785.535	334.33
785.716	340.47
785.897	332.28
786.079	375.29
786.26	412.15
786.441	446.97
786.623	268.8
786.804	326.14
786.985	291.32
787.167	356.86
787.348	371.19
787.529	297.47
787.71	293.37
787.891	356.86
788.073	330.23
788.254	330.23
788.435	346.62
788.616	334.33
788.797	317.95
788.978	258.56
789.159	379.39
789.34	332.28
789.522	252.41
789.703	242.17
789.884	307.71
790.065	295.42
790.246	350.71
790.427	317.95
790.607	389.63
790.788	315.9
790.969	283.13
791.15	332.28
791.331	285.18
791.512	348.67
791.693	311.8
791.874	283.13
792.054	340.47
792.235	430.59
792.416	272.89
792.597	217.6
792.778	266.75
792.958	307.71
793.139	238.08
793.32	346.62
793.5	213.5
793.681	289.28
793.862	252.41
794.042	217.6
794.223	176.64
794.404	238.08
794.584	252.41
794.765	242.17
794.945	227.84
795.126	311.8
795.306	315.9
795.487	276.99
795.667	242.17
795.848	205.31
796.028	231.93
796.209	244.22
796.389	250.36
796.57	229.88
796.75	211.45
796.93	188.93
797.111	147.97
797.291	193.02
797.471	229.88
797.652	221.69
797.832	233.98
798.012	311.8
798.192	209.4
798.373	219.64
798.553	250.36
798.733	274.94
798.913	207.36
799.093	225.79
799.274	283.13
799.454	291.32
799.634	152.06
799.814	217.6
799.994	211.45
800.174	225.79
800.354	287.23
800.534	154.11
800.714	250.36
800.894	238.08
801.074	145.92
801.254	203.26
801.434	172.54
801.614	86.53
801.794	160.25
801.974	768.5
802.154	164.35
802.334	236.03
802.514	80.38
802.693	176.64
802.873	154.11
803.053	184.83
803.233	193.02
803.413	186.88
803.592	201.21
803.772	172.54
803.952	176.64
804.131	121.34
804.311	209.4
804.491	233.98
804.67	113.15
804.85	160.25
805.03	176.64
805.209	217.6
805.389	186.88
805.568	213.5
805.748	213.5
805.928	186.88
806.107	139.77
806.287	88.57
806.466	205.31
806.646	186.88
806.825	197.12
807.004	193.02
807.184	229.88
807.363	170.49
807.543	203.26
807.722	156.16
807.901	231.93
808.081	100.86
808.26	147.97
808.439	121.34
808.619	143.87
808.798	127.49
808.977	129.53
809.156	209.4
809.336	160.25
809.515	152.06
809.694	184.83
809.873	156.16
810.052	188.93
810.231	201.21
810.411	111.1
810.59	113.15
810.769	125.44
810.948	176.64
811.127	57.86
811.306	143.87
811.485	152.06
811.664	143.87
811.843	176.64
812.022	186.88
812.201	145.92
812.38	111.1
812.559	137.73
812.737	111.1
812.916	55.81
813.095	193.02
813.274	104.96
813.453	102.91
813.632	156.16
813.811	188.93
813.989	88.57
814.168	143.87
814.347	53.76
814.526	168.45
814.704	170.49
814.883	154.11
815.062	94.72
815.24	53.76
815.419	133.63
815.598	117.25
815.776	119.29
815.955	141.82
816.133	78.33
816.312	135.68
816.49	80.38
816.669	107.01
816.847	92.67
817.026	72.19
817.204	86.53
817.383	121.34
817.561	104.96
817.74	86.53
817.918	150.01
818.097	102.91
818.275	86.53
818.453	53.76
818.632	170.49
818.81	61.95
818.988	117.25
819.167	109.05
819.345	219.64
819.523	109.05
819.701	66.05
819.879	76.29
820.058	39.42
820.236	53.76
820.414	90.62
820.592	31.23
820.77	135.68
820.948	98.81
821.127	66.05
821.305	61.95
821.483	152.06
821.661	168.45
821.839	70.14
822.017	111.1
822.195	66.05
822.373	57.86
822.551	119.29
822.729	162.3
822.907	104.96
823.085	111.1
823.262	80.38
823.44	143.87
823.618	-11.78
823.796	78.33
823.974	113.15
824.152	51.71
824.329	72.19
824.507	111.1
824.685	70.14
824.863	78.33
825.04	139.77
825.218	74.24
825.396	111.1
825.574	123.39
825.751	78.33
825.929	66.05
826.107	37.38
826.284	96.77
826.462	80.38
826.639	72.19
826.817	-42.5
826.994	80.38
827.172	80.38
827.349	125.44
827.527	137.73
827.704	117.25
827.882	27.14
828.059	96.77
828.237	139.77
828.414	72.19
828.591	55.81
828.769	92.67
828.946	16.9
829.124	90.62
829.301	113.15
829.478	37.38
829.655	125.44
829.833	137.73
830.01	33.28
830.187	152.06
830.364	86.53
830.542	66.05
830.719	135.68
830.896	80.38
831.073	72.19
831.25	61.95
831.427	102.91
831.604	39.42
831.782	131.58
831.959	78.33
832.136	74.24
832.313	88.57
832.49	107.01
832.667	70.14
832.844	43.52
833.021	49.66
833.198	43.52
833.374	78.33
833.551	88.57
833.728	78.33
833.905	70.14
834.082	6.66
834.259	59.9
834.436	104.96
834.612	86.53
834.789	107.01
834.966	4.61
835.143	16.9
835.319	4.61
835.496	98.81
835.673	117.25
835.85	113.15
836.026	29.18
836.203	117.25
836.38	49.66
836.556	70.14
836.733	78.33
836.909	90.62
837.086	66.05
837.262	57.86
837.439	57.86
837.616	86.53
837.792	35.33
837.968	88.57
838.145	0.51
838.321	53.76
838.498	121.34
838.674	57.86
838.851	29.18
839.027	49.66
839.203	64
839.38	41.47
839.556	20.99
839.732	78.33
839.909	61.95
840.085	70.14
840.261	49.66
840.437	29.18
840.614	43.52
840.79	111.1
840.966	53.76
841.142	39.42
841.318	70.14
841.494	102.91
841.671	47.62
841.847	115.2
842.023	61.95
842.199	88.57
842.375	111.1
842.551	-36.35
842.727	-1.54
842.903	119.29
843.079	4.61
843.255	98.81
843.431	61.95
843.607	33.28
843.783	4.61
843.959	29.18
844.134	12.8
844.31	88.57
844.486	72.19
844.662	61.95
844.838	-9.73
845.013	76.29
845.189	57.86
845.365	37.38
845.541	49.66
845.716	39.42
845.892	78.33
846.068	20.99
846.244	31.23
846.419	94.72
846.595	37.38
846.77	12.8
846.946	37.38
847.122	74.24
847.297	70.14
847.473	33.28
847.648	18.94
847.824	55.81
847.999	-32.26
848.175	143.87
848.35	70.14
848.526	74.24
848.701	135.68
848.876	29.18
849.052	49.66
849.227	98.81
849.403	111.1
849.578	45.57
849.753	6.66
849.929	53.76
850.104	4.61
850.279	45.57
850.454	102.91
850.63	156.16
850.805	45.57
850.98	64
851.155	14.85
851.33	39.42
851.505	86.53
851.681	113.15
851.856	61.95
852.031	111.1
852.206	29.18
852.381	55.81
852.556	57.86
852.731	53.76
852.906	2.56
853.081	61.95
853.256	8.7
853.431	102.91
853.606	14.85
853.781	43.52
853.956	59.9
854.131	39.42
854.305	20.99
854.48	23.04
854.655	12.8
854.83	39.42
855.005	43.52
855.18	-1.54
855.354	59.9
855.529	64
855.704	43.52
855.879	4.61
856.053	12.8
856.228	14.85
856.403	37.38
856.577	0.51
856.752	8.7
856.926	104.96
857.101	-50.69
857.276	18.94
857.45	31.23
857.625	113.15
857.799	31.23
857.974	4.61
858.148	-40.45
858.323	109.05
858.497	4.61
858.672	111.1
858.846	-36.35
859.02	37.38
859.195	31.23
859.369	72.19
859.543	61.95
859.718	-34.3
859.892	20.99
860.066	8.7
860.241	-54.78
860.415	-34.3
860.589	78.33
860.763	29.18
860.938	64
861.112	74.24
861.286	-5.63
861.46	-30.21
861.634	-26.11
861.808	72.19
861.982	-9.73
862.157	31.23
862.331	20.99
862.505	-17.92
862.679	-3.58
862.853	8.7
863.027	29.18
863.201	72.19
863.375	31.23
863.549	78.33
863.722	70.14
863.896	47.62
864.07	12.8
864.244	-26.11
864.418	20.99
864.592	18.94
864.766	-1.54
864.939	29.18
865.113	-9.73
865.287	18.94
865.461	49.66
865.634	61.95
865.808	23.04
865.982	-54.78
866.156	-11.78
866.329	96.77
866.503	115.2
866.676	0.51
866.85	-3.58
867.024	25.09
867.197	29.18
867.371	113.15
867.544	49.66
867.718	45.57
867.891	70.14
868.065	-67.07
868.238	-11.78
868.412	35.33
868.585	-7.68
868.759	8.7
868.932	-9.73
869.105	12.8
869.279	27.14
869.452	-44.54
869.625	61.95
869.799	96.77
869.972	66.05
870.145	23.04
870.319	51.71
870.492	-24.06
870.665	-3.58
870.838	8.7
871.011	-30.21
871.185	-3.58
871.358	-11.78
871.531	4.61
871.704	61.95
871.877	-9.73
872.05	-36.35
872.223	20.99
872.396	29.18
872.569	18.94
872.742	43.52
872.915	64
873.088	-15.87
873.261	43.52
873.434	37.38
873.607	72.19
873.78	29.18
873.953	47.62
874.126	20.99
874.299	64
874.471	-3.58
874.644	57.86
874.817	-26.11
874.99	111.1
875.163	-34.3
875.335	53.76
875.508	57.86
875.681	25.09
875.853	2.56
876.026	-19.97
876.199	45.57
876.371	70.14
876.544	8.7
876.717	102.91
876.889	-36.35
877.062	70.14
877.234	-11.78
877.407	70.14
877.579	16.9
877.752	-48.64
877.924	23.04
878.097	80.38
878.269	-3.58
878.442	53.76
878.614	-19.97
878.786	-15.87
878.959	90.62
879.131	12.8
879.303	-3.58
879.476	27.14
879.648	57.86
879.82	57.86
879.993	14.85
880.165	47.62
880.337	12.8
880.509	66.05
880.681	-19.97
880.854	88.57
881.026	70.14
881.198	78.33
881.37	33.28
881.542	68.09
881.714	14.85
881.886	86.53
882.058	12.8
882.23	-40.45
882.402	70.14
882.574	29.18
882.746	25.09
882.918	88.57
883.09	45.57
883.262	-42.5
883.434	35.33
883.606	-15.87
883.778	-24.06
883.95	115.2
884.122	57.86
884.293	16.9
884.465	-11.78
884.637	66.05
884.809	86.53
884.98	111.1
885.152	61.95
885.324	53.76
885.496	-5.63
885.667	12.8
885.839	57.86
886.011	57.86
886.182	33.28
886.354	102.91
886.525	-15.87
886.697	31.23
886.869	8.7
887.04	31.23
887.212	6.66
887.383	31.23
887.555	45.57
887.726	23.04
887.897	37.38
888.069	-34.3
888.24	78.33
888.412	-32.26
888.583	-36.35
888.754	111.1
888.926	6.66
889.097	-1.54
889.268	-26.11
889.44	41.47
889.611	0.51
889.782	-40.45
889.953	-3.58
890.125	25.09
890.296	72.19
890.467	37.38
890.638	6.66
890.809	64
890.98	16.9
891.151	55.81
891.323	20.99
891.494	39.42
891.665	37.38
891.836	33.28
892.007	49.66
892.178	-5.63
892.349	29.18
892.52	-13.82
892.691	53.76
892.862	-44.54
893.032	-7.68
893.203	4.61
893.374	18.94
893.545	61.95
893.716	-38.4
893.887	-3.58
894.057	-40.45
894.228	59.9
894.399	-48.64
894.57	6.66
894.74	39.42
894.911	66.05
895.082	39.42
895.253	-7.68
895.423	-38.4
895.594	61.95
895.764	53.76
895.935	-11.78
896.106	64
896.276	31.23
896.447	-28.16
896.617	37.38
896.788	-28.16
896.958	-13.82
897.129	-44.54
897.299	12.8
897.47	18.94
897.64	12.8
897.81	18.94
897.981	25.09
898.151	-26.11
898.322	29.18
898.492	45.57
898.662	-36.35
898.832	-28.16
899.003	-15.87
899.173	29.18
899.343	-36.35
899.513	12.8
