Data from USB4F104151__127__14-44-01-228.txt Node

Date: Thu Mar 13 14:44:01 EDT 2025
User: louis
Spectrometer: USB4F10415
Trigger mode: 4
Integration Time (sec): 2.000000E-2
Scans to average: 1
Electric dark correction enabled: true
Nonlinearity correction enabled: false
Boxcar width: 0
XAxis mode: Wavelengths
Number of Pixels in Spectrum: 3648
>>>>>Begin Spectral Data<<<<<
178.204	-69.63
178.424	-69.63
178.644	-69.63
178.864	-149.5
179.084	-124.93
179.304	-104.45
179.524	-47.1
179.744	-36.86
179.964	53.25
180.184	43.01
180.404	32.77
180.624	-6.14
180.844	43.01
181.064	-2.05
181.283	30.72
181.503	-18.43
181.723	12.29
181.943	18.43
182.163	43.01
182.383	-34.82
182.602	-16.38
182.822	-6.14
183.042	47.1
183.262	-51.2
183.482	-14.34
183.701	-26.62
183.921	-32.77
184.141	38.91
184.361	38.91
184.58	40.96
184.8	51.2
185.02	53.25
185.239	10.24
185.459	14.34
185.679	14.34
185.898	-86.01
186.118	45.06
186.338	4.1
186.557	34.82
186.777	18.43
186.997	36.86
187.216	10.24
187.436	20.48
187.655	36.86
187.875	65.54
188.095	51.2
188.314	-22.53
188.534	96.25
188.753	-96.25
188.973	67.58
189.192	30.72
189.412	16.38
189.631	26.62
189.851	-2.05
190.07	120.83
190.29	10.24
190.509	10.24
190.729	-28.67
190.948	43.01
191.168	124.93
191.387	43.01
191.607	10.24
191.826	12.29
192.045	45.06
192.265	18.43
192.484	4.1
192.704	77.82
192.923	-14.34
193.142	94.21
193.362	49.15
193.581	86.01
193.8	83.97
194.02	77.82
194.239	16.38
194.458	26.62
194.678	22.53
194.897	36.86
195.116	-12.29
195.335	10.24
195.555	28.67
195.774	77.82
195.993	-69.63
196.212	-53.25
196.432	-20.48
196.651	34.82
196.87	-12.29
197.089	102.4
197.308	28.67
197.528	-12.29
197.747	-6.14
197.966	-49.15
198.185	63.49
198.404	24.58
198.623	71.68
198.842	75.77
199.062	26.62
199.281	28.67
199.5	51.2
199.719	34.82
199.938	53.25
200.157	43.01
200.376	43.01
200.595	8.19
200.814	10.24
201.033	4.1
201.252	16.38
201.471	20.48
201.69	61.44
201.909	94.21
202.128	34.82
202.347	28.67
202.566	-10.24
202.785	28.67
203.004	4.1
203.223	67.58
203.442	34.82
203.661	22.53
203.879	90.11
204.098	38.91
204.317	2.05
204.536	51.2
204.755	-47.1
204.974	38.91
205.193	51.2
205.411	88.06
205.63	-14.34
205.849	45.06
206.068	61.44
206.287	-18.43
206.505	83.97
206.724	71.68
206.943	-2.05
207.162	36.86
207.381	4.1
207.599	10.24
207.818	59.39
208.037	-63.49
208.255	8.19
208.474	10.24
208.693	36.86
208.911	38.91
209.13	55.3
209.349	22.53
209.567	10.24
209.786	28.67
210.005	-4.1
210.223	6.14
210.442	-18.43
210.661	26.62
210.879	43.01
211.098	18.43
211.316	-10.24
211.535	43.01
211.753	2.05
211.972	10.24
212.191	18.43
212.409	10.24
212.628	61.44
212.846	47.1
213.065	12.29
213.283	45.06
213.502	4.1
213.72	14.34
213.938	-43.01
214.157	-6.14
214.375	-18.43
214.594	26.62
214.812	81.92
215.031	-10.24
215.249	30.72
215.467	6.14
215.686	-30.72
215.904	30.72
216.122	92.16
216.341	12.29
216.559	45.06
216.778	22.53
216.996	-18.43
217.214	-6.14
217.432	-75.77
217.651	2.05
217.869	34.82
218.087	45.06
218.306	-53.25
218.524	51.2
218.742	-28.67
218.96	79.87
219.179	-20.48
219.397	-10.24
219.615	63.49
219.833	34.82
220.051	26.62
220.27	98.3
220.488	51.2
220.706	30.72
220.924	-53.25
221.142	-36.86
221.36	-38.91
221.578	63.49
221.796	12.29
222.015	10.24
222.233	10.24
222.451	63.49
222.669	14.34
222.887	59.39
223.105	-36.86
223.323	96.25
223.541	6.14
223.759	34.82
223.977	102.4
224.195	57.34
224.413	38.91
224.631	92.16
224.849	10.24
225.067	102.4
225.285	-24.58
225.503	4.1
225.721	-53.25
225.939	2.05
226.157	4.1
226.375	92.16
226.592	65.54
226.81	26.62
227.028	43.01
227.246	59.39
227.464	2.05
227.682	8.19
227.9	0
228.117	51.2
228.335	-30.72
228.553	43.01
228.771	-38.91
228.989	-10.24
229.206	47.1
229.424	83.97
229.642	43.01
229.86	69.63
230.077	32.77
230.295	32.77
230.513	75.77
230.731	18.43
230.948	34.82
231.166	141.31
231.384	40.96
231.601	10.24
231.819	67.58
232.037	12.29
232.254	4.1
232.472	43.01
232.689	-4.1
232.907	47.1
233.125	0
233.342	100.35
233.56	2.05
233.777	-22.53
233.995	-12.29
234.213	-12.29
234.43	-4.1
234.648	-12.29
234.865	28.67
235.083	67.58
235.3	-40.96
235.518	34.82
235.735	28.67
235.953	116.73
236.17	20.48
236.388	-4.1
236.605	26.62
236.822	94.21
237.04	34.82
237.257	-18.43
237.475	36.86
237.692	18.43
237.909	83.97
238.127	26.62
238.344	30.72
238.562	10.24
238.779	-18.43
238.996	47.1
239.214	-40.96
239.431	83.97
239.648	-59.39
239.865	22.53
240.083	30.72
240.3	36.86
240.517	20.48
240.735	-6.14
240.952	75.77
241.169	59.39
241.386	-26.62
241.603	45.06
241.821	18.43
242.038	0
242.255	102.4
242.472	2.05
242.689	14.34
242.907	34.82
243.124	-6.14
243.341	-18.43
243.558	-67.58
243.775	53.25
243.992	-6.14
244.209	38.91
244.426	92.16
244.643	59.39
244.86	-6.14
245.078	-6.14
245.295	43.01
245.512	20.48
245.729	-18.43
245.946	-22.53
246.163	-8.19
246.38	34.82
246.597	59.39
246.814	12.29
247.031	-2.05
247.248	4.1
247.464	57.34
247.681	-14.34
247.898	-49.15
248.115	-18.43
248.332	-26.62
248.549	81.92
248.766	32.77
248.983	61.44
249.2	26.62
249.417	-6.14
249.633	86.01
249.85	45.06
250.067	36.86
250.284	22.53
250.501	67.58
250.717	51.2
250.934	-61.44
251.151	-20.48
251.368	-30.72
251.585	75.77
251.801	-12.29
252.018	12.29
252.235	92.16
252.451	28.67
252.668	-59.39
252.885	36.86
253.102	32.77
253.318	43.01
253.535	-36.86
253.752	-55.3
253.968	-18.43
254.185	-30.72
254.401	47.1
254.618	-26.62
254.835	2.05
255.051	83.97
255.268	26.62
255.484	75.77
255.701	92.16
255.917	-6.14
256.134	47.1
256.351	47.1
256.567	-4.1
256.784	79.87
257	-28.67
257.217	-2.05
257.433	28.67
257.65	43.01
257.866	112.64
258.082	0
258.299	-6.14
258.515	102.4
258.732	10.24
258.948	-20.48
259.165	22.53
259.381	20.48
259.597	98.3
259.814	-4.1
260.03	6.14
260.246	-2.05
260.463	8.19
260.679	55.3
260.895	-14.34
261.112	2.05
261.328	69.63
261.544	61.44
261.761	88.06
261.977	63.49
262.193	-53.25
262.409	106.49
262.626	53.25
262.842	67.58
263.058	24.58
263.274	79.87
263.49	34.82
263.707	75.77
263.923	67.58
264.139	-14.34
264.355	14.34
264.571	22.53
264.787	-2.05
265.004	79.87
265.22	-51.2
265.436	12.29
265.652	-47.1
265.868	51.2
266.084	4.1
266.3	-10.24
266.516	38.91
266.732	47.1
266.948	96.25
267.164	2.05
267.38	-26.62
267.596	10.24
267.812	92.16
268.028	51.2
268.244	12.29
268.46	88.06
268.676	-53.25
268.892	108.54
269.108	10.24
269.324	-30.72
269.54	63.49
269.756	61.44
269.972	12.29
270.188	83.97
270.403	-18.43
270.619	51.2
270.835	45.06
271.051	10.24
271.267	-30.72
271.483	-36.86
271.698	10.24
271.914	34.82
272.13	12.29
272.346	45.06
272.562	57.34
272.777	83.97
272.993	92.16
273.209	-71.68
273.425	-2.05
273.64	51.2
273.856	83.97
274.072	36.86
274.287	18.43
274.503	-14.34
274.719	104.45
274.934	51.2
275.15	32.77
275.366	18.43
275.581	45.06
275.797	18.43
276.012	-43.01
276.228	-30.72
276.444	-59.39
276.659	120.83
276.875	-22.53
277.09	18.43
277.306	10.24
277.521	-6.14
277.737	10.24
277.952	-45.06
278.168	-18.43
278.383	-4.1
278.599	86.01
278.814	4.1
279.03	18.43
279.245	34.82
279.461	-6.14
279.676	108.54
279.892	-30.72
280.107	102.4
280.322	-22.53
280.538	18.43
280.753	-22.53
280.969	51.2
281.184	26.62
281.399	139.26
281.615	32.77
281.83	-4.1
282.045	-43.01
282.26	-4.1
282.476	-26.62
282.691	59.39
282.906	40.96
283.122	8.19
283.337	69.63
283.552	-2.05
283.767	-18.43
283.983	53.25
284.198	4.1
284.413	55.3
284.628	34.82
284.843	10.24
285.058	-18.43
285.274	67.58
285.489	-38.91
285.704	43.01
285.919	18.43
286.134	-18.43
286.349	10.24
286.564	4.1
286.779	75.77
286.995	18.43
287.21	-71.68
287.425	-6.14
287.64	18.43
287.855	90.11
288.07	22.53
288.285	77.82
288.5	79.87
288.715	0
288.93	-32.77
289.145	-4.1
289.36	2.05
289.575	4.1
289.79	102.4
290.004	71.68
290.219	38.91
290.434	-10.24
290.649	57.34
290.864	-55.3
291.079	59.39
291.294	12.29
291.509	77.82
291.724	-6.14
291.938	10.24
292.153	-20.48
292.368	81.92
292.583	67.58
292.798	77.82
293.012	45.06
293.227	30.72
293.442	-10.24
293.657	38.91
293.871	143.36
294.086	10.24
294.301	26.62
294.516	77.82
294.73	124.93
294.945	-26.62
295.16	51.2
295.374	65.54
295.589	43.01
295.804	-51.2
296.018	-20.48
296.233	129.02
296.447	28.67
296.662	-67.58
296.877	47.1
297.091	-6.14
297.306	83.97
297.52	30.72
297.735	59.39
297.949	38.91
298.164	92.16
298.378	-20.48
298.593	32.77
298.807	-4.1
299.022	20.48
299.236	34.82
299.451	69.63
299.665	71.68
299.88	10.24
300.094	18.43
300.309	0
300.523	77.82
300.737	-40.96
300.952	-30.72
301.166	36.86
301.381	18.43
301.595	67.58
301.809	92.16
302.024	-6.14
302.238	-71.68
302.452	61.44
302.667	4.1
302.881	83.97
303.095	43.01
303.309	4.1
303.524	38.91
303.738	-4.1
303.952	47.1
304.166	14.34
304.381	4.1
304.595	59.39
304.809	-14.34
305.023	45.06
305.237	-10.24
305.452	-26.62
305.666	22.53
305.88	43.01
306.094	34.82
306.308	18.43
306.522	96.25
306.736	94.21
306.95	55.3
307.164	71.68
307.379	75.77
307.593	67.58
307.807	-32.77
308.021	8.19
308.235	-2.05
308.449	-2.05
308.663	26.62
308.877	59.39
309.091	34.82
309.305	10.24
309.519	16.38
309.733	79.87
309.947	-20.48
310.161	22.53
310.374	28.67
310.588	96.25
310.802	-36.86
311.016	10.24
311.23	36.86
311.444	16.38
311.658	55.3
311.872	59.39
312.085	61.44
312.299	71.68
312.513	67.58
312.727	26.62
312.941	-8.19
313.154	-69.63
313.368	38.91
313.582	71.68
313.796	-6.14
314.009	63.49
314.223	26.62
314.437	-4.1
314.651	26.62
314.864	12.29
315.078	-57.34
315.292	-28.67
315.505	20.48
315.719	75.77
315.933	81.92
316.146	-2.05
316.36	38.91
316.573	114.69
316.787	-71.68
317.001	10.24
317.214	69.63
317.428	69.63
317.641	2.05
317.855	67.58
318.068	47.1
318.282	51.2
318.495	71.68
318.709	28.67
318.922	18.43
319.136	77.82
319.349	-30.72
319.563	34.82
319.776	34.82
319.99	61.44
320.203	18.43
320.417	-8.19
320.63	45.06
320.843	77.82
321.057	38.91
321.27	67.58
321.483	10.24
321.697	-38.91
321.91	88.06
322.124	-4.1
322.337	-12.29
322.55	14.34
322.763	43.01
322.977	47.1
323.19	-47.1
323.403	-28.67
323.617	86.01
323.83	43.01
324.043	22.53
324.256	45.06
324.469	-51.2
324.683	112.64
324.896	26.62
325.109	-20.48
325.322	28.67
325.535	20.48
325.748	30.72
325.962	-18.43
326.175	-10.24
326.388	61.44
326.601	86.01
326.814	75.77
327.027	67.58
327.24	88.06
327.453	-55.3
327.666	55.3
327.879	10.24
328.092	59.39
328.305	32.77
328.518	-22.53
328.731	10.24
328.944	26.62
329.157	61.44
329.37	26.62
329.583	129.02
329.796	69.63
330.009	-14.34
330.222	108.54
330.435	-4.1
330.648	38.91
330.861	-10.24
331.073	20.48
331.286	18.43
331.499	67.58
331.712	-22.53
331.925	59.39
332.138	28.67
332.35	98.3
332.563	18.43
332.776	65.54
332.989	67.58
333.202	59.39
333.414	20.48
333.627	53.25
333.84	-18.43
334.053	55.3
334.265	59.39
334.478	34.82
334.691	51.2
334.903	26.62
335.116	86.01
335.329	4.1
335.541	49.15
335.754	104.45
335.966	6.14
336.179	6.14
336.392	77.82
336.604	20.48
336.817	43.01
337.029	55.3
337.242	-10.24
337.454	102.4
337.667	14.34
337.88	94.21
338.092	-2.05
338.305	112.64
338.517	43.01
338.729	36.86
338.942	75.77
339.154	18.43
339.367	0
339.579	53.25
339.792	-53.25
340.004	59.39
340.217	67.58
340.429	10.24
340.641	43.01
340.854	63.49
341.066	6.14
341.278	34.82
341.491	145.41
341.703	34.82
341.915	-49.15
342.128	6.14
342.34	14.34
342.552	20.48
342.764	-20.48
342.977	51.2
343.189	75.77
343.401	43.01
343.613	-30.72
343.826	26.62
344.038	73.73
344.25	34.82
344.462	-10.24
344.674	59.39
344.886	16.38
345.099	94.21
345.311	-10.24
345.523	83.97
345.735	16.38
345.947	63.49
346.159	10.24
346.371	30.72
346.583	22.53
346.795	18.43
347.007	-22.53
347.219	59.39
347.431	-22.53
347.643	-6.14
347.855	-28.67
348.067	71.68
348.279	51.2
348.491	-4.1
348.703	28.67
348.915	28.67
349.127	43.01
349.339	28.67
349.551	4.1
349.763	83.97
349.975	47.1
350.187	59.39
350.399	30.72
350.61	83.97
350.822	59.39
351.034	36.86
351.246	51.2
351.458	43.01
351.669	8.19
351.881	10.24
352.093	100.35
352.305	26.62
352.517	104.45
352.728	20.48
352.94	104.45
353.152	36.86
353.363	-2.05
353.575	14.34
353.787	71.68
353.999	57.34
354.21	-4.1
354.422	-6.14
354.633	6.14
354.845	34.82
355.057	-6.14
355.268	67.58
355.48	10.24
355.692	55.3
355.903	-38.91
356.115	45.06
356.326	-30.72
356.538	43.01
356.749	79.87
356.961	26.62
357.172	-2.05
357.384	-38.91
357.595	79.87
357.807	96.25
358.018	53.25
358.23	108.54
358.441	83.97
358.653	36.86
358.864	26.62
359.075	2.05
359.287	55.3
359.498	126.97
359.709	34.82
359.921	22.53
360.132	34.82
360.344	10.24
360.555	-28.67
360.766	43.01
360.977	94.21
361.189	8.19
361.4	36.86
361.611	10.24
361.823	124.93
362.034	67.58
362.245	59.39
362.456	-6.14
362.667	51.2
362.879	-16.38
363.09	36.86
363.301	112.64
363.512	36.86
363.723	12.29
363.935	18.43
364.146	63.49
364.357	67.58
364.568	51.2
364.779	30.72
364.99	124.93
365.201	8.19
365.412	116.73
365.623	-59.39
365.834	12.29
366.045	40.96
366.256	18.43
366.467	2.05
366.678	-10.24
366.889	14.34
367.1	59.39
367.311	61.44
367.522	-12.29
367.733	67.58
367.944	14.34
368.155	30.72
368.366	59.39
368.577	77.82
368.788	47.1
368.999	-47.1
369.209	108.54
369.42	133.12
369.631	2.05
369.842	34.82
370.053	112.64
370.264	47.1
370.474	10.24
370.685	83.97
370.896	14.34
371.107	61.44
371.317	67.58
371.528	67.58
371.739	18.43
371.95	67.58
372.16	83.97
372.371	-10.24
372.582	26.62
372.792	47.1
373.003	67.58
373.214	75.77
373.424	-12.29
373.635	34.82
373.846	108.54
374.056	61.44
374.267	43.01
374.477	73.73
374.688	0
374.898	55.3
375.109	36.86
375.319	10.24
375.53	61.44
375.74	55.3
375.951	51.2
376.161	4.1
376.372	43.01
376.582	2.05
376.793	81.92
377.003	49.15
377.214	38.91
377.424	-6.14
377.635	98.3
377.845	34.82
378.055	6.14
378.266	6.14
378.476	-38.91
378.686	26.62
378.897	77.82
379.107	110.59
379.317	98.3
379.528	26.62
379.738	55.3
379.948	81.92
380.158	10.24
380.369	-79.87
380.579	61.44
380.789	-22.53
380.999	75.77
381.21	63.49
381.42	141.31
381.63	26.62
381.84	112.64
382.05	100.35
382.261	88.06
382.471	77.82
382.681	28.67
382.891	0
383.101	24.58
383.311	-47.1
383.521	63.49
383.731	73.73
383.941	102.4
384.151	18.43
384.361	8.19
384.571	34.82
384.781	-55.3
384.991	55.3
385.201	106.49
385.411	94.21
385.621	4.1
385.831	14.34
386.041	34.82
386.251	57.34
386.461	6.14
386.671	36.86
386.881	67.58
387.091	110.59
387.301	-4.1
387.511	36.86
387.72	51.2
387.93	67.58
388.14	59.39
388.35	10.24
388.56	86.01
388.769	92.16
388.979	110.59
389.189	43.01
389.399	-6.14
389.609	145.41
389.818	98.3
390.028	98.3
390.238	77.82
390.447	100.35
390.657	69.63
390.867	12.29
391.076	55.3
391.286	63.49
391.496	40.96
391.705	28.67
391.915	133.12
392.125	131.07
392.334	110.59
392.544	98.3
392.753	104.45
392.963	-6.14
393.172	124.93
393.382	116.73
393.591	141.31
393.801	61.44
394.01	129.02
394.22	61.44
394.429	96.25
394.639	104.45
394.848	59.39
395.058	137.21
395.267	38.91
395.477	83.97
395.686	59.39
395.895	161.79
396.105	59.39
396.314	40.96
396.524	53.25
396.733	61.44
396.942	26.62
397.152	43.01
397.361	143.36
397.57	116.73
397.78	102.4
397.989	102.4
398.198	165.89
398.407	75.77
398.617	149.5
398.826	22.53
399.035	131.07
399.244	151.55
399.453	36.86
399.663	137.21
399.872	92.16
400.081	59.39
400.29	110.59
400.499	18.43
400.708	194.56
400.917	69.63
401.127	108.54
401.336	120.83
401.545	118.78
401.754	116.73
401.963	151.55
402.172	73.73
402.381	149.5
402.59	118.78
402.799	139.26
403.008	63.49
403.217	178.17
403.426	135.17
403.635	49.15
403.844	112.64
404.053	71.68
404.262	124.93
404.471	249.85
404.68	83.97
404.888	118.78
405.097	188.41
405.306	157.69
405.515	182.27
405.724	157.69
405.933	139.26
406.142	212.99
406.35	190.46
406.559	231.42
406.768	108.54
406.977	202.75
407.185	157.69
407.394	165.89
407.603	153.6
407.812	192.51
408.02	251.9
408.229	194.56
408.438	245.76
408.646	192.51
408.855	253.95
409.064	217.08
409.272	260.09
409.481	339.96
409.69	299
409.898	296.96
410.107	296.96
410.315	241.66
410.524	337.91
410.733	362.49
410.941	272.38
411.15	325.63
411.358	399.35
411.567	452.6
411.775	417.79
411.984	403.45
412.192	452.6
412.401	454.65
412.609	460.79
412.818	411.64
413.026	501.75
413.234	534.52
413.443	520.18
413.651	514.04
413.86	604.15
414.068	526.33
414.276	618.49
414.485	636.92
414.693	714.74
414.901	731.12
415.11	765.94
415.318	755.7
415.526	710.65
415.734	792.56
415.943	804.85
416.151	845.81
416.359	841.72
416.567	815.09
416.776	970.74
416.984	903.15
417.192	1050.61
417.4	890.87
417.608	890.87
417.817	993.26
418.025	1103.86
418.233	1210.35
418.441	1126.38
418.649	1173.49
418.857	1230.83
419.065	1306.6
419.273	1218.54
419.481	1308.65
419.689	1404.91
419.897	1464.3
420.105	1517.54
420.313	1460.2
420.521	1671.14
420.729	1644.52
420.937	1660.9
421.145	1742.82
421.353	1818.6
421.561	1943.52
421.769	1935.33
421.977	2148.32
422.185	2000.87
422.393	2181.09
422.601	2232.29
422.809	2271.2
423.017	2314.2
423.224	2306.01
423.432	2475.99
423.64	2443.23
423.848	2672.6
424.056	2656.22
424.263	2861.01
424.471	2795.48
424.679	2969.55
424.887	3092.43
425.094	3135.44
425.302	3246.03
425.51	3278.8
425.718	3405.77
425.925	3321.81
426.133	3647.43
426.341	3880.9
426.548	3905.48
426.756	4040.64
426.964	3872.71
427.171	4059.07
427.379	4368.32
427.586	4327.36
427.794	4370.37
428.001	4634.55
428.209	4847.54
428.417	4845.49
428.624	4970.42
428.832	5207.98
429.039	5226.42
429.247	5097.39
429.454	5541.8
429.662	5785.51
429.869	5588.91
430.076	5810.09
430.284	5912.49
430.491	5965.73
430.699	6191.01
430.906	6340.51
431.114	6461.34
431.321	6838.17
431.528	6975.38
431.736	7280.53
431.943	7638.92
432.15	7393.17
432.358	7432.08
432.565	7821.19
432.772	7800.71
432.979	8433.54
433.187	8333.18
433.394	8398.72
433.601	9088.89
433.808	9172.85
434.016	9277.3
434.223	9348.98
434.43	10041.19
434.637	9570.16
434.844	10327.91
435.052	10432.35
435.259	10438.5
435.466	10626.91
435.673	10643.29
435.88	11030.36
436.087	11687.76
436.294	11777.87
436.501	11509.58
436.708	11538.26
436.915	12117.83
437.122	12621.63
437.329	12525.38
437.537	13057.85
437.743	13135.67
437.95	12961.59
438.157	13625.14
438.364	14325.54
438.571	14044.97
438.778	14442.28
438.985	15585.04
439.192	14739.23
439.399	15247.13
439.606	14858.01
439.813	15838.99
440.02	16961.28
440.227	16578.31
440.433	16295.69
440.64	17010.43
440.847	16922.37
441.054	17116.92
441.261	18589.41
441.467	18226.92
441.674	18362.09
441.881	19207.9
442.088	19359.45
442.294	18769.63
442.501	19511
442.708	19904.21
442.914	20483.78
443.121	21622.45
443.328	20909.76
443.534	22380.2
443.741	21782.2
443.948	21333.69
444.154	22908.58
444.361	22824.61
444.568	22757.03
444.774	22957.73
444.981	23199.39
445.187	23950.99
445.394	24839.81
445.6	24505.99
445.807	27184.74
446.013	25869.94
446.22	26027.63
446.426	27489.88
446.633	27702.87
446.839	28466.77
447.046	27121.25
447.252	28757.58
447.459	28966.47
447.665	28593.74
447.871	29793.85
448.078	31292.96
448.284	29656.64
448.491	30334.51
448.697	31852.06
448.903	32198.16
449.11	32648.72
449.316	31942.17
449.522	32484.88
449.728	33123.85
449.935	33582.59
450.141	33631.74
450.347	34536.94
450.553	33164.81
450.76	33590.78
450.966	35171.82
451.172	34242.04
451.378	35519.97
451.584	34530.8
451.791	35378.66
451.997	35382.76
452.203	35847.64
452.409	36048.35
452.615	35843.55
452.821	34647.54
453.027	33918.46
453.233	36117.98
453.44	34747.89
453.646	35225.06
453.852	35274.21
454.058	35765.73
454.264	34807.28
454.47	35669.47
454.676	34835.95
454.882	35931.61
455.088	32777.74
455.294	33345.03
455.5	34135.54
455.705	34123.26
455.911	32908.81
456.117	32349.71
456.323	31659.55
456.529	29988.41
456.735	31508
456.941	30420.53
457.147	30387.76
457.352	29357.63
457.558	29003.33
457.764	29263.43
457.97	28730.95
458.176	28241.49
458.381	27803.22
458.587	26617.45
458.793	26482.28
458.999	25300.61
459.204	27119.2
459.41	26224.24
459.616	24716.93
459.821	24573.58
460.027	24518.28
460.233	23924.37
460.438	23019.17
460.644	23123.62
460.85	22222.51
461.055	21825.2
461.261	21626.55
461.466	19898.06
461.672	19594.96
461.878	20731.59
462.083	19779.28
462.289	18974.43
462.494	18722.53
462.7	18212.59
462.905	17837.81
463.111	18392.81
463.316	18067.18
463.522	17936.11
463.727	18044.65
463.932	17905.39
464.138	17696.5
464.343	17860.34
464.549	17256.18
464.754	17993.45
464.959	17579.76
465.165	17585.91
465.37	16623.36
465.575	16234.25
465.781	16815.87
465.986	17137.4
466.191	16420.61
466.397	16217.86
466.602	15384.34
466.807	15943.44
467.012	16051.98
467.218	15697.68
467.423	15652.63
467.628	15662.86
467.833	16596.74
468.038	15669.01
468.244	15402.77
468.449	15945.48
468.654	15107.87
468.859	15324.95
469.064	15294.23
469.269	14571.3
469.474	15021.85
469.679	15150.87
469.885	14544.67
470.09	14671.65
470.295	14757.66
470.5	14231.33
470.705	14530.34
470.91	14225.19
471.115	13989.67
471.32	14364.45
471.525	14036.78
471.73	13717.29
471.935	13633.33
472.139	13199.16
472.344	13440.82
472.549	13262.65
472.754	13420.34
472.959	13264.69
473.164	12676.93
473.369	12523.33
473.574	13127.48
473.778	12625.73
473.983	12760.89
474.188	12707.65
474.393	11976.52
474.598	12216.13
474.802	12035.91
475.007	12046.15
475.212	12068.68
475.417	11661.13
475.621	11863.88
475.826	11738.96
476.031	11515.73
476.235	11081.56
476.44	11380.56
476.645	10893.15
476.849	11251.54
477.054	11048.79
477.259	10856.28
477.463	10954.58
477.668	10766.17
477.872	10682.2
478.077	10504.03
478.282	10164.07
478.486	10125.16
478.691	10227.56
478.895	10245.99
479.1	10176.36
479.304	10180.45
479.509	9750.38
479.713	9817.96
479.918	9709.42
480.122	9553.77
480.326	9701.23
480.531	9924.46
480.735	9422.7
480.94	9555.82
481.144	9807.72
481.348	9351.03
481.553	9351.03
481.757	9377.65
481.961	9371.5
482.166	9570.16
482.37	9144.18
482.574	9224.05
482.778	9328.5
482.983	9451.38
483.187	9414.51
483.391	9260.91
483.595	9254.77
483.8	9299.83
484.004	9176.95
484.208	9322.35
484.412	9344.88
484.616	9232.24
484.821	9291.63
485.025	9258.87
485.229	9217.91
485.433	9095.03
485.637	9269.11
485.841	9254.77
486.045	9205.62
486.249	9162.61
486.453	9375.6
486.657	9179
486.861	9277.3
487.065	8996.73
487.269	9236.34
487.473	9111.41
487.677	9424.75
487.881	9359.22
488.085	9162.61
488.289	9246.58
488.493	9381.74
488.697	9336.69
488.901	9238.39
489.105	9164.66
489.309	9213.81
489.512	9318.26
489.716	9273.2
489.92	9449.33
490.124	9160.56
490.328	9353.07
490.531	9422.7
490.735	9469.81
490.939	9406.32
491.143	9473.9
491.346	9340.79
491.55	9725.8
491.754	9633.64
491.958	9883.5
492.161	9525.1
492.365	9903.98
492.569	9719.66
492.772	9693.04
492.976	9777
493.18	9752.43
493.383	9869.16
493.587	9938.79
493.79	10055.53
493.994	9985.9
494.197	10137.45
494.401	10356.58
494.605	10235.75
494.808	10334.05
495.012	10209.12
495.215	10465.12
495.419	10512.22
495.622	10467.17
495.825	10645.34
496.029	10575.71
496.232	10717.02
496.436	11122.52
496.639	11020.12
496.843	11063.13
497.046	11382.61
497.249	11294.55
497.453	11581.26
497.656	11642.7
497.859	11497.3
498.063	11732.81
498.266	11997
498.469	11884.36
498.673	12134.21
498.876	12154.69
499.079	12339.01
499.282	12265.28
499.485	12697.41
499.689	12465.99
499.892	12730.17
500.095	12945.21
500.298	13219.64
500.501	12814.14
500.705	13555.51
500.908	13645.62
501.111	13594.42
501.314	13698.86
501.517	13983.53
501.72	13954.86
501.923	14026.54
502.126	14561.06
502.329	14649.12
502.532	14681.89
502.735	14815.01
502.938	15222.55
503.141	14862.11
503.344	15406.87
503.547	15152.92
503.75	15503.12
503.953	15800.08
504.156	15769.36
504.359	16117.51
504.562	16172.81
504.765	16488.2
504.968	16649.99
505.17	16678.66
505.373	16836.35
505.576	16940.8
505.779	17153.79
505.982	17180.41
506.185	17825.52
506.387	17938.16
506.59	17895.15
506.793	18071.28
506.996	18409.19
507.198	18532.07
507.401	18495.21
507.604	18962.14
507.807	19148.51
508.009	19568.34
508.212	19502.81
508.415	19850.96
508.617	19842.77
508.82	19920.59
509.022	19969.74
509.225	20514.5
509.428	20641.48
509.63	20721.35
509.833	20829.89
510.035	21491.38
510.238	21108.41
510.44	21655.22
510.643	21841.59
510.845	22337.2
511.048	22177.45
511.25	22230.7
511.453	22482.6
511.655	23101.09
511.858	23078.56
512.06	23232.16
512.262	23410.33
512.465	23244.45
512.667	23793.3
512.87	24045.2
513.072	23973.52
513.274	24401.55
513.477	24559.24
513.679	25241.21
513.881	25212.54
514.084	25476.73
514.286	25364.09
514.488	25843.32
514.69	26502.76
514.893	26381.93
515.095	26470
515.297	26291.82
515.499	26951.27
515.701	27149.92
515.904	27549.28
516.106	27690.59
516.308	28102.23
516.51	28104.28
516.712	28055.12
516.914	28413.52
517.116	28796.49
517.318	29009.48
517.52	29408.83
517.722	29193.79
517.925	29685.31
518.127	29840.95
518.329	30195.25
518.531	30029.37
518.733	30770.73
518.935	30793.26
519.136	30883.37
519.338	31071.78
519.54	31172.13
519.742	31600.16
519.944	31825.43
520.146	32503.31
520.348	32470.54
520.55	32517.65
520.752	32753.16
520.954	33197.57
521.155	32863.75
521.357	33558.02
521.559	33920.51
521.761	34326
521.963	34045.43
522.164	34012.66
522.366	34330.1
522.568	34838
522.77	34872.81
522.971	35603.94
523.173	35395.04
523.375	35306.98
523.576	35796.45
523.778	35970.52
523.98	36427.22
524.181	36408.79
524.383	36619.73
524.584	36681.17
524.786	36892.11
524.988	36607.44
525.189	36859.34
525.391	37500.36
525.592	37723.58
525.794	37615.04
525.995	37895.61
526.197	37656
526.398	37934.53
526.6	38063.55
526.801	38147.51
527.003	38354.36
527.204	38194.62
527.406	38958.51
527.607	38440.37
527.808	39101.87
528.01	38268.34
528.211	38454.71
528.412	39581.09
528.614	39677.35
528.815	39155.11
529.016	39642.53
529.218	39087.53
529.419	39556.52
529.62	39583.14
529.822	39484.84
530.023	39667.11
530.224	39527.84
530.425	39591.33
530.626	39777.7
530.828	39542.18
531.029	40664.47
531.23	39878.05
531.431	39701.92
531.632	40562.07
531.833	40117.66
532.035	40424.86
532.236	39914.91
532.437	40152.48
532.638	40086.94
532.839	40256.92
533.04	40631.7
533.241	40070.56
533.442	40365.46
533.643	40469.91
533.844	40443.29
534.045	40512.92
534.246	40330.65
534.447	40355.22
534.648	40459.67
534.849	40803.73
535.05	40498.58
535.251	40574.36
535.451	39910.81
535.652	40850.83
535.853	40236.44
536.054	40375.7
536.255	40813.97
536.456	40209.82
536.657	40555.93
536.857	40441.24
537.058	40228.25
537.259	40508.82
537.46	40779.15
537.66	40428.95
537.861	40811.92
538.062	40549.78
538.263	40850.83
538.463	40695.19
538.664	40328.6
538.865	40396.18
539.065	40592.79
539.266	40439.19
539.466	40580.5
539.667	40002.97
539.868	40494.49
540.068	40181.15
540.269	40304.02
540.469	40582.55
540.67	40168.86
540.87	40138.14
541.071	40598.93
541.271	40533.4
541.472	40205.72
541.672	39869.86
541.873	40011.17
542.073	39740.83
542.274	40533.4
542.474	40158.62
542.675	39722.4
542.875	40557.97
543.075	39927.2
543.276	39566.76
543.476	40422.81
543.676	39695.78
543.877	40050.08
544.077	40074.65
544.277	39665.06
544.478	39959.97
544.678	40097.18
544.878	40005.02
545.078	40158.62
545.279	40000.93
545.479	39540.13
545.679	40312.22
545.879	39974.3
546.079	39990.69
546.28	39701.92
546.48	39769.51
546.68	40082.84
546.88	39998.88
547.08	39986.59
547.28	39871.9
547.48	39499.17
547.68	39775.65
547.88	39691.68
548.081	40009.12
548.281	39583.14
548.481	39640.48
548.681	40037.79
548.881	39675.3
549.081	39435.69
549.28	39054.76
549.48	39644.58
549.68	39460.26
549.88	40105.37
550.08	39480.74
550.28	39546.28
550.48	39538.08
550.68	40023.45
550.88	39327.14
551.08	39570.85
551.279	39427.49
551.479	39128.49
551.679	39568.8
551.879	39398.82
552.079	39759.27
552.278	39433.64
552.478	39753.12
552.678	39218.6
552.878	39464.36
553.077	39540.13
553.277	39214.51
553.477	39669.15
553.676	39019.95
553.876	39318.95
554.076	39439.78
554.275	39191.98
554.475	38733.23
554.674	39034.28
554.874	39099.82
555.074	39062.96
555.273	39392.68
555.473	38899.12
555.672	39077.29
555.872	38985.13
556.071	38872.49
556.271	39179.69
556.47	38555.06
556.67	38413.75
556.869	38757.81
557.068	38825.39
557.268	38417.85
557.467	38747.57
557.667	38649.27
557.866	38417.85
558.065	38262.2
558.265	38344.12
558.464	38469.04
558.663	38913.45
558.863	38245.82
559.062	38733.23
559.261	38516.15
559.461	38798.77
559.66	37817.79
559.859	37967.29
560.058	37879.23
560.258	37977.53
560.457	37715.39
560.656	37834.17
560.855	38024.64
561.054	38047.16
561.253	37639.62
561.453	37760.45
561.652	38022.59
561.851	37848.51
562.05	37432.77
562.249	37270.98
562.448	37713.34
562.647	37635.52
562.846	37352.9
563.045	37727.68
563.244	36931.02
563.443	37524.93
563.642	36670.93
563.841	37365.19
564.04	36791.76
564.239	37234.12
564.438	36771.28
564.637	37223.88
564.836	36744.66
565.035	36715.98
565.234	36795.85
565.432	36502.99
565.631	36494.8
565.83	36689.36
566.029	36421.08
566.228	36404.69
566.427	36001.24
566.625	35687.9
566.824	35954.14
567.023	36251.09
567.222	35503.59
567.42	36447.7
567.619	35970.52
567.818	36021.72
568.016	35460.58
568.215	36130.26
568.414	35800.54
568.612	35841.5
568.811	35605.98
569.01	35778.01
569.208	35083.75
569.407	35569.12
569.605	35208.68
569.804	35702.24
570.002	34954.73
570.201	35151.34
570.4	34881
570.598	34930.15
570.797	34541.04
570.995	34891.24
571.193	34493.94
571.392	34682.35
571.59	34692.59
571.789	34715.12
571.987	34481.65
572.186	34508.27
572.384	34180.6
572.582	34104.82
572.781	34158.07
572.979	33783.29
573.177	34098.68
573.376	34113.02
573.574	33801.72
573.772	34129.4
573.971	33578.5
574.169	33392.13
574.367	33216.01
574.565	33881.59
574.763	33551.87
574.962	33273.35
575.16	33150.47
575.358	33291.78
575.556	32919.05
575.754	33312.26
575.952	32980.49
576.151	33226.24
576.349	32552.46
576.547	32650.77
576.745	32574.99
576.943	33152.52
577.141	32618
577.339	32439.82
577.537	32275.99
577.735	32425.49
577.933	32171.54
578.131	32390.67
578.329	32101.91
578.527	31850.01
578.725	31866.39
578.923	32013.85
579.121	31909.4
579.319	31620.64
579.516	31632.93
579.714	31387.17
579.912	31741.47
580.11	31641.12
580.308	31292.96
580.506	31530.53
580.704	30791.21
580.901	31178.28
581.099	31319.59
581.297	31073.83
581.495	30973.48
581.692	31213.09
581.89	30295.6
582.088	30967.34
582.285	30813.74
582.483	30711.34
582.681	30658.09
582.878	30705.2
583.076	30193.2
583.274	30346.8
583.471	30094.9
583.669	30389.81
583.866	30015.03
584.064	30180.92
584.262	29765.18
584.459	30150.2
584.657	29722.17
584.854	29761.08
585.052	29476.41
585.249	29716.03
585.447	29609.53
585.644	29253.19
585.841	29402.69
586.039	29597.24
586.236	29124.16
586.434	29001.29
586.631	28730.95
586.828	28966.47
587.026	29056.58
587.223	28585.55
587.42	28585.55
587.618	28741.19
587.815	28390.99
588.012	28479.05
588.21	28167.76
588.407	28479.05
588.604	28141.14
588.801	28194.39
588.999	28102.23
589.196	28071.51
589.393	27932.25
589.59	27911.77
589.787	28198.48
589.984	27516.51
590.182	27444.83
590.379	27453.02
590.576	27475.55
590.773	27352.67
590.97	27182.69
591.167	27299.42
591.364	26900.07
591.561	27090.53
591.758	27016.8
591.955	26687.08
592.152	27180.64
592.349	26611.31
592.546	26865.25
592.743	26674.79
592.94	26316.4
593.137	26609.26
593.334	26506.86
593.531	25960.05
593.727	26484.33
593.924	26545.77
594.121	26199.66
594.318	26021.49
594.515	25515.64
594.712	26029.68
594.908	25775.73
595.105	25767.54
595.302	25511.55
595.499	25738.87
595.696	25640.57
595.892	25521.79
596.089	25521.79
596.286	25288.32
596.482	25343.61
596.679	25403
596.876	25335.42
597.072	24749.7
597.269	25185.92
597.466	25069.19
597.662	24706.69
597.859	24764.04
598.055	24962.69
598.252	24516.23
598.448	25009.79
598.645	24577.67
598.841	24307.34
599.038	24372.88
599.234	24397.45
599.431	24280.72
599.627	24088.21
599.824	24133.26
600.02	23918.23
600.217	23862.93
600.413	24049.3
600.609	23744.15
600.806	23893.65
601.002	23578.26
601.198	23301.79
601.395	23350.94
601.591	23553.69
601.787	23400.09
601.984	23305.88
602.18	23324.32
602.376	23176.86
602.572	22933.15
602.769	23115.42
602.965	22841
603.161	22924.96
603.357	22742.69
603.553	22744.74
603.75	22859.43
603.946	22822.56
604.142	22548.14
604.338	22490.79
604.534	22468.27
604.73	22171.31
604.926	21968.56
605.122	22423.21
605.318	22249.13
605.514	22054.58
605.71	21948.08
605.906	21745.33
606.102	21827.25
606.298	22075.06
606.494	21784.24
606.69	21647.03
606.886	21823.15
607.082	21804.72
607.278	21692.08
607.474	21259.96
607.67	21366.46
607.866	21374.65
608.062	21733.04
608.257	21444.28
608.453	21112.51
608.649	21366.46
608.845	21003.97
609.041	21259.96
609.236	21321.4
609.432	21067.45
609.628	21184.19
609.824	21034.69
610.019	20795.07
610.215	20885.19
610.411	20960.96
610.606	20631.24
610.802	20854.47
610.998	20790.98
611.193	20717.25
611.389	20434.63
611.584	20604.61
611.78	20479.69
611.976	20500.17
612.171	20833.99
612.367	20461.26
612.562	20141.77
612.758	20109.01
612.953	20066
613.149	20182.73
613.344	19928.78
613.539	20465.35
613.735	20104.91
613.93	20305.61
614.126	20014.8
614.321	19914.45
614.517	19975.89
614.712	19754.71
614.907	19777.23
615.103	20096.72
615.298	20035.28
615.493	19947.22
615.688	19947.22
615.884	20063.95
616.079	19859.15
616.274	20192.97
616.47	19842.77
616.665	19713.75
616.86	19314.39
617.055	19541.72
617.25	19355.35
617.445	19674.84
617.641	19105.5
617.836	19515.09
618.031	19150.56
618.226	19443.42
618.421	18968.29
618.616	19218.14
618.811	18861.79
619.006	19318.49
619.201	18663.14
619.396	18974.43
619.591	18599.65
619.786	18839.26
619.981	18575.08
620.176	18663.14
620.371	18468.58
620.566	18568.93
620.761	18362.09
620.956	18515.69
621.151	18024.17
621.346	17860.34
621.541	17755.89
621.735	18183.91
621.93	17592.05
622.125	17766.13
622.32	17678.07
622.515	17723.12
622.709	17344.25
622.904	17583.86
623.099	17223.42
623.294	17258.23
623.488	17284.86
623.683	17127.16
623.878	16774.91
624.072	17082.11
624.267	16731.9
624.462	16746.24
624.656	16439.05
624.851	16457.48
625.046	16312.07
625.24	16256.78
625.435	16228.1
625.629	16248.58
625.824	16154.38
626.018	16135.95
626.213	15709.97
626.407	16094.99
626.602	15607.57
626.796	15660.82
626.991	15699.73
627.185	15552.27
627.38	15329.05
627.574	15675.15
627.768	15191.83
627.963	15154.97
628.157	15099.67
628.352	14997.28
628.546	14851.87
628.74	15040.28
628.935	14798.62
629.129	14757.66
629.323	14565.15
629.517	14796.57
629.712	14483.23
629.906	14346.02
630.1	14212.9
630.294	14288.68
630.489	14212.9
630.683	14083.88
630.877	14026.54
631.071	13954.86
631.265	13971.24
631.459	13649.71
631.653	13795.12
631.848	13739.82
632.042	13627.18
632.236	13700.91
632.43	13152.06
632.624	13457.2
632.818	13256.5
633.012	13211.45
633.206	12922.68
633.4	13096.76
633.594	12930.87
633.788	13078.33
633.982	12973.88
634.176	12871.48
634.369	12582.72
634.563	12953.4
634.757	12597.06
634.951	12701.5
635.145	12595.01
635.339	12599.1
635.533	12117.83
635.726	12365.64
635.92	12234.57
636.114	12250.95
636.308	12128.07
636.501	12238.66
636.695	12240.71
636.889	11960.14
637.083	11910.99
637.276	11867.98
637.47	11814.73
637.664	11626.32
637.857	11650.89
638.051	11781.96
638.244	11611.98
638.438	11351.89
638.632	11444.05
638.825	11417.43
639.019	11413.33
639.212	11358.03
639.406	11317.08
639.599	11392.85
639.793	11159.38
639.986	11048.79
640.18	11302.74
640.373	11022.17
640.567	10917.72
640.76	10889.05
640.954	10598.24
641.147	10577.76
641.34	10573.66
641.534	10631.01
641.727	10473.31
641.92	10618.72
642.114	10389.35
642.307	10213.22
642.5	10250.08
642.694	10063.72
642.887	10030.95
643.08	10098.53
643.273	10086.25
643.467	10192.74
643.66	9934.7
643.853	9949.03
644.046	9824.11
644.239	9752.43
644.432	9787.24
644.626	9774.95
644.819	9617.26
645.012	9619.31
645.205	9611.12
645.398	9516.91
645.591	9451.38
645.784	9576.3
645.977	9418.61
646.17	9445.23
646.363	9179
646.556	9181.04
646.749	9258.87
646.942	9422.7
647.135	9107.32
647.328	9062.26
647.521	8910.71
647.714	8808.31
647.907	8890.23
648.099	8750.97
648.292	8791.93
648.485	8767.35
648.678	8722.3
648.871	8697.72
649.064	8648.57
649.256	8621.95
649.449	8564.61
649.642	8447.87
649.835	8275.84
650.027	8394.62
650.22	8382.34
650.413	8361.86
650.605	8425.34
650.798	8183.68
650.991	8134.53
651.183	8142.72
651.376	8128.39
651.568	8161.16
651.761	7907.21
651.954	8152.96
652.146	7894.92
652.339	7972.74
652.531	7851.91
652.724	7860.1
652.916	7841.67
653.109	7761.8
653.301	7720.84
653.494	7843.72
653.686	7522.19
653.879	7636.88
654.071	7604.11
654.263	7661.45
654.456	7417.74
654.648	7475.09
654.84	7423.89
655.033	7133.08
655.225	7331.73
655.417	7223.19
655.61	7454.61
655.802	7225.23
655.994	7194.51
656.186	7206.8
656.379	7214.99
656.571	7090.07
656.763	6909.85
656.955	6811.54
657.148	7085.97
657.34	7063.44
657.532	6834.07
657.724	6811.54
657.916	6875.03
658.108	6854.55
658.3	6737.82
658.492	6821.78
658.684	6655.9
658.876	6563.74
659.068	6543.26
659.26	6668.19
659.452	6557.6
659.644	6612.89
659.836	6586.27
660.028	6483.87
660.22	6231.97
660.412	6303.65
660.604	6104.99
660.796	6330.27
660.988	6268.83
661.18	6178.72
661.372	6158.24
661.563	6268.83
661.755	6072.23
661.947	6104.99
662.139	5994.4
662.331	6014.88
662.522	5969.83
662.714	6018.98
662.906	5867.43
663.097	5795.75
663.289	5638.06
663.481	5937.06
663.673	5785.51
663.864	5842.85
664.056	5793.7
664.247	5662.63
664.439	5699.5
664.631	5736.36
664.822	5668.78
665.014	5631.91
665.205	5556.14
665.397	5609.39
665.588	5523.37
665.78	5523.37
665.971	5423.02
666.163	5578.67
666.354	5652.39
666.546	5386.16
666.737	5277.62
666.929	5406.64
667.12	5343.15
667.311	5210.03
667.503	5216.18
667.694	5308.34
667.885	5177.26
668.077	5220.27
668.268	5042.1
668.459	5228.46
668.651	5091.25
668.842	5023.67
669.033	5076.91
669.224	5132.21
669.416	5107.63
669.607	4949.94
669.798	5029.81
669.989	5152.69
670.18	5128.11
670.371	5025.72
670.563	4943.8
670.754	4880.31
670.945	4825.01
671.136	4804.53
671.327	4839.35
671.518	4771.77
671.709	4822.97
671.9	4904.89
672.091	5003.19
672.282	4755.38
672.473	4679.61
672.664	4556.73
672.855	4700.09
673.046	4706.23
673.237	4704.18
673.428	4605.88
673.619	4577.21
673.809	4630.46
674	4564.92
674.191	4511.68
674.382	4534.2
674.573	4538.3
674.764	4497.34
674.954	4542.39
675.145	4390.84
675.336	4474.81
675.527	4550.59
675.717	4548.54
675.908	4362.17
676.099	4435.9
676.289	4411.32
676.48	4415.42
676.671	4433.85
676.861	4306.88
677.052	4329.41
677.243	4306.88
677.433	4304.83
677.624	4444.09
677.814	4233.15
678.005	4298.69
678.195	4102.08
678.386	4237.25
678.576	4100.03
678.767	4218.82
678.957	4249.54
679.148	4278.21
679.338	4192.19
679.529	4118.47
679.719	4132.8
679.909	4155.33
680.1	4106.18
680.29	4220.86
680.481	4132.8
680.671	4214.72
680.861	4179.9
681.052	3991.49
681.242	4097.99
681.432	4083.65
681.622	4091.84
681.813	3958.72
682.003	4016.07
682.193	4040.64
682.383	4026.31
682.573	3921.86
682.764	4034.5
682.954	3893.19
683.144	4032.45
683.334	3964.87
683.524	4024.26
683.714	3993.54
683.904	3760.07
684.094	3923.91
684.284	3936.2
684.474	4075.46
684.664	3966.92
684.854	3893.19
685.044	3794.89
685.234	3921.86
685.424	3878.85
685.614	3786.69
685.804	3778.5
685.994	3934.15
686.184	3925.96
686.374	3735.49
686.564	3805.13
686.753	3696.58
686.943	3817.41
687.133	3733.45
687.323	3721.16
687.513	3696.58
687.702	3712.97
687.892	3622.86
688.082	3700.68
688.272	3583.95
688.461	3602.38
688.651	3600.33
688.841	3477.45
689.03	3553.23
689.22	3418.06
689.41	3452.88
689.599	3577.8
689.789	3551.18
689.979	3518.41
690.168	3639.24
690.358	3434.44
690.547	3317.71
690.737	3393.48
690.926	3485.64
691.116	3215.31
691.305	3385.29
691.495	3370.96
691.684	3176.4
691.874	3299.28
692.063	3332.05
692.252	3272.65
692.442	3295.18
692.631	3180.5
692.82	3254.22
693.01	3174.35
693.199	3172.3
693.388	3172.3
693.578	3176.4
693.767	3192.78
693.956	3065.81
694.146	3133.39
694.335	2990.03
694.524	3074
694.713	3176.4
694.902	3205.07
695.092	3106.77
695.281	3160.02
695.47	3049.43
695.659	3057.62
695.848	3108.82
696.037	2934.74
696.226	2951.12
696.415	2877.4
696.604	2940.88
696.793	2942.93
696.982	2856.92
697.171	2951.12
697.36	2951.12
697.549	2897.88
697.738	2852.82
697.927	2895.83
698.116	2885.59
698.305	2871.25
698.494	2805.72
698.683	2920.4
698.872	2959.31
699.061	2942.93
699.25	2742.23
699.438	2828.24
699.627	2852.82
699.816	2863.06
700.005	2738.13
700.193	2731.99
700.382	2811.86
700.571	2797.53
700.76	2891.73
700.948	2713.56
701.137	2650.07
701.326	2803.67
701.514	2631.64
701.703	2695.13
701.892	2807.77
702.08	2865.11
702.269	2717.65
702.457	2672.6
702.646	2754.52
702.834	2813.91
703.023	2598.87
703.212	2660.31
703.4	2754.52
703.589	2656.22
703.777	2623.45
703.965	2691.03
704.154	2688.98
704.342	2600.92
704.531	2674.65
704.719	2557.91
704.907	2836.44
705.096	2668.5
705.284	2486.23
705.472	2658.26
705.661	2627.54
705.849	2729.94
706.037	2648.02
706.226	2658.26
706.414	2709.46
706.602	2639.83
706.79	2584.54
706.979	2590.68
707.167	2582.49
707.355	2664.41
707.543	2598.87
707.731	2559.96
707.919	2625.5
708.107	2559.96
708.296	2564.06
708.484	2615.26
708.672	2592.73
708.86	2617.3
709.048	2703.32
709.236	2467.8
709.424	2641.88
709.612	2607.06
709.8	2572.25
709.988	2674.65
710.176	2590.68
710.364	2617.3
710.551	2635.74
710.739	2684.89
710.927	2602.97
711.115	2549.72
711.303	2615.26
711.491	2527.19
711.679	2445.27
711.866	2469.85
712.054	2437.08
712.242	2584.54
712.43	2594.78
712.617	2584.54
712.805	2574.3
712.993	2422.75
713.181	2570.2
713.368	2521.05
713.556	2545.63
713.744	2551.77
713.931	2541.53
714.119	2557.91
714.306	2568.15
714.494	2535.39
714.682	2412.51
714.869	2516.95
715.057	2586.58
715.244	2486.23
715.432	2559.96
715.619	2607.06
715.807	2465.75
715.994	2516.95
716.182	2568.15
716.369	2533.34
716.556	2660.31
716.744	2478.04
716.931	2607.06
717.119	2578.39
717.306	2553.82
717.493	2549.72
717.681	2578.39
717.868	2590.68
718.055	2627.54
718.242	2512.86
718.43	2551.77
718.617	2500.57
718.804	2451.42
718.991	2484.19
719.179	2609.11
719.366	2500.57
719.553	2541.53
719.74	2664.41
719.927	2666.46
720.114	2566.1
720.301	2607.06
720.488	2566.1
720.676	2502.62
720.863	2586.58
721.05	2631.64
721.237	2445.27
721.424	2508.76
721.611	2570.2
721.798	2469.85
721.985	2574.3
722.172	2521.05
722.358	2590.68
722.545	2533.34
722.732	2641.88
722.919	2602.97
723.106	2533.34
723.293	2373.6
723.48	2535.39
723.667	2484.19
723.853	2418.65
724.04	2535.39
724.227	2514.91
724.414	2609.11
724.6	2549.72
724.787	2607.06
724.974	2545.63
725.161	2527.19
725.347	2492.38
725.534	2629.59
725.72	2586.58
725.907	2664.41
726.094	2551.77
726.28	2467.8
726.467	2592.73
726.653	2414.56
726.84	2502.62
727.027	2541.53
727.213	2516.95
727.4	2668.5
727.586	2615.26
727.773	2607.06
727.959	2639.83
728.145	2557.91
728.332	2537.43
728.518	2541.53
728.705	2519
728.891	2482.14
729.077	2457.56
729.264	2623.45
729.45	2451.42
729.636	2615.26
729.823	2566.1
730.009	2541.53
730.195	2486.23
730.382	2506.71
730.568	2697.17
730.754	2549.72
730.94	2549.72
731.126	2680.79
731.313	2584.54
731.499	2508.76
731.685	2639.83
731.871	2607.06
732.057	2742.23
732.243	2570.2
732.429	2557.91
732.615	2705.37
732.801	2570.2
732.987	2633.69
733.173	2623.45
733.359	2533.34
733.545	2609.11
733.731	2660.31
733.917	2551.77
734.103	2535.39
734.289	2607.06
734.475	2570.2
734.661	2715.61
734.847	2555.86
735.033	2631.64
735.219	2590.68
735.404	2680.79
735.59	2619.35
735.776	2502.62
735.962	2543.58
736.148	2557.91
736.333	2600.92
736.519	2443.23
736.705	2600.92
736.89	2445.27
737.076	2475.99
737.262	2463.71
737.447	2428.89
737.633	2453.47
737.819	2492.38
738.004	2502.62
738.19	2496.47
738.375	2615.26
738.561	2625.5
738.747	2519
738.932	2555.86
739.118	2435.03
739.303	2494.43
739.489	2478.04
739.674	2478.04
739.859	2435.03
740.045	2504.67
740.23	2394.08
740.416	2430.94
740.601	2406.36
740.786	2461.66
740.972	2459.61
741.157	2435.03
741.342	2504.67
741.528	2607.06
741.713	2443.23
741.898	2330.59
742.084	2426.84
742.269	2480.09
742.454	2385.88
742.639	2475.99
742.824	2424.8
743.01	2373.6
743.195	2344.92
743.38	2357.21
743.565	2336.73
743.75	2451.42
743.935	2404.32
744.12	2326.49
744.305	2344.92
744.49	2383.84
744.675	2344.92
744.86	2234.33
745.045	2217.95
745.23	2332.64
745.415	2297.82
745.6	2336.73
745.785	2303.96
745.97	2279.39
746.155	2213.85
746.34	2162.65
746.525	2111.46
746.71	2252.77
746.895	2099.17
747.079	2025.44
747.264	2052.06
747.449	2131.94
747.634	2140.13
747.819	2121.7
748.003	2021.35
748.188	2025.44
748.373	2039.78
748.557	2045.92
748.742	2068.45
748.927	2086.88
749.111	2068.45
749.296	1980.39
749.481	2060.26
749.665	1964
749.85	1982.43
750.034	1961.95
750.219	2058.21
750.404	1877.99
750.588	1998.82
750.773	1923.04
750.957	1964
751.141	2029.54
751.326	1918.95
751.51	1892.32
751.695	1951.71
751.879	1970.15
752.064	1890.28
752.248	1869.8
752.432	1849.32
752.617	1892.32
752.801	1849.32
752.985	1816.55
753.17	1806.31
753.354	1759.21
753.538	1738.73
753.722	1791.97
753.907	1697.77
754.091	1669.09
754.275	1722.34
754.459	1607.66
754.643	1669.09
754.828	1677.29
755.012	1660.9
755.196	1591.27
755.38	1492.97
755.564	1634.28
755.748	1669.09
755.932	1503.21
756.116	1550.31
756.3	1597.42
756.484	1570.79
756.668	1564.65
756.852	1609.7
757.036	1609.7
757.22	1552.36
757.404	1492.97
757.588	1460.2
757.772	1474.54
757.956	1415.15
758.14	1521.64
758.323	1492.97
758.507	1476.59
758.691	1329.13
758.875	1376.24
759.059	1378.28
759.242	1380.33
759.426	1431.53
759.61	1341.42
759.794	1357.8
759.977	1402.86
760.161	1378.28
760.345	1386.47
760.528	1509.35
760.712	1282.03
760.895	1312.75
761.079	1304.56
761.263	1310.7
761.446	1255.4
761.63	1275.88
761.813	1378.28
761.997	1265.64
762.18	1265.64
762.364	1306.6
762.547	1230.83
762.731	1171.44
762.914	1239.02
763.098	1185.77
763.281	1183.73
763.464	1247.21
763.648	1189.87
763.831	1228.78
764.015	1249.26
764.198	1181.68
764.381	1214.45
764.564	1181.68
764.748	1271.79
764.931	1314.8
765.114	1126.38
765.297	1222.64
765.481	1150.96
765.664	1191.92
765.847	1159.15
766.03	1230.83
766.213	1118.19
766.397	1054.7
766.58	1181.68
766.763	1169.39
766.946	1075.18
767.129	1048.56
767.312	1165.29
767.495	1073.14
767.678	1005.55
767.861	1044.46
768.044	1069.04
768.227	1157.1
768.41	1038.32
768.593	1093.62
768.776	1075.18
768.959	1026.03
769.142	1126.38
769.324	1038.32
769.507	1026.03
769.69	946.16
769.873	1015.79
770.056	1062.9
770.239	1056.75
770.421	1011.7
770.604	1060.85
770.787	948.21
770.97	1052.66
771.152	927.73
771.335	1066.99
771.518	921.59
771.7	968.69
771.883	1083.38
772.066	966.64
772.248	958.45
772.431	954.35
772.613	856.05
772.796	903.15
772.978	899.06
773.161	1021.94
773.343	921.59
773.526	917.49
773.708	886.77
773.891	837.62
774.073	935.92
774.256	880.63
774.438	991.22
774.621	845.81
774.803	915.44
774.985	913.39
775.168	847.86
775.35	899.06
775.532	909.3
775.715	843.76
775.897	796.66
776.079	829.43
776.261	821.24
776.444	870.39
776.626	858.1
776.808	839.67
776.99	798.71
777.173	763.89
777.355	841.72
777.537	782.32
777.719	782.32
777.901	681.97
778.083	741.36
778.265	714.74
778.447	729.08
778.629	677.88
778.811	694.26
778.993	669.69
779.175	790.52
779.357	751.6
779.539	720.88
779.721	731.12
779.903	690.17
780.085	708.6
780.267	692.21
780.449	702.45
780.631	673.78
780.812	659.45
780.994	667.64
781.176	632.82
781.358	649.21
781.54	612.34
781.721	608.25
781.903	614.39
782.085	641.01
782.267	692.21
782.448	593.91
782.63	624.63
782.812	579.58
782.993	559.1
783.175	598.01
783.357	587.77
783.538	616.44
783.72	503.8
783.901	612.34
784.083	612.34
784.264	585.72
784.446	481.27
784.627	550.9
784.809	563.19
784.99	565.24
785.172	573.43
785.353	550.9
785.535	559.1
785.716	526.33
785.897	528.38
786.079	471.03
786.26	495.61
786.441	497.66
786.623	471.03
786.804	475.13
786.985	514.04
787.167	458.74
787.348	591.86
787.529	446.46
787.71	569.34
787.891	489.46
788.073	466.94
788.254	468.98
788.435	501.75
788.616	487.42
788.797	436.22
788.978	436.22
789.159	456.7
789.34	456.7
789.522	417.79
789.703	395.26
789.884	468.98
790.065	446.46
790.246	421.88
790.427	452.6
790.607	411.64
790.788	415.74
790.969	380.92
791.15	509.94
791.331	405.5
791.512	362.49
791.693	354.3
791.874	403.45
792.054	362.49
792.235	428.03
792.416	358.39
792.597	315.39
792.778	411.64
792.958	438.27
793.139	403.45
793.32	503.8
793.5	346.11
793.681	378.87
793.862	350.2
794.042	352.25
794.223	389.11
794.404	362.49
794.584	292.86
794.765	307.2
794.945	337.91
795.126	348.15
795.306	411.64
795.487	325.63
795.667	239.61
795.848	321.53
796.028	391.16
796.209	358.39
796.389	311.29
796.57	321.53
796.75	239.61
796.93	370.68
797.111	272.38
797.291	247.8
797.471	321.53
797.652	288.76
797.832	305.15
798.012	387.07
798.192	274.43
798.373	276.48
798.553	290.81
798.733	301.05
798.913	301.05
799.093	387.07
799.274	307.2
799.454	278.52
799.634	296.96
799.814	296.96
799.994	256
800.174	274.43
800.354	249.85
800.534	280.57
800.714	313.34
800.894	241.66
801.074	190.46
801.254	239.61
801.434	233.47
801.614	258.04
801.794	198.65
801.974	755.7
802.154	233.47
802.334	258.04
802.514	215.04
802.693	268.28
802.873	215.04
803.053	309.24
803.233	292.86
803.413	264.19
803.592	215.04
803.772	280.57
803.952	243.71
804.131	264.19
804.311	260.09
804.491	202.75
804.67	200.7
804.85	221.18
805.03	182.27
805.209	264.19
805.389	235.52
805.568	266.24
805.748	231.42
805.928	227.32
806.107	231.42
806.287	174.08
806.466	223.23
806.646	260.09
806.825	210.94
807.004	239.61
807.184	110.59
807.363	208.89
807.543	235.52
807.722	182.27
807.901	303.1
808.081	198.65
808.26	212.99
808.439	163.84
808.619	137.21
808.798	143.36
808.977	118.78
809.156	208.89
809.336	212.99
809.515	198.65
809.694	147.45
809.873	133.12
810.052	251.9
810.231	223.23
810.411	143.36
810.59	165.89
810.769	212.99
810.948	241.66
811.127	141.31
811.306	141.31
811.485	239.61
811.664	208.89
811.843	184.32
812.022	184.32
812.201	235.52
812.38	215.04
812.559	129.02
812.737	174.08
812.916	147.45
813.095	83.97
813.274	190.46
813.453	141.31
813.632	190.46
813.811	247.8
813.989	124.93
814.168	178.17
814.347	75.77
814.526	167.93
814.704	217.08
814.883	178.17
815.062	190.46
815.24	176.13
815.419	153.6
815.598	200.7
815.776	77.82
815.955	169.98
816.133	143.36
816.312	83.97
816.49	122.88
816.669	149.5
816.847	108.54
817.026	120.83
817.204	190.46
817.383	167.93
817.561	133.12
817.74	225.28
817.918	198.65
818.097	153.6
818.275	141.31
818.453	133.12
818.632	180.22
818.81	118.78
818.988	169.98
819.167	149.5
819.345	135.17
819.523	77.82
819.701	145.41
819.879	116.73
820.058	165.89
820.236	145.41
820.414	147.45
820.592	149.5
820.77	108.54
820.948	102.4
821.127	157.69
821.305	149.5
821.483	112.64
821.661	149.5
821.839	133.12
822.017	112.64
822.195	126.97
822.373	141.31
822.551	108.54
822.729	202.75
822.907	153.6
823.085	159.74
823.262	55.3
823.44	100.35
823.618	90.11
823.796	135.17
823.974	79.87
824.152	22.53
824.329	79.87
824.507	153.6
824.685	112.64
824.863	149.5
825.04	34.82
825.218	157.69
825.396	129.02
825.574	155.65
825.751	153.6
825.929	124.93
826.107	133.12
826.284	126.97
826.462	110.59
826.639	122.88
826.817	122.88
826.994	155.65
827.172	38.91
827.349	178.17
827.527	77.82
827.704	120.83
827.882	104.45
828.059	145.41
828.237	100.35
828.414	151.55
828.591	-12.29
828.769	116.73
828.946	135.17
829.124	157.69
829.301	116.73
829.478	67.58
829.655	139.26
829.833	98.3
830.01	0
830.187	124.93
830.364	135.17
830.542	30.72
830.719	124.93
830.896	94.21
831.073	102.4
831.25	75.77
831.427	79.87
831.604	159.74
831.782	61.44
831.959	129.02
832.136	45.06
832.313	174.08
832.49	26.62
832.667	116.73
832.844	67.58
833.021	100.35
833.198	137.21
833.374	92.16
833.551	124.93
833.728	61.44
833.905	110.59
834.082	55.3
834.259	83.97
834.436	81.92
834.612	63.49
834.789	57.34
834.966	57.34
835.143	100.35
835.319	-2.05
835.496	32.77
835.673	92.16
835.85	126.97
836.026	55.3
836.203	108.54
836.38	26.62
836.556	59.39
836.733	28.67
836.909	71.68
837.086	55.3
837.262	67.58
837.439	86.01
837.616	83.97
837.792	88.06
837.968	34.82
838.145	20.48
838.321	36.86
838.498	-10.24
838.674	143.36
838.851	94.21
839.027	79.87
839.203	90.11
839.38	169.98
839.556	-2.05
839.732	36.86
839.909	-4.1
840.085	65.54
840.261	2.05
840.437	88.06
840.614	30.72
840.79	79.87
840.966	57.34
841.142	83.97
841.318	-12.29
841.494	83.97
841.671	129.02
841.847	59.39
842.023	-10.24
842.199	40.96
842.375	77.82
842.551	22.53
842.727	83.97
842.903	145.41
843.079	18.43
843.255	67.58
843.431	20.48
843.607	26.62
843.783	-49.15
843.959	43.01
844.134	28.67
844.31	79.87
844.486	24.58
844.662	83.97
844.838	14.34
845.013	79.87
845.189	-26.62
845.365	90.11
845.541	-2.05
845.716	59.39
845.892	10.24
846.068	67.58
846.244	69.63
846.419	28.67
846.595	71.68
846.77	118.78
846.946	126.97
847.122	20.48
847.297	14.34
847.473	34.82
847.648	-18.43
847.824	75.77
847.999	-24.58
848.175	75.77
848.35	71.68
848.526	36.86
848.701	45.06
848.876	120.83
849.052	63.49
849.227	77.82
849.403	-38.91
849.578	10.24
849.753	59.39
849.929	26.62
850.104	2.05
850.279	71.68
850.454	92.16
850.63	-6.14
850.805	-43.01
850.98	12.29
851.155	6.14
851.33	-43.01
851.505	55.3
851.681	96.25
851.856	-26.62
852.031	94.21
852.206	18.43
852.381	-24.58
852.556	45.06
852.731	137.21
852.906	55.3
853.081	38.91
853.256	51.2
853.431	26.62
853.606	-6.14
853.781	77.82
853.956	10.24
854.131	20.48
854.305	-10.24
854.48	51.2
854.655	45.06
854.83	10.24
855.005	-30.72
855.18	30.72
855.354	4.1
855.529	-38.91
855.704	4.1
855.879	45.06
856.053	-26.62
856.228	100.35
856.403	-4.1
856.577	-28.67
856.752	0
856.926	16.38
857.101	102.4
857.276	-8.19
857.45	18.43
857.625	118.78
857.799	81.92
857.974	-4.1
858.148	-20.48
858.323	43.01
858.497	-69.63
858.672	45.06
858.846	-4.1
859.02	4.1
859.195	59.39
859.369	36.86
859.543	-14.34
859.718	-14.34
859.892	22.53
860.066	18.43
860.241	61.44
860.415	18.43
860.589	63.49
860.763	67.58
860.938	2.05
861.112	61.44
861.286	-12.29
861.46	88.06
861.634	94.21
861.808	22.53
861.982	-34.82
862.157	-12.29
862.331	-22.53
862.505	61.44
862.679	26.62
862.853	51.2
863.027	73.73
863.201	120.83
863.375	51.2
863.549	67.58
863.722	18.43
863.896	75.77
864.07	69.63
864.244	-2.05
864.418	12.29
864.592	96.25
864.766	-30.72
864.939	10.24
865.113	-12.29
865.287	69.63
865.461	-38.91
865.634	-20.48
865.808	36.86
865.982	6.14
866.156	4.1
866.329	-20.48
866.503	26.62
866.676	118.78
866.85	-43.01
867.024	-38.91
867.197	4.1
867.371	63.49
867.544	38.91
867.718	-6.14
867.891	-53.25
868.065	6.14
868.238	18.43
868.412	-12.29
868.585	-34.82
868.759	-8.19
868.932	43.01
869.105	-67.58
869.279	79.87
869.452	-45.06
869.625	10.24
869.799	45.06
869.972	-2.05
870.145	-38.91
870.319	2.05
870.492	2.05
870.665	-20.48
870.838	-22.53
871.011	30.72
871.185	34.82
871.358	12.29
871.531	26.62
871.704	-4.1
871.877	10.24
872.05	43.01
872.223	2.05
872.396	-30.72
872.569	45.06
872.742	51.2
872.915	59.39
873.088	-28.67
873.261	6.14
873.434	22.53
873.607	-14.34
873.78	63.49
873.953	-49.15
874.126	-4.1
874.299	2.05
874.471	-94.21
874.644	2.05
874.817	-26.62
874.99	88.06
875.163	-20.48
875.335	-16.38
875.508	-10.24
875.681	-2.05
875.853	-83.97
876.026	-12.29
876.199	26.62
876.371	43.01
876.544	-34.82
876.717	26.62
876.889	-14.34
877.062	92.16
877.234	18.43
877.407	36.86
877.579	18.43
877.752	43.01
877.924	43.01
878.097	53.25
878.269	18.43
878.442	-8.19
878.614	-4.1
878.786	4.1
878.959	-4.1
879.131	6.14
879.303	8.19
879.476	12.29
879.648	36.86
879.82	-16.38
879.993	-10.24
880.165	4.1
880.337	-90.11
880.509	43.01
880.681	-36.86
880.854	47.1
881.026	30.72
881.198	75.77
881.37	59.39
881.542	24.58
881.714	-10.24
881.886	10.24
882.058	-26.62
882.23	157.69
882.402	40.96
882.574	73.73
882.746	20.48
882.918	75.77
883.09	-4.1
883.262	43.01
883.434	-28.67
883.606	-8.19
883.778	79.87
883.95	-12.29
884.122	-55.3
884.293	-14.34
884.465	28.67
884.637	55.3
884.809	-14.34
884.98	69.63
885.152	-2.05
885.324	67.58
885.496	2.05
885.667	-86.01
885.839	-38.91
886.011	43.01
886.182	28.67
886.354	79.87
886.525	-30.72
886.697	45.06
886.869	22.53
887.04	61.44
887.212	96.25
887.383	-22.53
887.555	79.87
887.726	43.01
887.897	-18.43
888.069	36.86
888.24	10.24
888.412	34.82
888.583	-6.14
888.754	22.53
888.926	-47.1
889.097	-20.48
889.268	-36.86
889.44	-2.05
889.611	-26.62
889.782	-18.43
889.953	-98.3
890.125	63.49
890.296	88.06
890.467	4.1
890.638	2.05
890.809	-6.14
890.98	2.05
891.151	67.58
891.323	-2.05
891.494	-63.49
891.665	-63.49
891.836	-55.3
892.007	-18.43
892.178	24.58
892.349	-6.14
892.52	-8.19
892.691	2.05
892.862	20.48
893.032	-63.49
893.203	2.05
893.374	26.62
893.545	71.68
893.716	-51.2
893.887	20.48
894.057	8.19
894.228	-12.29
894.399	4.1
894.57	28.67
894.74	-90.11
894.911	-26.62
895.082	2.05
895.253	-55.3
895.423	61.44
895.594	22.53
895.764	92.16
895.935	-71.68
896.106	4.1
896.276	-22.53
896.447	-75.77
896.617	6.14
896.788	34.82
896.958	-38.91
897.129	55.3
897.299	-14.34
897.47	137.21
897.64	-8.19
897.81	28.67
897.981	2.05
898.151	26.62
898.322	59.39
898.492	-51.2
898.662	-40.96
898.832	0
899.003	-20.48
899.173	-43.01
899.343	-14.34
899.513	43.01
