Data from USB4F104151__173__14-45-00-614.txt Node

Date: Thu Mar 13 14:45:00 EDT 2025
User: louis
Spectrometer: USB4F10415
Trigger mode: 4
Integration Time (sec): 2.000000E-2
Scans to average: 1
Electric dark correction enabled: true
Nonlinearity correction enabled: false
Boxcar width: 0
XAxis mode: Wavelengths
Number of Pixels in Spectrum: 3648
>>>>>Begin Spectral Data<<<<<
178.204	-97.96
178.424	-97.96
178.644	-97.96
178.864	-149.16
179.084	-112.3
179.304	26.96
179.524	-83.63
179.744	6.49
179.964	0.34
180.184	18.77
180.404	4.44
180.624	0.34
180.844	31.06
181.064	16.73
181.283	-32.43
181.503	0.34
181.723	10.58
181.943	-122.54
182.163	-5.8
182.383	-79.53
182.602	90.45
182.822	14.68
183.042	43.35
183.262	31.06
183.482	-38.57
183.701	51.54
183.921	-9.9
184.141	-81.58
184.361	65.88
184.58	-5.8
184.8	-34.47
185.02	47.44
185.239	33.11
185.459	-1.71
185.679	26.96
185.898	-50.86
186.118	-13.99
186.338	4.44
186.557	63.83
186.777	6.49
186.997	31.06
187.216	18.77
187.436	26.96
187.655	72.02
187.875	59.73
188.095	22.87
188.314	57.68
188.534	0.34
188.753	-50.86
188.973	-50.86
189.192	-16.04
189.412	35.16
189.631	53.59
189.851	-50.86
190.07	-9.9
190.29	12.63
190.509	29.01
190.729	63.83
190.948	39.25
191.168	108.88
191.387	16.73
191.607	-71.34
191.826	80.21
192.045	47.44
192.265	-22.19
192.484	-7.85
192.704	0.34
192.923	-30.38
193.142	108.88
193.362	10.58
193.581	51.54
193.8	-61.1
194.02	29.01
194.239	2.39
194.458	0.34
194.678	-42.67
194.897	8.53
195.116	26.96
195.335	76.12
195.555	47.44
195.774	18.77
195.993	59.73
196.212	-3.75
196.432	-57
196.651	-7.85
196.87	-28.33
197.089	78.16
197.308	-22.19
197.528	74.07
197.747	-11.95
197.966	-5.8
198.185	22.87
198.404	-38.57
198.623	-22.19
198.842	63.83
199.062	33.11
199.281	84.31
199.5	26.96
199.719	24.92
199.938	10.58
200.157	57.68
200.376	14.68
200.595	67.92
200.814	24.92
201.033	-26.28
201.252	24.92
201.471	37.2
201.69	-48.81
201.909	22.87
202.128	29.01
202.347	37.2
202.566	-11.95
202.785	-79.53
203.004	-52.91
203.223	88.4
203.442	0.34
203.661	-9.9
203.879	74.07
204.098	-67.24
204.317	-30.38
204.536	24.92
204.755	-57
204.974	-1.71
205.193	8.53
205.411	108.88
205.63	-9.9
205.849	-28.33
206.068	-42.67
206.287	-34.47
206.505	39.25
206.724	-20.14
206.943	14.68
207.162	16.73
207.381	-28.33
207.599	20.82
207.818	-50.86
208.037	-40.62
208.255	-30.38
208.474	35.16
208.693	22.87
208.911	-71.34
209.13	55.64
209.349	96.6
209.567	-22.19
209.786	18.77
210.005	20.82
210.223	41.3
210.442	-16.04
210.661	-9.9
210.879	-16.04
211.098	-26.28
211.316	-7.85
211.535	145.75
211.753	-63.15
211.972	72.02
212.191	-34.47
212.409	24.92
212.628	-36.52
212.846	-18.09
213.065	-9.9
213.283	26.96
213.502	-22.19
213.72	-22.19
213.938	16.73
214.157	-26.28
214.375	2.39
214.594	55.64
214.812	4.44
215.031	63.83
215.249	-36.52
215.467	29.01
215.686	55.64
215.904	90.45
216.122	-5.8
216.341	74.07
216.559	-28.33
216.778	47.44
216.996	80.21
217.214	-57
217.432	-30.38
217.651	-42.67
217.869	16.73
218.087	-18.09
218.306	14.68
218.524	14.68
218.742	33.11
218.96	-18.09
219.179	31.06
219.397	-5.8
219.615	63.83
219.833	72.02
220.051	6.49
220.27	57.68
220.488	22.87
220.706	0.34
220.924	12.63
221.142	22.87
221.36	-22.19
221.578	16.73
221.796	-1.71
222.015	76.12
222.233	53.59
222.451	96.6
222.669	-28.33
222.887	-1.71
223.105	6.49
223.323	6.49
223.541	31.06
223.759	63.83
223.977	-7.85
224.195	90.45
224.413	63.83
224.631	8.53
224.849	-11.95
225.067	-9.9
225.285	-36.52
225.503	-11.95
225.721	-83.63
225.939	41.3
226.157	55.64
226.375	102.74
226.592	-32.43
226.81	6.49
227.028	-7.85
227.246	0.34
227.464	37.2
227.682	10.58
227.9	0.34
228.117	-20.14
228.335	18.77
228.553	-18.09
228.771	-11.95
228.989	47.44
229.206	57.68
229.424	-36.52
229.642	24.92
229.86	39.25
230.077	-77.48
230.295	63.83
230.513	31.06
230.731	74.07
230.948	33.11
231.166	115.03
231.384	26.96
231.601	10.58
231.819	72.02
232.037	55.64
232.254	18.77
232.472	55.64
232.689	-75.43
232.907	80.21
233.125	-1.71
233.342	10.58
233.56	-34.47
233.777	-13.99
233.995	18.77
234.213	72.02
234.43	26.96
234.648	18.77
234.865	24.92
235.083	-32.43
235.3	22.87
235.518	12.63
235.735	-9.9
235.953	65.88
236.17	14.68
236.388	-22.19
236.605	0.34
236.822	57.68
237.04	-26.28
237.257	14.68
237.475	-38.57
237.692	-77.48
237.909	-81.58
238.127	39.25
238.344	43.35
238.562	18.77
238.779	67.92
238.996	22.87
239.214	39.25
239.431	14.68
239.648	63.83
239.865	-5.8
240.083	-5.8
240.3	47.44
240.517	18.77
240.735	6.49
240.952	57.68
241.169	88.4
241.386	12.63
241.603	-9.9
241.821	39.25
242.038	80.21
242.255	26.96
242.472	-13.99
242.689	35.16
242.907	55.64
243.124	29.01
243.341	-7.85
243.558	35.16
243.775	39.25
243.992	47.44
244.209	129.36
244.426	22.87
244.643	18.77
244.86	35.16
245.078	16.73
245.295	-50.86
245.512	24.92
245.729	-1.71
245.946	33.11
246.163	-48.81
246.38	-22.19
246.597	16.73
246.814	22.87
247.031	37.2
247.248	-38.57
247.464	0.34
247.681	-7.85
247.898	-5.8
248.115	-7.85
248.332	51.54
248.549	-18.09
248.766	72.02
248.983	47.44
249.2	-24.23
249.417	41.3
249.633	14.68
249.85	20.82
250.067	18.77
250.284	14.68
250.501	14.68
250.717	47.44
250.934	-26.28
251.151	20.82
251.368	-22.19
251.585	6.49
251.801	8.53
252.018	-50.86
252.235	35.16
252.451	-1.71
252.668	22.87
252.885	2.39
253.102	0.34
253.318	2.39
253.535	-24.23
253.752	22.87
253.968	35.16
254.185	6.49
254.401	-16.04
254.618	104.79
254.835	-57
255.051	104.79
255.268	-16.04
255.484	2.39
255.701	22.87
255.917	-26.28
256.134	-18.09
256.351	-11.95
256.567	2.39
256.784	90.45
257	24.92
257.217	90.45
257.433	108.88
257.65	47.44
257.866	100.69
258.082	-50.86
258.299	24.92
258.515	86.36
258.732	-13.99
258.948	-75.43
259.165	18.77
259.381	16.73
259.597	-1.71
259.814	57.68
260.03	6.49
260.246	-26.28
260.463	6.49
260.679	39.25
260.895	8.53
261.112	-1.71
261.328	55.64
261.544	6.49
261.761	51.54
261.977	18.77
262.193	4.44
262.409	80.21
262.626	22.87
262.842	-30.38
263.058	14.68
263.274	63.83
263.49	-18.09
263.707	14.68
263.923	-30.38
264.139	-63.15
264.355	6.49
264.571	-3.75
264.787	0.34
265.004	55.64
265.22	0.34
265.436	-13.99
265.652	39.25
265.868	4.44
266.084	-40.62
266.3	33.11
266.516	20.82
266.732	-5.8
266.948	31.06
267.164	-16.04
267.38	39.25
267.596	47.44
267.812	-20.14
268.028	80.21
268.244	-30.38
268.46	88.4
268.676	55.64
268.892	-30.38
269.108	31.06
269.324	-1.71
269.54	-11.95
269.756	51.54
269.972	-50.86
270.188	41.3
270.403	-7.85
270.619	-46.76
270.835	16.73
271.051	35.16
271.267	-7.85
271.483	22.87
271.698	6.49
271.914	22.87
272.13	8.53
272.346	-73.39
272.562	-1.71
272.777	121.17
272.993	29.01
273.209	-9.9
273.425	39.25
273.64	-16.04
273.856	35.16
274.072	-22.19
274.287	-67.24
274.503	35.16
274.719	35.16
274.934	43.35
275.15	24.92
275.366	-26.28
275.581	57.68
275.797	14.68
276.012	14.68
276.228	-34.47
276.444	2.39
276.659	31.06
276.875	-24.23
277.09	-16.04
277.306	-36.52
277.521	49.49
277.737	-1.71
277.952	31.06
278.168	10.58
278.383	-13.99
278.599	-5.8
278.814	-5.8
279.03	4.44
279.245	33.11
279.461	-1.71
279.676	24.92
279.892	-50.86
280.107	24.92
280.322	0.34
280.538	22.87
280.753	90.45
280.969	35.16
281.184	-83.63
281.399	-3.75
281.615	-11.95
281.83	45.4
282.045	16.73
282.26	14.68
282.476	51.54
282.691	92.5
282.906	26.96
283.122	-16.04
283.337	115.03
283.552	22.87
283.767	18.77
283.983	37.2
284.198	76.12
284.413	8.53
284.628	43.35
284.843	-9.9
285.058	20.82
285.274	16.73
285.489	-1.71
285.704	41.3
285.919	26.96
286.134	92.5
286.349	14.68
286.564	-22.19
286.779	43.35
286.995	-9.9
287.21	-7.85
287.425	47.44
287.64	-75.43
287.855	26.96
288.07	35.16
288.285	-18.09
288.5	14.68
288.715	47.44
288.93	6.49
289.145	18.77
289.36	12.63
289.575	51.54
289.79	67.92
290.004	-18.09
290.219	29.01
290.434	6.49
290.649	-26.28
290.864	51.54
291.079	6.49
291.294	-9.9
291.509	41.3
291.724	-26.28
291.938	-36.52
292.153	-22.19
292.368	-9.9
292.583	127.32
292.798	-11.95
293.012	-1.71
293.227	35.16
293.442	-9.9
293.657	37.2
293.871	16.73
294.086	14.68
294.301	55.64
294.516	0.34
294.73	57.68
294.945	-38.57
295.16	10.58
295.374	31.06
295.589	65.88
295.804	-24.23
296.018	-18.09
296.233	47.44
296.447	-1.71
296.662	49.49
296.877	-1.71
297.091	55.64
297.306	20.82
297.52	8.53
297.735	-18.09
297.949	39.25
298.164	16.73
298.378	-24.23
298.593	74.07
298.807	8.53
299.022	65.88
299.236	35.16
299.451	-24.23
299.665	-16.04
299.88	43.35
300.094	47.44
300.309	12.63
300.523	16.73
300.737	31.06
300.952	39.25
301.166	-30.38
301.381	-28.33
301.595	-24.23
301.809	8.53
302.024	41.3
302.238	22.87
302.452	49.49
302.667	-71.34
302.881	6.49
303.095	39.25
303.309	104.79
303.524	-18.09
303.738	0.34
303.952	14.68
304.166	55.64
304.381	-52.91
304.595	33.11
304.809	49.49
305.023	31.06
305.237	10.58
305.452	72.02
305.666	59.73
305.88	29.01
306.094	80.21
306.308	24.92
306.522	16.73
306.736	22.87
306.95	47.44
307.164	22.87
307.379	4.44
307.593	39.25
307.807	20.82
308.021	88.4
308.235	-11.95
308.449	-34.47
308.663	41.3
308.877	14.68
309.091	-20.14
309.305	-1.71
309.519	-24.23
309.733	6.49
309.947	-59.05
310.161	63.83
310.374	-7.85
310.588	65.88
310.802	8.53
311.016	-18.09
311.23	31.06
311.444	14.68
311.658	49.49
311.872	59.73
312.085	-7.85
312.299	22.87
312.513	14.68
312.727	47.44
312.941	-52.91
313.154	49.49
313.368	24.92
313.582	35.16
313.796	-54.95
314.009	41.3
314.223	90.45
314.437	-30.38
314.651	88.4
314.864	-9.9
315.078	39.25
315.292	-42.67
315.505	39.25
315.719	22.87
315.933	-5.8
316.146	39.25
316.36	6.49
316.573	37.2
316.787	98.64
317.001	8.53
317.214	22.87
317.428	51.54
317.641	-9.9
317.855	2.39
318.068	59.73
318.282	35.16
318.495	94.55
318.709	65.88
318.922	-9.9
319.136	104.79
319.349	14.68
319.563	6.49
319.776	14.68
319.99	-5.8
320.203	16.73
320.417	55.64
320.63	-1.71
320.843	88.4
321.057	37.2
321.27	-18.09
321.483	24.92
321.697	123.22
321.91	35.16
322.124	39.25
322.337	-57
322.55	51.54
322.763	12.63
322.977	18.77
323.19	14.68
323.403	55.64
323.617	-7.85
323.83	72.02
324.043	-1.71
324.256	47.44
324.469	-32.43
324.683	72.02
324.896	-50.86
325.109	8.53
325.322	-67.24
325.535	57.68
325.748	74.07
325.962	-9.9
326.175	55.64
326.388	55.64
326.601	12.63
326.814	6.49
327.027	18.77
327.24	57.68
327.453	-11.95
327.666	59.73
327.879	14.68
328.092	-3.75
328.305	33.11
328.518	2.39
328.731	14.68
328.944	35.16
329.157	35.16
329.37	-34.47
329.583	31.06
329.796	88.4
330.009	51.54
330.222	-13.99
330.435	-38.57
330.648	49.49
330.861	-63.15
331.073	-5.8
331.286	-26.28
331.499	63.83
331.712	-3.75
331.925	55.64
332.138	35.16
332.35	65.88
332.563	31.06
332.776	26.96
332.989	-46.76
333.202	47.44
333.414	0.34
333.627	-16.04
333.84	6.49
334.053	18.77
334.265	-5.8
334.478	33.11
334.691	-26.28
334.903	-48.81
335.116	-26.28
335.329	35.16
335.541	-22.19
335.754	104.79
335.966	14.68
336.179	-26.28
336.392	24.92
336.604	-61.1
336.817	61.78
337.029	35.16
337.242	-40.62
337.454	92.5
337.667	22.87
337.88	16.73
338.092	-22.19
338.305	-9.9
338.517	39.25
338.729	14.68
338.942	55.64
339.154	-7.85
339.367	-34.47
339.579	-1.71
339.792	-1.71
340.004	-5.8
340.217	-22.19
340.429	22.87
340.641	16.73
340.854	49.49
341.066	55.64
341.278	59.73
341.491	65.88
341.703	14.68
341.915	18.77
342.128	63.83
342.34	14.68
342.552	47.44
342.764	-85.67
342.977	18.77
343.189	-1.71
343.401	39.25
343.613	57.68
343.826	-30.38
344.038	55.64
344.25	-9.9
344.462	-30.38
344.674	47.44
344.886	-13.99
345.099	55.64
345.311	74.07
345.523	47.44
345.735	-118.44
345.947	33.11
346.159	43.35
346.371	-9.9
346.583	96.6
346.795	18.77
347.007	31.06
347.219	82.26
347.431	61.78
347.643	-30.38
347.855	65.88
348.067	22.87
348.279	72.02
348.491	80.21
348.703	49.49
348.915	51.54
349.127	-108.2
349.339	18.77
349.551	22.87
349.763	45.4
349.975	22.87
350.187	39.25
350.399	45.4
350.61	41.3
350.822	-18.09
351.034	6.49
351.246	33.11
351.458	6.49
351.669	104.79
351.881	8.53
352.093	12.63
352.305	16.73
352.517	-28.33
352.728	88.4
352.94	59.73
353.152	-13.99
353.363	-7.85
353.575	57.68
353.787	72.02
353.999	104.79
354.21	63.83
354.422	39.25
354.633	72.02
354.845	33.11
355.057	22.87
355.268	37.2
355.48	80.21
355.692	-16.04
355.903	18.77
356.115	6.49
356.326	-26.28
356.538	33.11
356.749	55.64
356.961	33.11
357.172	31.06
357.384	-18.09
357.595	6.49
357.807	-7.85
358.018	-52.91
358.23	8.53
358.441	55.64
358.653	80.21
358.864	31.06
359.075	-16.04
359.287	80.21
359.498	24.92
359.709	33.11
359.921	139.6
360.132	2.39
360.344	26.96
360.555	6.49
360.766	-1.71
360.977	16.73
361.189	-32.43
361.4	22.87
361.611	55.64
361.823	8.53
362.034	59.73
362.245	-26.28
362.456	63.83
362.667	16.73
362.879	39.25
363.09	-1.71
363.301	-34.47
363.512	72.02
363.723	49.49
363.935	-85.67
364.146	65.88
364.357	47.44
364.568	43.35
364.779	-22.19
364.99	47.44
365.201	-57
365.412	57.68
365.623	35.16
365.834	6.49
366.045	65.88
366.256	14.68
366.467	59.73
366.678	18.77
366.889	72.02
367.1	22.87
367.311	47.44
367.522	-22.19
367.733	18.77
367.944	22.87
368.155	47.44
368.366	43.35
368.577	61.78
368.788	76.12
368.999	8.53
369.209	-22.19
369.42	80.21
369.631	86.36
369.842	16.73
370.053	-16.04
370.264	51.54
370.474	22.87
370.685	47.44
370.896	31.06
371.107	72.02
371.317	72.02
371.528	14.68
371.739	76.12
371.95	8.53
372.16	49.49
372.371	14.68
372.582	-5.8
372.792	6.49
373.003	29.01
373.214	0.34
373.424	100.69
373.635	-5.8
373.846	39.25
374.056	-26.28
374.267	88.4
374.477	80.21
374.688	-5.8
374.898	90.45
375.109	6.49
375.319	6.49
375.53	31.06
375.74	-22.19
375.951	14.68
376.161	-13.99
376.372	96.6
376.582	26.96
376.793	31.06
377.003	24.92
377.214	100.69
377.424	94.55
377.635	22.87
377.845	31.06
378.055	41.3
378.266	35.16
378.476	33.11
378.686	-18.09
378.897	8.53
379.107	31.06
379.317	88.4
379.528	37.2
379.738	26.96
379.948	31.06
380.158	22.87
380.369	31.06
380.579	72.02
380.789	47.44
380.999	112.98
381.21	65.88
381.42	72.02
381.63	67.92
381.84	-16.04
382.05	31.06
382.261	35.16
382.471	37.2
382.681	43.35
382.891	24.92
383.101	22.87
383.311	33.11
383.521	55.64
383.731	74.07
383.941	96.6
384.151	43.35
384.361	-16.04
384.571	29.01
384.781	41.3
384.991	63.83
385.201	22.87
385.411	39.25
385.621	72.02
385.831	6.49
386.041	72.02
386.251	-9.9
386.461	59.73
386.671	26.96
386.881	-9.9
387.091	67.92
387.301	22.87
387.511	-48.81
387.72	6.49
387.93	-1.71
388.14	31.06
388.35	26.96
388.56	24.92
388.769	-3.75
388.979	72.02
389.189	14.68
389.399	51.54
389.609	10.58
389.818	72.02
390.028	33.11
390.238	112.98
390.447	-24.23
390.657	90.45
390.867	16.73
391.076	49.49
391.286	-32.43
391.496	16.73
391.705	-36.52
391.915	129.36
392.125	31.06
392.334	63.83
392.544	47.44
392.753	12.63
392.963	117.08
393.172	37.2
393.382	2.39
393.591	90.45
393.801	29.01
394.01	63.83
394.22	80.21
394.429	22.87
394.639	41.3
394.848	123.22
395.058	24.92
395.267	2.39
395.477	10.58
395.686	47.44
395.895	123.22
396.105	98.64
396.314	41.3
396.524	24.92
396.733	47.44
396.942	35.16
397.152	88.4
397.361	63.83
397.57	39.25
397.78	67.92
397.989	63.83
398.198	98.64
398.407	53.59
398.617	65.88
398.826	-59.05
399.035	121.17
399.244	96.6
399.453	55.64
399.663	98.64
399.872	63.83
400.081	29.01
400.29	51.54
400.499	55.64
400.708	80.21
400.917	41.3
401.127	96.6
401.336	84.31
401.545	104.79
401.754	39.25
401.963	65.88
402.172	76.12
402.381	37.2
402.59	84.31
402.799	49.49
403.008	96.6
403.217	162.13
403.426	139.6
403.635	-9.9
403.844	135.51
404.053	84.31
404.262	88.4
404.471	47.44
404.68	82.26
404.888	55.64
405.097	104.79
405.306	106.84
405.515	115.03
405.724	151.89
405.933	139.6
406.142	180.56
406.35	84.31
406.559	41.3
406.768	94.55
406.977	186.71
407.185	225.62
407.394	164.18
407.603	115.03
407.812	137.56
408.02	133.46
408.229	196.95
408.438	162.13
408.646	147.8
408.855	158.03
409.064	203.09
409.272	164.18
409.481	129.36
409.69	110.93
409.898	137.56
410.107	174.42
410.315	254.29
410.524	135.51
410.733	278.87
410.941	205.14
411.15	194.9
411.358	272.72
411.567	231.76
411.775	219.47
411.984	256.34
412.192	303.44
412.401	258.39
412.609	325.97
412.818	362.83
413.026	344.4
413.234	289.1
413.443	401.74
413.651	293.2
413.86	332.11
414.068	407.89
414.276	403.79
414.485	389.46
414.693	414.03
414.901	450.89
415.11	467.28
415.318	477.52
415.526	448.85
415.734	502.09
415.943	416.08
416.151	493.9
416.359	514.38
416.567	493.9
416.776	563.53
416.984	637.26
417.192	614.73
417.4	641.36
417.608	608.59
417.817	686.41
418.025	680.27
418.233	682.31
418.441	641.36
418.649	684.36
418.857	825.67
419.065	848.2
419.273	835.91
419.481	868.68
419.689	989.51
419.897	907.59
420.105	915.78
420.313	991.56
420.521	1028.42
420.729	1026.37
420.937	1145.16
421.145	1034.57
421.353	1096
421.561	1237.31
421.769	1243.46
421.977	1227.07
422.185	1239.36
422.393	1317.19
422.601	1392.96
422.809	1395.01
423.017	1499.45
423.224	1546.56
423.432	1571.13
423.64	1562.94
423.848	1669.44
424.056	1575.23
424.263	1820.99
424.471	1769.79
424.679	1917.24
424.887	2017.59
425.094	1980.73
425.302	1941.82
425.51	2023.73
425.718	2275.63
425.925	2095.41
426.133	2349.36
426.341	2359.6
426.548	2484.53
426.756	2505.01
426.964	2390.32
427.171	2640.17
427.379	2695.47
427.586	2654.51
427.794	2851.11
428.001	3008.81
428.209	2992.42
428.417	3062.05
428.624	3356.96
428.832	3227.94
429.039	3234.08
429.247	3279.14
429.454	3361.06
429.662	3750.17
429.869	3481.89
430.076	3797.28
430.284	3612.96
430.491	3854.62
430.699	4155.67
430.906	4118.81
431.114	4014.36
431.321	4028.7
431.528	4339.99
431.736	4561.17
431.943	4735.25
432.15	4555.02
432.358	4589.84
432.565	4899.08
432.772	4860.17
432.979	5370.12
433.187	5243.14
433.394	5284.1
433.601	5601.54
433.808	5824.76
434.016	5542.14
434.223	5880.06
434.43	6295.8
434.637	6177.02
434.844	6433.01
435.052	6545.65
435.259	6592.75
435.466	6641.9
435.673	6785.26
435.88	6932.72
436.087	7368.93
436.294	7383.27
436.501	7225.58
436.708	7459.04
436.915	7538.91
437.122	8014.04
437.329	7807.2
437.537	8028.38
437.743	8306.9
437.95	8220.89
438.157	8657.11
438.364	8853.71
438.571	8857.81
438.778	9048.27
438.985	9674.95
439.192	9418.95
439.399	9715.91
439.606	9421
439.813	9990.33
440.02	10543.28
440.227	10281.14
440.433	10373.3
440.64	10700.98
440.847	10590.39
441.054	10969.26
441.261	11606.18
441.467	11280.55
441.674	11583.65
441.881	12165.28
442.088	11970.72
442.294	12026.01
442.501	12222.62
442.708	12337.31
442.914	12908.69
443.121	13525.13
443.328	13244.56
443.534	14080.13
443.741	13684.87
443.948	13514.89
444.154	14530.68
444.361	14395.51
444.568	14438.52
444.774	14575.73
444.981	14379.13
445.187	15057.01
445.394	15534.18
445.6	15394.92
445.807	17160.27
446.013	15951.97
446.22	16674.9
446.426	16986.19
446.633	17371.21
446.839	18147.39
447.046	17277.01
447.252	18151.49
447.459	18268.22
447.665	17881.16
447.871	18616.38
448.078	19562.54
448.284	18853.94
448.491	19333.17
448.697	20029.48
448.903	20174.88
449.11	20201.51
449.316	19965.99
449.522	20498.46
449.728	20975.64
449.935	21221.39
450.141	21016.6
450.347	21645.32
450.553	21026.84
450.76	21317.65
450.966	22241.28
451.172	21827.59
451.378	22272
451.584	22026.25
451.791	22591.48
451.997	22509.57
452.203	22704.12
452.409	22980.6
452.615	22652.92
452.821	21696.52
453.027	21448.72
453.233	22775.8
453.44	22030.34
453.646	22345.73
453.852	22401.02
454.058	22632.44
454.264	22116.36
454.47	22484.99
454.676	21911.56
454.882	22896.63
455.088	20717.59
455.294	21188.63
455.5	21448.72
455.705	21653.51
455.911	20602.91
456.117	20428.83
456.323	20250.66
456.529	18849.85
456.735	20209.7
456.941	19200.05
457.147	19134.51
457.352	18724.92
457.558	18133.06
457.764	18561.08
457.97	18266.17
458.176	17694.79
458.381	17844.29
458.587	16754.77
458.793	16891.99
458.999	16185.44
459.204	17154.13
459.41	16719.96
459.616	15655.01
459.821	15863.91
460.027	15646.82
460.233	15313
460.438	14534.78
460.644	14723.19
460.85	13961.34
461.055	13809.79
461.261	13809.79
461.466	12669.08
461.672	12322.97
461.878	13123.73
462.083	12413.08
462.289	12060.83
462.494	11937.95
462.7	11499.69
462.905	11137.2
463.111	11638.95
463.316	11813.03
463.522	11241.64
463.727	11278.51
463.932	11122.86
464.138	11204.78
464.343	11356.33
464.549	10809.52
464.754	11122.86
464.959	11014.32
465.165	11038.89
465.37	10657.97
465.575	10090.68
465.781	10782.9
465.986	10733.75
466.191	10426.55
466.397	10094.78
466.602	9603.27
466.807	10172.6
467.012	10150.07
467.218	9906.37
467.423	9853.12
467.628	9902.27
467.833	10487.99
468.038	9705.67
468.244	9687.23
468.449	10262.71
468.654	9730.24
468.859	9699.52
469.064	9578.69
469.269	9230.54
469.474	9236.68
469.679	9607.36
469.885	9218.25
470.09	9515.2
470.295	9359.56
470.5	8851.66
470.705	9285.83
470.91	8884.43
471.115	8970.44
471.32	9089.23
471.525	8911.05
471.73	8751.31
471.935	8456.4
472.139	8413.4
472.344	8636.63
472.549	8495.32
472.754	8368.34
472.959	8200.41
473.164	8026.33
473.369	8167.64
473.574	8282.33
473.778	7997.66
473.983	7923.93
474.188	8141.02
474.393	7579.87
474.598	7616.74
474.802	7526.63
475.007	7624.93
475.212	7461.09
475.417	7364.84
475.621	7444.71
475.826	7284.97
476.031	7143.66
476.235	7217.38
476.44	7121.13
476.645	6957.29
476.849	7012.59
477.054	6975.72
477.259	6881.52
477.463	6973.67
477.668	6772.97
477.872	6777.07
478.077	6660.34
478.282	6398.2
478.486	6529.27
478.691	6267.13
478.895	6351.09
479.1	6482.16
479.304	6521.07
479.509	6177.02
479.713	6359.28
479.918	6109.43
480.122	6080.76
480.326	6131.96
480.531	6254.84
480.735	5982.46
480.94	6017.27
481.144	6318.32
481.348	5880.06
481.553	6056.18
481.757	5832.96
481.961	5964.03
482.166	5974.27
482.37	5939.45
482.574	5728.51
482.778	5925.11
482.983	5945.59
483.187	5886.2
483.391	6047.99
483.595	5736.7
483.8	5990.65
484.004	5941.5
484.208	6052.09
484.412	5961.98
484.616	5974.27
484.821	5974.27
485.025	5628.16
485.229	5785.85
485.433	5880.06
485.637	5773.57
485.841	5894.4
486.045	5912.83
486.249	5765.37
486.453	5720.32
486.657	6015.23
486.861	5880.06
487.065	5738.75
487.269	5935.35
487.473	5769.47
487.677	5759.23
487.881	5929.21
488.085	5806.33
488.289	5882.11
488.493	5910.78
488.697	5941.5
488.901	6002.94
489.105	5681.41
489.309	6037.75
489.512	5765.37
489.716	5880.06
489.92	5839.1
490.124	5794.04
490.328	6043.9
490.531	6088.95
490.735	6156.54
490.939	6056.18
491.143	5976.31
491.346	6011.13
491.55	5994.75
491.754	6158.58
491.958	5982.46
492.161	6158.58
492.365	6215.93
492.569	6306.04
492.772	6154.49
492.976	6353.14
493.18	6338.8
493.383	6404.34
493.587	6199.54
493.79	6461.68
493.994	6326.52
494.197	6349.04
494.401	6559.99
494.605	6371.57
494.808	6582.51
495.012	6529.27
495.215	6750.45
495.419	6828.27
495.622	6674.67
495.825	6664.43
496.029	6879.47
496.232	6945
496.436	7014.63
496.639	7194.86
496.843	7024.87
497.046	7080.17
497.249	7235.81
497.453	7248.1
497.656	7289.06
497.859	7291.11
498.063	7573.73
498.266	7489.76
498.469	7461.09
498.673	7686.37
498.876	7749.86
499.079	7856.35
499.282	7987.42
499.485	8292.57
499.689	8085.72
499.892	8186.07
500.095	8077.53
500.298	8290.52
500.501	8356.05
500.705	8431.83
500.908	8616.15
501.111	8620.24
501.314	8751.31
501.517	8755.41
501.72	9042.12
501.923	8904.91
502.126	9181.39
502.329	9324.74
502.532	9435.33
502.735	9357.51
502.938	9476.29
503.141	9537.73
503.344	9881.79
503.547	9892.03
503.75	10119.35
503.953	10107.07
504.156	10162.36
504.359	10209.47
504.562	10381.49
504.765	10504.37
504.968	10766.51
505.17	10827.95
505.373	10721.46
505.576	11196.59
505.779	11032.75
505.982	11313.32
506.185	11278.51
506.387	11190.44
506.59	11460.77
506.793	11688.1
506.996	11894.94
507.198	12015.77
507.401	12052.64
507.604	12091.55
507.807	12370.07
508.009	12327.07
508.212	12284.06
508.415	12593.3
508.617	12699.8
508.82	12982.42
509.022	12875.92
509.225	13131.92
509.428	13369.48
509.63	13418.63
509.833	13602.95
510.035	13846.66
510.238	13752.45
510.44	13998.21
510.643	14012.54
510.845	14395.51
511.048	14239.87
511.25	14399.61
511.453	14434.43
511.655	14891.12
511.858	14936.18
512.06	15073.39
512.262	15315.05
512.465	15270
512.667	15386.73
512.87	15620.2
513.072	15706.21
513.274	15790.18
513.477	16250.97
513.679	16328.8
513.881	16474.2
514.084	16568.41
514.286	16744.53
514.488	17012.82
514.69	17199.18
514.893	17334.35
515.095	17096.78
515.297	17352.78
515.499	17713.22
515.701	17832.01
515.904	18044.99
516.106	18024.51
516.308	18217.02
516.51	18513.98
516.712	18569.27
516.914	18638.9
517.116	18911.28
517.318	19279.92
517.52	19331.12
517.722	19275.82
517.925	19617.83
518.127	19961.89
518.329	19818.53
518.531	19734.57
518.733	20281.38
518.935	20277.28
519.136	20404.25
519.338	20805.66
519.54	20832.28
519.742	21094.42
519.944	21387.28
520.146	21594.12
520.348	21803.02
520.55	21577.74
520.752	21886.98
520.954	22097.92
521.155	22280.19
521.357	22323.2
521.559	22558.72
521.761	22657.02
521.963	22822.91
522.164	23093.24
522.366	22835.19
522.568	23330.8
522.77	23281.65
522.971	23764.97
523.173	23465.97
523.375	23805.93
523.576	23764.97
523.778	23984.1
523.98	24184.8
524.181	24309.73
524.383	24258.53
524.584	24590.3
524.786	24664.03
524.988	24584.16
525.189	25016.28
525.391	25264.08
525.592	25589.71
525.794	25278.42
525.995	25442.26
526.197	25765.84
526.398	25636.81
526.6	25649.1
526.801	26027.98
527.003	25884.62
527.204	26011.59
527.406	26423.23
527.607	26144.71
527.808	26595.26
528.01	26105.8
528.211	26419.14
528.412	26648.51
528.614	26781.63
528.815	26716.09
529.016	27101.11
529.218	26587.07
529.419	27105.21
529.62	27211.7
529.822	27099.06
530.023	27230.13
530.224	26984.38
530.425	26896.31
530.626	27019.19
530.828	26697.66
531.029	27621.3
531.23	27195.32
531.431	27086.78
531.632	27332.53
531.833	27641.78
532.035	27711.41
532.236	27498.42
532.437	27662.26
532.638	27449.27
532.839	27631.54
533.04	27948.97
533.241	27541.43
533.442	28024.75
533.643	27756.46
533.844	27883.44
534.045	27758.51
534.246	27746.22
534.447	27838.38
534.648	27850.67
534.849	27877.29
535.05	27750.32
535.251	27600.82
535.451	27953.07
535.652	27862.96
535.853	28024.75
536.054	27918.25
536.255	27971.5
536.456	27895.72
536.657	28260.26
536.857	27875.24
537.058	27668.4
537.259	28055.47
537.46	28002.22
537.66	27862.96
537.861	27846.57
538.062	27695.02
538.263	27807.66
538.463	27557.81
538.664	27682.73
538.865	27838.38
539.065	28170.15
539.266	27778.99
539.466	27582.38
539.667	27686.83
539.868	27858.86
540.068	27867.05
540.269	27987.88
540.469	27895.72
540.67	27412.4
540.87	27844.52
541.071	28006.31
541.271	27707.31
541.472	27850.67
541.672	27727.79
541.873	27623.34
542.073	27514.8
542.274	28168.1
542.474	27705.26
542.675	27690.93
542.875	27647.92
543.075	27778.99
543.276	27553.71
543.476	27826.09
543.676	27324.34
543.877	27664.3
544.077	27688.88
544.277	27725.74
544.478	27584.43
544.678	27729.84
544.878	27629.49
545.078	27948.97
545.279	27606.96
545.479	27596.72
545.679	27705.26
545.879	27666.35
546.079	27799.47
546.28	27623.34
546.48	27465.65
546.68	27672.5
546.88	27283.38
547.08	27805.61
547.28	27549.62
547.48	27414.45
547.68	27803.57
547.88	27408.31
548.081	27619.25
548.281	27355.06
548.481	27539.38
548.681	27492.27
548.881	27359.16
549.081	27178.93
549.28	27518.9
549.48	27561.9
549.68	27412.4
549.88	27842.48
550.08	27129.78
550.28	27703.21
550.48	27463.6
550.68	27729.84
550.88	27156.41
551.08	27328.44
551.279	27369.4
551.479	27072.44
551.679	27346.87
551.879	27129.78
552.079	27592.62
552.278	26974.14
552.478	27344.82
552.678	27490.23
552.878	27305.91
553.077	27221.94
553.277	27113.4
553.477	27639.73
553.676	26877.88
553.876	27516.85
554.076	26955.71
554.275	27111.35
554.475	26841.02
554.674	27088.82
554.874	27076.54
555.074	26560.45
555.273	27105.21
555.473	27457.46
555.672	26576.83
555.872	26935.23
556.071	26949.56
556.271	27002.81
556.47	26853.31
556.67	26767.29
556.869	26804.16
557.068	26832.83
557.268	26490.82
557.467	26386.37
557.667	26632.13
557.866	26537.92
558.065	26673.09
558.265	26441.67
558.464	26466.24
558.663	26320.84
558.863	26390.47
559.062	26935.23
559.261	26310.6
559.461	27021.24
559.66	26271.68
559.859	26243.01
560.058	26255.3
560.258	26271.68
560.457	25946.06
560.656	26173.38
560.855	26419.14
561.054	26116.04
561.253	26120.13
561.453	26058.7
561.652	26015.69
561.851	25933.77
562.05	25851.85
562.249	25778.12
562.448	26081.22
562.647	25681.87
562.846	25538.51
563.045	25583.57
563.244	25432.02
563.443	25841.61
563.642	25311.19
563.841	25683.92
564.04	25221.08
564.239	25696.21
564.438	25311.19
564.637	25427.92
564.836	25655.25
565.035	24940.5
565.234	25153.49
565.432	24776.67
565.631	24827.87
565.83	25151.45
566.029	24815.58
566.228	24739.8
566.427	24862.68
566.625	24432.61
566.824	24647.65
567.023	25003.99
567.222	24436.7
567.42	24614.88
567.619	24831.96
567.818	24033.25
568.016	24215.52
568.215	24643.55
568.414	24295.39
568.612	24637.41
568.811	24299.49
569.01	24274.91
569.208	24139.75
569.407	24199.14
569.605	23879.66
569.804	24248.29
570.002	23850.99
570.201	24004.58
570.4	23517.17
570.598	23359.47
570.797	23341.04
570.995	23705.58
571.193	23338.99
571.392	23533.55
571.59	23302.13
571.789	23621.61
571.987	22949.88
572.186	23574.51
572.384	22919.16
572.582	23484.4
572.781	23392.24
572.979	22657.02
573.177	23220.21
573.376	22949.88
573.574	22566.91
573.772	22693.88
573.971	22837.24
574.169	22661.12
574.367	22659.07
574.565	22614.01
574.763	22573.05
574.962	22157.32
575.16	22247.43
575.358	22370.3
575.556	21811.21
575.754	22325.25
575.952	21962.76
576.151	22026.25
576.349	21733.39
576.547	22007.81
576.745	22087.68
576.943	21940.23
577.141	21991.43
577.339	21864.46
577.537	21813.26
577.735	21544.97
577.933	21278.74
578.131	21522.44
578.329	21258.26
578.527	21182.48
578.725	21305.36
578.923	21608.46
579.121	21448.72
579.319	21178.39
579.516	21233.68
579.714	21387.28
579.912	21071.89
580.11	20938.77
580.308	21139.47
580.506	20817.94
580.704	20477.98
580.901	20981.78
581.099	20865.05
581.297	20592.67
581.495	20828.18
581.692	20598.81
581.89	20371.49
582.088	20762.65
582.285	20434.97
582.483	20334.62
582.681	20291.62
582.878	20406.3
583.076	20072.48
583.274	20121.63
583.471	19839.01
583.669	20029.48
583.866	19953.7
584.064	20248.61
584.262	19769.38
584.459	20072.48
584.657	19945.51
584.854	19963.94
585.052	19576.87
585.249	19503.15
585.447	19445.8
585.644	19460.14
585.841	19343.41
586.039	19415.09
586.236	19216.43
586.434	19281.97
586.631	19101.75
586.828	19251.25
587.026	19152.95
587.223	19259.44
587.42	19093.55
587.618	18966.58
587.815	18999.35
588.012	18833.46
588.21	18671.67
588.407	18835.51
588.604	18563.13
588.801	18464.83
588.999	18704.44
589.196	18509.88
589.393	18571.32
589.59	18464.83
589.787	18374.72
589.984	18145.34
590.182	18094.15
590.379	18397.24
590.576	18061.38
590.773	17999.94
590.97	17829.96
591.167	18217.02
591.364	17907.78
591.561	18176.06
591.758	17838.15
591.955	17670.22
592.152	17985.6
592.349	17758.28
592.546	17815.62
592.743	17809.48
592.94	17520.71
593.137	17506.38
593.334	17672.26
593.531	17510.47
593.727	17360.97
593.924	17451.08
594.121	17076.3
594.318	17305.68
594.515	17135.7
594.712	17182.8
594.908	17008.72
595.105	17061.97
595.302	17023.06
595.499	16924.76
595.696	16640.09
595.892	16621.66
596.089	16869.46
596.286	16558.17
596.482	16824.4
596.679	16635.99
596.876	16445.53
597.072	16646.23
597.269	16605.27
597.466	16275.55
597.662	16304.22
597.859	16463.96
598.055	16296.03
598.252	16046.18
598.448	16234.59
598.645	15972.45
598.841	15839.33
599.038	15863.91
599.234	15943.78
599.431	15800.42
599.627	15695.97
599.824	15956.07
600.02	15847.52
600.217	15970.4
600.413	15779.94
600.609	15411.31
600.806	15525.99
601.002	15439.98
601.198	15540.33
601.395	15462.51
601.591	15284.33
601.787	15054.96
601.984	15276.14
602.18	15517.8
602.376	15229.04
602.572	15161.45
602.769	15329.39
602.965	15114.35
603.161	15052.91
603.357	15110.25
603.553	14884.98
603.75	15001.71
603.946	14870.64
604.142	14905.46
604.338	14719.09
604.534	14735.48
604.73	14588.02
604.926	14674.04
605.122	14721.14
605.318	14403.71
605.514	14348.41
605.71	14524.54
605.906	14456.95
606.102	14364.79
606.298	14401.66
606.494	14104.7
606.69	14276.73
606.886	14272.64
607.082	14010.5
607.278	14235.77
607.474	14211.2
607.67	14217.34
607.866	14053.5
608.062	14250.11
608.257	14155.9
608.453	13940.86
608.649	14000.26
608.845	13883.52
609.041	13846.66
609.236	14069.89
609.432	13858.95
609.628	13844.61
609.824	13572.23
610.019	13533.32
610.215	13652.1
610.411	13783.17
610.606	13654.15
610.802	13703.3
610.998	13465.74
611.193	13465.74
611.389	13342.86
611.584	13553.8
611.78	13320.33
611.976	13582.47
612.171	13504.65
612.367	13441.16
612.562	13301.9
612.758	13252.75
612.953	13234.32
613.149	13242.51
613.344	12880.02
613.539	13387.91
613.735	13172.88
613.93	13201.55
614.126	13113.49
614.321	13236.36
614.517	12927.12
614.712	13033.61
614.907	12857.49
615.103	13146.25
615.298	12957.84
615.493	13195.4
615.688	13013.13
615.884	13004.94
616.079	12779.67
616.274	12867.73
616.47	12732.56
616.665	13062.29
616.86	12750.99
617.055	12624.02
617.25	12732.56
617.445	12884.11
617.641	12540.05
617.836	12759.19
618.031	12521.62
618.226	12576.92
618.421	12548.25
618.616	12785.81
618.811	12284.06
619.006	12525.72
619.201	12220.57
619.396	12218.52
619.591	12030.11
619.786	12114.08
619.981	12075.17
620.176	12224.67
620.371	11853.98
620.566	12042.4
620.761	11917.47
620.956	12036.25
621.151	11552.93
621.346	11741.35
621.541	11704.48
621.735	11610.28
621.93	11614.37
622.125	11638.95
622.32	11391.14
622.515	11446.44
622.709	11471.01
622.904	11253.93
623.099	11196.59
623.294	11178.15
623.488	11223.21
623.683	11122.86
623.878	10889.39
624.072	11157.68
624.267	10780.85
624.462	10899.63
624.656	10827.95
624.851	10938.54
625.046	10696.88
625.24	10672.31
625.435	10662.07
625.629	10569.91
625.824	10526.9
626.018	10395.83
626.213	10182.84
626.407	10326.2
626.602	10213.56
626.796	10188.99
626.991	10137.79
627.185	10152.12
627.38	9902.27
627.574	10152.12
627.768	9795.78
627.963	9941.18
628.157	9740.48
628.352	9783.49
628.546	9646.27
628.74	9728.19
628.935	9623.75
629.129	9615.55
629.323	9431.24
629.517	9427.14
629.712	9593.03
629.906	9515.2
630.1	9312.46
630.294	9464
630.489	9189.58
630.683	9150.67
630.877	9136.33
631.071	9070.79
631.265	9261.26
631.459	8968.4
631.653	8730.83
631.848	8988.88
632.042	8820.94
632.236	8769.74
632.43	8792.27
632.624	8751.31
632.818	8732.88
633.012	8452.31
633.206	8337.62
633.4	8521.94
633.594	8435.92
633.788	8493.27
633.982	8315.09
634.176	8405.21
634.369	8216.79
634.563	8313.05
634.757	8147.16
634.951	8198.36
635.145	8394.97
635.339	8126.68
635.533	8155.35
635.726	8190.17
635.92	8009.95
636.114	7897.31
636.308	7856.35
636.501	7940.32
636.695	7715.04
636.889	7870.69
637.083	7844.06
637.276	7602.4
637.47	7647.46
637.664	7620.83
637.857	7672.03
638.051	7665.89
638.244	7407.84
638.438	7436.52
638.632	7475.43
638.825	7313.64
639.019	7241.96
639.212	7252.2
639.406	7264.49
639.599	7190.76
639.793	7067.88
639.986	7264.49
640.18	7100.65
640.373	6936.81
640.567	6897.9
640.76	6985.96
640.954	7028.97
641.147	6897.9
641.34	6863.08
641.534	6777.07
641.727	6807.79
641.92	6920.43
642.114	6768.88
642.307	6719.73
642.5	6510.83
642.694	6570.23
642.887	6609.14
643.08	6498.55
643.273	6617.33
643.467	6490.35
643.66	6285.56
643.853	6318.32
644.046	6390
644.239	6269.17
644.432	6365.43
644.626	6086.9
644.819	6211.83
645.012	6301.94
645.205	6091
645.398	6297.85
645.591	6281.46
645.784	6271.22
645.977	6039.8
646.17	6154.49
646.363	5892.35
646.556	5880.06
646.749	5953.79
646.942	5898.49
647.135	5748.99
647.328	5853.44
647.521	5783.81
647.714	5675.26
647.907	5804.28
648.099	5748.99
648.292	5658.88
648.485	5632.26
648.678	5636.35
648.871	5550.34
649.064	5636.35
649.256	5679.36
649.449	5411.07
649.642	5472.51
649.835	5366.02
650.027	5437.7
650.22	5503.23
650.413	5224.71
650.605	5452.03
650.798	5388.55
650.991	5423.36
651.183	5159.17
651.376	5316.87
651.568	5208.33
651.761	5030.15
651.954	5110.02
652.146	5085.45
652.339	5069.06
652.531	5165.32
652.724	5069.06
652.916	4880.65
653.109	4903.18
653.301	4970.76
653.494	4843.79
653.686	4839.69
653.879	4901.13
654.071	4880.65
654.263	4833.55
654.456	4923.66
654.648	4802.83
654.84	4905.23
655.033	4745.48
655.225	4712.72
655.417	4546.83
655.61	4774.16
655.802	4665.61
655.994	4794.64
656.186	4548.88
656.379	4653.33
656.571	4413.71
656.763	4391.19
656.955	4577.55
657.148	4473.11
657.34	4540.69
657.532	4446.48
657.724	4397.33
657.916	4366.61
658.108	4393.23
658.3	4350.23
658.492	4382.99
658.684	4210.97
658.876	4333.84
659.068	4307.22
659.26	4266.26
659.452	4299.03
659.644	4327.7
659.836	4172.05
660.028	4104.47
660.22	4206.87
660.412	3948.83
660.604	4053.27
660.796	4083.99
660.988	4030.74
661.18	3983.64
661.372	4004.12
661.563	4067.61
661.755	3911.96
661.947	3768.6
662.139	3893.53
662.331	3965.21
662.522	3778.84
662.714	3760.41
662.906	3746.08
663.097	3787.04
663.289	3705.12
663.481	3701.02
663.673	3752.22
663.864	3789.08
664.056	3754.27
664.247	3756.32
664.439	3621.15
664.631	3617.05
664.822	3701.02
665.014	3727.64
665.205	3647.77
665.397	3586.33
665.588	3469.6
665.78	3610.91
665.971	3545.38
666.163	3434.78
666.354	3406.11
666.546	3422.5
666.737	3565.85
666.929	3326.24
667.12	3555.62
667.311	3479.84
667.503	3406.11
667.694	3586.33
667.885	3285.28
668.077	3479.84
668.268	3402.02
668.459	3348.77
668.651	3438.88
668.842	3324.19
669.033	3254.56
669.224	3234.08
669.416	3412.26
669.607	3248.42
669.798	3313.95
669.989	3414.31
670.18	3252.52
670.371	3174.69
670.563	3131.69
670.754	3242.28
670.945	3121.45
671.136	3209.51
671.327	3168.55
671.518	3103.01
671.709	3137.83
671.9	3029.29
672.091	3084.58
672.282	3160.36
672.473	3072.29
672.664	3141.93
672.855	3043.62
673.046	3111.21
673.237	2976.04
673.428	3045.67
673.619	3086.63
673.809	2982.18
674	2943.27
674.191	2976.04
674.382	2967.85
674.573	2937.13
674.764	3037.48
674.954	3053.86
675.145	2904.36
675.336	2808.11
675.527	2912.55
675.717	2869.55
675.908	2890.03
676.099	2885.93
676.289	2851.11
676.48	2986.28
676.671	2840.87
676.861	2971.94
677.052	2791.72
677.243	2869.55
677.433	2816.3
677.624	2871.59
677.814	2810.15
678.005	2804.01
678.195	2832.68
678.386	2799.91
678.576	2804.01
678.767	2812.2
678.957	2808.11
679.148	2896.17
679.338	2810.15
679.529	2752.81
679.719	2787.63
679.909	2892.07
680.1	2758.96
680.29	2836.78
680.481	2754.86
680.671	2832.68
680.861	2828.59
681.052	2808.11
681.242	2824.49
681.432	2668.84
681.622	2683.18
681.813	2748.72
682.003	2687.28
682.193	2681.13
682.383	2818.35
682.573	2685.23
682.764	2621.74
682.954	2701.61
683.144	2713.9
683.334	2685.23
683.524	2795.82
683.714	2709.8
683.904	2703.66
684.094	2711.85
684.284	2769.2
684.474	2763.05
684.664	2689.32
684.854	2670.89
685.044	2687.28
685.234	2539.82
685.424	2558.25
685.614	2574.64
685.804	2652.46
685.994	2679.08
686.184	2560.3
686.374	2560.3
686.564	2537.77
686.753	2470.19
686.943	2537.77
687.133	2347.31
687.323	2472.24
687.513	2529.58
687.702	2529.58
687.892	2414.9
688.082	2425.14
688.272	2509.1
688.461	2548.01
688.651	2597.17
688.841	2447.66
689.03	2494.77
689.22	2498.86
689.41	2437.42
689.599	2416.94
689.789	2324.79
689.979	2390.32
690.168	2392.37
690.358	2341.17
690.547	2359.6
690.737	2384.18
690.926	2431.28
691.116	2175.28
691.305	2265.39
691.495	2230.58
691.684	2203.96
691.874	2369.84
692.063	2189.62
692.252	2261.3
692.442	2246.96
692.631	2222.39
692.82	2203.96
693.01	2144.56
693.199	2302.26
693.388	2140.47
693.578	2210.1
693.767	2203.96
693.956	2169.14
694.146	2146.61
694.335	2154.8
694.524	2001.21
694.713	2087.22
694.902	1990.97
695.092	2175.28
695.281	2136.37
695.47	2134.32
695.659	2130.23
695.848	2074.93
696.037	2156.85
696.226	2103.61
696.415	2021.69
696.604	2212.15
696.793	1964.34
696.982	2103.61
697.171	2005.3
697.36	2119.99
697.549	1997.11
697.738	1927.48
697.927	1995.06
698.116	1945.91
698.305	1966.39
698.494	1962.3
698.683	2007.35
698.872	1999.16
699.061	1993.01
699.25	1972.54
699.438	1941.82
699.627	1845.56
699.816	2079.03
700.005	1997.11
700.193	1927.48
700.382	1900.86
700.571	1956.15
700.76	2015.54
700.948	2052.41
701.137	1913.14
701.326	2013.49
701.514	1880.38
701.703	1843.51
701.892	1857.85
702.08	1995.06
702.269	1876.28
702.457	1861.94
702.646	1927.48
702.834	1806.65
703.023	1898.81
703.212	1933.62
703.4	1931.58
703.589	1970.49
703.777	1999.16
703.965	1868.09
704.154	1896.76
704.342	1818.94
704.531	1894.71
704.719	1851.71
704.907	1950.01
705.096	1980.73
705.284	1909.05
705.472	1835.32
705.661	1933.62
705.849	1917.24
706.037	1892.66
706.226	1800.51
706.414	1835.32
706.602	1894.71
706.79	1900.86
706.979	1976.63
707.167	1841.47
707.355	1829.18
707.543	1915.19
707.731	1857.85
707.919	1988.92
708.107	1790.27
708.296	1827.13
708.484	1970.49
708.672	1941.82
708.86	1925.43
709.048	1943.86
709.236	1849.66
709.424	1980.73
709.612	1874.23
709.8	1827.13
709.988	1894.71
710.176	1947.96
710.364	1945.91
710.551	1882.42
710.739	1923.38
710.927	1911.1
711.115	1870.14
711.303	1833.27
711.491	1960.25
711.679	1878.33
711.866	1921.34
712.054	1849.66
712.242	1859.9
712.43	1939.77
712.617	1907
712.805	1900.86
712.993	1859.9
713.181	1800.51
713.368	1921.34
713.556	1804.6
713.744	1890.62
713.931	1894.71
714.119	1939.77
714.306	1730.87
714.494	1841.47
714.682	1898.81
714.869	1870.14
715.057	1943.86
715.244	1894.71
715.432	1935.67
715.619	1995.06
715.807	2007.35
715.994	1884.47
716.182	1925.43
716.369	1968.44
716.556	1898.81
716.744	1886.52
716.931	1853.75
717.119	1952.06
717.306	1915.19
717.493	1933.62
717.681	1843.51
717.868	2005.3
718.055	1988.92
718.242	1950.01
718.43	1913.14
718.617	1947.96
718.804	1947.96
718.991	1931.58
719.179	1988.92
719.366	1816.89
719.553	2033.97
719.74	1960.25
719.927	1984.82
720.114	1958.2
720.301	2005.3
720.488	1927.48
720.676	2038.07
720.863	1997.11
721.05	1931.58
721.237	1964.34
721.424	1964.34
721.611	1939.77
721.798	1917.24
721.985	1927.48
722.172	1868.09
722.358	1837.37
722.545	1902.9
722.732	1907
722.919	1984.82
723.106	1888.57
723.293	1939.77
723.48	1997.11
723.667	2054.45
723.853	1925.43
724.04	1964.34
724.227	1993.01
724.414	2044.21
724.6	2025.78
724.787	2025.78
724.974	2070.84
725.161	1950.01
725.347	2021.69
725.534	1950.01
725.72	1947.96
725.907	2033.97
726.094	2074.93
726.28	1999.16
726.467	1947.96
726.653	1941.82
726.84	2025.78
727.027	2023.73
727.213	1941.82
727.4	2097.46
727.586	2013.49
727.773	1990.97
727.959	1941.82
728.145	1958.2
728.332	2052.41
728.518	1993.01
728.705	2097.46
728.891	2070.84
729.077	1929.53
729.264	1925.43
729.45	1988.92
729.636	2144.56
729.823	2001.21
730.009	2113.85
730.195	2044.21
730.382	2011.45
730.568	1982.78
730.754	1988.92
730.94	2169.14
731.126	2058.55
731.313	2040.12
731.499	1937.72
731.685	2007.35
731.871	2058.55
732.057	2029.88
732.243	2142.52
732.429	2081.08
732.615	2033.97
732.801	2017.59
732.987	2097.46
733.173	2021.69
733.359	2076.98
733.545	2019.64
733.731	2013.49
733.917	2099.51
734.103	2185.52
734.289	2013.49
734.475	1972.54
734.661	2072.89
734.847	2031.93
735.033	2054.45
735.219	1925.43
735.404	2119.99
735.59	2156.85
735.776	2019.64
735.962	2152.76
736.148	2081.08
736.333	2187.57
736.519	2021.69
736.705	2044.21
736.89	2070.84
737.076	1972.54
737.262	2029.88
737.447	1866.04
737.633	2193.72
737.819	2113.85
738.004	2050.36
738.19	1933.62
738.375	2005.3
738.561	2048.31
738.747	2095.41
738.932	1988.92
739.118	2095.41
739.303	2048.31
739.489	1915.19
739.674	1960.25
739.859	1986.87
740.045	1964.34
740.23	2042.17
740.416	2003.25
740.601	2085.17
740.786	1947.96
740.972	1966.39
741.157	1993.01
741.342	1907
741.528	1968.44
741.713	1972.54
741.898	2013.49
742.084	1950.01
742.269	2005.3
742.454	1923.38
742.639	1964.34
742.824	1810.75
743.01	1984.82
743.195	1947.96
743.38	1868.09
743.565	1902.9
743.75	1966.39
743.935	1796.41
744.12	1999.16
744.305	1866.04
744.49	1816.89
744.675	1800.51
744.86	1956.15
745.045	1851.71
745.23	1857.85
745.415	1894.71
745.6	1943.86
745.785	1796.41
745.97	1786.17
746.155	1788.22
746.34	1747.26
746.525	1751.35
746.71	1808.7
746.895	1730.87
747.079	1708.35
747.264	1704.25
747.449	1796.41
747.634	1816.89
747.819	1743.16
748.003	1651
748.188	1603.9
748.373	1689.92
748.557	1710.4
748.742	1597.76
748.927	1763.64
749.111	1677.63
749.296	1636.67
749.481	1663.29
749.665	1685.82
749.85	1597.76
750.034	1556.8
750.219	1513.79
750.404	1544.51
750.588	1587.52
750.773	1521.98
750.957	1591.61
751.141	1548.61
751.326	1509.69
751.51	1546.56
751.695	1507.65
751.879	1491.26
752.064	1581.37
752.248	1431.87
752.432	1534.27
752.617	1493.31
752.801	1505.6
752.985	1505.6
753.17	1435.97
753.354	1489.21
753.538	1464.64
753.722	1384.77
753.907	1392.96
754.091	1421.63
754.275	1339.71
754.459	1392.96
754.643	1308.99
754.828	1368.38
755.012	1386.82
755.196	1337.66
755.38	1411.39
755.564	1382.72
755.748	1218.88
755.932	1257.79
756.116	1261.89
756.3	1327.43
756.484	1286.47
756.668	1259.84
756.852	1280.32
757.036	1259.84
757.22	1202.5
757.404	1235.27
757.588	1302.85
757.772	1270.08
757.956	1210.69
758.14	1227.07
758.323	1169.73
758.507	1165.64
758.691	1233.22
758.875	1179.97
759.059	1159.49
759.242	1225.03
759.426	1120.58
759.61	1206.59
759.794	1059.14
759.977	1132.87
760.161	1173.83
760.345	1085.76
760.528	1196.36
760.712	1083.72
760.895	1091.91
761.079	1020.23
761.263	1087.81
761.446	1073.48
761.63	1063.24
761.813	1136.96
761.997	979.27
762.18	989.51
762.364	1079.62
762.547	1018.18
762.731	1057.09
762.914	1018.18
763.098	932.17
763.281	1007.94
763.464	964.93
763.648	969.03
763.831	997.7
764.015	1061.19
764.198	1075.52
764.381	928.07
764.564	1079.62
764.748	977.22
764.931	1016.13
765.114	919.88
765.297	1055.05
765.481	952.65
765.664	870.73
765.847	975.17
766.03	948.55
766.213	917.83
766.397	958.79
766.58	956.74
766.763	891.21
766.946	883.02
767.129	883.02
767.312	950.6
767.495	883.02
767.678	940.36
767.861	821.58
768.044	833.86
768.227	909.64
768.41	921.93
768.593	993.61
768.776	889.16
768.959	915.78
769.142	952.65
769.324	913.74
769.507	860.49
769.69	842.06
769.873	915.78
770.056	903.5
770.239	883.02
770.421	866.63
770.604	844.1
770.787	833.86
770.97	739.66
771.152	846.15
771.335	923.98
771.518	850.25
771.7	897.35
771.883	921.93
772.066	860.49
772.248	794.95
772.431	870.73
772.613	846.15
772.796	717.13
772.978	801.1
773.161	772.43
773.343	803.15
773.526	809.29
773.708	749.9
773.891	737.61
774.073	733.51
774.256	688.46
774.438	854.34
774.621	776.52
774.803	743.75
774.985	663.88
775.168	784.71
775.35	710.99
775.532	797
775.715	735.56
775.897	663.88
776.079	751.95
776.261	727.37
776.444	637.26
776.626	723.27
776.808	663.88
776.99	604.49
777.173	772.43
777.355	600.4
777.537	657.74
777.719	604.49
777.901	676.17
778.083	631.12
778.265	602.44
778.447	631.12
778.629	600.4
778.811	655.69
778.993	645.45
779.175	678.22
779.357	678.22
779.539	579.92
779.721	612.68
779.903	604.49
780.085	604.49
780.267	575.82
780.449	618.83
780.631	606.54
780.812	485.71
780.994	604.49
781.176	588.11
781.358	551.24
781.54	518.48
781.721	555.34
781.903	655.69
782.085	596.3
782.267	502.09
782.448	522.57
782.63	461.13
782.812	442.7
782.993	522.57
783.175	547.15
783.357	512.33
783.538	541.01
783.72	498
783.901	506.19
784.083	506.19
784.264	483.66
784.446	448.85
784.627	498
784.809	473.42
784.99	407.89
785.172	409.94
785.353	465.23
785.535	457.04
785.716	420.17
785.897	426.32
786.079	459.09
786.26	428.37
786.441	481.61
786.623	342.35
786.804	385.36
786.985	407.89
787.167	405.84
787.348	469.33
787.529	424.27
787.71	360.78
787.891	498
788.073	426.32
788.254	420.17
788.435	459.09
788.616	467.28
788.797	338.26
788.978	352.59
789.159	360.78
789.34	375.12
789.522	375.12
789.703	393.55
789.884	338.26
790.065	377.17
790.246	344.4
790.427	291.15
790.607	383.31
790.788	352.59
790.969	358.74
791.15	319.82
791.331	299.34
791.512	336.21
791.693	252.24
791.874	309.58
792.054	377.17
792.235	319.82
792.416	256.34
792.597	371.02
792.778	389.46
792.958	315.73
793.139	270.67
793.32	301.39
793.5	301.39
793.681	375.12
793.862	321.87
794.042	346.45
794.223	303.44
794.404	272.72
794.584	260.43
794.765	270.67
794.945	295.25
795.126	338.26
795.306	332.11
795.487	264.53
795.667	360.78
795.848	270.67
796.028	301.39
796.209	229.71
796.389	350.54
796.57	180.56
796.75	256.34
796.93	313.68
797.111	287.06
797.291	344.4
797.471	203.09
797.652	203.09
797.832	213.33
798.012	334.16
798.192	231.76
798.373	221.52
798.553	256.34
798.733	203.09
798.913	231.76
799.093	186.71
799.274	285.01
799.454	268.63
799.634	252.24
799.814	231.76
799.994	311.63
800.174	354.64
800.354	262.48
800.534	254.29
800.714	278.87
800.894	295.25
801.074	213.33
801.254	205.14
801.434	221.52
801.614	186.71
801.794	192.85
801.974	850.25
802.154	252.24
802.334	215.38
802.514	217.43
802.693	252.24
802.873	172.37
803.053	203.09
803.233	256.34
803.413	166.23
803.592	229.71
803.772	164.18
803.952	246.1
804.131	178.51
804.311	227.67
804.491	268.63
804.67	141.65
804.85	239.95
805.03	174.42
805.209	168.27
805.389	149.84
805.568	162.13
805.748	244.05
805.928	205.14
806.107	158.03
806.287	192.85
806.466	194.9
806.646	155.99
806.825	182.61
807.004	209.23
807.184	176.47
807.363	203.09
807.543	231.76
807.722	153.94
807.901	153.94
808.081	252.24
808.26	125.27
808.439	211.28
808.619	125.27
808.798	133.46
808.977	158.03
809.156	186.71
809.336	147.8
809.515	178.51
809.694	143.7
809.873	108.88
810.052	237.91
810.231	133.46
810.411	235.86
810.59	158.03
810.769	182.61
810.948	149.84
811.127	158.03
811.306	137.56
811.485	203.09
811.664	211.28
811.843	100.69
812.022	129.36
812.201	129.36
812.38	186.71
812.559	170.32
812.737	82.26
812.916	217.43
813.095	186.71
813.274	162.13
813.453	125.27
813.632	129.36
813.811	170.32
813.989	174.42
814.168	219.47
814.347	143.7
814.526	121.17
814.704	162.13
814.883	178.51
815.062	22.87
815.24	162.13
815.419	137.56
815.598	117.08
815.776	149.84
815.955	145.75
816.133	88.4
816.312	96.6
816.49	96.6
816.669	151.89
816.847	63.83
817.026	131.41
817.204	74.07
817.383	84.31
817.561	125.27
817.74	153.94
817.918	129.36
818.097	106.84
818.275	196.95
818.453	166.23
818.632	108.88
818.81	137.56
818.988	86.36
819.167	131.41
819.345	104.79
819.523	153.94
819.701	39.25
819.879	149.84
820.058	86.36
820.236	92.5
820.414	129.36
820.592	112.98
820.77	112.98
820.948	131.41
821.127	131.41
821.305	121.17
821.483	88.4
821.661	115.03
821.839	149.84
822.017	108.88
822.195	10.58
822.373	96.6
822.551	39.25
822.729	153.94
822.907	112.98
823.085	129.36
823.262	6.49
823.44	88.4
823.618	153.94
823.796	98.64
823.974	47.44
824.152	22.87
824.329	164.18
824.507	112.98
824.685	49.49
824.863	61.78
825.04	65.88
825.218	104.79
825.396	129.36
825.574	57.68
825.751	84.31
825.929	141.65
826.107	16.73
826.284	63.83
826.462	82.26
826.639	88.4
826.817	8.53
826.994	145.75
827.172	106.84
827.349	145.75
827.527	82.26
827.704	20.82
827.882	100.69
828.059	-1.71
828.237	47.44
828.414	104.79
828.591	137.56
828.769	39.25
828.946	80.21
829.124	92.5
829.301	22.87
829.478	98.64
829.655	84.31
829.833	76.12
830.01	-5.8
830.187	51.54
830.364	35.16
830.542	76.12
830.719	102.74
830.896	63.83
831.073	127.32
831.25	131.41
831.427	129.36
831.604	72.02
831.782	84.31
831.959	104.79
832.136	92.5
832.313	14.68
832.49	98.64
832.667	104.79
832.844	74.07
833.021	51.54
833.198	55.64
833.374	16.73
833.551	-20.14
833.728	10.58
833.905	90.45
834.082	22.87
834.259	69.97
834.436	98.64
834.612	112.98
834.789	108.88
834.966	104.79
835.143	125.27
835.319	-7.85
835.496	29.01
835.673	80.21
835.85	76.12
836.026	121.17
836.203	86.36
836.38	-7.85
836.556	43.35
836.733	0.34
836.909	123.22
837.086	59.73
837.262	-3.75
837.439	67.92
837.616	115.03
837.792	55.64
837.968	6.49
838.145	43.35
838.321	137.56
838.498	2.39
838.674	0.34
838.851	37.2
839.027	39.25
839.203	24.92
839.38	98.64
839.556	16.73
839.732	0.34
839.909	-30.38
840.085	104.79
840.261	2.39
840.437	121.17
840.614	-32.43
840.79	63.83
840.966	16.73
841.142	-7.85
841.318	53.59
841.494	47.44
841.671	22.87
841.847	-28.33
842.023	-30.38
842.199	43.35
842.375	43.35
842.551	-83.63
842.727	-7.85
842.903	63.83
843.079	33.11
843.255	14.68
843.431	-24.23
843.607	26.96
843.783	6.49
843.959	12.63
844.134	51.54
844.31	158.03
844.486	0.34
844.662	-11.95
844.838	-16.04
845.013	16.73
845.189	22.87
845.365	74.07
845.541	129.36
845.716	55.64
845.892	43.35
846.068	67.92
846.244	-18.09
846.419	84.31
846.595	37.2
846.77	-9.9
846.946	33.11
847.122	74.07
847.297	29.01
847.473	90.45
847.648	-65.19
847.824	53.59
847.999	2.39
848.175	-28.33
848.35	-69.29
848.526	8.53
848.701	72.02
848.876	80.21
849.052	74.07
849.227	72.02
849.403	80.21
849.578	53.59
849.753	43.35
849.929	24.92
850.104	6.49
850.279	39.25
850.454	41.3
850.63	-22.19
850.805	-30.38
850.98	-42.67
851.155	-59.05
851.33	80.21
851.505	-48.81
851.681	106.84
851.856	-75.43
852.031	-22.19
852.206	72.02
852.381	16.73
852.556	-30.38
852.731	31.06
852.906	22.87
853.081	90.45
853.256	39.25
853.431	24.92
853.606	47.44
853.781	2.39
853.956	-32.43
854.131	-50.86
854.305	-11.95
854.48	96.6
854.655	6.49
854.83	2.39
855.005	-18.09
855.18	61.78
855.354	-42.67
855.529	8.53
855.704	31.06
855.879	-44.71
856.053	59.73
856.228	26.96
856.403	47.44
856.577	47.44
856.752	-13.99
856.926	-1.71
857.101	41.3
857.276	-9.9
857.45	74.07
857.625	-75.43
857.799	4.44
857.974	39.25
858.148	-1.71
858.323	-30.38
858.497	31.06
858.672	20.82
858.846	29.01
859.02	6.49
859.195	-26.28
859.369	-5.8
859.543	-38.57
859.718	51.54
859.892	61.78
860.066	-22.19
860.241	35.16
860.415	-32.43
860.589	-1.71
860.763	16.73
860.938	-1.71
861.112	51.54
861.286	-18.09
861.46	80.21
861.634	6.49
861.808	0.34
861.982	47.44
862.157	-42.67
862.331	-79.53
862.505	59.73
862.679	-7.85
862.853	-26.28
863.027	-1.71
863.201	20.82
863.375	-65.19
863.549	-13.99
863.722	-13.99
863.896	63.83
864.07	-32.43
864.244	-42.67
864.418	-26.28
864.592	14.68
864.766	-9.9
864.939	69.97
865.113	20.82
865.287	2.39
865.461	43.35
865.634	63.83
865.808	-24.23
865.982	43.35
866.156	-30.38
866.329	-30.38
866.503	35.16
866.676	-26.28
866.85	-32.43
867.024	-9.9
867.197	18.77
867.371	37.2
867.544	74.07
867.718	8.53
867.891	2.39
868.065	-1.71
868.238	10.58
868.412	4.44
868.585	-16.04
868.759	33.11
868.932	-1.71
869.105	12.63
869.279	26.96
869.452	-5.8
869.625	84.31
869.799	-1.71
869.972	67.92
870.145	6.49
870.319	26.96
870.492	26.96
870.665	-5.8
870.838	14.68
871.011	4.44
871.185	-32.43
871.358	-50.86
871.531	14.68
871.704	26.96
871.877	-1.71
872.05	57.68
872.223	6.49
872.396	-9.9
872.569	29.01
872.742	51.54
872.915	-16.04
873.088	-20.14
873.261	-44.71
873.434	-81.58
873.607	18.77
873.78	69.97
873.953	14.68
874.126	-85.67
874.299	123.22
874.471	-71.34
874.644	-16.04
874.817	-5.8
874.99	63.83
875.163	6.49
875.335	57.68
875.508	35.16
875.681	74.07
875.853	-46.76
876.026	12.63
876.199	55.64
876.371	14.68
876.544	14.68
876.717	61.78
876.889	22.87
877.062	-24.23
877.234	-7.85
877.407	-13.99
877.579	4.44
877.752	74.07
877.924	24.92
878.097	-34.47
878.269	-40.62
878.442	-22.19
878.614	-7.85
878.786	10.58
878.959	26.96
879.131	43.35
879.303	-46.76
879.476	16.73
879.648	45.4
879.82	-44.71
879.993	-24.23
880.165	-5.8
880.337	18.77
880.509	-26.28
880.681	-48.81
880.854	14.68
881.026	-3.75
881.198	65.88
881.37	-34.47
881.542	35.16
881.714	-69.29
881.886	-50.86
882.058	39.25
882.23	-24.23
882.402	55.64
882.574	-1.71
882.746	-34.47
882.918	63.83
883.09	14.68
883.262	-18.09
883.434	-63.15
883.606	-32.43
883.778	18.77
883.95	18.77
884.122	-59.05
884.293	51.54
884.465	-46.76
884.637	67.92
884.809	-30.38
884.98	8.53
885.152	-48.81
885.324	6.49
885.496	-7.85
885.667	39.25
885.839	22.87
886.011	55.64
886.182	63.83
886.354	47.44
886.525	-11.95
886.697	55.64
886.869	16.73
887.04	-57
887.212	22.87
887.383	45.4
887.555	45.4
887.726	-16.04
887.897	-22.19
888.069	-34.47
888.24	0.34
888.412	-24.23
888.583	-11.95
888.754	-32.43
888.926	-57
889.097	31.06
889.268	-57
889.44	-7.85
889.611	-32.43
889.782	2.39
889.953	26.96
890.125	47.44
890.296	-87.72
890.467	-9.9
890.638	-11.95
890.809	-13.99
890.98	29.01
891.151	31.06
891.323	-59.05
891.494	-30.38
891.665	-38.57
891.836	26.96
892.007	-30.38
892.178	-26.28
892.349	96.6
892.52	-54.95
892.691	-38.57
892.862	-26.28
893.032	-65.19
893.203	88.4
893.374	-42.67
893.545	6.49
893.716	-22.19
893.887	104.79
894.057	-9.9
894.228	-1.71
894.399	-22.19
894.57	-79.53
894.74	-18.09
894.911	61.78
895.082	22.87
895.253	-18.09
895.423	-32.43
895.594	-16.04
895.764	22.87
895.935	55.64
896.106	-18.09
896.276	-9.9
896.447	-26.28
896.617	-13.99
896.788	-18.09
896.958	-38.57
897.129	31.06
897.299	47.44
897.47	78.16
897.64	-46.76
897.81	12.63
897.981	10.58
898.151	-26.28
898.322	-38.57
898.492	-20.14
898.662	-83.63
898.832	-59.05
899.003	-59.05
899.173	14.68
899.343	-42.67
899.513	53.59
