Data from USB4F104151__160__14-44-42-138.txt Node

Date: Thu Mar 13 14:44:42 EDT 2025
User: louis
Spectrometer: USB4F10415
Trigger mode: 4
Integration Time (sec): 2.000000E-2
Scans to average: 1
Electric dark correction enabled: true
Nonlinearity correction enabled: false
Boxcar width: 0
XAxis mode: Wavelengths
Number of Pixels in Spectrum: 3648
>>>>>Begin Spectral Data<<<<<
178.204	-114.17
178.424	-114.17
178.644	-114.17
178.864	-97.79
179.084	-99.84
179.304	-71.17
179.524	-26.11
179.744	-9.73
179.964	47.62
180.184	2.56
180.404	41.47
180.624	4.61
180.844	-40.45
181.064	8.7
181.283	-19.97
181.503	14.85
181.723	47.62
181.943	-67.07
182.163	139.77
182.383	8.7
182.602	107.01
182.822	59.9
183.042	16.9
183.262	31.23
183.482	57.86
183.701	47.62
183.921	47.62
184.141	14.85
184.361	47.62
184.58	-32.26
184.8	-9.73
185.02	53.76
185.239	72.19
185.459	0.51
185.679	49.66
185.898	-40.45
186.118	59.9
186.338	68.09
186.557	27.14
186.777	18.94
186.997	41.47
187.216	51.71
187.436	35.33
187.655	72.19
187.875	82.43
188.095	88.57
188.314	-9.73
188.534	68.09
188.753	88.57
188.973	127.49
189.192	51.71
189.412	59.9
189.631	33.28
189.851	74.24
190.07	35.33
190.29	59.9
190.509	59.9
190.729	23.04
190.948	141.82
191.168	129.53
191.387	145.92
191.607	98.81
191.826	55.81
192.045	27.14
192.265	72.19
192.484	23.04
192.704	102.91
192.923	-9.73
193.142	158.21
193.362	68.09
193.581	72.19
193.8	76.29
194.02	86.53
194.239	41.47
194.458	43.52
194.678	57.86
194.897	57.86
195.116	115.2
195.335	-5.63
195.555	39.42
195.774	43.52
195.993	18.94
196.212	66.05
196.432	-17.92
196.651	55.81
196.87	14.85
197.089	43.52
197.308	39.42
197.528	33.28
197.747	10.75
197.966	41.47
198.185	6.66
198.404	31.23
198.623	47.62
198.842	82.43
199.062	68.09
199.281	55.81
199.5	6.66
199.719	23.04
199.938	55.81
200.157	6.66
200.376	86.53
200.595	25.09
200.814	49.66
201.033	31.23
201.252	129.53
201.471	10.75
201.69	57.86
201.909	-9.73
202.128	27.14
202.347	96.77
202.566	31.23
202.785	51.71
203.004	-17.92
203.223	111.1
203.442	70.14
203.661	39.42
203.879	64
204.098	80.38
204.317	45.57
204.536	37.38
204.755	113.15
204.974	100.86
205.193	113.15
205.411	88.57
205.63	64
205.849	68.09
206.068	-24.06
206.287	31.23
206.505	49.66
206.724	84.48
206.943	43.52
207.162	-9.73
207.381	84.48
207.599	39.42
207.818	6.66
208.037	96.77
208.255	20.99
208.474	88.57
208.693	33.28
208.911	66.05
209.13	31.23
209.349	80.38
209.567	121.34
209.786	57.86
210.005	37.38
210.223	104.96
210.442	47.62
210.661	59.9
210.879	18.94
211.098	-22.02
211.316	70.14
211.535	37.38
211.753	43.52
211.972	66.05
212.191	31.23
212.409	76.29
212.628	0.51
212.846	-60.93
213.065	55.81
213.283	170.49
213.502	14.85
213.72	-19.97
213.938	18.94
214.157	14.85
214.375	-15.87
214.594	90.62
214.812	23.04
215.031	57.86
215.249	-38.4
215.467	39.42
215.686	-32.26
215.904	72.19
216.122	64
216.341	96.77
216.559	35.33
216.778	51.71
216.996	6.66
217.214	47.62
217.432	64
217.651	12.8
217.869	-9.73
218.087	104.96
218.306	-54.78
218.524	6.66
218.742	72.19
218.96	8.7
219.179	66.05
219.397	68.09
219.615	59.9
219.833	47.62
220.051	8.7
220.27	80.38
220.488	123.39
220.706	16.9
220.924	2.56
221.142	18.94
221.36	6.66
221.578	133.63
221.796	31.23
222.015	45.57
222.233	18.94
222.451	133.63
222.669	-48.64
222.887	66.05
223.105	4.61
223.323	29.18
223.541	-1.54
223.759	6.66
223.977	47.62
224.195	55.81
224.413	23.04
224.631	41.47
224.849	80.38
225.067	154.11
225.285	23.04
225.503	82.43
225.721	33.28
225.939	8.7
226.157	113.15
226.375	121.34
226.592	51.71
226.81	29.18
227.028	53.76
227.246	-9.73
227.464	47.62
227.682	59.9
227.9	6.66
228.117	51.71
228.335	64
228.553	39.42
228.771	47.62
228.989	53.76
229.206	88.57
229.424	0.51
229.642	66.05
229.86	-32.26
230.077	51.71
230.295	10.75
230.513	78.33
230.731	-24.06
230.948	10.75
231.166	82.43
231.384	35.33
231.601	-9.73
231.819	115.2
232.037	16.9
232.254	18.94
232.472	76.29
232.689	-73.21
232.907	66.05
233.125	90.62
233.342	-34.3
233.56	147.97
233.777	123.39
233.995	37.38
234.213	88.57
234.43	6.66
234.648	37.38
234.865	-15.87
235.083	96.77
235.3	102.91
235.518	55.81
235.735	147.97
235.953	98.81
236.17	80.38
236.388	88.57
236.605	-48.64
236.822	-32.26
237.04	27.14
237.257	68.09
237.475	43.52
237.692	35.33
237.909	-19.97
238.127	-13.82
238.344	64
238.562	6.66
238.779	84.48
238.996	80.38
239.214	-17.92
239.431	51.71
239.648	55.81
239.865	55.81
240.083	80.38
240.3	68.09
240.517	-34.3
240.735	61.95
240.952	33.28
241.169	25.09
241.386	29.18
241.603	25.09
241.821	31.23
242.038	129.53
242.255	61.95
242.472	39.42
242.689	107.01
242.907	14.85
243.124	33.28
243.341	25.09
243.558	-3.58
243.775	-34.3
243.992	39.42
244.209	23.04
244.426	92.67
244.643	104.96
244.86	64
245.078	98.81
245.295	88.57
245.512	55.81
245.729	8.7
245.946	8.7
246.163	16.9
246.38	66.05
246.597	76.29
246.814	43.52
247.031	-9.73
247.248	39.42
247.464	49.66
247.681	55.81
247.898	47.62
248.115	88.57
248.332	72.19
248.549	47.62
248.766	66.05
248.983	121.34
249.2	39.42
249.417	102.91
249.633	45.57
249.85	33.28
250.067	2.56
250.284	25.09
250.501	0.51
250.717	55.81
250.934	31.23
251.151	59.9
251.368	-9.73
251.585	137.73
251.801	64
252.018	139.77
252.235	51.71
252.451	10.75
252.668	2.56
252.885	78.33
253.102	33.28
253.318	45.57
253.535	70.14
253.752	-17.92
253.968	45.57
254.185	-1.54
254.401	4.61
254.618	12.8
254.835	23.04
255.051	74.24
255.268	82.43
255.484	39.42
255.701	23.04
255.917	64
256.134	57.86
256.351	23.04
256.567	80.38
256.784	37.38
257	18.94
257.217	23.04
257.433	88.57
257.65	33.28
257.866	94.72
258.082	-83.45
258.299	76.29
258.515	88.57
258.732	74.24
258.948	14.85
259.165	64
259.381	16.9
259.597	18.94
259.814	25.09
260.03	80.38
260.246	35.33
260.463	35.33
260.679	47.62
260.895	-1.54
261.112	-5.63
261.328	51.71
261.544	55.81
261.761	41.47
261.977	47.62
262.193	0.51
262.409	39.42
262.626	49.66
262.842	47.62
263.058	-5.63
263.274	55.81
263.49	35.33
263.707	61.95
263.923	88.57
264.139	35.33
264.355	51.71
264.571	66.05
264.787	47.62
265.004	131.58
265.22	43.52
265.436	43.52
265.652	27.14
265.868	80.38
266.084	8.7
266.3	16.9
266.516	6.66
266.732	47.62
266.948	78.33
267.164	33.28
267.38	37.38
267.596	59.9
267.812	154.11
268.028	131.58
268.244	-24.06
268.46	88.57
268.676	31.23
268.892	119.29
269.108	39.42
269.324	8.7
269.54	74.24
269.756	57.86
269.972	-26.11
270.188	59.9
270.403	23.04
270.619	8.7
270.835	23.04
271.051	35.33
271.267	-11.78
271.483	12.8
271.698	35.33
271.914	74.24
272.13	59.9
272.346	35.33
272.562	66.05
272.777	25.09
272.993	55.81
273.209	-50.69
273.425	66.05
273.64	31.23
273.856	35.33
274.072	-26.11
274.287	6.66
274.503	88.57
274.719	80.38
274.934	88.57
275.15	-56.83
275.366	23.04
275.581	53.76
275.797	90.62
276.012	23.04
276.228	61.95
276.444	2.56
276.659	80.38
276.875	-13.82
277.09	35.33
277.306	25.09
277.521	72.19
277.737	31.23
277.952	49.66
278.168	57.86
278.383	129.53
278.599	25.09
278.814	-42.5
279.03	35.33
279.245	72.19
279.461	23.04
279.676	25.09
279.892	14.85
280.107	-60.93
280.322	10.75
280.538	2.56
280.753	18.94
280.969	80.38
281.184	16.9
281.399	55.81
281.615	55.81
281.83	39.42
282.045	-42.5
282.26	37.38
282.476	-11.78
282.691	43.52
282.906	31.23
283.122	33.28
283.337	-26.11
283.552	23.04
283.767	-3.58
283.983	39.42
284.198	-7.68
284.413	-24.06
284.628	23.04
284.843	47.62
285.058	25.09
285.274	57.86
285.489	6.66
285.704	117.25
285.919	-1.54
286.134	6.66
286.349	14.85
286.564	137.73
286.779	86.53
286.995	51.71
287.21	14.85
287.425	20.99
287.64	49.66
287.855	8.7
288.07	6.66
288.285	137.73
288.5	66.05
288.715	96.77
288.93	35.33
289.145	72.19
289.36	27.14
289.575	27.14
289.79	55.81
290.004	27.14
290.219	39.42
290.434	-71.17
290.649	10.75
290.864	35.33
291.079	23.04
291.294	10.75
291.509	31.23
291.724	51.71
291.938	47.62
292.153	51.71
292.368	80.38
292.583	2.56
292.798	25.09
293.012	82.43
293.227	84.48
293.442	27.14
293.657	51.71
293.871	25.09
294.086	14.85
294.301	35.33
294.516	25.09
294.73	131.58
294.945	8.7
295.16	47.62
295.374	55.81
295.589	6.66
295.804	35.33
296.018	41.47
296.233	74.24
296.447	25.09
296.662	72.19
296.877	90.62
297.091	90.62
297.306	57.86
297.52	14.85
297.735	16.9
297.949	-9.73
298.164	-32.26
298.378	90.62
298.593	20.99
298.807	10.75
299.022	72.19
299.236	166.4
299.451	88.57
299.665	92.67
299.88	47.62
300.094	76.29
300.309	23.04
300.523	45.57
300.737	123.39
300.952	-1.54
301.166	64
301.381	35.33
301.595	18.94
301.809	8.7
302.024	107.01
302.238	51.71
302.452	64
302.667	25.09
302.881	82.43
303.095	94.72
303.309	64
303.524	33.28
303.738	64
303.952	51.71
304.166	88.57
304.381	-13.82
304.595	10.75
304.809	6.66
305.023	31.23
305.237	115.2
305.452	47.62
305.666	113.15
305.88	55.81
306.094	66.05
306.308	72.19
306.522	25.09
306.736	8.7
306.95	16.9
307.164	23.04
307.379	39.42
307.593	92.67
307.807	84.48
308.021	8.7
308.235	33.28
308.449	47.62
308.663	35.33
308.877	84.48
309.091	82.43
309.305	66.05
309.519	72.19
309.733	57.86
309.947	-3.58
310.161	23.04
310.374	104.96
310.588	129.53
310.802	35.33
311.016	14.85
311.23	-19.97
311.444	25.09
311.658	41.47
311.872	137.73
312.085	-56.83
312.299	27.14
312.513	100.86
312.727	78.33
312.941	35.33
313.154	113.15
313.368	68.09
313.582	33.28
313.796	31.23
314.009	37.38
314.223	123.39
314.437	66.05
314.651	45.57
314.864	53.76
315.078	68.09
315.292	55.81
315.505	27.14
315.719	4.61
315.933	55.81
316.146	74.24
316.36	70.14
316.573	104.96
316.787	41.47
317.001	47.62
317.214	31.23
317.428	68.09
317.641	72.19
317.855	12.8
318.068	49.66
318.282	6.66
318.495	41.47
318.709	94.72
318.922	119.29
319.136	96.77
319.349	80.38
319.563	55.81
319.776	39.42
319.99	41.47
320.203	18.94
320.417	59.9
320.63	57.86
320.843	123.39
321.057	-1.54
321.27	35.33
321.483	84.48
321.697	66.05
321.91	45.57
322.124	55.81
322.337	98.81
322.55	49.66
322.763	145.92
322.977	41.47
323.19	25.09
323.403	39.42
323.617	100.86
323.83	98.81
324.043	33.28
324.256	-5.63
324.469	-67.07
324.683	80.38
324.896	88.57
325.109	82.43
325.322	59.9
325.535	137.73
325.748	80.38
325.962	80.38
326.175	47.62
326.388	25.09
326.601	74.24
326.814	41.47
327.027	80.38
327.24	160.25
327.453	41.47
327.666	27.14
327.879	64
328.092	82.43
328.305	31.23
328.518	55.81
328.731	16.9
328.944	51.71
329.157	68.09
329.37	72.19
329.583	14.85
329.796	141.82
330.009	-9.73
330.222	25.09
330.435	64
330.648	57.86
330.861	92.67
331.073	14.85
331.286	23.04
331.499	-9.73
331.712	23.04
331.925	8.7
332.138	8.7
332.35	131.58
332.563	55.81
332.776	68.09
332.989	-42.5
333.202	-11.78
333.414	33.28
333.627	47.62
333.84	74.24
334.053	-46.59
334.265	-34.3
334.478	25.09
334.691	8.7
334.903	80.38
335.116	72.19
335.329	86.53
335.541	-13.82
335.754	139.77
335.966	88.57
336.179	82.43
336.392	6.66
336.604	49.66
336.817	10.75
337.029	107.01
337.242	18.94
337.454	14.85
337.667	47.62
337.88	137.73
338.092	104.96
338.305	31.23
338.517	8.7
338.729	125.44
338.942	33.28
339.154	20.99
339.367	-1.54
339.579	43.52
339.792	-71.17
340.004	55.81
340.217	31.23
340.429	80.38
340.641	-7.68
340.854	68.09
341.066	88.57
341.278	133.63
341.491	80.38
341.703	92.67
341.915	35.33
342.128	80.38
342.34	4.61
342.552	39.42
342.764	35.33
342.977	33.28
343.189	59.9
343.401	43.52
343.613	31.23
343.826	66.05
344.038	109.05
344.25	-9.73
344.462	14.85
344.674	64
344.886	14.85
345.099	14.85
345.311	72.19
345.523	-7.68
345.735	72.19
345.947	39.42
346.159	43.52
346.371	72.19
346.583	117.25
346.795	90.62
347.007	41.47
347.219	31.23
347.431	47.62
347.643	66.05
347.855	59.9
348.067	80.38
348.279	-58.88
348.491	37.38
348.703	35.33
348.915	25.09
349.127	16.9
349.339	39.42
349.551	86.53
349.763	43.52
349.975	82.43
350.187	164.35
350.399	80.38
350.61	88.57
350.822	14.85
351.034	18.94
351.246	150.01
351.458	133.63
351.669	80.38
351.881	88.57
352.093	59.9
352.305	178.69
352.517	23.04
352.728	41.47
352.94	59.9
353.152	64
353.363	84.48
353.575	72.19
353.787	145.92
353.999	31.23
354.21	129.53
354.422	6.66
354.633	74.24
354.845	39.42
355.057	121.34
355.268	68.09
355.48	33.28
355.692	55.81
355.903	25.09
356.115	78.33
356.326	29.18
356.538	88.57
356.749	53.76
356.961	154.11
357.172	12.8
357.384	39.42
357.595	113.15
357.807	39.42
358.018	59.9
358.23	72.19
358.441	123.39
358.653	129.53
358.864	55.81
359.075	-46.59
359.287	45.57
359.498	92.67
359.709	86.53
359.921	45.57
360.132	39.42
360.344	82.43
360.555	39.42
360.766	35.33
360.977	16.9
361.189	49.66
361.4	43.52
361.611	113.15
361.823	31.23
362.034	82.43
362.245	72.19
362.456	10.75
362.667	55.81
362.879	61.95
363.09	14.85
363.301	86.53
363.512	78.33
363.723	55.81
363.935	84.48
364.146	68.09
364.357	74.24
364.568	25.09
364.779	74.24
364.99	57.86
365.201	23.04
365.412	8.7
365.623	47.62
365.834	49.66
366.045	35.33
366.256	121.34
366.467	51.71
366.678	125.44
366.889	51.71
367.1	27.14
367.311	64
367.522	64
367.733	86.53
367.944	162.3
368.155	64
368.366	64
368.577	113.15
368.788	-3.58
368.999	72.19
369.209	33.28
369.42	117.25
369.631	156.16
369.842	29.18
370.053	61.95
370.264	82.43
370.474	88.57
370.685	125.44
370.896	18.94
371.107	31.23
371.317	117.25
371.528	0.51
371.739	90.62
371.95	68.09
372.16	78.33
372.371	2.56
372.582	64
372.792	135.68
373.003	27.14
373.214	41.47
373.424	76.29
373.635	43.52
373.846	68.09
374.056	55.81
374.267	80.38
374.477	78.33
374.688	84.48
374.898	113.15
375.109	107.01
375.319	33.28
375.53	74.24
375.74	98.81
375.951	45.57
376.161	68.09
376.372	35.33
376.582	31.23
376.793	72.19
377.003	64
377.214	45.57
377.424	121.34
377.635	64
377.845	109.05
378.055	109.05
378.266	86.53
378.476	-5.63
378.686	18.94
378.897	68.09
379.107	14.85
379.317	47.62
379.528	6.66
379.738	113.15
379.948	-38.4
380.158	104.96
380.369	66.05
380.579	59.9
380.789	-22.02
380.999	64
381.21	31.23
381.42	29.18
381.63	-19.97
381.84	80.38
382.05	6.66
382.261	68.09
382.471	10.75
382.681	137.73
382.891	72.19
383.101	64
383.311	10.75
383.521	-30.21
383.731	129.53
383.941	121.34
384.151	55.81
384.361	43.52
384.571	104.96
384.781	29.18
384.991	53.76
385.201	176.64
385.411	61.95
385.621	45.57
385.831	80.38
386.041	131.58
386.251	72.19
386.461	82.43
386.671	68.09
386.881	135.68
387.091	6.66
387.301	88.57
387.511	98.81
387.72	0.51
387.93	113.15
388.14	88.57
388.35	55.81
388.56	6.66
388.769	72.19
388.979	78.33
389.189	-17.92
389.399	47.62
389.609	92.67
389.818	53.76
390.028	43.52
390.238	66.05
390.447	74.24
390.657	51.71
390.867	64
391.076	18.94
391.286	23.04
391.496	98.81
391.705	27.14
391.915	107.01
392.125	72.19
392.334	49.66
392.544	64
392.753	14.85
392.963	76.29
393.172	37.38
393.382	-9.73
393.591	137.73
393.801	158.21
394.01	84.48
394.22	68.09
394.429	102.91
394.639	64
394.848	135.68
395.058	123.39
395.267	59.9
395.477	72.19
395.686	172.54
395.895	150.01
396.105	156.16
396.314	76.29
396.524	158.21
396.733	66.05
396.942	107.01
397.152	113.15
397.361	76.29
397.57	104.96
397.78	129.53
397.989	66.05
398.198	178.69
398.407	47.62
398.617	107.01
398.826	92.67
399.035	64
399.244	90.62
399.453	150.01
399.663	64
399.872	131.58
400.081	104.96
400.29	96.77
400.499	104.96
400.708	154.11
400.917	82.43
401.127	115.2
401.336	6.66
401.545	115.2
401.754	113.15
401.963	64
402.172	80.38
402.381	90.62
402.59	16.9
402.799	156.16
403.008	170.49
403.217	113.15
403.426	135.68
403.635	66.05
403.844	109.05
404.053	117.25
404.262	96.77
404.471	207.36
404.68	82.43
404.888	96.77
405.097	109.05
405.306	164.35
405.515	129.53
405.724	84.48
405.933	195.07
406.142	215.55
406.35	127.49
406.559	150.01
406.768	147.97
406.977	231.93
407.185	162.3
407.394	96.77
407.603	211.45
407.812	115.2
408.02	178.69
408.229	121.34
408.438	145.92
408.646	133.63
408.855	211.45
409.064	203.26
409.272	252.41
409.481	213.5
409.69	195.07
409.898	281.08
410.107	213.5
410.315	236.03
410.524	250.36
410.733	272.89
410.941	303.61
411.15	322.04
411.358	358.91
411.567	346.62
411.775	342.52
411.984	334.33
412.192	395.77
412.401	363
412.609	358.91
412.818	389.63
413.026	356.86
413.234	424.44
413.443	432.63
413.651	401.91
413.86	446.97
414.068	494.07
414.276	522.74
414.485	518.65
414.693	530.94
414.901	596.47
415.11	518.65
415.318	539.13
415.526	625.14
415.734	621.05
415.943	662.01
416.151	715.25
416.359	647.67
416.567	672.25
416.776	674.29
416.984	766.45
417.192	844.28
417.4	717.3
417.608	772.6
417.817	739.83
418.025	872.95
418.233	975.35
418.441	870.9
418.649	928.24
418.857	948.72
419.065	1047.02
419.273	965.11
419.481	995.82
419.689	1110.51
419.897	1194.48
420.105	1098.22
420.313	1243.63
420.521	1313.26
420.729	1268.2
420.937	1384.94
421.145	1278.44
421.353	1350.12
421.561	1456.62
421.769	1587.69
421.977	1579.5
422.185	1473
422.393	1681.89
422.601	1685.99
422.809	1651.17
423.017	1841.64
423.224	1851.88
423.432	1849.83
423.64	1812.96
423.848	2130.4
424.056	2054.62
424.263	2189.79
424.471	2173.41
424.679	2161.12
424.887	2316.76
425.094	2398.68
425.302	2425.31
425.51	2410.97
425.718	2619.86
425.925	2693.59
426.133	2671.06
426.341	2882
426.548	3011.03
426.756	2865.62
426.964	2939.35
427.171	3254.73
427.379	3291.6
427.586	3283.41
427.794	3449.29
428.001	3615.18
428.209	3860.93
428.417	3684.81
428.624	3881.41
428.832	3920.32
429.039	3797.45
429.247	3951.04
429.454	4274.62
429.662	4592.06
429.869	4188.61
430.076	4514.24
430.284	4561.34
430.491	4725.18
430.699	4831.67
430.906	4972.98
431.114	5069.23
431.321	5202.35
431.528	5282.22
431.736	5554.6
431.943	5773.74
432.15	5523.88
432.358	5798.31
432.565	6138.27
432.772	5923.24
432.979	6363.55
433.187	6519.2
433.394	6310.3
433.601	6996.37
433.808	6738.33
434.016	6814.1
434.223	7199.12
434.43	7608.72
434.637	7295.38
434.844	7940.49
435.052	7909.77
435.259	7995.78
435.466	8092.04
435.673	8055.17
435.88	8436.1
436.087	9089.4
436.294	8919.42
436.501	8769.91
436.708	8935.8
436.915	9003.38
437.122	9867.63
437.329	9765.23
437.537	9875.82
437.743	10017.13
437.95	9855.34
438.157	10611.04
438.364	10676.57
438.571	10785.12
438.778	10977.62
438.985	11792.72
439.192	11481.42
439.399	11665.74
439.606	11632.97
439.813	12237.13
440.02	12732.73
440.227	12400.96
440.433	12443.97
440.64	12831.04
440.847	12822.84
441.054	13146.42
441.261	13924.65
441.467	13777.2
441.674	14108.97
441.881	14430.5
442.088	14717.22
442.294	14154.02
442.501	14934.3
442.708	14909.72
442.914	15683.86
443.121	16355.59
443.328	15886.61
443.534	17146.11
443.741	16546.05
443.948	16261.38
444.154	17369.33
444.361	17594.61
444.568	17355
444.774	17408.25
444.981	17821.94
445.187	18237.67
445.394	19128.54
445.6	18819.3
445.807	20633.8
446.013	19566.81
446.22	20068.56
446.426	21043.39
446.633	20846.79
446.839	21674.17
447.046	20771.01
447.252	22149.29
447.459	22225.07
447.665	21864.63
447.871	22976.67
448.078	23605.4
448.284	22784.16
448.491	23414.94
448.697	24283.28
448.903	24352.91
449.11	24670.34
449.316	24357
449.522	24766.6
449.728	25456.76
449.935	25733.24
450.141	25469.05
450.347	26116.21
450.553	25591.93
450.76	25739.38
450.966	26597.48
451.172	26175.6
451.378	26751.08
451.584	26718.31
451.791	27105.38
451.997	27007.08
452.203	27484.25
452.409	27592.79
452.615	27424.86
452.821	26357.87
453.027	26161.26
453.233	27854.93
453.44	26531.95
453.646	26460.27
453.852	26716.26
454.058	27123.81
454.264	26656.87
454.47	27254.88
454.676	26257.52
454.882	27619.42
455.088	24873.09
455.294	25317.5
455.5	25880.69
455.705	26345.58
455.911	24778.89
456.117	24496.27
456.323	24119.44
456.529	22980.77
456.735	24115.34
456.941	23470.23
457.147	23140.51
457.352	22448.3
457.558	22175.92
457.764	22259.88
457.97	21930.16
458.176	21498.04
458.381	21233.85
458.587	20185.29
458.793	20388.04
458.999	19005.66
459.204	20693.19
459.41	20013.26
459.616	18669.8
459.821	18755.81
460.027	18555.11
460.233	18460.9
460.438	17430.77
460.644	17594.61
460.85	16974.08
461.055	16859.39
461.261	16582.91
461.466	15178.01
461.672	14838.05
461.878	15913.23
462.083	14879
462.289	14749.98
462.494	14278.95
462.7	13769.01
462.905	13347.12
463.111	13971.75
463.316	13736.24
463.522	13316.4
463.727	13592.88
463.932	13599.02
464.138	13572.4
464.343	13611.31
464.549	13173.05
464.754	13582.64
464.959	13414.71
465.165	13058.36
465.37	12798.27
465.575	12458.31
465.781	13109.56
465.986	12931.39
466.191	12441.92
466.397	12017.99
466.602	11805
466.807	12210.5
467.012	12308.8
467.218	12136.77
467.423	11886.92
467.628	11921.74
467.833	12325.19
468.038	11925.83
468.244	11585.87
468.449	11997.51
468.654	11934.03
468.859	11612.49
469.064	11497.81
469.269	11086.17
469.474	11348.31
469.679	11286.87
469.885	11061.59
470.09	11194.71
470.295	11137.37
470.5	10885.47
470.705	11098.45
470.91	10750.3
471.115	10748.25
471.32	10979.67
471.525	10645.85
471.73	10582.37
471.935	10529.12
472.139	10164.58
472.344	10289.51
472.549	10183.01
472.754	10076.52
472.959	9714.03
473.164	9701.74
473.369	9572.72
473.574	9877.87
473.778	9650.54
473.983	9691.5
474.188	9822.57
474.393	9277.81
474.598	9206.13
474.802	9116.02
475.007	9177.46
475.212	8970.62
475.417	8841.59
475.621	8819.07
475.826	8802.68
476.031	8624.51
476.235	8554.88
476.44	8497.53
476.645	8331.65
476.849	8558.97
477.054	8399.23
477.259	8143.24
477.463	8231.3
477.668	7938.44
477.872	8100.23
478.077	7952.77
478.282	7661.96
478.486	7790.99
478.691	7661.96
478.895	7618.96
479.1	7537.04
479.304	7649.68
479.509	7346.58
479.713	7309.71
479.918	7387.54
480.122	7291.28
480.326	7461.26
480.531	7399.82
480.735	7356.82
480.94	7141.78
481.144	7424.4
481.348	7166.35
481.553	7229.84
481.757	7100.82
481.961	7176.59
482.166	7166.35
482.37	7317.9
482.574	6992.28
482.778	7141.78
482.983	7266.71
483.187	7115.16
483.391	6932.89
483.595	7070.1
483.8	6945.17
484.004	7041.43
484.208	7086.48
484.412	7176.59
484.616	7190.93
484.821	7174.55
485.025	6777.24
485.229	7266.71
485.433	6992.28
485.637	6932.89
485.841	7020.95
486.045	6912.41
486.249	7125.4
486.453	7068.05
486.657	6973.85
486.861	7125.4
487.065	6785.43
487.269	6877.59
487.473	7004.57
487.677	7068.05
487.881	7240.08
488.085	7043.48
488.289	7285.14
488.493	7004.57
488.697	7078.29
488.901	7164.31
489.105	7047.57
489.309	7199.12
489.512	7092.63
489.716	7197.07
489.92	7121.3
490.124	7250.32
490.328	7256.47
490.531	7149.97
490.735	7291.28
490.939	7248.27
491.143	7119.25
491.346	7090.58
491.55	7289.23
491.754	7354.77
491.958	7356.82
492.161	7225.75
492.365	7231.89
492.569	7494.03
492.772	7489.93
492.976	7518.61
493.18	7475.6
493.383	7512.46
493.587	7780.75
493.79	7887.24
493.994	7373.2
494.197	7825.8
494.401	7774.6
494.605	7944.58
494.808	7879.05
495.012	7731.59
495.215	7954.82
495.419	8036.74
495.622	7993.73
495.825	8190.34
496.029	8141.19
496.232	8149.38
496.436	8280.45
496.639	8702.33
496.843	8411.52
497.046	8692.09
497.249	8931.7
497.453	8784.25
497.656	8876.41
497.859	8771.96
498.063	9058.68
498.266	9111.92
498.469	8948.09
498.673	9173.36
498.876	9396.59
499.079	9445.74
499.282	9640.3
499.485	9675.12
499.689	9585.01
499.892	9748.84
500.095	9666.92
500.298	10234.21
500.501	10080.61
500.705	10232.16
500.908	10215.78
501.111	10492.26
501.314	10498.4
501.517	10574.17
501.72	10633.57
501.923	10824.03
502.126	10942.81
502.329	11200.85
502.532	11223.38
502.735	11358.55
502.938	11499.86
503.141	11583.82
503.344	11802.96
503.547	11807.05
503.75	12069.19
503.953	12116.3
504.156	12241.22
504.359	12519.74
504.562	12325.19
504.765	12409.15
504.968	12669.25
505.17	12798.27
505.373	12980.54
505.576	13107.51
505.779	13328.69
505.982	13367.6
506.185	13621.55
506.387	13676.85
506.59	13752.62
506.793	14186.79
506.996	13955.37
507.198	14479.65
507.401	14477.6
507.604	14455.08
507.807	14827.81
508.009	14758.17
508.212	15083.8
508.415	14979.36
508.617	15268.12
508.82	15434
509.022	15427.86
509.225	15882.51
509.428	16079.11
509.63	16367.88
509.833	16154.89
510.035	16564.48
510.238	16640.26
510.44	16732.42
510.643	17103.1
510.845	17070.33
511.048	17090.81
511.25	17201.4
511.453	17602.8
511.655	17895.66
511.858	17887.47
512.06	18168.04
512.262	18350.31
512.465	18194.67
512.667	18893.02
512.87	18710.75
513.072	18563.3
513.274	19126.49
513.477	19411.16
513.679	19400.92
513.881	19640.53
514.084	19681.49
514.286	19882.19
514.488	20205.77
514.69	20680.9
514.893	20912.32
515.095	20863.17
515.297	21143.74
515.499	21031.1
515.701	21584.05
515.904	21643.45
516.106	21596.34
516.308	21954.74
516.51	22085.81
516.712	22444.2
516.914	22540.46
517.116	22837.41
517.318	22855.84
517.52	23140.51
517.722	23257.25
517.925	23457.95
518.127	23908.5
518.329	24162.45
518.531	23949.46
518.733	24529.03
518.935	24791.17
519.136	24742.02
519.338	24940.68
519.54	25188.48
519.742	25262.21
519.944	25243.77
520.146	25976.95
520.348	26026.1
520.55	26187.89
520.752	26280.05
520.954	27048.04
521.155	26531.95
521.357	27287.65
521.559	27285.6
521.761	27301.98
521.963	27488.35
522.164	27695.19
522.366	27619.42
522.568	27994.2
522.77	28397.65
522.971	28694.6
523.173	28434.51
523.375	28885.06
523.576	29028.42
523.778	29136.96
523.98	29468.73
524.181	29644.86
524.383	29098.05
524.584	29933.62
524.786	29939.77
524.988	30189.62
525.189	30322.74
525.391	30445.62
525.592	30795.82
525.794	30724.14
525.995	30914.6
526.197	31014.95
526.398	30861.35
526.6	31666.2
526.801	31592.48
527.003	31725.6
527.204	31528.99
527.406	31680.54
527.607	31778.84
527.808	31965.21
528.01	31602.72
528.211	32170.01
528.412	32471.06
528.614	32294.93
528.815	32223.25
529.016	32698.38
529.218	32382.99
529.419	32514.06
529.62	32487.44
529.822	32622.61
530.023	33099.78
530.224	32946.19
530.425	33044.49
530.626	32763.92
530.828	32698.38
531.029	33499.14
531.23	33099.78
531.431	32937.99
531.632	33441.79
531.833	33529.86
532.035	33304.58
532.236	33497.09
532.437	33527.81
532.638	33034.25
532.839	33916.92
533.04	33464.32
533.241	33275.91
533.442	34476.02
533.643	33894.39
533.844	33761.28
534.045	33638.4
534.246	33640.45
534.447	33738.75
534.648	33544.19
534.849	33777.66
535.05	33468.42
535.251	33929.21
535.451	33533.95
535.652	33994.75
535.853	34037.75
536.054	34207.73
536.255	34379.76
536.456	33619.97
536.657	34385.91
536.857	33957.88
537.058	33695.74
537.259	33988.6
537.46	33853.44
537.66	33785.85
537.861	33697.79
538.062	33974.27
538.263	33953.79
538.463	33832.96
538.664	33685.5
538.865	33771.52
539.065	34105.34
539.266	33927.16
539.466	34215.93
539.667	33390.59
539.868	34258.93
540.068	33710.08
540.269	33820.67
540.469	34004.99
540.67	33933.31
540.87	34031.61
541.071	33562.62
541.271	33964.03
541.472	33867.77
541.672	33843.2
541.873	33685.5
542.073	33132.55
542.274	34277.36
542.474	33888.25
542.675	33032.2
542.875	33906.68
543.075	33570.82
543.276	33177.61
543.476	33761.28
543.676	33708.03
543.877	33380.35
544.077	33798.14
544.277	33722.37
544.478	33402.88
544.678	33896.44
544.878	33443.84
545.078	33783.8
545.279	33286.15
545.479	33617.92
545.679	33615.87
545.879	33546.24
546.079	33456.13
546.28	33361.92
546.48	33456.13
546.68	33366.02
546.88	33751.04
547.08	33486.85
547.28	33669.12
547.48	33222.66
547.68	33550.34
547.88	33679.36
548.081	33800.19
548.281	33384.45
548.481	33380.35
548.681	33947.64
548.881	33552.38
549.081	33269.76
549.28	33478.66
549.48	33839.1
549.68	33083.4
549.88	33984.51
550.08	33353.73
550.28	33179.65
550.48	33628.16
550.68	33732.61
550.88	33130.5
551.08	33028.1
551.279	33294.34
551.479	33347.59
551.679	33245.19
551.879	33024.01
552.079	33437.7
552.278	33206.28
552.478	33128.45
552.678	33218.57
552.878	33329.16
553.077	33212.42
553.277	33247.24
553.477	33400.83
553.676	33079.3
553.876	33075.21
554.076	33015.82
554.275	32780.3
554.475	32583.69
554.674	33091.59
554.874	32854.03
555.074	32426
555.273	32925.71
555.473	33165.32
555.672	32802.83
555.872	32735.24
556.071	32845.83
556.271	33337.35
556.47	32645.13
556.67	32241.68
556.869	32733.2
557.068	32499.73
557.268	32542.74
557.467	32301.08
557.667	32399.38
557.866	32581.65
558.065	32495.63
558.265	32378.9
558.464	32010.26
558.663	32743.44
558.863	31987.74
559.062	32374.8
559.261	32061.46
559.461	32368.66
559.66	31784.99
559.859	31787.03
560.058	31655.96
560.258	31971.35
560.457	31764.51
560.656	32063.51
560.855	31825.95
561.054	31758.36
561.253	31676.44
561.453	31469.6
561.652	31649.82
561.851	31797.27
562.05	31371.3
562.249	31258.66
562.448	31772.7
562.647	31236.13
562.846	31359.01
563.045	31561.76
563.244	30769.19
563.443	31205.41
563.642	30625.84
563.841	31277.09
564.04	30783.53
564.239	30799.91
564.438	30763.05
564.637	30568.49
564.836	31166.5
565.035	30361.65
565.234	31002.66
565.432	30320.69
565.631	30621.74
565.83	30533.68
566.029	30255.15
566.228	30462
566.427	30289.97
566.625	30128.18
566.824	29519.93
567.023	30163
567.222	29413.44
567.42	30087.22
567.619	29872.18
567.818	29653.05
568.016	29558.84
568.215	29849.66
568.414	29663.29
568.612	29368.38
568.811	29311.04
569.01	29546.56
569.208	29085.76
569.407	29294.66
569.605	28633.16
569.804	29106.24
570.002	28856.39
570.201	28868.68
570.4	29110.34
570.598	28655.69
570.797	28371.02
570.995	28481.61
571.193	28336.21
571.392	28840.01
571.59	28127.31
571.789	28317.78
571.987	27932.76
572.186	28186.71
572.384	27932.76
572.582	27826.26
572.781	27983.96
572.979	27797.59
573.177	27379.81
573.376	27760.73
573.574	27539.55
573.772	27781.21
573.971	27357.28
574.169	27205.73
574.367	26925.16
574.565	27437.15
574.763	27277.41
574.962	26908.77
575.16	27203.68
575.358	26769.51
575.556	26574.95
575.754	27119.71
575.952	26607.72
576.151	26808.42
576.349	26314.86
576.547	26361.97
576.745	26345.58
576.943	26763.37
577.141	26550.38
577.339	26300.53
577.537	26237.04
577.735	25929.84
577.933	26114.16
578.131	25921.65
578.329	25798.77
578.527	25686.14
578.725	25991.28
578.923	25735.29
579.121	25499.77
579.319	25786.49
579.516	25649.27
579.714	25432.19
579.912	25350.27
580.11	25170.05
580.308	25432.19
580.506	24961.16
580.704	24770.69
580.901	25073.79
581.099	24909.96
581.297	24897.67
581.495	24737.93
581.692	25006.21
581.89	24426.64
582.088	25069.7
582.285	24287.37
582.483	24615.05
582.681	24506.51
582.878	24397.96
583.076	24150.16
583.274	24242.32
583.471	23953.55
583.669	24379.53
583.866	23793.81
584.064	24103.06
584.262	23908.5
584.459	24230.03
584.657	23552.15
584.854	23933.07
585.052	23230.62
585.249	23709.85
585.447	23744.66
585.644	23271.58
585.841	23091.36
586.039	23371.93
586.236	23345.31
586.434	22925.47
586.631	23236.77
586.828	23273.63
587.026	23154.85
587.223	22689.96
587.42	22591.66
587.618	22780.07
587.815	22929.57
588.012	22552.74
588.21	22745.25
588.407	22771.88
588.604	22425.77
588.801	22372.52
588.999	22343.85
589.196	22235.31
589.393	22145.2
589.59	22276.27
589.787	22376.62
589.984	21706.93
590.182	21764.28
590.379	21698.74
590.576	21881.01
590.773	21592.25
590.97	21405.88
591.167	21532.86
591.364	21416.12
591.561	21586.1
591.758	21420.22
591.955	21387.45
592.152	21520.57
592.349	21053.63
592.546	21110.97
592.743	21137.6
592.94	20838.59
593.137	21102.78
593.334	20953.28
593.531	20713.67
593.727	20832.45
593.924	20979.9
594.121	20601.03
594.318	20562.12
594.515	20422.86
594.712	20742.34
594.908	20607.17
595.105	20496.58
595.302	20279.5
595.499	20482.25
595.696	20113.61
595.892	20314.31
596.089	20259.02
596.286	19814.61
596.482	19935.44
596.679	19953.87
596.876	19945.68
597.072	19806.42
597.269	19929.3
597.466	19298.52
597.662	19509.46
597.859	19540.18
598.055	19620.05
598.252	19378.39
598.448	19464.41
598.645	19224.79
598.841	19273.95
599.038	19284.19
599.234	18958.56
599.431	19095.77
599.627	19099.87
599.824	19063.01
600.02	18880.74
600.217	19040.48
600.413	18956.51
600.609	18604.26
600.806	18452.71
601.002	18704.61
601.198	18561.25
601.395	18583.78
601.591	18331.88
601.787	18387.18
601.984	18350.31
602.18	18651.36
602.376	18401.51
602.572	17993.97
602.769	18102.51
602.965	18174.19
603.161	18209
603.357	17785.07
603.553	17770.74
603.75	18055.4
603.946	17672.43
604.142	17965.29
604.338	17545.46
604.534	17752.31
604.73	17520.88
604.926	17350.9
605.122	17602.8
605.318	17348.86
605.514	17230.07
605.71	17242.36
605.906	17230.07
606.102	17203.45
606.298	17193.21
606.494	17152.25
606.69	16996.6
606.886	17142.01
607.082	16906.49
607.278	17158.39
607.474	16709.89
607.67	16875.77
607.866	16677.12
608.062	17158.39
608.257	16701.7
608.453	16689.41
608.649	16668.93
608.845	16351.49
609.041	16525.57
609.236	16699.65
609.432	16374.02
609.628	16466.18
609.824	16380.17
610.019	16107.79
610.215	16382.21
610.411	16173.32
610.606	16253.19
610.802	16107.79
610.998	16242.95
611.193	16210.18
611.389	15958.28
611.584	16048.4
611.78	15837.45
611.976	15859.98
612.171	16210.18
612.367	15851.79
612.562	15974.67
612.758	15630.61
612.953	15794.45
613.149	16046.35
613.344	15556.88
613.539	15876.37
613.735	15753.49
613.93	15874.32
614.126	15520.02
614.321	15739.15
614.517	15620.37
614.712	15690
614.907	15403.28
615.103	15563.03
615.298	15612.18
615.493	15485.2
615.688	15098.14
615.884	15677.71
616.079	15003.93
616.274	15327.51
616.47	15405.33
616.665	15313.17
616.86	15272.21
617.055	15091.99
617.25	15169.82
617.445	15446.29
617.641	14993.69
617.836	15104.28
618.031	14706.98
618.226	15026.46
618.421	14608.67
618.616	14948.64
618.811	14526.75
619.006	14694.69
619.201	14336.29
619.396	14653.73
619.591	14500.13
619.786	14600.48
619.981	14297.38
620.176	14678.3
620.371	14287.14
620.566	14422.31
620.761	14313.77
620.956	14334.25
621.151	13809.97
621.346	13885.74
621.541	13850.92
621.735	13879.6
621.93	13816.11
622.125	13658.42
622.32	13590.83
622.515	13580.59
622.709	13605.17
622.904	13568.3
623.099	13306.16
623.294	13453.62
623.488	12998.97
623.683	13361.46
623.878	13113.66
624.072	13181.24
624.267	13095.22
624.462	12976.44
624.656	12710.21
624.851	12886.33
625.046	12765.5
625.24	12812.6
625.435	12558.66
625.629	12505.41
625.824	12419.39
626.018	12323.14
626.213	11983.18
626.407	12091.72
626.602	12130.63
626.796	12177.73
626.991	12075.34
627.185	11972.94
627.38	11868.49
627.574	11778.38
627.768	11725.13
627.963	11909.45
628.157	11485.52
628.352	11710.8
628.546	11356.5
628.74	11438.42
628.935	11293.01
629.129	11383.12
629.323	11063.64
629.517	11366.74
629.712	11264.34
629.906	11094.36
630.1	11006.3
630.294	10955.1
630.489	10762.59
630.683	10926.43
630.877	10862.94
631.071	10764.64
631.265	10879.32
631.459	10385.76
631.653	10529.12
631.848	10492.26
632.042	10541.41
632.236	10330.47
632.43	10228.07
632.624	10434.91
632.818	10320.23
633.012	10068.33
633.206	10193.25
633.4	10156.39
633.594	10041.7
633.788	10113.38
633.982	10137.96
634.176	9826.67
634.369	9877.87
634.563	9595.25
634.757	9542
634.951	9640.3
635.145	9599.34
635.339	9451.89
635.533	9634.16
635.726	9636.2
635.92	9406.83
636.114	9574.77
636.308	9343.35
636.501	9501.04
636.695	9265.52
636.889	9240.95
637.083	9062.77
637.276	9054.58
637.47	9003.38
637.664	8923.51
637.857	8845.69
638.051	8931.7
638.244	8876.41
638.438	8876.41
638.632	8739.19
638.825	8677.76
639.019	8681.85
639.212	8569.21
639.406	8587.64
639.599	8548.73
639.793	8479.1
639.986	8413.57
640.18	8577.41
640.373	8388.99
640.567	8130.95
640.76	8284.55
640.954	8190.34
641.147	8069.51
641.34	7956.87
641.534	8253.83
641.727	8024.45
641.92	8030.6
642.114	8057.22
642.307	7905.67
642.5	7922.06
642.694	7569.8
642.887	7854.47
643.08	7889.29
643.273	7747.98
643.467	7719.31
643.66	7643.53
643.853	7444.88
644.046	7522.7
644.239	7465.36
644.432	7360.91
644.626	7477.65
644.819	7557.52
645.012	7315.86
645.205	7395.73
645.398	7399.82
645.591	7076.24
645.784	7223.7
645.977	7149.97
646.17	7113.11
646.363	6994.33
646.556	7084.44
646.749	7027.09
646.942	7141.78
647.135	6891.93
647.328	6887.83
647.521	6838.68
647.714	6773.14
647.907	6637.98
648.099	6603.16
648.292	6633.88
648.485	6736.28
648.678	6715.8
648.871	6488.48
649.064	6486.43
649.256	6535.58
649.449	6470.05
649.642	6424.99
649.835	6353.31
650.027	6203.81
650.22	6396.32
650.413	6439.33
650.605	6175.14
650.798	6318.5
650.991	6054.31
651.183	6441.37
651.376	5970.34
651.568	6263.2
651.761	6078.88
651.954	6171.04
652.146	5937.57
652.339	6138.27
652.531	6115.75
652.724	5974.44
652.916	5872.04
653.109	5781.93
653.301	5755.3
653.494	5779.88
653.686	5722.54
653.879	5577.13
654.071	5771.69
654.263	5501.36
654.456	5640.62
654.648	5763.5
654.84	5446.06
655.033	5484.97
655.225	5730.73
655.417	5548.46
655.61	5509.55
655.802	5454.25
655.994	5411.25
656.186	5355.95
656.379	5454.25
656.571	5228.98
656.763	5214.64
656.955	5247.41
657.148	5233.07
657.34	5333.42
657.532	5214.64
657.724	5134.77
657.916	5167.54
658.108	5102
658.3	5085.62
658.492	5005.75
658.684	5061.04
658.876	5097.91
659.068	5007.8
659.26	5085.62
659.452	4913.59
659.644	4948.4
659.836	4905.4
660.028	4880.82
660.22	4880.82
660.412	4796.85
660.604	4864.44
660.796	4661.69
660.988	4661.69
661.18	4700.6
661.372	4549.05
661.563	4714.94
661.755	4581.82
661.947	4780.47
662.139	4581.82
662.331	4633.02
662.522	4452.8
662.714	4465.08
662.906	4561.34
663.097	4530.62
663.289	4417.98
663.481	4438.46
663.673	4504
663.864	4428.22
664.056	4291.01
664.247	4268.48
664.439	4299.2
664.631	4364.73
664.822	4258.24
665.014	4250.05
665.205	4342.21
665.397	4200.9
665.588	4245.95
665.78	4225.47
665.971	4121.03
666.163	4159.94
666.354	4225.47
666.546	4053.44
666.737	4110.79
666.929	3975.62
667.12	4086.21
667.311	3885.51
667.503	3998.15
667.694	4028.87
667.885	4014.53
668.077	3940.8
668.268	4002.24
668.459	3869.12
668.651	3916.23
668.842	3717.58
669.033	3932.61
669.224	3875.27
669.416	3918.28
669.607	3893.7
669.798	3791.3
669.989	3854.79
670.18	3797.45
670.371	3686.86
670.563	3742.15
670.754	3867.08
670.945	3666.38
671.136	3717.58
671.327	3750.34
671.518	3621.32
671.709	3551.69
671.9	3545.55
672.091	3760.58
672.282	3584.46
672.473	3572.17
672.664	3662.28
672.855	3578.31
673.046	3520.97
673.237	3672.52
673.428	3561.93
673.619	3406.28
673.809	3394
674	3486.15
674.191	3484.11
674.382	3514.83
674.573	3394
674.764	3480.01
674.954	3641.8
675.145	3365.32
675.336	3557.83
675.527	3373.52
675.717	3400.14
675.908	3420.62
676.099	3400.14
676.289	3365.32
676.48	3334.61
676.671	3332.56
676.861	3400.14
677.052	3326.41
677.243	3219.92
677.433	3242.45
677.624	3332.56
677.814	3271.12
678.005	3344.84
678.195	3320.27
678.386	3242.45
678.576	3279.31
678.767	3174.86
678.957	3332.56
679.148	3383.76
679.338	3193.3
679.529	3293.65
679.719	3258.83
679.909	3289.55
680.1	3303.89
680.29	3236.3
680.481	3291.6
680.671	3193.3
680.861	3234.25
681.052	3250.64
681.242	3250.64
681.432	3162.58
681.622	3185.1
681.813	3301.84
682.003	3076.56
682.193	3111.38
682.383	3105.23
682.573	3086.8
682.764	3217.87
682.954	3176.91
683.144	3111.38
683.334	3181.01
683.524	3056.08
683.714	3183.06
683.904	2990.55
684.094	3201.49
684.284	3031.51
684.474	3119.57
684.664	3103.18
684.854	3013.07
685.044	3117.52
685.234	2892.24
685.424	3037.65
685.614	2982.35
685.804	3078.61
685.994	2988.5
686.184	3015.12
686.374	2865.62
686.564	2939.35
686.753	2877.91
686.943	2914.77
687.133	2890.2
687.323	2910.68
687.513	2865.62
687.702	2857.43
687.892	2904.53
688.082	2871.76
688.272	2812.37
688.461	2841.04
688.651	2873.81
688.841	2785.75
689.03	2845.14
689.22	2767.32
689.41	2736.6
689.599	2849.24
689.789	2771.41
689.979	2640.34
690.168	2742.74
690.358	2728.41
690.547	2679.26
690.737	2693.59
690.926	2705.88
691.116	2742.74
691.305	2832.85
691.495	2572.76
691.684	2562.52
691.874	2679.26
692.063	2515.42
692.252	2701.78
692.442	2595.29
692.631	2640.34
692.82	2660.82
693.01	2589.14
693.199	2533.85
693.388	2521.56
693.578	2599.38
693.767	2507.23
693.956	2462.17
694.146	2578.9
694.335	2597.34
694.524	2480.6
694.713	2460.12
694.902	2456.03
695.092	2488.79
695.281	2406.88
695.47	2466.27
695.659	2480.6
695.848	2370.01
696.037	2484.7
696.226	2419.16
696.415	2439.64
696.604	2529.75
696.793	2343.39
696.982	2410.97
697.171	2482.65
697.36	2382.3
697.549	2470.36
697.738	2333.15
697.927	2390.49
698.116	2410.97
698.305	2427.35
698.494	2460.12
698.683	2464.22
698.872	2470.36
699.061	2261.47
699.25	2275.81
699.438	2396.64
699.627	2427.35
699.816	2484.7
700.005	2351.58
700.193	2253.28
700.382	2433.5
700.571	2343.39
700.76	2451.93
700.948	2359.77
701.137	2398.68
701.326	2351.58
701.514	2363.87
701.703	2292.19
701.892	2286.05
702.08	2410.97
702.269	2363.87
702.457	2343.39
702.646	2386.4
702.834	2277.85
703.023	2288.09
703.212	2404.83
703.4	2367.96
703.589	2308.57
703.777	2415.07
703.965	2236.89
704.154	2251.23
704.342	2288.09
704.531	2286.05
704.719	2312.67
704.907	2277.85
705.096	2316.76
705.284	2269.66
705.472	2243.04
705.661	2312.67
705.849	2322.91
706.037	2361.82
706.226	2267.61
706.414	2185.69
706.602	2216.41
706.79	2406.88
706.979	2253.28
707.167	2296.28
707.355	2302.43
707.543	2271.71
707.731	2406.88
707.919	2386.4
708.107	2345.44
708.296	2306.52
708.484	2251.23
708.672	2234.85
708.86	2263.52
709.048	2300.38
709.236	2286.05
709.424	2247.13
709.612	2185.69
709.8	2259.42
709.988	2284
710.176	2292.19
710.364	2302.43
710.551	2245.09
710.739	2267.61
710.927	2288.09
711.115	2284
711.303	2341.34
711.491	2335.2
711.679	2228.7
711.866	2259.42
712.054	2195.93
712.242	2277.85
712.43	2243.04
712.617	2304.48
712.805	2357.72
712.993	2320.86
713.181	2249.18
713.368	2269.66
713.556	2308.57
713.744	2243.04
713.931	2404.83
714.119	2210.27
714.306	2286.05
714.494	2339.29
714.682	2296.28
714.869	2271.71
715.057	2382.3
715.244	2193.89
715.432	2308.57
715.619	2300.38
715.807	2236.89
715.994	2351.58
716.182	2222.56
716.369	2265.57
716.556	2240.99
716.744	2275.81
716.931	2294.24
717.119	2417.12
717.306	2290.14
717.493	2365.92
717.681	2185.69
717.868	2349.53
718.055	2243.04
718.242	2324.96
718.43	2327
718.617	2439.64
718.804	2279.9
718.991	2423.26
719.179	2374.11
719.366	2169.31
719.553	2324.96
719.74	2277.85
719.927	2341.34
720.114	2234.85
720.301	2296.28
720.488	2296.28
720.676	2210.27
720.863	2345.44
721.05	2286.05
721.237	2234.85
721.424	2406.88
721.611	2292.19
721.798	2275.81
721.985	2253.28
722.172	2370.01
722.358	2236.89
722.545	2394.59
722.732	2173.41
722.919	2355.68
723.106	2351.58
723.293	2302.43
723.48	2253.28
723.667	2294.24
723.853	2374.11
724.04	2308.57
724.227	2183.65
724.414	2210.27
724.6	2255.33
724.787	2255.33
724.974	2327
725.161	2228.7
725.347	2269.66
725.534	2284
725.72	2304.48
725.907	2251.23
726.094	2314.72
726.28	2257.37
726.467	2304.48
726.653	2386.4
726.84	2259.42
727.027	2388.44
727.213	2251.23
727.4	2361.82
727.586	2357.72
727.773	2419.16
727.959	2335.2
728.145	2382.3
728.332	2261.47
728.518	2316.76
728.705	2406.88
728.891	2365.92
729.077	2302.43
729.264	2243.04
729.45	2222.56
729.636	2288.09
729.823	2310.62
730.009	2238.94
730.195	2238.94
730.382	2337.24
730.568	2267.61
730.754	2267.61
730.94	2308.57
731.126	2378.2
731.313	2341.34
731.499	2324.96
731.685	2449.88
731.871	2341.34
732.057	2165.21
732.243	2402.78
732.429	2484.7
732.615	2320.86
732.801	2236.89
732.987	2247.13
733.173	2431.45
733.359	2316.76
733.545	2222.56
733.731	2243.04
733.917	2294.24
734.103	2353.63
734.289	2292.19
734.475	2222.56
734.661	2284
734.847	2275.81
735.033	2269.66
735.219	2296.28
735.404	2288.09
735.59	2302.43
735.776	2296.28
735.962	2261.47
736.148	2286.05
736.333	2210.27
736.519	2234.85
736.705	2226.65
736.89	2294.24
737.076	2286.05
737.262	2200.03
737.447	2302.43
737.633	2243.04
737.819	2236.89
738.004	2247.13
738.19	2058.72
738.375	2181.6
738.561	2220.51
738.747	2267.61
738.932	2193.89
739.118	2251.23
739.303	2154.98
739.489	2103.78
739.674	2236.89
739.859	2140.64
740.045	2146.78
740.23	2157.02
740.416	2224.61
740.601	2218.46
740.786	2173.41
740.972	2300.38
741.157	2222.56
741.342	2021.86
741.528	2054.62
741.713	2193.89
741.898	2185.69
742.084	2081.25
742.269	2148.83
742.454	2126.3
742.639	2118.11
742.824	2114.02
743.01	2214.37
743.195	1997.28
743.38	2056.67
743.565	2105.82
743.75	2017.76
743.935	2103.78
744.12	2075.1
744.305	1970.66
744.49	2030.05
744.675	2048.48
744.86	2087.39
745.045	1933.79
745.23	2017.76
745.415	2111.97
745.6	1878.5
745.785	1952.23
745.97	1964.51
746.155	1927.65
746.34	1880.55
746.525	1858.02
746.71	1954.27
746.895	1901.03
747.079	1980.9
747.264	1898.98
747.449	1821.16
747.634	1851.88
747.819	1937.89
748.003	1911.27
748.188	1833.44
748.373	1769.96
748.557	1743.33
748.742	1849.83
748.927	1812.96
749.111	1784.29
749.296	1776.1
749.481	1853.92
749.665	1729
749.85	1720.81
750.034	1833.44
750.219	1772
750.404	1718.76
750.588	1638.89
750.773	1694.18
750.957	1599.98
751.141	1604.07
751.326	1589.74
751.51	1634.79
751.695	1659.37
751.879	1556.97
752.064	1685.99
752.248	1579.5
752.432	1640.93
752.617	1604.07
752.801	1569.26
752.985	1481.19
753.17	1579.5
753.354	1554.92
753.538	1563.11
753.722	1403.37
753.907	1423.85
754.091	1442.28
754.275	1575.4
754.459	1460.71
754.643	1542.63
754.828	1542.63
755.012	1442.28
755.196	1421.8
755.38	1466.86
755.564	1477.1
755.748	1458.67
755.932	1384.94
756.116	1354.22
756.3	1372.65
756.484	1358.32
756.668	1395.18
756.852	1374.7
757.036	1198.57
757.22	1300.97
757.404	1253.87
757.588	1255.92
757.772	1348.08
757.956	1266.16
758.14	1309.16
758.323	1300.97
758.507	1233.39
758.691	1161.71
758.875	1282.54
759.059	1247.72
759.242	1270.25
759.426	1296.88
759.61	1198.57
759.794	1188.33
759.977	1194.48
760.161	1227.25
760.345	1202.67
760.528	1149.42
760.712	1251.82
760.895	1137.13
761.079	1114.61
761.263	1161.71
761.446	1143.28
761.63	1153.52
761.813	1098.22
761.997	1096.18
762.18	1026.54
762.364	1090.03
762.547	1112.56
762.731	1200.62
762.914	1133.04
763.098	979.44
763.281	1034.74
763.464	1133.04
763.648	1051.12
763.831	1110.51
764.015	1024.5
764.198	1073.65
764.381	1026.54
764.564	1090.03
764.748	1081.84
764.931	997.87
765.114	1042.93
765.297	1065.46
765.481	989.68
765.664	1006.06
765.847	1028.59
766.03	1057.26
766.213	1087.98
766.397	958.96
766.58	975.35
766.763	1016.3
766.946	877.04
767.129	1018.35
767.312	981.49
767.495	967.15
767.678	989.68
767.861	989.68
768.044	1030.64
768.227	891.38
768.41	899.57
768.593	926.19
768.776	975.35
768.959	1032.69
769.142	954.87
769.324	887.28
769.507	920.05
769.69	905.71
769.873	913.91
770.056	950.77
770.239	907.76
770.421	965.11
770.604	932.34
770.787	793.08
770.97	926.19
771.152	866.8
771.335	958.96
771.518	817.65
771.7	901.62
771.883	889.33
772.066	924.15
772.248	883.19
772.431	825.84
772.613	891.38
772.796	778.74
772.978	920.05
773.161	821.75
773.343	842.23
773.526	813.56
773.708	786.93
773.891	793.08
774.073	778.74
774.256	850.42
774.438	717.3
774.621	834.04
774.803	829.94
774.985	813.56
775.168	690.68
775.35	760.31
775.532	803.32
775.715	731.64
775.897	831.99
776.079	670.2
776.261	713.21
776.444	715.25
776.626	743.92
776.808	655.86
776.99	680.44
777.173	745.97
777.355	690.68
777.537	741.88
777.719	696.82
777.901	625.14
778.083	592.37
778.265	657.91
778.447	717.3
778.629	629.24
778.811	688.63
778.993	670.2
779.175	748.02
779.357	612.85
779.539	551.42
779.721	739.83
779.903	674.29
780.085	629.24
780.267	717.3
780.449	575.99
780.631	627.19
780.812	713.21
780.994	637.43
781.176	682.49
781.358	586.23
781.54	616.95
781.721	604.66
781.903	582.14
782.085	582.14
782.267	594.42
782.448	492.02
782.63	559.61
782.812	580.09
782.993	543.22
783.175	588.28
783.357	580.09
783.538	514.55
783.72	559.61
783.901	528.89
784.083	545.27
784.264	522.74
784.446	449.02
784.627	483.83
784.809	504.31
784.99	465.4
785.172	514.55
785.353	524.79
785.535	494.07
785.716	545.27
785.897	506.36
786.079	467.45
786.26	563.7
786.441	442.87
786.623	426.49
786.804	379.39
786.985	426.49
787.167	428.54
787.348	451.07
787.529	465.4
787.71	500.22
787.891	496.12
788.073	371.19
788.254	506.36
788.435	498.17
788.616	432.63
788.797	367.1
788.978	457.21
789.159	344.57
789.34	418.3
789.522	418.3
789.703	590.33
789.884	365.05
790.065	440.83
790.246	428.54
790.427	391.67
790.607	449.02
790.788	377.34
790.969	479.74
791.15	432.63
791.331	352.76
791.512	387.58
791.693	369.15
791.874	412.15
792.054	369.15
792.235	457.21
792.416	336.38
792.597	336.38
792.778	377.34
792.958	346.62
793.139	334.33
793.32	379.39
793.5	287.23
793.681	426.49
793.862	340.47
794.042	344.57
794.223	338.43
794.404	367.1
794.584	346.62
794.765	274.94
794.945	346.62
795.126	410.11
795.306	313.85
795.487	395.77
795.667	240.12
795.848	383.48
796.028	293.37
796.209	272.89
796.389	332.28
796.57	391.67
796.75	272.89
796.93	309.76
797.111	313.85
797.291	309.76
797.471	401.91
797.652	285.18
797.832	180.73
798.012	352.76
798.192	289.28
798.373	238.08
798.553	246.27
798.733	293.37
798.913	264.7
799.093	311.8
799.274	291.32
799.454	303.61
799.634	326.14
799.814	338.43
799.994	252.41
800.174	299.52
800.354	252.41
800.534	270.84
800.714	305.66
800.894	252.41
801.074	295.42
801.254	281.08
801.434	213.5
801.614	182.78
801.794	231.93
801.974	872.95
802.154	291.32
802.334	279.04
802.514	178.69
802.693	252.41
802.873	279.04
803.053	250.36
803.233	289.28
803.413	276.99
803.592	240.12
803.772	215.55
803.952	272.89
804.131	258.56
804.311	246.27
804.491	188.93
804.67	229.88
804.85	158.21
805.03	270.84
805.209	252.41
805.389	293.37
805.568	213.5
805.748	197.12
805.928	113.15
806.107	229.88
806.287	180.73
806.466	266.75
806.646	219.64
806.825	154.11
807.004	238.08
807.184	193.02
807.363	279.04
807.543	240.12
807.722	162.3
807.901	205.31
808.081	268.8
808.26	164.35
808.439	195.07
808.619	178.69
808.798	201.21
808.977	205.31
809.156	197.12
809.336	127.49
809.515	238.08
809.694	111.1
809.873	242.17
810.052	199.16
810.231	137.73
810.411	115.2
810.59	186.88
810.769	166.4
810.948	172.54
811.127	197.12
811.306	182.78
811.485	188.93
811.664	227.84
811.843	172.54
812.022	137.73
812.201	162.3
812.38	252.41
812.559	195.07
812.737	180.73
812.916	96.77
813.095	104.96
813.274	139.77
813.453	254.46
813.632	178.69
813.811	164.35
813.989	150.01
814.168	158.21
814.347	154.11
814.526	195.07
814.704	227.84
814.883	223.74
815.062	125.44
815.24	190.97
815.419	143.87
815.598	180.73
815.776	186.88
815.955	117.25
816.133	145.92
816.312	131.58
816.49	90.62
816.669	199.16
816.847	158.21
817.026	190.97
817.204	154.11
817.383	141.82
817.561	109.05
817.74	107.01
817.918	152.06
818.097	223.74
818.275	109.05
818.453	57.86
818.632	219.64
818.81	147.97
818.988	154.11
819.167	166.4
819.345	127.49
819.523	76.29
819.701	160.25
819.879	143.87
820.058	174.59
820.236	55.81
820.414	188.93
820.592	147.97
820.77	133.63
820.948	90.62
821.127	92.67
821.305	129.53
821.483	109.05
821.661	219.64
821.839	74.24
822.017	78.33
822.195	121.34
822.373	213.5
822.551	117.25
822.729	72.19
822.907	86.53
823.085	123.39
823.262	104.96
823.44	127.49
823.618	119.29
823.796	100.86
823.974	72.19
824.152	107.01
824.329	150.01
824.507	102.91
824.685	119.29
824.863	139.77
825.04	129.53
825.218	227.84
825.396	64
825.574	154.11
825.751	123.39
825.929	135.68
826.107	72.19
826.284	123.39
826.462	125.44
826.639	68.09
826.817	68.09
826.994	141.82
827.172	100.86
827.349	154.11
827.527	72.19
827.704	96.77
827.882	156.16
828.059	186.88
828.237	72.19
828.414	121.34
828.591	104.96
828.769	129.53
828.946	111.1
829.124	121.34
829.301	190.97
829.478	72.19
829.655	80.38
829.833	156.16
830.01	55.81
830.187	104.96
830.364	115.2
830.542	74.24
830.719	66.05
830.896	55.81
831.073	104.96
831.25	98.81
831.427	88.57
831.604	102.91
831.782	70.14
831.959	133.63
832.136	98.81
832.313	104.96
832.49	121.34
832.667	117.25
832.844	47.62
833.021	80.38
833.198	78.33
833.374	35.33
833.551	57.86
833.728	88.57
833.905	137.73
834.082	100.86
834.259	76.29
834.436	104.96
834.612	94.72
834.789	70.14
834.966	135.68
835.143	172.54
835.319	64
835.496	68.09
835.673	64
835.85	98.81
836.026	96.77
836.203	72.19
836.38	55.81
836.556	8.7
836.733	68.09
836.909	129.53
837.086	141.82
837.262	92.67
837.439	109.05
837.616	80.38
837.792	123.39
837.968	57.86
838.145	80.38
838.321	78.33
838.498	61.95
838.674	107.01
838.851	68.09
839.027	84.48
839.203	80.38
839.38	66.05
839.556	109.05
839.732	41.47
839.909	78.33
840.085	129.53
840.261	64
840.437	121.34
840.614	61.95
840.79	104.96
840.966	59.9
841.142	94.72
841.318	-17.92
841.494	98.81
841.671	59.9
841.847	72.19
842.023	-40.45
842.199	61.95
842.375	109.05
842.551	59.9
842.727	41.47
842.903	133.63
843.079	47.62
843.255	39.42
843.431	92.67
843.607	57.86
843.783	2.56
843.959	84.48
844.134	14.85
844.31	82.43
844.486	41.47
844.662	55.81
844.838	92.67
845.013	107.01
845.189	37.38
845.365	72.19
845.541	18.94
845.716	66.05
845.892	96.77
846.068	-1.54
846.244	14.85
846.419	-24.06
846.595	23.04
846.77	104.96
846.946	100.86
847.122	-22.02
847.297	109.05
847.473	96.77
847.648	64
847.824	86.53
847.999	35.33
848.175	-7.68
848.35	121.34
848.526	111.1
848.701	88.57
848.876	64
849.052	96.77
849.227	96.77
849.403	51.71
849.578	39.42
849.753	47.62
849.929	33.28
850.104	47.62
850.279	59.9
850.454	0.51
850.63	41.47
850.805	49.66
850.98	98.81
851.155	98.81
851.33	94.72
851.505	96.77
851.681	98.81
851.856	43.52
852.031	55.81
852.206	84.48
852.381	49.66
852.556	74.24
852.731	82.43
852.906	158.21
853.081	104.96
853.256	117.25
853.431	-40.45
853.606	47.62
853.781	35.33
853.956	-11.78
854.131	-22.02
854.305	-34.3
854.48	-42.5
854.655	4.61
854.83	109.05
855.005	-5.63
855.18	68.09
855.354	-3.58
855.529	139.77
855.704	55.81
855.879	37.38
856.053	57.86
856.228	-30.21
856.403	47.62
856.577	78.33
856.752	72.19
856.926	39.42
857.101	-1.54
857.276	115.2
857.45	61.95
857.625	55.81
857.799	55.81
857.974	72.19
858.148	27.14
858.323	113.15
858.497	96.77
858.672	80.38
858.846	-26.11
859.02	84.48
859.195	-65.02
859.369	39.42
859.543	23.04
859.718	82.43
859.892	86.53
860.066	115.2
860.241	4.61
860.415	49.66
860.589	31.23
860.763	80.38
860.938	51.71
861.112	53.76
861.286	45.57
861.46	37.38
861.634	23.04
861.808	76.29
861.982	35.33
862.157	59.9
862.331	-9.73
862.505	-1.54
862.679	-9.73
862.853	45.57
863.027	16.9
863.201	31.23
863.375	2.56
863.549	20.99
863.722	-17.92
863.896	31.23
864.07	-58.88
864.244	8.7
864.418	25.09
864.592	68.09
864.766	27.14
864.939	2.56
865.113	18.94
865.287	68.09
865.461	23.04
865.634	8.7
865.808	66.05
865.982	-34.3
866.156	37.38
866.329	55.81
866.503	47.62
866.676	74.24
866.85	14.85
867.024	70.14
867.197	57.86
867.371	-3.58
867.544	41.47
867.718	72.19
867.891	-7.68
868.065	37.38
868.238	6.66
868.412	53.76
868.585	31.23
868.759	10.75
868.932	41.47
869.105	-11.78
869.279	45.57
869.452	80.38
869.625	57.86
869.799	39.42
869.972	-1.54
870.145	8.7
870.319	74.24
870.492	-95.74
870.665	-1.54
870.838	35.33
871.011	45.57
871.185	35.33
871.358	8.7
871.531	74.24
871.704	-62.98
871.877	29.18
872.05	27.14
872.223	8.7
872.396	-5.63
872.569	113.15
872.742	25.09
872.915	45.57
873.088	18.94
873.261	68.09
873.434	-32.26
873.607	-17.92
873.78	107.01
873.953	64
874.126	68.09
874.299	68.09
874.471	-17.92
874.644	68.09
874.817	55.81
874.99	-1.54
875.163	14.85
875.335	10.75
875.508	-62.98
875.681	55.81
875.853	16.9
876.026	-15.87
876.199	23.04
876.371	2.56
876.544	-26.11
876.717	0.51
876.889	18.94
877.062	64
877.234	43.52
877.407	16.9
877.579	-9.73
877.752	39.42
877.924	72.19
878.097	-32.26
878.269	-69.12
878.442	49.66
878.614	-24.06
878.786	23.04
878.959	-42.5
879.131	-9.73
879.303	20.99
879.476	-5.63
879.648	96.77
879.82	8.7
879.993	64
880.165	8.7
880.337	35.33
880.509	6.66
880.681	31.23
880.854	31.23
881.026	6.66
881.198	59.9
881.37	-1.54
881.542	70.14
881.714	88.57
881.886	-9.73
882.058	10.75
882.23	41.47
882.402	55.81
882.574	0.51
882.746	90.62
882.918	0.51
883.09	-7.68
883.262	39.42
883.434	31.23
883.606	-7.68
883.778	55.81
883.95	96.77
884.122	18.94
884.293	6.66
884.465	-1.54
884.637	154.11
884.809	68.09
884.98	57.86
885.152	57.86
885.324	41.47
885.496	-38.4
885.667	-17.92
885.839	47.62
886.011	68.09
886.182	-24.06
886.354	14.85
886.525	72.19
886.697	80.38
886.869	-5.63
887.04	-38.4
887.212	33.28
887.383	78.33
887.555	51.71
887.726	8.7
887.897	-56.83
888.069	-58.88
888.24	70.14
888.412	-5.63
888.583	-50.69
888.754	27.14
888.926	-3.58
889.097	2.56
889.268	23.04
889.44	27.14
889.611	39.42
889.782	-26.11
889.953	-13.82
890.125	61.95
890.296	0.51
890.467	43.52
890.638	-3.58
890.809	25.09
890.98	64
891.151	55.81
891.323	74.24
891.494	14.85
891.665	-26.11
891.836	74.24
892.007	49.66
892.178	49.66
892.349	16.9
892.52	0.51
892.691	14.85
892.862	53.76
893.032	6.66
893.203	16.9
893.374	6.66
893.545	82.43
893.716	-5.63
893.887	51.71
894.057	-1.54
894.228	57.86
894.399	55.81
894.57	14.85
894.74	-32.26
894.911	4.61
895.082	39.42
895.253	23.04
895.423	39.42
895.594	100.86
895.764	-11.78
895.935	0.51
896.106	-7.68
896.276	-1.54
896.447	43.52
896.617	18.94
896.788	39.42
896.958	-42.5
897.129	0.51
897.299	16.9
897.47	82.43
897.64	55.81
897.81	-9.73
897.981	109.05
898.151	23.04
898.322	51.71
898.492	72.19
898.662	16.9
898.832	-42.5
899.003	14.85
899.173	33.28
899.343	-13.82
899.513	-5.63
