Data from USB4F104151__310__14-46-44-610.txt Node

Date: Thu Mar 13 14:46:44 EDT 2025
User: louis
Spectrometer: USB4F10415
Trigger mode: 4
Integration Time (sec): 2.000000E-2
Scans to average: 1
Electric dark correction enabled: true
Nonlinearity correction enabled: false
Boxcar width: 0
XAxis mode: Wavelengths
Number of Pixels in Spectrum: 3648
>>>>>Begin Spectral Data<<<<<
178.204	-148.99
178.424	-148.99
178.644	-148.99
178.864	-87.55
179.084	-101.89
179.304	61.95
179.524	-24.06
179.744	-17.92
179.964	39.42
180.184	84.48
180.404	-22.02
180.624	-5.63
180.844	-46.59
181.064	-36.35
181.283	-69.12
181.503	-44.54
181.723	80.38
181.943	-52.74
182.163	53.76
182.383	-46.59
182.602	29.18
182.822	84.48
183.042	70.14
183.262	-58.88
183.482	12.8
183.701	43.52
183.921	20.99
184.141	-58.88
184.361	64
184.58	66.05
184.8	35.33
185.02	-22.02
185.239	-30.21
185.459	45.57
185.679	-1.54
185.898	12.8
186.118	86.53
186.338	61.95
186.557	20.99
186.777	-26.11
186.997	43.52
187.216	20.99
187.436	10.75
187.655	59.9
187.875	29.18
188.095	74.24
188.314	49.66
188.534	41.47
188.753	-52.74
188.973	4.61
189.192	25.09
189.412	70.14
189.631	55.81
189.851	37.38
190.07	43.52
190.29	-30.21
190.509	6.66
190.729	27.14
190.948	43.52
191.168	166.4
191.387	8.7
191.607	4.61
191.826	-15.87
192.045	-24.06
192.265	53.76
192.484	-5.63
192.704	35.33
192.923	0.51
193.142	43.52
193.362	47.62
193.581	43.52
193.8	53.76
194.02	53.76
194.239	37.38
194.458	4.61
194.678	45.57
194.897	-36.35
195.116	4.61
195.335	20.99
195.555	-11.78
195.774	18.94
195.993	-1.54
196.212	68.09
196.432	14.85
196.651	8.7
196.87	35.33
197.089	76.29
197.308	68.09
197.528	31.23
197.747	18.94
197.966	45.57
198.185	86.53
198.404	31.23
198.623	37.38
198.842	18.94
199.062	86.53
199.281	-17.92
199.5	-30.21
199.719	107.01
199.938	29.18
200.157	-3.58
200.376	39.42
200.595	72.19
200.814	98.81
201.033	55.81
201.252	64
201.471	53.76
201.69	-19.97
201.909	12.8
202.128	53.76
202.347	-1.54
202.566	10.75
202.785	23.04
203.004	-11.78
203.223	109.05
203.442	20.99
203.661	29.18
203.879	-50.69
204.098	6.66
204.317	10.75
204.536	18.94
204.755	35.33
204.974	86.53
205.193	35.33
205.411	45.57
205.63	45.57
205.849	-9.73
206.068	74.24
206.287	20.99
206.505	-50.69
206.724	-36.35
206.943	2.56
207.162	-22.02
207.381	33.28
207.599	18.94
207.818	0.51
208.037	6.66
208.255	12.8
208.474	-26.11
208.693	6.66
208.911	39.42
209.13	31.23
209.349	2.56
209.567	111.1
209.786	53.76
210.005	25.09
210.223	117.25
210.442	4.61
210.661	14.85
210.879	84.48
211.098	100.86
211.316	-5.63
211.535	41.47
211.753	-13.82
211.972	20.99
212.191	10.75
212.409	10.75
212.628	0.51
212.846	0.51
213.065	104.96
213.283	59.9
213.502	-26.11
213.72	61.95
213.938	-1.54
214.157	41.47
214.375	2.56
214.594	12.8
214.812	68.09
215.031	2.56
215.249	14.85
215.467	14.85
215.686	-28.16
215.904	10.75
216.122	33.28
216.341	68.09
216.559	41.47
216.778	27.14
216.996	14.85
217.214	-30.21
217.432	45.57
217.651	-19.97
217.869	-28.16
218.087	53.76
218.306	-1.54
218.524	53.76
218.742	-9.73
218.96	72.19
219.179	-22.02
219.397	84.48
219.615	102.91
219.833	72.19
220.051	2.56
220.27	117.25
220.488	-3.58
220.706	80.38
220.924	20.99
221.142	35.33
221.36	68.09
221.578	41.47
221.796	45.57
222.015	35.33
222.233	12.8
222.451	39.42
222.669	-26.11
222.887	-3.58
223.105	-36.35
223.323	20.99
223.541	-1.54
223.759	12.8
223.977	2.56
224.195	90.62
224.413	31.23
224.631	88.57
224.849	4.61
225.067	137.73
225.285	-28.16
225.503	25.09
225.721	8.7
225.939	-38.4
226.157	20.99
226.375	37.38
226.592	14.85
226.81	43.52
227.028	51.71
227.246	37.38
227.464	41.47
227.682	109.05
227.9	59.9
228.117	10.75
228.335	-22.02
228.553	35.33
228.771	-5.63
228.989	-22.02
229.206	84.48
229.424	18.94
229.642	18.94
229.86	-58.88
230.077	-9.73
230.295	31.23
230.513	51.71
230.731	102.91
230.948	59.9
231.166	127.49
231.384	20.99
231.601	31.23
231.819	-3.58
232.037	12.8
232.254	31.23
232.472	10.75
232.689	18.94
232.907	76.29
233.125	-5.63
233.342	51.71
233.56	12.8
233.777	12.8
233.995	59.9
234.213	68.09
234.43	68.09
234.648	76.29
234.865	59.9
235.083	47.62
235.3	2.56
235.518	-13.82
235.735	53.76
235.953	80.38
236.17	4.61
236.388	43.52
236.605	27.14
236.822	92.67
237.04	70.14
237.257	23.04
237.475	49.66
237.692	68.09
237.909	10.75
238.127	64
238.344	35.33
238.562	-5.63
238.779	16.9
238.996	-19.97
239.214	27.14
239.431	29.18
239.648	43.52
239.865	35.33
240.083	43.52
240.3	-1.54
240.517	-71.17
240.735	-11.78
240.952	33.28
241.169	64
241.386	59.9
241.603	39.42
241.821	-32.26
242.038	59.9
242.255	-3.58
242.472	55.81
242.689	72.19
242.907	20.99
243.124	-1.54
243.341	59.9
243.558	-9.73
243.775	25.09
243.992	-24.06
244.209	55.81
244.426	51.71
244.643	82.43
244.86	-17.92
245.078	47.62
245.295	59.9
245.512	100.86
245.729	37.38
245.946	59.9
246.163	74.24
246.38	43.52
246.597	35.33
246.814	12.8
247.031	31.23
247.248	39.42
247.464	113.15
247.681	-30.21
247.898	10.75
248.115	12.8
248.332	55.81
248.549	49.66
248.766	125.44
248.983	102.91
249.2	33.28
249.417	68.09
249.633	-54.78
249.85	-24.06
250.067	27.14
250.284	-13.82
250.501	29.18
250.717	100.86
250.934	-38.4
251.151	-30.21
251.368	-58.88
251.585	98.81
251.801	39.42
252.018	6.66
252.235	61.95
252.451	18.94
252.668	14.85
252.885	41.47
253.102	-5.63
253.318	2.56
253.535	33.28
253.752	-7.68
253.968	0.51
254.185	-38.4
254.401	-52.74
254.618	8.7
254.835	12.8
255.051	117.25
255.268	18.94
255.484	4.61
255.701	53.76
255.917	70.14
256.134	29.18
256.351	35.33
256.567	-28.16
256.784	33.28
257	-5.63
257.217	84.48
257.433	51.71
257.65	12.8
257.866	68.09
258.082	72.19
258.299	-42.5
258.515	43.52
258.732	72.19
258.948	35.33
259.165	10.75
259.381	23.04
259.597	-38.4
259.814	43.52
260.03	59.9
260.246	-5.63
260.463	-36.35
260.679	20.99
260.895	35.33
261.112	51.71
261.328	-9.73
261.544	12.8
261.761	72.19
261.977	-1.54
262.193	18.94
262.409	35.33
262.626	76.29
262.842	2.56
263.058	-17.92
263.274	6.66
263.49	64
263.707	10.75
263.923	53.76
264.139	27.14
264.355	-9.73
264.571	109.05
264.787	14.85
265.004	111.1
265.22	55.81
265.436	84.48
265.652	55.81
265.868	92.67
266.084	18.94
266.3	47.62
266.516	29.18
266.732	47.62
266.948	27.14
267.164	35.33
267.38	-5.63
267.596	14.85
267.812	137.73
268.028	-79.36
268.244	33.28
268.46	27.14
268.676	20.99
268.892	86.53
269.108	29.18
269.324	-9.73
269.54	-40.45
269.756	10.75
269.972	-50.69
270.188	4.61
270.403	-38.4
270.619	45.57
270.835	43.52
271.051	39.42
271.267	29.18
271.483	-56.83
271.698	43.52
271.914	6.66
272.13	-34.3
272.346	10.75
272.562	8.7
272.777	66.05
272.993	-1.54
273.209	82.43
273.425	20.99
273.64	6.66
273.856	47.62
274.072	43.52
274.287	64
274.503	27.14
274.719	84.48
274.934	43.52
275.15	-28.16
275.366	14.85
275.581	-60.93
275.797	18.94
276.012	-5.63
276.228	61.95
276.444	29.18
276.659	2.56
276.875	35.33
277.09	-46.59
277.306	-73.21
277.521	0.51
277.737	18.94
277.952	14.85
278.168	-50.69
278.383	37.38
278.599	100.86
278.814	68.09
279.03	61.95
279.245	68.09
279.461	51.71
279.676	23.04
279.892	-58.88
280.107	6.66
280.322	-54.78
280.538	23.04
280.753	10.75
280.969	27.14
281.184	78.33
281.399	18.94
281.615	-91.65
281.83	-30.21
282.045	43.52
282.26	64
282.476	-38.4
282.691	25.09
282.906	49.66
283.122	53.76
283.337	-17.92
283.552	39.42
283.767	0.51
283.983	72.19
284.198	29.18
284.413	-3.58
284.628	27.14
284.843	84.48
285.058	80.38
285.274	68.09
285.489	-13.82
285.704	20.99
285.919	18.94
286.134	96.77
286.349	18.94
286.564	111.1
286.779	135.68
286.995	39.42
287.21	-15.87
287.425	76.29
287.64	-13.82
287.855	27.14
288.07	-9.73
288.285	27.14
288.5	37.38
288.715	-22.02
288.93	10.75
289.145	78.33
289.36	55.81
289.575	35.33
289.79	10.75
290.004	23.04
290.219	4.61
290.434	12.8
290.649	70.14
290.864	18.94
291.079	2.56
291.294	25.09
291.509	39.42
291.724	70.14
291.938	-15.87
292.153	102.91
292.368	-5.63
292.583	10.75
292.798	72.19
293.012	37.38
293.227	94.72
293.442	39.42
293.657	4.61
293.871	88.57
294.086	2.56
294.301	4.61
294.516	20.99
294.73	49.66
294.945	-5.63
295.16	-13.82
295.374	86.53
295.589	23.04
295.804	14.85
296.018	18.94
296.233	129.53
296.447	-22.02
296.662	64
296.877	45.57
297.091	2.56
297.306	27.14
297.52	20.99
297.735	31.23
297.949	39.42
298.164	-13.82
298.378	107.01
298.593	6.66
298.807	25.09
299.022	2.56
299.236	68.09
299.451	51.71
299.665	2.56
299.88	80.38
300.094	51.71
300.309	18.94
300.523	20.99
300.737	51.71
300.952	35.33
301.166	53.76
301.381	55.81
301.595	33.28
301.809	61.95
302.024	-11.78
302.238	-13.82
302.452	39.42
302.667	18.94
302.881	102.91
303.095	43.52
303.309	35.33
303.524	33.28
303.738	23.04
303.952	27.14
304.166	2.56
304.381	4.61
304.595	94.72
304.809	41.47
305.023	-34.3
305.237	43.52
305.452	4.61
305.666	25.09
305.88	29.18
306.094	10.75
306.308	84.48
306.522	104.96
306.736	18.94
306.95	10.75
307.164	-34.3
307.379	-11.78
307.593	49.66
307.807	94.72
308.021	80.38
308.235	23.04
308.449	2.56
308.663	29.18
308.877	68.09
309.091	-52.74
309.305	51.71
309.519	-110.08
309.733	53.76
309.947	82.43
310.161	72.19
310.374	-44.54
310.588	59.9
310.802	14.85
311.016	51.71
311.23	45.57
311.444	29.18
311.658	-5.63
311.872	100.86
312.085	57.86
312.299	-13.82
312.513	47.62
312.727	27.14
312.941	-19.97
313.154	-5.63
313.368	23.04
313.582	61.95
313.796	141.82
314.009	43.52
314.223	35.33
314.437	47.62
314.651	102.91
314.864	-52.74
315.078	55.81
315.292	70.14
315.505	84.48
315.719	45.57
315.933	53.76
316.146	31.23
316.36	-5.63
316.573	70.14
316.787	39.42
317.001	37.38
317.214	76.29
317.428	47.62
317.641	-1.54
317.855	29.18
318.068	39.42
318.282	45.57
318.495	84.48
318.709	53.76
318.922	88.57
319.136	51.71
319.349	-11.78
319.563	66.05
319.776	64
319.99	35.33
320.203	72.19
320.417	29.18
320.63	31.23
320.843	90.62
321.057	45.57
321.27	43.52
321.483	53.76
321.697	10.75
321.91	27.14
322.124	53.76
322.337	53.76
322.55	12.8
322.763	27.14
322.977	78.33
323.19	-62.98
323.403	59.9
323.617	31.23
323.83	-36.35
324.043	6.66
324.256	76.29
324.469	-50.69
324.683	59.9
324.896	-30.21
325.109	37.38
325.322	14.85
325.535	27.14
325.748	-1.54
325.962	12.8
326.175	51.71
326.388	53.76
326.601	-3.58
326.814	-30.21
327.027	74.24
327.24	-5.63
327.453	-28.16
327.666	-40.45
327.879	27.14
328.092	84.48
328.305	12.8
328.518	53.76
328.731	27.14
328.944	96.77
329.157	20.99
329.37	16.9
329.583	72.19
329.796	84.48
330.009	2.56
330.222	27.14
330.435	59.9
330.648	12.8
330.861	64
331.073	-22.02
331.286	51.71
331.499	-1.54
331.712	8.7
331.925	-22.02
332.138	-9.73
332.35	102.91
332.563	4.61
332.776	76.29
332.989	4.61
333.202	20.99
333.414	61.95
333.627	41.47
333.84	47.62
334.053	66.05
334.265	78.33
334.478	29.18
334.691	-26.11
334.903	68.09
335.116	39.42
335.329	51.71
335.541	45.57
335.754	18.94
335.966	33.28
336.179	70.14
336.392	29.18
336.604	76.29
336.817	61.95
337.029	18.94
337.242	80.38
337.454	18.94
337.667	35.33
337.88	2.56
338.092	51.71
338.305	109.05
338.517	-13.82
338.729	20.99
338.942	55.81
339.154	-17.92
339.367	-1.54
339.579	86.53
339.792	-44.54
340.004	96.77
340.217	80.38
340.429	-5.63
340.641	80.38
340.854	-62.98
341.066	31.23
341.278	35.33
341.491	139.77
341.703	55.81
341.915	-22.02
342.128	109.05
342.34	35.33
342.552	4.61
342.764	59.9
342.977	2.56
343.189	0.51
343.401	2.56
343.613	12.8
343.826	111.1
344.038	59.9
344.25	10.75
344.462	27.14
344.674	59.9
344.886	107.01
345.099	-5.63
345.311	100.86
345.523	6.66
345.735	49.66
345.947	84.48
346.159	-30.21
346.371	10.75
346.583	31.23
346.795	80.38
347.007	27.14
347.219	68.09
347.431	6.66
347.643	59.9
347.855	84.48
348.067	12.8
348.279	-9.73
348.491	25.09
348.703	64
348.915	109.05
349.127	-3.58
349.339	64
349.551	20.99
349.763	55.81
349.975	-46.59
350.187	117.25
350.399	25.09
350.61	55.81
350.822	39.42
351.034	47.62
351.246	39.42
351.458	59.9
351.669	64
351.881	78.33
352.093	31.23
352.305	23.04
352.517	37.38
352.728	78.33
352.94	68.09
353.152	29.18
353.363	47.62
353.575	61.95
353.787	45.57
353.999	92.67
354.21	59.9
354.422	10.75
354.633	90.62
354.845	49.66
355.057	12.8
355.268	76.29
355.48	43.52
355.692	2.56
355.903	-5.63
356.115	70.14
356.326	-7.68
356.538	47.62
356.749	53.76
356.961	92.67
357.172	104.96
357.384	51.71
357.595	121.34
357.807	72.19
358.018	33.28
358.23	14.85
358.441	76.29
358.653	82.43
358.864	43.52
359.075	64
359.287	61.95
359.498	-5.63
359.709	64
359.921	18.94
360.132	72.19
360.344	35.33
360.555	43.52
360.766	51.71
360.977	-11.78
361.189	70.14
361.4	-17.92
361.611	20.99
361.823	86.53
362.034	35.33
362.245	18.94
362.456	43.52
362.667	68.09
362.879	8.7
363.09	-7.68
363.301	80.38
363.512	-5.63
363.723	96.77
363.935	-1.54
364.146	127.49
364.357	35.33
364.568	78.33
364.779	14.85
364.99	-9.73
365.201	33.28
365.412	109.05
365.623	41.47
365.834	39.42
366.045	39.42
366.256	18.94
366.467	84.48
366.678	59.9
366.889	-22.02
367.1	55.81
367.311	12.8
367.522	8.7
367.733	35.33
367.944	8.7
368.155	-5.63
368.366	88.57
368.577	117.25
368.788	84.48
368.999	-26.11
369.209	-5.63
369.42	139.77
369.631	82.43
369.842	76.29
370.053	76.29
370.264	51.71
370.474	94.72
370.685	47.62
370.896	45.57
371.107	49.66
371.317	88.57
371.528	-13.82
371.739	68.09
371.95	31.23
372.16	59.9
372.371	20.99
372.582	100.86
372.792	55.81
373.003	92.67
373.214	61.95
373.424	150.01
373.635	-13.82
373.846	53.76
374.056	35.33
374.267	70.14
374.477	37.38
374.688	33.28
374.898	29.18
375.109	51.71
375.319	78.33
375.53	12.8
375.74	39.42
375.951	70.14
376.161	84.48
376.372	29.18
376.582	20.99
376.793	27.14
377.003	33.28
377.214	78.33
377.424	23.04
377.635	2.56
377.845	-28.16
378.055	76.29
378.266	47.62
378.476	10.75
378.686	92.67
378.897	55.81
379.107	82.43
379.317	27.14
379.528	109.05
379.738	59.9
379.948	115.2
380.158	94.72
380.369	14.85
380.579	27.14
380.789	78.33
380.999	86.53
381.21	20.99
381.42	145.92
381.63	2.56
381.84	43.52
382.05	-36.35
382.261	68.09
382.471	88.57
382.681	37.38
382.891	117.25
383.101	53.76
383.311	29.18
383.521	45.57
383.731	18.94
383.941	45.57
384.151	70.14
384.361	6.66
384.571	35.33
384.781	-13.82
384.991	125.44
385.201	100.86
385.411	92.67
385.621	25.09
385.831	76.29
386.041	86.53
386.251	35.33
386.461	72.19
386.671	-32.26
386.881	-7.68
387.091	12.8
387.301	2.56
387.511	80.38
387.72	141.82
387.93	84.48
388.14	-1.54
388.35	45.57
388.56	68.09
388.769	20.99
388.979	-3.58
389.189	39.42
389.399	76.29
389.609	59.9
389.818	20.99
390.028	135.68
390.238	-5.63
390.447	68.09
390.657	102.91
390.867	78.33
391.076	10.75
391.286	39.42
391.496	23.04
391.705	18.94
391.915	55.81
392.125	39.42
392.334	20.99
392.544	39.42
392.753	113.15
392.963	20.99
393.172	115.2
393.382	39.42
393.591	64
393.801	33.28
394.01	100.86
394.22	100.86
394.429	127.49
394.639	23.04
394.848	100.86
395.058	-3.58
395.267	61.95
395.477	20.99
395.686	68.09
395.895	107.01
396.105	111.1
396.314	78.33
396.524	102.91
396.733	64
396.942	72.19
397.152	109.05
397.361	96.77
397.57	41.47
397.78	129.53
397.989	80.38
398.198	160.25
398.407	31.23
398.617	29.18
398.826	61.95
399.035	107.01
399.244	109.05
399.453	78.33
399.663	90.62
399.872	162.3
400.081	74.24
400.29	113.15
400.499	94.72
400.708	125.44
400.917	68.09
401.127	82.43
401.336	29.18
401.545	125.44
401.754	70.14
401.963	86.53
402.172	59.9
402.381	18.94
402.59	178.69
402.799	109.05
403.008	74.24
403.217	18.94
403.426	137.73
403.635	111.1
403.844	145.92
404.053	102.91
404.262	49.66
404.471	201.21
404.68	107.01
404.888	188.93
405.097	57.86
405.306	133.63
405.515	166.4
405.724	119.29
405.933	115.2
406.142	129.53
406.35	104.96
406.559	190.97
406.768	154.11
406.977	252.41
407.185	203.26
407.394	178.69
407.603	176.64
407.812	248.32
408.02	225.79
408.229	117.25
408.438	215.55
408.646	129.53
408.855	231.93
409.064	236.03
409.272	193.02
409.481	229.88
409.69	264.7
409.898	233.98
410.107	219.64
410.315	291.32
410.524	328.19
410.733	293.37
410.941	309.76
411.15	354.81
411.358	442.87
411.567	346.62
411.775	332.28
411.984	395.77
412.192	397.82
412.401	430.59
412.609	485.88
412.818	412.15
413.026	430.59
413.234	494.07
413.443	457.21
413.651	455.16
413.86	465.4
414.068	596.47
414.276	543.22
414.485	553.46
414.693	518.65
414.901	543.22
415.11	598.52
415.318	592.37
415.526	594.42
415.734	735.73
415.943	608.76
416.151	731.64
416.359	727.54
416.567	776.69
416.776	766.45
416.984	801.27
417.192	809.46
417.4	809.46
417.608	840.18
417.817	909.81
418.025	897.52
418.233	1034.74
418.441	993.78
418.649	938.48
418.857	1075.7
419.065	1124.85
419.273	1124.85
419.481	1182.19
419.689	1206.77
419.897	1208.81
420.105	1235.44
420.313	1331.69
420.521	1407.47
420.729	1323.5
420.937	1350.12
421.145	1419.75
421.353	1581.54
421.561	1765.86
421.769	1688.04
421.977	1651.17
422.185	1612.26
422.393	1812.96
422.601	1817.06
422.809	1886.69
423.017	1911.27
423.224	1956.32
423.432	2197.98
423.64	2154.98
423.848	2341.34
424.056	2261.47
424.263	2333.15
424.471	2413.02
424.679	2453.98
424.887	2494.94
425.094	2597.34
425.302	2685.4
425.51	2718.17
425.718	2779.61
425.925	2920.92
426.133	2914.77
426.341	3312.08
426.548	3344.84
426.756	3154.38
426.964	3312.08
427.171	3484.11
427.379	3602.89
427.586	3654.09
427.794	3844.55
428.001	3850.69
428.209	4020.67
428.417	4116.93
428.624	4237.76
428.832	4291.01
429.039	4319.68
429.247	4202.94
429.454	4676.02
429.662	5030.32
429.869	4645.31
430.076	4854.2
430.284	4852.15
430.491	5083.57
430.699	5466.54
430.906	5517.74
431.114	5271.98
431.321	5663.15
431.528	5845.41
431.736	6060.45
431.943	6386.08
432.15	6207.91
432.358	6379.93
432.565	6605.21
432.772	6576.54
432.979	6893.97
433.187	6918.55
433.394	7106.96
433.601	7557.52
433.808	7616.91
434.016	7547.28
434.223	7727.5
434.43	8284.55
434.637	7989.64
434.844	8597.88
435.052	8849.78
435.259	8644.99
435.466	9011.57
435.673	8761.72
435.88	9408.88
436.087	9632.11
436.294	9646.44
436.501	9738.6
436.708	9474.42
436.915	10013.03
437.122	10279.27
437.329	10441.06
437.537	10690.91
437.743	11252.05
437.95	10973.53
438.157	11333.97
438.364	11966.79
438.571	11821.39
438.778	11893.07
438.985	12841.28
439.192	12396.87
439.399	12972.35
439.606	12538.18
439.813	13152.57
440.02	13902.12
440.227	13613.36
440.433	13816.11
440.64	14100.78
440.847	13850.92
441.054	14541.09
441.261	15368.47
441.467	15198.49
441.674	15560.98
441.881	15892.75
442.088	15927.56
442.294	15659.28
442.501	16158.99
442.708	16404.74
442.914	17008.89
443.121	17877.23
443.328	17314.04
443.534	18723.04
443.741	17957.1
443.948	18008.3
444.154	19208.41
444.361	19001.57
444.568	18913.5
444.774	19116.25
444.981	19106.01
445.187	19585.24
445.394	21022.91
445.6	20416.71
445.807	22417.58
446.013	21176.51
446.22	21647.54
446.426	22700.2
446.633	22999.2
446.839	23578.78
447.046	22810.79
447.252	23791.76
447.459	24328.33
447.665	23974.03
447.871	24946.82
448.078	25956.47
448.284	24707.21
448.491	25720.95
448.697	26609.77
448.903	27232.35
449.11	27248.74
449.316	26499.18
449.522	26759.27
449.728	27865.17
449.935	27883.61
450.141	28371.02
450.347	28676.17
450.553	27598.94
450.76	28215.38
450.966	29464.64
451.172	28557.39
451.378	29751.35
451.584	28923.97
451.791	29780.03
451.997	29548.61
452.203	29919.29
452.409	30316.59
452.615	30128.18
452.821	28827.72
453.027	28751.95
453.233	30240.82
453.44	28913.73
453.646	29478.97
453.852	29589.56
454.058	29851.7
454.264	29423.68
454.47	29728.83
454.676	28686.41
454.882	29880.38
455.088	27453.53
455.294	27889.75
455.5	28248.14
455.705	28782.66
455.911	27091.04
456.117	26830.95
456.323	26617.96
456.529	25174.14
456.735	26325.1
456.941	25944.18
457.147	25454.72
457.352	24662.15
457.558	24332.43
457.764	24660.1
457.97	23998.61
458.176	23584.92
458.381	23701.65
458.587	22347.95
458.793	22526.12
458.999	21254.33
459.204	22802.6
459.41	22139.05
459.616	20746.44
459.821	20897.99
460.027	20957.38
460.233	20205.77
460.438	19267.8
460.644	19448.02
460.85	18680.03
461.055	18362.6
461.261	18333.93
461.466	16824.58
461.672	16611.59
461.878	17340.66
462.083	16376.07
462.289	16140.55
462.494	15796.49
462.7	15378.71
462.905	14760.22
463.111	15364.37
463.316	15315.22
463.522	14919.96
463.727	14936.35
463.932	15159.58
464.138	14864.67
464.343	14819.61
464.549	14514.47
464.754	14952.73
464.959	14672.16
465.165	14844.19
465.37	14192.94
465.575	13691.18
465.781	14334.25
465.986	14291.24
466.191	13844.78
466.397	13707.57
466.602	12888.38
466.807	13543.73
467.012	13357.36
467.218	13338.93
467.423	12906.81
467.628	13207.86
467.833	13732.14
468.038	13396.28
468.244	12779.84
468.449	13277.49
468.654	12978.49
468.859	12994.87
469.064	12738.88
469.269	12286.28
469.474	12409.15
469.679	12808.51
469.885	12355.91
470.09	12650.81
470.295	12253.51
470.5	12048.71
470.705	12267.84
470.91	11905.35
471.115	11768.14
471.32	11862.35
471.525	11882.83
471.73	11796.81
471.935	11657.55
472.139	11139.41
472.344	11207
472.549	11241.81
472.754	10975.58
472.959	10871.13
473.164	10824.03
473.369	10574.17
473.574	11069.78
473.778	10914.14
473.983	10754.4
474.188	10828.12
474.393	10266.98
474.598	10275.17
474.802	10211.68
475.007	10168.68
475.212	10113.38
475.417	9972.07
475.621	9605.49
475.826	9705.84
476.031	9623.92
476.235	9582.96
476.44	9658.73
476.645	9324.91
476.849	9433.46
477.054	9097.59
477.259	9136.5
477.463	9324.91
477.668	8874.36
477.872	9185.65
478.077	8774.01
478.282	8583.55
478.486	8591.74
478.691	8401.28
478.895	8395.14
479.1	8599.93
479.304	8640.89
479.509	8309.12
479.713	8458.62
479.918	8204.67
480.122	8169.86
480.326	8165.76
480.531	8171.91
480.735	8001.93
480.94	7903.62
481.144	8276.35
481.348	7856.52
481.553	7846.28
481.757	7926.15
481.961	7879.05
482.166	7987.59
482.37	7997.83
482.574	7747.98
482.778	7788.94
482.983	8124.8
483.187	7866.76
483.391	7874.95
483.595	7795.08
483.8	7735.69
484.004	7649.68
484.208	7788.94
484.412	7670.15
484.616	7901.58
484.821	7850.38
485.025	7719.31
485.229	7938.44
485.433	7719.31
485.637	7752.07
485.841	7690.63
486.045	7614.86
486.249	7686.54
486.453	7584.14
486.657	7801.22
486.861	7690.63
487.065	7653.77
487.269	7725.45
487.473	7539.08
487.677	7780.75
487.881	7928.2
488.085	7741.83
488.289	7739.79
488.493	7692.68
488.697	7790.99
488.901	7885.19
489.105	7975.3
489.309	7790.99
489.512	7833.99
489.716	7833.99
489.92	7707.02
490.124	7729.55
490.328	7860.62
490.531	7807.37
490.735	8128.9
490.939	8028.55
491.143	8065.41
491.346	7809.42
491.55	8225.15
491.754	8010.12
491.958	7973.25
492.161	8063.36
492.365	8077.7
492.569	8057.22
492.772	8259.97
492.976	8462.72
493.18	8313.22
493.383	8251.78
493.587	8171.91
493.79	8518.01
493.994	8350.08
494.197	8440.19
494.401	8417.66
494.605	8501.63
494.808	8788.35
495.012	8724.86
495.215	8649.08
495.419	8894.84
495.622	8780.15
495.825	8931.7
496.029	8903.03
496.232	9210.23
496.436	9038.2
496.639	9324.91
496.843	9286
497.046	9501.04
497.249	9550.19
497.453	9636.2
497.656	9668.97
497.859	9834.86
498.063	9986.41
498.266	9881.96
498.469	10094.95
498.673	10137.96
498.876	10361.19
499.079	10383.71
499.282	10226.02
499.485	10639.71
499.689	10504.54
499.892	10709.34
500.095	10649.95
500.298	11043.16
500.501	11104.6
500.705	11354.45
500.908	11153.75
501.111	11514.19
501.314	11630.93
501.517	11841.87
501.72	11700.56
501.923	11733.32
502.126	12138.82
502.329	12276.04
502.532	12394.82
502.735	12497.22
502.938	12382.53
503.141	12646.72
503.344	12915
503.547	12851.52
503.75	13044.02
503.953	13220.15
504.156	13398.32
504.359	13463.86
504.562	13543.73
504.765	13887.79
504.968	13738.29
505.17	14209.32
505.373	14164.26
505.576	14500.13
505.779	14485.79
505.982	14498.08
506.185	14940.44
506.387	14872.86
506.59	15264.02
506.793	15380.76
506.996	15259.93
507.198	15989
507.401	15814.93
507.604	15972.62
507.807	16242.95
508.009	16265.48
508.212	16410.89
508.415	16738.56
508.617	16763.14
508.82	16859.39
509.022	16980.22
509.225	17410.29
509.428	17316.09
509.63	17574.13
509.833	17697.01
510.035	18159.85
510.238	18082.03
510.44	17948.91
510.643	18415.85
510.845	18809.06
511.048	18483.43
511.25	18604.26
511.453	19017.95
511.655	19843.28
511.858	19570.9
512.06	19548.37
512.262	19822.8
512.465	20041.93
512.667	20246.73
512.87	20574.41
513.072	20347.08
513.274	20943.04
513.477	21192.89
513.679	20992.19
513.881	21321.91
514.084	21528.76
514.286	21715.12
514.488	21514.42
514.69	22380.71
514.893	22513.83
515.095	22325.42
515.297	22839.46
515.499	23132.32
515.701	23042.21
515.904	23384.22
516.106	23685.27
516.308	23644.31
516.51	23957.65
516.712	24121.49
516.914	24307.85
517.116	24686.73
517.318	24946.82
517.52	25016.45
517.722	24922.24
517.925	24971.39
518.127	25860.21
518.329	26019.95
518.531	25616.51
518.733	26218.61
518.935	26343.53
519.136	26425.45
519.338	26914.92
519.54	26931.3
519.742	27254.88
519.944	27547.74
520.146	27967.57
520.348	27881.56
520.55	27803.74
520.752	28147.79
520.954	28498
521.155	28657.74
521.357	28819.53
521.559	29390.91
521.761	29392.96
521.963	29204.55
522.164	29728.83
522.366	29603.9
522.568	30382.13
522.77	30238.77
522.971	30617.64
523.173	30335.03
523.375	30498.86
523.576	31010.85
523.778	30830.63
523.98	31158.31
524.181	31404.06
524.383	31866.91
524.584	31649.82
524.786	31864.86
524.988	32067.61
525.189	32483.34
525.391	32251.92
525.592	32802.83
525.794	32993.29
525.995	32864.27
526.197	32688.14
526.398	32774.16
526.6	33282.05
526.801	33312.77
527.003	33898.49
527.204	33286.15
527.406	33699.84
527.607	33884.15
527.808	34082.81
528.01	33214.47
528.211	33822.72
528.412	34574.32
528.614	34211.83
528.815	34533.36
529.016	34852.84
529.218	34572.27
529.419	34519.03
529.62	34858.99
529.822	34856.94
530.023	34643.95
530.224	34564.08
530.425	34637.81
530.626	34691.05
530.828	34813.93
531.029	35379.17
531.23	34617.33
531.431	34942.95
531.632	35176.42
531.833	35555.3
532.035	35088.36
532.236	35340.26
532.437	35317.73
532.638	35055.59
532.839	35479.52
533.04	35514.34
533.241	35260.39
533.442	35874.78
533.643	35385.32
533.844	35702.75
534.045	35745.76
534.246	35141.61
534.447	35489.76
534.648	35637.22
534.849	35659.74
535.05	35223.53
535.251	35827.68
535.451	35502.05
535.652	35952.6
535.853	35962.84
536.054	35168.23
536.255	35655.65
536.456	35512.29
536.657	35809.25
536.857	35745.76
537.058	35512.29
537.259	35553.25
537.46	35651.55
537.66	35422.18
537.861	35727.33
538.062	35594.21
538.263	35833.82
538.463	35657.7
538.664	35524.58
538.865	35805.15
539.065	36143.06
539.266	35213.29
539.466	35725.28
539.667	35475.43
539.868	36020.19
540.068	35534.82
540.269	35526.63
540.469	36042.71
540.67	35657.7
540.87	35772.38
541.071	35592.16
541.271	35672.03
541.472	35534.82
541.672	35567.59
541.873	35504.1
542.073	35180.52
542.274	35667.94
542.474	35620.83
542.675	35203.05
542.875	35819.49
543.075	35706.85
543.276	35274.73
543.476	35540.96
543.676	35381.22
543.877	35592.16
544.077	35344.36
544.277	35440.61
544.478	35311.59
544.678	35244.01
544.878	35035.11
545.078	35319.78
545.279	34979.82
545.479	35090.41
545.679	35860.44
545.879	35356.64
546.079	35049.45
546.28	35219.43
546.48	35074.02
546.68	35383.27
546.88	35434.47
547.08	35356.64
547.28	35264.49
547.48	34643.95
547.68	35293.16
547.88	34998.25
548.081	35270.63
548.281	35295.21
548.481	35172.33
548.681	35274.73
548.881	34996.2
549.081	35481.57
549.28	34779.12
549.48	35315.69
549.68	34783.21
549.88	35151.85
550.08	35094.5
550.28	35502.05
550.48	35010.54
550.68	35420.13
550.88	35121.13
551.08	34990.06
551.279	35035.11
551.479	35104.74
551.679	34830.32
551.879	34832.36
552.079	34873.32
552.278	35256.29
552.478	34785.26
552.678	35321.83
552.878	35053.55
553.077	34732.01
553.277	34738.16
553.477	35393.51
553.676	34510.83
553.876	34873.32
554.076	34920.43
554.275	34492.4
554.475	34357.24
554.674	34942.95
554.874	34834.41
555.074	34592.75
555.273	34602.99
555.473	34447.35
555.672	34195.45
555.872	34449.39
556.071	34629.62
556.271	34672.62
556.47	34353.14
556.67	34107.38
556.869	34484.21
557.068	33998.84
557.268	34263.03
557.467	34297.84
557.667	33970.17
557.866	34201.59
558.065	34066.42
558.265	33970.17
558.464	33718.27
558.663	34295.8
558.863	33691.65
559.062	34195.45
559.261	33710.08
559.461	34357.24
559.66	33935.35
559.859	33699.84
560.058	33730.56
560.258	33861.63
560.457	33343.49
560.656	33695.74
560.855	33519.62
561.054	33904.63
561.253	33294.34
561.453	33402.88
561.652	33421.31
561.851	33566.72
562.05	33449.99
562.249	32808.97
562.448	33423.36
562.647	32825.36
562.846	33230.85
563.045	32929.8
563.244	32706.57
563.443	32962.57
563.642	32382.99
563.841	33110.02
564.04	32780.3
564.239	33103.88
564.438	32313.36
564.637	32571.41
564.836	32471.06
565.035	32399.38
565.234	32319.51
565.432	32440.34
565.631	32409.62
565.83	32149.53
566.029	31879.19
566.228	31946.78
566.427	32360.47
566.625	31676.44
566.824	31555.61
567.023	31907.87
567.222	31715.36
567.42	32075.8
567.619	31672.35
567.818	31582.24
568.016	31666.2
568.215	31524.89
568.414	31270.95
568.612	31461.41
568.811	31262.75
569.01	31195.17
569.208	30859.31
569.407	31303.71
569.605	30711.85
569.804	30992.42
570.002	30783.53
570.201	30867.5
570.4	30386.22
570.598	30611.5
570.797	30554.16
570.995	30566.45
571.193	30507.05
571.392	30449.71
571.59	29988.92
571.789	30285.87
571.987	30007.35
572.186	30384.18
572.384	29913.14
572.582	29792.31
572.781	29939.77
572.979	29190.21
573.177	30033.97
573.376	30136.37
573.574	29401.15
573.772	29741.11
573.971	29489.21
574.169	29411.39
574.367	29114.44
574.565	29349.95
574.763	29112.39
574.962	29016.13
575.16	28917.83
575.358	28835.91
575.556	28680.27
575.754	29050.95
575.952	28383.31
576.151	28631.12
576.349	28198.99
576.547	28541
576.745	28444.75
576.943	28248.14
577.141	27957.33
577.339	28239.95
577.537	27926.61
577.735	28018.77
577.933	27924.57
578.131	27981.91
578.329	27873.37
578.527	27820.12
578.725	28057.68
578.923	27648.09
579.121	27510.88
579.319	27523.16
579.516	27664.47
579.714	27672.67
579.912	27535.45
580.11	27080.8
580.308	27371.61
580.506	27056.23
580.704	26613.87
580.901	26886.25
581.099	26970.21
581.297	26577
581.495	27043.94
581.692	27000.93
581.89	26538.09
582.088	26757.22
582.285	26648.68
582.483	26439.79
582.681	26400.88
582.878	26404.97
583.076	26134.64
583.274	26232.94
583.471	26060.91
583.669	26073.2
583.866	25659.51
584.064	26105.97
584.262	25553.02
584.459	25763.96
584.657	25557.11
584.854	26239.09
585.052	25112.7
585.249	25774.2
585.447	25718.9
585.644	25163.9
585.841	25497.72
586.039	25391.23
586.236	24860.8
586.434	24807.56
586.631	24803.46
586.828	24926.34
587.026	25030.79
587.223	24756.36
587.42	24912
587.618	24746.12
587.815	24625.29
588.012	24586.38
588.21	24483.98
588.407	24668.3
588.604	24379.53
588.801	24230.03
588.999	23994.51
589.196	24283.28
589.393	24158.35
589.59	23920.79
589.787	24156.3
589.984	23728.28
590.182	23681.17
590.379	23904.4
590.576	23582.87
590.773	23488.67
590.97	23357.6
591.167	23519.39
591.364	23111.84
591.561	23705.75
591.758	23025.82
591.955	23210.14
592.152	23269.53
592.349	23027.87
592.546	22915.23
592.743	23001.25
592.94	22872.23
593.137	23208.09
593.334	23036.06
593.531	22569.13
593.727	22470.83
593.924	22567.08
594.121	22446.25
594.318	22522.02
594.515	22155.44
594.712	22511.78
594.908	21940.4
595.105	22212.78
595.302	22028.46
595.499	21926.07
595.696	22073.52
595.892	21663.93
596.089	21864.63
596.286	21813.43
596.482	21790.9
596.679	21733.56
596.876	21600.44
597.072	21379.26
597.269	21620.92
597.466	21305.53
597.662	21293.24
597.859	21313.72
598.055	21196.99
598.252	21086.4
598.448	21117.12
598.645	20951.23
598.841	20959.42
599.038	21127.36
599.234	20674.76
599.431	20877.51
599.627	20969.66
599.824	20795.59
600.02	20560.07
600.217	20572.36
600.413	20441.29
600.609	20357.32
600.806	20019.41
601.002	20238.54
601.198	20367.56
601.395	20086.99
601.591	20066.51
601.787	20562.12
601.984	20078.8
602.18	20048.08
602.376	19620.05
602.572	19790.03
602.769	19781.84
602.965	19577.05
603.161	19566.81
603.357	19552.47
603.553	19560.66
603.75	19650.77
603.946	19169.5
604.142	19615.96
604.338	19151.07
604.534	19134.68
604.73	19335.38
604.926	19214.55
605.122	19192.03
605.318	19024.09
605.514	18675.94
605.71	18673.89
605.906	18794.72
606.102	18710.75
606.298	18594.02
606.494	18655.46
606.69	18694.37
606.886	18606.31
607.082	18520.29
607.278	18766.05
607.474	18106.6
607.67	18614.5
607.866	18180.33
608.062	18397.42
608.257	18372.84
608.453	18229.48
608.649	18122.99
608.845	17998.06
609.041	17957.1
609.236	18100.46
609.432	17866.99
609.628	18036.97
609.824	18010.35
610.019	17641.71
610.215	17664.24
610.411	18028.78
610.606	17733.87
610.802	17635.57
610.998	17711.35
611.193	17928.43
611.389	17561.84
611.584	17588.47
611.78	17684.72
611.976	17473.78
612.171	17729.78
612.367	17398.01
612.562	17567.99
612.758	17000.7
612.953	17062.14
613.149	17238.26
613.344	17303.8
613.539	17414.39
613.735	17025.28
613.93	17428.73
614.126	17144.06
614.321	17191.16
614.517	17127.67
614.712	16892.16
614.907	16820.48
615.103	17127.67
615.298	16820.48
615.493	17266.94
615.688	16910.59
615.884	17275.13
616.079	16369.93
616.274	16877.82
616.47	16804.1
616.665	16683.27
616.86	16748.8
617.055	16472.32
617.25	16734.46
617.445	16603.39
617.641	16296.2
617.836	16445.7
618.031	16251.14
618.226	16347.4
618.421	16193.8
618.616	16324.87
618.811	16183.56
619.006	16353.54
619.201	15896.85
619.396	16195.85
619.591	15710.48
619.786	16115.98
619.981	15833.36
620.176	15937.8
620.371	15401.24
620.566	15847.69
620.761	15677.71
620.956	15511.83
621.151	15239.45
621.346	15608.08
621.541	15282.45
621.735	15313.17
621.93	15003.93
622.125	15051.03
622.32	14958.88
622.515	14731.55
622.709	15016.22
622.904	14821.66
623.099	14553.38
623.294	14864.67
623.488	14532.9
623.683	14584.1
623.878	14612.77
624.072	14565.67
624.267	14291.24
624.462	14297.38
624.656	14037.29
624.851	14002.47
625.046	13947.18
625.24	13891.88
625.435	14012.71
625.629	13781.29
625.824	13715.76
626.018	13678.9
626.213	13314.36
626.407	13508.91
626.602	13312.31
626.796	13269.3
626.991	13234.49
627.185	13029.69
627.38	13209.91
627.574	12972.35
627.768	13058.36
627.963	12937.53
628.157	12693.82
628.352	12886.33
628.546	12675.39
628.74	12767.55
628.935	12540.22
629.129	12558.66
629.323	12202.31
629.517	12556.61
629.712	12382.53
629.906	12235.08
630.1	12210.5
630.294	12077.38
630.489	11962.7
630.683	12257.6
630.877	11825.48
631.071	11938.12
631.265	11827.53
631.459	11710.8
631.653	11794.76
631.848	11661.65
632.042	11612.49
632.236	11536.72
632.43	11424.08
632.624	11491.66
632.818	11280.72
633.012	11055.45
633.206	11053.4
633.4	11125.08
633.594	11075.93
633.788	11092.31
633.982	10967.38
634.176	11012.44
634.369	10895.71
634.563	10858.84
634.757	10875.23
634.951	10672.48
635.145	10576.22
635.339	10547.55
635.533	10594.65
635.726	10553.69
635.92	10484.06
636.114	10514.78
636.308	10463.58
636.501	10400.1
636.695	10318.18
636.889	10236.26
637.083	10109.29
637.276	10004.84
637.47	9906.54
637.664	9824.62
637.857	10029.41
638.051	9761.13
638.244	9763.18
638.438	9877.87
638.632	9884.01
638.825	9754.99
639.019	9587.05
639.212	9617.77
639.406	9513.33
639.599	9470.32
639.793	9455.98
639.986	9234.8
640.18	9247.09
640.373	9140.6
640.567	9144.69
640.76	9234.8
640.954	8958.33
641.147	8911.22
641.34	8866.17
641.534	9058.68
641.727	8982.9
641.92	9087.35
642.114	8718.71
642.307	8683.9
642.5	8612.22
642.694	8606.08
642.887	8448.38
643.08	8536.45
643.273	8661.37
643.467	8515.97
643.66	8350.08
643.853	8448.38
644.046	8403.33
644.239	8212.87
644.432	8219.01
644.626	8071.56
644.819	8106.37
645.012	8063.36
645.205	8167.81
645.398	8206.72
645.591	7958.92
645.784	7879.05
645.977	7922.06
646.17	7889.29
646.363	7784.84
646.556	7684.49
646.749	7719.31
646.942	7723.4
647.135	7547.28
647.328	7694.73
647.521	7580.04
647.714	7346.58
647.907	7655.82
648.099	7469.45
648.292	7491.98
648.485	7424.4
648.678	7342.48
648.871	7367.06
649.064	7295.38
649.256	7510.41
649.449	7096.72
649.642	7152.02
649.835	7113.11
650.027	7145.87
650.22	6996.37
650.413	6955.41
650.605	6883.73
650.798	6869.4
650.991	6934.93
651.183	6734.23
651.376	6810.01
651.568	6805.91
651.761	6961.56
651.954	6769.05
652.146	6631.83
652.339	6574.49
652.531	6654.36
652.724	6576.54
652.916	6560.16
653.109	6433.18
653.301	6431.13
653.494	6494.62
653.686	6322.59
653.879	6459.81
654.071	6396.32
654.263	6261.15
654.456	6261.15
654.648	6205.86
654.84	6117.79
655.033	6201.76
655.225	6099.36
655.417	6050.21
655.61	5949.86
655.802	6121.89
655.994	5790.12
656.186	6078.88
656.379	6001.06
656.571	5941.67
656.763	5931.43
656.955	5818.79
657.148	5890.47
657.34	5740.97
657.532	5724.58
657.724	5712.3
657.916	5564.84
658.108	5718.44
658.3	5560.75
658.492	5706.15
658.684	5497.26
658.876	5605.8
659.068	5564.84
659.26	5376.43
659.452	5534.12
659.644	5386.67
659.836	5507.5
660.028	5368.24
660.22	5319.09
660.412	5241.26
660.604	5323.18
660.796	5181.87
660.988	5337.52
661.18	5222.83
661.372	5140.91
661.563	5192.11
661.755	5083.57
661.947	5097.91
662.139	5091.76
662.331	4878.77
662.522	4794.81
662.714	4909.49
662.906	4846.01
663.097	4983.22
663.289	4907.45
663.481	4886.97
663.673	4839.86
663.864	4848.05
664.056	4729.27
664.247	4794.81
664.439	4655.54
664.631	4721.08
664.822	4708.79
665.014	4774.33
665.205	4641.21
665.397	4532.67
665.588	4549.05
665.78	4618.68
665.971	4542.91
666.163	4473.28
666.354	4436.41
666.546	4428.22
666.737	4557.24
666.929	4444.6
667.12	4444.6
667.311	4491.71
667.503	4381.12
667.694	4354.49
667.885	4194.75
668.077	4403.64
668.268	4262.33
668.459	4256.19
668.651	4217.28
668.842	4178.37
669.033	4151.74
669.224	4131.26
669.416	4137.41
669.607	4098.5
669.798	4221.38
669.989	4149.7
670.18	4135.36
670.371	4157.89
670.563	3963.33
670.754	4041.15
670.945	3912.13
671.136	4022.72
671.327	3860.93
671.518	3848.65
671.709	3934.66
671.9	4032.96
672.091	3891.65
672.282	4032.96
672.473	3807.69
672.664	3819.97
672.855	3824.07
673.046	3867.08
673.237	3754.44
673.428	3924.42
673.619	3688.9
673.809	3625.42
674	3690.95
674.191	3795.4
674.382	3645.9
674.573	3736.01
674.764	3602.89
674.954	3639.75
675.145	3582.41
675.336	3572.17
675.527	3606.98
675.717	3590.6
675.908	3504.59
676.099	3518.92
676.289	3666.38
676.48	3541.45
676.671	3480.01
676.861	3453.39
677.052	3445.2
677.243	3391.95
677.433	3365.32
677.624	3426.76
677.814	3369.42
678.005	3439.05
678.195	3496.39
678.386	3369.42
678.576	3369.42
678.767	3387.85
678.957	3377.61
679.148	3348.94
679.338	3432.91
679.529	3279.31
679.719	3328.46
679.909	3328.46
680.1	3312.08
680.29	3328.46
680.481	3252.69
680.671	3426.76
680.861	3146.19
681.052	3221.97
681.242	3191.25
681.432	3193.3
681.622	3199.44
681.813	3246.54
682.003	2976.21
682.193	3176.91
682.383	3121.62
682.573	3084.75
682.764	3156.43
682.954	3011.03
683.144	3193.3
683.334	3025.36
683.524	3109.33
683.714	2996.69
683.904	3045.84
684.094	3117.52
684.284	3033.55
684.474	3015.12
684.664	3043.79
684.854	2974.16
685.044	2935.25
685.234	3023.31
685.424	2945.49
685.614	3049.94
685.804	3066.32
685.994	2972.11
686.184	2992.59
686.374	2865.62
686.564	2900.44
686.753	2927.06
686.943	2865.62
687.133	2869.72
687.323	2832.85
687.513	2800.09
687.702	2873.81
687.892	2757.08
688.082	2763.22
688.272	2877.91
688.461	2836.95
688.651	2806.23
688.841	2779.61
689.03	2765.27
689.22	2822.61
689.41	2800.09
689.599	2636.25
689.789	2535.9
689.979	2673.11
690.168	2664.92
690.358	2628.06
690.547	2677.21
690.737	2724.31
690.926	2570.71
691.116	2689.49
691.305	2578.9
691.495	2677.21
691.684	2513.37
691.874	2673.11
692.063	2574.81
692.252	2662.87
692.442	2515.42
692.631	2558.42
692.82	2605.53
693.01	2525.66
693.199	2572.76
693.388	2496.99
693.578	2542.04
693.767	2374.11
693.956	2533.85
694.146	2460.12
694.335	2415.07
694.524	2468.31
694.713	2480.6
694.902	2511.32
695.092	2529.75
695.281	2423.26
695.47	2439.64
695.659	2468.31
695.848	2327
696.037	2331.1
696.226	2488.79
696.415	2394.59
696.604	2439.64
696.793	2314.72
696.982	2419.16
697.171	2394.59
697.36	2255.33
697.549	2294.24
697.738	2210.27
697.927	2271.71
698.116	2306.52
698.305	2333.15
698.494	2345.44
698.683	2218.46
698.872	2482.65
699.061	2281.95
699.25	2320.86
699.438	2261.47
699.627	2271.71
699.816	2197.98
700.005	2306.52
700.193	2148.83
700.382	2273.76
700.571	2259.42
700.76	2263.52
700.948	2167.26
701.137	2177.5
701.326	2150.88
701.514	2302.43
701.703	2257.37
701.892	2210.27
702.08	2243.04
702.269	2144.74
702.457	2197.98
702.646	2144.74
702.834	2304.48
703.023	2124.26
703.212	2187.74
703.4	2232.8
703.589	2265.57
703.777	2300.38
703.965	2116.06
704.154	2071.01
704.342	2122.21
704.531	2181.6
704.719	2177.5
704.907	2210.27
705.096	2206.17
705.284	2167.26
705.472	2259.42
705.661	2134.5
705.849	2185.69
706.037	2249.18
706.226	2187.74
706.414	2165.21
706.602	2175.45
706.79	2197.98
706.979	2068.96
707.167	2140.64
707.355	2122.21
707.543	2146.78
707.731	2091.49
707.919	2083.3
708.107	2105.82
708.296	2042.34
708.484	2097.63
708.672	2095.58
708.86	2060.77
709.048	2175.45
709.236	2136.54
709.424	2181.6
709.612	2132.45
709.8	2097.63
709.988	2111.97
710.176	2296.28
710.364	2066.91
710.551	2025.95
710.739	2140.64
710.927	2181.6
711.115	2087.39
711.303	2028
711.491	2017.76
711.679	2032.1
711.866	2099.68
712.054	2091.49
712.242	2099.68
712.43	2161.12
712.617	2118.11
712.805	2054.62
712.993	2157.02
713.181	2099.68
713.368	2095.58
713.556	2157.02
713.744	2103.78
713.931	2263.52
714.119	2091.49
714.306	2077.15
714.494	2036.19
714.682	2087.39
714.869	2009.57
715.057	2099.68
715.244	2122.21
715.432	2144.74
715.619	2146.78
715.807	2152.93
715.994	2036.19
716.182	2013.67
716.369	2152.93
716.556	2028
716.744	1958.37
716.931	2148.83
717.119	2122.21
717.306	2079.2
717.493	1980.9
717.681	2111.97
717.868	2165.21
718.055	2038.24
718.242	2015.71
718.43	2089.44
718.617	2038.24
718.804	1952.23
718.991	2118.11
719.179	2058.72
719.366	2071.01
719.553	2021.86
719.74	2042.34
719.927	2011.62
720.114	2046.43
720.301	1954.27
720.488	2021.86
720.676	2128.35
720.863	2099.68
721.05	2077.15
721.237	2019.81
721.424	2034.14
721.611	2050.53
721.798	2013.67
721.985	1962.47
722.172	1944.03
722.358	2025.95
722.545	2028
722.732	2009.57
722.919	1980.9
723.106	1886.69
723.293	2054.62
723.48	1950.18
723.667	2071.01
723.853	2071.01
724.04	1960.42
724.227	2001.38
724.414	2054.62
724.6	1937.89
724.787	2099.68
724.974	1984.99
725.161	2001.38
725.347	1948.13
725.534	1976.8
725.72	1987.04
725.907	1968.61
726.094	2062.82
726.28	2001.38
726.467	2036.19
726.653	2025.95
726.84	2140.64
727.027	2066.91
727.213	1927.65
727.4	1960.42
727.586	2075.1
727.773	2034.14
727.959	2025.95
728.145	1968.61
728.332	2052.58
728.518	1905.12
728.705	2005.47
728.891	1972.71
729.077	2021.86
729.264	2046.43
729.45	1960.42
729.636	2030.05
729.823	1968.61
730.009	1962.47
730.195	1964.51
730.382	1927.65
730.568	1952.23
730.754	2030.05
730.94	2009.57
731.126	1907.17
731.313	1960.42
731.499	1888.74
731.685	1937.89
731.871	1882.6
732.057	1946.08
732.243	1921.51
732.429	1937.89
732.615	1970.66
732.801	1919.46
732.987	1939.94
733.173	1905.12
733.359	1929.7
733.545	1933.79
733.731	1792.48
733.917	1984.99
734.103	1974.75
734.289	1903.07
734.475	1849.83
734.661	1972.71
734.847	1917.41
735.033	2001.38
735.219	1917.41
735.404	1913.31
735.59	1941.99
735.776	1915.36
735.962	1960.42
736.148	1837.54
736.333	1874.4
736.519	1769.96
736.705	2032.1
736.89	1798.63
737.076	1923.55
737.262	1837.54
737.447	1849.83
737.633	1911.27
737.819	1874.4
738.004	1835.49
738.19	1821.16
738.375	1880.55
738.561	1937.89
738.747	1808.87
738.932	1829.35
739.118	1731.05
739.303	1845.73
739.489	1841.64
739.674	1815.01
739.859	1724.9
740.045	1825.25
740.23	1802.72
740.416	1604.07
740.601	1802.72
740.786	1792.48
740.972	1733.09
741.157	1847.78
741.342	1718.76
741.528	1702.37
741.713	1747.43
741.898	1753.57
742.084	1683.94
742.269	1837.54
742.454	1673.7
742.639	1673.7
742.824	1772
743.01	1849.83
743.195	1743.33
743.38	1763.81
743.565	1741.29
743.75	1679.85
743.935	1729
744.12	1722.85
744.305	1681.89
744.49	1593.83
744.675	1620.46
744.86	1653.22
745.045	1647.08
745.23	1538.54
745.415	1583.59
745.6	1610.22
745.785	1628.65
745.97	1685.99
746.155	1612.26
746.34	1622.5
746.525	1628.65
746.71	1569.26
746.895	1544.68
747.079	1632.74
747.264	1438.19
747.449	1481.19
747.634	1520.1
747.819	1511.91
748.003	1487.34
748.188	1497.58
748.373	1462.76
748.557	1587.69
748.742	1561.06
748.927	1389.03
749.111	1409.51
749.296	1530.34
749.481	1429.99
749.665	1477.1
749.85	1429.99
750.034	1403.37
750.219	1364.46
750.404	1309.16
750.588	1346.03
750.773	1395.18
750.957	1444.33
751.141	1436.14
751.326	1511.91
751.51	1370.6
751.695	1329.64
751.879	1333.74
752.064	1288.68
752.248	1358.32
752.432	1325.55
752.617	1329.64
752.801	1288.68
752.985	1253.87
753.17	1280.49
753.354	1247.72
753.538	1219.05
753.722	1208.81
753.907	1153.52
754.091	1192.43
754.275	1174
754.459	1251.82
754.643	1174
754.828	1186.29
755.012	1102.32
755.196	1104.37
755.38	1231.34
755.564	1235.44
755.748	1149.42
755.932	1196.53
756.116	1077.74
756.3	1122.8
756.484	1108.46
756.668	1141.23
756.852	1026.54
757.036	1133.04
757.22	1094.13
757.404	1051.12
757.588	997.87
757.772	1124.85
757.956	1034.74
758.14	1212.91
758.323	961.01
758.507	1067.5
758.691	1028.59
758.875	1124.85
759.059	1014.26
759.242	1038.83
759.426	1051.12
759.61	1047.02
759.794	1059.31
759.977	975.35
760.161	977.39
760.345	928.24
760.528	911.86
760.712	1006.06
760.895	1092.08
761.079	920.05
761.263	891.38
761.446	924.15
761.63	909.81
761.813	1053.17
761.997	891.38
762.18	973.3
762.364	985.58
762.547	936.43
762.731	965.11
762.914	991.73
763.098	1004.02
763.281	891.38
763.464	973.3
763.648	870.9
763.831	895.47
764.015	838.13
764.198	862.71
764.381	872.95
764.564	870.9
764.748	856.56
764.931	961.01
765.114	891.38
765.297	895.47
765.481	776.69
765.664	834.04
765.847	823.8
766.03	834.04
766.213	838.13
766.397	897.52
766.58	797.17
766.763	797.17
766.946	850.42
767.129	774.64
767.312	737.78
767.495	821.75
767.678	776.69
767.861	760.31
768.044	829.94
768.227	854.51
768.41	791.03
768.593	799.22
768.776	782.84
768.959	819.7
769.142	764.4
769.324	848.37
769.507	862.71
769.69	805.36
769.873	774.64
770.056	846.32
770.239	854.51
770.421	797.17
770.604	774.64
770.787	805.36
770.97	705.01
771.152	676.34
771.335	719.35
771.518	733.68
771.7	774.64
771.883	764.4
772.066	684.53
772.248	717.3
772.431	784.88
772.613	768.5
772.796	750.07
772.978	721.4
773.161	707.06
773.343	748.02
773.526	721.4
773.708	729.59
773.891	692.73
774.073	690.68
774.256	616.95
774.438	725.49
774.621	578.04
774.803	715.25
774.985	659.96
775.168	641.53
775.35	682.49
775.532	690.68
775.715	578.04
775.897	666.1
776.079	608.76
776.261	657.91
776.444	635.38
776.626	629.24
776.808	555.51
776.99	567.8
777.173	596.47
777.355	649.72
777.537	578.04
777.719	702.97
777.901	575.99
778.083	543.22
778.265	610.81
778.447	608.76
778.629	543.22
778.811	506.36
778.993	578.04
779.175	627.19
779.357	530.94
779.539	496.12
779.721	549.37
779.903	520.7
780.085	440.83
780.267	477.69
780.449	520.7
780.631	487.93
780.812	559.61
780.994	440.83
781.176	510.46
781.358	592.37
781.54	483.83
781.721	504.31
781.903	578.04
782.085	469.5
782.267	498.17
782.448	571.9
782.63	461.3
782.812	522.74
782.993	543.22
783.175	512.5
783.357	528.89
783.538	395.77
783.72	539.13
783.901	477.69
784.083	465.4
784.264	471.54
784.446	508.41
784.627	395.77
784.809	485.88
784.99	436.73
785.172	451.07
785.353	430.59
785.535	494.07
785.716	412.15
785.897	471.54
786.079	391.67
786.26	424.44
786.441	389.63
786.623	440.83
786.804	272.89
786.985	375.29
787.167	416.25
787.348	387.58
787.529	373.24
787.71	403.96
787.891	397.82
788.073	348.67
788.254	313.85
788.435	356.86
788.616	367.1
788.797	367.1
788.978	266.75
789.159	272.89
789.34	406.01
789.522	330.23
789.703	350.71
789.884	313.85
790.065	272.89
790.246	408.06
790.427	324.09
790.607	387.58
790.788	324.09
790.969	309.76
791.15	391.67
791.331	270.84
791.512	375.29
791.693	322.04
791.874	289.28
792.054	272.89
792.235	309.76
792.416	283.13
792.597	348.67
792.778	346.62
792.958	313.85
793.139	328.19
793.32	289.28
793.5	281.08
793.681	236.03
793.862	299.52
794.042	293.37
794.223	272.89
794.404	322.04
794.584	248.32
794.765	215.55
794.945	244.22
795.126	309.76
795.306	299.52
795.487	363
795.667	227.84
795.848	268.8
796.028	348.67
796.209	256.51
796.389	313.85
796.57	281.08
796.75	246.27
796.93	147.97
797.111	139.77
797.291	252.41
797.471	266.75
797.652	264.7
797.832	188.93
798.012	371.19
798.192	281.08
798.373	147.97
798.553	244.22
798.733	260.6
798.913	231.93
799.093	180.73
799.274	287.23
799.454	236.03
799.634	268.8
799.814	180.73
799.994	203.26
800.174	252.41
800.354	223.74
800.534	195.07
800.714	233.98
800.894	168.45
801.074	211.45
801.254	207.36
801.434	170.49
801.614	238.08
801.794	156.16
801.974	848.37
802.154	207.36
802.334	211.45
802.514	158.21
802.693	193.02
802.873	264.7
803.053	272.89
803.233	225.79
803.413	219.64
803.592	123.39
803.772	176.64
803.952	197.12
804.131	184.83
804.311	207.36
804.491	182.78
804.67	236.03
804.85	158.21
805.03	223.74
805.209	270.84
805.389	188.93
805.568	117.25
805.748	141.82
805.928	174.59
806.107	186.88
806.287	199.16
806.466	219.64
806.646	127.49
806.825	125.44
807.004	174.59
807.184	186.88
807.363	158.21
807.543	166.4
807.722	137.73
807.901	211.45
808.081	174.59
808.26	125.44
808.439	158.21
808.619	174.59
808.798	84.48
808.977	154.11
809.156	199.16
809.336	205.31
809.515	168.45
809.694	170.49
809.873	221.69
810.052	186.88
810.231	190.97
810.411	86.53
810.59	182.78
810.769	145.92
810.948	242.17
811.127	209.4
811.306	102.91
811.485	143.87
811.664	258.56
811.843	125.44
812.022	150.01
812.201	92.67
812.38	133.63
812.559	117.25
812.737	92.67
812.916	49.66
813.095	158.21
813.274	227.84
813.453	135.68
813.632	141.82
813.811	160.25
813.989	88.57
814.168	133.63
814.347	92.67
814.526	195.07
814.704	119.29
814.883	133.63
815.062	76.29
815.24	150.01
815.419	35.33
815.598	145.92
815.776	125.44
815.955	125.44
816.133	41.47
816.312	61.95
816.49	104.96
816.669	141.82
816.847	111.1
817.026	190.97
817.204	78.33
817.383	178.69
817.561	53.76
817.74	121.34
817.918	137.73
818.097	150.01
818.275	96.77
818.453	68.09
818.632	104.96
818.81	61.95
818.988	78.33
819.167	123.39
819.345	51.71
819.523	131.58
819.701	51.71
819.879	57.86
820.058	12.8
820.236	68.09
820.414	129.53
820.592	92.67
820.77	90.62
820.948	109.05
821.127	104.96
821.305	131.58
821.483	51.71
821.661	59.9
821.839	127.49
822.017	27.14
822.195	20.99
822.373	121.34
822.551	70.14
822.729	141.82
822.907	133.63
823.085	127.49
823.262	154.11
823.44	119.29
823.618	125.44
823.796	96.77
823.974	70.14
824.152	113.15
824.329	94.72
824.507	96.77
824.685	94.72
824.863	76.29
825.04	43.52
825.218	119.29
825.396	152.06
825.574	82.43
825.751	43.52
825.929	53.76
826.107	92.67
826.284	74.24
826.462	76.29
826.639	111.1
826.817	68.09
826.994	84.48
827.172	96.77
827.349	86.53
827.527	94.72
827.704	86.53
827.882	12.8
828.059	45.57
828.237	57.86
828.414	90.62
828.591	45.57
828.769	121.34
828.946	61.95
829.124	98.81
829.301	141.82
829.478	39.42
829.655	125.44
829.833	100.86
830.01	133.63
830.187	92.67
830.364	-24.06
830.542	88.57
830.719	129.53
830.896	107.01
831.073	64
831.25	129.53
831.427	94.72
831.604	53.76
831.782	43.52
831.959	88.57
832.136	35.33
832.313	37.38
832.49	37.38
832.667	27.14
832.844	53.76
833.021	133.63
833.198	61.95
833.374	111.1
833.551	-11.78
833.728	27.14
833.905	94.72
834.082	76.29
834.259	72.19
834.436	51.71
834.612	20.99
834.789	127.49
834.966	20.99
835.143	35.33
835.319	12.8
835.496	104.96
835.673	76.29
835.85	94.72
836.026	117.25
836.203	39.42
836.38	35.33
836.556	29.18
836.733	121.34
836.909	76.29
837.086	66.05
837.262	-3.58
837.439	98.81
837.616	2.56
837.792	35.33
837.968	31.23
838.145	-1.54
838.321	29.18
838.498	29.18
838.674	80.38
838.851	45.57
839.027	-13.82
839.203	115.2
839.38	59.9
839.556	12.8
839.732	6.66
839.909	37.38
840.085	16.9
840.261	80.38
840.437	109.05
840.614	27.14
840.79	51.71
840.966	86.53
841.142	61.95
841.318	59.9
841.494	47.62
841.671	53.76
841.847	35.33
842.023	-28.16
842.199	76.29
842.375	80.38
842.551	10.75
842.727	2.56
842.903	-22.02
843.079	-22.02
843.255	88.57
843.431	39.42
843.607	68.09
843.783	8.7
843.959	78.33
844.134	23.04
844.31	61.95
844.486	12.8
844.662	6.66
844.838	47.62
845.013	82.43
845.189	68.09
845.365	-11.78
845.541	49.66
845.716	29.18
845.892	39.42
846.068	-1.54
846.244	84.48
846.419	84.48
846.595	41.47
846.77	100.86
846.946	27.14
847.122	61.95
847.297	35.33
847.473	31.23
847.648	94.72
847.824	78.33
847.999	-30.21
848.175	68.09
848.35	37.38
848.526	23.04
848.701	39.42
848.876	-24.06
849.052	152.06
849.227	-46.59
849.403	-5.63
849.578	74.24
849.753	115.2
849.929	76.29
850.104	70.14
850.279	121.34
850.454	121.34
850.63	14.85
850.805	10.75
850.98	29.18
851.155	-24.06
851.33	68.09
851.505	-77.31
851.681	100.86
851.856	29.18
852.031	37.38
852.206	45.57
852.381	18.94
852.556	37.38
852.731	80.38
852.906	20.99
853.081	10.75
853.256	76.29
853.431	12.8
853.606	-15.87
853.781	-36.35
853.956	16.9
854.131	88.57
854.305	-3.58
854.48	35.33
854.655	59.9
854.83	-46.59
855.005	31.23
855.18	2.56
855.354	-1.54
855.529	64
855.704	-22.02
855.879	72.19
856.053	-54.78
856.228	76.29
856.403	-67.07
856.577	70.14
856.752	-46.59
856.926	29.18
857.101	64
857.276	-38.4
857.45	18.94
857.625	-17.92
857.799	-22.02
857.974	64
858.148	43.52
858.323	45.57
858.497	10.75
858.672	-60.93
858.846	0.51
859.02	14.85
859.195	12.8
859.369	45.57
859.543	39.42
859.718	-19.97
859.892	6.66
860.066	53.76
860.241	-11.78
860.415	-42.5
860.589	8.7
860.763	-19.97
860.938	-9.73
861.112	53.76
861.286	-83.45
861.46	47.62
861.634	51.71
861.808	14.85
861.982	18.94
862.157	-15.87
862.331	37.38
862.505	59.9
862.679	-38.4
862.853	2.56
863.027	2.56
863.201	129.53
863.375	29.18
863.549	27.14
863.722	53.76
863.896	131.58
864.07	-11.78
864.244	12.8
864.418	66.05
864.592	10.75
864.766	-22.02
864.939	-17.92
865.113	-13.82
865.287	41.47
865.461	51.71
865.634	37.38
865.808	29.18
865.982	-46.59
866.156	-26.11
866.329	35.33
866.503	72.19
866.676	35.33
866.85	2.56
867.024	68.09
867.197	43.52
867.371	12.8
867.544	2.56
867.718	37.38
867.891	-24.06
868.065	-28.16
868.238	2.56
868.412	-13.82
868.585	6.66
868.759	10.75
868.932	-5.63
869.105	-5.63
869.279	-30.21
869.452	27.14
869.625	-15.87
869.799	-38.4
869.972	-17.92
870.145	23.04
870.319	-32.26
870.492	23.04
870.665	20.99
870.838	-1.54
871.011	25.09
871.185	2.56
871.358	4.61
871.531	68.09
871.704	16.9
871.877	-54.78
872.05	-97.79
872.223	-15.87
872.396	-32.26
872.569	68.09
872.742	-13.82
872.915	2.56
873.088	68.09
873.261	4.61
873.434	35.33
873.607	25.09
873.78	-11.78
873.953	-30.21
874.126	4.61
874.299	18.94
874.471	27.14
874.644	-5.63
874.817	-5.63
874.99	70.14
875.163	-19.97
875.335	-5.63
875.508	82.43
875.681	-28.16
875.853	27.14
876.026	-34.3
876.199	47.62
876.371	53.76
876.544	20.99
876.717	55.81
876.889	-13.82
877.062	-42.5
877.234	-19.97
877.407	-30.21
877.579	-75.26
877.752	-56.83
877.924	12.8
878.097	41.47
878.269	29.18
878.442	-15.87
878.614	0.51
878.786	20.99
878.959	-62.98
879.131	27.14
879.303	-17.92
879.476	29.18
879.648	16.9
879.82	10.75
879.993	2.56
880.165	29.18
880.337	29.18
880.509	18.94
880.681	-69.12
880.854	-54.78
881.026	39.42
881.198	150.01
881.37	-22.02
881.542	61.95
881.714	-5.63
881.886	35.33
882.058	-36.35
882.23	39.42
882.402	14.85
882.574	8.7
882.746	47.62
882.918	39.42
883.09	23.04
883.262	-5.63
883.434	41.47
883.606	-50.69
883.778	-54.78
883.95	115.2
884.122	18.94
884.293	10.75
884.465	-60.93
884.637	-22.02
884.809	-30.21
884.98	16.9
885.152	-46.59
885.324	43.52
885.496	27.14
885.667	-13.82
885.839	-15.87
886.011	51.71
886.182	-36.35
886.354	74.24
886.525	8.7
886.697	10.75
886.869	-87.55
887.04	-54.78
887.212	-3.58
887.383	70.14
887.555	-42.5
887.726	6.66
887.897	14.85
888.069	-54.78
888.24	12.8
888.412	37.38
888.583	-46.59
888.754	43.52
888.926	-5.63
889.097	43.52
889.268	78.33
889.44	45.57
889.611	-11.78
889.782	-38.4
889.953	-54.78
890.125	84.48
890.296	33.28
890.467	-22.02
890.638	12.8
890.809	-13.82
890.98	29.18
891.151	84.48
891.323	-56.83
891.494	-38.4
891.665	72.19
891.836	2.56
892.007	-34.3
892.178	14.85
892.349	35.33
892.52	-26.11
892.691	2.56
892.862	23.04
893.032	-24.06
893.203	-77.31
893.374	10.75
893.545	18.94
893.716	-13.82
893.887	61.95
894.057	12.8
894.228	29.18
894.399	-52.74
894.57	76.29
894.74	29.18
894.911	14.85
895.082	4.61
895.253	-60.93
895.423	76.29
895.594	43.52
895.764	-62.98
895.935	14.85
896.106	68.09
896.276	4.61
896.447	-54.78
896.617	-120.32
896.788	-36.35
896.958	55.81
897.129	-5.63
897.299	31.23
897.47	-5.63
897.64	31.23
897.81	8.7
897.981	-44.54
898.151	-9.73
898.322	23.04
898.492	51.71
898.662	0.51
898.832	20.99
899.003	-36.35
899.173	6.66
899.343	18.94
899.513	-62.98
