Data from USB4F104151__128__14-44-01-588.txt Node

Date: Thu Mar 13 14:44:01 EDT 2025
User: louis
Spectrometer: USB4F10415
Trigger mode: 4
Integration Time (sec): 2.000000E-2
Scans to average: 1
Electric dark correction enabled: true
Nonlinearity correction enabled: false
Boxcar width: 0
XAxis mode: Wavelengths
Number of Pixels in Spectrum: 3648
>>>>>Begin Spectral Data<<<<<
178.204	-90.62
178.424	-90.62
178.644	-90.62
178.864	-113.15
179.084	-70.14
179.304	-51.71
179.524	-43.52
179.744	-2.56
179.964	1.54
180.184	-18.94
180.404	-14.85
180.624	36.35
180.844	99.84
181.064	-33.28
181.283	30.21
181.503	-27.14
181.723	24.06
181.943	-10.75
182.163	83.45
182.383	-14.85
182.602	103.93
182.822	13.82
183.042	69.12
183.262	-43.52
183.482	58.88
183.701	3.58
183.921	71.17
184.141	-2.56
184.361	46.59
184.58	42.5
184.8	93.69
185.02	73.21
185.239	103.93
185.459	30.21
185.679	83.45
185.898	-18.94
186.118	42.5
186.338	71.17
186.557	77.31
186.777	-20.99
186.997	73.21
187.216	65.02
187.436	56.83
187.655	130.56
187.875	46.59
188.095	-25.09
188.314	46.59
188.534	95.74
188.753	56.83
188.973	-0.51
189.192	87.55
189.412	-33.28
189.631	-0.51
189.851	81.41
190.07	103.93
190.29	-25.09
190.509	40.45
190.729	22.02
190.948	146.94
191.168	122.37
191.387	171.52
191.607	71.17
191.826	38.4
192.045	89.6
192.265	26.11
192.484	50.69
192.704	-2.56
192.923	5.63
193.142	95.74
193.362	77.31
193.581	48.64
193.8	-18.94
194.02	79.36
194.239	-6.66
194.458	54.78
194.678	17.92
194.897	5.63
195.116	46.59
195.335	52.74
195.555	-16.9
195.774	-35.33
195.993	81.41
196.212	-2.56
196.432	-20.99
196.651	9.73
196.87	1.54
197.089	30.21
197.308	5.63
197.528	-33.28
197.747	40.45
197.966	46.59
198.185	67.07
198.404	38.4
198.623	54.78
198.842	62.98
199.062	42.5
199.281	54.78
199.5	42.5
199.719	7.68
199.938	40.45
200.157	42.5
200.376	48.64
200.595	91.65
200.814	97.79
201.033	65.02
201.252	67.07
201.471	65.02
201.69	40.45
201.909	40.45
202.128	54.78
202.347	46.59
202.566	38.4
202.785	26.11
203.004	24.06
203.223	89.6
203.442	83.45
203.661	44.54
203.879	50.69
204.098	26.11
204.317	22.02
204.536	28.16
204.755	13.82
204.974	38.4
205.193	67.07
205.411	130.56
205.63	22.02
205.849	79.36
206.068	93.69
206.287	81.41
206.505	46.59
206.724	73.21
206.943	17.92
207.162	15.87
207.381	13.82
207.599	-8.7
207.818	38.4
208.037	-8.7
208.255	81.41
208.474	97.79
208.693	-31.23
208.911	5.63
209.13	62.98
209.349	52.74
209.567	91.65
209.786	30.21
210.005	62.98
210.223	13.82
210.442	52.74
210.661	81.41
210.879	108.03
211.098	5.63
211.316	62.98
211.535	116.22
211.753	-27.14
211.972	30.21
212.191	105.98
212.409	-29.18
212.628	-31.23
212.846	7.68
213.065	48.64
213.283	38.4
213.502	38.4
213.72	73.21
213.938	79.36
214.157	93.69
214.375	-2.56
214.594	-10.75
214.812	28.16
215.031	-2.56
215.249	50.69
215.467	77.31
215.686	15.87
215.904	34.3
216.122	32.26
216.341	46.59
216.559	-16.9
216.778	65.02
216.996	103.93
217.214	-10.75
217.432	58.88
217.651	83.45
217.869	105.98
218.087	52.74
218.306	52.74
218.524	22.02
218.742	-6.66
218.96	118.27
219.179	65.02
219.397	54.78
219.615	126.46
219.833	13.82
220.051	15.87
220.27	-0.51
220.488	26.11
220.706	24.06
220.924	-2.56
221.142	42.5
221.36	-12.8
221.578	-27.14
221.796	48.64
222.015	-27.14
222.233	50.69
222.451	112.13
222.669	17.92
222.887	114.17
223.105	-35.33
223.323	112.13
223.541	67.07
223.759	46.59
223.977	65.02
224.195	122.37
224.413	50.69
224.631	38.4
224.849	97.79
225.067	79.36
225.285	26.11
225.503	-47.62
225.721	5.63
225.939	42.5
226.157	67.07
226.375	112.13
226.592	1.54
226.81	95.74
227.028	58.88
227.246	30.21
227.464	-25.09
227.682	116.22
227.9	56.83
228.117	28.16
228.335	26.11
228.553	17.92
228.771	5.63
228.989	83.45
229.206	48.64
229.424	-31.23
229.642	32.26
229.86	15.87
230.077	30.21
230.295	77.31
230.513	89.6
230.731	79.36
230.948	108.03
231.166	99.84
231.384	22.02
231.601	-33.28
231.819	99.84
232.037	67.07
232.254	46.59
232.472	204.28
232.689	-47.62
232.907	87.55
233.125	50.69
233.342	46.59
233.56	36.35
233.777	71.17
233.995	46.59
234.213	15.87
234.43	87.55
234.648	28.16
234.865	46.59
235.083	103.93
235.3	32.26
235.518	65.02
235.735	87.55
235.953	9.73
236.17	48.64
236.388	40.45
236.605	-2.56
236.822	46.59
237.04	-8.7
237.257	54.78
237.475	-6.66
237.692	13.82
237.909	38.4
238.127	46.59
238.344	62.98
238.562	56.83
238.779	17.92
238.996	50.69
239.214	38.4
239.431	5.63
239.648	-39.42
239.865	40.45
240.083	95.74
240.3	40.45
240.517	-43.52
240.735	-6.66
240.952	103.93
241.169	128.51
241.386	114.17
241.603	67.07
241.821	15.87
242.038	36.35
242.255	79.36
242.472	15.87
242.689	73.21
242.907	62.98
243.124	-4.61
243.341	-10.75
243.558	30.21
243.775	62.98
243.992	-6.66
244.209	-2.56
244.426	95.74
244.643	-23.04
244.86	15.87
245.078	-2.56
245.295	112.13
245.512	89.6
245.729	40.45
245.946	62.98
246.163	32.26
246.38	124.41
246.597	40.45
246.814	44.54
247.031	30.21
247.248	-35.33
247.464	65.02
247.681	24.06
247.898	50.69
248.115	22.02
248.332	-20.99
248.549	89.6
248.766	105.98
248.983	91.65
249.2	56.83
249.417	89.6
249.633	62.98
249.85	30.21
250.067	13.82
250.284	38.4
250.501	38.4
250.717	19.97
250.934	44.54
251.151	30.21
251.368	48.64
251.585	101.89
251.801	24.06
252.018	13.82
252.235	7.68
252.451	50.69
252.668	83.45
252.885	65.02
253.102	103.93
253.318	42.5
253.535	79.36
253.752	34.3
253.968	9.73
254.185	-2.56
254.401	52.74
254.618	13.82
254.835	11.78
255.051	136.7
255.268	24.06
255.484	-10.75
255.701	1.54
255.917	101.89
256.134	30.21
256.351	65.02
256.567	17.92
256.784	-10.75
257	-18.94
257.217	34.3
257.433	142.85
257.65	34.3
257.866	38.4
258.082	-27.14
258.299	62.98
258.515	48.64
258.732	-45.57
258.948	44.54
259.165	58.88
259.381	54.78
259.597	-10.75
259.814	13.82
260.03	56.83
260.246	71.17
260.463	83.45
260.679	38.4
260.895	30.21
261.112	30.21
261.328	38.4
261.544	-6.66
261.761	153.09
261.977	-45.57
262.193	-10.75
262.409	22.02
262.626	40.45
262.842	62.98
263.058	-8.7
263.274	-6.66
263.49	34.3
263.707	46.59
263.923	17.92
264.139	-20.99
264.355	19.97
264.571	65.02
264.787	44.54
265.004	120.32
265.22	114.17
265.436	38.4
265.652	89.6
265.868	50.69
266.084	17.92
266.3	48.64
266.516	-27.14
266.732	32.26
266.948	22.02
267.164	13.82
267.38	26.11
267.596	28.16
267.812	128.51
268.028	-8.7
268.244	30.21
268.46	58.88
268.676	50.69
268.892	50.69
269.108	11.78
269.324	26.11
269.54	5.63
269.756	40.45
269.972	17.92
270.188	17.92
270.403	36.35
270.619	54.78
270.835	52.74
271.051	-8.7
271.267	56.83
271.483	30.21
271.698	75.26
271.914	79.36
272.13	30.21
272.346	32.26
272.562	40.45
272.777	24.06
272.993	50.69
273.209	-35.33
273.425	-10.75
273.64	54.78
273.856	67.07
274.072	77.31
274.287	34.3
274.503	79.36
274.719	13.82
274.934	95.74
275.15	-10.75
275.366	136.7
275.581	42.5
275.797	87.55
276.012	38.4
276.228	83.45
276.444	50.69
276.659	54.78
276.875	67.07
277.09	46.59
277.306	-10.75
277.521	58.88
277.737	-0.51
277.952	54.78
278.168	32.26
278.383	11.78
278.599	69.12
278.814	26.11
279.03	71.17
279.245	46.59
279.461	46.59
279.676	32.26
279.892	101.89
280.107	9.73
280.322	48.64
280.538	118.27
280.753	22.02
280.969	46.59
281.184	32.26
281.399	48.64
281.615	46.59
281.83	26.11
282.045	19.97
282.26	54.78
282.476	79.36
282.691	108.03
282.906	38.4
283.122	97.79
283.337	81.41
283.552	91.65
283.767	85.5
283.983	108.03
284.198	13.82
284.413	38.4
284.628	13.82
284.843	114.17
285.058	65.02
285.274	30.21
285.489	34.3
285.704	83.45
285.919	36.35
286.134	46.59
286.349	5.63
286.564	46.59
286.779	52.74
286.995	108.03
287.21	7.68
287.425	24.06
287.64	30.21
287.855	42.5
288.07	-6.66
288.285	71.17
288.5	122.37
288.715	52.74
288.93	50.69
289.145	22.02
289.36	15.87
289.575	67.07
289.79	50.69
290.004	103.93
290.219	81.41
290.434	13.82
290.649	-0.51
290.864	40.45
291.079	-6.66
291.294	7.68
291.509	50.69
291.724	1.54
291.938	34.3
292.153	-2.56
292.368	-12.8
292.583	91.65
292.798	34.3
293.012	65.02
293.227	48.64
293.442	11.78
293.657	48.64
293.871	85.5
294.086	97.79
294.301	93.69
294.516	62.98
294.73	48.64
294.945	71.17
295.16	48.64
295.374	75.26
295.589	54.78
295.804	67.07
296.018	17.92
296.233	120.32
296.447	54.78
296.662	1.54
296.877	112.13
297.091	58.88
297.306	46.59
297.52	-2.56
297.735	-66.05
297.949	54.78
298.164	114.17
298.378	50.69
298.593	-14.85
298.807	-2.56
299.022	65.02
299.236	120.32
299.451	-10.75
299.665	62.98
299.88	97.79
300.094	101.89
300.309	40.45
300.523	60.93
300.737	54.78
300.952	65.02
301.166	26.11
301.381	30.21
301.595	50.69
301.809	58.88
302.024	71.17
302.238	15.87
302.452	87.55
302.667	54.78
302.881	110.08
303.095	75.26
303.309	3.58
303.524	-2.56
303.738	87.55
303.952	15.87
304.166	65.02
304.381	48.64
304.595	103.93
304.809	-10.75
305.023	54.78
305.237	11.78
305.452	120.32
305.666	30.21
305.88	77.31
306.094	62.98
306.308	73.21
306.522	108.03
306.736	-20.99
306.95	71.17
307.164	60.93
307.379	-10.75
307.593	95.74
307.807	38.4
308.021	65.02
308.235	15.87
308.449	-23.04
308.663	9.73
308.877	120.32
309.091	38.4
309.305	7.68
309.519	-18.94
309.733	87.55
309.947	-2.56
310.161	65.02
310.374	-31.23
310.588	46.59
310.802	13.82
311.016	-20.99
311.23	87.55
311.444	-31.23
311.658	89.6
311.872	112.13
312.085	144.89
312.299	30.21
312.513	95.74
312.727	5.63
312.941	-10.75
313.154	79.36
313.368	56.83
313.582	105.98
313.796	30.21
314.009	54.78
314.223	73.21
314.437	-0.51
314.651	46.59
314.864	140.8
315.078	-6.66
315.292	44.54
315.505	110.08
315.719	48.64
315.933	50.69
316.146	54.78
316.36	40.45
316.573	87.55
316.787	1.54
317.001	65.02
317.214	13.82
317.428	22.02
317.641	-10.75
317.855	15.87
318.068	13.82
318.282	-0.51
318.495	128.51
318.709	67.07
318.922	73.21
319.136	65.02
319.349	13.82
319.563	-10.75
319.776	62.98
319.99	48.64
320.203	36.35
320.417	114.17
320.63	-18.94
320.843	67.07
321.057	120.32
321.27	-20.99
321.483	71.17
321.697	118.27
321.91	116.22
322.124	46.59
322.337	13.82
322.55	-0.51
322.763	46.59
322.977	65.02
323.19	48.64
323.403	38.4
323.617	42.5
323.83	99.84
324.043	42.5
324.256	54.78
324.469	40.45
324.683	67.07
324.896	26.11
325.109	62.98
325.322	-41.47
325.535	69.12
325.748	42.5
325.962	62.98
326.175	67.07
326.388	42.5
326.601	62.98
326.814	128.51
327.027	77.31
327.24	38.4
327.453	-49.66
327.666	65.02
327.879	95.74
328.092	30.21
328.305	56.83
328.518	9.73
328.731	13.82
328.944	112.13
329.157	54.78
329.37	95.74
329.583	62.98
329.796	52.74
330.009	48.64
330.222	91.65
330.435	83.45
330.648	22.02
330.861	46.59
331.073	73.21
331.286	15.87
331.499	22.02
331.712	38.4
331.925	-10.75
332.138	22.02
332.35	75.26
332.563	32.26
332.776	26.11
332.989	65.02
333.202	22.02
333.414	13.82
333.627	71.17
333.84	-6.66
334.053	132.61
334.265	103.93
334.478	22.02
334.691	69.12
334.903	22.02
335.116	-8.7
335.329	87.55
335.541	99.84
335.754	103.93
335.966	-8.7
336.179	38.4
336.392	46.59
336.604	48.64
336.817	75.26
337.029	30.21
337.242	-23.04
337.454	81.41
337.667	-37.38
337.88	56.83
338.092	97.79
338.305	73.21
338.517	-0.51
338.729	30.21
338.942	62.98
339.154	-0.51
339.367	112.13
339.579	-33.28
339.792	22.02
340.004	120.32
340.217	93.69
340.429	58.88
340.641	81.41
340.854	60.93
341.066	-0.51
341.278	189.95
341.491	15.87
341.703	128.51
341.915	58.88
342.128	48.64
342.34	-0.51
342.552	32.26
342.764	54.78
342.977	85.5
343.189	65.02
343.401	138.75
343.613	38.4
343.826	73.21
344.038	-66.05
344.25	95.74
344.462	9.73
344.674	40.45
344.886	54.78
345.099	71.17
345.311	-0.51
345.523	5.63
345.735	-53.76
345.947	-57.86
346.159	87.55
346.371	52.74
346.583	79.36
346.795	118.27
347.007	73.21
347.219	73.21
347.431	48.64
347.643	91.65
347.855	-45.57
348.067	116.22
348.279	17.92
348.491	81.41
348.703	60.93
348.915	7.68
349.127	46.59
349.339	28.16
349.551	112.13
349.763	101.89
349.975	46.59
350.187	50.69
350.399	91.65
350.61	73.21
350.822	30.21
351.034	91.65
351.246	108.03
351.458	103.93
351.669	128.51
351.881	58.88
352.093	56.83
352.305	103.93
352.517	87.55
352.728	46.59
352.94	132.61
353.152	124.41
353.363	24.06
353.575	77.31
353.787	81.41
353.999	-12.8
354.21	103.93
354.422	83.45
354.633	-0.51
354.845	40.45
355.057	40.45
355.268	56.83
355.48	79.36
355.692	28.16
355.903	73.21
356.115	48.64
356.326	38.4
356.538	103.93
356.749	38.4
356.961	95.74
357.172	44.54
357.384	34.3
357.595	62.98
357.807	-31.23
358.018	7.68
358.23	-41.47
358.441	136.7
358.653	62.98
358.864	81.41
359.075	103.93
359.287	52.74
359.498	79.36
359.709	30.21
359.921	28.16
360.132	67.07
360.344	56.83
360.555	32.26
360.766	114.17
360.977	83.45
361.189	38.4
361.4	13.82
361.611	103.93
361.823	112.13
362.034	38.4
362.245	17.92
362.456	56.83
362.667	151.04
362.879	24.06
363.09	60.93
363.301	91.65
363.512	173.57
363.723	7.68
363.935	48.64
364.146	132.61
364.357	58.88
364.568	87.55
364.779	95.74
364.99	124.41
365.201	38.4
365.412	52.74
365.623	-27.14
365.834	30.21
366.045	1.54
366.256	17.92
366.467	71.17
366.678	40.45
366.889	89.6
367.1	56.83
367.311	48.64
367.522	62.98
367.733	-10.75
367.944	97.79
368.155	26.11
368.366	62.98
368.577	11.78
368.788	54.78
368.999	71.17
369.209	71.17
369.42	140.8
369.631	128.51
369.842	13.82
370.053	48.64
370.264	71.17
370.474	77.31
370.685	114.17
370.896	-4.61
371.107	202.24
371.317	79.36
371.528	103.93
371.739	42.5
371.95	50.69
372.16	91.65
372.371	-31.23
372.582	19.97
372.792	-20.99
373.003	116.22
373.214	62.98
373.424	62.98
373.635	54.78
373.846	50.69
374.056	58.88
374.267	46.59
374.477	83.45
374.688	73.21
374.898	30.21
375.109	42.5
375.319	95.74
375.53	89.6
375.74	79.36
375.951	48.64
376.161	99.84
376.372	54.78
376.582	24.06
376.793	99.84
377.003	7.68
377.214	114.17
377.424	97.79
377.635	87.55
377.845	75.26
378.055	136.7
378.266	65.02
378.476	71.17
378.686	124.41
378.897	52.74
379.107	24.06
379.317	144.89
379.528	77.31
379.738	99.84
379.948	-4.61
380.158	112.13
380.369	75.26
380.579	85.5
380.789	65.02
380.999	114.17
381.21	87.55
381.42	54.78
381.63	13.82
381.84	58.88
382.05	9.73
382.261	62.98
382.471	50.69
382.681	69.12
382.891	79.36
383.101	105.98
383.311	15.87
383.521	22.02
383.731	46.59
383.941	62.98
384.151	38.4
384.361	13.82
384.571	48.64
384.781	71.17
384.991	99.84
385.201	71.17
385.411	36.35
385.621	97.79
385.831	87.55
386.041	46.59
386.251	56.83
386.461	48.64
386.671	69.12
386.881	67.07
387.091	-14.85
387.301	128.51
387.511	44.54
387.72	130.56
387.93	85.5
388.14	7.68
388.35	54.78
388.56	95.74
388.769	148.99
388.979	67.07
389.189	52.74
389.399	56.83
389.609	116.22
389.818	169.47
390.028	46.59
390.238	52.74
390.447	28.16
390.657	151.04
390.867	71.17
391.076	54.78
391.286	48.64
391.496	83.45
391.705	85.5
391.915	114.17
392.125	165.37
392.334	153.09
392.544	79.36
392.753	120.32
392.963	32.26
393.172	79.36
393.382	65.02
393.591	151.04
393.801	71.17
394.01	79.36
394.22	144.89
394.429	120.32
394.639	32.26
394.848	110.08
395.058	114.17
395.267	128.51
395.477	54.78
395.686	87.55
395.895	105.98
396.105	161.28
396.314	163.33
396.524	87.55
396.733	130.56
396.942	128.51
397.152	103.93
397.361	95.74
397.57	38.4
397.78	161.28
397.989	136.7
398.198	124.41
398.407	60.93
398.617	103.93
398.826	79.36
399.035	146.94
399.244	87.55
399.453	73.21
399.663	165.37
399.872	69.12
400.081	110.08
400.29	140.8
400.499	116.22
400.708	146.94
400.917	103.93
401.127	108.03
401.336	95.74
401.545	200.19
401.754	73.21
401.963	120.32
402.172	85.5
402.381	83.45
402.59	148.99
402.799	138.75
403.008	105.98
403.217	75.26
403.426	101.89
403.635	54.78
403.844	126.46
404.053	218.62
404.262	99.84
404.471	235
404.68	108.03
404.888	237.05
405.097	112.13
405.306	103.93
405.515	251.39
405.724	187.9
405.933	187.9
406.142	218.62
406.35	210.43
406.559	235
406.768	284.16
406.977	333.31
407.185	220.67
407.394	280.06
407.603	226.81
407.812	232.96
408.02	292.35
408.229	177.66
408.438	212.48
408.646	208.38
408.855	257.53
409.064	275.96
409.272	230.91
409.481	275.96
409.69	312.83
409.898	341.5
410.107	292.35
410.315	376.31
410.524	189.95
410.733	398.84
410.941	343.55
411.15	454.14
411.358	337.4
411.567	505.34
411.775	507.38
411.984	386.55
412.192	431.61
412.401	394.75
412.609	499.19
412.818	620.02
413.026	505.34
413.234	546.3
413.443	617.97
413.651	611.83
413.86	632.31
414.068	624.12
414.276	597.49
414.485	601.59
414.693	697.85
414.901	767.48
415.11	763.38
415.318	726.52
415.526	751.09
415.734	679.41
415.943	828.92
416.151	927.22
416.359	812.53
416.567	892.4
416.776	935.41
416.984	974.32
417.192	1115.63
417.4	935.41
417.608	1052.14
417.817	1050.1
418.025	1168.88
418.233	1187.31
418.441	1056.24
418.649	1209.84
418.857	1373.68
419.065	1347.05
419.273	1355.24
419.481	1422.83
419.689	1467.88
419.897	1553.9
420.105	1426.92
420.313	1521.13
420.521	1633.77
420.729	1725.93
420.937	1541.61
421.145	1687.01
421.353	1945.06
421.561	2119.14
421.769	1983.97
421.977	2022.88
422.185	2106.85
422.393	2272.73
422.601	2223.58
422.809	2291.17
423.017	2196.96
423.224	2389.47
423.432	2495.96
423.64	2450.91
423.848	2782.68
424.056	2618.84
424.263	2891.22
424.471	2860.5
424.679	2979.28
424.887	3079.63
425.094	3212.75
425.302	3249.61
425.51	3452.36
425.718	3263.95
425.925	3470.8
426.133	3540.43
426.341	3847.62
426.548	3923.4
426.756	3859.91
426.964	3913.16
427.171	4160.96
427.379	4206.02
427.586	4396.48
427.794	4320.7
428.001	4601.27
428.209	4855.22
428.417	4906.42
428.624	5160.37
428.832	5070.26
429.039	5158.32
429.247	5141.94
429.454	5666.22
429.662	5977.51
429.869	5731.75
430.076	6038.95
430.284	5762.47
430.491	5959.08
430.699	6444.45
430.906	6499.74
431.114	6534.56
431.321	6686.11
431.528	7191.95
431.736	7232.91
431.943	7751.05
432.15	7415.18
432.358	7443.85
432.565	7921.03
432.772	7789.96
432.979	8254.85
433.187	8312.19
433.394	8615.29
433.601	9123.19
433.808	8992.12
434.016	8838.52
434.223	9467.25
434.43	9903.46
434.637	9719.15
434.844	10558.81
435.052	10739.04
435.259	10302.82
435.466	10532.19
435.673	10376.55
435.88	11132.25
436.087	11793.74
436.294	11734.35
436.501	11326.8
436.708	11449.68
436.915	12227.91
437.122	12549.44
437.329	12713.28
437.537	12825.92
437.743	12963.13
437.95	13311.28
438.157	13897
438.364	14210.34
438.571	14169.38
438.778	14064.94
438.985	15430.93
439.192	14841.12
439.399	15586.58
439.606	15115.55
439.813	15850.77
440.02	17083.64
440.227	16432.39
440.433	16471.3
440.64	16985.34
440.847	16727.3
441.054	17196.28
441.261	18519.27
441.467	18058.48
441.674	18509.03
441.881	19059.93
442.088	19225.82
442.294	19014.88
442.501	19274.97
442.708	19674.32
442.914	20505.8
443.121	21370.04
443.328	20827.33
443.534	22238.38
443.741	21877.94
443.948	21355.71
444.154	23102.62
444.361	22654.12
444.568	22820
444.774	22901.92
444.981	23137.44
445.187	23590.04
445.394	24589.45
445.6	24325.26
445.807	26688.62
446.013	25894
446.22	26248.3
446.426	27012.2
446.633	27413.6
446.839	28413.01
447.046	27014.24
447.252	28566.6
447.459	28626
447.665	28832.84
447.871	30217.27
448.078	31589.41
448.284	29643.84
448.491	30581.81
448.697	32033.82
448.903	32334.87
449.11	32095.25
449.316	31671.32
449.522	32334.87
449.728	33002.5
449.935	33694.72
450.141	33348.61
450.347	33874.94
450.553	33696.77
450.76	33281.03
450.966	34767.85
451.172	34413.55
451.378	35398.63
451.584	34655.22
451.791	35337.19
451.997	35275.75
452.203	35945.44
452.409	36377.56
452.615	35584.99
452.821	34745.33
453.027	34307.06
453.233	35914.72
453.44	34810.86
453.646	35251.17
453.852	35036.14
454.058	35761.12
454.264	34857.96
454.47	35498.98
454.676	34925.55
454.882	36023.26
455.088	32973.83
455.294	33326.08
455.5	33821.69
455.705	34069.5
455.911	32699.41
456.117	32087.06
456.323	31503.39
456.529	30276.66
456.735	31345.7
456.941	30602.29
457.147	30381.1
457.352	29174.85
457.558	28632.14
457.764	29072.45
457.97	28466.25
458.176	28243.03
458.381	27868.25
458.587	26674.28
458.793	26750.06
458.999	25394.3
459.204	27307.1
459.41	26285.17
459.616	24642.7
459.821	24650.89
460.027	24571.02
460.233	23905.43
460.438	22809.76
460.644	23221.41
460.85	22103.21
461.055	21863.6
461.261	21679.29
461.466	19969.23
461.672	19539.16
461.878	21077.18
462.083	19363.03
462.289	19031.26
462.494	18812.13
462.7	18081
462.905	17900.78
463.111	18228.46
463.316	18128.11
463.522	17853.68
463.727	18021.61
463.932	17857.78
464.138	17646.83
464.343	17769.71
464.549	17609.97
464.754	17630.45
464.959	17544.44
465.165	17599.73
465.37	16553.22
465.575	16246.02
465.781	17009.92
465.986	17155.32
466.191	16569.6
466.397	16225.54
466.602	15234.33
466.807	15959.31
467.012	16192.78
467.218	15650.07
467.423	15465.75
467.628	15701.26
467.833	16536.84
468.038	15566.1
468.244	15340.82
468.449	15883.53
468.654	15209.75
468.859	15367.45
469.064	15301.91
469.269	14621.98
469.474	14867.74
469.679	15090.97
469.885	14662.94
470.09	14726.43
470.295	14849.31
470.5	14320.93
470.705	14329.13
470.91	14036.27
471.115	13724.97
471.32	14409
471.525	14392.61
471.73	13727.02
471.935	13747.5
472.139	13106.49
472.344	13317.43
472.549	13417.78
472.754	13241.65
472.959	13165.88
473.164	12592.45
473.369	12528.96
473.574	12817.72
473.778	12774.72
473.983	12647.74
474.188	12662.08
474.393	12180.81
474.598	12172.61
474.802	12209.48
475.007	11918.67
475.212	12064.07
475.417	11378
475.621	11593.04
475.826	11771.21
476.031	11441.49
476.235	11255.12
476.44	11122.01
476.645	11033.94
476.849	11185.49
477.054	10982.74
477.259	10655.07
477.463	10872.15
477.668	10771.8
477.872	10659.17
478.077	10433.89
478.282	10147.17
478.486	10077.54
478.691	10089.83
478.895	10122.6
479.1	10059.11
479.304	10032.49
479.509	9921.9
479.713	9975.14
479.918	9833.83
480.122	9393.52
480.326	9786.73
480.531	9737.58
480.735	9493.87
480.94	9516.4
481.144	9848.17
481.348	9356.66
481.553	9368.95
481.757	9178.48
481.961	9364.85
482.166	9332.08
482.37	9557.36
482.574	9170.29
482.778	9330.03
482.983	9475.44
483.187	9407.86
483.391	9403.76
483.595	9254.26
483.8	8936.82
484.004	9192.82
484.208	9526.64
484.412	9153.91
484.616	9313.65
484.821	9188.72
485.025	8920.44
485.229	9295.22
485.433	9170.29
485.637	9158
485.841	9131.38
486.045	9241.97
486.249	9207.16
486.453	9115
486.657	9106.81
486.861	9315.7
487.065	9024.89
487.269	9209.2
487.473	9151.86
487.677	9223.54
487.881	9254.26
488.085	9258.35
488.289	9262.45
488.493	9299.31
488.697	9270.64
488.901	9377.14
489.105	9295.22
489.309	9518.45
489.512	9434.48
489.716	9383.28
489.92	9430.38
490.124	9424.24
490.328	9401.71
490.531	9137.52
490.735	9549.17
490.939	9358.71
491.143	9481.58
491.346	9377.14
491.55	9536.88
491.754	9729.39
491.958	9708.91
492.161	9526.64
492.365	9747.82
492.569	9663.85
492.772	9864.55
492.976	9950.57
493.18	9719.15
493.383	10132.84
493.587	9975.14
493.79	10155.37
493.994	9983.34
494.197	10315.11
494.401	10239.33
494.605	10300.77
494.808	10204.52
495.012	10478.94
495.215	10354.02
495.419	10712.41
495.622	10542.43
495.825	10685.79
496.029	10616.16
496.232	10995.03
496.436	10716.51
496.639	11134.29
496.843	11007.32
497.046	11144.53
497.249	11412.82
497.453	11312.47
497.656	11466.07
497.859	11533.65
498.063	11672.91
498.266	11918.67
498.469	11867.47
498.673	12115.27
498.876	12080.46
499.079	12328.26
499.282	12350.79
499.485	12625.22
499.689	12574.02
499.892	12795.2
500.095	12938.55
500.298	13022.52
500.501	12940.6
500.705	13290.81
500.908	13598
501.111	13649.2
501.314	13806.89
501.517	13989.16
501.72	14023.98
501.923	13991.21
502.126	14423.33
502.329	14701.86
502.532	14443.81
502.735	14765.34
502.938	14816.54
503.141	14955.8
503.344	15318.29
503.547	15240.47
503.75	15553.81
503.953	15734.03
504.156	15973.64
504.359	15770.9
504.562	16096.52
504.765	16377.09
504.968	16696.58
505.17	16647.43
505.373	16872.7
505.576	17020.16
505.779	17376.5
505.982	17360.12
506.185	17857.78
506.387	17855.73
506.59	17919.21
506.793	18281.71
506.996	18095.34
507.198	18648.29
507.401	18380.01
507.604	18769.12
507.807	19285.21
508.009	18971.87
508.212	19750.1
508.415	19793.11
508.617	19915.98
508.82	19985.62
509.022	19782.87
509.225	20438.22
509.428	20389.06
509.63	20563.14
509.833	20681.92
510.035	21480.63
510.238	21390.52
510.44	21480.63
510.643	21894.32
510.845	22101.17
511.048	21834.93
511.25	22275.24
511.453	22097.07
511.655	22856.87
511.858	23180.45
512.06	23342.24
512.262	23211.17
512.465	23499.93
512.667	23645.34
512.87	23872.66
513.072	24126.61
513.274	24517.77
513.477	24390.8
513.679	24878.21
513.881	24915.08
514.084	25588.86
514.286	25820.28
514.488	25615.48
514.69	26088.56
514.893	26061.94
515.095	26248.3
515.297	26936.42
515.499	26936.42
515.701	27178.08
515.904	27411.55
516.106	27360.35
516.308	27632.73
516.51	28003.41
516.712	27771.99
516.914	28392.53
517.116	28687.43
517.318	28468.3
517.52	29156.42
517.722	29158.47
517.925	29695.03
518.127	30080.05
518.329	30057.53
518.531	29934.65
518.733	30704.68
518.935	30964.78
519.136	30952.49
519.338	31345.7
519.54	31421.47
519.742	31640.61
519.944	31986.71
520.146	32285.72
520.348	32494.61
520.55	32705.55
520.752	32498.7
520.954	33373.19
521.155	32986.12
521.357	33809.4
521.559	33709.05
521.761	33965.05
521.963	34096.12
522.164	34020.34
522.366	34604.02
522.568	34687.98
522.77	35204.07
522.971	35763.17
523.173	35253.22
523.375	35789.79
523.576	35781.6
523.778	35736.54
523.98	35705.82
524.181	36303.83
524.383	36219.86
524.584	36805.58
524.786	36617.17
524.988	36760.53
525.189	37075.91
525.391	37479.36
525.592	37479.36
525.794	37665.73
525.995	37766.08
526.197	37557.19
526.398	37745.6
526.6	38132.67
526.801	38181.82
527.003	38224.82
527.204	38599.6
527.406	38890.41
527.607	38818.74
527.808	39209.9
528.01	38304.7
528.211	38882.22
528.412	39660.45
528.614	39508.9
528.815	39240.62
529.016	39553.96
529.218	39136.17
529.419	39818.14
529.62	39693.22
529.822	39476.13
530.023	39680.93
530.224	39936.93
530.425	39205.8
530.626	39738.27
530.828	39633.83
531.029	40123.29
531.23	39846.82
531.431	39699.36
531.632	40045.47
531.833	40344.47
532.035	39895.97
532.236	40022.94
532.437	40096.67
532.638	39891.87
532.839	40397.72
533.04	40383.38
533.241	39820.19
533.442	41075.6
533.643	40358.81
533.844	40551.32
534.045	40481.69
534.246	40059.8
534.447	40747.92
534.648	40463.25
534.849	40287.13
535.05	39973.79
535.251	40276.89
535.451	40274.84
535.652	40532.89
535.853	40240.03
536.054	40356.76
536.255	40569.75
536.456	40350.62
536.657	40680.34
536.857	40702.87
537.058	40496.02
537.259	40721.3
537.46	40389.53
537.66	39996.32
537.861	40252.31
538.062	40450.97
538.263	40850.32
538.463	40225.69
538.664	40121.24
538.865	40592.28
539.065	40582.04
539.266	40020.89
539.466	40590.23
539.667	40149.92
539.868	40620.95
540.068	40096.67
540.269	40543.13
540.469	40500.12
540.67	40354.71
540.87	40227.74
541.071	40489.88
541.271	40145.82
541.472	40362.9
541.672	40178.59
541.873	40090.52
542.073	39666.59
542.274	40272.79
542.474	40278.94
542.675	39922.59
542.875	40199.07
543.075	40418.2
543.276	39611.3
543.476	40303.51
543.676	40037.28
543.877	40321.94
544.077	39680.93
544.277	39914.4
544.478	39818.14
544.678	40221.59
544.878	40264.6
545.078	39840.67
545.279	39848.86
545.479	40035.23
545.679	40225.69
545.879	39867.3
546.079	39652.26
546.28	39611.3
546.48	39527.33
546.68	40074.14
546.88	39918.49
547.08	39807.9
547.28	39898.02
547.48	39211.95
547.68	39773.09
547.88	39117.74
548.081	39959.45
548.281	39631.78
548.481	39682.98
548.681	39797.66
548.881	39510.95
549.081	39775.14
549.28	39513
549.48	39590.82
549.68	39592.87
549.88	40037.28
550.08	39351.21
550.28	39668.64
550.48	39603.11
550.68	39699.36
550.88	39406.5
551.08	39404.45
551.279	39852.96
551.479	39439.27
551.679	39529.38
551.879	39418.79
552.079	39685.03
552.278	39046.06
552.478	39623.59
552.678	39660.45
552.878	39369.64
553.077	39635.88
553.277	38970.29
553.477	39289.77
553.676	39488.42
553.876	39037.87
554.076	39316.39
554.275	38986.67
554.475	38790.06
554.674	38937.52
554.874	39213.99
555.074	38695.86
555.273	38931.37
555.473	39213.99
555.672	38869.93
555.872	38634.42
556.071	39142.31
556.271	39052.2
556.47	38407.09
556.67	38452.15
556.869	39107.5
557.068	38669.23
557.268	38351.8
557.467	38581.17
557.667	38359.99
557.866	38695.86
558.065	38316.98
558.265	38181.82
558.464	38407.09
558.663	38618.03
558.863	37925.82
559.062	38450.1
559.261	38003.64
559.461	38419.38
559.66	38192.06
559.859	38038.46
560.058	37942.21
560.258	38474.68
560.457	37620.67
560.656	37809.09
560.855	38030.27
561.054	37946.3
561.253	37743.55
561.453	37966.78
561.652	37505.99
561.851	37901.25
562.05	37462.98
562.249	37344.2
562.448	37725.12
562.647	37180.36
562.846	37450.69
563.045	37346.25
563.244	36910.03
563.443	37536.71
563.642	36729.81
563.841	37096.39
564.04	37057.48
564.239	37604.29
564.438	36699.09
564.637	37174.22
564.836	37192.65
565.035	36672.46
565.234	36891.6
565.432	36406.23
565.631	36463.57
565.83	36539.35
566.029	36578.26
566.228	36465.62
566.427	36674.51
566.625	36248.53
566.824	35879.9
567.023	36389.84
567.222	35496.93
567.42	36107.23
567.619	36113.37
567.818	35906.52
568.016	35734.49
568.215	35793.89
568.414	35564.51
568.612	35642.34
568.811	35152.87
569.01	35447.78
569.208	34980.84
569.407	35351.52
569.605	35058.67
569.804	35587.04
570.002	34939.88
570.201	35066.86
570.4	34745.33
570.598	35122.15
570.797	34730.99
570.995	35267.56
571.193	34536.43
571.392	34696.17
571.59	34298.87
571.789	34704.37
571.987	34370.55
572.186	34178.04
572.384	34335.73
572.582	34477.04
572.781	34305.01
572.979	33735.68
573.177	33772.54
573.376	34200.57
573.574	33674.24
573.772	33848.32
573.971	33790.97
574.169	33451.01
574.367	33405.95
574.565	33305.6
574.763	33426.43
574.962	33291.27
575.16	32779.28
575.358	33195.01
575.556	32762.89
575.754	33408
575.952	32756.75
576.151	33367.04
576.349	32504.85
576.547	32814.09
576.745	32726.03
576.943	32826.38
577.141	32486.42
577.339	32660.49
577.537	32136.21
577.735	32504.85
577.933	32146.45
578.131	32410.64
578.329	31931.42
578.527	31634.46
578.725	32019.48
578.923	31974.42
579.121	31636.51
579.319	31423.52
579.516	31898.65
579.714	31487.01
579.912	31362.08
580.11	31413.28
580.308	31466.53
580.506	31071.27
580.704	30714.92
580.901	30874.66
581.099	31325.22
581.297	30913.58
581.495	30710.83
581.692	30981.16
581.89	30622.76
582.088	30917.67
582.285	30655.53
582.483	30608.43
582.681	30354.48
582.878	30458.93
583.076	30293.04
583.274	30481.45
583.471	29858.87
583.669	30045.24
583.866	30182.45
584.064	30211.12
584.262	29631.55
584.459	29946.94
584.657	29658.17
584.854	29961.27
585.052	29434.94
585.249	29600.83
585.447	29412.42
585.644	28900.42
585.841	29123.65
586.039	29633.6
586.236	29199.43
586.434	28836.94
586.631	28922.95
586.828	29047.88
587.026	29076.55
587.223	28894.28
587.42	28611.66
587.618	28312.66
587.815	28320.85
588.012	28286.03
588.21	28283.98
588.407	28531.79
588.604	28277.84
588.801	27898.97
588.999	28161.11
589.196	28146.77
589.393	27964.5
589.59	27843.67
589.787	27698.27
589.984	27432.03
590.182	27458.65
590.379	27528.28
590.576	26973.28
590.773	27100.26
590.97	27208.8
591.167	27284.58
591.364	26870.89
591.561	27255.9
591.758	26860.65
591.955	26752.1
592.152	27206.75
592.349	26483.82
592.546	26506.35
592.743	26502.25
592.94	26102.9
593.137	26541.16
593.334	26455.15
593.531	25904.24
593.727	26246.26
593.924	26162.29
594.121	26084.47
594.318	26080.37
594.515	25824.37
594.712	26045.55
594.908	26031.22
595.105	25748.6
595.302	25287.81
595.499	25472.12
595.696	25357.44
595.892	25132.16
596.089	25502.84
596.286	25664.63
596.482	25326.72
596.679	25226.37
596.876	25289.85
597.072	25273.47
597.269	24968.32
597.466	24536.2
597.662	24700.04
597.859	24898.69
598.055	24839.3
598.252	24427.66
598.448	24544.39
598.645	24370.32
598.841	24097.94
599.038	24216.72
599.234	24120.46
599.431	23993.49
599.627	24310.93
599.824	24054.93
600.02	23983.25
600.217	24102.03
600.413	23895.19
600.609	23702.68
600.806	23583.9
601.002	23628.95
601.198	23430.3
601.395	23557.27
601.591	23428.25
601.787	23372.96
601.984	23258.27
602.18	23659.67
602.376	23313.56
602.572	22994.08
602.769	22820
602.965	22752.42
603.161	23002.27
603.357	22680.74
603.553	22860.96
603.75	22967.46
603.946	22424.75
604.142	22559.91
604.338	22205.61
604.534	22539.43
604.73	22052.02
604.926	22226.09
605.122	22500.52
605.318	22211.76
605.514	22140.08
605.71	21757.11
605.906	21953.71
606.102	21716.15
606.298	21929.14
606.494	21863.6
606.69	21769.4
606.886	21804.21
607.082	21347.51
607.278	21449.91
607.474	21365.95
607.67	21497.02
607.866	21136.57
608.062	21546.17
608.257	21386.43
608.453	21126.33
608.649	21159.1
608.845	20999.36
609.041	21189.82
609.236	21173.44
609.432	21128.38
609.628	21025.98
609.824	21081.28
610.019	20995.26
610.215	20856
610.411	20909.25
610.606	20786.37
610.802	20835.52
610.998	20841.67
611.193	20585.67
611.389	20540.61
611.584	20579.53
611.78	20681.92
611.976	20430.02
612.171	20501.7
612.367	20257.99
612.562	20327.63
612.758	20208.84
612.953	20145.36
613.149	20212.94
613.344	20348.11
613.539	20411.59
613.735	20174.03
613.93	20284.62
614.126	19877.07
614.321	20186.32
614.517	19887.31
614.712	20071.63
614.907	19952.85
615.103	19924.18
615.298	19870.93
615.493	20042.96
615.688	19559.64
615.884	20051.15
616.079	19569.88
616.274	19797.2
616.47	19584.21
616.665	19666.13
616.86	19457.24
617.055	19596.5
617.25	19397.85
617.445	19354.84
617.641	19176.67
617.836	19236.06
618.031	18842.85
618.226	19088.6
618.421	19043.55
618.616	19143.9
618.811	18953.44
619.006	19137.76
619.201	18713.83
619.396	18887.9
619.591	18490.6
619.786	18918.62
619.981	18474.21
620.176	18646.24
620.371	18296.04
620.566	18314.47
620.761	18081
620.956	18398.44
621.151	17984.75
621.346	18302.18
621.541	17661.17
621.735	18152.68
621.93	17593.59
622.125	17835.25
622.32	17388.79
622.515	17734.9
622.709	17620.21
622.904	17534.2
623.099	17390.84
623.294	17495.29
623.488	17077.5
623.683	16872.7
623.878	17007.87
624.072	16999.68
624.267	16856.32
624.462	16540.93
624.656	16868.61
624.851	16706.82
625.046	16366.85
625.24	16514.31
625.435	16403.72
625.629	16338.18
625.824	16284.94
626.018	16012.56
626.213	15848.72
626.407	15918.35
626.602	15990.03
626.796	15809.81
626.991	15523.09
627.185	15613.2
627.38	15521.04
627.574	15119.64
627.768	15279.38
627.963	15144.22
628.157	15244.57
628.352	14798.11
628.546	14740.77
628.74	15133.98
628.935	14669.09
629.129	14974.24
629.323	14558.5
629.517	14435.62
629.712	14296.36
629.906	14581.03
630.1	14021.93
630.294	14331.17
630.489	14187.82
630.683	14304.55
630.877	13952.3
631.071	13829.42
631.265	13944.11
631.459	13626.67
631.653	13577.52
631.848	13722.93
632.042	13622.58
632.236	13778.22
632.43	13368.63
632.624	13438.26
632.818	13260.09
633.012	13094.2
633.206	12999.99
633.4	13548.85
633.594	12889.4
633.788	12928.31
633.982	13112.63
634.176	12918.07
634.369	12866.88
634.563	12655.93
634.757	12535.1
634.951	12580.16
635.145	12621.12
635.339	12602.69
635.533	12424.51
635.726	12426.56
635.92	12387.65
636.114	12236.1
636.308	12080.46
636.501	12234.05
636.695	12070.22
636.889	11941.19
637.083	11889.99
637.276	11935.05
637.47	11687.25
637.664	11709.77
637.857	11949.39
638.051	11787.6
638.244	11427.15
638.438	11431.25
638.632	11267.41
638.825	11310.42
639.019	11363.67
639.212	11335
639.406	11199.83
639.599	10943.83
639.793	10976.6
639.986	10921.31
640.18	10999.13
640.373	10841.43
640.567	10837.34
640.76	10726.75
640.954	10810.72
641.147	10884.44
641.34	10562.91
641.534	10761.56
641.727	10610.01
641.92	10583.39
642.114	10220.9
642.307	10489.18
642.5	10392.93
642.694	10141.03
642.887	9983.34
643.08	10196.32
643.273	10118.5
643.467	9882.99
643.66	9882.99
643.853	9844.07
644.046	9563.5
644.239	9792.87
644.432	9741.68
644.626	9686.38
644.819	9622.89
645.012	9485.68
645.205	9827.69
645.398	9583.98
645.591	9672.04
645.784	9434.48
645.977	9268.59
646.17	9426.29
646.363	9282.93
646.556	9215.35
646.749	9018.74
646.942	9084.28
647.135	9223.54
647.328	9010.55
647.521	9076.09
647.714	8924.54
647.907	9063.8
648.099	8869.24
648.292	8926.58
648.485	8787.32
648.678	8729.98
648.871	8623.48
649.064	8568.19
649.256	8713.6
649.449	8326.53
649.642	8428.93
649.835	8334.72
650.027	8451.46
650.22	8310.15
650.413	8463.74
650.605	8336.77
650.798	8193.41
650.991	8084.87
651.183	8187.27
651.376	8174.98
651.568	8213.89
651.761	8183.17
651.954	8033.67
652.146	8052.1
652.339	7810.44
652.531	7925.13
652.724	7640.46
652.916	7783.82
653.109	7779.72
653.301	7740.81
653.494	7718.28
653.686	7460.24
653.879	7714.19
654.071	7529.87
654.263	7431.57
654.456	7347.6
654.648	7566.73
654.84	7288.21
655.033	7257.49
655.225	7208.34
655.417	7239.06
655.61	7194
655.802	7138.71
655.994	7083.41
656.186	7263.63
656.379	7028.12
656.571	7058.84
656.763	7105.94
656.955	6952.34
657.148	6995.35
657.34	7036.31
657.532	6913.43
657.724	6811.03
657.916	6796.7
658.108	6862.23
658.3	6725.02
658.492	6677.91
658.684	6632.86
658.876	6618.52
659.068	6647.19
659.26	6546.84
659.452	6743.45
659.644	6567.32
659.836	6610.33
660.028	6440.35
660.22	6313.38
660.412	6407.58
660.604	6327.71
660.796	6247.84
660.988	6280.61
661.18	6219.17
661.372	6143.39
661.563	6200.74
661.755	6049.19
661.947	6147.49
662.139	5916.07
662.331	5985.7
662.522	5944.74
662.714	5911.97
662.906	5838.25
663.097	6004.13
663.289	5983.65
663.481	5670.31
663.673	5854.63
663.864	5633.45
664.056	5846.44
664.247	5748.14
664.439	5651.88
664.631	5760.42
664.822	5813.67
665.014	5592.49
665.205	5606.83
665.397	5359.02
665.588	5655.98
665.78	5428.65
665.971	5442.99
666.163	5533.1
666.354	5348.78
666.546	5322.16
666.737	5461.42
666.929	5367.21
667.12	5430.7
667.311	5326.25
667.503	5225.9
667.694	5252.53
667.885	5225.9
668.077	5160.37
668.268	5125.55
668.459	4980.15
668.651	5098.93
668.842	5143.99
669.033	5100.98
669.224	5039.54
669.416	5103.03
669.607	4980.15
669.798	5002.68
669.989	5166.51
670.18	5027.25
670.371	4881.85
670.563	4920.76
670.754	5004.72
670.945	4955.57
671.136	4920.76
671.327	4728.25
671.518	4855.22
671.709	4849.08
671.9	5033.4
672.091	4715.96
672.282	4818.36
672.473	4683.19
672.664	4695.48
672.855	4666.81
673.046	4687.29
673.237	4734.39
673.428	4668.86
673.619	4609.47
673.809	4482.49
674	4574.65
674.191	4525.5
674.382	4570.55
674.573	4670.9
674.764	4470.2
674.954	4488.64
675.145	4433.34
675.336	4486.59
675.527	4529.59
675.717	4408.76
675.908	4431.29
676.099	4365.76
676.289	4339.13
676.48	4373.95
676.671	4400.57
676.861	4437.44
677.052	4490.68
677.243	4277.69
677.433	4249.02
677.624	4445.63
677.814	4271.55
678.005	4324.8
678.195	4232.64
678.386	4275.65
678.576	4269.5
678.767	4287.93
678.957	4167.1
679.148	4177.34
679.338	4175.3
679.529	4201.92
679.719	4109.76
679.909	4240.83
680.1	4210.11
680.29	4091.33
680.481	4148.67
680.671	3954.12
680.861	4062.66
681.052	4134.34
681.242	4046.27
681.432	4136.38
681.622	4046.27
681.813	4122.05
682.003	3990.98
682.193	4001.22
682.383	4083.14
682.573	4093.38
682.764	3818.95
682.954	4013.51
683.144	4013.51
683.334	3909.06
683.524	4052.42
683.714	4111.81
683.904	3868.1
684.094	3919.3
684.284	3966.4
684.474	3997.12
684.664	4013.51
684.854	3962.31
685.044	3911.11
685.234	3872.2
685.424	3839.43
685.614	3945.92
685.804	3843.53
685.994	3759.56
686.184	3792.33
686.374	3861.96
686.564	3777.99
686.753	3898.82
686.943	3759.56
687.133	3745.22
687.323	3745.22
687.513	3720.65
687.702	3767.75
687.892	3569.1
688.082	3585.48
688.272	3554.76
688.461	3528.14
688.651	3671.5
688.841	3532.23
689.03	3691.98
689.22	3507.66
689.41	3601.87
689.599	3524.04
689.789	3515.85
689.979	3450.32
690.168	3560.91
690.358	3438.03
690.547	3343.82
690.737	3427.79
690.926	3405.26
691.116	3358.16
691.305	3546.57
691.495	3458.51
691.684	3331.53
691.874	3302.86
692.063	3227.09
692.252	3300.81
692.442	3323.34
692.631	3259.85
692.82	3280.33
693.01	3352.01
693.199	3247.57
693.388	3143.12
693.578	3227.09
693.767	3145.17
693.956	3077.59
694.146	3186.13
694.335	3159.5
694.524	3120.59
694.713	3163.6
694.902	3112.4
695.092	3126.74
695.281	3063.25
695.47	3057.11
695.659	3055.06
695.848	3163.6
696.037	2893.27
696.226	3104.21
696.415	2921.94
696.604	3001.81
696.793	2921.94
696.982	2926.04
697.171	2923.99
697.36	3065.3
697.549	3093.97
697.738	3012.05
697.927	2856.4
698.116	2786.77
698.305	2840.02
698.494	2915.8
698.683	2856.4
698.872	2983.38
699.061	2848.21
699.25	2911.7
699.438	2995.67
699.627	2969.04
699.816	2940.37
700.005	2786.77
700.193	2917.84
700.382	2940.37
700.571	2823.64
700.76	2751.96
700.948	2876.88
701.137	2684.38
701.326	2864.6
701.514	2713.05
701.703	2762.2
701.892	2737.62
702.08	2719.19
702.269	2803.16
702.457	2690.52
702.646	2776.53
702.834	2760.15
703.023	2704.85
703.212	2805.21
703.4	2760.15
703.589	2696.66
703.777	2743.77
703.965	2661.85
704.154	2850.26
704.342	2659.8
704.531	2713.05
704.719	2700.76
704.907	2563.54
705.096	2717.14
705.284	2792.92
705.472	2647.51
705.661	2567.64
705.849	2594.26
706.037	2545.11
706.226	2649.56
706.414	2491.87
706.602	2602.46
706.79	2610.65
706.979	2653.66
707.167	2690.52
707.355	2614.74
707.543	2532.83
707.731	2807.25
707.919	2541.02
708.107	2667.99
708.296	2610.65
708.484	2506.2
708.672	2672.09
708.86	2647.51
709.048	2569.69
709.236	2610.65
709.424	2547.16
709.612	2700.76
709.8	2586.07
709.988	2594.26
710.176	2639.32
710.364	2514.39
710.551	2530.78
710.739	2469.34
710.927	2665.94
711.115	2670.04
711.303	2614.74
711.491	2602.46
711.679	2506.2
711.866	2538.97
712.054	2618.84
712.242	2586.07
712.43	2661.85
712.617	2618.84
712.805	2483.67
712.993	2477.53
713.181	2512.35
713.368	2534.87
713.556	2563.54
713.744	2401.76
713.931	2717.14
714.119	2651.61
714.306	2471.39
714.494	2635.22
714.682	2514.39
714.869	2473.43
715.057	2567.64
715.244	2485.72
715.432	2606.55
715.619	2508.25
715.807	2577.88
715.994	2604.5
716.182	2553.31
716.369	2590.17
716.556	2645.46
716.744	2528.73
716.931	2602.46
717.119	2573.78
717.306	2516.44
717.493	2647.51
717.681	2485.72
717.868	2487.77
718.055	2446.81
718.242	2594.26
718.43	2520.54
718.617	2561.5
718.804	2469.34
718.991	2629.08
719.179	2596.31
719.366	2573.78
719.553	2491.87
719.74	2561.5
719.927	2561.5
720.114	2534.87
720.301	2524.63
720.488	2487.77
720.676	2475.48
720.863	2629.08
721.05	2491.87
721.237	2528.73
721.424	2633.18
721.611	2590.17
721.798	2508.25
721.985	2538.97
722.172	2520.54
722.358	2653.66
722.545	2538.97
722.732	2676.18
722.919	2608.6
723.106	2557.4
723.293	2479.58
723.48	2563.54
723.667	2506.2
723.853	2459.1
724.04	2639.32
724.227	2500.06
724.414	2364.89
724.6	2522.59
724.787	2663.9
724.974	2573.78
725.161	2604.5
725.347	2508.25
725.534	2532.83
725.72	2547.16
725.907	2635.22
726.094	2536.92
726.28	2635.22
726.467	2422.24
726.653	2463.19
726.84	2643.42
727.027	2586.07
727.213	2455
727.4	2708.95
727.586	2506.2
727.773	2584.02
727.959	2434.52
728.145	2555.35
728.332	2313.69
728.518	2557.4
728.705	2696.66
728.891	2471.39
729.077	2579.93
729.264	2549.21
729.45	2592.22
729.636	2586.07
729.823	2495.96
730.009	2596.31
730.195	2586.07
730.382	2627.03
730.568	2620.89
730.754	2598.36
730.94	2612.7
731.126	2684.38
731.313	2581.98
731.499	2618.84
731.685	2692.57
731.871	2475.48
732.057	2557.4
732.243	2512.35
732.429	2518.49
732.615	2555.35
732.801	2596.31
732.987	2602.46
733.173	2616.79
733.359	2659.8
733.545	2538.97
733.731	2686.42
733.917	2594.26
734.103	2538.97
734.289	2586.07
734.475	2516.44
734.661	2616.79
734.847	2631.13
735.033	2594.26
735.219	2571.74
735.404	2692.57
735.59	2577.88
735.776	2518.49
735.962	2528.73
736.148	2622.94
736.333	2614.74
736.519	2532.83
736.705	2620.89
736.89	2602.46
737.076	2538.97
737.262	2536.92
737.447	2489.82
737.633	2594.26
737.819	2461.15
738.004	2528.73
738.19	2405.85
738.375	2495.96
738.561	2594.26
738.747	2575.83
738.932	2342.36
739.118	2514.39
739.303	2524.63
739.489	2596.31
739.674	2504.15
739.859	2438.62
740.045	2557.4
740.23	2553.31
740.416	2416.09
740.601	2461.15
740.786	2424.28
740.972	2471.39
741.157	2414.04
741.342	2364.89
741.528	2424.28
741.713	2565.59
741.898	2446.81
742.084	2389.47
742.269	2487.77
742.454	2495.96
742.639	2371.04
742.824	2424.28
743.01	2344.41
743.195	2364.89
743.38	2342.36
743.565	2397.66
743.75	2362.84
743.935	2414.04
744.12	2272.73
744.305	2399.71
744.49	2344.41
744.675	2266.59
744.86	2340.32
745.045	2199.01
745.23	2323.93
745.415	2418.14
745.6	2278.88
745.785	2127.33
745.97	2260.45
746.155	2217.44
746.34	2235.87
746.525	2168.29
746.71	2221.53
746.895	2065.89
747.079	2129.38
747.264	2123.23
747.449	2182.62
747.634	2219.49
747.819	2135.52
748.003	2000.35
748.188	2135.52
748.373	2123.23
748.557	2217.44
748.742	2164.19
748.927	2104.8
749.111	2047.46
749.296	2061.79
749.481	2092.51
749.665	2092.51
749.85	2080.22
750.034	1973.73
750.219	2053.6
750.404	1916.39
750.588	2029.03
750.773	1840.61
750.957	2002.4
751.141	1988.07
751.326	1863.14
751.51	1951.2
751.695	1938.91
751.879	2004.45
752.064	1924.58
752.248	1918.43
752.432	1791.46
752.617	1949.15
752.801	1861.09
752.985	1791.46
753.17	1826.28
753.354	1787.36
753.538	1861.09
753.722	1711.59
753.907	1701.35
754.091	1693.16
754.275	1635.82
754.459	1750.5
754.643	1693.16
754.828	1777.12
755.012	1668.58
755.196	1687.01
755.38	1603.05
755.564	1687.01
755.748	1631.72
755.932	1615.34
756.116	1615.34
756.3	1619.43
756.484	1500.65
756.668	1566.18
756.852	1578.47
757.036	1652.2
757.22	1588.71
757.404	1517.03
757.588	1537.51
757.772	1564.14
757.956	1514.98
758.14	1504.75
758.323	1439.21
758.507	1420.78
758.691	1529.32
758.875	1435.11
759.059	1463.79
759.242	1431.02
759.426	1414.63
759.61	1357.29
759.794	1340.91
759.977	1392.11
760.161	1426.92
760.345	1478.12
760.528	1398.25
760.712	1373.68
760.895	1308.14
761.079	1306.09
761.263	1299.95
761.446	1193.45
761.63	1357.29
761.813	1306.09
761.997	1242.61
762.18	1381.87
762.364	1381.87
762.547	1271.28
762.731	1363.44
762.914	1189.36
763.098	1230.32
763.281	1269.23
763.464	1342.96
763.648	1246.7
763.831	1226.22
764.015	1224.17
764.198	1218.03
764.381	1285.61
764.564	1213.93
764.748	1220.08
764.931	1175.02
765.114	1201.65
765.297	1185.26
765.481	1205.74
765.664	1162.73
765.847	1103.34
766.03	1261.04
766.213	1142.25
766.397	1181.17
766.58	1095.15
766.763	1179.12
766.946	1109.49
767.129	1197.55
767.312	1086.96
767.495	1091.06
767.678	1154.54
767.861	1152.49
768.044	1125.87
768.227	1064.43
768.41	1062.38
768.593	1129.97
768.776	1043.95
768.959	1037.81
769.142	1179.12
769.324	1070.58
769.507	1025.52
769.69	1125.87
769.873	1025.52
770.056	1111.54
770.239	1111.54
770.421	1119.73
770.604	1080.82
770.787	1033.71
770.97	1031.66
771.152	972.27
771.335	1086.96
771.518	916.98
771.7	1046
771.883	996.85
772.066	947.7
772.248	982.51
772.431	1099.25
772.613	1027.57
772.796	890.35
772.978	994.8
773.161	996.85
773.343	943.6
773.526	916.98
773.708	953.84
773.891	898.55
774.073	992.75
774.256	865.78
774.438	955.89
774.621	894.45
774.803	955.89
774.985	878.07
775.168	845.3
775.35	871.92
775.532	892.4
775.715	753.14
775.897	849.4
776.079	826.87
776.261	802.29
776.444	845.3
776.626	728.56
776.808	841.2
776.99	763.38
777.173	773.62
777.355	835.06
777.537	865.78
777.719	824.82
777.901	742.9
778.083	763.38
778.265	765.43
778.447	781.81
778.629	759.28
778.811	726.52
778.993	820.72
779.175	775.67
779.357	781.81
779.539	669.17
779.721	761.33
779.903	689.65
780.085	663.03
780.267	751.09
780.449	669.17
780.631	736.76
780.812	787.96
780.994	769.52
781.176	609.78
781.358	677.37
781.54	652.79
781.721	634.36
781.903	718.33
782.085	677.37
782.267	644.6
782.448	568.82
782.63	579.06
782.812	693.75
782.993	630.26
783.175	560.63
783.357	581.11
783.538	652.79
783.72	603.64
783.901	583.16
784.083	593.4
784.264	564.73
784.446	630.26
784.627	476.66
784.809	572.92
784.99	505.34
785.172	507.38
785.353	611.83
785.535	611.83
785.716	562.68
785.897	505.34
786.079	570.87
786.26	542.2
786.441	538.1
786.623	497.14
786.804	566.78
786.985	570.87
787.167	521.72
787.348	499.19
787.529	464.38
787.71	581.11
787.891	550.39
788.073	488.95
788.254	488.95
788.435	556.54
788.616	466.42
788.797	398.84
788.978	511.48
789.159	519.67
789.34	488.95
789.522	493.05
789.703	523.77
789.884	484.86
790.065	472.57
790.246	484.86
790.427	443.9
790.607	474.62
790.788	462.33
790.969	439.8
791.15	488.95
791.331	407.03
791.512	435.71
791.693	419.32
791.874	366.07
792.054	370.17
792.235	368.12
792.416	394.75
792.597	384.51
792.778	390.65
792.958	396.79
793.139	374.27
793.32	366.07
793.5	386.55
793.681	517.62
793.862	431.61
794.042	450.04
794.223	337.4
794.404	329.21
794.584	370.17
794.765	341.5
794.945	353.79
795.126	341.5
795.306	407.03
795.487	318.97
795.667	261.63
795.848	361.98
796.028	366.07
796.209	374.27
796.389	374.27
796.57	304.64
796.75	280.06
796.93	339.45
797.111	294.4
797.291	323.07
797.471	431.61
797.652	249.34
797.832	300.54
798.012	402.94
798.192	294.4
798.373	247.29
798.553	347.64
798.733	271.87
798.913	239.1
799.093	368.12
799.274	316.92
799.454	339.45
799.634	304.64
799.814	269.82
799.994	386.55
800.174	278.01
800.354	300.54
800.534	179.71
800.714	243.2
800.894	380.41
801.074	292.35
801.254	321.02
801.434	343.55
801.614	237.05
801.794	230.91
801.974	701.94
802.154	249.34
802.334	312.83
802.514	302.59
802.693	251.39
802.873	286.2
803.053	359.93
803.233	247.29
803.413	253.44
803.592	267.77
803.772	310.78
803.952	331.26
804.131	271.87
804.311	316.92
804.491	269.82
804.67	257.53
804.85	177.66
805.03	218.62
805.209	310.78
805.389	130.56
805.568	204.28
805.748	245.24
805.928	218.62
806.107	267.77
806.287	261.63
806.466	292.35
806.646	212.48
806.825	220.67
807.004	153.09
807.184	237.05
807.363	253.44
807.543	288.25
807.722	194.05
807.901	271.87
808.081	316.92
808.26	198.14
808.439	171.52
808.619	239.1
808.798	304.64
808.977	214.52
809.156	251.39
809.336	224.76
809.515	216.57
809.694	187.9
809.873	243.2
810.052	226.81
810.231	216.57
810.411	224.76
810.59	255.48
810.769	181.76
810.948	308.73
811.127	161.28
811.306	206.33
811.485	177.66
811.664	128.51
811.843	124.41
812.022	218.62
812.201	177.66
812.38	284.16
812.559	163.33
812.737	284.16
812.916	169.47
813.095	165.37
813.274	220.67
813.453	128.51
813.632	169.47
813.811	192
813.989	132.61
814.168	153.09
814.347	157.18
814.526	237.05
814.704	169.47
814.883	208.38
815.062	132.61
815.24	177.66
815.419	173.57
815.598	187.9
815.776	112.13
815.955	189.95
816.133	87.55
816.312	130.56
816.49	132.61
816.669	144.89
816.847	62.98
817.026	183.81
817.204	171.52
817.383	136.7
817.561	124.41
817.74	144.89
817.918	155.13
818.097	140.8
818.275	196.09
818.453	243.2
818.632	179.71
818.81	114.17
818.988	171.52
819.167	138.75
819.345	204.28
819.523	81.41
819.701	132.61
819.879	157.18
820.058	93.69
820.236	171.52
820.414	161.28
820.592	177.66
820.77	71.17
820.948	148.99
821.127	105.98
821.305	134.65
821.483	110.08
821.661	187.9
821.839	169.47
822.017	112.13
822.195	136.7
822.373	103.93
822.551	138.75
822.729	144.89
822.907	155.13
823.085	169.47
823.262	108.03
823.44	116.22
823.618	134.65
823.796	169.47
823.974	132.61
824.152	163.33
824.329	146.94
824.507	132.61
824.685	81.41
824.863	83.45
825.04	30.21
825.218	187.9
825.396	130.56
825.574	185.85
825.751	108.03
825.929	181.76
826.107	144.89
826.284	132.61
826.462	155.13
826.639	153.09
826.817	114.17
826.994	69.12
827.172	81.41
827.349	103.93
827.527	124.41
827.704	114.17
827.882	167.42
828.059	120.32
828.237	120.32
828.414	144.89
828.591	13.82
828.769	87.55
828.946	112.13
829.124	173.57
829.301	1.54
829.478	87.55
829.655	50.69
829.833	124.41
830.01	81.41
830.187	126.46
830.364	108.03
830.542	136.7
830.719	97.79
830.896	138.75
831.073	112.13
831.25	155.13
831.427	153.09
831.604	69.12
831.782	97.79
831.959	114.17
832.136	202.24
832.313	177.66
832.49	126.46
832.667	62.98
832.844	128.51
833.021	122.37
833.198	112.13
833.374	110.08
833.551	122.37
833.728	116.22
833.905	120.32
834.082	46.59
834.259	114.17
834.436	194.05
834.612	99.84
834.789	83.45
834.966	83.45
835.143	108.03
835.319	81.41
835.496	73.21
835.673	99.84
835.85	132.61
836.026	146.94
836.203	136.7
836.38	30.21
836.556	40.45
836.733	79.36
836.909	81.41
837.086	56.83
837.262	-2.56
837.439	89.6
837.616	22.02
837.792	-2.56
837.968	79.36
838.145	40.45
838.321	122.37
838.498	38.4
838.674	54.78
838.851	108.03
839.027	46.59
839.203	65.02
839.38	173.57
839.556	93.69
839.732	103.93
839.909	79.36
840.085	95.74
840.261	67.07
840.437	136.7
840.614	30.21
840.79	91.65
840.966	34.3
841.142	87.55
841.318	60.93
841.494	89.6
841.671	67.07
841.847	42.5
842.023	13.82
842.199	130.56
842.375	22.02
842.551	38.4
842.727	67.07
842.903	32.26
843.079	60.93
843.255	87.55
843.431	32.26
843.607	73.21
843.783	54.78
843.959	-18.94
844.134	81.41
844.31	97.79
844.486	81.41
844.662	30.21
844.838	148.99
845.013	38.4
845.189	34.3
845.365	114.17
845.541	54.78
845.716	91.65
845.892	91.65
846.068	54.78
846.244	46.59
846.419	44.54
846.595	85.5
846.77	48.64
846.946	130.56
847.122	81.41
847.297	56.83
847.473	108.03
847.648	77.31
847.824	95.74
847.999	-66.05
848.175	30.21
848.35	34.3
848.526	83.45
848.701	103.93
848.876	85.5
849.052	50.69
849.227	58.88
849.403	81.41
849.578	54.78
849.753	159.23
849.929	46.59
850.104	-8.7
850.279	54.78
850.454	32.26
850.63	-0.51
850.805	60.93
850.98	22.02
851.155	118.27
851.33	87.55
851.505	46.59
851.681	101.89
851.856	65.02
852.031	112.13
852.206	81.41
852.381	58.88
852.556	34.3
852.731	62.98
852.906	-18.94
853.081	71.17
853.256	-25.09
853.431	87.55
853.606	54.78
853.781	56.83
853.956	-23.04
854.131	38.4
854.305	30.21
854.48	77.31
854.655	1.54
854.83	46.59
855.005	-2.56
855.18	42.5
855.354	128.51
855.529	99.84
855.704	28.16
855.879	-6.66
856.053	75.26
856.228	5.63
856.403	34.3
856.577	30.21
856.752	1.54
856.926	85.5
857.101	5.63
857.276	13.82
857.45	140.8
857.625	114.17
857.799	22.02
857.974	116.22
858.148	79.36
858.323	69.12
858.497	-2.56
858.672	75.26
858.846	-31.23
859.02	34.3
859.195	-20.99
859.369	48.64
859.543	1.54
859.718	38.4
859.892	79.36
860.066	46.59
860.241	99.84
860.415	13.82
860.589	22.02
860.763	95.74
860.938	54.78
861.112	58.88
861.286	112.13
861.46	95.74
861.634	83.45
861.808	85.5
861.982	13.82
862.157	22.02
862.331	5.63
862.505	-12.8
862.679	54.78
862.853	54.78
863.027	40.45
863.201	95.74
863.375	-0.51
863.549	71.17
863.722	13.82
863.896	50.69
864.07	1.54
864.244	56.83
864.418	-16.9
864.592	62.98
864.766	32.26
864.939	30.21
865.113	-23.04
865.287	-14.85
865.461	-2.56
865.634	54.78
865.808	-16.9
865.982	81.41
866.156	-0.51
866.329	22.02
866.503	32.26
866.676	9.73
866.85	13.82
867.024	62.98
867.197	42.5
867.371	67.07
867.544	32.26
867.718	-6.66
867.891	54.78
868.065	40.45
868.238	13.82
868.412	73.21
868.585	-0.51
868.759	56.83
868.932	67.07
869.105	-27.14
869.279	7.68
869.452	-0.51
869.625	95.74
869.799	-2.56
869.972	46.59
870.145	-0.51
870.319	34.3
870.492	17.92
870.665	5.63
870.838	-10.75
871.011	-10.75
871.185	15.87
871.358	-10.75
871.531	56.83
871.704	-16.9
871.877	120.32
872.05	5.63
872.223	32.26
872.396	-35.33
872.569	93.69
872.742	30.21
872.915	69.12
873.088	28.16
873.261	5.63
873.434	75.26
873.607	-0.51
873.78	46.59
873.953	38.4
874.126	-27.14
874.299	97.79
874.471	56.83
874.644	22.02
874.817	71.17
874.99	28.16
875.163	5.63
875.335	71.17
875.508	36.35
875.681	46.59
875.853	24.06
876.026	13.82
876.199	1.54
876.371	22.02
876.544	30.21
876.717	7.68
876.889	-0.51
877.062	56.83
877.234	22.02
877.407	1.54
877.579	62.98
877.752	-74.24
877.924	54.78
878.097	83.45
878.269	-0.51
878.442	15.87
878.614	26.11
878.786	62.98
878.959	24.06
879.131	42.5
879.303	-0.51
879.476	42.5
879.648	46.59
879.82	48.64
879.993	-16.9
880.165	-55.81
880.337	17.92
880.509	34.3
880.681	-47.62
880.854	30.21
881.026	22.02
881.198	103.93
881.37	36.35
881.542	-51.71
881.714	26.11
881.886	-43.52
882.058	-35.33
882.23	-8.7
882.402	77.31
882.574	5.63
882.746	87.55
882.918	50.69
883.09	24.06
883.262	9.73
883.434	5.63
883.606	-4.61
883.778	22.02
883.95	50.69
884.122	75.26
884.293	5.63
884.465	130.56
884.637	15.87
884.809	22.02
884.98	-6.66
885.152	42.5
885.324	46.59
885.496	-94.72
885.667	44.54
885.839	5.63
886.011	58.88
886.182	83.45
886.354	40.45
886.525	62.98
886.697	54.78
886.869	-131.58
887.04	34.3
887.212	50.69
887.383	89.6
887.555	46.59
887.726	50.69
887.897	24.06
888.069	71.17
888.24	-2.56
888.412	-64
888.583	-59.9
888.754	-57.86
888.926	-0.51
889.097	26.11
889.268	54.78
889.44	58.88
889.611	9.73
889.782	-10.75
889.953	36.35
890.125	87.55
890.296	26.11
890.467	89.6
890.638	7.68
890.809	65.02
890.98	-25.09
891.151	28.16
891.323	30.21
891.494	30.21
891.665	30.21
891.836	-10.75
892.007	-41.47
892.178	67.07
892.349	71.17
892.52	50.69
892.691	34.3
892.862	-18.94
893.032	-27.14
893.203	24.06
893.374	-16.9
893.545	105.98
893.716	-16.9
893.887	103.93
894.057	5.63
894.228	32.26
894.399	97.79
894.57	54.78
894.74	-2.56
894.911	54.78
895.082	-18.94
895.253	13.82
895.423	17.92
895.594	50.69
895.764	54.78
895.935	-82.43
896.106	50.69
896.276	46.59
896.447	5.63
896.617	-33.28
896.788	-8.7
896.958	9.73
897.129	34.3
897.299	-23.04
897.47	105.98
897.64	97.79
897.81	5.63
897.981	26.11
898.151	-51.71
898.322	50.69
898.492	50.69
898.662	13.82
898.832	28.16
899.003	13.82
899.173	120.32
899.343	-80.38
899.513	38.4
