Data from USB4F104151__64__14-43-17-079.txt Node

Date: Thu Mar 13 14:43:17 EDT 2025
User: louis
Spectrometer: USB4F10415
Trigger mode: 4
Integration Time (sec): 2.000000E-2
Scans to average: 1
Electric dark correction enabled: true
Nonlinearity correction enabled: false
Boxcar width: 0
XAxis mode: Wavelengths
Number of Pixels in Spectrum: 3648
>>>>>Begin Spectral Data<<<<<
178.204	-101.37
178.424	-101.37
178.644	-101.37
178.864	-162.81
179.084	-80.89
179.304	-33.79
179.524	1.02
179.744	5.12
179.964	111.61
180.184	-68.61
180.404	15.36
180.624	-62.46
180.844	33.79
181.064	-52.22
181.283	-9.22
181.503	-3.07
181.723	62.46
181.943	-7.17
182.163	-11.26
182.383	-39.94
182.602	95.23
182.822	48.13
183.042	31.74
183.262	-35.84
183.482	54.27
183.701	78.85
183.921	7.17
184.141	-3.07
184.361	56.32
184.58	-27.65
184.8	33.79
185.02	31.74
185.239	89.09
185.459	-19.46
185.679	29.7
185.898	-74.75
186.118	80.89
186.338	-58.37
186.557	25.6
186.777	15.36
186.997	5.12
187.216	9.22
187.436	103.42
187.655	80.89
187.875	7.17
188.095	37.89
188.314	72.7
188.534	33.79
188.753	13.31
188.973	-15.36
189.192	37.89
189.412	15.36
189.631	39.94
189.851	-23.55
190.07	87.04
190.29	46.08
190.509	-29.7
190.729	-7.17
190.948	62.46
191.168	177.15
191.387	64.51
191.607	-3.07
191.826	-44.03
192.045	-11.26
192.265	-19.46
192.484	62.46
192.704	62.46
192.923	-21.5
193.142	130.05
193.362	29.7
193.581	105.47
193.8	52.22
194.02	29.7
194.239	-25.6
194.458	31.74
194.678	-39.94
194.897	-25.6
195.116	-31.74
195.335	87.04
195.555	33.79
195.774	41.98
195.993	5.12
196.212	15.36
196.432	-23.55
196.651	13.31
196.87	56.32
197.089	37.89
197.308	-41.98
197.528	89.09
197.747	56.32
197.966	-25.6
198.185	54.27
198.404	-7.17
198.623	39.94
198.842	62.46
199.062	60.42
199.281	70.65
199.5	37.89
199.719	9.22
199.938	48.13
200.157	68.61
200.376	-31.74
200.595	3.07
200.814	103.42
201.033	-17.41
201.252	56.32
201.471	-23.55
201.69	17.41
201.909	-3.07
202.128	48.13
202.347	37.89
202.566	-15.36
202.785	-39.94
203.004	60.42
203.223	80.89
203.442	25.6
203.661	37.89
203.879	15.36
204.098	54.27
204.317	76.8
204.536	-25.6
204.755	-3.07
204.974	48.13
205.193	-3.07
205.411	74.75
205.63	31.74
205.849	56.32
206.068	68.61
206.287	13.31
206.505	70.65
206.724	78.85
206.943	52.22
207.162	1.02
207.381	5.12
207.599	54.27
207.818	-9.22
208.037	29.7
208.255	37.89
208.474	70.65
208.693	62.46
208.911	-3.07
209.13	64.51
209.349	27.65
209.567	95.23
209.786	46.08
210.005	74.75
210.223	-1.02
210.442	35.84
210.661	-39.94
210.879	78.85
211.098	5.12
211.316	70.65
211.535	78.85
211.753	-3.07
211.972	80.89
212.191	-33.79
212.409	-68.61
212.628	37.89
212.846	-3.07
213.065	31.74
213.283	-27.65
213.502	-60.42
213.72	54.27
213.938	19.46
214.157	27.65
214.375	66.56
214.594	72.7
214.812	25.6
215.031	-19.46
215.249	-1.02
215.467	-9.22
215.686	-29.7
215.904	58.37
216.122	64.51
216.341	35.84
216.559	58.37
216.778	70.65
216.996	82.94
217.214	70.65
217.432	50.18
217.651	-11.26
217.869	27.65
218.087	33.79
218.306	21.5
218.524	29.7
218.742	-27.65
218.96	52.22
219.179	-11.26
219.397	39.94
219.615	66.56
219.833	-7.17
220.051	-15.36
220.27	-23.55
220.488	1.02
220.706	-41.98
220.924	29.7
221.142	54.27
221.36	-74.75
221.578	62.46
221.796	5.12
222.015	7.17
222.233	-9.22
222.451	39.94
222.669	82.94
222.887	80.89
223.105	-76.8
223.323	39.94
223.541	46.08
223.759	54.27
223.977	-52.22
224.195	15.36
224.413	-3.07
224.631	39.94
224.849	46.08
225.067	115.71
225.285	54.27
225.503	5.12
225.721	62.46
225.939	33.79
226.157	39.94
226.375	11.26
226.592	-11.26
226.81	-3.07
227.028	-7.17
227.246	70.65
227.464	48.13
227.682	15.36
227.9	13.31
228.117	21.5
228.335	37.89
228.553	-68.61
228.771	-1.02
228.989	-9.22
229.206	-19.46
229.424	-3.07
229.642	7.17
229.86	62.46
230.077	29.7
230.295	-3.07
230.513	-3.07
230.731	13.31
230.948	27.65
231.166	123.9
231.384	-17.41
231.601	9.22
231.819	17.41
232.037	68.61
232.254	41.98
232.472	-1.02
232.689	29.7
232.907	-1.02
233.125	-33.79
233.342	82.94
233.56	-62.46
233.777	44.03
233.995	35.84
234.213	37.89
234.43	66.56
234.648	62.46
234.865	-3.07
235.083	-17.41
235.3	-27.65
235.518	1.02
235.735	35.84
235.953	66.56
236.17	31.74
236.388	13.31
236.605	13.31
236.822	21.5
237.04	-9.22
237.257	46.08
237.475	84.99
237.692	97.28
237.909	-21.5
238.127	21.5
238.344	70.65
238.562	23.55
238.779	5.12
238.996	-11.26
239.214	62.46
239.431	31.74
239.648	15.36
239.865	109.57
240.083	39.94
240.3	87.04
240.517	9.22
240.735	-3.07
240.952	1.02
241.169	7.17
241.386	-31.74
241.603	62.46
241.821	58.37
242.038	56.32
242.255	72.7
242.472	-48.13
242.689	54.27
242.907	21.5
243.124	64.51
243.341	9.22
243.558	-35.84
243.775	56.32
243.992	-82.94
244.209	21.5
244.426	54.27
244.643	-11.26
244.86	-15.36
245.078	-15.36
245.295	-27.65
245.512	37.89
245.729	46.08
245.946	62.46
246.163	31.74
246.38	-5.12
246.597	54.27
246.814	11.26
247.031	-11.26
247.248	1.02
247.464	62.46
247.681	1.02
247.898	111.61
248.115	62.46
248.332	-15.36
248.549	103.42
248.766	72.7
248.983	54.27
249.2	13.31
249.417	-46.08
249.633	15.36
249.85	44.03
250.067	-52.22
250.284	17.41
250.501	5.12
250.717	41.98
250.934	37.89
251.151	41.98
251.368	-17.41
251.585	64.51
251.801	21.5
252.018	50.18
252.235	58.37
252.451	11.26
252.668	-3.07
252.885	50.18
253.102	-39.94
253.318	27.65
253.535	23.55
253.752	15.36
253.968	29.7
254.185	-25.6
254.401	29.7
254.618	9.22
254.835	5.12
255.051	95.23
255.268	52.22
255.484	17.41
255.701	-1.02
255.917	29.7
256.134	5.12
256.351	-9.22
256.567	-33.79
256.784	23.55
257	-60.42
257.217	-1.02
257.433	-7.17
257.65	97.28
257.866	33.79
258.082	-64.51
258.299	-7.17
258.515	62.46
258.732	-11.26
258.948	1.02
259.165	29.7
259.381	15.36
259.597	68.61
259.814	-11.26
260.03	35.84
260.246	-46.08
260.463	48.13
260.679	76.8
260.895	58.37
261.112	-1.02
261.328	-23.55
261.544	9.22
261.761	113.66
261.977	-39.94
262.193	44.03
262.409	23.55
262.626	-9.22
262.842	25.6
263.058	31.74
263.274	76.8
263.49	5.12
263.707	72.7
263.923	-23.55
264.139	33.79
264.355	29.7
264.571	136.19
264.787	15.36
265.004	5.12
265.22	-9.22
265.436	48.13
265.652	60.42
265.868	7.17
266.084	-7.17
266.3	87.04
266.516	25.6
266.732	-21.5
266.948	66.56
267.164	87.04
267.38	70.65
267.596	48.13
267.812	93.18
268.028	39.94
268.244	58.37
268.46	5.12
268.676	66.56
268.892	3.07
269.108	44.03
269.324	23.55
269.54	-3.07
269.756	66.56
269.972	-64.51
270.188	-15.36
270.403	1.02
270.619	37.89
270.835	72.7
271.051	41.98
271.267	-60.42
271.483	13.31
271.698	25.6
271.914	-1.02
272.13	21.5
272.346	9.22
272.562	64.51
272.777	87.04
272.993	29.7
273.209	-5.12
273.425	-3.07
273.64	-27.65
273.856	-25.6
274.072	7.17
274.287	97.28
274.503	64.51
274.719	50.18
274.934	23.55
275.15	19.46
275.366	48.13
275.581	-11.26
275.797	-1.02
276.012	5.12
276.228	37.89
276.444	25.6
276.659	29.7
276.875	3.07
277.09	21.5
277.306	-5.12
277.521	11.26
277.737	19.46
277.952	-25.6
278.168	41.98
278.383	-52.22
278.599	-27.65
278.814	39.94
279.03	-9.22
279.245	-11.26
279.461	41.98
279.676	56.32
279.892	9.22
280.107	70.65
280.322	-1.02
280.538	46.08
280.753	1.02
280.969	25.6
281.184	-3.07
281.399	29.7
281.615	-25.6
281.83	115.71
282.045	-17.41
282.26	-64.51
282.476	-11.26
282.691	15.36
282.906	27.65
283.122	70.65
283.337	-15.36
283.552	37.89
283.767	-27.65
283.983	41.98
284.198	-35.84
284.413	78.85
284.628	-25.6
284.843	11.26
285.058	33.79
285.274	11.26
285.489	13.31
285.704	11.26
285.919	-13.31
286.134	41.98
286.349	-1.02
286.564	48.13
286.779	154.62
286.995	72.7
287.21	33.79
287.425	-33.79
287.64	13.31
287.855	-74.75
288.07	23.55
288.285	-3.07
288.5	15.36
288.715	-58.37
288.93	-9.22
289.145	15.36
289.36	15.36
289.575	29.7
289.79	-35.84
290.004	72.7
290.219	-19.46
290.434	-27.65
290.649	-21.5
290.864	-11.26
291.079	-33.79
291.294	121.85
291.509	41.98
291.724	-44.03
291.938	-41.98
292.153	37.89
292.368	15.36
292.583	31.74
292.798	37.89
293.012	1.02
293.227	56.32
293.442	56.32
293.657	3.07
293.871	84.99
294.086	46.08
294.301	54.27
294.516	62.46
294.73	23.55
294.945	17.41
295.16	46.08
295.374	5.12
295.589	37.89
295.804	41.98
296.018	-41.98
296.233	25.6
296.447	13.31
296.662	82.94
296.877	78.85
297.091	-31.74
297.306	35.84
297.52	-11.26
297.735	29.7
297.949	74.75
298.164	-1.02
298.378	7.17
298.593	17.41
298.807	-25.6
299.022	-3.07
299.236	29.7
299.451	-7.17
299.665	-46.08
299.88	58.37
300.094	-13.31
300.309	48.13
300.523	152.57
300.737	5.12
300.952	78.85
301.166	37.89
301.381	21.5
301.595	46.08
301.809	-27.65
302.024	-3.07
302.238	-31.74
302.452	21.5
302.667	25.6
302.881	41.98
303.095	5.12
303.309	-11.26
303.524	99.33
303.738	54.27
303.952	-21.5
304.166	-1.02
304.381	-19.46
304.595	39.94
304.809	25.6
305.023	1.02
305.237	9.22
305.452	15.36
305.666	128
305.88	37.89
306.094	13.31
306.308	93.18
306.522	50.18
306.736	7.17
306.95	-3.07
307.164	-89.09
307.379	7.17
307.593	62.46
307.807	54.27
308.021	-3.07
308.235	11.26
308.449	-3.07
308.663	29.7
308.877	21.5
309.091	29.7
309.305	13.31
309.519	-35.84
309.733	68.61
309.947	-3.07
310.161	39.94
310.374	35.84
310.588	39.94
310.802	19.46
311.016	-39.94
311.23	-35.84
311.444	21.5
311.658	91.13
311.872	70.65
312.085	95.23
312.299	11.26
312.513	37.89
312.727	50.18
312.941	27.65
313.154	3.07
313.368	-5.12
313.582	62.46
313.796	95.23
314.009	-7.17
314.223	25.6
314.437	87.04
314.651	13.31
314.864	25.6
315.078	-27.65
315.292	21.5
315.505	74.75
315.719	99.33
315.933	7.17
316.146	-11.26
316.36	29.7
316.573	33.79
316.787	33.79
317.001	-3.07
317.214	31.74
317.428	87.04
317.641	13.31
317.855	5.12
318.068	66.56
318.282	-35.84
318.495	33.79
318.709	97.28
318.922	54.27
319.136	-35.84
319.349	84.99
319.563	-15.36
319.776	13.31
319.99	9.22
320.203	80.89
320.417	-33.79
320.63	50.18
320.843	48.13
321.057	46.08
321.27	54.27
321.483	78.85
321.697	103.42
321.91	-9.22
322.124	62.46
322.337	5.12
322.55	-27.65
322.763	21.5
322.977	31.74
323.19	33.79
323.403	-11.26
323.617	44.03
323.83	25.6
324.043	13.31
324.256	29.7
324.469	-11.26
324.683	-15.36
324.896	-15.36
325.109	66.56
325.322	19.46
325.535	60.42
325.748	56.32
325.962	41.98
326.175	101.37
326.388	68.61
326.601	29.7
326.814	37.89
327.027	-3.07
327.24	144.38
327.453	5.12
327.666	-9.22
327.879	54.27
328.092	140.29
328.305	-35.84
328.518	21.5
328.731	64.51
328.944	15.36
329.157	107.52
329.37	7.17
329.583	76.8
329.796	113.66
330.009	21.5
330.222	5.12
330.435	74.75
330.648	78.85
330.861	21.5
331.073	76.8
331.286	89.09
331.499	68.61
331.712	46.08
331.925	31.74
332.138	-3.07
332.35	17.41
332.563	-64.51
332.776	78.85
332.989	21.5
333.202	31.74
333.414	5.12
333.627	-11.26
333.84	82.94
334.053	80.89
334.265	64.51
334.478	3.07
334.691	54.27
334.903	23.55
335.116	-19.46
335.329	17.41
335.541	-3.07
335.754	99.33
335.966	54.27
336.179	-41.98
336.392	35.84
336.604	25.6
336.817	97.28
337.029	62.46
337.242	72.7
337.454	35.84
337.667	-9.22
337.88	21.5
338.092	66.56
338.305	9.22
338.517	-19.46
338.729	-9.22
338.942	107.52
339.154	21.5
339.367	9.22
339.579	95.23
339.792	-35.84
340.004	46.08
340.217	37.89
340.429	91.13
340.641	-60.42
340.854	1.02
341.066	66.56
341.278	95.23
341.491	95.23
341.703	107.52
341.915	31.74
342.128	17.41
342.34	-9.22
342.552	9.22
342.764	23.55
342.977	48.13
343.189	46.08
343.401	68.61
343.613	-35.84
343.826	21.5
344.038	-1.02
344.25	62.46
344.462	-11.26
344.674	111.61
344.886	-35.84
345.099	74.75
345.311	103.42
345.523	-11.26
345.735	31.74
345.947	-9.22
346.159	119.81
346.371	-44.03
346.583	31.74
346.795	64.51
347.007	-23.55
347.219	56.32
347.431	-1.02
347.643	58.37
347.855	31.74
348.067	72.7
348.279	5.12
348.491	37.89
348.703	29.7
348.915	-27.65
349.127	-44.03
349.339	80.89
349.551	19.46
349.763	37.89
349.975	54.27
350.187	-1.02
350.399	54.27
350.61	37.89
350.822	9.22
351.034	72.7
351.246	58.37
351.458	33.79
351.669	21.5
351.881	37.89
352.093	50.18
352.305	31.74
352.517	9.22
352.728	-1.02
352.94	-19.46
353.152	31.74
353.363	39.94
353.575	25.6
353.787	56.32
353.999	48.13
354.21	21.5
354.422	-35.84
354.633	-27.65
354.845	23.55
355.057	103.42
355.268	52.22
355.48	87.04
355.692	-101.37
355.903	54.27
356.115	-33.79
356.326	-27.65
356.538	95.23
356.749	9.22
356.961	54.27
357.172	46.08
357.384	29.7
357.595	64.51
357.807	-15.36
358.018	-3.07
358.23	5.12
358.441	101.37
358.653	21.5
358.864	13.31
359.075	1.02
359.287	25.6
359.498	56.32
359.709	-3.07
359.921	-3.07
360.132	89.09
360.344	19.46
360.555	15.36
360.766	54.27
360.977	41.98
361.189	48.13
361.4	35.84
361.611	31.74
361.823	-11.26
362.034	58.37
362.245	103.42
362.456	-31.74
362.667	29.7
362.879	-11.26
363.09	107.52
363.301	70.65
363.512	-27.65
363.723	87.04
363.935	15.36
364.146	7.17
364.357	5.12
364.568	48.13
364.779	-7.17
364.99	-5.12
365.201	-60.42
365.412	46.08
365.623	-44.03
365.834	64.51
366.045	5.12
366.256	-41.98
366.467	60.42
366.678	72.7
366.889	82.94
367.1	70.65
367.311	25.6
367.522	-7.17
367.733	78.85
367.944	15.36
368.155	-7.17
368.366	39.94
368.577	29.7
368.788	80.89
368.999	-39.94
369.209	15.36
369.42	119.81
369.631	95.23
369.842	21.5
370.053	-17.41
370.264	64.51
370.474	103.42
370.685	19.46
370.896	70.65
371.107	68.61
371.317	62.46
371.528	21.5
371.739	29.7
371.95	97.28
372.16	66.56
372.371	-11.26
372.582	15.36
372.792	58.37
373.003	46.08
373.214	48.13
373.424	37.89
373.635	5.12
373.846	23.55
374.056	5.12
374.267	82.94
374.477	62.46
374.688	48.13
374.898	78.85
375.109	97.28
375.319	13.31
375.53	21.5
375.74	97.28
375.951	-27.65
376.161	-44.03
376.372	72.7
376.582	5.12
376.793	21.5
377.003	29.7
377.214	31.74
377.424	70.65
377.635	33.79
377.845	9.22
378.055	-27.65
378.266	7.17
378.476	21.5
378.686	50.18
378.897	46.08
379.107	-31.74
379.317	70.65
379.528	15.36
379.738	130.05
379.948	-11.26
380.158	11.26
380.369	23.55
380.579	62.46
380.789	39.94
380.999	56.32
381.21	48.13
381.42	41.98
381.63	-23.55
381.84	113.66
382.05	-19.46
382.261	103.42
382.471	56.32
382.681	62.46
382.891	109.57
383.101	23.55
383.311	-52.22
383.521	13.31
383.731	-5.12
383.941	21.5
384.151	74.75
384.361	21.5
384.571	37.89
384.781	84.99
384.991	80.89
385.201	41.98
385.411	64.51
385.621	17.41
385.831	17.41
386.041	70.65
386.251	33.79
386.461	48.13
386.671	15.36
386.881	15.36
387.091	15.36
387.301	80.89
387.511	91.13
387.72	-44.03
387.93	48.13
388.14	29.7
388.35	19.46
388.56	7.17
388.769	64.51
388.979	23.55
389.189	39.94
389.399	37.89
389.609	111.61
389.818	-13.31
390.028	54.27
390.238	58.37
390.447	54.27
390.657	74.75
390.867	-44.03
391.076	31.74
391.286	58.37
391.496	82.94
391.705	70.65
391.915	80.89
392.125	87.04
392.334	99.33
392.544	64.51
392.753	37.89
392.963	19.46
393.172	39.94
393.382	-3.07
393.591	136.19
393.801	54.27
394.01	189.44
394.22	46.08
394.429	64.51
394.639	21.5
394.848	25.6
395.058	5.12
395.267	-15.36
395.477	64.51
395.686	64.51
395.895	107.52
396.105	95.23
396.314	54.27
396.524	72.7
396.733	54.27
396.942	156.67
397.152	89.09
397.361	125.95
397.57	91.13
397.78	91.13
397.989	41.98
398.198	39.94
398.407	99.33
398.617	1.02
398.826	121.85
399.035	103.42
399.244	97.28
399.453	115.71
399.663	46.08
399.872	177.15
400.081	89.09
400.29	56.32
400.499	50.18
400.708	109.57
400.917	46.08
401.127	64.51
401.336	72.7
401.545	91.13
401.754	123.9
401.963	68.61
402.172	13.31
402.381	48.13
402.59	87.04
402.799	154.62
403.008	60.42
403.217	115.71
403.426	54.27
403.635	70.65
403.844	113.66
404.053	78.85
404.262	111.61
404.471	156.67
404.68	39.94
404.888	62.46
405.097	105.47
405.306	95.23
405.515	173.05
405.724	76.8
405.933	109.57
406.142	119.81
406.35	171.01
406.559	162.81
406.768	140.29
406.977	142.33
407.185	66.56
407.394	201.72
407.603	185.34
407.812	160.77
408.02	187.39
408.229	191.49
408.438	195.58
408.646	179.2
408.855	113.66
409.064	236.54
409.272	185.34
409.481	252.92
409.69	259.07
409.898	189.44
410.107	179.2
410.315	248.83
410.524	193.53
410.733	220.16
410.941	228.35
411.15	306.17
411.358	312.32
411.567	340.99
411.775	211.96
411.984	367.61
412.192	322.56
412.401	285.69
412.609	345.08
412.818	373.75
413.026	279.55
413.234	306.17
413.443	349.18
413.651	351.23
413.86	390.14
414.068	504.82
414.276	533.5
414.485	519.16
414.693	496.63
414.901	611.32
415.11	478.2
415.318	525.3
415.526	508.92
415.734	676.85
415.943	513.02
416.151	547.83
416.359	617.46
416.567	637.94
416.776	594.93
416.984	635.89
417.192	775.16
417.4	635.89
417.608	678.9
417.817	771.06
418.025	734.2
418.233	867.31
418.441	719.86
418.649	879.6
418.857	963.57
419.065	924.66
419.273	1018.86
419.481	943.09
419.689	1147.89
419.897	1115.12
420.105	1086.45
420.313	1219.57
420.521	1178.61
420.729	1192.94
420.937	1281
421.145	1217.52
421.353	1354.73
421.561	1405.93
421.769	1457.13
421.977	1465.32
422.185	1344.49
422.393	1604.58
422.601	1698.79
422.809	1653.73
423.017	1713.13
423.224	1686.5
423.432	1782.76
423.64	1788.9
423.848	2026.47
424.056	1842.15
424.263	2110.43
424.471	2081.76
424.679	2141.15
424.887	2208.73
425.094	2282.46
425.302	2319.32
425.51	2309.08
425.718	2317.28
425.925	2405.34
426.133	2649.05
426.341	2692.05
426.548	2857.94
426.756	2794.45
426.964	2905.04
427.171	3089.36
427.379	3036.11
427.586	3107.79
427.794	3195.86
428.001	3331.02
428.209	3427.28
428.417	3466.19
428.624	3771.33
428.832	3871.68
429.039	3734.47
429.247	3787.72
429.454	4053.95
429.662	4363.2
429.869	4178.88
430.076	4395.96
430.284	4289.47
430.491	4371.39
430.699	4676.54
430.906	4637.63
431.114	4821.94
431.321	4905.91
431.528	5028.79
431.736	5139.38
431.943	5575.59
432.15	5374.89
432.358	5440.43
432.565	5649.32
432.772	5637.03
432.979	6136.74
433.187	6146.98
433.394	6071.2
433.601	6450.08
433.808	6609.82
434.016	6411.17
434.223	6787.99
434.43	7299.98
434.637	7123.86
434.844	7451.53
435.052	7687.05
435.259	7639.95
435.466	7789.45
435.673	7732.11
435.88	8110.98
436.087	8786.81
436.294	8661.88
436.501	8184.71
436.708	8393.6
436.915	8766.33
437.122	9333.62
437.329	9065.33
437.537	9386.86
437.743	9712.49
437.95	9558.89
438.157	9935.72
438.364	10333.03
438.571	10261.35
438.778	10527.58
438.985	11424.59
439.192	10969.94
439.399	11273.04
439.606	11008.86
439.813	11735.88
440.02	12145.48
440.227	12038.98
440.433	12047.18
440.64	12180.29
440.847	12299.08
441.054	12661.57
441.261	13357.88
441.467	13232.95
441.674	13570.86
441.881	13970.22
442.088	14062.38
442.294	13880.11
442.501	14205.74
442.708	14566.18
442.914	15176.47
443.121	15758.1
443.328	15244.06
443.534	16456.45
443.741	16087.82
443.948	15645.46
444.154	16691.97
444.361	16886.53
444.568	16632.58
444.774	16773.89
444.981	16974.59
445.187	17689.33
445.394	18270.95
445.6	17871.6
445.807	19720.92
446.013	18823.9
446.22	19188.44
446.426	20157.13
446.633	20269.77
446.839	20873.92
447.046	20228.81
447.252	21336.76
447.459	21093.05
447.665	20871.87
447.871	22315.69
448.078	22936.23
448.284	22033.07
448.491	22581.93
448.697	23442.07
448.903	23739.03
449.11	24021.65
449.316	23515.8
449.522	24072.85
449.728	24607.37
449.935	24617.61
450.141	24937.09
450.347	25434.75
450.553	24519.31
450.76	24926.85
450.966	25721.46
451.172	25590.39
451.378	26315.37
451.584	25641.59
451.791	26069.62
451.997	26305.13
452.203	26743.4
452.409	26366.57
452.615	26706.54
452.821	25848.44
453.027	25311.87
453.233	26761.83
453.44	25733.75
453.646	26020.47
453.852	26131.06
454.058	26620.52
454.264	25967.22
454.47	26366.57
454.676	25639.54
454.882	26636.91
455.088	24412.81
455.294	24728.2
455.5	25232
455.705	25240.19
455.911	24449.67
456.117	23966.35
456.323	23728.79
456.529	22166.19
456.735	23718.55
456.941	22645.41
457.147	22434.47
457.352	21844.66
457.558	21707.44
457.764	21945.01
457.97	21369.53
458.176	20927.17
458.381	20964.03
458.587	19954.38
458.793	19995.34
458.999	18873.06
459.204	20538.05
459.41	19434.2
459.616	18445.03
459.821	18557.67
460.027	18365.16
460.233	18047.72
460.438	17294.07
460.644	17044.22
460.85	16390.92
461.055	16427.78
461.261	16440.07
461.466	14943
461.672	14613.28
461.878	15350.55
462.083	14455.59
462.289	14183.21
462.494	13916.97
462.7	13433.65
462.905	13235
463.111	13570.86
463.316	13714.22
463.522	13456.18
463.727	13323.06
463.932	13441.84
464.138	13056.82
464.343	13411.12
464.549	12954.43
464.754	13466.42
464.959	13056.82
465.165	12983.1
465.37	12546.88
465.575	12198.73
465.781	12524.35
465.986	12696.38
466.191	12215.11
466.397	11909.96
466.602	11467.6
466.807	12006.22
467.012	11950.92
467.218	11834.19
467.423	11776.84
467.628	11850.57
467.833	12135.24
468.038	11836.24
468.244	11391.83
468.449	11936.59
468.654	11563.86
468.859	11481.94
469.064	11346.77
469.269	11010.9
469.474	11084.63
469.679	11299.67
469.885	10957.66
470.09	11141.97
470.295	10953.56
470.5	10713.95
470.705	11115.35
470.91	10416.99
471.115	10613.6
471.32	10783.58
471.525	10638.17
471.73	10449.76
471.935	10173.28
472.139	9835.37
472.344	10111.85
472.549	9931.62
472.754	10109.8
472.959	9827.18
473.164	9436.02
473.369	9194.36
473.574	9911.14
473.778	9542.51
473.983	9587.57
474.188	9511.79
474.393	9061.24
474.598	9137.01
474.802	9053.05
475.007	8958.84
475.212	9048.95
475.417	8573.82
475.621	8565.63
475.826	8897.4
476.031	8514.43
476.235	8403.84
476.44	8428.42
476.645	8387.46
476.849	8276.87
477.054	8147.84
477.259	7986.05
477.463	8088.45
477.668	7897.99
477.872	7883.66
478.077	7793.55
478.282	7725.96
478.486	7740.3
478.691	7580.56
478.895	7551.88
479.1	7265.17
479.304	7738.25
479.509	7267.22
479.713	7525.26
479.918	7246.74
480.122	7068.56
480.326	7263.12
480.531	7160.72
480.735	7181.2
480.94	6976.41
481.144	7371.66
481.348	6972.31
481.553	7025.56
481.757	6763.42
481.961	6935.45
482.166	7080.85
482.37	6880.15
482.574	7017.36
482.778	6910.87
482.983	7078.8
483.187	7107.48
483.391	6953.88
483.595	6841.24
483.8	6878.1
484.004	6964.12
484.208	6902.68
484.412	6953.88
484.616	6935.45
484.821	6695.83
485.025	6665.11
485.229	6853.53
485.433	6865.82
485.637	6804.38
485.841	6808.47
486.045	6861.72
486.249	6968.21
486.453	6917.01
486.657	7043.99
486.861	6949.78
487.065	6742.94
487.269	6908.82
487.473	7013.27
487.677	6859.67
487.881	6960.02
488.085	6824.86
488.289	6910.87
488.493	6960.02
488.697	7158.67
488.901	6976.41
489.105	6964.12
489.309	7037.84
489.512	7164.82
489.716	6968.21
489.92	6974.36
490.124	6917.01
490.328	7158.67
490.531	7056.28
490.735	7050.13
490.939	7095.19
491.143	7173.01
491.346	7099.28
491.55	7166.87
491.754	7093.14
491.958	7287.7
492.161	7250.83
492.365	7168.91
492.569	7314.32
492.772	7283.6
492.976	7148.43
493.18	7314.32
493.383	7486.35
493.587	7367.57
493.79	7500.69
493.994	7396.24
494.197	7484.3
494.401	7701.39
494.605	7795.59
494.808	7734.15
495.012	7793.55
495.215	7902.09
495.419	8004.49
495.622	7902.09
495.825	7984.01
496.029	7969.67
496.232	8078.21
496.436	8051.59
496.639	8532.86
496.843	8315.78
497.046	8573.82
497.249	8522.62
497.453	8586.11
497.656	8532.86
497.859	8657.79
498.063	8743.8
498.266	8930.17
498.469	8971.13
498.673	9059.19
498.876	9137.01
499.079	9259.89
499.282	9063.29
499.485	9417.58
499.689	9515.89
499.892	9589.61
500.095	9663.34
500.298	9868.14
500.501	9704.3
500.705	10052.45
500.908	10228.58
501.111	10206.05
501.314	10277.73
501.517	10574.69
501.72	10728.28
501.923	10490.72
502.126	10851.16
502.329	10904.41
502.532	10775.39
502.735	11025.24
502.938	11174.74
503.141	11461.46
503.344	11649.87
503.547	11637.58
503.75	11893.58
503.953	11916.11
504.156	12079.94
504.359	12172.1
504.562	12317.51
504.765	12342.08
504.968	12524.35
505.17	12575.55
505.373	12694.33
505.576	12987.19
505.779	13204.28
505.982	13349.68
506.185	13392.69
506.387	13454.13
506.59	13673.26
506.793	13802.29
506.996	13833
507.198	14234.41
507.401	14222.12
507.604	14416.68
507.807	14613.28
508.009	14707.49
508.212	14791.45
508.415	15127.32
508.617	15364.89
508.82	15041.31
509.022	15358.74
509.225	15655.7
509.428	15717.14
509.63	15809.29
509.833	15786.77
510.035	16360.2
510.238	16171.79
510.44	16554.76
510.643	16859.9
510.845	16864
511.048	16710.4
511.25	17234.68
511.453	17236.73
511.655	17742.58
511.858	17638.13
512.06	17924.85
512.262	18098.92
512.465	18012.91
512.667	18311.91
512.87	18469.61
513.072	18354.92
513.274	18838.24
513.477	18971.36
513.679	19153.63
513.881	19165.92
514.084	19653.33
514.286	19882.7
514.488	19665.62
514.69	20484.81
514.893	20478.66
515.095	20452.04
515.297	20626.12
515.499	20460.23
515.701	21099.2
515.904	21373.63
516.106	21392.06
516.308	21779.12
516.51	21895.86
516.712	21938.87
516.914	22117.04
517.116	22317.74
517.318	22508.2
517.52	22586.02
517.722	22672.04
517.925	23040.67
518.127	23403.16
518.329	23388.83
518.531	23376.54
518.733	23693.97
518.935	23892.63
519.136	24146.58
519.338	24722.05
519.54	24486.54
519.742	24588.94
519.944	24863.36
520.146	25285.25
520.348	25500.28
520.55	25449.08
520.752	25844.34
520.954	26184.3
521.155	25629.3
521.357	26296.94
521.559	26403.44
521.761	26444.4
521.963	26884.71
522.164	27007.59
522.366	27613.79
522.568	27486.81
522.77	27556.44
522.971	27779.67
523.173	27843.16
523.375	28004.95
523.576	28338.77
523.778	28195.41
523.98	28658.25
524.181	28912.2
524.383	28633.68
524.584	29303.36
524.786	29280.83
524.988	28924.49
525.189	29647.42
525.391	29241.92
525.592	29874.74
525.794	30102.07
525.995	29717.05
526.197	30069.3
526.398	30274.1
526.6	30159.41
526.801	30282.29
527.003	30575.15
527.204	30308.91
527.406	30806.57
527.607	30808.62
527.808	31210.02
528.01	30380.59
528.211	30827.05
528.412	31724.06
528.614	31341.09
528.815	31083.05
529.016	31521.31
529.218	31410.72
529.419	31506.98
529.62	31953.43
529.822	31851.03
530.023	31535.65
530.224	31900.19
530.425	32246.29
530.626	31592.99
530.828	31250.98
531.029	32651.79
531.23	32215.57
531.431	31676.96
531.632	32170.52
531.833	31945.24
532.035	32301.59
532.236	32420.37
532.437	32533.01
532.638	32041.5
532.839	32573.97
533.04	32653.84
533.241	31744.54
533.442	32698.89
533.643	32377.36
533.844	32483.86
534.045	32449.04
534.246	32160.28
534.447	32547.34
534.648	32576.01
534.849	32528.91
535.05	32688.65
535.251	32713.23
535.451	32713.23
535.652	32901.64
535.853	32887.31
536.054	32784.91
536.255	32616.97
536.456	32682.51
536.657	33036.81
536.857	32709.13
537.058	32397.84
537.259	33036.81
537.46	32813.58
537.66	32526.86
537.861	32940.55
538.062	32403.99
538.263	32637.45
538.463	32340.5
538.664	32590.35
538.865	32778.76
539.065	32625.17
539.266	32289.3
539.466	32811.53
539.667	32492.05
539.868	32721.42
540.068	32451.09
540.269	32623.12
540.469	32590.35
540.67	32287.25
540.87	32541.2
541.071	32442.9
541.271	32426.51
541.472	32557.58
541.672	32477.71
541.873	32215.57
542.073	31904.28
542.274	33008.14
542.474	32582.16
542.675	32281.11
542.875	32520.72
543.075	32557.58
543.276	32324.11
543.476	32385.55
543.676	32408.08
543.877	32406.03
544.077	32301.59
544.277	32348.69
544.478	32639.5
544.678	32238.1
544.878	32363.03
545.078	32446.99
545.279	32307.73
545.479	32367.12
545.679	32537.1
545.879	32166.42
546.079	32559.63
546.28	32313.87
546.48	32125.46
546.68	32289.3
546.88	32254.48
547.08	32315.92
547.28	32082.45
547.48	31928.86
547.68	32180.76
547.88	32293.4
548.081	32172.57
548.281	32373.27
548.481	32127.51
548.681	32336.4
548.881	32279.06
549.081	31805.98
549.28	31994.39
549.48	32170.52
549.68	32371.22
549.88	32588.3
550.08	32199.19
550.28	32141.85
550.48	32322.07
550.68	32375.31
550.88	32113.17
551.08	31982.1
551.279	31832.6
551.479	31705.63
551.679	32401.94
551.879	31773.21
552.079	32358.93
552.278	31803.93
552.478	32111.13
552.678	31939.1
552.878	31873.56
553.077	31969.82
553.277	31328.8
553.477	32158.23
553.676	31586.85
553.876	31846.94
554.076	31959.58
554.275	31740.44
554.475	31191.59
554.674	31736.35
554.874	31687.2
555.074	31599.13
555.273	32070.17
555.473	31861.27
555.672	31703.58
555.872	31377.95
556.071	31529.5
556.271	31369.76
556.47	31433.25
556.67	31136.29
556.869	31003.17
557.068	31693.34
557.268	31617.57
557.467	31447.58
557.667	31347.23
557.866	31332.9
558.065	31257.12
558.265	30890.54
558.464	31398.43
558.663	31240.74
558.863	30777.9
559.062	31490.59
559.261	30517.81
559.461	31705.63
559.66	30526
559.859	30978.6
560.058	30691.88
560.258	30911.02
560.457	30609.96
560.656	30802.47
560.855	30495.28
561.054	30687.79
561.253	30560.81
561.453	30468.66
561.652	30618.16
561.851	30794.28
562.05	30722.6
562.249	30526
562.448	30566.96
562.647	30507.57
562.846	30177.84
563.045	30317.11
563.244	30206.52
563.443	30181.94
563.642	29993.53
563.841	30341.68
564.04	29940.28
564.239	29889.08
564.438	29913.66
564.637	29747.77
564.836	29749.82
565.035	29362.75
565.234	29749.82
565.432	29467.2
565.631	29518.4
565.83	29506.11
566.029	29313.6
566.228	29383.23
566.427	29690.43
566.625	29026.89
566.824	28895.82
567.023	29295.17
567.222	28629.58
567.42	29151.81
567.619	28971.59
567.818	29082.18
568.016	28975.69
568.215	29358.66
568.414	28588.62
568.612	29004.36
568.811	28793.42
569.01	28721.74
569.208	28322.38
569.407	28746.31
569.605	28168.79
569.804	28744.27
570.002	28039.76
570.201	28133.97
570.4	27966.04
570.598	27949.65
570.797	27638.36
570.995	27984.47
571.193	27652.7
571.392	28179.03
571.59	27581.02
571.789	27845.21
571.987	27720.28
572.186	27812.44
572.384	27439.71
572.582	27609.69
572.781	27472.48
572.979	26989.16
573.177	27292.26
573.376	27146.85
573.574	27075.17
573.772	27093.6
573.971	26792.55
574.169	26581.61
574.367	26462.83
574.565	26944.1
574.763	26731.11
574.962	26585.71
575.16	26354.29
575.358	26425.96
575.556	26245.74
575.754	26559.08
575.952	25967.22
576.151	26124.91
576.349	25907.83
576.547	26215.02
576.745	26210.93
576.943	26329.71
577.141	25889.4
577.339	25793.14
577.537	25762.42
577.735	25979.51
577.933	25512.57
578.131	25739.9
578.329	25858.68
578.527	25731.7
578.725	25885.3
578.923	25375.36
579.121	25012.87
579.319	25135.74
579.516	25244.29
579.714	25160.32
579.912	25107.07
580.11	24803.97
580.308	25041.54
580.506	24984.19
580.704	24398.48
580.901	24554.12
581.099	24846.98
581.297	24539.79
581.495	24658.57
581.692	24593.03
581.89	24488.59
582.088	24500.87
582.285	24320.65
582.483	24425.1
582.681	24412.81
582.878	24099.47
583.076	23751.32
583.274	24230.54
583.471	23792.28
583.669	23923.35
583.866	23845.52
584.064	24015.51
584.262	23306.91
584.459	23906.96
584.657	23526.04
584.854	23734.93
585.052	23001.76
585.249	23732.89
585.447	23460.51
585.644	23003.81
585.841	23161.5
586.039	23272.09
586.236	22819.49
586.434	22801.06
586.631	22442.67
586.828	22747.81
587.026	23001.76
587.223	22903.46
587.42	22860.45
587.618	22854.31
587.815	22618.79
588.012	22397.61
588.21	22434.47
588.407	22823.59
588.604	22463.15
588.801	21977.78
588.999	21863.09
589.196	21852.85
589.393	22022.83
589.59	22149.81
589.787	21516.98
589.984	22155.95
590.182	21646.01
590.379	21623.48
590.576	21598.9
590.773	21717.68
590.97	21527.22
591.167	21433.02
591.364	21322.43
591.561	21236.41
591.758	21267.13
591.955	21127.87
592.152	21519.03
592.349	21334.71
592.546	21091.01
592.743	20890.31
592.94	20771.52
593.137	20925.12
593.334	21101.25
593.531	20345.55
593.727	20964.03
593.924	20677.32
594.121	20333.26
594.318	20742.85
594.515	20288.2
594.712	20611.78
594.908	20396.74
595.105	20359.88
595.302	20187.85
595.499	20423.37
595.696	20269.77
595.892	19882.7
596.089	19831.51
596.286	19995.34
596.482	19858.13
596.679	19802.83
596.876	19800.79
597.072	19241.69
597.269	19727.06
597.466	19563.22
597.662	19544.79
597.859	19731.15
598.055	19446.49
598.252	19403.48
598.448	19378.9
598.645	19086.04
598.841	18844.38
599.038	19143.39
599.234	19172.06
599.431	18670.31
599.627	18801.38
599.824	19036.89
600.02	18510.57
600.217	19020.51
600.413	18938.59
600.609	18395.88
600.806	18584.29
601.002	18414.31
601.198	18483.94
601.395	18488.04
601.591	18176.75
601.787	18494.18
601.984	18117.36
602.18	18574.05
602.376	18305.77
602.572	17939.18
602.769	18217.71
602.965	17734.39
603.161	18084.59
603.357	17718
603.553	18000.62
603.75	17779.44
603.946	17793.78
604.142	17885.94
604.338	17464.05
604.534	17847.02
604.73	17439.48
604.926	17130.23
605.122	17361.66
605.318	17263.35
605.514	17058.56
605.71	17160.95
605.906	17019.64
606.102	17365.75
606.298	17105.66
606.494	17072.89
606.69	17392.37
606.886	17261.3
607.082	16843.52
607.278	16995.07
607.474	16710.4
607.67	16755.46
607.866	16556.8
608.062	16790.27
608.257	16548.61
608.453	16438.02
608.649	16665.35
608.845	16771.84
609.041	16579.33
609.236	16605.95
609.432	16229.13
609.628	16247.56
609.824	16458.5
610.019	16384.77
610.215	16319.24
610.411	16446.21
610.606	16163.59
610.802	16190.22
610.998	16155.4
611.193	16306.95
611.389	16177.93
611.584	16016.14
611.78	16030.48
611.976	15831.82
612.171	15803.15
612.367	15944.46
612.562	16030.48
612.758	15809.29
612.953	15782.67
613.149	15993.61
613.344	15524.63
613.539	15860.49
613.735	15710.99
613.93	15862.54
614.126	15536.91
614.321	15919.89
614.517	15684.37
614.712	15467.28
614.907	15450.9
615.103	15573.78
615.298	15371.03
615.493	15733.52
615.688	15291.16
615.884	15770.38
616.079	15209.24
616.274	15557.39
616.47	15072.03
616.665	15323.93
616.86	15164.18
617.055	15225.62
617.25	15227.67
617.445	15149.85
617.641	14895.9
617.836	15018.78
618.031	14842.65
618.226	15293.21
618.421	14730.02
618.616	15045.4
618.811	14646.05
619.006	15039.26
619.201	14447.4
619.396	14760.73
619.591	14428.96
619.786	14650.14
619.981	14258.98
620.176	14439.2
620.371	14250.79
620.566	14394.15
620.761	14187.3
620.956	14093.1
621.151	13916.97
621.346	14248.74
621.541	13683.5
621.735	14072.62
621.93	13630.26
622.125	13837.1
622.32	13568.82
622.515	13425.46
622.709	13630.26
622.904	13617.97
623.099	13437.75
623.294	13478.71
623.488	13337.4
623.683	13415.22
623.878	13284.15
624.072	13202.23
624.267	13138.74
624.462	13101.88
624.656	12913.47
624.851	12725.05
625.046	12784.44
625.24	12645.18
625.435	12665.66
625.629	12602.18
625.824	12573.5
626.018	12282.69
626.213	12268.36
626.407	12368.71
626.602	12219.21
626.796	12352.32
626.991	12325.7
627.185	11938.63
627.38	12006.22
627.574	11826
627.768	11684.69
627.963	11707.21
628.157	11678.54
628.352	11645.77
628.546	11416.4
628.74	11455.31
628.935	11572.05
629.129	11672.4
629.323	11295.57
629.517	11592.53
629.712	11264.85
629.906	11062.1
630.1	11182.93
630.294	11092.82
630.489	11156.31
630.683	11047.77
630.877	10982.23
631.071	10687.32
631.265	10953.56
631.459	10595.17
631.653	10556.25
631.848	10541.92
632.042	10474.34
632.236	10556.25
632.43	10416.99
632.624	10373.99
632.818	10101.61
633.012	10263.4
633.206	10201.96
633.4	10208.1
633.594	10089.32
633.788	10036.07
633.982	10107.75
634.176	10017.64
634.369	9786.22
634.563	10163.04
634.757	9780.07
634.951	9825.13
635.145	9952.1
635.339	9847.66
635.533	9593.71
635.726	9542.51
635.92	9417.58
636.114	9399.15
636.308	9567.09
636.501	9546.61
636.695	9436.02
636.889	9331.57
637.083	9118.58
637.276	9016.18
637.47	9163.64
637.664	9091.96
637.857	9044.85
638.051	8958.84
638.244	8887.16
638.438	8729.47
638.632	8659.84
638.825	8823.67
639.019	8768.38
639.212	8512.38
639.406	8692.6
639.599	8639.36
639.793	8706.94
639.986	8426.37
640.18	8403.84
640.373	8399.74
640.567	8385.41
640.76	8459.13
640.954	8139.65
641.147	8149.89
641.34	8303.49
641.534	8070.02
641.727	8174.47
641.92	8213.38
642.114	7977.86
642.307	7902.09
642.5	7930.76
642.694	7801.74
642.887	7803.78
643.08	7840.65
643.273	7881.61
643.467	7697.29
643.66	7639.95
643.853	7691.15
644.046	7639.95
644.239	7764.87
644.432	7338.9
644.626	7510.93
644.819	7474.06
645.012	7283.6
645.205	7422.86
645.398	7252.88
645.591	7201.68
645.784	7187.35
645.977	7183.25
646.17	7179.15
646.363	7164.82
646.556	7052.18
646.749	7023.51
646.942	7101.33
647.135	6878.1
647.328	6935.45
647.521	6927.25
647.714	6640.54
647.907	6955.93
648.099	6890.39
648.292	6740.89
648.485	6771.61
648.678	6765.46
648.871	6521.76
649.064	6634.39
649.256	6558.62
649.449	6548.38
649.642	6472.61
649.835	6423.45
650.027	6345.63
650.22	6423.45
650.413	6175.65
650.605	6192.03
650.798	6296.48
650.991	6179.75
651.183	6187.94
651.376	6161.31
651.568	6134.69
651.761	6204.32
651.954	6058.92
652.146	6077.35
652.339	6052.77
652.531	6101.92
652.724	5854.12
652.916	5858.21
653.109	5759.91
653.301	5845.93
653.494	5813.16
653.686	5747.62
653.879	5987.24
654.071	5872.55
654.263	5774.25
654.456	5659.56
654.648	5850.02
654.84	5555.12
655.033	5522.35
655.225	5612.46
655.417	5450.67
655.61	5667.75
655.802	5505.96
655.994	5460.91
656.186	5354.41
656.379	5411.76
656.571	5264.3
656.763	5350.32
656.955	5290.93
657.148	5338.03
657.34	5340.08
657.532	5256.11
657.724	5202.86
657.916	5125.04
658.108	5299.12
658.3	5022.64
658.492	5202.86
658.684	4993.97
658.876	5024.69
659.068	5028.79
659.26	5049.27
659.452	5034.93
659.644	4821.94
659.836	4930.48
660.028	4811.7
660.22	4805.56
660.412	4727.74
660.604	4821.94
660.796	4713.4
660.988	4649.91
661.18	4711.35
661.372	4602.81
661.563	4789.17
661.755	4719.54
661.947	4588.47
662.139	4701.11
662.331	4543.42
662.522	4449.21
662.714	4510.65
662.906	4416.44
663.097	4516.8
663.289	4510.65
663.481	4363.2
663.673	4383.68
663.864	4338.62
664.056	4314.05
664.247	4182.98
664.439	4240.32
664.631	4219.84
664.822	4215.74
665.014	4330.43
665.205	4240.32
665.397	4264.89
665.588	4191.17
665.78	4101.06
665.971	4158.4
666.163	4268.99
666.354	4068.29
666.546	3929.03
666.737	3926.98
666.929	4027.33
667.12	3929.03
667.311	4060.1
667.503	3863.49
667.694	3892.16
667.885	3783.62
668.077	3904.45
668.268	3847.11
668.459	3855.3
668.651	3986.37
668.842	3834.82
669.033	3857.35
669.224	3740.61
669.416	3871.68
669.607	3568.59
669.798	3818.44
669.989	3654.6
670.18	3650.5
670.371	3677.13
670.563	3640.26
670.754	3675.08
670.945	3589.07
671.136	3736.52
671.327	3517.39
671.518	3552.2
671.709	3666.89
671.9	3458
672.091	3552.2
672.282	3421.13
672.473	3437.52
672.664	3519.43
672.855	3447.76
673.046	3404.75
673.237	3384.27
673.428	3398.6
673.619	3408.84
673.809	3410.89
674	3388.36
674.191	3410.89
674.382	3232.72
674.573	3369.93
674.764	3302.35
674.954	3437.52
675.145	3163.09
675.336	3267.53
675.527	3240.91
675.717	3279.82
675.908	3142.61
676.099	3169.23
676.289	3294.16
676.48	3253.2
676.671	3128.27
676.861	3167.18
677.052	3228.62
677.243	3191.76
677.433	3169.23
677.624	3218.38
677.814	3062.74
678.005	3232.72
678.195	3134.42
678.386	3111.89
678.576	3062.74
678.767	3087.31
678.957	3185.62
679.148	3199.95
679.338	3169.23
679.529	3003.35
679.719	3001.3
679.909	3130.32
680.1	3048.4
680.29	3126.22
680.481	2882.52
680.671	2948.05
680.861	3021.78
681.052	2991.06
681.242	3027.92
681.432	3023.83
681.622	3009.49
681.813	2888.66
682.003	2907.09
682.193	2954.19
682.383	2991.06
682.573	2839.51
682.764	2937.81
682.954	2978.77
683.144	3015.63
683.334	2921.43
683.524	2950.1
683.714	2831.32
683.904	2827.22
684.094	2849.75
684.284	2833.36
684.474	2790.36
684.664	2837.46
684.854	2782.17
685.044	2872.28
685.234	2753.49
685.424	2716.63
685.614	2757.59
685.804	2659.29
685.994	2642.9
686.184	2905.04
686.374	2724.82
686.564	2612.18
686.753	2751.45
686.943	2749.4
687.133	2618.33
687.323	2651.1
687.513	2675.67
687.702	2634.71
687.892	2634.71
688.082	2624.47
688.272	2603.99
688.461	2569.18
688.651	2636.76
688.841	2569.18
689.03	2487.26
689.22	2548.7
689.41	2513.88
689.599	2610.14
689.789	2483.16
689.979	2487.26
690.168	2470.87
690.358	2382.81
690.547	2456.54
690.737	2454.49
690.926	2438.11
691.116	2509.79
691.305	2460.63
691.495	2286.56
691.684	2286.56
691.874	2454.49
692.063	2374.62
692.252	2423.77
692.442	2417.63
692.631	2319.32
692.82	2206.69
693.01	2247.65
693.199	2300.89
693.388	2300.89
693.578	2282.46
693.767	2362.33
693.956	2286.56
694.146	2247.65
694.335	2249.69
694.524	2309.08
694.713	2259.93
694.902	2294.75
695.092	2249.69
695.281	2202.59
695.47	2188.25
695.659	2171.87
695.848	2102.24
696.037	2094.05
696.226	2130.91
696.415	2126.82
696.604	2268.13
696.793	2128.86
696.982	2098.14
697.171	2233.31
697.36	2122.72
697.549	2200.54
697.738	2184.16
697.927	2186.21
698.116	2184.16
698.305	2159.58
698.494	2173.92
698.683	2077.66
698.872	2106.34
699.061	2169.82
699.25	2065.38
699.438	2110.43
699.627	2040.8
699.816	2098.14
700.005	2096.1
700.193	2055.14
700.382	2044.9
700.571	2032.61
700.76	2110.43
700.948	2053.09
701.137	2048.99
701.326	2112.48
701.514	1977.31
701.703	2081.76
701.892	1954.79
702.08	2104.29
702.269	2081.76
702.457	1995.75
702.646	1995.75
702.834	2001.89
703.023	2077.66
703.212	2020.32
703.4	1954.79
703.589	1922.02
703.777	2024.42
703.965	1934.31
704.154	1979.36
704.342	2053.09
704.531	2044.9
704.719	1962.98
704.907	1987.55
705.096	1954.79
705.284	1975.27
705.472	1848.29
705.661	2018.27
705.849	2104.29
706.037	1897.44
706.226	1924.07
706.414	2028.51
706.602	1913.83
706.79	1934.31
706.979	1905.63
707.167	1977.31
707.355	1827.81
707.543	1803.24
707.731	2003.94
707.919	2053.09
708.107	1924.07
708.296	1938.4
708.484	1901.54
708.672	1838.05
708.86	1938.4
709.048	1915.87
709.236	1831.91
709.424	1915.87
709.612	1958.88
709.8	1893.35
709.988	1928.16
710.176	1983.46
710.364	2020.32
710.551	1811.43
710.739	1926.11
710.927	1905.63
711.115	1833.96
711.303	1866.72
711.491	1997.79
711.679	1864.68
711.866	1872.87
712.054	1944.55
712.242	1928.16
712.43	1829.86
712.617	2001.89
712.805	1954.79
712.993	1899.49
713.181	1749.99
713.368	1885.16
713.556	1749.99
713.744	1891.3
713.931	1942.5
714.119	1946.59
714.306	1934.31
714.494	1833.96
714.682	2046.94
714.869	1893.35
715.057	1911.78
715.244	1868.77
715.432	1991.65
715.619	1940.45
715.807	1905.63
715.994	1831.91
716.182	1854.44
716.369	1969.12
716.556	1932.26
716.744	1903.59
716.931	1817.57
717.119	1936.35
717.306	1954.79
717.493	1919.97
717.681	1956.83
717.868	1971.17
718.055	1879.01
718.242	1889.25
718.43	1971.17
718.617	1852.39
718.804	1907.68
718.991	1885.16
719.179	1827.81
719.366	1965.03
719.553	1905.63
719.74	1962.98
719.927	1999.84
720.114	1905.63
720.301	1807.33
720.488	1815.52
720.676	1790.95
720.863	1850.34
721.05	1926.11
721.237	1874.92
721.424	1889.25
721.611	1952.74
721.798	1944.55
721.985	1811.43
722.172	1928.16
722.358	1928.16
722.545	1942.5
722.732	1790.95
722.919	1795.04
723.106	1889.25
723.293	1780.71
723.48	1840.1
723.667	1784.8
723.853	1848.29
724.04	1948.64
724.227	1930.21
724.414	1930.21
724.6	1926.11
724.787	1907.68
724.974	1866.72
725.161	1805.28
725.347	1823.72
725.534	1874.92
725.72	1891.3
725.907	1795.04
726.094	1950.69
726.28	1811.43
726.467	1801.19
726.653	1778.66
726.84	1846.24
727.027	1969.12
727.213	1889.25
727.4	1907.68
727.586	1956.83
727.773	1971.17
727.959	1899.49
728.145	1969.12
728.332	1838.05
728.518	1905.63
728.705	1922.02
728.891	1829.86
729.077	1850.34
729.264	1897.44
729.45	1965.03
729.636	1909.73
729.823	1809.38
730.009	1946.59
730.195	1889.25
730.382	1942.5
730.568	1813.48
730.754	1876.96
730.94	1862.63
731.126	1831.91
731.313	1866.72
731.499	1760.23
731.685	1823.72
731.871	1858.53
732.057	1870.82
732.243	1922.02
732.429	1848.29
732.615	1956.83
732.801	1766.37
732.987	1774.56
733.173	1836
733.359	1868.77
733.545	1860.58
733.731	1784.8
733.917	1860.58
734.103	1817.57
734.289	1831.91
734.475	1790.95
734.661	1917.92
734.847	1833.96
735.033	1723.37
735.219	1854.44
735.404	1831.91
735.59	1795.04
735.776	1801.19
735.962	1723.37
736.148	1760.23
736.333	1749.99
736.519	1627.11
736.705	1852.39
736.89	1774.56
737.076	1770.47
737.262	1741.8
737.447	1727.46
737.633	1735.65
737.819	1817.57
738.004	1780.71
738.19	1811.43
738.375	1793
738.561	1749.99
738.747	1749.99
738.932	1741.8
739.118	1774.56
739.303	1741.8
739.489	1776.61
739.674	1846.24
739.859	1735.65
740.045	1709.03
740.23	1782.76
740.416	1790.95
740.601	1635.3
740.786	1737.7
740.972	1764.33
741.157	1684.45
741.342	1768.42
741.528	1577.96
741.713	1713.13
741.898	1694.69
742.084	1647.59
742.269	1770.47
742.454	1631.21
742.639	1668.07
742.824	1670.12
743.01	1686.5
743.195	1696.74
743.38	1655.78
743.565	1522.66
743.75	1582.06
743.935	1618.92
744.12	1557.48
744.305	1629.16
744.49	1614.82
744.675	1563.62
744.86	1651.69
745.045	1655.78
745.23	1625.06
745.415	1610.73
745.6	1602.54
745.785	1612.78
745.97	1549.29
746.155	1465.32
746.34	1508.33
746.525	1528.81
746.71	1561.58
746.895	1459.18
747.079	1487.85
747.264	1498.09
747.449	1637.35
747.634	1508.33
747.819	1532.9
748.003	1518.57
748.188	1422.31
748.373	1483.75
748.557	1473.51
748.742	1500.14
748.927	1340.4
749.111	1426.41
749.296	1420.27
749.481	1440.75
749.665	1459.18
749.85	1414.12
750.034	1465.32
750.219	1362.92
750.404	1289.2
750.588	1342.44
750.773	1328.11
750.957	1356.78
751.141	1315.82
751.326	1324.01
751.51	1309.68
751.695	1338.35
751.879	1391.59
752.064	1362.92
752.248	1356.78
752.432	1291.24
752.617	1248.24
752.801	1354.73
752.985	1303.53
753.17	1258.48
753.354	1291.24
753.538	1178.61
753.722	1162.22
753.907	1248.24
754.091	1246.19
754.275	1242.09
754.459	1172.46
754.643	1178.61
754.828	1178.61
755.012	1194.99
755.196	1080.3
755.38	1180.65
755.564	1184.75
755.748	1145.84
755.932	1168.37
756.116	1186.8
756.3	1063.92
756.484	1008.62
756.668	996.34
756.852	1020.91
757.036	1102.83
757.22	1137.65
757.404	1031.15
757.588	1035.25
757.772	1072.11
757.956	1162.22
758.14	1068.02
758.323	1082.35
758.507	979.95
758.691	1047.54
758.875	1031.15
759.059	1006.58
759.242	1008.62
759.426	975.86
759.61	924.66
759.794	930.8
759.977	941.04
760.161	977.91
760.345	1027.06
760.528	1014.77
760.712	893.94
760.895	924.66
761.079	938.99
761.263	932.85
761.446	836.6
761.63	973.81
761.813	889.84
761.997	922.61
762.18	938.99
762.364	891.89
762.547	789.49
762.731	836.6
762.914	996.34
763.098	885.75
763.281	912.37
763.464	820.21
763.648	908.27
763.831	793.59
764.015	857.07
764.198	961.52
764.381	869.36
764.564	883.7
764.748	867.31
764.931	932.85
765.114	818.16
765.297	900.08
765.481	816.12
765.664	809.97
765.847	803.83
766.03	840.69
766.213	869.36
766.397	848.88
766.58	764.92
766.763	895.99
766.946	730.1
767.129	783.35
767.312	803.83
767.495	750.58
767.678	840.69
767.861	793.59
768.044	891.89
768.227	801.78
768.41	795.64
768.593	758.77
768.776	746.48
768.959	730.1
769.142	754.68
769.324	758.77
769.507	734.2
769.69	758.77
769.873	760.82
770.056	957.43
770.239	728.05
770.421	711.67
770.604	785.4
770.787	818.16
770.97	758.77
771.152	717.81
771.335	783.35
771.518	701.43
771.7	717.81
771.883	750.58
772.066	709.62
772.248	709.62
772.431	676.85
772.613	674.81
772.796	662.52
772.978	695.29
773.161	793.59
773.343	754.68
773.526	670.71
773.708	672.76
773.891	629.75
774.073	656.37
774.256	687.09
774.438	723.96
774.621	713.72
774.803	646.13
774.985	594.93
775.168	734.2
775.35	621.56
775.532	572.41
775.715	660.47
775.897	586.74
776.079	500.73
776.261	734.2
776.444	553.98
776.626	619.51
776.808	498.68
776.99	578.55
777.173	586.74
777.355	603.13
777.537	605.17
777.719	558.07
777.901	553.98
778.083	576.5
778.265	504.82
778.447	558.07
778.629	590.84
778.811	572.41
778.993	535.54
779.175	562.17
779.357	615.41
779.539	562.17
779.721	549.88
779.903	529.4
780.085	488.44
780.267	627.7
780.449	529.4
780.631	562.17
780.812	572.41
780.994	558.07
781.176	515.06
781.358	562.17
781.54	451.58
781.721	521.21
781.903	525.3
782.085	547.83
782.267	562.17
782.448	480.25
782.63	439.29
782.812	445.43
782.993	465.91
783.175	488.44
783.357	523.26
783.538	521.21
783.72	381.95
783.901	439.29
784.083	418.81
784.264	310.27
784.446	429.05
784.627	414.71
784.809	447.48
784.99	455.67
785.172	383.99
785.353	398.33
785.535	418.81
785.716	402.43
785.897	359.42
786.079	441.34
786.26	367.61
786.441	367.61
786.623	277.5
786.804	328.7
786.985	285.69
787.167	424.95
787.348	377.85
787.529	435.19
787.71	465.91
787.891	379.9
788.073	443.39
788.254	328.7
788.435	373.75
788.616	291.84
788.797	349.18
788.978	242.68
789.159	332.79
789.34	361.47
789.522	318.46
789.703	365.56
789.884	351.23
790.065	388.09
790.246	416.76
790.427	226.3
790.607	369.66
790.788	336.89
790.969	261.12
791.15	261.12
791.331	302.08
791.512	375.8
791.693	248.83
791.874	310.27
792.054	381.95
792.235	392.19
792.416	302.08
792.597	308.22
792.778	254.97
792.958	236.54
793.139	216.06
793.32	373.75
793.5	302.08
793.681	312.32
793.862	238.59
794.042	267.26
794.223	283.64
794.404	242.68
794.584	277.5
794.765	318.46
794.945	271.36
795.126	259.07
795.306	271.36
795.487	316.41
795.667	224.25
795.848	214.01
796.028	300.03
796.209	261.12
796.389	291.84
796.57	234.49
796.75	330.75
796.93	228.35
797.111	312.32
797.291	259.07
797.471	220.16
797.652	201.72
797.832	259.07
798.012	250.88
798.192	234.49
798.373	318.46
798.553	209.92
798.733	205.82
798.913	185.34
799.093	205.82
799.274	267.26
799.454	259.07
799.634	195.58
799.814	244.73
799.994	199.68
800.174	209.92
800.354	148.48
800.534	236.54
800.714	226.3
800.894	171.01
801.074	201.72
801.254	93.18
801.434	259.07
801.614	240.64
801.794	164.86
801.974	697.33
802.154	138.24
802.334	279.55
802.514	119.81
802.693	123.9
802.873	242.68
803.053	211.96
803.233	226.3
803.413	130.05
803.592	211.96
803.772	201.72
803.952	203.77
804.131	160.77
804.311	189.44
804.491	193.53
804.67	91.13
804.85	173.05
805.03	185.34
805.209	226.3
805.389	168.96
805.568	160.77
805.748	130.05
805.928	261.12
806.107	211.96
806.287	209.92
806.466	152.57
806.646	177.15
806.825	179.2
807.004	156.67
807.184	109.57
807.363	123.9
807.543	189.44
807.722	187.39
807.901	211.96
808.081	211.96
808.26	146.43
808.439	154.62
808.619	125.95
808.798	234.49
808.977	156.67
809.156	111.61
809.336	226.3
809.515	252.92
809.694	78.85
809.873	72.7
810.052	144.38
810.231	189.44
810.411	187.39
810.59	148.48
810.769	125.95
810.948	132.09
811.127	115.71
811.306	101.37
811.485	123.9
811.664	164.86
811.843	91.13
812.022	185.34
812.201	144.38
812.38	152.57
812.559	156.67
812.737	220.16
812.916	160.77
813.095	152.57
813.274	111.61
813.453	119.81
813.632	115.71
813.811	80.89
813.989	78.85
814.168	103.42
814.347	66.56
814.526	123.9
814.704	171.01
814.883	146.43
815.062	119.81
815.24	193.53
815.419	125.95
815.598	183.29
815.776	70.65
815.955	128
816.133	70.65
816.312	91.13
816.49	160.77
816.669	66.56
816.847	74.75
817.026	115.71
817.204	74.75
817.383	136.19
817.561	105.47
817.74	99.33
817.918	119.81
818.097	87.04
818.275	130.05
818.453	93.18
818.632	144.38
818.81	70.65
818.988	91.13
819.167	107.52
819.345	105.47
819.523	87.04
819.701	50.18
819.879	168.96
820.058	105.47
820.236	107.52
820.414	68.61
820.592	128
820.77	119.81
820.948	103.42
821.127	89.09
821.305	132.09
821.483	91.13
821.661	136.19
821.839	78.85
822.017	-3.07
822.195	95.23
822.373	50.18
822.551	44.03
822.729	33.79
822.907	58.37
823.085	115.71
823.262	58.37
823.44	89.09
823.618	173.05
823.796	58.37
823.974	115.71
824.152	54.27
824.329	80.89
824.507	48.13
824.685	95.23
824.863	113.66
825.04	95.23
825.218	134.14
825.396	64.51
825.574	107.52
825.751	46.08
825.929	195.58
826.107	58.37
826.284	37.89
826.462	144.38
826.639	72.7
826.817	25.6
826.994	87.04
827.172	21.5
827.349	166.91
827.527	15.36
827.704	56.32
827.882	68.61
828.059	121.85
828.237	82.94
828.414	103.42
828.591	52.22
828.769	78.85
828.946	35.84
829.124	134.14
829.301	25.6
829.478	37.89
829.655	46.08
829.833	78.85
830.01	15.36
830.187	-17.41
830.364	74.75
830.542	103.42
830.719	82.94
830.896	84.99
831.073	58.37
831.25	119.81
831.427	48.13
831.604	95.23
831.782	50.18
831.959	107.52
832.136	54.27
832.313	119.81
832.49	-9.22
832.667	99.33
832.844	119.81
833.021	119.81
833.198	21.5
833.374	70.65
833.551	-3.07
833.728	29.7
833.905	54.27
834.082	-1.02
834.259	70.65
834.436	66.56
834.612	25.6
834.789	121.85
834.966	50.18
835.143	11.26
835.319	25.6
835.496	95.23
835.673	13.31
835.85	54.27
836.026	121.85
836.203	5.12
836.38	7.17
836.556	21.5
836.733	35.84
836.909	80.89
837.086	-5.12
837.262	19.46
837.439	128
837.616	-1.02
837.792	60.42
837.968	39.94
838.145	54.27
838.321	54.27
838.498	37.89
838.674	46.08
838.851	50.18
839.027	41.98
839.203	119.81
839.38	-15.36
839.556	87.04
839.732	29.7
839.909	58.37
840.085	15.36
840.261	9.22
840.437	54.27
840.614	19.46
840.79	-11.26
840.966	15.36
841.142	13.31
841.318	37.89
841.494	9.22
841.671	78.85
841.847	-23.55
842.023	50.18
842.199	70.65
842.375	44.03
842.551	66.56
842.727	60.42
842.903	130.05
843.079	39.94
843.255	64.51
843.431	44.03
843.607	87.04
843.783	-80.89
843.959	39.94
844.134	-1.02
844.31	76.8
844.486	62.46
844.662	-44.03
844.838	-19.46
845.013	44.03
845.189	113.66
845.365	-19.46
845.541	78.85
845.716	-5.12
845.892	62.46
846.068	33.79
846.244	21.5
846.419	72.7
846.595	-23.55
846.77	-15.36
846.946	62.46
847.122	130.05
847.297	13.31
847.473	21.5
847.648	23.55
847.824	76.8
847.999	-15.36
848.175	60.42
848.35	121.85
848.526	31.74
848.701	105.47
848.876	76.8
849.052	7.17
849.227	95.23
849.403	39.94
849.578	21.5
849.753	70.65
849.929	37.89
850.104	-44.03
850.279	13.31
850.454	-46.08
850.63	80.89
850.805	39.94
850.98	21.5
851.155	39.94
851.33	70.65
851.505	15.36
851.681	91.13
851.856	19.46
852.031	37.89
852.206	13.31
852.381	101.37
852.556	-19.46
852.731	39.94
852.906	70.65
853.081	17.41
853.256	70.65
853.431	-11.26
853.606	25.6
853.781	46.08
853.956	-44.03
854.131	41.98
854.305	-23.55
854.48	-5.12
854.655	7.17
854.83	37.89
855.005	29.7
855.18	21.5
855.354	62.46
855.529	1.02
855.704	-35.84
855.879	25.6
856.053	-1.02
856.228	13.31
856.403	-107.52
856.577	89.09
856.752	23.55
856.926	-9.22
857.101	31.74
857.276	58.37
857.45	41.98
857.625	74.75
857.799	39.94
857.974	64.51
858.148	-11.26
858.323	-3.07
858.497	-17.41
858.672	-21.5
858.846	-66.56
859.02	52.22
859.195	-11.26
859.369	11.26
859.543	54.27
859.718	44.03
859.892	1.02
860.066	-9.22
860.241	-15.36
860.415	-23.55
860.589	-35.84
860.763	7.17
860.938	-68.61
861.112	-52.22
861.286	27.65
861.46	58.37
861.634	27.65
861.808	66.56
861.982	5.12
862.157	101.37
862.331	15.36
862.505	-31.74
862.679	11.26
862.853	-27.65
863.027	19.46
863.201	64.51
863.375	-3.07
863.549	3.07
863.722	52.22
863.896	66.56
864.07	-19.46
864.244	-41.98
864.418	50.18
864.592	89.09
864.766	-80.89
864.939	-3.07
865.113	13.31
865.287	56.32
865.461	-68.61
865.634	29.7
865.808	-11.26
865.982	-35.84
866.156	25.6
866.329	-3.07
866.503	-9.22
866.676	29.7
866.85	-39.94
867.024	-27.65
867.197	1.02
867.371	15.36
867.544	17.41
867.718	-23.55
867.891	11.26
868.065	-9.22
868.238	-9.22
868.412	89.09
868.585	13.31
868.759	70.65
868.932	-50.18
869.105	-5.12
869.279	5.12
869.452	23.55
869.625	-9.22
869.799	23.55
869.972	31.74
870.145	76.8
870.319	23.55
870.492	-60.42
870.665	-46.08
870.838	7.17
871.011	-44.03
871.185	-1.02
871.358	95.23
871.531	48.13
871.704	-39.94
871.877	-33.79
872.05	-39.94
872.223	1.02
872.396	15.36
872.569	13.31
872.742	-64.51
872.915	62.46
873.088	11.26
873.261	54.27
873.434	-25.6
873.607	27.65
873.78	-7.17
873.953	27.65
874.126	-44.03
874.299	-52.22
874.471	31.74
874.644	-23.55
874.817	7.17
874.99	23.55
875.163	-7.17
875.335	-3.07
875.508	39.94
875.681	5.12
875.853	5.12
876.026	-1.02
876.199	41.98
876.371	58.37
876.544	21.5
876.717	-31.74
876.889	-44.03
877.062	5.12
877.234	21.5
877.407	39.94
877.579	-39.94
877.752	17.41
877.924	89.09
878.097	60.42
878.269	-3.07
878.442	5.12
878.614	-9.22
878.786	58.37
878.959	72.7
879.131	58.37
879.303	-50.18
879.476	-48.13
879.648	103.42
879.82	-27.65
879.993	-15.36
880.165	21.5
880.337	-19.46
880.509	15.36
880.681	-25.6
880.854	78.85
881.026	1.02
881.198	21.5
881.37	23.55
881.542	-1.02
881.714	-44.03
881.886	37.89
882.058	-13.31
882.23	-9.22
882.402	5.12
882.574	80.89
882.746	99.33
882.918	31.74
883.09	27.65
883.262	-17.41
883.434	-89.09
883.606	-48.13
883.778	-48.13
883.95	5.12
884.122	107.52
884.293	95.23
884.465	46.08
884.637	-31.74
884.809	46.08
884.98	58.37
885.152	-7.17
885.324	84.99
885.496	64.51
885.667	66.56
885.839	-23.55
886.011	154.62
886.182	66.56
886.354	25.6
886.525	54.27
886.697	3.07
886.869	-84.99
887.04	25.6
887.212	-11.26
887.383	31.74
887.555	62.46
887.726	27.65
887.897	13.31
888.069	82.94
888.24	31.74
888.412	13.31
888.583	-44.03
888.754	-1.02
888.926	-31.74
889.097	-82.94
889.268	13.31
889.44	-33.79
889.611	11.26
889.782	-3.07
889.953	-35.84
890.125	-9.22
890.296	-35.84
890.467	56.32
890.638	-35.84
890.809	-3.07
890.98	-125.95
891.151	70.65
891.323	54.27
891.494	50.18
891.665	-15.36
891.836	-7.17
892.007	15.36
892.178	99.33
892.349	70.65
892.52	-13.31
892.691	33.79
892.862	-11.26
893.032	-44.03
893.203	31.74
893.374	5.12
893.545	-31.74
893.716	-23.55
893.887	9.22
894.057	-35.84
894.228	-31.74
894.399	-11.26
894.57	25.6
894.74	-15.36
894.911	15.36
895.082	13.31
895.253	56.32
895.423	33.79
895.594	-27.65
895.764	11.26
895.935	-27.65
896.106	25.6
896.276	33.79
896.447	-93.18
896.617	13.31
896.788	-60.42
896.958	-44.03
897.129	-1.02
897.299	5.12
897.47	-7.17
897.64	95.23
897.81	-27.65
897.981	29.7
898.151	-1.02
898.322	5.12
898.492	-58.37
898.662	-25.6
898.832	-48.13
899.003	-33.79
899.173	58.37
899.343	-9.22
899.513	-66.56
