Data from USB4F104151__252__14-45-55-001.txt Node

Date: Thu Mar 13 14:45:55 EDT 2025
User: louis
Spectrometer: USB4F10415
Trigger mode: 4
Integration Time (sec): 2.000000E-2
Scans to average: 1
Electric dark correction enabled: true
Nonlinearity correction enabled: false
Boxcar width: 0
XAxis mode: Wavelengths
Number of Pixels in Spectrum: 3648
>>>>>Begin Spectral Data<<<<<
178.204	-86.7
178.424	-86.7
178.644	-86.7
178.864	-103.08
179.084	-90.79
179.304	-49.83
179.524	5.46
179.744	-8.87
179.964	-6.83
180.184	7.51
180.404	32.08
180.624	15.7
180.844	15.7
181.064	-66.22
181.283	-29.35
181.503	19.8
181.723	64.85
181.943	11.61
182.163	-27.31
182.383	19.8
182.602	36.18
182.822	64.85
183.042	-15.02
183.262	-74.41
183.482	1.37
183.701	-39.59
183.921	11.61
184.141	-8.87
184.361	7.51
184.58	48.47
184.8	73.04
185.02	32.08
185.239	42.32
185.459	1.37
185.679	-49.83
185.898	-19.11
186.118	19.8
186.338	-6.83
186.557	81.24
186.777	-31.4
186.997	-17.07
187.216	-0.68
187.436	-31.4
187.655	-2.73
187.875	-10.92
188.095	11.61
188.314	-6.83
188.534	73.04
188.753	1.37
188.973	44.37
189.192	89.43
189.412	42.32
189.631	68.95
189.851	-8.87
190.07	75.09
190.29	81.24
190.509	-0.68
190.729	-4.78
190.948	54.61
191.168	150.87
191.387	56.66
191.607	56.66
191.826	23.89
192.045	89.43
192.265	19.8
192.484	-0.68
192.704	3.41
192.923	25.94
193.142	48.47
193.362	32.08
193.581	56.66
193.8	52.56
194.02	42.32
194.239	17.75
194.458	32.08
194.678	-0.68
194.897	7.51
195.116	17.75
195.335	27.99
195.555	93.52
195.774	30.04
195.993	48.47
196.212	40.28
196.432	-21.16
196.651	44.37
196.87	-8.87
197.089	71
197.308	48.47
197.528	-19.11
197.747	-74.41
197.966	48.47
198.185	93.52
198.404	-49.83
198.623	-2.73
198.842	-8.87
199.062	32.08
199.281	23.89
199.5	-4.78
199.719	50.52
199.938	30.04
200.157	32.08
200.376	75.09
200.595	73.04
200.814	-12.97
201.033	-23.21
201.252	-17.07
201.471	-17.07
201.69	23.89
201.909	46.42
202.128	73.04
202.347	11.61
202.566	52.56
202.785	-107.18
203.004	-62.12
203.223	23.89
203.442	19.8
203.661	40.28
203.879	-4.78
204.098	27.99
204.317	-0.68
204.536	93.52
204.755	64.85
204.974	-19.11
205.193	32.08
205.411	75.09
205.63	73.04
205.849	3.41
206.068	5.46
206.287	7.51
206.505	1.37
206.724	-0.68
206.943	-82.6
207.162	46.42
207.381	-15.02
207.599	7.51
207.818	-33.45
208.037	-31.4
208.255	-17.07
208.474	52.56
208.693	27.99
208.911	7.51
209.13	-12.97
209.349	85.33
209.567	23.89
209.786	64.85
210.005	40.28
210.223	7.51
210.442	-66.22
210.661	25.94
210.879	32.08
211.098	11.61
211.316	-41.64
211.535	-0.68
211.753	40.28
211.972	11.61
212.191	50.52
212.409	-33.45
212.628	23.89
212.846	21.85
213.065	-21.16
213.283	109.91
213.502	48.47
213.72	1.37
213.938	23.89
214.157	-31.4
214.375	17.75
214.594	42.32
214.812	32.08
215.031	44.37
215.249	-8.87
215.467	-25.26
215.686	17.75
215.904	-0.68
216.122	-49.83
216.341	-21.16
216.559	-64.17
216.778	9.56
216.996	17.75
217.214	-31.4
217.432	-45.74
217.651	21.85
217.869	7.51
218.087	7.51
218.306	-6.83
218.524	46.42
218.742	-4.78
218.96	38.23
219.179	25.94
219.397	32.08
219.615	56.66
219.833	27.99
220.051	-39.59
220.27	40.28
220.488	23.89
220.706	38.23
220.924	-8.87
221.142	89.43
221.36	-41.64
221.578	11.61
221.796	36.18
222.015	27.99
222.233	-31.4
222.451	44.37
222.669	13.65
222.887	-8.87
223.105	-82.6
223.323	-4.78
223.541	-33.45
223.759	-29.35
223.977	1.37
224.195	89.43
224.413	40.28
224.631	7.51
224.849	23.89
225.067	81.24
225.285	83.28
225.503	17.75
225.721	-68.27
225.939	5.46
226.157	30.04
226.375	50.52
226.592	11.61
226.81	-17.07
227.028	-0.68
227.246	81.24
227.464	-27.31
227.682	56.66
227.9	142.68
228.117	15.7
228.335	50.52
228.553	-33.45
228.771	3.41
228.989	-21.16
229.206	66.9
229.424	48.47
229.642	-21.16
229.86	-23.21
230.077	23.89
230.295	48.47
230.513	50.52
230.731	-8.87
230.948	1.37
231.166	-15.02
231.384	52.56
231.601	42.32
231.819	34.13
232.037	3.41
232.254	-8.87
232.472	17.75
232.689	-49.83
232.907	1.37
233.125	38.23
233.342	-0.68
233.56	-33.45
233.777	-21.16
233.995	9.56
234.213	-23.21
234.43	81.24
234.648	17.75
234.865	-31.4
235.083	89.43
235.3	23.89
235.518	-21.16
235.735	23.89
235.953	75.09
236.17	27.99
236.388	17.75
236.605	30.04
236.822	120.15
237.04	7.51
237.257	7.51
237.475	-29.35
237.692	21.85
237.909	44.37
238.127	85.33
238.344	-66.22
238.562	-15.02
238.779	-8.87
238.996	56.66
239.214	50.52
239.431	85.33
239.648	-45.74
239.865	23.89
240.083	34.13
240.3	-23.21
240.517	-33.45
240.735	-74.41
240.952	48.47
241.169	46.42
241.386	40.28
241.603	25.94
241.821	34.13
242.038	44.37
242.255	73.04
242.472	25.94
242.689	40.28
242.907	3.41
243.124	19.8
243.341	-4.78
243.558	64.85
243.775	9.56
243.992	42.32
244.209	15.7
244.426	36.18
244.643	50.52
244.86	1.37
245.078	89.43
245.295	-6.83
245.512	38.23
245.729	1.37
245.946	56.66
246.163	48.47
246.38	-55.98
246.597	50.52
246.814	-17.07
247.031	93.52
247.248	23.89
247.464	7.51
247.681	34.13
247.898	9.56
248.115	114
248.332	9.56
248.549	64.85
248.766	48.47
248.983	9.56
249.2	27.99
249.417	66.9
249.633	-41.64
249.85	-8.87
250.067	11.61
250.284	68.95
250.501	23.89
250.717	40.28
250.934	-70.31
251.151	-49.83
251.368	-45.74
251.585	83.28
251.801	-2.73
252.018	25.94
252.235	58.71
252.451	-31.4
252.668	-0.68
252.885	32.08
253.102	-8.87
253.318	-25.26
253.535	-55.98
253.752	-35.5
253.968	-43.69
254.185	9.56
254.401	-2.73
254.618	23.89
254.835	-49.83
255.051	64.85
255.268	19.8
255.484	-49.83
255.701	-58.03
255.917	60.76
256.134	32.08
256.351	54.61
256.567	-37.55
256.784	-8.87
257	17.75
257.217	40.28
257.433	19.8
257.65	109.91
257.866	64.85
258.082	-19.11
258.299	-8.87
258.515	7.51
258.732	25.94
258.948	-17.07
259.165	60.76
259.381	32.08
259.597	7.51
259.814	36.18
260.03	-4.78
260.246	50.52
260.463	1.37
260.679	111.96
260.895	11.61
261.112	83.28
261.328	40.28
261.544	-62.12
261.761	-0.68
261.977	-70.31
262.193	-15.02
262.409	19.8
262.626	15.7
262.842	56.66
263.058	56.66
263.274	13.65
263.49	32.08
263.707	-33.45
263.923	32.08
264.139	32.08
264.355	15.7
264.571	46.42
264.787	17.75
265.004	7.51
265.22	54.61
265.436	15.7
265.652	-6.83
265.868	27.99
266.084	73.04
266.3	32.08
266.516	-58.03
266.732	30.04
266.948	56.66
267.164	36.18
267.38	36.18
267.596	-45.74
267.812	19.8
268.028	64.85
268.244	-21.16
268.46	7.51
268.676	1.37
268.892	32.08
269.108	27.99
269.324	1.37
269.54	-41.64
269.756	105.81
269.972	-31.4
270.188	-8.87
270.403	11.61
270.619	13.65
270.835	-45.74
271.051	9.56
271.267	60.76
271.483	-4.78
271.698	1.37
271.914	66.9
272.13	23.89
272.346	85.33
272.562	-43.69
272.777	93.52
272.993	-49.83
273.209	66.9
273.425	36.18
273.64	19.8
273.856	58.71
274.072	68.95
274.287	-27.31
274.503	27.99
274.719	97.62
274.934	-0.68
275.15	-35.5
275.366	-25.26
275.581	-62.12
275.797	30.04
276.012	-12.97
276.228	7.51
276.444	23.89
276.659	52.56
276.875	-4.78
277.09	34.13
277.306	50.52
277.521	105.81
277.737	-64.17
277.952	138.58
278.168	68.95
278.383	25.94
278.599	-8.87
278.814	9.56
279.03	7.51
279.245	36.18
279.461	7.51
279.676	-41.64
279.892	1.37
280.107	66.9
280.322	17.75
280.538	56.66
280.753	-17.07
280.969	-6.83
281.184	50.52
281.399	107.86
281.615	25.94
281.83	23.89
282.045	9.56
282.26	23.89
282.476	-8.87
282.691	-25.26
282.906	9.56
283.122	-25.26
283.337	-29.35
283.552	52.56
283.767	30.04
283.983	56.66
284.198	19.8
284.413	-12.97
284.628	34.13
284.843	73.04
285.058	1.37
285.274	42.32
285.489	-25.26
285.704	-8.87
285.919	7.51
286.134	17.75
286.349	32.08
286.564	36.18
286.779	68.95
286.995	27.99
287.21	15.7
287.425	75.09
287.64	89.43
287.855	50.52
288.07	-49.83
288.285	68.95
288.5	73.04
288.715	-4.78
288.93	-15.02
289.145	27.99
289.36	-31.4
289.575	7.51
289.79	89.43
290.004	56.66
290.219	23.89
290.434	-66.22
290.649	7.51
290.864	93.52
291.079	48.47
291.294	32.08
291.509	81.24
291.724	11.61
291.938	-25.26
292.153	97.62
292.368	-0.68
292.583	60.76
292.798	40.28
293.012	-27.31
293.227	-25.26
293.442	-43.69
293.657	19.8
293.871	48.47
294.086	9.56
294.301	52.56
294.516	30.04
294.73	3.41
294.945	99.67
295.16	27.99
295.374	60.76
295.589	105.81
295.804	23.89
296.018	83.28
296.233	30.04
296.447	52.56
296.662	-66.22
296.877	52.56
297.091	-25.26
297.306	64.85
297.52	52.56
297.735	-8.87
297.949	34.13
298.164	44.37
298.378	38.23
298.593	64.85
298.807	-23.21
299.022	66.9
299.236	83.28
299.451	46.42
299.665	27.99
299.88	21.85
300.094	-17.07
300.309	15.7
300.523	-6.83
300.737	-15.02
300.952	-19.11
301.166	-15.02
301.381	-8.87
301.595	-23.21
301.809	1.37
302.024	56.66
302.238	73.04
302.452	93.52
302.667	-2.73
302.881	62.8
303.095	-4.78
303.309	77.14
303.524	-17.07
303.738	-12.97
303.952	-12.97
304.166	36.18
304.381	-90.79
304.595	25.94
304.809	15.7
305.023	7.51
305.237	-49.83
305.452	15.7
305.666	-35.5
305.88	-6.83
306.094	64.85
306.308	44.37
306.522	9.56
306.736	54.61
306.95	15.7
307.164	-4.78
307.379	1.37
307.593	-23.21
307.807	36.18
308.021	-58.03
308.235	25.94
308.449	-8.87
308.663	40.28
308.877	56.66
309.091	-6.83
309.305	66.9
309.519	-19.11
309.733	114
309.947	-4.78
310.161	-4.78
310.374	36.18
310.588	34.13
310.802	-8.87
311.016	-4.78
311.23	-37.55
311.444	-41.64
311.658	3.41
311.872	107.86
312.085	40.28
312.299	64.85
312.513	68.95
312.727	40.28
312.941	62.8
313.154	48.47
313.368	42.32
313.582	34.13
313.796	-8.87
314.009	44.37
314.223	73.04
314.437	15.7
314.651	64.85
314.864	7.51
315.078	-17.07
315.292	-8.87
315.505	15.7
315.719	50.52
315.933	48.47
316.146	105.81
316.36	-92.84
316.573	83.28
316.787	71
317.001	-23.21
317.214	-8.87
317.428	1.37
317.641	79.19
317.855	-4.78
318.068	60.76
318.282	56.66
318.495	48.47
318.709	19.8
318.922	-45.74
319.136	40.28
319.349	-0.68
319.563	15.7
319.776	-17.07
319.99	-6.83
320.203	13.65
320.417	7.51
320.63	-29.35
320.843	-4.78
321.057	99.67
321.27	-41.64
321.483	-29.35
321.697	52.56
321.91	27.99
322.124	36.18
322.337	36.18
322.55	-21.16
322.763	3.41
322.977	44.37
323.19	-19.11
323.403	83.28
323.617	-2.73
323.83	-8.87
324.043	-58.03
324.256	-25.26
324.469	11.61
324.683	34.13
324.896	3.41
325.109	1.37
325.322	-6.83
325.535	-0.68
325.748	71
325.962	1.37
326.175	27.99
326.388	73.04
326.601	-49.83
326.814	-8.87
327.027	15.7
327.24	40.28
327.453	-37.55
327.666	44.37
327.879	50.52
328.092	-0.68
328.305	-25.26
328.518	-17.07
328.731	7.51
328.944	58.71
329.157	-2.73
329.37	66.9
329.583	-4.78
329.796	15.7
330.009	-4.78
330.222	142.68
330.435	30.04
330.648	48.47
330.861	1.37
331.073	54.61
331.286	73.04
331.499	54.61
331.712	-88.75
331.925	-23.21
332.138	3.41
332.35	44.37
332.563	50.52
332.776	66.9
332.989	-29.35
333.202	3.41
333.414	-35.5
333.627	83.28
333.84	34.13
334.053	62.8
334.265	23.89
334.478	9.56
334.691	1.37
334.903	-33.45
335.116	30.04
335.329	32.08
335.541	58.71
335.754	36.18
335.966	50.52
336.179	32.08
336.392	3.41
336.604	21.85
336.817	97.62
337.029	50.52
337.242	-15.02
337.454	50.52
337.667	-6.83
337.88	109.91
338.092	27.99
338.305	64.85
338.517	48.47
338.729	64.85
338.942	140.63
339.154	7.51
339.367	19.8
339.579	15.7
339.792	-6.83
340.004	118.1
340.217	89.43
340.429	-8.87
340.641	56.66
340.854	56.66
341.066	9.56
341.278	30.04
341.491	73.04
341.703	-41.64
341.915	40.28
342.128	79.19
342.34	66.9
342.552	13.65
342.764	36.18
342.977	81.24
343.189	9.56
343.401	7.51
343.613	-4.78
343.826	-19.11
344.038	48.47
344.25	60.76
344.462	9.56
344.674	48.47
344.886	-33.45
345.099	17.75
345.311	19.8
345.523	89.43
345.735	-8.87
345.947	15.7
346.159	75.09
346.371	19.8
346.583	105.81
346.795	19.8
347.007	66.9
347.219	15.7
347.431	32.08
347.643	17.75
347.855	60.76
348.067	-8.87
348.279	1.37
348.491	-0.68
348.703	71
348.915	32.08
349.127	-58.03
349.339	77.14
349.551	-78.51
349.763	73.04
349.975	64.85
350.187	64.85
350.399	126.29
350.61	27.99
350.822	66.9
351.034	83.28
351.246	99.67
351.458	60.76
351.669	21.85
351.881	50.52
352.093	73.04
352.305	32.08
352.517	97.62
352.728	58.71
352.94	-41.64
353.152	109.91
353.363	-31.4
353.575	-17.07
353.787	-0.68
353.999	15.7
354.21	58.71
354.422	-4.78
354.633	56.66
354.845	81.24
355.057	1.37
355.268	23.89
355.48	3.41
355.692	7.51
355.903	-96.94
356.115	42.32
356.326	-27.31
356.538	56.66
356.749	73.04
356.961	81.24
357.172	13.65
357.384	-0.68
357.595	48.47
357.807	73.04
358.018	79.19
358.23	81.24
358.441	68.95
358.653	60.76
358.864	7.51
359.075	42.32
359.287	19.8
359.498	44.37
359.709	21.85
359.921	23.89
360.132	36.18
360.344	34.13
360.555	40.28
360.766	50.52
360.977	-12.97
361.189	56.66
361.4	7.51
361.611	52.56
361.823	97.62
362.034	46.42
362.245	9.56
362.456	32.08
362.667	15.7
362.879	15.7
363.09	36.18
363.301	73.04
363.512	38.23
363.723	11.61
363.935	-76.46
364.146	-27.31
364.357	32.08
364.568	-12.97
364.779	-43.69
364.99	27.99
365.201	-2.73
365.412	97.62
365.623	-58.03
365.834	50.52
366.045	27.99
366.256	73.04
366.467	60.76
366.678	91.48
366.889	-10.92
367.1	107.86
367.311	-17.07
367.522	11.61
367.733	68.95
367.944	73.04
368.155	97.62
368.366	87.38
368.577	40.28
368.788	23.89
368.999	-33.45
369.209	34.13
369.42	101.72
369.631	114
369.842	48.47
370.053	81.24
370.264	85.33
370.474	1.37
370.685	-33.45
370.896	89.43
371.107	75.09
371.317	27.99
371.528	48.47
371.739	66.9
371.95	64.85
372.16	25.94
372.371	-31.4
372.582	52.56
372.792	60.76
373.003	71
373.214	44.37
373.424	17.75
373.635	30.04
373.846	91.48
374.056	-17.07
374.267	-17.07
374.477	-15.02
374.688	21.85
374.898	48.47
375.109	23.89
375.319	23.89
375.53	40.28
375.74	27.99
375.951	15.7
376.161	17.75
376.372	132.44
376.582	36.18
376.793	89.43
377.003	25.94
377.214	13.65
377.424	77.14
377.635	23.89
377.845	48.47
378.055	132.44
378.266	-35.5
378.476	3.41
378.686	62.8
378.897	68.95
379.107	7.51
379.317	54.61
379.528	9.56
379.738	81.24
379.948	23.89
380.158	40.28
380.369	116.05
380.579	114
380.789	77.14
380.999	68.95
381.21	48.47
381.42	17.75
381.63	89.43
381.84	23.89
382.05	93.52
382.261	93.52
382.471	40.28
382.681	15.7
382.891	40.28
383.101	-47.79
383.311	-41.64
383.521	15.7
383.731	32.08
383.941	56.66
384.151	-8.87
384.361	-4.78
384.571	19.8
384.781	34.13
384.991	48.47
385.201	157.01
385.411	-33.45
385.621	17.75
385.831	11.61
386.041	52.56
386.251	32.08
386.461	66.9
386.671	17.75
386.881	27.99
387.091	77.14
387.301	52.56
387.511	23.89
387.72	32.08
387.93	-4.78
388.14	-17.07
388.35	-4.78
388.56	19.8
388.769	9.56
388.979	38.23
389.189	-17.07
389.399	1.37
389.609	93.52
389.818	40.28
390.028	101.72
390.238	48.47
390.447	56.66
390.657	42.32
390.867	-0.68
391.076	81.24
391.286	-4.78
391.496	79.19
391.705	40.28
391.915	148.82
392.125	50.52
392.334	25.94
392.544	89.43
392.753	40.28
392.963	85.33
393.172	95.57
393.382	7.51
393.591	85.33
393.801	-6.83
394.01	99.67
394.22	77.14
394.429	23.89
394.639	56.66
394.848	64.85
395.058	83.28
395.267	73.04
395.477	124.24
395.686	81.24
395.895	122.2
396.105	120.15
396.314	89.43
396.524	60.76
396.733	68.95
396.942	118.1
397.152	148.82
397.361	114
397.57	138.58
397.78	58.71
397.989	15.7
398.198	89.43
398.407	50.52
398.617	66.9
398.826	114
399.035	85.33
399.244	66.9
399.453	142.68
399.663	62.8
399.872	48.47
400.081	101.72
400.29	122.2
400.499	52.56
400.708	165.2
400.917	107.86
401.127	27.99
401.336	42.32
401.545	181.59
401.754	77.14
401.963	91.48
402.172	93.52
402.381	124.24
402.59	44.37
402.799	124.24
403.008	99.67
403.217	171.35
403.426	87.38
403.635	93.52
403.844	109.91
404.053	118.1
404.262	42.32
404.471	181.59
404.68	118.1
404.888	81.24
405.097	146.77
405.306	146.77
405.515	142.68
405.724	89.43
405.933	163.15
406.142	122.2
406.35	111.96
406.559	165.2
406.768	152.91
406.977	154.96
407.185	181.59
407.394	226.64
407.603	146.77
407.812	165.2
408.02	163.15
408.229	136.53
408.438	212.31
408.646	245.07
408.855	238.93
409.064	212.31
409.272	187.73
409.481	232.79
409.69	187.73
409.898	236.88
410.107	224.59
410.315	306.51
410.524	165.2
410.733	314.7
410.941	277.84
411.15	329.04
411.358	322.9
411.567	400.72
411.775	374.1
411.984	417.1
412.192	392.53
412.401	335.18
412.609	413.01
412.818	453.97
413.026	402.77
413.234	413.01
413.443	402.77
413.651	443.73
413.86	429.39
414.068	503.12
414.276	499.02
414.485	499.02
414.693	556.36
414.901	601.42
415.11	593.23
415.318	499.02
415.526	607.56
415.734	599.37
415.943	576.84
416.151	654.67
416.359	703.82
416.567	728.39
416.776	736.59
416.984	781.64
417.192	894.28
417.4	728.39
417.608	871.75
417.817	871.75
418.025	988.49
418.233	951.62
418.441	875.85
418.649	1002.82
418.857	1043.78
419.065	1033.54
419.273	1039.69
419.481	1097.03
419.689	1140.04
419.897	1269.06
420.105	1371.46
420.313	1289.54
420.521	1324.35
420.729	1375.55
420.937	1402.18
421.145	1551.68
421.353	1623.36
421.561	1590.59
421.769	1606.97
421.977	1639.74
422.185	1680.7
422.393	1785.15
422.601	2000.18
422.809	1795.39
423.017	1926.46
423.224	2032.95
423.432	2080.05
423.64	1918.26
423.848	2301.23
424.056	2235.7
424.263	2344.24
424.471	2309.43
424.679	2432.3
424.887	2549.04
425.094	2555.18
425.302	2655.53
425.51	2751.79
425.718	2659.63
425.925	2792.75
426.133	2903.34
426.341	3153.19
426.548	3364.13
426.756	3226.92
426.964	3392.8
427.171	3470.62
427.379	3638.56
427.586	3550.5
427.794	3693.85
428.001	3878.17
428.209	4037.91
428.417	3964.18
428.624	4236.56
428.832	4261.14
429.039	4267.28
429.247	4173.08
429.454	4605.2
429.662	4865.29
429.869	4562.19
430.076	5018.89
430.284	4816.14
430.491	5170.44
430.699	5309.7
430.906	5225.73
431.114	5352.71
431.321	5451.01
431.528	5856.51
431.736	5979.39
431.943	6376.69
432.15	6042.87
432.358	6202.61
432.565	6561.01
432.772	6415.6
432.979	7013.61
433.187	7068.91
433.394	7040.23
433.601	7357.67
433.808	7519.46
434.016	7415.01
434.223	7892.19
434.43	8318.17
434.637	8086.75
434.844	8633.55
435.052	8715.47
435.259	8715.47
435.466	8848.59
435.673	8498.39
435.88	9356.49
436.087	9587.91
436.294	9743.55
436.501	9579.72
436.708	9684.16
436.915	10169.53
437.122	10296.5
437.329	10443.96
437.537	10671.28
437.743	10773.68
437.95	10788.02
438.157	11523.24
438.364	11857.06
438.571	11723.94
438.778	12047.52
438.985	12922
439.192	12541.08
439.399	12844.18
439.606	12582.04
439.813	13321.35
440.02	14130.3
440.227	14011.52
440.433	13624.45
440.64	14310.52
440.847	13970.56
441.054	14658.68
441.261	15391.85
441.467	15211.63
441.674	15391.85
441.881	16145.5
442.088	15909.99
442.294	15871.08
442.501	16387.16
442.708	16802.9
442.914	17501.26
443.121	18029.63
443.328	17507.4
443.534	18766.9
443.741	18316.35
443.948	18279.49
444.154	19403.82
444.361	19268.66
444.568	19387.44
444.774	19420.2
444.981	19557.42
445.187	20251.68
445.394	21181.46
445.6	20608.03
445.807	22932.47
446.013	21638.16
446.22	22543.36
446.426	23167.99
446.633	23520.24
446.839	24306.66
447.046	23051.25
447.252	24607.71
447.459	24318.95
447.665	24298.47
447.871	25451.47
448.078	26489.79
448.284	25361.36
448.491	26409.92
448.697	27241.4
448.903	27581.36
449.11	27630.51
449.316	27233.21
449.522	27837.36
449.728	28775.33
449.935	28867.48
450.141	29010.84
450.347	29457.3
450.553	28769.18
450.76	28603.3
450.966	30192.52
451.172	29748.11
451.378	30552.96
451.584	29862.8
451.791	30679.94
451.997	30608.26
452.203	31200.12
452.409	30935.93
452.615	30782.34
452.821	29760.4
453.027	29449.11
453.233	31257.46
453.44	30133.13
453.646	30200.71
453.852	30440.32
454.058	30815.1
454.264	29883.28
454.47	30538.63
454.676	30176.14
454.882	31130.49
455.088	28488.61
455.294	29125.53
455.5	29582.23
455.705	29686.67
455.911	28529.57
456.117	28017.58
456.323	27610.03
456.529	26172.36
456.735	27245.49
456.941	26719.17
457.147	26250.18
457.352	25488.34
457.558	25369.55
457.764	25498.58
457.97	25033.69
458.176	24275.94
458.381	24261.6
458.587	23116.79
458.793	23155.7
458.999	21959.69
459.204	23852.01
459.41	22785.02
459.616	21402.64
459.821	21685.26
460.027	21146.64
460.233	21310.48
460.438	19899.43
460.644	20229.15
460.85	19469.36
461.055	19121.2
461.261	18930.74
461.466	17665.1
461.672	17077.33
461.878	18402.36
462.083	17218.64
462.289	16677.97
462.494	16958.55
462.7	15713.38
462.905	15443.05
463.111	16172.13
463.316	16059.49
463.522	15647.85
463.727	15907.94
463.932	15633.51
464.138	15639.65
464.343	15762.53
464.549	15408.23
464.754	15768.68
464.959	15172.72
465.165	15506.54
465.37	14795.89
465.575	14533.75
465.781	15070.32
465.986	14937.2
466.191	14607.48
466.397	14068.86
466.602	13599.88
466.807	14060.67
467.012	14023.81
467.218	14027.9
467.423	14040.19
467.628	13988.99
467.833	14611.57
468.038	13896.83
468.244	13665.41
468.449	14226.56
468.654	13913.22
468.859	13556.87
469.064	13550.73
469.269	13016.21
469.474	13173.9
469.679	13319.31
469.885	12971.15
470.09	13110.41
470.295	13069.45
470.5	12684.44
470.705	12688.53
470.91	12555.41
471.115	12493.97
471.32	12823.7
471.525	12709.01
471.73	12250.27
471.935	12375.19
472.139	11807.91
472.344	12260.51
472.549	11863.2
472.754	11797.67
472.959	11570.34
473.164	11281.58
473.369	11152.56
473.574	11678.88
473.778	11463.85
473.983	11508.9
474.188	11412.65
474.393	10693.81
474.598	10755.25
474.802	10732.72
475.007	10712.24
475.212	10689.71
475.417	10407.09
475.621	10310.84
475.826	10503.35
476.031	10241.21
476.235	10075.32
476.44	10235.07
476.645	9888.96
476.849	9946.3
477.054	9796.8
477.259	9802.94
477.463	9751.74
477.668	9602.24
477.872	9592
478.077	9419.97
478.282	9270.47
478.486	9256.14
478.691	8991.95
478.895	8881.36
479.1	8994
479.304	9059.53
479.509	8731.86
479.713	8963.28
479.918	8797.39
480.122	8522.96
480.326	8795.34
480.531	8742.1
480.735	8613.07
480.94	8330.45
481.144	8862.93
481.348	8533.2
481.553	8420.56
481.757	8299.73
481.961	8469.72
482.166	8522.96
482.37	8551.63
482.574	8373.46
482.778	8359.13
482.983	8512.72
483.187	8606.93
483.391	8387.8
483.595	8197.34
483.8	8170.71
484.004	8289.49
484.208	8406.23
484.412	8383.7
484.616	8285.4
484.821	8424.66
485.025	8434.9
485.229	8211.67
485.433	8236.25
485.637	8185.05
485.841	8410.33
486.045	8269.02
486.249	8453.33
486.453	8312.02
486.657	8324.31
486.861	8443.09
487.065	8242.39
487.269	8453.33
487.473	8338.65
487.677	8482
487.881	8674.51
488.085	8529.11
488.289	8496.34
488.493	8293.59
488.697	8576.21
488.901	8711.38
489.105	8486.1
489.309	8674.51
489.512	8510.68
489.716	8432.85
489.92	8506.58
490.124	8570.07
490.328	8690.9
490.531	8625.36
490.735	8760.53
490.939	8750.29
491.143	8705.23
491.346	8946.89
491.55	8821.97
491.754	8740.05
491.958	8805.58
492.161	8711.38
492.365	8948.94
492.569	8811.73
492.772	9055.44
492.976	9131.21
493.18	9059.53
493.383	9133.26
493.587	9229.51
493.79	9278.66
493.994	9288.9
494.197	9249.99
494.401	9411.78
494.605	9536.71
494.808	9813.18
495.012	9694.4
495.215	9880.77
495.419	9751.74
495.622	9854.14
495.825	10042.56
496.029	9968.83
496.232	10237.11
496.436	10124.47
496.639	10376.38
496.843	10427.57
497.046	10734.77
497.249	10732.72
497.453	10894.51
497.656	10972.33
497.859	10800.3
498.063	11191.47
498.266	11447.46
498.469	11502.76
498.673	11476.13
498.876	11629.73
499.079	11777.19
499.282	11992.22
499.485	12248.22
499.689	11977.89
499.892	12287.13
500.095	12358.81
500.298	12680.34
500.501	12825.75
500.705	13069.45
500.908	13063.31
501.111	13272.2
501.314	13405.32
501.517	13642.89
501.72	13753.48
501.923	13626.5
502.126	13870.21
502.329	14095.49
502.532	14265.47
502.735	14513.27
502.938	14697.59
503.141	14593.14
503.344	14838.9
503.547	15055.98
503.75	15293.55
503.953	15588.46
504.156	15703.14
504.359	15842.4
504.562	15948.9
504.765	16045.15
504.968	16442.46
505.17	16637.02
505.373	16659.54
505.576	16821.33
505.779	17202.25
505.982	17415.24
506.185	17517.64
506.387	17843.27
506.59	18070.59
506.793	18322.49
506.996	18259.01
507.198	18877.49
507.401	18797.62
507.604	19078.19
507.807	19450.92
508.009	19557.42
508.212	19606.57
508.415	19864.61
508.617	20241.44
508.82	20466.72
509.022	20413.47
509.225	20898.84
509.428	20884.5
509.63	21210.13
509.833	21462.03
510.035	21996.55
510.238	21920.77
510.44	22275.07
510.643	22660.09
510.845	22463.49
511.048	22795.26
511.25	23143.41
511.453	23342.07
511.655	24185.83
511.858	24005.61
512.06	24099.81
512.262	24245.22
512.465	24290.27
512.667	25043.93
512.87	25156.57
513.072	25048.02
513.274	25875.4
513.477	25779.15
513.679	25873.35
513.881	26526.66
514.084	26565.57
514.286	26530.75
514.488	26899.39
514.69	27722.67
514.893	27726.77
515.095	27866.03
515.297	28132.26
515.499	28111.78
515.701	28650.4
515.904	29059.99
516.106	29227.93
516.308	29447.06
516.51	29799.31
516.712	29952.91
516.914	30237.58
517.116	30694.27
517.318	30737.28
517.52	31259.51
517.722	31579
517.925	31849.33
518.127	31787.89
518.329	32054.12
518.531	32387.94
518.733	32934.75
518.935	33188.7
519.136	32914.27
519.338	33737.55
519.54	33764.18
519.742	34200.4
519.944	34370.38
520.146	34730.82
520.348	34964.29
520.55	35269.44
520.752	35222.33
520.954	35824.43
521.155	35844.91
521.357	36408.11
521.559	36561.7
521.761	37206.81
521.963	36653.86
522.164	37446.43
522.366	37511.96
522.568	38030.1
522.77	37937.94
522.971	38521.61
523.173	38236.94
523.375	38529.8
523.576	38484.75
523.778	38589.19
523.98	39160.58
524.181	39389.95
524.383	39535.35
524.584	40301.29
524.786	39858.93
524.988	40084.21
525.189	40524.52
525.391	40579.82
525.592	40690.41
525.794	41261.79
525.995	41149.15
526.197	41237.22
526.398	41421.53
526.6	41767.64
526.801	41718.49
527.003	41992.92
527.204	41988.82
527.406	42429.13
527.607	42261.2
527.808	42754.76
528.01	41906.9
528.211	42691.27
528.412	43535.04
528.614	42947.27
528.815	42986.18
529.016	43520.7
529.218	42889.93
529.419	43449.02
529.62	43440.83
529.822	43635.39
530.023	43578.04
530.224	43670.2
530.425	43403.97
530.626	43301.57
530.828	43172.55
531.029	44561.07
531.23	43672.25
531.431	43735.74
531.632	44237.49
531.833	44223.15
532.035	44296.88
532.236	44135.09
532.437	44561.07
532.638	44184.24
532.839	44282.55
533.04	44446.38
533.241	43772.6
533.442	44950.18
533.643	44700.33
533.844	44430
534.045	44968.62
534.246	44174
534.447	44470.96
534.648	44599.98
534.849	44446.38
535.05	44548.78
535.251	44628.65
535.451	44802.73
535.652	44692.14
535.853	44350.13
536.054	44944.04
536.255	44780.2
536.456	44593.84
536.657	45499.04
536.857	44319.41
537.058	44540.59
537.259	45011.62
537.46	44702.38
537.66	44806.83
537.861	44966.57
538.062	44583.6
538.263	45116.07
538.463	44249.78
538.664	44769.96
538.865	44759.72
539.065	44950.18
539.266	44313.27
539.466	45224.61
539.667	44270.26
539.868	45273.76
540.068	44735.15
540.269	44657.32
540.469	44946.09
540.67	44561.07
540.87	44888.74
541.071	44890.79
541.271	44929.7
541.472	44776.11
541.672	44698.28
541.873	44440.24
542.073	44159.67
542.274	44544.69
542.474	44729
542.675	44638.89
542.875	45384.35
543.075	44526.25
543.276	44204.72
543.476	44876.46
543.676	44434.1
543.877	44683.95
544.077	44823.21
544.277	44460.72
544.478	44645.04
544.678	44567.21
544.878	44221.11
545.078	44722.86
545.279	44223.15
545.479	44569.26
545.679	44772.01
545.879	44325.55
546.079	44565.17
546.28	44518.06
546.48	44362.42
546.68	44509.87
546.88	44950.18
547.08	44481.2
547.28	44133.04
547.48	44001.97
547.68	44438.19
547.88	44077.75
548.081	44362.42
548.281	44622.51
548.481	44317.36
548.681	44288.69
548.881	44286.64
549.081	44178.1
549.28	44266.16
549.48	44763.82
549.68	44141.24
549.88	44587.69
550.08	44327.6
550.28	44389.04
550.48	44270.26
550.68	44673.71
550.88	44178.1
551.08	44436.14
551.279	44546.73
551.479	43987.64
551.679	44327.6
551.879	43823.8
552.079	44333.74
552.278	44032.69
552.478	43963.06
552.678	43997.88
552.878	44397.23
553.077	44077.75
553.277	43557.56
553.477	44487.34
553.676	43862.71
553.876	43803.32
554.076	43805.37
554.275	43981.49
554.475	43893.43
554.674	43924.15
554.874	44063.41
555.074	43471.55
555.273	44022.45
555.473	44266.16
555.672	43479.74
555.872	43735.74
556.071	43715.26
556.271	43637.44
556.47	43565.76
556.67	43195.07
556.869	43807.42
557.068	43481.79
557.268	43293.38
557.467	43291.33
557.667	43645.63
557.866	43223.75
558.065	43399.87
558.265	43076.29
558.464	43121.35
558.663	43240.13
558.863	42412.75
559.062	43745.98
559.261	42805.96
559.461	43457.21
559.66	42758.86
559.859	43154.11
560.058	42738.38
560.258	42697.42
560.457	42484.43
560.656	42906.31
560.855	42519.24
561.054	43111.11
561.253	42422.99
561.453	43096.77
561.652	42492.62
561.851	42842.82
562.05	42207.95
562.249	42433.23
562.448	42697.42
562.647	42486.48
562.846	42210
563.045	42076.88
563.244	41870.04
563.443	42238.67
563.642	41513.69
563.841	41646.81
564.04	41599.71
564.239	42308.3
564.438	41671.39
564.637	41911
564.836	41652.95
565.035	41489.12
565.234	41317.09
565.432	41036.52
565.631	41138.91
565.83	41384.67
566.029	41304.8
566.228	40762.09
566.427	41212.64
566.625	40706.79
566.824	40635.11
567.023	41061.09
567.222	40739.56
567.42	40815.33
567.619	40837.86
567.818	40481.52
568.016	40219.38
568.215	40545
568.414	40426.22
568.612	40473.32
568.811	40006.39
569.01	40035.06
569.208	39883.51
569.407	40387.31
569.605	39584.51
569.804	39750.39
570.002	39686.9
570.201	39912.18
570.4	39355.13
570.598	39113.47
570.797	39478.01
570.995	39387.9
571.193	39058.18
571.392	39248.64
571.59	38736.65
571.789	39228.16
571.987	38875.91
572.186	38726.41
572.384	38820.61
572.582	39234.3
572.781	38701.83
572.979	38271.76
573.177	38574.86
573.376	38734.6
573.574	38165.26
573.772	38173.45
573.971	38048.53
574.169	37839.64
574.367	37712.66
574.565	37962.51
574.763	37704.47
574.962	37561.11
575.16	37018.4
575.358	37616.41
575.556	37245.72
575.754	37790.48
575.952	37606.17
576.151	37415.71
576.349	37165.85
576.547	36918.05
576.745	37237.53
576.943	36795.17
577.141	36606.76
577.339	36668.2
577.537	36741.92
577.735	36580.14
577.933	36254.51
578.131	36303.66
578.329	35865.39
578.527	36541.22
578.725	36023.09
578.923	36231.98
579.121	36041.52
579.319	35740.47
579.516	35709.75
579.714	35902.26
579.912	35695.41
580.11	35713.84
580.308	35414.84
580.506	35302.2
580.704	34870.08
580.901	35154.75
581.099	35031.87
581.297	34687.81
581.495	34503.49
581.692	35050.3
581.89	34558.79
582.088	34474.82
582.285	34390.86
582.483	34546.5
582.681	34554.69
582.878	34450.25
583.076	34175.82
583.274	34282.31
583.471	33839.95
583.669	33952.59
583.866	33764.18
584.064	33850.19
584.262	33420.12
584.459	33565.53
584.657	33254.23
584.854	33377.11
585.052	32639.84
585.249	33170.27
585.447	33071.96
585.644	32514.92
585.841	32617.32
586.039	33413.98
586.236	32881.5
586.434	32635.75
586.631	32082.8
586.828	32457.57
587.026	32537.44
587.223	32400.23
587.42	32088.94
587.618	32367.46
587.815	32007.02
588.012	32295.78
588.21	31791.98
588.407	32117.61
588.604	31433.59
588.801	31517.56
588.999	31429.49
589.196	31073.15
589.393	31298.42
589.59	31576.95
589.787	31323
589.984	30983.04
590.182	30817.15
590.379	31210.36
590.576	30735.23
590.773	30696.32
590.97	30757.76
591.167	30479.24
591.364	30223.24
591.561	30579.59
591.758	30296.97
591.955	30163.85
592.152	30364.55
592.349	29938.57
592.546	30018.44
592.743	30155.66
592.94	29678.48
593.137	29969.29
593.334	29957
593.531	29455.25
593.727	29752.21
593.924	29373.33
594.121	29012.89
594.318	29176.73
594.515	29010.84
594.712	29430.68
594.908	28883.87
595.105	28869.53
595.302	28591.01
595.499	28933.02
595.696	28410.79
595.892	28392.36
596.089	28496.8
596.286	28552.1
596.482	28257.19
596.679	28081.06
596.876	28058.54
597.072	27999.15
597.269	28238.76
597.466	27659.18
597.662	27583.41
597.859	27870.12
598.055	28040.11
598.252	27491.25
598.448	27556.78
598.645	27407.28
598.841	27272.12
599.038	27294.64
599.234	27122.62
599.431	27143.1
599.627	26760.12
599.824	26981.31
600.02	27095.99
600.217	26983.35
600.413	26655.68
600.609	26526.66
600.806	26512.32
601.002	26561.47
601.198	26119.11
601.395	26078.15
601.591	26274.76
601.787	26241.99
601.984	26088.39
602.18	26192.84
602.376	25797.58
602.572	25861.07
602.769	25660.37
602.965	25482.19
603.161	25750.48
603.357	25451.47
603.553	25365.46
603.75	25686.99
603.946	25142.23
604.142	25156.57
604.338	24896.47
604.534	25084.89
604.73	24998.87
604.926	24761.31
605.122	25267.16
605.318	24703.96
605.514	24304.61
605.71	24413.15
605.906	24665.05
606.102	24591.33
606.298	24546.27
606.494	24390.63
606.69	24349.67
606.886	24581.09
607.082	23997.42
607.278	24361.95
607.474	23868.39
607.67	24085.48
607.866	23380.98
608.062	23933.93
608.257	23653.36
608.453	23981.03
608.649	23628.78
608.845	23679.98
609.041	23583.73
609.236	23698.41
609.432	23370.74
609.628	23264.24
609.824	23247.86
610.019	23280.63
610.215	23053.3
610.411	23438.32
610.606	23041.01
610.802	23170.04
610.998	23170.04
611.193	23174.13
611.389	22680.57
611.584	22793.21
611.78	22440.96
611.976	22572.03
612.171	22719.48
612.367	22529.02
612.562	22619.13
612.758	22483.97
612.953	22547.45
613.149	22475.77
613.344	22258.69
613.539	22891.51
613.735	22324.22
613.93	22217.73
614.126	22164.48
614.321	22541.31
614.517	22164.48
614.712	22115.33
614.907	22025.22
615.103	22076.42
615.298	21834.76
615.493	22096.9
615.688	21435.41
615.884	22285.31
616.079	22019.08
616.274	21818.38
616.47	21519.37
616.665	21609.48
616.86	21634.06
617.055	21468.17
617.25	21273.62
617.445	21537.8
617.641	20792.34
617.836	21290
618.031	21091.35
618.226	20769.82
618.421	20937.75
618.616	20925.46
618.811	20651.03
619.006	21146.64
619.201	20560.92
619.396	20933.65
619.591	20380.7
619.786	20565.02
619.981	20104.23
620.176	20622.36
620.371	20227.1
620.566	20239.39
620.761	20149.28
620.956	19917.86
621.151	19772.46
621.346	19739.69
621.541	19508.27
621.735	19713.06
621.93	19342.38
622.125	19532.84
622.32	19121.2
622.515	19239.98
622.709	19035.19
622.904	19137.59
623.099	18826.29
623.294	18830.39
623.488	18875.45
623.683	18758.71
623.878	18621.5
624.072	18263.1
624.267	18457.66
624.462	18351.17
624.656	18029.63
624.851	18003.01
625.046	17843.27
625.24	17765.45
625.435	17640.52
625.629	17652.81
625.824	17589.32
626.018	17542.22
626.213	17226.83
626.407	17316.94
626.602	17062.99
626.796	17202.25
626.991	17177.68
627.185	17030.23
627.38	16809.04
627.574	16614.49
627.768	16839.76
627.963	16745.56
628.157	16458.84
628.352	16397.4
628.546	16233.57
628.74	16344.16
628.935	16129.12
629.129	16157.79
629.323	15830.12
629.517	15711.33
629.712	15778.92
629.906	15772.77
630.1	15629.41
630.294	15541.35
630.489	15285.36
630.683	15623.27
630.877	15082.61
631.071	15170.67
631.265	15201.39
631.459	15203.44
631.653	14949.49
631.848	14726.26
632.042	14679.16
632.236	14687.35
632.43	14527.61
632.624	14550.14
632.818	14490.74
633.012	14124.16
633.206	14105.73
633.4	14392.44
633.594	14122.11
633.788	14193.79
633.982	14099.58
634.176	14048.38
634.369	13847.68
634.563	13909.12
634.757	13868.16
634.951	13757.57
635.145	13724.8
635.339	13786.24
635.533	13440.14
635.726	13425.8
635.92	13311.11
636.114	13321.35
636.308	13147.28
636.501	13169.8
636.695	13251.72
636.889	12985.49
637.083	12692.63
637.276	12795.03
637.47	12895.38
637.664	12678.29
637.857	12727.44
638.051	12575.89
638.244	12532.89
638.438	12395.67
638.632	12313.75
638.825	12231.83
639.019	12360.86
639.212	12180.64
639.406	11947.17
639.599	12074.14
639.793	11877.54
639.986	11742.37
640.18	12078.24
640.373	11658.4
640.567	11533.48
640.76	11893.92
640.954	11498.66
641.147	11539.62
641.34	11431.08
641.534	11236.52
641.727	11185.32
641.92	10996.91
642.114	11054.25
642.307	11068.59
642.5	11142.32
642.694	10953.9
642.887	10755.25
643.08	10939.57
643.273	11023.53
643.467	10765.49
643.66	10589.36
643.853	10585.27
644.046	10595.51
644.239	10403
644.432	10347.7
644.626	10286.26
644.819	10386.61
645.012	10171.58
645.205	10314.94
645.398	10249.4
645.591	10306.74
645.784	9993.4
645.977	9946.3
646.17	9874.62
646.363	9635.01
646.556	9667.78
646.749	9854.14
646.942	9917.63
647.135	9546.95
647.328	9731.26
647.521	9551.04
647.714	9415.88
647.907	9346.25
648.099	9368.77
648.292	9231.56
648.485	9213.13
648.678	9198.79
648.871	9100.49
649.064	8985.8
649.256	9116.87
649.449	8893.65
649.642	8875.21
649.835	8791.25
650.027	8785.1
650.22	8707.28
650.413	8682.7
650.605	8633.55
650.798	8643.79
650.991	8576.21
651.183	8740.05
651.376	8371.41
651.568	8344.79
651.761	8215.77
651.954	8365.27
652.146	8371.41
652.339	8056.03
652.531	8205.53
652.724	8123.61
652.916	8000.73
653.109	7978.2
653.301	8193.24
653.494	7898.33
653.686	7689.44
653.879	7965.92
654.071	7945.44
654.263	7761.12
654.456	7642.34
654.648	7781.6
654.84	7605.47
655.033	7777.5
655.225	7699.68
655.417	7652.58
655.61	7365.86
655.802	7472.36
655.994	7388.39
656.186	7306.47
656.379	7290.09
656.571	7281.89
656.763	7257.32
656.955	7167.21
657.148	7216.36
657.34	7163.11
657.532	7077.1
657.724	7013.61
657.916	6982.89
658.108	6872.3
658.3	6860.01
658.492	6907.12
658.684	6823.15
658.876	6845.68
659.068	6698.22
659.26	6567.15
659.452	6644.98
659.644	6503.67
659.836	6477.04
660.028	6485.23
660.22	6352.12
660.412	6472.95
660.604	6198.52
660.796	6309.11
660.988	6278.39
661.18	6413.56
661.372	6284.53
661.563	6270.2
661.755	6157.56
661.947	6053.11
662.139	6061.3
662.331	6024.44
662.522	5911.8
662.714	5956.86
662.906	5958.91
663.097	5752.06
663.289	5782.78
663.481	5881.08
663.673	5723.39
663.864	5719.29
664.056	5610.75
664.247	5790.97
664.439	5659.9
664.631	5727.49
664.822	5637.38
665.014	5502.21
665.205	5504.26
665.397	5475.59
665.588	5446.91
665.78	5446.91
665.971	5328.13
666.163	5539.07
666.354	5195.01
666.546	5307.65
666.737	5266.69
666.929	5274.88
667.12	5113.1
667.311	5158.15
667.503	5031.18
667.694	5096.71
667.885	4975.88
668.077	4965.64
668.268	4963.59
668.459	5086.47
668.651	4830.48
668.842	4693.26
669.033	4850.96
669.224	4889.87
669.416	4812.04
669.607	4599.06
669.798	4672.78
669.989	4783.37
670.18	4701.45
670.371	4746.51
670.563	4705.55
670.754	4674.83
670.945	4666.64
671.136	4570.38
671.327	4488.46
671.518	4453.65
671.709	4451.6
671.9	4574.48
672.091	4480.27
672.282	4480.27
672.473	4336.92
672.664	4304.15
672.855	4357.39
673.046	4398.35
673.237	4431.12
673.428	4367.63
673.619	4449.55
673.809	4267.28
674	4203.8
674.191	4283.67
674.382	4275.48
674.573	4171.03
674.764	4177.17
674.954	4185.37
675.145	3955.99
675.336	4168.98
675.527	4099.35
675.717	4138.26
675.908	4228.37
676.099	4123.93
676.289	3960.09
676.48	3990.81
676.671	3974.42
676.861	4082.97
677.052	4062.49
677.243	4146.45
677.433	3939.61
677.624	3988.76
677.814	3894.55
678.005	3910.94
678.195	3925.27
678.386	3876.12
678.576	3800.35
678.767	3824.92
678.957	3857.69
679.148	3767.58
679.338	3890.46
679.529	3861.79
679.719	3788.06
679.909	3603.74
680.1	3777.82
680.29	3818.78
680.481	3755.29
680.671	3824.92
680.861	3736.86
681.052	3792.16
681.242	3767.58
681.432	3800.35
681.622	3671.33
681.813	3773.72
682.003	3740.96
682.193	3665.18
682.383	3732.76
682.573	3687.71
682.764	3648.8
682.954	3613.98
683.144	3755.29
683.334	3751.2
683.524	3654.94
683.714	3564.83
683.904	3575.07
684.094	3646.75
684.284	3519.78
684.474	3636.51
684.664	3577.12
684.854	3634.46
685.044	3482.91
685.234	3497.25
685.424	3579.17
685.614	3456.29
685.804	3630.37
685.994	3503.39
686.184	3558.69
686.374	3464.48
686.564	3566.88
686.753	3507.49
686.943	3548.45
687.133	3589.41
687.323	3542.3
687.513	3466.53
687.702	3456.29
687.892	3368.23
688.082	3339.55
688.272	3466.53
688.461	3374.37
688.651	3331.36
688.841	3323.17
689.03	3355.94
689.22	3339.55
689.41	3298.6
689.599	3321.12
689.789	3310.88
689.979	3388.71
690.168	3448.1
690.358	3292.45
690.547	3243.3
690.737	3327.27
690.926	3452.19
691.116	3171.62
691.305	3386.66
691.495	3317.03
691.684	3181.86
691.874	3317.03
692.063	3245.35
692.252	3390.75
692.442	3394.85
692.631	3210.53
692.82	3218.72
693.01	3079.46
693.199	3073.32
693.388	3114.28
693.578	3032.36
693.767	3222.82
693.956	3087.65
694.146	3114.28
694.335	3005.74
694.524	3116.33
694.713	3147.05
694.902	3052.84
695.092	3005.74
695.281	3081.51
695.47	3046.69
695.659	2923.82
695.848	3034.41
696.037	3056.93
696.226	3106.09
696.415	2981.16
696.604	3073.32
696.793	2954.54
696.982	3011.88
697.171	3054.89
697.36	3007.78
697.549	2893.1
697.738	2856.23
697.927	2870.57
698.116	3022.12
698.305	2956.58
698.494	2981.16
698.683	2866.47
698.872	2884.91
699.061	2833.71
699.25	2909.48
699.438	2886.95
699.627	2878.76
699.816	2811.18
700.005	2848.04
700.193	2813.23
700.382	2811.18
700.571	2737.45
700.76	2852.14
700.948	2880.81
701.137	2774.32
701.326	2874.67
701.514	2759.98
701.703	2790.7
701.892	2776.36
702.08	2802.99
702.269	2770.22
702.457	2637.1
702.646	2805.03
702.834	2696.49
703.023	2751.79
703.212	2645.29
703.4	2669.87
703.589	2749.74
703.777	2841.9
703.965	2630.96
704.154	2792.75
704.342	2637.1
704.531	2622.77
704.719	2590
704.907	2696.49
705.096	2583.85
705.284	2669.87
705.472	2737.45
705.661	2682.16
705.849	2633.01
706.037	2682.16
706.226	2620.72
706.414	2522.41
706.602	2592.05
706.79	2645.29
706.979	2612.53
707.167	2524.46
707.355	2536.75
707.543	2669.87
707.731	2661.68
707.919	2563.37
708.107	2565.42
708.296	2503.98
708.484	2653.48
708.672	2546.99
708.86	2635.05
709.048	2624.81
709.236	2565.42
709.424	2397.49
709.612	2407.73
709.8	2565.42
709.988	2450.74
710.176	2428.21
710.364	2491.7
710.551	2465.07
710.739	2639.15
710.927	2460.98
711.115	2489.65
711.303	2524.46
711.491	2530.61
711.679	2385.2
711.866	2415.92
712.054	2374.96
712.242	2344.24
712.43	2407.73
712.617	2342.19
712.805	2342.19
712.993	2434.35
713.181	2366.77
713.368	2350.39
713.556	2405.68
713.744	2297.14
713.931	2424.11
714.119	2309.43
714.306	2295.09
714.494	2313.52
714.682	2342.19
714.869	2284.85
715.057	2364.72
715.244	2190.64
715.432	2391.34
715.619	2202.93
715.807	2215.22
715.994	2288.95
716.182	2379.06
716.369	2286.9
716.556	2409.78
716.744	2305.33
716.931	2301.23
717.119	2309.43
717.306	2264.37
717.493	2215.22
717.681	2262.32
717.868	2381.11
718.055	2223.41
718.242	2204.98
718.43	2213.17
718.617	2264.37
718.804	2305.33
718.991	2192.69
719.179	2188.6
719.366	2186.55
719.553	2161.97
719.74	2084.15
719.927	2268.47
720.114	2180.4
720.301	2188.6
720.488	2180.4
720.676	2182.45
720.863	2229.56
721.05	2131.25
721.237	2057.53
721.424	2170.16
721.611	2153.78
721.798	2116.92
721.985	2096.44
722.172	1973.56
722.358	2104.63
722.545	2121.01
722.732	2096.44
722.919	2211.12
723.106	2028.85
723.293	2133.3
723.48	2184.5
723.667	1971.51
723.853	2065.72
724.04	2073.91
724.227	2090.29
724.414	2051.38
724.6	2123.06
724.787	2094.39
724.974	2153.78
725.161	2061.62
725.347	2129.2
725.534	2096.44
725.72	2047.29
725.907	1957.18
726.094	1940.79
726.28	2039.09
726.467	2022.71
726.653	2069.81
726.84	1965.37
727.027	1973.56
727.213	1908.02
727.4	2035
727.586	1932.6
727.773	2047.29
727.959	2030.9
728.145	1965.37
728.332	1932.6
728.518	1959.22
728.705	2047.29
728.891	1959.22
729.077	1940.79
729.264	1981.75
729.45	1965.37
729.636	1936.7
729.823	1991.99
730.009	1862.97
730.195	1969.46
730.382	2030.9
730.568	1928.5
730.754	2051.38
730.94	1869.11
731.126	1934.65
731.313	1867.06
731.499	1877.3
731.685	1914.17
731.871	1875.26
732.057	2039.09
732.243	1850.68
732.429	1854.78
732.615	1940.79
732.801	1838.39
732.987	1928.5
733.173	1852.73
733.359	1867.06
733.545	1838.39
733.731	1787.19
733.917	1842.49
734.103	1744.19
734.289	1908.02
734.475	1729.85
734.661	1877.3
734.847	1789.24
735.033	1850.68
735.219	1903.93
735.404	1748.28
735.59	1854.78
735.776	1813.82
735.962	1819.96
736.148	1885.5
736.333	1869.11
736.519	1826.11
736.705	1862.97
736.89	1701.18
737.076	1793.34
737.262	1670.46
737.447	1617.21
737.633	1725.75
737.819	1799.48
738.004	1756.47
738.19	1772.86
738.375	1844.54
738.561	1877.3
738.747	1733.95
738.932	1633.6
739.118	1795.39
739.303	1811.77
739.489	1629.5
739.674	1662.27
739.859	1699.13
740.045	1809.72
740.23	1727.8
740.416	1568.06
740.601	1746.23
740.786	1516.86
740.972	1631.55
741.157	1590.59
741.342	1543.49
741.528	1703.23
741.713	1584.45
741.898	1676.6
742.084	1637.69
742.269	1633.6
742.454	1682.75
742.639	1523.01
742.824	1572.16
743.01	1506.62
743.195	1752.38
743.38	1510.72
743.565	1672.51
743.75	1598.78
743.935	1613.12
744.12	1500.48
744.305	1559.87
744.49	1482.05
744.675	1463.62
744.86	1604.92
745.045	1525.05
745.23	1606.97
745.415	1557.82
745.6	1498.43
745.785	1502.53
745.97	1418.56
746.155	1467.71
746.34	1391.94
746.525	1469.76
746.71	1385.79
746.895	1338.69
747.079	1393.98
747.264	1426.75
747.449	1422.66
747.634	1381.7
747.819	1340.74
748.003	1391.94
748.188	1424.7
748.373	1359.17
748.557	1350.98
748.742	1328.45
748.927	1334.59
749.111	1391.94
749.296	1260.87
749.481	1430.85
749.665	1336.64
749.85	1283.39
750.034	1275.2
750.219	1228.1
750.404	1396.03
750.588	1193.28
750.773	1174.85
750.957	1236.29
751.141	1285.44
751.326	1230.15
751.51	1238.34
751.695	1301.83
751.879	1230.15
752.064	1150.28
752.248	1146.18
752.432	1213.76
752.617	1170.76
752.801	1322.31
752.985	1193.28
753.17	1217.86
753.354	1273.15
753.538	1256.77
753.722	1097.03
753.907	1219.91
754.091	1137.99
754.275	1121.6
754.459	1195.33
754.643	1064.26
754.828	1178.95
755.012	1140.04
755.196	1064.26
755.38	1080.64
755.564	1064.26
755.748	1137.99
755.932	1123.65
756.116	1123.65
756.3	1033.54
756.484	1086.79
756.668	1084.74
756.852	941.38
757.036	990.53
757.22	925
757.404	953.67
757.588	1027.4
757.772	941.38
757.956	1017.16
758.14	976.2
758.323	935.24
758.507	998.73
758.691	965.96
758.875	968.01
759.059	1015.11
759.242	892.23
759.426	929.1
759.61	943.43
759.794	961.86
759.977	982.34
760.161	994.63
760.345	884.04
760.528	886.09
760.712	884.04
760.895	972.1
761.079	957.77
761.263	941.38
761.446	845.13
761.63	896.33
761.813	875.85
761.997	818.5
762.18	896.33
762.364	908.62
762.547	898.38
762.731	847.18
762.914	814.41
763.098	820.55
763.281	853.32
763.464	804.17
763.648	818.5
763.831	843.08
764.015	818.5
764.198	800.07
764.381	777.55
764.564	740.68
764.748	767.31
764.931	777.55
765.114	843.08
765.297	845.13
765.481	703.82
765.664	767.31
765.847	804.17
766.03	814.41
766.213	810.31
766.397	765.26
766.58	685.39
766.763	752.97
766.946	777.55
767.129	802.12
767.312	755.02
767.495	814.41
767.678	769.35
767.861	757.07
768.044	777.55
768.227	744.78
768.41	763.21
768.593	818.5
768.776	777.55
768.959	773.45
769.142	777.55
769.324	714.06
769.507	740.68
769.69	679.24
769.873	644.43
770.056	748.87
770.239	691.53
770.421	707.91
770.604	656.72
770.787	705.87
770.97	658.76
771.152	595.28
771.335	664.91
771.518	605.52
771.7	681.29
771.883	732.49
772.066	578.89
772.248	695.63
772.431	679.24
772.613	638.28
772.796	638.28
772.978	761.16
773.161	609.61
773.343	650.57
773.526	603.47
773.708	609.61
773.891	560.46
774.073	623.95
774.256	613.71
774.438	730.44
774.621	650.57
774.803	634.19
774.985	646.48
775.168	576.84
775.35	572.75
775.532	689.48
775.715	525.65
775.897	671.05
776.079	525.65
776.261	650.57
776.444	646.48
776.626	607.56
776.808	601.42
776.99	638.28
777.173	562.51
777.355	623.95
777.537	474.45
777.719	558.41
777.901	556.36
778.083	599.37
778.265	550.22
778.447	623.95
778.629	523.6
778.811	574.8
778.993	548.17
779.175	613.71
779.357	548.17
779.539	488.78
779.721	470.35
779.903	671.05
780.085	496.97
780.267	507.21
780.449	548.17
780.631	507.21
780.812	478.54
780.994	562.51
781.176	507.21
781.358	474.45
781.54	527.69
781.721	456.01
781.903	474.45
782.085	480.59
782.267	484.69
782.448	433.49
782.63	400.72
782.812	484.69
782.993	486.73
783.175	453.97
783.357	388.43
783.538	490.83
783.72	410.96
783.901	374.1
784.083	384.34
784.264	447.82
784.446	410.96
784.627	318.8
784.809	449.87
784.99	351.57
785.172	410.96
785.353	353.62
785.535	394.58
785.716	341.33
785.897	425.29
786.079	509.26
786.26	410.96
786.441	466.25
786.623	308.56
786.804	310.61
786.985	347.47
787.167	351.57
787.348	388.43
787.529	376.14
787.71	306.51
787.891	351.57
788.073	351.57
788.254	279.89
788.435	380.24
788.616	279.89
788.797	347.47
788.978	386.38
789.159	343.38
789.34	263.51
789.522	318.8
789.703	312.66
789.884	376.14
790.065	394.58
790.246	329.04
790.427	316.75
790.607	292.18
790.788	337.23
790.969	310.61
791.15	273.75
791.331	318.8
791.512	335.18
791.693	220.5
791.874	249.17
792.054	400.72
792.235	372.05
792.416	359.76
792.597	314.7
792.778	296.27
792.958	312.66
793.139	300.37
793.32	273.75
793.5	208.21
793.681	343.38
793.862	281.94
794.042	253.27
794.223	214.35
794.404	238.93
794.584	216.4
794.765	261.46
794.945	216.4
795.126	232.79
795.306	359.76
795.487	308.56
795.667	234.83
795.848	310.61
796.028	267.6
796.209	281.94
796.389	245.07
796.57	195.92
796.75	154.96
796.93	247.12
797.111	234.83
797.291	253.27
797.471	249.17
797.652	179.54
797.832	236.88
798.012	261.46
798.192	222.55
798.373	150.87
798.553	208.21
798.733	224.59
798.913	163.15
799.093	167.25
799.274	163.15
799.454	253.27
799.634	251.22
799.814	212.31
799.994	310.61
800.174	236.88
800.354	238.93
800.534	261.46
800.714	197.97
800.894	163.15
801.074	154.96
801.254	173.39
801.434	238.93
801.614	157.01
801.794	212.31
801.974	785.74
802.154	181.59
802.334	216.4
802.514	220.5
802.693	154.96
802.873	163.15
803.053	206.16
803.233	200.02
803.413	179.54
803.592	97.62
803.772	181.59
803.952	191.83
804.131	116.05
804.311	124.24
804.491	218.45
804.67	159.06
804.85	157.01
805.03	179.54
805.209	159.06
805.389	105.81
805.568	159.06
805.748	179.54
805.928	122.2
806.107	179.54
806.287	130.39
806.466	146.77
806.646	56.66
806.825	64.85
807.004	99.67
807.184	122.2
807.363	87.38
807.543	177.49
807.722	83.28
807.901	177.49
808.081	197.97
808.26	138.58
808.439	146.77
808.619	144.72
808.798	148.82
808.977	111.96
809.156	189.78
809.336	136.53
809.515	204.11
809.694	114
809.873	128.34
810.052	99.67
810.231	148.82
810.411	101.72
810.59	197.97
810.769	107.86
810.948	103.76
811.127	48.47
811.306	89.43
811.485	81.24
811.664	230.74
811.843	148.82
812.022	154.96
812.201	124.24
812.38	89.43
812.559	103.76
812.737	118.1
812.916	105.81
813.095	138.58
813.274	97.62
813.453	107.86
813.632	146.77
813.811	222.55
813.989	79.19
814.168	124.24
814.347	89.43
814.526	71
814.704	101.72
814.883	142.68
815.062	42.32
815.24	134.48
815.419	97.62
815.598	44.37
815.776	114
815.955	89.43
816.133	118.1
816.312	105.81
816.49	83.28
816.669	105.81
816.847	122.2
817.026	154.96
817.204	138.58
817.383	97.62
817.561	107.86
817.74	73.04
817.918	126.29
818.097	44.37
818.275	64.85
818.453	128.34
818.632	101.72
818.81	95.57
818.988	93.52
819.167	36.18
819.345	116.05
819.523	111.96
819.701	68.95
819.879	195.92
820.058	81.24
820.236	118.1
820.414	130.39
820.592	68.95
820.77	126.29
820.948	118.1
821.127	144.72
821.305	34.13
821.483	56.66
821.661	99.67
821.839	89.43
822.017	109.91
822.195	99.67
822.373	142.68
822.551	25.94
822.729	91.48
822.907	107.86
823.085	97.62
823.262	64.85
823.44	122.2
823.618	23.89
823.796	79.19
823.974	89.43
824.152	58.71
824.329	23.89
824.507	73.04
824.685	169.3
824.863	56.66
825.04	68.95
825.218	60.76
825.396	77.14
825.574	154.96
825.751	66.9
825.929	114
826.107	9.56
826.284	97.62
826.462	13.65
826.639	32.08
826.817	42.32
826.994	109.91
827.172	19.8
827.349	130.39
827.527	140.63
827.704	122.2
827.882	64.85
828.059	140.63
828.237	40.28
828.414	89.43
828.591	19.8
828.769	36.18
828.946	32.08
829.124	109.91
829.301	36.18
829.478	44.37
829.655	150.87
829.833	32.08
830.01	-23.21
830.187	154.96
830.364	93.52
830.542	173.39
830.719	122.2
830.896	148.82
831.073	44.37
831.25	111.96
831.427	68.95
831.604	68.95
831.782	44.37
831.959	66.9
832.136	44.37
832.313	48.47
832.49	-2.73
832.667	89.43
832.844	52.56
833.021	93.52
833.198	34.13
833.374	23.89
833.551	58.71
833.728	109.91
833.905	68.95
834.082	73.04
834.259	85.33
834.436	42.32
834.612	36.18
834.789	66.9
834.966	-0.68
835.143	9.56
835.319	71
835.496	66.9
835.673	34.13
835.85	48.47
836.026	23.89
836.203	91.48
836.38	48.47
836.556	27.99
836.733	40.28
836.909	97.62
837.086	3.41
837.262	15.7
837.439	-8.87
837.616	81.24
837.792	-19.11
837.968	107.86
838.145	3.41
838.321	-0.68
838.498	75.09
838.674	34.13
838.851	32.08
839.027	1.37
839.203	101.72
839.38	-23.21
839.556	101.72
839.732	52.56
839.909	85.33
840.085	68.95
840.261	-2.73
840.437	32.08
840.614	1.37
840.79	122.2
840.966	58.71
841.142	154.96
841.318	11.61
841.494	56.66
841.671	58.71
841.847	-41.64
842.023	40.28
842.199	40.28
842.375	40.28
842.551	-8.87
842.727	-12.97
842.903	99.67
843.079	-53.93
843.255	91.48
843.431	27.99
843.607	13.65
843.783	-31.4
843.959	40.28
844.134	73.04
844.31	77.14
844.486	56.66
844.662	-33.45
844.838	-4.78
845.013	91.48
845.189	58.71
845.365	50.52
845.541	-25.26
845.716	71
845.892	40.28
846.068	3.41
846.244	7.51
846.419	48.47
846.595	-4.78
846.77	15.7
846.946	48.47
847.122	101.72
847.297	73.04
847.473	89.43
847.648	50.52
847.824	60.76
847.999	-78.51
848.175	73.04
848.35	42.32
848.526	48.47
848.701	66.9
848.876	11.61
849.052	3.41
849.227	7.51
849.403	-0.68
849.578	73.04
849.753	15.7
849.929	1.37
850.104	-27.31
850.279	-0.68
850.454	15.7
850.63	7.51
850.805	32.08
850.98	-6.83
851.155	-37.55
851.33	-21.16
851.505	-39.59
851.681	118.1
851.856	-49.83
852.031	60.76
852.206	-29.35
852.381	68.95
852.556	32.08
852.731	15.7
852.906	52.56
853.081	34.13
853.256	36.18
853.431	9.56
853.606	68.95
853.781	-0.68
853.956	-82.6
854.131	-0.68
854.305	-82.6
854.48	-6.83
854.655	-0.68
854.83	-15.02
855.005	-70.31
855.18	17.75
855.354	42.32
855.529	27.99
855.704	19.8
855.879	81.24
856.053	-21.16
856.228	-0.68
856.403	15.7
856.577	56.66
856.752	7.51
856.926	34.13
857.101	34.13
857.276	25.94
857.45	48.47
857.625	-8.87
857.799	54.61
857.974	15.7
858.148	-70.31
858.323	56.66
858.497	-6.83
858.672	56.66
858.846	7.51
859.02	154.96
859.195	27.99
859.369	42.32
859.543	7.51
859.718	23.89
859.892	34.13
860.066	32.08
860.241	1.37
860.415	1.37
860.589	-35.5
860.763	-45.74
860.938	-55.98
861.112	-21.16
861.286	-19.11
861.46	7.51
861.634	-6.83
861.808	34.13
861.982	-41.64
862.157	21.85
862.331	34.13
862.505	58.71
862.679	1.37
862.853	17.75
863.027	42.32
863.201	-29.35
863.375	-31.4
863.549	81.24
863.722	15.7
863.896	50.52
864.07	-49.83
864.244	54.61
864.418	5.46
864.592	-25.26
864.766	25.94
864.939	5.46
865.113	3.41
865.287	23.89
865.461	-31.4
865.634	-12.97
865.808	-25.26
865.982	23.89
866.156	17.75
866.329	17.75
866.503	-0.68
866.676	83.28
866.85	56.66
867.024	13.65
867.197	27.99
867.371	-33.45
867.544	56.66
867.718	-49.83
867.891	15.7
868.065	-0.68
868.238	42.32
868.412	15.7
868.585	42.32
868.759	-33.45
868.932	1.37
869.105	-33.45
869.279	-66.22
869.452	9.56
869.625	-4.78
869.799	48.47
869.972	-12.97
870.145	64.85
870.319	-23.21
870.492	34.13
870.665	-49.83
870.838	-17.07
871.011	-23.21
871.185	-33.45
871.358	-15.02
871.531	-17.07
871.704	-17.07
871.877	-25.26
872.05	11.61
872.223	-101.03
872.396	-53.93
872.569	15.7
872.742	-66.22
872.915	-21.16
873.088	-15.02
873.261	-0.68
873.434	-58.03
873.607	-43.69
873.78	21.85
873.953	-17.07
874.126	40.28
874.299	13.65
874.471	3.41
874.644	34.13
874.817	23.89
874.99	-41.64
875.163	13.65
875.335	9.56
875.508	52.56
875.681	-25.26
875.853	-68.27
876.026	-0.68
876.199	-25.26
876.371	173.39
876.544	-41.64
876.717	3.41
876.889	5.46
877.062	30.04
877.234	7.51
877.407	73.04
877.579	-17.07
877.752	36.18
877.924	50.52
878.097	-37.55
878.269	-47.79
878.442	-2.73
878.614	-29.35
878.786	7.51
878.959	-12.97
879.131	-58.03
879.303	-27.31
879.476	-17.07
879.648	25.94
879.82	3.41
879.993	-27.31
880.165	-21.16
880.337	-25.26
880.509	-4.78
880.681	-33.45
880.854	38.23
881.026	-17.07
881.198	7.51
881.37	9.56
881.542	15.7
881.714	-4.78
881.886	5.46
882.058	36.18
882.23	-49.83
882.402	-21.16
882.574	44.37
882.746	19.8
882.918	15.7
883.09	-17.07
883.262	23.89
883.434	15.7
883.606	-0.68
883.778	1.37
883.95	15.7
884.122	23.89
884.293	-64.17
884.465	-2.73
884.637	-12.97
884.809	1.37
884.98	-37.55
885.152	-4.78
885.324	-21.16
885.496	-4.78
885.667	1.37
885.839	-25.26
886.011	-2.73
886.182	32.08
886.354	73.04
886.525	36.18
886.697	11.61
886.869	-25.26
887.04	-2.73
887.212	-19.11
887.383	50.52
887.555	-64.17
887.726	-33.45
887.897	42.32
888.069	34.13
888.24	19.8
888.412	44.37
888.583	40.28
888.754	-25.26
888.926	-49.83
889.097	1.37
889.268	-0.68
889.44	30.04
889.611	-4.78
889.782	17.75
889.953	7.51
890.125	52.56
890.296	19.8
890.467	-29.35
890.638	-45.74
890.809	93.52
890.98	9.56
891.151	-6.83
891.323	11.61
891.494	9.56
891.665	-17.07
891.836	42.32
892.007	-12.97
892.178	15.7
892.349	-31.4
892.52	11.61
892.691	7.51
892.862	27.99
893.032	-43.69
893.203	32.08
893.374	7.51
893.545	-21.16
893.716	-8.87
893.887	7.51
894.057	7.51
894.228	-25.26
894.399	3.41
894.57	-0.68
894.74	44.37
894.911	-25.26
895.082	1.37
895.253	-45.74
895.423	-12.97
895.594	15.7
895.764	56.66
895.935	-62.12
896.106	5.46
896.276	11.61
896.447	7.51
896.617	5.46
896.788	9.56
896.958	52.56
897.129	-4.78
897.299	-37.55
897.47	-6.83
897.64	-15.02
897.81	-74.41
897.981	-82.6
898.151	-37.55
898.322	15.7
898.492	44.37
898.662	-31.4
898.832	-29.35
899.003	-17.07
899.173	-2.73
899.343	-47.79
899.513	-25.26
