Data from USB4F104151__156__14-44-40-679.txt Node

Date: Thu Mar 13 14:44:40 EDT 2025
User: louis
Spectrometer: USB4F10415
Trigger mode: 4
Integration Time (sec): 2.000000E-2
Scans to average: 1
Electric dark correction enabled: true
Nonlinearity correction enabled: false
Boxcar width: 0
XAxis mode: Wavelengths
Number of Pixels in Spectrum: 3648
>>>>>Begin Spectral Data<<<<<
178.204	-116.22
178.424	-116.22
178.644	-116.22
178.864	-198.14
179.084	-71.17
179.304	-34.3
179.524	43.52
179.744	-19.97
179.964	10.75
180.184	-83.45
180.404	35.33
180.624	16.9
180.844	18.94
181.064	-3.58
181.283	-5.63
181.503	-62.98
181.723	84.48
181.943	-38.4
182.163	78.33
182.383	25.09
182.602	61.95
182.822	49.66
183.042	27.14
183.262	33.28
183.482	-7.68
183.701	10.75
183.921	100.86
184.141	47.62
184.361	35.33
184.58	27.14
184.8	35.33
185.02	45.57
185.239	-22.02
185.459	84.48
185.679	70.14
185.898	-22.02
186.118	68.09
186.338	64
186.557	72.19
186.777	-13.82
186.997	-30.21
187.216	6.66
187.436	96.77
187.655	78.33
187.875	113.15
188.095	43.52
188.314	35.33
188.534	94.72
188.753	45.57
188.973	27.14
189.192	55.81
189.412	43.52
189.631	6.66
189.851	4.61
190.07	96.77
190.29	-34.3
190.509	45.57
190.729	-50.69
190.948	43.52
191.168	129.53
191.387	43.52
191.607	59.9
191.826	18.94
192.045	-22.02
192.265	29.18
192.484	47.62
192.704	-1.54
192.923	-62.98
193.142	109.05
193.362	4.61
193.581	8.7
193.8	53.76
194.02	127.49
194.239	8.7
194.458	53.76
194.678	55.81
194.897	-46.59
195.116	-3.58
195.335	4.61
195.555	76.29
195.774	109.05
195.993	20.99
196.212	39.42
196.432	16.9
196.651	37.38
196.87	10.75
197.089	113.15
197.308	70.14
197.528	39.42
197.747	14.85
197.966	10.75
198.185	45.57
198.404	37.38
198.623	27.14
198.842	18.94
199.062	102.91
199.281	59.9
199.5	29.18
199.719	18.94
199.938	76.29
200.157	68.09
200.376	49.66
200.595	53.76
200.814	92.67
201.033	49.66
201.252	53.76
201.471	27.14
201.69	117.25
201.909	-30.21
202.128	-9.73
202.347	45.57
202.566	-34.3
202.785	-3.58
203.004	39.42
203.223	174.59
203.442	37.38
203.661	37.38
203.879	53.76
204.098	29.18
204.317	10.75
204.536	64
204.755	35.33
204.974	-58.88
205.193	12.8
205.411	133.63
205.63	29.18
205.849	-26.11
206.068	100.86
206.287	29.18
206.505	76.29
206.724	-58.88
206.943	37.38
207.162	2.56
207.381	2.56
207.599	45.57
207.818	92.67
208.037	10.75
208.255	41.47
208.474	45.57
208.693	-5.63
208.911	31.23
209.13	59.9
209.349	10.75
209.567	90.62
209.786	-56.83
210.005	12.8
210.223	45.57
210.442	-28.16
210.661	-36.35
210.879	41.47
211.098	66.05
211.316	92.67
211.535	23.04
211.753	-1.54
211.972	35.33
212.191	43.52
212.409	-5.63
212.628	33.28
212.846	98.81
213.065	51.71
213.283	102.91
213.502	6.66
213.72	35.33
213.938	-17.92
214.157	-44.54
214.375	33.28
214.594	18.94
214.812	53.76
215.031	84.48
215.249	8.7
215.467	-1.54
215.686	78.33
215.904	4.61
216.122	64
216.341	61.95
216.559	-24.06
216.778	76.29
216.996	64
217.214	51.71
217.432	23.04
217.651	78.33
217.869	6.66
218.087	37.38
218.306	27.14
218.524	18.94
218.742	6.66
218.96	39.42
219.179	27.14
219.397	12.8
219.615	90.62
219.833	92.67
220.051	-26.11
220.27	43.52
220.488	39.42
220.706	-13.82
220.924	-13.82
221.142	25.09
221.36	25.09
221.578	16.9
221.796	14.85
222.015	-3.58
222.233	-5.63
222.451	70.14
222.669	-7.68
222.887	84.48
223.105	59.9
223.323	94.72
223.541	70.14
223.759	84.48
223.977	35.33
224.195	117.25
224.413	51.71
224.631	45.57
224.849	29.18
225.067	61.95
225.285	10.75
225.503	-34.3
225.721	23.04
225.939	33.28
226.157	51.71
226.375	100.86
226.592	-30.21
226.81	100.86
227.028	55.81
227.246	51.71
227.464	4.61
227.682	2.56
227.9	10.75
228.117	70.14
228.335	4.61
228.553	59.9
228.771	-11.78
228.989	-9.73
229.206	29.18
229.424	20.99
229.642	61.95
229.86	33.28
230.077	35.33
230.295	18.94
230.513	70.14
230.731	86.53
230.948	39.42
231.166	18.94
231.384	59.9
231.601	-3.58
231.819	100.86
232.037	35.33
232.254	-28.16
232.472	53.76
232.689	-22.02
232.907	31.23
233.125	0.51
233.342	-30.21
233.56	-13.82
233.777	53.76
233.995	12.8
234.213	59.9
234.43	-22.02
234.648	-3.58
234.865	-11.78
235.083	43.52
235.3	59.9
235.518	76.29
235.735	84.48
235.953	23.04
236.17	20.99
236.388	23.04
236.605	20.99
236.822	-5.63
237.04	51.71
237.257	-22.02
237.475	14.85
237.692	53.76
237.909	53.76
238.127	70.14
238.344	74.24
238.562	72.19
238.779	-52.74
238.996	45.57
239.214	6.66
239.431	43.52
239.648	-50.69
239.865	59.9
240.083	84.48
240.3	76.29
240.517	68.09
240.735	10.75
240.952	43.52
241.169	98.81
241.386	70.14
241.603	27.14
241.821	78.33
242.038	68.09
242.255	23.04
242.472	-46.59
242.689	-1.54
242.907	43.52
243.124	18.94
243.341	78.33
243.558	84.48
243.775	4.61
243.992	10.75
244.209	51.71
244.426	57.86
244.643	6.66
244.86	4.61
245.078	61.95
245.295	102.91
245.512	12.8
245.729	18.94
245.946	102.91
246.163	53.76
246.38	-69.12
246.597	84.48
246.814	78.33
247.031	-13.82
247.248	-32.26
247.464	102.91
247.681	-34.3
247.898	59.9
248.115	-9.73
248.332	-13.82
248.549	92.67
248.766	43.52
248.983	-50.69
249.2	68.09
249.417	20.99
249.633	20.99
249.85	43.52
250.067	20.99
250.284	-26.11
250.501	27.14
250.717	43.52
250.934	-60.93
251.151	31.23
251.368	80.38
251.585	10.75
251.801	-13.82
252.018	-13.82
252.235	84.48
252.451	84.48
252.668	-38.4
252.885	133.63
253.102	35.33
253.318	27.14
253.535	27.14
253.752	59.9
253.968	29.18
254.185	27.14
254.401	20.99
254.618	92.67
254.835	47.62
255.051	-17.92
255.268	33.28
255.484	14.85
255.701	61.95
255.917	39.42
256.134	18.94
256.351	86.53
256.567	-38.4
256.784	-5.63
257	14.85
257.217	74.24
257.433	39.42
257.65	88.57
257.866	39.42
258.082	61.95
258.299	-77.31
258.515	51.71
258.732	6.66
258.948	-11.78
259.165	41.47
259.381	-3.58
259.597	-24.06
259.814	25.09
260.03	-22.02
260.246	35.33
260.463	-5.63
260.679	2.56
260.895	68.09
261.112	107.01
261.328	68.09
261.544	53.76
261.761	72.19
261.977	10.75
262.193	16.9
262.409	55.81
262.626	2.56
262.842	27.14
263.058	-3.58
263.274	55.81
263.49	51.71
263.707	18.94
263.923	2.56
264.139	-5.63
264.355	35.33
264.571	102.91
264.787	23.04
265.004	117.25
265.22	37.38
265.436	76.29
265.652	-46.59
265.868	-50.69
266.084	2.56
266.3	102.91
266.516	-7.68
266.732	-62.98
266.948	18.94
267.164	-19.97
267.38	59.9
267.596	35.33
267.812	80.38
268.028	55.81
268.244	-17.92
268.46	-5.63
268.676	66.05
268.892	2.56
269.108	29.18
269.324	41.47
269.54	-13.82
269.756	-7.68
269.972	35.33
270.188	64
270.403	20.99
270.619	80.38
270.835	51.71
271.051	-13.82
271.267	23.04
271.483	31.23
271.698	86.53
271.914	18.94
272.13	41.47
272.346	23.04
272.562	25.09
272.777	35.33
272.993	-11.78
273.209	23.04
273.425	119.29
273.64	-30.21
273.856	10.75
274.072	18.94
274.287	18.94
274.503	-34.3
274.719	27.14
274.934	10.75
275.15	-34.3
275.366	68.09
275.581	23.04
275.797	12.8
276.012	72.19
276.228	-9.73
276.444	78.33
276.659	45.57
276.875	-17.92
277.09	45.57
277.306	37.38
277.521	2.56
277.737	-15.87
277.952	51.71
278.168	64
278.383	43.52
278.599	43.52
278.814	92.67
279.03	14.85
279.245	76.29
279.461	51.71
279.676	59.9
279.892	-19.97
280.107	-28.16
280.322	16.9
280.538	23.04
280.753	-22.02
280.969	29.18
281.184	37.38
281.399	51.71
281.615	20.99
281.83	70.14
282.045	12.8
282.26	-28.16
282.476	-19.97
282.691	49.66
282.906	20.99
283.122	92.67
283.337	18.94
283.552	68.09
283.767	43.52
283.983	-9.73
284.198	-5.63
284.413	92.67
284.628	-5.63
284.843	47.62
285.058	45.57
285.274	29.18
285.489	31.23
285.704	35.33
285.919	51.71
286.134	4.61
286.349	53.76
286.564	-30.21
286.779	47.62
286.995	59.9
287.21	109.05
287.425	47.62
287.64	37.38
287.855	-11.78
288.07	39.42
288.285	10.75
288.5	86.53
288.715	14.85
288.93	35.33
289.145	2.56
289.36	86.53
289.575	61.95
289.79	31.23
290.004	51.71
290.219	74.24
290.434	94.72
290.649	-44.54
290.864	23.04
291.079	18.94
291.294	78.33
291.509	2.56
291.724	51.71
291.938	-44.54
292.153	18.94
292.368	16.9
292.583	-30.21
292.798	18.94
293.012	55.81
293.227	61.95
293.442	16.9
293.657	88.57
293.871	43.52
294.086	10.75
294.301	35.33
294.516	53.76
294.73	-5.63
294.945	-17.92
295.16	68.09
295.374	70.14
295.589	68.09
295.804	6.66
296.018	-9.73
296.233	72.19
296.447	53.76
296.662	-32.26
296.877	55.81
297.091	61.95
297.306	55.81
297.52	64
297.735	39.42
297.949	-52.74
298.164	43.52
298.378	59.9
298.593	78.33
298.807	68.09
299.022	37.38
299.236	61.95
299.451	20.99
299.665	86.53
299.88	4.61
300.094	-1.54
300.309	55.81
300.523	55.81
300.737	39.42
300.952	92.67
301.166	43.52
301.381	76.29
301.595	76.29
301.809	41.47
302.024	-26.11
302.238	-44.54
302.452	59.9
302.667	51.71
302.881	109.05
303.095	-11.78
303.309	27.14
303.524	33.28
303.738	35.33
303.952	51.71
304.166	59.9
304.381	-62.98
304.595	86.53
304.809	64
305.023	37.38
305.237	84.48
305.452	64
305.666	29.18
305.88	86.53
306.094	51.71
306.308	-7.68
306.522	72.19
306.736	100.86
306.95	47.62
307.164	37.38
307.379	-5.63
307.593	51.71
307.807	104.96
308.021	35.33
308.235	45.57
308.449	-9.73
308.663	-7.68
308.877	68.09
309.091	6.66
309.305	23.04
309.519	4.61
309.733	92.67
309.947	-5.63
310.161	68.09
310.374	117.25
310.588	133.63
310.802	-71.17
311.016	12.8
311.23	14.85
311.444	61.95
311.658	-19.97
311.872	37.38
312.085	68.09
312.299	14.85
312.513	45.57
312.727	53.76
312.941	55.81
313.154	47.62
313.368	25.09
313.582	53.76
313.796	39.42
314.009	27.14
314.223	20.99
314.437	14.85
314.651	39.42
314.864	57.86
315.078	-15.87
315.292	8.7
315.505	-9.73
315.719	23.04
315.933	59.9
316.146	27.14
316.36	27.14
316.573	80.38
316.787	88.57
317.001	10.75
317.214	-5.63
317.428	150.01
317.641	-46.59
317.855	35.33
318.068	23.04
318.282	-22.02
318.495	76.29
318.709	51.71
318.922	80.38
319.136	39.42
319.349	35.33
319.563	23.04
319.776	6.66
319.99	-54.78
320.203	2.56
320.417	78.33
320.63	-28.16
320.843	107.01
321.057	14.85
321.27	43.52
321.483	133.63
321.697	-1.54
321.91	51.71
322.124	2.56
322.337	6.66
322.55	59.9
322.763	53.76
322.977	31.23
323.19	-13.82
323.403	59.9
323.617	10.75
323.83	104.96
324.043	92.67
324.256	-15.87
324.469	59.9
324.683	131.58
324.896	100.86
325.109	20.99
325.322	-50.69
325.535	100.86
325.748	59.9
325.962	35.33
326.175	51.71
326.388	59.9
326.601	74.24
326.814	82.43
327.027	68.09
327.24	37.38
327.453	-13.82
327.666	20.99
327.879	59.9
328.092	55.81
328.305	51.71
328.518	-22.02
328.731	-17.92
328.944	66.05
329.157	-22.02
329.37	18.94
329.583	37.38
329.796	76.29
330.009	-67.07
330.222	100.86
330.435	31.23
330.648	18.94
330.861	-36.35
331.073	47.62
331.286	80.38
331.499	45.57
331.712	-22.02
331.925	68.09
332.138	-22.02
332.35	125.44
332.563	53.76
332.776	10.75
332.989	43.52
333.202	39.42
333.414	90.62
333.627	31.23
333.84	45.57
334.053	43.52
334.265	61.95
334.478	84.48
334.691	84.48
334.903	76.29
335.116	43.52
335.329	74.24
335.541	8.7
335.754	121.34
335.966	-11.78
336.179	96.77
336.392	6.66
336.604	59.9
336.817	72.19
337.029	33.28
337.242	31.23
337.454	35.33
337.667	25.09
337.88	88.57
338.092	43.52
338.305	78.33
338.517	-24.06
338.729	74.24
338.942	72.19
339.154	35.33
339.367	43.52
339.579	94.72
339.792	-22.02
340.004	-5.63
340.217	23.04
340.429	59.9
340.641	47.62
340.854	-9.73
341.066	-42.5
341.278	104.96
341.491	100.86
341.703	35.33
341.915	-13.82
342.128	68.09
342.34	43.52
342.552	6.66
342.764	53.76
342.977	88.57
343.189	70.14
343.401	35.33
343.613	43.52
343.826	68.09
344.038	-13.82
344.25	12.8
344.462	27.14
344.674	57.86
344.886	43.52
345.099	37.38
345.311	37.38
345.523	45.57
345.735	-38.4
345.947	55.81
346.159	8.7
346.371	16.9
346.583	23.04
346.795	137.73
347.007	14.85
347.219	76.29
347.431	74.24
347.643	59.9
347.855	2.56
348.067	107.01
348.279	14.85
348.491	29.18
348.703	35.33
348.915	74.24
349.127	43.52
349.339	78.33
349.551	78.33
349.763	-1.54
349.975	33.28
350.187	76.29
350.399	12.8
350.61	55.81
350.822	14.85
351.034	59.9
351.246	14.85
351.458	88.57
351.669	51.71
351.881	64
352.093	39.42
352.305	68.09
352.517	117.25
352.728	55.81
352.94	10.75
353.152	158.21
353.363	27.14
353.575	43.52
353.787	90.62
353.999	53.76
354.21	59.9
354.422	25.09
354.633	43.52
354.845	27.14
355.057	86.53
355.268	76.29
355.48	27.14
355.692	-58.88
355.903	-54.78
356.115	39.42
356.326	49.66
356.538	27.14
356.749	49.66
356.961	100.86
357.172	47.62
357.384	-52.74
357.595	111.1
357.807	109.05
358.018	68.09
358.23	2.56
358.441	80.38
358.653	154.11
358.864	64
359.075	72.19
359.287	18.94
359.498	64
359.709	4.61
359.921	12.8
360.132	78.33
360.344	113.15
360.555	23.04
360.766	86.53
360.977	10.75
361.189	78.33
361.4	82.43
361.611	61.95
361.823	109.05
362.034	76.29
362.245	-60.93
362.456	47.62
362.667	-13.82
362.879	61.95
363.09	12.8
363.301	-13.82
363.512	102.91
363.723	6.66
363.935	-22.02
364.146	4.61
364.357	41.47
364.568	80.38
364.779	-36.35
364.99	49.66
365.201	33.28
365.412	100.86
365.623	-22.02
365.834	100.86
366.045	121.34
366.256	90.62
366.467	80.38
366.678	-42.5
366.889	53.76
367.1	35.33
367.311	14.85
367.522	25.09
367.733	45.57
367.944	70.14
368.155	23.04
368.366	18.94
368.577	43.52
368.788	68.09
368.999	14.85
369.209	8.7
369.42	64
369.631	109.05
369.842	59.9
370.053	18.94
370.264	-9.73
370.474	-65.02
370.685	47.62
370.896	84.48
371.107	59.9
371.317	119.29
371.528	39.42
371.739	47.62
371.95	88.57
372.16	111.1
372.371	-38.4
372.582	-24.06
372.792	92.67
373.003	43.52
373.214	68.09
373.424	-9.73
373.635	0.51
373.846	111.1
374.056	2.56
374.267	100.86
374.477	16.9
374.688	43.52
374.898	53.76
375.109	10.75
375.319	92.67
375.53	72.19
375.74	59.9
375.951	55.81
376.161	10.75
376.372	92.67
376.582	51.71
376.793	59.9
377.003	27.14
377.214	35.33
377.424	41.47
377.635	35.33
377.845	72.19
378.055	82.43
378.266	-54.78
378.476	-17.92
378.686	43.52
378.897	-13.82
379.107	76.29
379.317	51.71
379.528	80.38
379.738	35.33
379.948	33.28
380.158	6.66
380.369	53.76
380.579	104.96
380.789	61.95
380.999	45.57
381.21	41.47
381.42	164.35
381.63	18.94
381.84	8.7
382.05	55.81
382.261	35.33
382.471	55.81
382.681	35.33
382.891	125.44
383.101	100.86
383.311	45.57
383.521	64
383.731	-26.11
383.941	121.34
384.151	14.85
384.361	10.75
384.571	35.33
384.781	98.81
384.991	39.42
385.201	43.52
385.411	10.75
385.621	27.14
385.831	90.62
386.041	92.67
386.251	-1.54
386.461	70.14
386.671	0.51
386.881	182.78
387.091	53.76
387.301	92.67
387.511	39.42
387.72	70.14
387.93	31.23
388.14	31.23
388.35	53.76
388.56	35.33
388.769	100.86
388.979	55.81
389.189	20.99
389.399	20.99
389.609	39.42
389.818	59.9
390.028	84.48
390.238	-5.63
390.447	-3.58
390.657	23.04
390.867	-1.54
391.076	78.33
391.286	14.85
391.496	68.09
391.705	68.09
391.915	84.48
392.125	121.34
392.334	45.57
392.544	68.09
392.753	68.09
392.963	70.14
393.172	115.2
393.382	31.23
393.591	59.9
393.801	53.76
394.01	137.73
394.22	68.09
394.429	-5.63
394.639	-9.73
394.848	47.62
395.058	55.81
395.267	64
395.477	84.48
395.686	109.05
395.895	133.63
396.105	125.44
396.314	12.8
396.524	59.9
396.733	98.81
396.942	84.48
397.152	100.86
397.361	113.15
397.57	68.09
397.78	143.87
397.989	102.91
398.198	104.96
398.407	107.01
398.617	86.53
398.826	29.18
399.035	84.48
399.244	51.71
399.453	27.14
399.663	2.56
399.872	111.1
400.081	78.33
400.29	84.48
400.499	117.25
400.708	43.52
400.917	96.77
401.127	150.01
401.336	51.71
401.545	64
401.754	127.49
401.963	123.39
402.172	109.05
402.381	61.95
402.59	100.86
402.799	25.09
403.008	199.16
403.217	53.76
403.426	53.76
403.635	100.86
403.844	94.72
404.053	150.01
404.262	158.21
404.471	133.63
404.68	182.78
404.888	143.87
405.097	98.81
405.306	88.57
405.515	162.3
405.724	96.77
405.933	111.1
406.142	88.57
406.35	242.17
406.559	133.63
406.768	141.82
406.977	135.68
407.185	160.25
407.394	193.02
407.603	68.09
407.812	178.69
408.02	217.6
408.229	201.21
408.438	223.74
408.646	141.82
408.855	258.56
409.064	174.59
409.272	231.93
409.481	242.17
409.69	199.16
409.898	340.47
410.107	223.74
410.315	301.56
410.524	281.08
410.733	281.08
410.941	272.89
411.15	412.15
411.358	320
411.567	309.76
411.775	289.28
411.984	299.52
412.192	338.43
412.401	346.62
412.609	457.21
412.818	403.96
413.026	367.1
413.234	436.73
413.443	403.96
413.651	416.25
413.86	461.3
414.068	528.89
414.276	506.36
414.485	426.49
414.693	428.54
414.901	600.57
415.11	535.03
415.318	506.36
415.526	567.8
415.734	735.73
415.943	639.48
416.151	676.34
416.359	713.21
416.567	633.33
416.776	657.91
416.984	711.16
417.192	764.4
417.4	717.3
417.608	731.64
417.817	756.21
418.025	961.01
418.233	842.23
418.441	952.82
418.649	952.82
418.857	1075.7
419.065	985.58
419.273	1001.97
419.481	1010.16
419.689	1047.02
419.897	1204.72
420.105	1079.79
420.313	1147.37
420.521	1202.67
420.729	1237.49
420.937	1350.12
421.145	1264.11
421.353	1429.99
421.561	1436.14
421.769	1464.81
421.977	1522.15
422.185	1602.02
422.393	1645.03
422.601	1798.63
422.809	1747.43
423.017	1731.05
423.224	1935.84
423.432	2021.86
423.64	1776.1
423.848	2034.14
424.056	2021.86
424.263	2206.17
424.471	2073.06
424.679	2275.81
424.887	2365.92
425.094	2361.82
425.302	2318.81
425.51	2539.99
425.718	2634.2
425.925	2605.53
426.133	2718.17
426.341	2855.38
426.548	2970.07
426.756	2836.95
426.964	2918.87
427.171	3230.16
427.379	3262.93
427.586	3273.17
427.794	3490.25
428.001	3459.53
428.209	3627.46
428.417	3680.71
428.624	3932.61
428.832	3901.89
429.039	3860.93
429.247	3975.62
429.454	4344.25
429.662	4565.43
429.869	4331.97
430.076	4549.05
430.284	4317.63
430.491	4778.42
430.699	4786.61
430.906	4897.21
431.114	4925.88
431.321	5165.49
431.528	5124.53
431.736	5523.88
431.943	5769.64
432.15	5507.5
432.358	5685.67
432.565	6060.45
432.772	5999.01
432.979	6242.72
433.187	6484.38
433.394	6453.66
433.601	6830.49
433.808	6779.29
434.016	6836.63
434.223	7145.87
434.43	7612.81
434.637	7338.38
434.844	7877
435.052	8108.42
435.259	7930.25
435.466	7895.43
435.673	7809.42
435.88	8372.61
436.087	8884.6
436.294	8790.39
436.501	8739.19
436.708	8950.14
436.915	9046.39
437.122	9578.86
437.329	9351.54
437.537	9728.36
437.743	9935.21
437.95	9949.54
438.157	10498.4
438.364	10725.72
438.571	10709.34
438.778	10606.94
438.985	11876.68
439.192	11354.45
439.399	11673.93
439.606	11358.55
439.813	12116.3
440.02	12773.69
440.227	12298.56
440.433	12529.98
440.64	12874.04
440.847	12826.94
441.054	13054.26
441.261	13965.61
441.467	14043.43
441.674	13979.95
441.881	14827.81
442.088	14614.82
442.294	14362.92
442.501	14764.32
442.708	14928.16
442.914	15606.03
443.121	16472.32
443.328	15958.28
443.534	16779.52
443.741	16222.47
443.948	16083.21
444.154	17576.18
444.361	17182.97
444.568	17438.97
444.774	17346.81
444.981	17500.4
445.187	17959.15
445.394	19030.24
445.6	18600.16
445.807	20691.14
446.013	19656.92
446.22	19800.27
446.426	20555.97
446.633	20730.05
446.839	21805.24
447.046	20809.92
447.252	21790.9
447.459	22050.99
447.665	21860.53
447.871	22532.26
448.078	23607.45
448.284	22614.18
448.491	23117.98
448.697	24141.97
448.903	24387.72
449.11	24701.06
449.316	24301.71
449.522	24651.91
449.728	25204.86
449.935	25624.7
450.141	25450.62
450.347	26198.13
450.553	25573.5
450.76	25798.77
450.966	26777.7
451.172	26255.47
451.378	27017.32
451.584	26554.47
451.791	27099.23
451.997	26738.79
452.203	27474.01
452.409	27361.37
452.615	27269.22
452.821	26243.18
453.027	26015.86
453.233	27531.36
453.44	26185.84
453.646	26617.96
453.852	26695.78
454.058	27357.28
454.264	26577
454.47	27037.8
454.676	26237.04
454.882	27306.08
455.088	24725.64
455.294	25108.61
455.5	25727.1
455.705	26065.01
455.911	24858.76
456.117	24565.9
456.323	23992.47
456.529	22722.73
456.735	24113.3
456.941	23267.48
457.147	22802.6
457.352	22339.76
457.558	22214.83
457.764	22089.9
457.97	21811.38
458.176	21020.86
458.381	21135.55
458.587	20074.7
458.793	19992.78
458.999	19065.05
459.204	20512.97
459.41	19994.83
459.616	18692.32
459.821	18880.74
460.027	18716.9
460.233	18204.91
460.438	17445.11
460.644	17684.72
460.85	16759.04
461.055	16515.33
461.261	16230.66
461.466	15401.24
461.672	14842.14
461.878	15831.31
462.083	14602.53
462.289	14496.03
462.494	14244.13
462.7	13959.47
462.905	13279.54
463.111	13799.73
463.316	13881.64
463.522	13488.43
463.727	13707.57
463.932	13789.49
464.138	13338.93
464.343	13517.11
464.549	13211.96
464.754	13248.82
464.959	13537.59
465.165	13033.79
465.37	12702.01
465.575	12429.63
465.781	12884.28
465.986	13111.61
466.191	12317
466.397	12353.86
466.602	11514.19
466.807	12177.73
467.012	12161.35
467.218	12179.78
467.423	11673.93
467.628	11958.6
467.833	12452.16
468.038	11927.88
468.244	11628.88
468.449	12048.71
468.654	11671.89
468.859	11641.17
469.064	11557.2
469.269	11178.33
469.474	11106.65
469.679	11315.54
469.885	11137.37
470.09	11293.01
470.295	11043.16
470.5	10742.11
470.705	10887.51
470.91	10637.66
471.115	10762.59
471.32	10748.25
471.525	10832.22
471.73	10391.91
471.935	10422.62
472.139	10086.76
472.344	10217.83
472.549	10088.81
472.754	10056.04
472.959	9871.72
473.164	9664.88
473.369	9625.97
473.574	9810.28
473.778	9693.55
473.983	9673.07
474.188	9666.92
474.393	9316.72
474.598	9380.21
474.802	9226.61
475.007	9081.21
475.212	9238.9
475.417	8868.22
475.621	8866.17
475.826	8700.28
476.031	8778.11
476.235	8558.97
476.44	8538.49
476.645	8423.81
476.849	8491.39
477.054	8493.44
477.259	8128.9
477.463	8204.67
477.668	8161.67
477.872	8147.33
478.077	8038.79
478.282	7733.64
478.486	7682.44
478.691	7780.75
478.895	7670.15
479.1	7457.17
479.304	7653.77
479.509	7457.17
479.713	7471.5
479.918	7303.57
480.122	7195.03
480.326	7369.1
480.531	7258.51
480.735	7354.77
480.94	7113.11
481.144	7432.59
481.348	7016.85
481.553	7278.99
481.757	6986.13
481.961	7197.07
482.166	7227.79
482.37	7170.45
482.574	7010.71
482.778	7184.79
482.983	7117.2
483.187	7063.96
483.391	7008.66
483.595	7084.44
483.8	7000.47
484.004	6893.97
484.208	6949.27
484.412	7137.68
484.616	6943.13
484.821	7010.71
485.025	6947.22
485.229	6916.5
485.433	6859.16
485.637	6812.06
485.841	6805.91
486.045	6984.09
486.249	7154.07
486.453	6924.69
486.657	7092.63
486.861	6932.89
487.065	6842.78
487.269	7053.72
487.473	6812.06
487.677	6920.6
487.881	7178.64
488.085	7002.52
488.289	7242.13
488.493	6988.18
488.697	7104.92
488.901	7088.53
489.105	6963.61
489.309	6957.46
489.512	7238.03
489.716	7016.85
489.92	6982.04
490.124	7066
490.328	7203.22
490.531	6930.84
490.735	7352.72
490.939	7109.01
491.143	6992.28
491.346	7295.38
491.55	7297.42
491.754	7137.68
491.958	7358.86
492.161	7350.67
492.365	7473.55
492.569	7381.39
492.772	7391.63
492.976	7336.34
493.18	7502.22
493.383	7598.48
493.587	7512.46
493.79	7807.37
493.994	7598.48
494.197	7545.23
494.401	7715.21
494.605	7621
494.808	8073.6
495.012	7915.91
495.215	8038.79
495.419	8049.03
495.622	7915.91
495.825	8046.98
496.029	7973.25
496.232	8368.51
496.436	8083.84
496.639	8485.25
496.843	8511.87
497.046	8440.19
497.249	8661.37
497.453	8655.23
497.656	8878.46
497.859	8804.73
498.063	8941.94
498.266	9228.66
498.469	8876.41
498.673	9288.05
498.876	9152.88
499.079	9183.6
499.282	9406.83
499.485	9632.11
499.689	9589.1
499.892	9804.14
500.095	10045.8
500.298	10029.41
500.501	9742.7
500.705	10195.3
500.908	10246.5
501.111	10430.82
501.314	10475.87
501.517	10482.02
501.72	10905.95
501.923	10797.4
502.126	10875.23
502.329	11061.59
502.532	11198.81
502.735	11276.63
502.938	11508.05
503.141	11419.99
503.344	11643.21
503.547	11647.31
503.75	11987.27
503.953	12228.93
504.156	12120.39
504.359	12286.28
504.562	12251.46
504.765	12525.89
504.968	12790.08
505.17	12872
505.373	12816.7
505.576	13166.9
505.779	13236.53
505.982	13238.58
506.185	13429.04
506.387	13410.61
506.59	13545.78
506.793	13994.28
506.996	14068.01
507.198	14225.7
507.401	14276.9
507.604	14493.99
507.807	14739.74
508.009	14792.99
508.212	14936.35
508.415	15178.01
508.617	15180.06
508.82	15485.2
509.022	15436.05
509.225	15927.56
509.428	15669.52
509.63	16179.47
509.833	16214.28
510.035	16517.38
510.238	16175.37
510.44	16769.28
510.643	16906.49
510.845	17160.44
511.048	16965.89
511.25	17182.97
511.453	17455.35
511.655	18049.26
511.858	17893.61
512.06	18088.17
512.262	18186.47
512.465	18372.84
512.667	18430.18
512.87	18839.78
513.072	18831.58
513.274	19009.76
513.477	19296.47
513.679	19329.24
513.881	19919.06
514.084	20033.74
514.286	19704.02
514.488	19947.73
514.69	20740.29
514.893	20572.36
515.095	20672.71
515.297	21389.5
515.499	21252.28
515.701	21450.94
515.904	21485.75
516.106	21631.16
516.308	21809.33
516.51	22223.02
516.712	22497.45
516.914	22296.75
517.116	22964.39
517.318	23136.41
517.52	23056.54
517.722	23187.61
517.925	23423.13
518.127	23664.79
518.329	24277.13
518.531	23812.24
518.733	24475.79
518.935	24696.97
519.136	24508.55
519.338	25069.7
519.54	25104.51
519.742	25239.68
519.944	25356.41
520.146	25720.95
520.348	25700.47
520.55	26136.69
520.752	26040.43
520.954	26783.85
521.155	26806.37
521.357	27074.66
521.559	27031.65
521.761	27471.96
521.963	27789.4
522.164	27867.22
522.366	27582.56
522.568	28383.31
522.77	28162.13
522.971	28536.91
523.173	28612.68
523.375	28792.9
523.576	28856.39
523.778	29249.6
523.98	29300.8
524.181	29495.36
524.383	29423.68
524.584	30009.4
524.786	29995.06
524.988	29911.1
525.189	30486.57
525.391	30097.46
525.592	30685.23
525.794	30761
525.995	31002.66
526.197	30660.65
526.398	31105.06
526.6	30894.12
526.801	31666.2
527.003	31442.98
527.204	31547.42
527.406	31707.16
527.607	31784.99
527.808	32014.36
528.01	31698.97
528.211	31871
528.412	32233.49
528.614	32352.27
528.815	32188.44
529.016	32827.4
529.218	32274.45
529.419	32804.88
529.62	32667.66
529.822	32634.89
530.023	32847.88
530.224	32770.06
530.425	32940.04
530.626	32428.05
530.828	32634.89
531.029	33300.48
531.23	33085.45
531.431	32845.83
531.632	33073.16
531.833	33484.8
532.035	33126.41
532.236	33228.8
532.437	33468.42
532.638	33456.13
532.839	33671.17
533.04	33392.64
533.241	33490.94
533.442	33802.24
533.643	33880.06
533.844	33558.53
534.045	33951.74
534.246	33337.35
534.447	33724.41
534.648	33427.46
534.849	33753.08
535.05	33284.1
535.251	33818.62
535.451	33345.54
535.652	33949.69
535.853	33642.49
536.054	34025.46
536.255	33880.06
536.456	33665.02
536.657	33992.7
536.857	33646.59
537.058	33644.54
537.259	33986.55
537.46	33937.4
537.66	33908.73
537.861	33638.4
538.062	33746.94
538.263	33961.98
538.463	33546.24
538.664	33912.83
538.865	33878.01
539.065	34418.67
539.266	33206.28
539.466	34230.26
539.667	33411.07
539.868	33800.19
540.068	33767.42
540.269	33908.73
540.469	33699.84
540.67	33468.42
540.87	33503.23
541.071	33718.27
541.271	33624.06
541.472	33583.1
541.672	33634.3
541.873	33531.9
542.073	33159.17
542.274	34211.83
542.474	33298.44
542.675	33269.76
542.875	34045.94
543.075	33767.42
543.276	33343.49
543.476	34154.49
543.676	33732.61
543.877	33574.91
544.077	33193.99
544.277	33187.85
544.478	33220.61
544.678	33759.23
544.878	33865.72
545.078	33515.52
545.279	33298.44
545.479	33433.6
545.679	33720.32
545.879	33445.89
546.079	33320.96
546.28	33476.61
546.48	33361.92
546.68	33769.47
546.88	33662.97
547.08	33716.22
547.28	33740.8
547.48	33314.82
547.68	33230.85
547.88	33212.42
548.081	33388.55
548.281	33339.4
548.481	33462.27
548.681	33873.92
548.881	33308.68
549.081	33273.86
549.28	33220.61
549.48	33628.16
549.68	33327.11
549.88	33753.08
550.08	33488.9
550.28	33525.76
550.48	33439.75
550.68	33419.27
550.88	32999.43
551.08	33060.87
551.279	33271.81
551.479	33259.52
551.679	33349.64
551.879	33292.29
552.079	33173.51
552.278	33077.26
552.478	33323.01
552.678	33237
552.878	33376.26
553.077	33331.2
553.277	32772.11
553.477	33495.04
553.676	33146.89
553.876	33218.57
554.076	32878.6
554.275	32888.84
554.475	32999.43
554.674	33095.69
554.874	32860.17
555.074	32663.57
555.273	32999.43
555.473	33040.39
555.672	32653.33
555.872	32583.69
556.071	33050.63
556.271	32983.05
556.47	32628.75
556.67	32493.58
556.869	32428.05
557.068	32210.96
557.268	32153.62
557.467	32901.13
557.667	32428.05
557.866	32749.58
558.065	32622.61
558.265	32294.93
558.464	31842.33
558.663	32526.35
558.863	32030.74
559.062	32366.61
559.261	32112.66
559.461	32274.45
559.66	31737.88
559.859	31866.91
560.058	31619.1
560.258	31750.17
560.457	31805.47
560.656	32077.85
560.855	31203.36
561.054	31719.45
561.253	31535.13
561.453	31320.1
561.652	31723.55
561.851	31940.63
562.05	31266.85
562.249	31060.01
562.448	31748.12
562.647	30937.13
562.846	30967.85
563.045	31385.63
563.244	30971.94
563.443	31137.83
563.642	30601.26
563.841	31017
564.04	30767.15
564.239	31019.05
564.438	30429.23
564.637	30689.32
564.836	30570.54
565.035	30292.02
565.234	30502.96
565.432	30038.07
565.631	30771.24
565.83	30382.13
566.029	30500.91
566.228	30236.72
566.427	30246.96
566.625	29999.16
566.824	29767.74
567.023	29970.49
567.222	29544.51
567.42	29784.12
567.619	29747.26
567.818	29405.25
568.016	29444.16
568.215	29577.28
568.414	29425.73
568.612	29669.44
568.811	29198.4
569.01	29356.1
569.208	28778.57
569.407	29298.75
569.605	28764.23
569.804	29073.48
570.002	28667.98
570.201	29233.22
570.4	28633.16
570.598	28639.31
570.797	28620.88
570.995	28620.88
571.193	28516.43
571.392	28690.51
571.59	27838.55
571.789	28454.99
571.987	28430.41
572.186	28131.41
572.384	27953.24
572.582	28186.71
572.781	27932.76
572.979	27512.92
573.177	27635.8
573.376	27734.1
573.574	27664.47
573.772	27682.91
573.971	27177.06
574.169	27228.26
574.367	26845.29
574.565	27363.42
574.763	27084.9
574.962	26814.57
575.16	26734.7
575.358	27121.76
575.556	26443.88
575.754	27052.13
575.952	26550.38
576.151	26937.44
576.349	26255.47
576.547	26245.23
576.745	26427.5
576.943	26333.29
577.141	26372.21
577.339	26196.08
577.537	26286.19
577.735	25974.9
577.933	25858.17
578.131	26159.22
578.329	25852.02
578.527	25800.82
578.725	25540.73
578.923	25622.65
579.121	25813.11
579.319	25370.75
579.516	25440.38
579.714	25374.84
579.912	25294.97
580.11	25075.84
580.308	25124.99
580.506	25016.45
580.704	24596.62
580.901	24971.39
581.099	25004.16
581.297	24795.27
581.495	24694.92
581.692	24879.24
581.89	24443.02
582.088	24479.88
582.285	24658.06
582.483	24707.21
582.681	24473.74
582.878	24424.59
583.076	24074.38
583.274	24604.81
583.471	23804.05
583.669	24109.2
583.866	23894.16
584.064	23943.31
584.262	23570.58
584.459	23795.86
584.657	23761.05
584.854	24072.34
585.052	23212.19
585.249	23750.81
585.447	23494.81
585.644	23269.53
585.841	23265.44
586.039	23629.98
586.236	23175.33
586.434	22841.51
586.631	22894.75
586.828	22808.74
587.026	22847.65
587.223	22984.87
587.42	22726.82
587.618	22687.91
587.815	22524.07
588.012	22603.94
588.21	22220.97
588.407	22845.6
588.604	22290.6
588.801	22149.29
588.999	22286.51
589.196	22198.45
589.393	22196.4
589.59	21971.12
589.787	22059.18
589.984	21760.18
590.182	21653.69
590.379	21694.64
590.576	21954.74
590.773	21612.73
590.97	21639.35
591.167	21745.84
591.364	21338.3
591.561	21516.47
591.758	21072.06
591.955	21018.82
592.152	21463.22
592.349	20945.09
592.546	21096.64
592.743	21477.56
592.94	20701.38
593.137	21223.61
593.334	21100.73
593.531	20605.13
593.727	20648.13
593.924	20490.44
594.121	20553.93
594.318	20766.92
594.515	20205.77
594.712	20353.23
594.908	20572.36
595.105	20347.08
595.302	20273.35
595.499	20302.03
595.696	19939.54
595.892	20050.13
596.089	20355.27
596.286	20105.42
596.482	19718.36
596.679	19716.31
596.876	19876.05
597.072	19704.02
597.269	19755.22
597.466	19427.54
597.662	19654.87
597.859	19753.17
598.055	19468.5
598.252	19271.9
598.448	19265.75
598.645	19437.78
598.841	19026.14
599.038	19056.86
599.234	19005.66
599.431	18913.5
599.627	18893.02
599.824	18829.54
600.02	18841.82
600.217	18841.82
600.413	18753.76
600.609	18381.03
600.806	18524.39
601.002	18516.2
601.198	18624.74
601.395	18360.55
601.591	18360.55
601.787	18215.15
601.984	18299.11
602.18	18069.74
602.376	18209
602.572	18092.27
602.769	18036.97
602.965	17993.97
603.161	18028.78
603.357	17879.28
603.553	17752.31
603.75	17889.52
603.946	17381.62
604.142	17770.74
604.338	17494.26
604.534	17754.35
604.73	17279.22
604.926	17549.56
605.122	17563.89
605.318	17481.97
605.514	17228.03
605.71	17156.35
605.906	17197.31
606.102	17185.02
606.298	17113.34
606.494	17142.01
606.69	17223.93
606.886	17178.87
607.082	16683.27
607.278	16865.53
607.474	16769.28
607.67	16877.82
607.866	16466.18
608.062	16984.32
608.257	16625.92
608.453	16709.89
608.649	16431.37
608.845	16339.21
609.041	16531.72
609.236	16869.63
609.432	16371.97
609.628	16447.75
609.824	16412.93
610.019	16320.77
610.215	16132.36
610.411	16414.98
610.606	16277.77
610.802	16118.03
610.998	15999.24
611.193	16060.68
611.389	15855.89
611.584	15888.65
611.78	15907.09
611.976	15921.42
612.171	15726.86
612.367	15698.19
612.562	15995.15
612.758	15640.85
612.953	15708.43
613.149	15538.45
613.344	15485.2
613.539	15661.33
613.735	15757.58
613.93	15585.55
614.126	15554.83
614.321	15587.6
614.517	15427.86
614.712	15315.22
614.907	15515.92
615.103	15427.86
615.298	15249.69
615.493	15466.77
615.688	15126.81
615.884	15339.8
616.079	15010.07
616.274	15380.76
616.47	15231.26
616.665	15190.3
616.86	15010.07
617.055	15077.66
617.25	15165.72
617.445	15077.66
617.641	14553.38
617.836	15032.6
618.031	15022.36
618.226	14946.59
618.421	14571.81
618.616	14965.02
618.811	14588.19
619.006	14749.98
619.201	14575.91
619.396	14678.3
619.591	14092.58
619.786	14534.95
619.981	14414.12
620.176	14371.11
620.371	14119.21
620.566	14356.77
620.761	14151.98
620.956	14395.68
621.151	13947.18
621.346	13936.94
621.541	13855.02
621.735	13789.49
621.93	13613.36
622.125	13586.74
622.32	13480.24
622.515	13580.59
622.709	13533.49
622.904	13447.47
623.099	13343.03
623.294	13396.28
623.488	13087.03
623.683	13359.41
623.878	13021.5
624.072	12777.79
624.267	12794.17
624.462	13007.16
624.656	12802.36
624.851	12824.89
625.046	12790.08
625.24	12669.25
625.435	12695.87
625.629	12357.96
625.824	12575.04
626.018	12237.13
626.213	12065.1
626.407	12321.09
626.602	12079.43
626.796	11989.32
626.991	12136.77
627.185	11927.88
627.38	12001.61
627.574	11848.01
627.768	11759.95
627.963	11655.5
628.157	11604.3
628.352	11786.57
628.546	11405.65
628.74	11577.68
628.935	11227.48
629.129	11331.92
629.323	11163.99
629.517	11080.02
629.712	11061.59
629.906	11026.78
630.1	11032.92
630.294	10946.9
630.489	10858.84
630.683	10891.61
630.877	10754.4
631.071	10942.81
631.265	10637.66
631.459	10668.38
631.653	10527.07
631.848	10688.86
632.042	10404.19
632.236	10346.85
632.43	10307.94
632.624	10295.65
632.818	10316.13
633.012	10064.23
633.206	10144.1
633.4	10115.43
633.594	9947.5
633.788	10053.99
633.982	9953.64
634.176	9818.47
634.369	9771.37
634.563	9730.41
634.757	9861.48
634.951	9703.79
635.145	9628.01
635.339	9492.85
635.533	9501.04
635.726	9595.25
635.92	9410.93
636.114	9560.43
636.308	9333.11
636.501	9093.49
636.695	9025.91
636.889	9138.55
637.083	9150.84
637.276	9185.65
637.47	9290.1
637.664	8989.05
637.857	9220.47
638.051	8972.66
638.244	8688
638.438	8759.67
638.632	8718.71
638.825	8763.77
639.019	8677.76
639.212	8595.84
639.406	8601.98
639.599	8368.51
639.793	8606.08
639.986	8313.22
640.18	8481.15
640.373	8235.39
640.567	8319.36
640.76	8204.67
640.954	8296.83
641.147	8096.13
641.34	8024.45
641.534	7981.45
641.727	7958.92
641.92	8163.72
642.114	8012.17
642.307	7917.96
642.5	7745.93
642.694	7543.18
642.887	7737.74
643.08	7762.31
643.273	7815.56
643.467	7555.47
643.66	7541.13
643.853	7559.56
644.046	7313.81
644.239	7496.08
644.432	7524.75
644.626	7227.79
644.819	7223.7
645.012	7195.03
645.205	7311.76
645.398	7301.52
645.591	7278.99
645.784	7109.01
645.977	6912.41
646.17	7199.12
646.363	6908.31
646.556	7006.61
646.749	7016.85
646.942	7158.16
647.135	6893.97
647.328	6838.68
647.521	6926.74
647.714	6736.28
647.907	6689.18
648.099	6531.48
648.292	6629.79
648.485	6748.57
648.678	6541.72
648.871	6504.86
649.064	6627.74
649.256	6728.09
649.449	6496.67
649.642	6498.72
649.835	6482.33
650.027	6265.25
650.22	6207.91
650.413	6257.06
650.605	6232.48
650.798	6177.19
650.991	6277.54
651.183	6449.57
651.376	6060.45
651.568	6054.31
651.761	6076.84
651.954	6044.07
652.146	5935.53
652.339	6232.48
652.531	5982.63
652.724	5779.88
652.916	5806.5
653.109	5788.07
653.301	5872.04
653.494	5814.7
653.686	5714.34
653.879	5845.41
654.071	5667.24
654.263	5681.58
654.456	5589.42
654.648	5650.86
654.84	5452.2
655.033	5613.99
655.225	5607.85
655.417	5394.86
655.61	5411.25
655.802	5599.66
655.994	5339.57
656.186	5421.49
656.379	5292.46
656.571	5364.14
656.763	5317.04
656.955	5204.4
657.148	5194.16
657.34	5239.22
657.532	5200.3
657.724	5138.87
657.916	5200.3
658.108	5145.01
658.3	5089.71
658.492	5274.03
658.684	4925.88
658.876	5032.37
659.068	5102
659.26	4794.81
659.452	4909.49
659.644	5020.08
659.836	4893.11
660.028	4854.2
660.22	4757.94
660.412	4790.71
660.604	4753.85
660.796	4788.66
660.988	4729.27
661.18	4704.7
661.372	4643.26
661.563	4680.12
661.755	4616.63
661.947	4573.63
662.139	4473.28
662.331	4544.95
662.522	4491.71
662.714	4512.19
662.906	4444.6
663.097	4426.17
663.289	4377.02
663.481	4192.7
663.673	4336.06
663.864	4297.15
664.056	4436.41
664.247	4366.78
664.439	4270.53
664.631	4192.7
664.822	4434.36
665.014	4241.86
665.205	4075.97
665.397	4303.29
665.588	4098.5
665.78	4241.86
665.971	4035.01
666.163	4078.02
666.354	4125.12
666.546	4166.08
666.737	3934.66
666.929	4016.58
667.12	3949
667.311	4032.96
667.503	4043.2
667.694	3901.89
667.885	3889.6
668.077	3920.32
668.268	3862.98
668.459	3811.78
668.651	3852.74
668.842	3922.37
669.033	3754.44
669.224	3746.25
669.416	3738.05
669.607	3781.06
669.798	3623.37
669.989	3871.17
670.18	3625.42
670.371	3746.25
670.563	3582.41
670.754	3615.18
670.945	3602.89
671.136	3615.18
671.327	3627.46
671.518	3656.14
671.709	3627.46
671.9	3586.51
672.091	3611.08
672.282	3533.26
672.473	3453.39
672.664	3561.93
672.855	3453.39
673.046	3508.68
673.237	3627.46
673.428	3529.16
673.619	3484.11
673.809	3557.83
674	3389.9
674.191	3422.67
674.382	3406.28
674.573	3434.96
674.764	3383.76
674.954	3484.11
675.145	3482.06
675.336	3543.5
675.527	3377.61
675.717	3350.99
675.908	3297.74
676.099	3486.15
676.289	3346.89
676.48	3271.12
676.671	3174.86
676.861	3369.42
677.052	3287.5
677.243	3203.54
677.433	3267.02
677.624	3353.04
677.814	3164.62
678.005	3230.16
678.195	3221.97
678.386	3176.91
678.576	3217.87
678.767	3054.03
678.957	3244.49
679.148	3281.36
679.338	3115.47
679.529	3140.05
679.719	3150.29
679.909	3213.77
680.1	3158.48
680.29	3289.55
680.481	3099.09
680.671	3056.08
680.861	3099.09
681.052	3131.86
681.242	3062.23
681.432	3148.24
681.622	3086.8
681.813	3135.95
682.003	3060.18
682.193	3107.28
682.383	3049.94
682.573	3195.34
682.764	3066.32
682.954	3129.81
683.144	3084.75
683.334	3025.36
683.524	3092.94
683.714	3090.9
683.904	3025.36
684.094	2927.06
684.284	2886.1
684.474	3047.89
684.664	2972.11
684.854	2910.68
685.044	2968.02
685.234	2871.76
685.424	2804.18
685.614	2820.56
685.804	2877.91
685.994	3013.07
686.184	2845.14
686.374	2927.06
686.564	2863.57
686.753	2970.07
686.943	2884.05
687.133	2922.96
687.323	2787.8
687.513	2931.16
687.702	2808.28
687.892	2759.13
688.082	2779.61
688.272	2992.59
688.461	2669.02
688.651	2697.69
688.841	2779.61
689.03	2726.36
689.22	2697.69
689.41	2691.54
689.599	2660.82
689.789	2583
689.979	2666.97
690.168	2669.02
690.358	2587.1
690.547	2554.33
690.737	2535.9
690.926	2578.9
691.116	2636.25
691.305	2658.78
691.495	2628.06
691.684	2519.51
691.874	2519.51
692.063	2449.88
692.252	2626.01
692.442	2578.9
692.631	2539.99
692.82	2564.57
693.01	2537.95
693.199	2492.89
693.388	2410.97
693.578	2451.93
693.767	2492.89
693.956	2439.64
694.146	2372.06
694.335	2413.02
694.524	2494.94
694.713	2353.63
694.902	2443.74
695.092	2345.44
695.281	2478.55
695.47	2322.91
695.659	2378.2
695.848	2427.35
696.037	2320.86
696.226	2255.33
696.415	2263.52
696.604	2404.83
696.793	2306.52
696.982	2284
697.171	2382.3
697.36	2355.68
697.549	2273.76
697.738	2361.82
697.927	2353.63
698.116	2351.58
698.305	2410.97
698.494	2259.42
698.683	2300.38
698.872	2451.93
699.061	2392.54
699.25	2271.71
699.438	2372.06
699.627	2304.48
699.816	2316.76
700.005	2298.33
700.193	2271.71
700.382	2312.67
700.571	2349.53
700.76	2294.24
700.948	2247.13
701.137	2300.38
701.326	2343.39
701.514	2210.27
701.703	2349.53
701.892	2214.37
702.08	2341.34
702.269	2222.56
702.457	2333.15
702.646	2247.13
702.834	2281.95
703.023	2245.09
703.212	2163.17
703.4	2165.21
703.589	2296.28
703.777	2312.67
703.965	2339.29
704.154	2212.32
704.342	2191.84
704.531	2216.41
704.719	2245.09
704.907	2230.75
705.096	2208.22
705.284	2175.45
705.472	2322.91
705.661	2240.99
705.849	2140.64
706.037	2243.04
706.226	2353.63
706.414	2216.41
706.602	2222.56
706.79	2390.49
706.979	2167.26
707.167	2245.09
707.355	2200.03
707.543	2251.23
707.731	2238.94
707.919	2316.76
708.107	2238.94
708.296	2314.72
708.484	2154.98
708.672	2208.22
708.86	2290.14
709.048	2224.61
709.236	2333.15
709.424	2189.79
709.612	2177.5
709.8	2173.41
709.988	2255.33
710.176	2169.31
710.364	2230.75
710.551	2181.6
710.739	2224.61
710.927	2152.93
711.115	2167.26
711.303	2197.98
711.491	2163.17
711.679	2132.45
711.866	2132.45
712.054	2259.42
712.242	2159.07
712.43	2210.27
712.617	2273.76
712.805	2296.28
712.993	2222.56
713.181	2105.82
713.368	2200.03
713.556	2232.8
713.744	2148.83
713.931	2214.37
714.119	2157.02
714.306	2208.22
714.494	2273.76
714.682	2218.46
714.869	2197.98
715.057	2281.95
715.244	2142.69
715.432	2296.28
715.619	2181.6
715.807	2240.99
715.994	2288.09
716.182	2279.9
716.369	2226.65
716.556	2222.56
716.744	2173.41
716.931	2208.22
717.119	2224.61
717.306	2224.61
717.493	2222.56
717.681	2120.16
717.868	2197.98
718.055	2077.15
718.242	2191.84
718.43	2365.92
718.617	2216.41
718.804	2204.13
718.991	2240.99
719.179	2183.65
719.366	2232.8
719.553	2226.65
719.74	2169.31
719.927	2116.06
720.114	2177.5
720.301	2179.55
720.488	2236.89
720.676	2124.26
720.863	2193.89
721.05	2273.76
721.237	2144.74
721.424	2271.71
721.611	2173.41
721.798	2161.12
721.985	2138.59
722.172	2124.26
722.358	2214.37
722.545	2200.03
722.732	2284
722.919	2382.3
723.106	2308.57
723.293	2175.45
723.48	2230.75
723.667	2220.51
723.853	2152.93
724.04	2232.8
724.227	2126.3
724.414	2218.46
724.6	2222.56
724.787	2175.45
724.974	2275.81
725.161	2247.13
725.347	2144.74
725.534	2077.15
725.72	2230.75
725.907	2234.85
726.094	2189.79
726.28	2103.78
726.467	2083.3
726.653	2091.49
726.84	2255.33
727.027	2265.57
727.213	2263.52
727.4	2331.1
727.586	2247.13
727.773	2224.61
727.959	2103.78
728.145	2347.48
728.332	2218.46
728.518	2253.28
728.705	2087.39
728.891	2154.98
729.077	2271.71
729.264	2165.21
729.45	2116.06
729.636	2265.57
729.823	2228.7
730.009	2210.27
730.195	2214.37
730.382	2224.61
730.568	2185.69
730.754	2173.41
730.94	2230.75
731.126	2279.9
731.313	2189.79
731.499	2159.07
731.685	2271.71
731.871	2197.98
732.057	2181.6
732.243	2204.13
732.429	2142.69
732.615	2099.68
732.801	2234.85
732.987	2075.1
733.173	2284
733.359	2177.5
733.545	2107.87
733.731	2216.41
733.917	2157.02
734.103	2296.28
734.289	2240.99
734.475	2232.8
734.661	2232.8
734.847	2263.52
735.033	2169.31
735.219	2128.35
735.404	2130.4
735.59	2175.45
735.776	2101.73
735.962	2050.53
736.148	2181.6
736.333	2095.58
736.519	2245.09
736.705	2208.22
736.89	2044.38
737.076	2173.41
737.262	1993.19
737.447	1954.27
737.633	2095.58
737.819	2159.07
738.004	2187.74
738.19	2165.21
738.375	2068.96
738.561	2085.34
738.747	2019.81
738.932	2134.5
739.118	2013.67
739.303	2030.05
739.489	2073.06
739.674	2132.45
739.859	2028
740.045	2091.49
740.23	1952.23
740.416	1993.19
740.601	1972.71
740.786	2099.68
740.972	2017.76
741.157	2052.58
741.342	2032.1
741.528	1954.27
741.713	2058.72
741.898	2075.1
742.084	1984.99
742.269	2116.06
742.454	1993.19
742.639	2052.58
742.824	1962.47
743.01	1905.12
743.195	2034.14
743.38	1919.46
743.565	1937.89
743.75	1919.46
743.935	1778.15
744.12	1939.94
744.305	2054.62
744.49	1952.23
744.675	1833.44
744.86	1886.69
745.045	1853.92
745.23	1872.36
745.415	1769.96
745.6	1884.64
745.785	1749.48
745.97	1911.27
746.155	1794.53
746.34	1907.17
746.525	1831.4
746.71	1806.82
746.895	1681.89
747.079	1720.81
747.264	1798.63
747.449	1747.43
747.634	1786.34
747.819	1786.34
748.003	1683.94
748.188	1677.8
748.373	1636.84
748.557	1602.02
748.742	1757.67
748.927	1739.24
749.111	1649.13
749.296	1634.79
749.481	1683.94
749.665	1675.75
749.85	1602.02
750.034	1563.11
750.219	1712.61
750.404	1661.41
750.588	1690.09
750.773	1526.25
750.957	1569.26
751.141	1456.62
751.326	1616.36
751.51	1608.17
751.695	1561.06
751.879	1559.02
752.064	1569.26
752.248	1456.62
752.432	1495.53
752.617	1456.62
752.801	1563.11
752.985	1616.36
753.17	1446.38
753.354	1458.67
753.538	1362.41
753.722	1370.6
753.907	1487.34
754.091	1307.12
754.275	1477.1
754.459	1337.84
754.643	1333.74
754.828	1356.27
755.012	1405.42
755.196	1257.96
755.38	1372.65
755.564	1280.49
755.748	1225.2
755.932	1343.98
756.116	1346.03
756.3	1317.36
756.484	1313.26
756.668	1264.11
756.852	1241.58
757.036	1317.36
757.22	1257.96
757.404	1239.53
757.588	1128.94
757.772	1268.2
757.956	1231.34
758.14	1202.67
758.323	1235.44
758.507	1161.71
758.691	1182.19
758.875	1176.05
759.059	1188.33
759.242	1151.47
759.426	1247.72
759.61	1159.66
759.794	1143.28
759.977	1186.29
760.161	1192.43
760.345	1229.29
760.528	1169.9
760.712	1122.8
760.895	1096.18
761.079	1128.94
761.263	1075.7
761.446	1100.27
761.63	1092.08
761.813	1110.51
761.997	1116.65
762.18	1038.83
762.364	1087.98
762.547	913.91
762.731	1102.32
762.914	1071.6
763.098	963.06
763.281	1083.89
763.464	1001.97
763.648	948.72
763.831	1053.17
764.015	944.63
764.198	930.29
764.381	1047.02
764.564	932.34
764.748	901.62
764.931	961.01
765.114	918
765.297	1001.97
765.481	936.43
765.664	930.29
765.847	958.96
766.03	907.76
766.213	881.14
766.397	1014.26
766.58	891.38
766.763	920.05
766.946	918
767.129	879.09
767.312	852.47
767.495	973.3
767.678	895.47
767.861	911.86
768.044	952.82
768.227	995.82
768.41	829.94
768.593	946.67
768.776	840.18
768.959	936.43
769.142	922.1
769.324	903.67
769.507	891.38
769.69	858.61
769.873	819.7
770.056	958.96
770.239	887.28
770.421	823.8
770.604	881.14
770.787	881.14
770.97	895.47
771.152	920.05
771.335	848.37
771.518	846.32
771.7	881.14
771.883	909.81
772.066	772.6
772.248	823.8
772.431	879.09
772.613	825.84
772.796	819.7
772.978	766.45
773.161	821.75
773.343	780.79
773.526	825.84
773.708	821.75
773.891	694.77
774.073	700.92
774.256	752.12
774.438	840.18
774.621	774.64
774.803	801.27
774.985	690.68
775.168	672.25
775.35	741.88
775.532	772.6
775.715	731.64
775.897	676.34
776.079	702.97
776.261	725.49
776.444	696.82
776.626	651.77
776.808	682.49
776.99	674.29
777.173	672.25
777.355	682.49
777.537	625.14
777.719	633.33
777.901	709.11
778.083	610.81
778.265	676.34
778.447	707.06
778.629	651.77
778.811	678.39
778.993	602.61
779.175	619
779.357	696.82
779.539	571.9
779.721	498.17
779.903	643.57
780.085	602.61
780.267	678.39
780.449	551.42
780.631	666.1
780.812	678.39
780.994	561.66
781.176	561.66
781.358	473.59
781.54	592.37
781.721	625.14
781.903	573.94
782.085	510.46
782.267	586.23
782.448	506.36
782.63	559.61
782.812	530.94
782.993	543.22
783.175	553.46
783.357	455.16
783.538	471.54
783.72	567.8
783.901	559.61
784.083	428.54
784.264	502.26
784.446	449.02
784.627	510.46
784.809	512.5
784.99	481.78
785.172	512.5
785.353	379.39
785.535	440.83
785.716	520.7
785.897	432.63
786.079	489.98
786.26	453.11
786.441	373.24
786.623	424.44
786.804	449.02
786.985	430.59
787.167	387.58
787.348	403.96
787.529	379.39
787.71	395.77
787.891	379.39
788.073	453.11
788.254	346.62
788.435	498.17
788.616	332.28
788.797	408.06
788.978	340.47
789.159	324.09
789.34	424.44
789.522	432.63
789.703	340.47
789.884	315.9
790.065	320
790.246	406.01
790.427	406.01
790.607	389.63
790.788	330.23
790.969	395.77
791.15	373.24
791.331	373.24
791.512	297.47
791.693	383.48
791.874	317.95
792.054	385.53
792.235	387.58
792.416	254.46
792.597	317.95
792.778	324.09
792.958	330.23
793.139	311.8
793.32	408.06
793.5	281.08
793.681	272.89
793.862	299.52
794.042	338.43
794.223	262.65
794.404	242.17
794.584	250.36
794.765	301.56
794.945	336.38
795.126	291.32
795.306	260.6
795.487	369.15
795.667	262.65
795.848	315.9
796.028	274.94
796.209	250.36
796.389	295.42
796.57	276.99
796.75	281.08
796.93	354.81
797.111	244.22
797.291	305.66
797.471	330.23
797.652	289.28
797.832	219.64
798.012	379.39
798.192	248.32
798.373	225.79
798.553	193.02
798.733	367.1
798.913	143.87
799.093	264.7
799.274	258.56
799.454	252.41
799.634	270.84
799.814	313.85
799.994	260.6
800.174	272.89
800.354	240.12
800.534	225.79
800.714	256.51
800.894	258.56
801.074	178.69
801.254	186.88
801.434	225.79
801.614	264.7
801.794	180.73
801.974	860.66
802.154	276.99
802.334	367.1
802.514	219.64
802.693	203.26
802.873	111.1
803.053	266.75
803.233	246.27
803.413	223.74
803.592	223.74
803.772	176.64
803.952	244.22
804.131	207.36
804.311	203.26
804.491	231.93
804.67	211.45
804.85	264.7
805.03	215.55
805.209	227.84
805.389	207.36
805.568	182.78
805.748	199.16
805.928	240.12
806.107	199.16
806.287	236.03
806.466	190.97
806.646	231.93
806.825	240.12
807.004	137.73
807.184	268.8
807.363	168.45
807.543	166.4
807.722	150.01
807.901	248.32
808.081	276.99
808.26	209.4
808.439	186.88
808.619	166.4
808.798	223.74
808.977	143.87
809.156	150.01
809.336	201.21
809.515	190.97
809.694	172.54
809.873	186.88
810.052	152.06
810.231	248.32
810.411	190.97
810.59	143.87
810.769	193.02
810.948	160.25
811.127	76.29
811.306	162.3
811.485	242.17
811.664	207.36
811.843	117.25
812.022	109.05
812.201	102.91
812.38	137.73
812.559	158.21
812.737	88.57
812.916	76.29
813.095	121.34
813.274	160.25
813.453	92.67
813.632	127.49
813.811	154.11
813.989	109.05
814.168	201.21
814.347	133.63
814.526	152.06
814.704	158.21
814.883	162.3
815.062	152.06
815.24	240.12
815.419	133.63
815.598	70.14
815.776	123.39
815.955	272.89
816.133	129.53
816.312	125.44
816.49	152.06
816.669	182.78
816.847	121.34
817.026	174.59
817.204	80.38
817.383	166.4
817.561	150.01
817.74	117.25
817.918	135.68
818.097	125.44
818.275	100.86
818.453	84.48
818.632	215.55
818.81	117.25
818.988	145.92
819.167	102.91
819.345	100.86
819.523	121.34
819.701	199.16
819.879	176.64
820.058	117.25
820.236	119.29
820.414	82.43
820.592	166.4
820.77	96.77
820.948	135.68
821.127	76.29
821.305	86.53
821.483	109.05
821.661	160.25
821.839	121.34
822.017	131.58
822.195	113.15
822.373	193.02
822.551	76.29
822.729	160.25
822.907	102.91
823.085	186.88
823.262	27.14
823.44	70.14
823.618	119.29
823.796	109.05
823.974	23.04
824.152	70.14
824.329	96.77
824.507	80.38
824.685	86.53
824.863	66.05
825.04	27.14
825.218	141.82
825.396	55.81
825.574	96.77
825.751	125.44
825.929	104.96
826.107	76.29
826.284	82.43
826.462	129.53
826.639	158.21
826.817	45.57
826.994	150.01
827.172	111.1
827.349	102.91
827.527	104.96
827.704	109.05
827.882	59.9
828.059	59.9
828.237	98.81
828.414	59.9
828.591	39.42
828.769	84.48
828.946	-3.58
829.124	88.57
829.301	92.67
829.478	51.71
829.655	43.52
829.833	158.21
830.01	61.95
830.187	141.82
830.364	78.33
830.542	96.77
830.719	61.95
830.896	168.45
831.073	59.9
831.25	53.76
831.427	20.99
831.604	53.76
831.782	-11.78
831.959	74.24
832.136	35.33
832.313	119.29
832.49	61.95
832.667	61.95
832.844	94.72
833.021	45.57
833.198	119.29
833.374	150.01
833.551	92.67
833.728	47.62
833.905	31.23
834.082	35.33
834.259	96.77
834.436	92.67
834.612	100.86
834.789	135.68
834.966	47.62
835.143	145.92
835.319	117.25
835.496	123.39
835.673	59.9
835.85	170.49
836.026	29.18
836.203	35.33
836.38	72.19
836.556	111.1
836.733	104.96
836.909	94.72
837.086	29.18
837.262	51.71
837.439	35.33
837.616	61.95
837.792	-62.98
837.968	80.38
838.145	-1.54
838.321	55.81
838.498	45.57
838.674	57.86
838.851	117.25
839.027	43.52
839.203	55.81
839.38	119.29
839.556	23.04
839.732	68.09
839.909	31.23
840.085	111.1
840.261	31.23
840.437	35.33
840.614	88.57
840.79	18.94
840.966	64
841.142	23.04
841.318	27.14
841.494	14.85
841.671	84.48
841.847	10.75
842.023	27.14
842.199	166.4
842.375	84.48
842.551	61.95
842.727	2.56
842.903	182.78
843.079	8.7
843.255	86.53
843.431	51.71
843.607	117.25
843.783	-34.3
843.959	45.57
844.134	33.28
844.31	82.43
844.486	59.9
844.662	86.53
844.838	35.33
845.013	84.48
845.189	117.25
845.365	154.11
845.541	45.57
845.716	53.76
845.892	92.67
846.068	35.33
846.244	27.14
846.419	47.62
846.595	-3.58
846.77	59.9
846.946	37.38
847.122	43.52
847.297	14.85
847.473	84.48
847.648	-11.78
847.824	53.76
847.999	4.61
848.175	68.09
848.35	45.57
848.526	115.2
848.701	-13.82
848.876	51.71
849.052	102.91
849.227	27.14
849.403	20.99
849.578	12.8
849.753	12.8
849.929	117.25
850.104	64
850.279	64
850.454	51.71
850.63	141.82
850.805	121.34
850.98	57.86
851.155	-30.21
851.33	70.14
851.505	-26.11
851.681	102.91
851.856	37.38
852.031	55.81
852.206	61.95
852.381	33.28
852.556	53.76
852.731	76.29
852.906	51.71
853.081	84.48
853.256	61.95
853.431	-11.78
853.606	-32.26
853.781	12.8
853.956	78.33
854.131	20.99
854.305	14.85
854.48	-17.92
854.655	8.7
854.83	-1.54
855.005	45.57
855.18	45.57
855.354	72.19
855.529	53.76
855.704	92.67
855.879	53.76
856.053	35.33
856.228	0.51
856.403	16.9
856.577	94.72
856.752	45.57
856.926	10.75
857.101	-5.63
857.276	92.67
857.45	72.19
857.625	68.09
857.799	51.71
857.974	84.48
858.148	-38.4
858.323	18.94
858.497	6.66
858.672	27.14
858.846	18.94
859.02	59.9
859.195	88.57
859.369	43.52
859.543	2.56
859.718	41.47
859.892	2.56
860.066	12.8
860.241	-11.78
860.415	-22.02
860.589	16.9
860.763	8.7
860.938	-5.63
861.112	84.48
861.286	51.71
861.46	49.66
861.634	-17.92
861.808	10.75
861.982	-5.63
862.157	39.42
862.331	-13.82
862.505	6.66
862.679	20.99
862.853	27.14
863.027	74.24
863.201	76.29
863.375	-30.21
863.549	68.09
863.722	-11.78
863.896	47.62
864.07	-19.97
864.244	45.57
864.418	-3.58
864.592	27.14
864.766	-1.54
864.939	57.86
865.113	55.81
865.287	8.7
865.461	43.52
865.634	66.05
865.808	33.28
865.982	23.04
866.156	-30.21
866.329	45.57
866.503	27.14
866.676	8.7
866.85	39.42
867.024	-71.17
867.197	-5.63
867.371	12.8
867.544	12.8
867.718	-19.97
867.891	92.67
868.065	35.33
868.238	-3.58
868.412	27.14
868.585	-22.02
868.759	10.75
868.932	43.52
869.105	-30.21
869.279	-34.3
869.452	-93.69
869.625	55.81
869.799	59.9
869.972	6.66
870.145	-46.59
870.319	-1.54
870.492	-3.58
870.665	10.75
870.838	100.86
871.011	-103.93
871.185	16.9
871.358	-22.02
871.531	23.04
871.704	-36.35
871.877	23.04
872.05	-9.73
872.223	14.85
872.396	59.9
872.569	66.05
872.742	59.9
872.915	23.04
873.088	-46.59
873.261	-46.59
873.434	64
873.607	2.56
873.78	59.9
873.953	59.9
874.126	14.85
874.299	10.75
874.471	27.14
874.644	45.57
874.817	76.29
874.99	47.62
875.163	51.71
875.335	25.09
875.508	59.9
875.681	18.94
875.853	-30.21
876.026	-5.63
876.199	51.71
876.371	35.33
876.544	-3.58
876.717	43.52
876.889	4.61
877.062	45.57
877.234	-36.35
877.407	10.75
877.579	31.23
877.752	70.14
877.924	-52.74
878.097	53.76
878.269	29.18
878.442	43.52
878.614	12.8
878.786	43.52
878.959	-67.07
879.131	-46.59
879.303	-3.58
879.476	10.75
879.648	27.14
879.82	35.33
879.993	-30.21
880.165	-28.16
880.337	-5.63
880.509	18.94
880.681	-22.02
880.854	-5.63
881.026	76.29
881.198	61.95
881.37	4.61
881.542	-3.58
881.714	-22.02
881.886	-1.54
882.058	-54.78
882.23	16.9
882.402	-48.64
882.574	20.99
882.746	98.81
882.918	35.33
883.09	-30.21
883.262	-5.63
883.434	51.71
883.606	20.99
883.778	-1.54
883.95	53.76
884.122	-3.58
884.293	43.52
884.465	23.04
884.637	2.56
884.809	41.47
884.98	2.56
885.152	61.95
885.324	35.33
885.496	-36.35
885.667	-26.11
885.839	18.94
886.011	35.33
886.182	-7.68
886.354	-1.54
886.525	45.57
886.697	98.81
886.869	6.66
887.04	0.51
887.212	47.62
887.383	80.38
887.555	-24.06
887.726	-50.69
887.897	-19.97
888.069	-30.21
888.24	45.57
888.412	10.75
888.583	18.94
888.754	18.94
888.926	-65.02
889.097	-26.11
889.268	70.14
889.44	-1.54
889.611	-1.54
889.782	90.62
889.953	-38.4
890.125	45.57
890.296	31.23
890.467	-60.93
890.638	2.56
890.809	-52.74
890.98	-44.54
891.151	-17.92
891.323	-32.26
891.494	33.28
891.665	16.9
891.836	-46.59
892.007	-13.82
892.178	27.14
892.349	18.94
892.52	27.14
892.691	10.75
892.862	-34.3
893.032	-42.5
893.203	59.9
893.374	37.38
893.545	109.05
893.716	23.04
893.887	-46.59
894.057	-26.11
894.228	51.71
894.399	35.33
894.57	25.09
894.74	-15.87
894.911	92.67
895.082	45.57
895.253	39.42
895.423	-9.73
895.594	59.9
895.764	-26.11
895.935	55.81
896.106	18.94
896.276	27.14
896.447	49.66
896.617	2.56
896.788	10.75
896.958	14.85
897.129	4.61
897.299	-56.83
897.47	-5.63
897.64	23.04
897.81	2.56
897.981	-13.82
898.151	-83.45
898.322	10.75
898.492	43.52
898.662	-19.97
898.832	-44.54
899.003	-52.74
899.173	37.38
899.343	20.99
899.513	2.56
