Data from USB4F104151__228__14-45-36-865.txt Node

Date: Thu Mar 13 14:45:36 EDT 2025
User: louis
Spectrometer: USB4F10415
Trigger mode: 4
Integration Time (sec): 2.000000E-2
Scans to average: 1
Electric dark correction enabled: true
Nonlinearity correction enabled: false
Boxcar width: 0
XAxis mode: Wavelengths
Number of Pixels in Spectrum: 3648
>>>>>Begin Spectral Data<<<<<
178.204	-109.91
178.424	-109.91
178.644	-109.91
178.864	-85.33
179.084	-144.72
179.304	12.97
179.524	25.26
179.744	2.73
179.964	6.83
180.184	-9.56
180.404	-58.71
180.624	6.83
180.844	-13.65
181.064	29.35
181.283	76.46
181.503	-64.85
181.723	-13.65
181.943	-27.99
182.163	37.55
182.383	78.51
182.602	33.45
182.822	-17.75
183.042	-25.94
183.262	-48.47
183.482	-21.85
183.701	27.31
183.921	-7.51
184.141	-11.61
184.361	43.69
184.58	17.07
184.8	21.16
185.02	17.07
185.239	55.98
185.459	-9.56
185.679	15.02
185.898	-11.61
186.118	39.59
186.338	-11.61
186.557	45.74
186.777	-7.51
186.997	-81.24
187.216	27.31
187.436	86.7
187.655	29.35
187.875	23.21
188.095	-38.23
188.314	45.74
188.534	148.14
188.753	-17.75
188.973	47.79
189.192	37.55
189.412	-79.19
189.631	37.55
189.851	-23.89
190.07	15.02
190.29	-23.89
190.509	-64.85
190.729	45.74
190.948	37.55
191.168	88.75
191.387	25.26
191.607	-3.41
191.826	4.78
192.045	-25.94
192.265	-36.18
192.484	-1.37
192.704	49.83
192.923	-1.37
193.142	86.7
193.362	39.59
193.581	74.41
193.8	58.03
194.02	37.55
194.239	4.78
194.458	12.97
194.678	45.74
194.897	-50.52
195.116	-9.56
195.335	10.92
195.555	12.97
195.774	90.79
195.993	-34.13
196.212	2.73
196.432	-5.46
196.651	4.78
196.87	12.97
197.089	39.59
197.308	53.93
197.528	-1.37
197.747	-1.37
197.966	4.78
198.185	82.6
198.404	-42.32
198.623	96.94
198.842	15.02
199.062	23.21
199.281	41.64
199.5	-32.08
199.719	88.75
199.938	2.73
200.157	76.46
200.376	25.26
200.595	53.93
200.814	37.55
201.033	-34.13
201.252	105.13
201.471	-17.75
201.69	53.93
201.909	0.68
202.128	-11.61
202.347	33.45
202.566	70.31
202.785	8.87
203.004	29.35
203.223	72.36
203.442	55.98
203.661	-21.85
203.879	-1.37
204.098	21.16
204.317	6.83
204.536	21.16
204.755	78.51
204.974	133.8
205.193	23.21
205.411	74.41
205.63	-27.99
205.849	37.55
206.068	80.55
206.287	-15.7
206.505	58.03
206.724	-21.85
206.943	-50.52
207.162	53.93
207.381	47.79
207.599	-25.94
207.818	55.98
208.037	47.79
208.255	-15.7
208.474	-9.56
208.693	29.35
208.911	-32.08
209.13	31.4
209.349	27.31
209.567	29.35
209.786	49.83
210.005	10.92
210.223	29.35
210.442	-9.56
210.661	-21.85
210.879	88.75
211.098	-23.89
211.316	-34.13
211.535	-25.94
211.753	12.97
211.972	53.93
212.191	53.93
212.409	-3.41
212.628	0.68
212.846	-17.75
213.065	-40.28
213.283	-27.99
213.502	-13.65
213.72	8.87
213.938	4.78
214.157	49.83
214.375	29.35
214.594	37.55
214.812	21.16
215.031	-13.65
215.249	21.16
215.467	23.21
215.686	-32.08
215.904	17.07
216.122	-62.8
216.341	86.7
216.559	47.79
216.778	4.78
216.996	125.61
217.214	15.02
217.432	-27.99
217.651	-44.37
217.869	6.83
218.087	39.59
218.306	17.07
218.524	8.87
218.742	21.16
218.96	41.64
219.179	-32.08
219.397	66.22
219.615	17.07
219.833	55.98
220.051	62.12
220.27	-9.56
220.488	39.59
220.706	-56.66
220.924	62.12
221.142	-1.37
221.36	80.55
221.578	33.45
221.796	-36.18
222.015	47.79
222.233	21.16
222.451	94.89
222.669	-15.7
222.887	25.26
223.105	60.07
223.323	-7.51
223.541	-11.61
223.759	58.03
223.977	0.68
224.195	64.17
224.413	105.13
224.631	35.5
224.849	29.35
225.067	70.31
225.285	-11.61
225.503	-105.81
225.721	-17.75
225.939	-11.61
226.157	15.02
226.375	15.02
226.592	-17.75
226.81	162.47
227.028	41.64
227.246	103.08
227.464	31.4
227.682	58.03
227.9	60.07
228.117	45.74
228.335	-32.08
228.553	43.69
228.771	78.51
228.989	41.64
229.206	4.78
229.424	0.68
229.642	51.88
229.86	-52.56
230.077	70.31
230.295	-34.13
230.513	53.93
230.731	82.6
230.948	103.08
231.166	17.07
231.384	37.55
231.601	41.64
231.819	78.51
232.037	80.55
232.254	-11.61
232.472	-48.47
232.689	21.16
232.907	66.22
233.125	4.78
233.342	-1.37
233.56	15.02
233.777	-52.56
233.995	6.83
234.213	37.55
234.43	70.31
234.648	17.07
234.865	17.07
235.083	-3.41
235.3	47.79
235.518	84.65
235.735	-40.28
235.953	86.7
236.17	45.74
236.388	-25.94
236.605	-23.89
236.822	33.45
237.04	41.64
237.257	62.12
237.475	-9.56
237.692	12.97
237.909	62.12
238.127	-7.51
238.344	29.35
238.562	25.26
238.779	15.02
238.996	-44.37
239.214	78.51
239.431	139.94
239.648	41.64
239.865	-19.8
240.083	-17.75
240.3	-9.56
240.517	-36.18
240.735	47.79
240.952	66.22
241.169	82.6
241.386	29.35
241.603	-23.89
241.821	-50.52
242.038	94.89
242.255	12.97
242.472	-36.18
242.689	62.12
242.907	-19.8
243.124	21.16
243.341	-60.76
243.558	-38.23
243.775	-15.7
243.992	-17.75
244.209	45.74
244.426	53.93
244.643	23.21
244.86	12.97
245.078	-19.8
245.295	41.64
245.512	39.59
245.729	4.78
245.946	70.31
246.163	-44.37
246.38	-19.8
246.597	-17.75
246.814	41.64
247.031	-34.13
247.248	-23.89
247.464	60.07
247.681	17.07
247.898	-9.56
248.115	37.55
248.332	-11.61
248.549	45.74
248.766	10.92
248.983	78.51
249.2	37.55
249.417	78.51
249.633	-13.65
249.85	58.03
250.067	-19.8
250.284	45.74
250.501	51.88
250.717	51.88
250.934	25.26
251.151	74.41
251.368	33.45
251.585	39.59
251.801	17.07
252.018	29.35
252.235	15.02
252.451	6.83
252.668	39.59
252.885	88.75
253.102	8.87
253.318	-7.51
253.535	-38.23
253.752	-11.61
253.968	43.69
254.185	17.07
254.401	33.45
254.618	137.9
254.835	-3.41
255.051	70.31
255.268	94.89
255.484	12.97
255.701	21.16
255.917	76.46
256.134	-7.51
256.351	33.45
256.567	33.45
256.784	82.6
257	-91.48
257.217	8.87
257.433	-7.51
257.65	23.21
257.866	98.99
258.082	37.55
258.299	15.02
258.515	88.75
258.732	-9.56
258.948	-19.8
259.165	74.41
259.381	37.55
259.597	29.35
259.814	37.55
260.03	-25.94
260.246	-7.51
260.463	15.02
260.679	45.74
260.895	94.89
261.112	-11.61
261.328	70.31
261.544	-52.56
261.761	27.31
261.977	23.21
262.193	15.02
262.409	96.94
262.626	-17.75
262.842	-27.99
263.058	-25.94
263.274	21.16
263.49	68.27
263.707	37.55
263.923	158.38
264.139	49.83
264.355	10.92
264.571	70.31
264.787	60.07
265.004	86.7
265.22	-9.56
265.436	49.83
265.652	-40.28
265.868	96.94
266.084	12.97
266.3	51.88
266.516	-75.09
266.732	-7.51
266.948	23.21
267.164	33.45
267.38	27.31
267.596	-25.94
267.812	66.22
268.028	-19.8
268.244	72.36
268.46	-52.56
268.676	23.21
268.892	-11.61
269.108	45.74
269.324	-32.08
269.54	-9.56
269.756	84.65
269.972	43.69
270.188	-3.41
270.403	-11.61
270.619	-15.7
270.835	29.35
271.051	12.97
271.267	23.21
271.483	10.92
271.698	15.02
271.914	-1.37
272.13	64.17
272.346	-11.61
272.562	0.68
272.777	62.12
272.993	29.35
273.209	17.07
273.425	-11.61
273.64	35.5
273.856	60.07
274.072	-3.41
274.287	-5.46
274.503	12.97
274.719	37.55
274.934	17.07
275.15	-3.41
275.366	78.51
275.581	-13.65
275.797	37.55
276.012	29.35
276.228	45.74
276.444	72.36
276.659	66.22
276.875	12.97
277.09	6.83
277.306	41.64
277.521	82.6
277.737	-68.95
277.952	4.78
278.168	-116.05
278.383	74.41
278.599	39.59
278.814	49.83
279.03	31.4
279.245	62.12
279.461	49.83
279.676	37.55
279.892	-19.8
280.107	-32.08
280.322	21.16
280.538	55.98
280.753	-7.51
280.969	19.11
281.184	31.4
281.399	45.74
281.615	37.55
281.83	8.87
282.045	-9.56
282.26	-17.75
282.476	70.31
282.691	-1.37
282.906	-50.52
283.122	37.55
283.337	23.21
283.552	-19.8
283.767	-9.56
283.983	25.26
284.198	23.21
284.413	17.07
284.628	-56.66
284.843	8.87
285.058	10.92
285.274	-54.61
285.489	-36.18
285.704	121.51
285.919	-60.76
286.134	21.16
286.349	17.07
286.564	-19.8
286.779	64.17
286.995	80.55
287.21	6.83
287.425	37.55
287.64	0.68
287.855	-27.99
288.07	19.11
288.285	70.31
288.5	-23.89
288.715	-1.37
288.93	33.45
289.145	-25.94
289.36	27.31
289.575	39.59
289.79	105.13
290.004	-42.32
290.219	53.93
290.434	-34.13
290.649	47.79
290.864	-11.61
291.079	12.97
291.294	31.4
291.509	39.59
291.724	58.03
291.938	-25.94
292.153	39.59
292.368	-62.8
292.583	70.31
292.798	53.93
293.012	2.73
293.227	12.97
293.442	49.83
293.657	43.69
293.871	47.79
294.086	-15.7
294.301	45.74
294.516	33.45
294.73	23.21
294.945	-68.95
295.16	45.74
295.374	45.74
295.589	55.98
295.804	-7.51
296.018	-48.47
296.233	4.78
296.447	4.78
296.662	-32.08
296.877	74.41
297.091	37.55
297.306	-25.94
297.52	68.27
297.735	51.88
297.949	-19.8
298.164	19.11
298.378	2.73
298.593	23.21
298.807	45.74
299.022	53.93
299.236	31.4
299.451	-3.41
299.665	-5.46
299.88	37.55
300.094	72.36
300.309	-13.65
300.523	37.55
300.737	-11.61
300.952	21.16
301.166	4.78
301.381	45.74
301.595	-27.99
301.809	6.83
302.024	66.22
302.238	-27.99
302.452	55.98
302.667	31.4
302.881	45.74
303.095	-73.04
303.309	39.59
303.524	-32.08
303.738	-3.41
303.952	-7.51
304.166	49.83
304.381	-132.44
304.595	23.21
304.809	72.36
305.023	39.59
305.237	25.26
305.452	15.02
305.666	45.74
305.88	66.22
306.094	-60.76
306.308	103.08
306.522	27.31
306.736	-32.08
306.95	19.11
307.164	-25.94
307.379	47.79
307.593	31.4
307.807	45.74
308.021	6.83
308.235	58.03
308.449	29.35
308.663	29.35
308.877	23.21
309.091	-7.51
309.305	37.55
309.519	-11.61
309.733	21.16
309.947	-7.51
310.161	27.31
310.374	17.07
310.588	41.64
310.802	8.87
311.016	12.97
311.23	37.55
311.444	-19.8
311.658	-1.37
311.872	12.97
312.085	-13.65
312.299	49.83
312.513	21.16
312.727	-7.51
312.941	41.64
313.154	62.12
313.368	12.97
313.582	0.68
313.796	23.21
314.009	37.55
314.223	17.07
314.437	37.55
314.651	-7.51
314.864	58.03
315.078	55.98
315.292	-11.61
315.505	117.42
315.719	-19.8
315.933	-11.61
316.146	17.07
316.36	-17.75
316.573	62.12
316.787	84.65
317.001	39.59
317.214	-15.7
317.428	2.73
317.641	-52.56
317.855	-32.08
318.068	27.31
318.282	29.35
318.495	41.64
318.709	8.87
318.922	37.55
319.136	129.7
319.349	33.45
319.563	29.35
319.776	31.4
319.99	-36.18
320.203	45.74
320.417	86.7
320.63	45.74
320.843	-3.41
321.057	113.32
321.27	-17.75
321.483	35.5
321.697	66.22
321.91	-27.99
322.124	53.93
322.337	-19.8
322.55	-36.18
322.763	47.79
322.977	31.4
323.19	49.83
323.403	8.87
323.617	-17.75
323.83	2.73
324.043	-11.61
324.256	4.78
324.469	12.97
324.683	53.93
324.896	4.78
325.109	33.45
325.322	68.27
325.535	37.55
325.748	62.12
325.962	-3.41
326.175	17.07
326.388	37.55
326.601	12.97
326.814	82.6
327.027	12.97
327.24	121.51
327.453	33.45
327.666	-81.24
327.879	25.26
328.092	12.97
328.305	4.78
328.518	37.55
328.731	12.97
328.944	21.16
329.157	23.21
329.37	49.83
329.583	62.12
329.796	109.22
330.009	2.73
330.222	47.79
330.435	27.31
330.648	39.59
330.861	94.89
331.073	29.35
331.286	17.07
331.499	45.74
331.712	8.87
331.925	78.51
332.138	51.88
332.35	17.07
332.563	-11.61
332.776	31.4
332.989	-30.04
333.202	-15.7
333.414	-27.99
333.627	62.12
333.84	0.68
334.053	6.83
334.265	78.51
334.478	21.16
334.691	0.68
334.903	47.79
335.116	-36.18
335.329	19.11
335.541	47.79
335.754	80.55
335.966	-30.04
336.179	37.55
336.392	12.97
336.604	-19.8
336.817	21.16
337.029	53.93
337.242	33.45
337.454	107.18
337.667	37.55
337.88	29.35
338.092	-66.9
338.305	6.83
338.517	62.12
338.729	33.45
338.942	62.12
339.154	-27.99
339.367	4.78
339.579	47.79
339.792	-7.51
340.004	-1.37
340.217	-23.89
340.429	41.64
340.641	-23.89
340.854	37.55
341.066	-19.8
341.278	37.55
341.491	150.18
341.703	-1.37
341.915	-23.89
342.128	53.93
342.34	4.78
342.552	8.87
342.764	21.16
342.977	23.21
343.189	37.55
343.401	127.66
343.613	-75.09
343.826	23.21
344.038	-19.8
344.25	-3.41
344.462	-5.46
344.674	68.27
344.886	-7.51
345.099	12.97
345.311	8.87
345.523	0.68
345.735	-11.61
345.947	4.78
346.159	-11.61
346.371	-30.04
346.583	6.83
346.795	33.45
347.007	-44.37
347.219	21.16
347.431	-11.61
347.643	8.87
347.855	51.88
348.067	86.7
348.279	2.73
348.491	51.88
348.703	58.03
348.915	62.12
349.127	37.55
349.339	-48.47
349.551	53.93
349.763	88.75
349.975	47.79
350.187	47.79
350.399	76.46
350.61	27.31
350.822	27.31
351.034	-19.8
351.246	47.79
351.458	70.31
351.669	96.94
351.881	33.45
352.093	-11.61
352.305	47.79
352.517	25.26
352.728	31.4
352.94	-58.71
353.152	21.16
353.363	-25.94
353.575	29.35
353.787	111.27
353.999	78.51
354.21	2.73
354.422	-5.46
354.633	-15.7
354.845	15.02
355.057	55.98
355.268	25.26
355.48	37.55
355.692	21.16
355.903	98.99
356.115	-17.75
356.326	-27.99
356.538	94.89
356.749	41.64
356.961	70.31
357.172	23.21
357.384	-46.42
357.595	49.83
357.807	31.4
358.018	-27.99
358.23	12.97
358.441	82.6
358.653	45.74
358.864	49.83
359.075	21.16
359.287	103.08
359.498	17.07
359.709	6.83
359.921	15.02
360.132	17.07
360.344	25.26
360.555	-11.61
360.766	25.26
360.977	-34.13
361.189	78.51
361.4	-52.56
361.611	4.78
361.823	62.12
362.034	39.59
362.245	58.03
362.456	53.93
362.667	70.31
362.879	15.02
363.09	78.51
363.301	53.93
363.512	-3.41
363.723	25.26
363.935	-11.61
364.146	-44.37
364.357	-30.04
364.568	12.97
364.779	-21.85
364.99	23.21
365.201	-27.99
365.412	70.31
365.623	-32.08
365.834	0.68
366.045	4.78
366.256	62.12
366.467	45.74
366.678	53.93
366.889	27.31
367.1	33.45
367.311	29.35
367.522	4.78
367.733	43.69
367.944	39.59
368.155	-27.99
368.366	37.55
368.577	123.56
368.788	117.42
368.999	6.83
369.209	58.03
369.42	29.35
369.631	45.74
369.842	12.97
370.053	-5.46
370.264	19.11
370.474	-46.42
370.685	29.35
370.896	-25.94
371.107	78.51
371.317	45.74
371.528	-15.7
371.739	74.41
371.95	31.4
372.16	-1.37
372.371	51.88
372.582	12.97
372.792	41.64
373.003	-66.9
373.214	41.64
373.424	37.55
373.635	15.02
373.846	33.45
374.056	62.12
374.267	58.03
374.477	15.02
374.688	4.78
374.898	17.07
375.109	12.97
375.319	96.94
375.53	64.17
375.74	115.37
375.951	-9.56
376.161	-81.24
376.372	29.35
376.582	62.12
376.793	15.02
377.003	-34.13
377.214	-27.99
377.424	29.35
377.635	-27.99
377.845	-7.51
378.055	86.7
378.266	19.11
378.476	43.69
378.686	0.68
378.897	-11.61
379.107	109.22
379.317	107.18
379.528	-1.37
379.738	43.69
379.948	33.45
380.158	15.02
380.369	-34.13
380.579	68.27
380.789	12.97
380.999	23.21
381.21	62.12
381.42	103.08
381.63	17.07
381.84	45.74
382.05	-23.89
382.261	6.83
382.471	66.22
382.681	-40.28
382.891	70.31
383.101	88.75
383.311	-42.32
383.521	21.16
383.731	129.7
383.941	115.37
384.151	62.12
384.361	62.12
384.571	53.93
384.781	12.97
384.991	12.97
385.201	80.55
385.411	47.79
385.621	94.89
385.831	-7.51
386.041	-11.61
386.251	49.83
386.461	78.51
386.671	58.03
386.881	64.17
387.091	-11.61
387.301	35.5
387.511	88.75
387.72	25.26
387.93	70.31
388.14	31.4
388.35	17.07
388.56	58.03
388.769	80.55
388.979	31.4
389.189	-3.41
389.399	51.88
389.609	-25.94
389.818	23.21
390.028	-11.61
390.238	70.31
390.447	-11.61
390.657	111.27
390.867	-3.41
391.076	53.93
391.286	25.26
391.496	47.79
391.705	-38.23
391.915	39.59
392.125	41.64
392.334	119.46
392.544	58.03
392.753	4.78
392.963	55.98
393.172	-21.85
393.382	-19.8
393.591	41.64
393.801	29.35
394.01	90.79
394.22	160.42
394.429	0.68
394.639	78.51
394.848	86.7
395.058	60.07
395.267	12.97
395.477	148.14
395.686	70.31
395.895	115.37
396.105	113.32
396.314	55.98
396.524	53.93
396.733	62.12
396.942	123.56
397.152	62.12
397.361	45.74
397.57	-38.23
397.78	80.55
397.989	90.79
398.198	137.9
398.407	70.31
398.617	70.31
398.826	47.79
399.035	27.31
399.244	21.16
399.453	86.7
399.663	70.31
399.872	78.51
400.081	-7.51
400.29	103.08
400.499	103.08
400.708	72.36
400.917	58.03
401.127	55.98
401.336	45.74
401.545	64.17
401.754	70.31
401.963	70.31
402.172	80.55
402.381	82.6
402.59	70.31
402.799	82.6
403.008	12.97
403.217	74.41
403.426	45.74
403.635	15.02
403.844	37.55
404.053	144.04
404.262	80.55
404.471	146.09
404.68	37.55
404.888	105.13
405.097	51.88
405.306	148.14
405.515	139.94
405.724	111.27
405.933	148.14
406.142	172.71
406.35	96.94
406.559	76.46
406.768	111.27
406.977	170.66
407.185	178.86
407.394	146.09
407.603	0.68
407.812	160.42
408.02	109.22
408.229	117.42
408.438	88.75
408.646	219.82
408.855	162.47
409.064	189.1
409.272	76.46
409.481	131.75
409.69	135.85
409.898	86.7
410.107	185
410.315	205.48
410.524	191.14
410.733	238.25
410.941	146.09
411.15	260.77
411.358	215.72
411.567	223.91
411.775	271.01
411.984	348.84
412.192	303.78
412.401	277.16
412.609	252.58
412.818	299.69
413.026	342.69
413.234	299.69
413.443	367.27
413.651	326.31
413.86	348.84
414.068	414.37
414.276	447.14
414.485	400.04
414.693	428.71
414.901	467.62
415.11	447.14
415.318	397.99
415.526	467.62
415.734	469.67
415.943	559.78
416.151	539.3
416.359	475.81
416.567	545.44
416.776	561.83
416.984	696.99
417.192	623.27
417.4	643.74
417.608	606.88
417.817	602.79
418.025	684.7
418.233	848.54
418.441	660.13
418.649	821.92
418.857	774.81
419.065	930.46
419.273	813.73
419.481	862.88
419.689	918.17
419.897	926.36
420.105	928.41
420.313	963.23
420.521	1069.72
420.729	1088.15
420.937	1174.17
421.145	1127.07
421.353	1147.55
421.561	1202.84
421.769	1196.7
421.977	1184.41
422.185	1311.38
422.393	1381.01
422.601	1405.59
422.809	1399.45
423.017	1475.22
423.224	1532.56
423.432	1567.38
423.64	1512.08
423.848	1731.22
424.056	1634.96
424.263	1817.23
424.471	1667.73
424.679	1870.48
424.887	1841.81
425.094	1925.77
425.302	2003.6
425.51	2132.62
425.718	2081.42
425.925	2235.02
426.133	2153.1
426.341	2392.71
426.548	2462.34
426.756	2437.77
426.964	2505.35
427.171	2601.6
427.379	2585.22
427.586	2704
427.794	2734.72
428.001	2978.43
428.209	3027.58
428.417	2896.51
428.624	3308.15
428.832	3213.95
429.039	3183.23
429.247	3256.95
429.454	3453.56
429.662	3650.16
429.869	3527.28
430.076	3721.84
430.284	3596.92
430.491	3805.81
430.699	3895.92
430.906	3998.32
431.114	3947.12
431.321	4256.36
431.528	4428.39
431.736	4631.14
431.943	4682.34
432.15	4510.31
432.358	4608.61
432.565	4956.77
432.772	4788.83
432.979	5057.12
433.187	5263.96
433.394	5276.25
433.601	5456.47
433.808	5730.9
434.016	5571.16
434.223	5829.2
434.43	6195.79
434.637	6009.42
434.844	6447.69
435.052	6488.65
435.259	6527.56
435.466	6533.7
435.673	6435.4
435.88	6953.54
436.087	7336.51
436.294	7172.67
436.501	7139.9
436.708	7172.67
436.915	7443
437.122	7967.28
437.329	7742
437.537	8127.02
437.743	8153.65
437.95	8360.49
438.157	8542.76
438.364	8712.74
438.571	8854.05
438.778	8835.62
438.985	9744.92
439.192	9310.75
439.399	9681.43
439.606	9318.94
439.813	9835.03
440.02	10754.57
440.227	10426.89
440.433	10261.01
440.64	10508.81
440.847	10773
441.054	10865.16
441.261	11583.99
441.467	11268.61
441.674	11520.51
441.881	12098.03
442.088	11876.85
442.294	11721.21
442.501	12169.71
442.708	12268.02
442.914	12702.18
443.121	13398.49
443.328	13056.48
443.534	14004.69
443.741	13455.84
443.948	13165.03
444.154	14272.98
444.361	14293.46
444.568	14256.59
444.774	14471.63
444.981	14485.97
445.187	14674.38
445.394	15401.41
445.6	15364.54
445.807	16585.13
446.013	16236.98
446.22	16495.02
446.426	16972.2
446.633	17408.42
446.839	17844.63
447.046	16918.95
447.252	18082.2
447.459	17893.79
447.665	17865.11
447.871	18612.62
448.078	19241.35
448.284	18510.22
448.491	19042.7
448.697	19628.42
448.903	20328.82
449.11	20267.38
449.316	19739.01
449.522	20134.26
449.728	20924.78
449.935	21137.77
450.141	20932.97
450.347	21535.07
450.553	20773.23
450.76	21191.02
450.966	21655.9
451.172	21623.14
451.378	22151.51
451.584	21469.54
451.791	22266.2
451.997	22124.89
452.203	22372.69
452.409	22544.72
452.615	22311.25
452.821	21571.94
453.027	21619.04
453.233	22524.24
453.44	21778.78
453.646	21971.29
453.852	22002.01
454.058	22538.58
454.264	21844.32
454.47	22540.63
454.676	21641.57
454.882	22186.33
455.088	20681.07
455.294	20719.98
455.5	21180.78
455.705	21473.63
455.911	20599.15
456.117	20455.79
456.323	19964.28
456.529	18889.1
456.735	19700.09
456.941	19122.57
457.147	18878.86
457.352	18557.33
457.558	18121.11
457.764	18370.96
457.97	18074.01
458.176	17490.34
458.381	17760.67
458.587	16720.3
458.793	16763.31
458.999	15774.14
459.204	17271.2
459.41	16472.5
459.616	15458.75
459.821	15534.53
460.027	15499.71
460.233	15194.56
460.438	14365.14
460.644	14682.57
460.85	13824.47
461.055	13726.17
461.261	13672.92
461.466	12612.07
461.672	12188.14
461.878	13062.63
462.083	12415.47
462.289	12001.78
462.494	11823.61
462.7	11244.03
462.905	11112.96
463.111	11315.71
463.316	11520.51
463.522	11268.61
463.727	11344.38
463.932	11127.3
464.138	11051.52
464.343	11067.91
464.549	10846.73
464.754	11135.49
464.959	11260.41
465.165	10684.94
465.37	10492.43
465.575	10283.53
465.781	10625.54
465.986	10732.04
466.191	10406.41
466.397	10318.35
466.602	9609.75
466.807	10045.97
467.012	10011.15
467.218	9941.52
467.423	9720.34
467.628	9892.37
467.833	10275.34
468.038	9882.13
468.244	9779.73
468.449	10011.15
468.654	9728.53
468.859	9726.49
469.064	9540.12
469.269	9181.73
469.474	9189.92
469.679	9466.39
469.885	9194.01
470.09	9286.17
470.295	9400.86
470.5	8897.06
470.705	9079.33
470.91	8962.59
471.115	8581.67
471.32	8933.92
471.525	8993.31
471.73	8579.62
471.935	8600.1
472.139	8380.97
472.344	8540.71
472.549	8360.49
472.754	8145.45
472.959	8174.13
473.164	7762.48
473.369	7942.71
473.574	8288.81
473.778	8245.8
473.983	7963.19
474.188	8004.14
474.393	7739.96
474.598	7539.26
474.802	7567.93
475.007	7502.39
475.212	7541.3
475.417	7221.82
475.621	7455.29
475.826	7311.93
476.031	7361.08
476.235	6928.96
476.44	7010.88
476.645	6795.84
476.849	7041.6
477.054	6834.75
477.259	6820.42
477.463	6873.67
477.668	6672.96
477.872	6742.6
478.077	6709.83
478.282	6439.5
478.486	6470.22
478.691	6408.78
478.895	6382.15
479.1	6304.33
479.304	6271.56
479.509	6017.61
479.713	6244.94
479.918	6154.83
480.122	6050.38
480.326	6091.34
480.531	6154.83
480.735	6193.74
480.94	5872.21
481.144	5894.74
481.348	5947.98
481.553	5954.13
481.757	5714.52
481.961	5866.07
482.166	6038.09
482.37	5859.92
482.574	5767.76
482.778	5866.07
482.983	5982.8
483.187	5700.18
483.391	5937.74
483.595	5671.51
483.8	5851.73
484.004	5857.87
484.208	5956.18
484.412	5786.19
484.616	5888.59
484.821	5984.85
485.025	5685.84
485.229	5763.67
485.433	5861.97
485.637	5816.91
485.841	5827.15
486.045	5870.16
486.249	5741.14
486.453	5651.03
486.657	5745.23
486.861	5933.65
487.065	5626.45
487.269	5907.02
487.473	5671.51
487.677	5833.3
487.881	5837.39
488.085	5780.05
488.289	5808.72
488.493	5798.48
488.697	5931.6
488.901	5882.45
489.105	5829.2
489.309	5837.39
489.512	5861.97
489.716	5706.32
489.92	5757.52
490.124	5839.44
490.328	6058.57
490.531	6023.76
490.735	5894.74
490.939	6150.73
491.143	5782.1
491.346	5980.75
491.55	6050.38
491.754	5980.75
491.958	6081.1
492.161	6040.14
492.365	6181.45
492.569	6027.85
492.772	6066.77
492.976	6138.44
493.18	6322.76
493.383	6214.22
493.587	6318.67
493.79	6363.72
493.994	6140.49
494.197	6423.11
494.401	6492.74
494.605	6378.06
494.808	6464.07
495.012	6578.76
495.215	6476.36
495.419	6486.6
495.622	6570.57
495.825	6679.11
496.029	6736.45
496.232	6857.28
496.436	6617.67
496.639	7119.42
496.843	6894.15
497.046	7164.48
497.249	7254.59
497.453	7182.91
497.656	7432.76
497.859	7399.99
498.063	7449.14
498.266	7524.92
498.469	7537.21
498.673	7615.03
498.876	7655.99
499.079	7699
499.282	7625.27
499.485	8098.35
499.689	8012.34
499.892	7995.95
500.095	8239.66
500.298	8395.31
500.501	8159.79
500.705	8376.87
500.908	8475.18
501.111	8598.06
501.314	8747.56
501.517	8786.47
501.72	8737.32
501.923	8882.72
502.126	9073.18
502.329	9202.21
502.532	9189.92
502.735	9452.06
502.938	9513.5
503.141	9724.44
503.344	9474.59
503.547	9749.01
503.75	9935.38
503.953	9916.95
504.156	10066.45
504.359	10297.87
504.562	10326.54
504.765	10396.17
504.968	10617.35
505.17	10678.79
505.373	10721.8
505.576	10910.21
505.779	11051.52
505.982	11217.41
506.185	11342.33
506.387	11219.46
506.59	11555.32
506.793	11670.01
506.996	11688.44
507.198	11819.51
507.401	11723.26
507.604	11995.64
507.807	12225.01
508.009	12401.13
508.212	12462.57
508.415	12655.08
508.617	12782.06
508.82	13038.05
509.022	13021.67
509.225	13273.57
509.428	13328.86
509.63	13535.71
509.833	13543.9
510.035	13769.18
510.238	13760.98
510.44	13949.4
510.643	14160.34
510.845	14105.04
511.048	14176.72
511.25	14377.42
511.453	14373.33
511.655	15002.05
511.858	14768.59
512.06	15065.54
512.262	15180.23
512.465	15110.6
512.667	15372.74
512.87	15720.89
513.072	15692.22
513.274	15993.27
513.477	16040.37
513.679	16171.44
513.881	16583.09
514.084	16402.86
514.286	16599.47
514.488	16699.82
514.69	17234.34
514.893	17150.37
515.095	17299.87
515.297	17467.81
515.499	17510.82
515.701	17920.41
515.904	17961.37
516.106	18352.53
516.308	18516.37
516.51	18616.72
516.712	18520.46
516.914	18678.16
517.116	19044.74
517.318	18921.87
517.52	19263.88
517.722	19200.39
517.925	19425.67
518.127	19708.29
518.329	19798.4
518.531	20095.35
518.733	20304.24
518.935	20418.93
519.136	20621.68
519.338	20738.41
519.54	20695.41
519.742	20877.68
519.944	21066.09
520.146	21569.89
520.348	21758.3
520.55	21522.79
520.752	21625.18
520.954	22155.61
521.155	22018.39
521.357	22606.16
521.559	22749.52
521.761	23187.78
521.963	22763.86
522.164	22907.21
522.366	23302.47
522.568	23589.19
522.77	23732.54
522.971	23798.08
523.173	23767.36
523.375	24156.47
523.576	24088.89
523.778	24217.91
523.98	24246.58
524.181	24574.26
524.383	24846.64
524.584	24903.98
524.786	24887.6
524.988	24561.97
525.189	25362.73
525.391	25184.55
525.592	25329.96
525.794	25725.22
525.995	25762.08
526.197	25606.44
526.398	25602.34
526.6	25960.73
526.801	26237.21
527.003	25739.55
527.204	26048.8
527.406	26253.59
527.607	26290.46
527.808	26927.38
528.01	26286.36
528.211	26218.78
528.412	26964.24
528.614	26865.94
528.815	26933.52
529.016	27230.48
529.218	27240.71
529.419	26966.29
529.62	27246.86
529.822	27031.82
530.023	27222.28
530.224	27259.15
530.425	27455.75
530.626	27361.55
530.828	27128.08
531.029	27521.29
531.23	27568.39
531.431	27431.18
531.632	27504.9
531.833	27853.06
532.035	27691.27
532.236	27863.3
532.437	27762.95
532.638	27777.28
532.839	27820.29
533.04	28090.62
533.241	27513.09
533.442	28459.26
533.643	28037.37
533.844	27887.87
534.045	28039.42
534.246	27916.54
534.447	27838.72
534.648	28291.32
534.849	28283.13
535.05	27857.15
535.251	28133.63
535.451	27945.22
535.652	28098.81
535.853	28072.19
536.054	28313.85
536.255	28258.56
536.456	27937.02
536.657	28225.79
536.857	27795.71
537.058	28061.95
537.259	28193.02
537.46	28252.41
537.66	27889.92
537.861	28332.28
538.062	28061.95
538.263	28293.37
538.463	28246.27
538.664	28031.23
538.865	28145.92
539.065	28293.37
539.266	28250.36
539.466	28287.23
539.667	27992.32
539.868	28485.88
540.068	28301.56
540.269	27826.43
540.469	28338.43
540.67	28074.24
540.87	27965.7
541.071	27910.4
541.271	27869.44
541.472	28127.49
541.672	28053.76
541.873	27932.93
542.073	27775.23
542.274	28473.59
542.474	27908.35
542.675	27613.45
542.875	28109.05
543.075	27922.69
543.276	27611.4
543.476	28025.09
543.676	27908.35
543.877	28000.51
544.077	28143.87
544.277	27998.46
544.478	27617.54
544.678	28064
544.878	27836.67
545.078	27951.36
545.279	27797.76
545.479	27975.94
545.679	27769.09
545.879	27894.02
546.079	27881.73
546.28	27707.65
546.48	27330.83
546.68	27685.12
546.88	28018.94
547.08	27889.92
547.28	27941.12
547.48	27418.89
547.68	27805.95
547.88	27822.34
548.081	27787.52
548.281	27853.06
548.481	27666.69
548.681	28111.1
548.881	27885.83
549.081	27773.19
549.28	27832.58
549.48	27748.61
549.68	27824.39
549.88	28023.04
550.08	27486.47
550.28	27726.08
550.48	27478.28
550.68	27496.71
550.88	27638.02
551.08	27400.46
551.279	27629.83
551.479	27556.1
551.679	27408.65
551.879	27863.3
552.079	27709.7
552.278	27719.94
552.478	27386.12
552.678	27586.82
552.878	27519.24
553.077	27629.83
553.277	27072.78
553.477	27701.51
553.676	27361.55
553.876	27629.83
554.076	27642.12
554.275	27236.62
554.475	27142.41
554.674	27386.12
554.874	27324.68
555.074	27050.25
555.273	27097.36
555.473	27353.35
555.672	27031.82
555.872	27007.25
556.071	27037.97
556.271	27076.88
556.47	27095.31
556.67	26741.01
556.869	26806.55
557.068	27017.49
557.268	26853.65
557.467	26935.57
557.667	26781.97
557.866	26925.33
558.065	26775.83
558.265	26671.38
558.464	26859.79
558.663	27089.17
558.863	26446.1
559.062	27066.64
559.261	26560.79
559.461	26937.62
559.66	26491.16
559.859	26448.15
560.058	26323.22
560.258	26394.9
560.457	26200.35
560.656	26757.39
560.855	26368.28
561.054	26411.29
561.253	25856.29
561.453	26100
561.652	26399
561.851	26214.68
562.05	25809.18
562.249	25956.64
562.448	26298.65
562.647	26159.39
562.846	25821.47
563.045	25913.63
563.244	25755.94
563.443	26007.84
563.642	25590.05
563.841	25741.6
564.04	25749.79
564.239	25958.69
564.438	25354.54
564.637	25721.12
564.836	25545
565.035	25233.71
565.234	25565.48
565.432	25047.34
565.631	25219.37
565.83	25289
566.029	25358.63
566.228	25002.29
566.427	25049.39
566.625	25014.57
566.824	24731.95
567.023	25061.68
567.222	24674.61
567.42	25033
567.619	24717.62
567.818	24602.93
568.016	24547.64
568.215	24963.37
568.414	24389.94
568.612	24611.12
568.811	24113.47
569.01	24598.84
569.208	23941.44
569.407	24060.22
569.605	24299.83
569.804	24135.99
570.002	23890.24
570.201	23914.81
570.4	24017.21
570.598	23740.74
570.797	23351.62
570.995	23689.54
571.193	23396.68
571.392	23812.42
571.59	23320.9
571.789	23642.43
571.987	23224.65
572.186	23497.03
572.384	23368.01
572.582	23388.49
572.781	23236.94
572.979	22686.03
573.177	22874.45
573.376	23368.01
573.574	22804.81
573.772	23015.76
573.971	22831.44
574.169	22471
574.367	22722.9
574.565	22655.31
574.763	22493.52
574.962	22509.91
575.16	22298.97
575.358	22581.59
575.556	22215
575.754	22468.95
575.952	21997.91
576.151	22573.39
576.349	21827.93
576.547	21881.18
576.745	22081.88
576.943	21817.69
577.141	21942.62
577.339	21913.95
577.537	21674.34
577.735	21692.77
577.933	21567.84
578.131	21772.64
578.329	21440.87
578.527	21301.61
578.725	21313.89
578.923	21639.52
579.121	21361
579.319	21121.38
579.516	21508.45
579.714	21213.54
579.912	21035.37
580.11	20701.55
580.308	21113.19
580.506	20971.88
580.704	20781.42
580.901	20971.88
581.099	20984.17
581.297	20564.34
581.495	20480.37
581.692	20722.03
581.89	20613.49
582.088	20494.71
582.285	20267.38
582.483	20703.6
582.681	20304.24
582.878	20330.87
583.076	20201.85
583.274	20488.56
583.471	20011.39
583.669	20156.79
583.866	19990.91
584.064	20068.73
584.262	19822.97
584.459	20062.58
584.657	19829.12
584.854	19927.42
585.052	19544.45
585.249	19704.19
585.447	19626.37
585.644	19351.94
585.841	19450.24
586.039	19460.48
586.236	19057.03
586.434	19478.91
586.631	18971.02
586.828	19046.79
587.026	19169.67
587.223	19028.36
587.42	18934.15
587.618	18813.32
587.815	18946.44
588.012	18979.21
588.21	18991.5
588.407	18985.35
588.604	18717.07
588.801	18448.79
588.999	18837.9
589.196	18606.48
589.393	18614.67
589.59	18428.31
589.787	18397.59
589.984	18274.71
590.182	17996.18
590.379	18428.31
590.576	17848.73
590.773	18055.58
590.97	17727.9
591.167	17637.79
591.364	17938.84
591.561	18080.15
591.758	17813.91
591.955	17758.62
592.152	18031
592.349	17383.84
592.546	17621.41
592.743	17709.47
592.94	17480.1
593.137	17580.45
593.334	17514.91
593.531	17199.52
593.727	17389.99
593.924	17572.25
594.121	17142.18
594.318	17088.93
594.515	17060.26
594.712	17103.27
594.908	17097.13
595.105	16886.18
595.302	16765.35
595.499	16925.1
595.696	16722.35
595.892	16599.47
596.089	16890.28
596.286	16800.17
596.482	16429.49
596.679	16597.42
596.876	16710.06
597.072	16437.68
597.269	16423.34
597.466	16409.01
597.662	16038.33
597.859	16179.64
598.055	16351.67
598.252	16011.7
598.448	16261.55
598.645	15980.98
598.841	16032.18
599.038	16157.11
599.234	16007.61
599.431	16011.7
599.627	15690.17
599.824	15649.21
600.02	15804.86
600.217	15684.03
600.413	15618.49
600.609	15528.38
600.806	15387.07
601.002	15387.07
601.198	15397.31
601.395	15419.84
601.591	15376.83
601.787	15169.99
601.984	15108.55
602.18	15380.93
602.376	15110.6
602.572	15290.82
602.769	15356.35
602.965	14670.28
603.161	14932.42
603.357	15102.4
603.553	15090.12
603.75	14858.7
603.946	14692.81
604.142	14905.8
604.338	14635.47
604.534	14870.98
604.73	14746.06
604.926	14303.7
605.122	14447.05
605.318	14477.77
605.514	14440.91
605.71	14514.64
605.906	14279.12
606.102	14385.62
606.298	14348.75
606.494	14072.28
606.69	14021.08
606.886	14100.95
607.082	13976.02
607.278	14240.21
607.474	13930.97
607.67	14107.09
607.866	13908.44
608.062	14172.63
608.257	13818.33
608.453	13949.4
608.649	13758.94
608.845	13791.7
609.041	13758.94
609.236	13816.28
609.432	13662.68
609.628	13709.79
609.824	13625.82
610.019	13627.87
610.215	13576.67
610.411	13570.52
610.606	13595.1
610.802	13480.41
610.998	13693.4
611.193	13337.06
611.389	13337.06
611.584	13263.33
611.78	13195.75
611.976	13248.99
612.171	13212.13
612.367	13224.42
612.562	12917.22
612.758	12947.94
612.953	12921.32
613.149	13038.05
613.344	12892.65
613.539	13292
613.735	13068.77
613.93	13060.58
614.126	12866.02
614.321	13109.73
614.517	12931.56
614.712	12902.89
614.907	12866.02
615.103	12780.01
615.298	12868.07
615.493	13038.05
615.688	12632.55
615.884	12927.46
616.079	12843.49
616.274	12661.23
616.47	12847.59
616.665	12775.91
616.86	12589.55
617.055	12450.28
617.25	12464.62
617.445	12687.85
617.641	12358.13
617.836	12405.23
618.031	12190.19
618.226	12638.7
618.421	12325.36
618.616	12341.74
618.811	12100.08
619.006	12333.55
619.201	12024.31
619.396	12087.79
619.591	11803.13
619.786	12034.55
619.981	11756.02
620.176	12087.79
620.371	11784.69
620.566	11823.61
620.761	11606.52
620.956	11770.36
621.151	11518.46
621.346	11604.47
621.541	11330.05
621.735	11534.84
621.93	11194.88
622.125	11678.2
622.32	11065.86
622.515	11291.13
622.709	11035.14
622.904	11211.26
623.099	11037.19
623.294	11090.43
623.488	11039.23
623.683	10715.66
623.878	10670.6
624.072	10859.01
624.267	10869.25
624.462	10633.74
624.656	10514.95
624.851	10678.79
625.046	10768.9
625.24	10453.52
625.435	10387.98
625.629	10273.29
625.824	10408.46
626.018	10324.49
626.213	10244.62
626.407	10111.5
626.602	10127.89
626.796	9931.28
626.991	9841.17
627.185	9742.87
627.38	9892.37
627.574	9828.88
627.768	9851.41
627.963	9681.43
628.157	9744.92
628.352	9554.46
628.546	9382.43
628.74	9615.9
628.935	9409.05
629.129	9540.12
629.323	9351.71
629.517	9407
629.712	9108
629.906	9048.61
630.1	9097.76
630.294	9087.52
630.489	9077.28
630.683	9128.48
630.877	8901.15
631.071	8751.65
631.265	8946.21
631.459	8765.99
631.653	8788.52
631.848	8712.74
632.042	8847.91
632.236	8581.67
632.43	8751.65
632.624	8368.68
632.818	8493.61
633.012	8471.08
633.206	8618.54
633.4	8268.33
633.594	8237.61
633.788	8129.07
633.982	8528.42
634.176	8163.89
634.369	8096.3
634.563	8065.58
634.757	8081.97
634.951	8098.35
635.145	7928.37
635.339	8065.58
635.533	7954.99
635.726	7950.9
635.92	7576.12
636.114	7742
636.308	7746.1
636.501	7637.56
636.695	7848.5
636.889	7584.31
637.083	7420.47
637.276	7623.22
637.47	7459.38
637.664	7539.26
637.857	7404.09
638.051	7246.4
638.244	7311.93
638.438	7213.63
638.632	7230.01
638.825	7187.01
639.019	7205.44
639.212	7074.37
639.406	7199.29
639.599	6879.81
639.793	6953.54
639.986	6931.01
640.18	6943.3
640.373	6941.25
640.567	6963.78
640.76	6871.62
640.954	6877.76
641.147	6720.07
641.34	6771.27
641.534	6623.81
641.727	6462.02
641.92	6625.86
642.114	6568.52
642.307	6453.83
642.5	6511.18
642.694	6533.7
642.887	6328.91
643.08	6396.49
643.273	6459.98
643.467	6371.91
643.66	6449.74
643.853	6216.27
644.046	6189.64
644.239	6199.88
644.432	6003.28
644.626	6132.3
644.819	6224.46
645.012	6048.33
645.205	6203.98
645.398	6099.53
645.591	5960.27
645.784	5956.18
645.977	5853.78
646.17	5878.35
646.363	5773.91
646.556	5947.98
646.749	5714.52
646.942	5849.68
647.135	5816.91
647.328	5599.83
647.521	5732.95
647.714	5413.46
647.907	5642.84
648.099	5589.59
648.292	5530.2
648.485	5446.23
648.678	5438.04
648.871	5470.81
649.064	5321.31
649.256	5526.1
649.449	5284.44
649.642	5227.1
649.835	5202.52
650.027	5259.87
650.22	5210.72
650.413	5151.32
650.605	5182.04
650.798	5147.23
650.991	5038.69
651.183	5132.89
651.376	5053.02
651.568	4989.53
651.761	5010.01
651.954	5065.31
652.146	4948.58
652.339	4883.04
652.531	4952.67
652.724	4844.13
652.916	4819.55
653.109	4780.64
653.301	4813.41
653.494	4811.36
653.686	4741.73
653.879	4708.96
654.071	4678.24
654.263	4512.36
654.456	4584.04
654.648	4561.51
654.84	4571.75
655.033	4532.84
655.225	4506.21
655.417	4332.14
655.61	4498.02
655.802	4379.24
655.994	4528.74
656.186	4364.9
656.379	4438.63
656.571	4313.7
656.763	4354.66
656.955	4387.43
657.148	4391.53
657.34	4295.27
657.532	4215.4
657.724	4180.59
657.916	4166.25
658.108	4305.51
658.3	4119.15
658.492	4199.02
658.684	4067.95
658.876	4174.44
659.068	3977.84
659.26	4026.99
659.452	4014.7
659.644	4049.52
659.836	4018.8
660.028	4000.37
660.22	4018.8
660.412	3986.03
660.604	3906.16
660.796	3885.68
660.988	3969.65
661.18	3793.52
661.372	3859.06
661.563	3832.43
661.755	3693.17
661.947	3762.8
662.139	3777.14
662.331	3756.66
662.522	3758.71
662.714	3631.73
662.906	3736.18
663.097	3699.31
663.289	3551.86
663.481	3627.64
663.673	3687.03
663.864	3646.07
664.056	3408.5
664.247	3500.66
664.439	3627.64
664.631	3412.6
664.822	3508.85
665.014	3402.36
665.205	3476.09
665.397	3562.1
665.588	3539.57
665.78	3388.02
665.971	3412.6
666.163	3254.9
666.354	3275.38
666.546	3451.51
666.737	3271.29
666.929	3349.11
667.12	3328.63
667.311	3250.81
667.503	3195.51
667.694	3150.46
667.885	3267.19
668.077	3170.94
668.268	3199.61
668.459	3232.38
668.651	3060.35
668.842	3191.42
669.033	3152.51
669.224	3132.03
669.416	3144.31
669.607	3160.7
669.798	3109.5
669.989	3117.69
670.18	3011.2
670.371	3101.31
670.563	3031.68
670.754	3046.01
670.945	3068.54
671.136	2888.32
671.327	2906.75
671.518	3027.58
671.709	2945.66
671.9	2873.98
672.091	2931.33
672.282	2976.38
672.473	2888.32
672.664	2912.89
672.855	2814.59
673.046	2837.12
673.237	2814.59
673.428	2916.99
673.619	2781.82
673.809	2851.46
674	2767.49
674.191	2693.76
674.382	2835.07
674.573	2712.19
674.764	2708.1
674.954	2775.68
675.145	2732.67
675.336	2798.21
675.527	2562.69
675.717	2644.61
675.908	2562.69
676.099	2652.8
676.289	2736.77
676.48	2642.56
676.671	2749.06
676.861	2767.49
677.052	2609.79
677.243	2833.02
677.433	2650.75
677.624	2642.56
677.814	2708.1
678.005	2491.01
678.195	2628.23
678.386	2581.12
678.576	2587.27
678.767	2617.99
678.957	2630.27
679.148	2716.29
679.338	2646.66
679.529	2693.76
679.719	2538.12
679.909	2511.49
680.1	2607.75
680.29	2560.64
680.481	2439.81
680.671	2491.01
680.861	2505.35
681.052	2560.64
681.242	2509.44
681.432	2484.87
681.622	2484.87
681.813	2538.12
682.003	2515.59
682.193	2405
682.383	2437.77
682.573	2441.86
682.764	2454.15
682.954	2552.45
683.144	2491.01
683.334	2351.75
683.524	2372.23
683.714	2525.83
683.904	2396.81
684.094	2415.24
684.284	2376.33
684.474	2359.94
684.664	2411.14
684.854	2405
685.044	2437.77
685.234	2335.37
685.424	2314.89
685.614	2323.08
685.804	2396.81
685.994	2357.89
686.184	2445.96
686.374	2372.23
686.564	2323.08
686.753	2212.49
686.943	2282.12
687.133	2298.5
687.323	2169.48
687.513	2267.78
687.702	2196.11
687.892	2210.44
688.082	2179.72
688.272	2237.06
688.461	2284.17
688.651	2126.47
688.841	2163.34
689.03	2118.28
689.22	2216.58
689.41	2208.39
689.599	2132.62
689.789	2243.21
689.979	2165.39
690.168	2224.78
690.358	2056.84
690.547	2032.27
690.737	2114.19
690.926	2122.38
691.116	2095.75
691.305	2241.16
691.495	2136.71
691.684	2026.12
691.874	2048.65
692.063	2038.41
692.252	1991.31
692.442	2019.98
692.631	1954.44
692.82	1919.63
693.01	1997.45
693.199	2022.03
693.388	1856.14
693.578	1968.78
693.767	1989.26
693.956	2036.36
694.146	1899.15
694.335	1987.21
694.524	1958.54
694.713	1979.02
694.902	1950.35
695.092	1925.77
695.281	1876.62
695.47	1970.83
695.659	1850
695.848	1864.33
696.037	1837.71
696.226	1991.31
696.415	1825.42
696.604	1852.05
696.793	1899.15
696.982	1753.74
697.171	1825.42
697.36	1850
697.549	1716.88
697.738	1825.42
697.927	1809.04
698.116	1864.33
698.305	1847.95
698.494	1823.37
698.683	1766.03
698.872	1774.22
699.061	1815.18
699.25	1766.03
699.438	1839.76
699.627	1890.96
699.816	1745.55
700.005	1718.93
700.193	1800.85
700.382	1872.53
700.571	1733.26
700.76	1729.17
700.948	1827.47
701.137	1809.04
701.326	1749.65
701.514	1749.65
701.703	1802.9
701.892	1725.07
702.08	1864.33
702.269	1794.7
702.457	1757.84
702.646	1747.6
702.834	1798.8
703.023	1712.78
703.212	1778.32
703.4	1741.46
703.589	1757.84
703.777	1800.85
703.965	1792.66
704.154	1839.76
704.342	1745.55
704.531	1778.32
704.719	1718.93
704.907	1809.04
705.096	1741.46
705.284	1684.11
705.472	1749.65
705.661	1747.6
705.849	1776.27
706.037	1761.94
706.226	1718.93
706.414	1905.29
706.602	1733.26
706.79	1757.84
706.979	1741.46
707.167	1768.08
707.355	1725.07
707.543	1708.69
707.731	1735.31
707.919	1778.32
708.107	1753.74
708.296	1688.21
708.484	1684.11
708.672	1823.37
708.86	1716.88
709.048	1731.22
709.236	1712.78
709.424	1667.73
709.612	1708.69
709.8	1723.02
709.988	1882.77
710.176	1827.47
710.364	1710.74
710.551	1802.9
710.739	1686.16
710.927	1737.36
711.115	1751.7
711.303	1725.07
711.491	1860.24
711.679	1688.21
711.866	1651.35
712.054	1731.22
712.242	1749.65
712.43	1766.03
712.617	1825.42
712.805	1725.07
712.993	1833.61
713.181	1733.26
713.368	1733.26
713.556	1751.7
713.744	1741.46
713.931	1909.39
714.119	1766.03
714.306	1780.37
714.494	1776.27
714.682	1800.85
714.869	1782.42
715.057	1876.62
715.244	1776.27
715.432	1776.27
715.619	1794.7
715.807	1727.12
715.994	1817.23
716.182	1718.93
716.369	1837.71
716.556	1749.65
716.744	1761.94
716.931	1839.76
717.119	1811.09
717.306	1874.57
717.493	1768.08
717.681	1874.57
717.868	1811.09
718.055	1737.36
718.242	1792.66
718.43	1671.83
718.617	1792.66
718.804	1751.7
718.991	1815.18
719.179	1843.85
719.366	1702.54
719.553	1809.04
719.74	1864.33
719.927	1786.51
720.114	1729.17
720.301	1823.37
720.488	1763.98
720.676	1626.77
720.863	1798.8
721.05	1845.9
721.237	1751.7
721.424	1749.65
721.611	1897.1
721.798	1712.78
721.985	1815.18
722.172	1833.61
722.358	1702.54
722.545	1819.28
722.732	1862.29
722.919	1782.42
723.106	1819.28
723.293	1723.02
723.48	1749.65
723.667	1784.46
723.853	1763.98
724.04	1802.9
724.227	1833.61
724.414	1890.96
724.6	1835.66
724.787	1766.03
724.974	1815.18
725.161	1858.19
725.347	1872.53
725.534	1776.27
725.72	1839.76
725.907	1839.76
726.094	1704.59
726.28	1696.4
726.467	1800.85
726.653	1716.88
726.84	1727.12
727.027	1737.36
727.213	1739.41
727.4	1913.49
727.586	1727.12
727.773	1768.08
727.959	1798.8
728.145	1880.72
728.332	1823.37
728.518	1733.26
728.705	1839.76
728.891	1757.84
729.077	1772.18
729.264	1813.13
729.45	1905.29
729.636	1823.37
729.823	1757.84
730.009	1923.73
730.195	1880.72
730.382	1766.03
730.568	1806.99
730.754	1784.46
730.94	1942.16
731.126	1817.23
731.313	1739.41
731.499	1827.47
731.685	1770.13
731.871	1850
732.057	1864.33
732.243	1876.62
732.429	1749.65
732.615	1809.04
732.801	1831.57
732.987	1786.51
733.173	1759.89
733.359	1745.55
733.545	1792.66
733.731	1831.57
733.917	1749.65
734.103	1741.46
734.289	1743.5
734.475	1757.84
734.661	1909.39
734.847	1766.03
735.033	1792.66
735.219	1747.6
735.404	1905.29
735.59	1798.8
735.776	1839.76
735.962	1782.42
736.148	1860.24
736.333	1792.66
736.519	1772.18
736.705	1786.51
736.89	1774.22
737.076	1741.46
737.262	1667.73
737.447	1626.77
737.633	1776.27
737.819	1743.5
738.004	1811.09
738.19	1755.79
738.375	1741.46
738.561	1802.9
738.747	1737.36
738.932	1680.02
739.118	1792.66
739.303	1749.65
739.489	1806.99
739.674	1608.34
739.859	1708.69
740.045	1749.65
740.23	1708.69
740.416	1684.11
740.601	1727.12
740.786	1741.46
740.972	1708.69
741.157	1725.07
741.342	1612.43
741.528	1610.39
741.713	1768.08
741.898	1677.97
742.084	1714.83
742.269	1659.54
742.454	1770.13
742.639	1680.02
742.824	1692.3
743.01	1698.45
743.195	1645.2
743.38	1696.4
743.565	1659.54
743.75	1663.63
743.935	1569.43
744.12	1628.82
744.305	1487.51
744.49	1532.56
744.675	1606.29
744.86	1479.32
745.045	1561.23
745.23	1557.14
745.415	1557.14
745.6	1696.4
745.785	1491.6
745.97	1594
746.155	1516.18
746.34	1536.66
746.525	1411.73
746.71	1575.57
746.895	1397.4
747.079	1497.75
747.264	1464.98
747.449	1497.75
747.634	1516.18
747.819	1419.92
748.003	1424.02
748.188	1546.9
748.373	1364.63
748.557	1428.12
748.742	1434.26
748.927	1436.31
749.111	1413.78
749.296	1450.64
749.481	1327.77
749.665	1446.55
749.85	1424.02
750.034	1424.02
750.219	1376.92
750.404	1413.78
750.588	1430.16
750.773	1376.92
750.957	1286.81
751.141	1415.83
751.326	1235.61
751.51	1317.53
751.695	1331.86
751.879	1260.18
752.064	1282.71
752.248	1266.33
752.432	1272.47
752.617	1274.52
752.801	1364.63
752.985	1200.79
753.17	1198.74
753.354	1315.48
753.538	1340.05
753.722	1161.88
753.907	1192.6
754.091	1090.2
754.275	1241.75
754.459	1170.07
754.643	1077.91
754.828	1192.6
755.012	1094.3
755.196	1170.07
755.38	1147.55
755.564	1120.92
755.748	1129.11
755.932	1034.91
756.116	1055.39
756.3	1192.6
756.484	1049.24
756.668	1014.43
756.852	1135.26
757.036	1088.15
757.22	1036.95
757.404	1104.54
757.588	1079.96
757.772	1057.43
757.956	1086.11
758.14	1079.96
758.323	1051.29
758.507	1036.95
758.691	1088.15
758.875	1032.86
759.059	1059.48
759.242	930.46
759.426	1012.38
759.61	889.5
759.794	1065.63
759.977	1036.95
760.161	1055.39
760.345	1020.57
760.528	969.37
760.712	1014.43
760.895	823.97
761.079	905.88
761.263	926.36
761.446	912.03
761.63	955.04
761.813	944.8
761.997	996
762.18	881.31
762.364	873.12
762.547	785.05
762.731	938.65
762.914	891.55
763.098	899.74
763.281	918.17
763.464	848.54
763.648	840.35
763.831	848.54
764.015	901.79
764.198	930.46
764.381	873.12
764.564	922.27
764.748	815.77
764.931	891.55
765.114	774.81
765.297	817.82
765.481	877.21
765.664	819.87
765.847	758.43
766.03	889.5
766.213	742.05
766.397	866.97
766.58	699.04
766.763	785.05
766.946	752.29
767.129	789.15
767.312	762.53
767.495	758.43
767.678	785.05
767.861	776.86
768.044	768.67
768.227	733.86
768.41	807.58
768.593	783.01
768.776	701.09
768.959	834.21
769.142	770.72
769.324	748.19
769.507	676.51
769.69	813.73
769.873	752.29
770.056	799.39
770.239	694.94
770.421	772.77
770.604	770.72
770.787	692.9
770.97	785.05
771.152	725.66
771.335	645.79
771.518	606.88
771.7	754.34
771.883	737.95
772.066	709.28
772.248	737.95
772.431	703.14
772.613	754.34
772.796	744.1
772.978	680.61
773.161	701.09
773.343	653.98
773.526	711.33
773.708	686.75
773.891	600.74
774.073	629.41
774.256	637.6
774.438	684.7
774.621	711.33
774.803	719.52
774.985	598.69
775.168	615.07
775.35	570.02
775.532	766.62
775.715	586.4
775.897	629.41
776.079	635.55
776.261	580.26
776.444	565.92
776.626	590.5
776.808	666.27
776.99	606.88
777.173	635.55
777.355	606.88
777.537	563.87
777.719	473.76
777.901	596.64
778.083	539.3
778.265	512.67
778.447	637.6
778.629	443.04
778.811	588.45
778.993	578.21
779.175	561.83
779.357	547.49
779.539	504.48
779.721	576.16
779.903	477.86
780.085	518.82
780.267	463.52
780.449	504.48
780.631	512.67
780.812	557.73
780.994	490.15
781.176	522.91
781.358	488.1
781.54	453.28
781.721	479.91
781.903	486.05
782.085	473.76
782.267	520.87
782.448	404.13
782.63	449.19
782.812	469.67
782.993	529.06
783.175	500.39
783.357	455.33
783.538	490.15
783.72	346.79
783.901	451.24
784.083	430.76
784.264	461.48
784.446	309.93
784.627	443.04
784.809	422.56
784.99	346.79
785.172	426.66
785.353	479.91
785.535	414.37
785.716	357.03
785.897	348.84
786.079	438.95
786.26	455.33
786.441	418.47
786.623	324.26
786.804	402.08
786.985	373.41
787.167	293.54
787.348	346.79
787.529	311.97
787.71	381.6
787.891	441
788.073	293.54
788.254	357.03
788.435	373.41
788.616	373.41
788.797	322.21
788.978	424.61
789.159	285.35
789.34	344.74
789.522	295.59
789.703	299.69
789.884	406.18
790.065	348.84
790.246	324.26
790.427	346.79
790.607	318.12
790.788	365.22
790.969	266.92
791.15	307.88
791.331	303.78
791.512	266.92
791.693	266.92
791.874	316.07
792.054	336.55
792.235	311.97
792.416	289.45
792.597	230.06
792.778	328.36
792.958	275.11
793.139	287.4
793.32	287.4
793.5	275.11
793.681	219.82
793.862	242.34
794.042	266.92
794.223	264.87
794.404	283.3
794.584	225.96
794.765	266.92
794.945	303.78
795.126	275.11
795.306	279.21
795.487	230.06
795.667	309.93
795.848	252.58
796.028	195.24
796.209	207.53
796.389	242.34
796.57	244.39
796.75	221.86
796.93	273.06
797.111	230.06
797.291	266.92
797.471	285.35
797.652	258.73
797.832	250.53
798.012	139.94
798.192	156.33
798.373	234.15
798.553	240.29
798.733	234.15
798.913	217.77
799.093	176.81
799.274	250.53
799.454	230.06
799.634	221.86
799.814	252.58
799.994	225.96
800.174	195.24
800.354	135.85
800.534	246.44
800.714	219.82
800.894	225.96
801.074	96.94
801.254	170.66
801.434	164.52
801.614	178.86
801.794	180.9
801.974	750.24
802.154	230.06
802.334	213.67
802.514	219.82
802.693	170.66
802.873	162.47
803.053	256.68
803.233	182.95
803.413	246.44
803.592	209.58
803.772	176.81
803.952	174.76
804.131	172.71
804.311	203.43
804.491	164.52
804.67	150.18
804.85	139.94
805.03	119.46
805.209	197.29
805.389	119.46
805.568	185
805.748	152.23
805.928	135.85
806.107	103.08
806.287	225.96
806.466	144.04
806.646	178.86
806.825	86.7
807.004	168.62
807.184	127.66
807.363	164.52
807.543	201.38
807.722	98.99
807.901	160.42
808.081	168.62
808.26	148.14
808.439	168.62
808.619	160.42
808.798	123.56
808.977	137.9
809.156	201.38
809.336	209.58
809.515	119.46
809.694	150.18
809.873	203.43
810.052	76.46
810.231	170.66
810.411	144.04
810.59	213.67
810.769	111.27
810.948	111.27
811.127	119.46
811.306	162.47
811.485	45.74
811.664	144.04
811.843	119.46
812.022	119.46
812.201	103.08
812.38	80.55
812.559	115.37
812.737	180.9
812.916	146.09
813.095	70.31
813.274	193.19
813.453	156.33
813.632	131.75
813.811	111.27
813.989	84.65
814.168	152.23
814.347	156.33
814.526	119.46
814.704	199.34
814.883	139.94
815.062	144.04
815.24	170.66
815.419	64.17
815.598	170.66
815.776	80.55
815.955	144.04
816.133	103.08
816.312	162.47
816.49	113.32
816.669	170.66
816.847	127.66
817.026	129.7
817.204	98.99
817.383	88.75
817.561	58.03
817.74	78.51
817.918	152.23
818.097	64.17
818.275	103.08
818.453	103.08
818.632	74.41
818.81	72.36
818.988	62.12
819.167	80.55
819.345	125.61
819.523	78.51
819.701	105.13
819.879	117.42
820.058	80.55
820.236	58.03
820.414	90.79
820.592	117.42
820.77	123.56
820.948	88.75
821.127	92.84
821.305	107.18
821.483	-3.41
821.661	144.04
821.839	74.41
822.017	82.6
822.195	84.65
822.373	172.71
822.551	119.46
822.729	156.33
822.907	53.93
823.085	103.08
823.262	45.74
823.44	53.93
823.618	31.4
823.796	135.85
823.974	103.08
824.152	86.7
824.329	25.26
824.507	90.79
824.685	82.6
824.863	58.03
825.04	53.93
825.218	80.55
825.396	133.8
825.574	15.02
825.751	109.22
825.929	154.28
826.107	70.31
826.284	55.98
826.462	62.12
826.639	21.16
826.817	86.7
826.994	109.22
827.172	60.07
827.349	144.04
827.527	37.55
827.704	103.08
827.882	60.07
828.059	-3.41
828.237	68.27
828.414	111.27
828.591	62.12
828.769	76.46
828.946	15.02
829.124	80.55
829.301	51.88
829.478	72.36
829.655	84.65
829.833	72.36
830.01	29.35
830.187	82.6
830.364	-27.99
830.542	123.56
830.719	64.17
830.896	131.75
831.073	58.03
831.25	72.36
831.427	121.51
831.604	53.93
831.782	107.18
831.959	105.13
832.136	41.64
832.313	76.46
832.49	39.59
832.667	51.88
832.844	8.87
833.021	68.27
833.198	51.88
833.374	78.51
833.551	17.07
833.728	131.75
833.905	105.13
834.082	12.97
834.259	82.6
834.436	82.6
834.612	86.7
834.789	29.35
834.966	-19.8
835.143	70.31
835.319	-1.37
835.496	41.64
835.673	86.7
835.85	70.31
836.026	88.75
836.203	70.31
836.38	53.93
836.556	-3.41
836.733	0.68
836.909	113.32
837.086	37.55
837.262	58.03
837.439	49.83
837.616	35.5
837.792	31.4
837.968	88.75
838.145	27.31
838.321	29.35
838.498	0.68
838.674	98.99
838.851	62.12
839.027	37.55
839.203	41.64
839.38	127.66
839.556	82.6
839.732	41.64
839.909	31.4
840.085	45.74
840.261	53.93
840.437	51.88
840.614	49.83
840.79	133.8
840.966	103.08
841.142	90.79
841.318	17.07
841.494	17.07
841.671	21.16
841.847	78.51
842.023	23.21
842.199	53.93
842.375	154.28
842.551	-40.28
842.727	29.35
842.903	123.56
843.079	58.03
843.255	127.66
843.431	-44.37
843.607	137.9
843.783	-56.66
843.959	12.97
844.134	21.16
844.31	88.75
844.486	33.45
844.662	29.35
844.838	137.9
845.013	103.08
845.189	62.12
845.365	58.03
845.541	107.18
845.716	64.17
845.892	105.13
846.068	-19.8
846.244	39.59
846.419	53.93
846.595	29.35
846.77	-3.41
846.946	80.55
847.122	49.83
847.297	17.07
847.473	41.64
847.648	23.21
847.824	53.93
847.999	25.26
848.175	62.12
848.35	8.87
848.526	119.46
848.701	86.7
848.876	35.5
849.052	109.22
849.227	4.78
849.403	17.07
849.578	53.93
849.753	64.17
849.929	80.55
850.104	-27.99
850.279	49.83
850.454	37.55
850.63	37.55
850.805	0.68
850.98	12.97
851.155	4.78
851.33	94.89
851.505	12.97
851.681	72.36
851.856	-7.51
852.031	58.03
852.206	72.36
852.381	-3.41
852.556	29.35
852.731	72.36
852.906	53.93
853.081	-30.04
853.256	37.55
853.431	-21.85
853.606	-17.75
853.781	17.07
853.956	0.68
854.131	-50.52
854.305	-3.41
854.48	8.87
854.655	-11.61
854.83	-50.52
855.005	58.03
855.18	78.51
855.354	-17.75
855.529	6.83
855.704	29.35
855.879	-7.51
856.053	39.59
856.228	-17.75
856.403	-50.52
856.577	21.16
856.752	-11.61
856.926	-36.18
857.101	37.55
857.276	-3.41
857.45	0.68
857.625	12.97
857.799	47.79
857.974	78.51
858.148	-1.37
858.323	33.45
858.497	-3.41
858.672	-50.52
858.846	29.35
859.02	53.93
859.195	-27.99
859.369	0.68
859.543	-25.94
859.718	-11.61
859.892	8.87
860.066	47.79
860.241	-3.41
860.415	-27.99
860.589	-9.56
860.763	64.17
860.938	37.55
861.112	53.93
861.286	-5.46
861.46	-3.41
861.634	8.87
861.808	37.55
861.982	43.69
862.157	-11.61
862.331	-25.94
862.505	33.45
862.679	-11.61
862.853	53.93
863.027	4.78
863.201	12.97
863.375	4.78
863.549	74.41
863.722	-23.89
863.896	31.4
864.07	90.79
864.244	39.59
864.418	47.79
864.592	-21.85
864.766	53.93
864.939	31.4
865.113	119.46
865.287	53.93
865.461	-11.61
865.634	-58.71
865.808	45.74
865.982	-3.41
866.156	41.64
866.329	-9.56
866.503	27.31
866.676	70.31
866.85	53.93
867.024	31.4
867.197	53.93
867.371	4.78
867.544	-3.41
867.718	-62.8
867.891	51.88
868.065	72.36
868.238	25.26
868.412	17.07
868.585	47.79
868.759	0.68
868.932	12.97
869.105	-81.24
869.279	12.97
869.452	-50.52
869.625	58.03
869.799	70.31
869.972	23.21
870.145	-7.51
870.319	-38.23
870.492	15.02
870.665	4.78
870.838	6.83
871.011	-1.37
871.185	78.51
871.358	-73.04
871.531	-9.56
871.704	6.83
871.877	21.16
872.05	58.03
872.223	29.35
872.396	4.78
872.569	58.03
872.742	-30.04
872.915	72.36
873.088	12.97
873.261	8.87
873.434	27.31
873.607	12.97
873.78	-7.51
873.953	-25.94
874.126	10.92
874.299	-19.8
874.471	-1.37
874.644	-27.99
874.817	27.31
874.99	55.98
875.163	6.83
875.335	64.17
875.508	25.26
875.681	74.41
875.853	-25.94
876.026	-17.75
876.199	25.26
876.371	-44.37
876.544	15.02
876.717	-46.42
876.889	21.16
877.062	4.78
877.234	-44.37
877.407	55.98
877.579	-23.89
877.752	-3.41
877.924	-11.61
878.097	-19.8
878.269	-68.95
878.442	-1.37
878.614	-89.43
878.786	-9.56
878.959	8.87
879.131	-36.18
879.303	-68.95
879.476	37.55
879.648	35.5
879.82	47.79
879.993	-34.13
880.165	-15.7
880.337	-34.13
880.509	45.74
880.681	82.6
880.854	-46.42
881.026	12.97
881.198	-15.7
881.37	-40.28
881.542	15.02
881.714	53.93
881.886	6.83
882.058	25.26
882.23	41.64
882.402	-44.37
882.574	-25.94
882.746	-40.28
882.918	41.64
883.09	4.78
883.262	-15.7
883.434	-25.94
883.606	-60.76
883.778	-19.8
883.95	35.5
884.122	25.26
884.293	43.69
884.465	29.35
884.637	4.78
884.809	-40.28
884.98	29.35
885.152	-52.56
885.324	4.78
885.496	-17.75
885.667	64.17
885.839	15.02
886.011	-44.37
886.182	-7.51
886.354	23.21
886.525	-19.8
886.697	6.83
886.869	-81.24
887.04	0.68
887.212	17.07
887.383	41.64
887.555	0.68
887.726	21.16
887.897	60.07
888.069	64.17
888.24	-36.18
888.412	21.16
888.583	0.68
888.754	-19.8
888.926	-75.09
889.097	21.16
889.268	-91.48
889.44	-5.46
889.611	-1.37
889.782	6.83
889.953	4.78
890.125	-36.18
890.296	-42.32
890.467	78.51
890.638	15.02
890.809	-9.56
890.98	-50.52
891.151	33.45
891.323	105.13
891.494	53.93
891.665	-30.04
891.836	45.74
892.007	-1.37
892.178	-11.61
892.349	15.02
892.52	-36.18
892.691	-83.28
892.862	-52.56
893.032	-19.8
893.203	10.92
893.374	37.55
893.545	53.93
893.716	-118.1
893.887	45.74
894.057	33.45
894.228	29.35
894.399	-42.32
894.57	49.83
894.74	62.12
894.911	-58.71
895.082	8.87
895.253	6.83
895.423	-36.18
895.594	90.79
895.764	6.83
895.935	-3.41
896.106	-38.23
896.276	2.73
896.447	47.79
896.617	-83.28
896.788	-11.61
896.958	-17.75
897.129	-101.72
897.299	-5.46
897.47	19.11
897.64	51.88
897.81	-27.99
897.981	-40.28
898.151	23.21
898.322	23.21
898.492	29.35
898.662	-7.51
898.832	6.83
899.003	-73.04
899.173	-30.04
899.343	-9.56
899.513	-36.18
