Data from USB4F104151__302__14-46-39-174.txt Node

Date: Thu Mar 13 14:46:39 EDT 2025
User: louis
Spectrometer: USB4F10415
Trigger mode: 4
Integration Time (sec): 2.000000E-2
Scans to average: 1
Electric dark correction enabled: true
Nonlinearity correction enabled: false
Boxcar width: 0
XAxis mode: Wavelengths
Number of Pixels in Spectrum: 3648
>>>>>Begin Spectral Data<<<<<
178.204	-97.45
178.424	-97.45
178.644	-97.45
178.864	-93.35
179.084	-60.59
179.304	-5.29
179.524	-11.43
179.744	2.9
179.964	35.67
180.184	-52.39
180.404	54.1
180.624	-44.2
180.844	37.72
181.064	9.05
181.283	4.95
181.503	-48.3
181.723	17.24
181.943	0.85
182.163	21.33
182.383	21.33
182.602	78.68
182.822	86.87
183.042	7
183.262	60.24
183.482	21.33
183.701	54.1
183.921	-27.82
184.141	50
184.361	21.33
184.58	45.91
184.8	78.68
185.02	4.95
185.239	4.95
185.459	25.43
185.679	84.82
185.898	41.81
186.118	43.86
186.338	70.48
186.557	45.91
186.777	-81.07
186.997	133.97
187.216	-52.39
187.436	39.76
187.655	31.57
187.875	7
188.095	-3.24
188.314	62.29
188.534	52.05
188.753	0.85
188.973	31.57
189.192	121.68
189.412	7
189.631	-17.58
189.851	-19.63
190.07	29.52
190.29	23.38
190.509	41.81
190.729	58.2
190.948	99.16
191.168	125.78
191.387	86.87
191.607	-52.39
191.826	23.38
192.045	11.09
192.265	17.24
192.484	25.43
192.704	23.38
192.923	7
193.142	45.91
193.362	21.33
193.581	103.25
193.8	45.91
194.02	56.15
194.239	62.29
194.458	-19.63
194.678	-21.67
194.897	-11.43
195.116	-25.77
195.335	97.11
195.555	31.57
195.774	15.19
195.993	29.52
196.212	21.33
196.432	70.48
196.651	15.19
196.87	54.1
197.089	47.96
197.308	29.52
197.528	39.76
197.747	23.38
197.966	23.38
198.185	95.06
198.404	70.48
198.623	9.05
198.842	80.72
199.062	47.96
199.281	52.05
199.5	-13.48
199.719	11.09
199.938	54.1
200.157	54.1
200.376	47.96
200.595	21.33
200.814	97.11
201.033	-42.15
201.252	80.72
201.471	-21.67
201.69	103.25
201.909	37.72
202.128	41.81
202.347	95.06
202.566	56.15
202.785	45.91
203.004	-13.48
203.223	58.2
203.442	-48.3
203.661	31.57
203.879	47.96
204.098	-40.11
204.317	35.67
204.536	70.48
204.755	54.1
204.974	72.53
205.193	-27.82
205.411	111.44
205.63	144.21
205.849	-36.01
206.068	21.33
206.287	27.48
206.505	7
206.724	29.52
206.943	107.35
207.162	-11.43
207.381	45.91
207.599	7
207.818	-3.24
208.037	35.67
208.255	52.05
208.474	7
208.693	72.53
208.911	54.1
209.13	23.38
209.349	62.29
209.567	33.62
209.786	80.72
210.005	52.05
210.223	0.85
210.442	23.38
210.661	62.29
210.879	62.29
211.098	62.29
211.316	50
211.535	86.87
211.753	23.38
211.972	105.3
212.191	21.33
212.409	50
212.628	4.95
212.846	15.19
213.065	95.06
213.283	129.88
213.502	56.15
213.72	4.95
213.938	7
214.157	27.48
214.375	-1.19
214.594	58.2
214.812	41.81
215.031	37.72
215.249	41.81
215.467	72.53
215.686	86.87
215.904	56.15
216.122	-52.39
216.341	74.58
216.559	39.76
216.778	7
216.996	43.86
217.214	35.67
217.432	15.19
217.651	11.09
217.869	-11.43
218.087	25.43
218.306	39.76
218.524	33.62
218.742	37.72
218.96	33.62
219.179	58.2
219.397	103.25
219.615	129.88
219.833	76.63
220.051	-48.3
220.27	111.44
220.488	43.86
220.706	4.95
220.924	-21.67
221.142	50
221.36	-11.43
221.578	97.11
221.796	-27.82
222.015	31.57
222.233	0.85
222.451	72.53
222.669	56.15
222.887	78.68
223.105	45.91
223.323	23.38
223.541	45.91
223.759	66.39
223.977	54.1
224.195	119.64
224.413	54.1
224.631	54.1
224.849	23.38
225.067	88.92
225.285	78.68
225.503	-9.39
225.721	7
225.939	0.85
226.157	15.19
226.375	107.35
226.592	-7.34
226.81	45.91
227.028	33.62
227.246	39.76
227.464	-36.01
227.682	-11.43
227.9	13.14
228.117	-19.63
228.335	50
228.553	-17.58
228.771	45.91
228.989	70.48
229.206	80.72
229.424	29.52
229.642	35.67
229.86	33.62
230.077	66.39
230.295	-48.3
230.513	39.76
230.731	11.09
230.948	78.68
231.166	47.96
231.384	54.1
231.601	21.33
231.819	60.24
232.037	17.24
232.254	37.72
232.472	23.38
232.689	13.14
232.907	-3.24
233.125	-56.49
233.342	-36.01
233.56	-36.01
233.777	31.57
233.995	62.29
234.213	47.96
234.43	31.57
234.648	50
234.865	115.54
235.083	-7.34
235.3	-42.15
235.518	105.3
235.735	37.72
235.953	160.59
236.17	58.2
236.388	29.52
236.605	66.39
236.822	90.96
237.04	115.54
237.257	7
237.475	70.48
237.692	7
237.909	60.24
238.127	19.29
238.344	37.72
238.562	45.91
238.779	-19.63
238.996	-44.2
239.214	13.14
239.431	29.52
239.648	41.81
239.865	101.2
240.083	66.39
240.3	78.68
240.517	-50.35
240.735	9.05
240.952	166.74
241.169	45.91
241.386	54.1
241.603	7
241.821	-33.96
242.038	37.72
242.255	37.72
242.472	-3.24
242.689	78.68
242.907	13.14
243.124	7
243.341	-27.82
243.558	33.62
243.775	29.52
243.992	41.81
244.209	54.1
244.426	88.92
244.643	-3.24
244.86	-3.24
245.078	47.96
245.295	54.1
245.512	33.62
245.729	101.2
245.946	64.34
246.163	95.06
246.38	33.62
246.597	-27.82
246.814	31.57
247.031	29.52
247.248	-17.58
247.464	15.19
247.681	56.15
247.898	37.72
248.115	9.05
248.332	7
248.549	70.48
248.766	115.54
248.983	15.19
249.2	-27.82
249.417	70.48
249.633	0.85
249.85	64.34
250.067	50
250.284	86.87
250.501	17.24
250.717	29.52
250.934	-42.15
251.151	62.29
251.368	-17.58
251.585	84.82
251.801	37.72
252.018	-72.87
252.235	95.06
252.451	7
252.668	47.96
252.885	70.48
253.102	99.16
253.318	-15.53
253.535	-13.48
253.752	13.14
253.968	54.1
254.185	52.05
254.401	11.09
254.618	7
254.835	7
255.051	107.35
255.268	47.96
255.484	-27.82
255.701	31.57
255.917	13.14
256.134	21.33
256.351	25.43
256.567	15.19
256.784	62.29
257	-15.53
257.217	103.25
257.433	68.44
257.65	70.48
257.866	-3.24
258.082	-46.25
258.299	54.1
258.515	-11.43
258.732	43.86
258.948	29.52
259.165	47.96
259.381	-7.34
259.597	-50.35
259.814	78.68
260.03	21.33
260.246	37.72
260.463	113.49
260.679	86.87
260.895	56.15
261.112	4.95
261.328	47.96
261.544	-29.87
261.761	95.06
261.977	45.91
262.193	50
262.409	39.76
262.626	41.81
262.842	-5.29
263.058	17.24
263.274	62.29
263.49	-1.19
263.707	70.48
263.923	-64.68
264.139	27.48
264.355	27.48
264.571	103.25
264.787	88.92
265.004	88.92
265.22	-9.39
265.436	45.91
265.652	-11.43
265.868	21.33
266.084	62.29
266.3	50
266.516	25.43
266.732	119.64
266.948	-9.39
267.164	2.9
267.38	41.81
267.596	105.3
267.812	101.2
268.028	-31.91
268.244	45.91
268.46	78.68
268.676	-58.54
268.892	76.63
269.108	35.67
269.324	70.48
269.54	-25.77
269.756	111.44
269.972	39.76
270.188	-3.24
270.403	-1.19
270.619	23.38
270.835	-25.77
271.051	39.76
271.267	-52.39
271.483	70.48
271.698	72.53
271.914	33.62
272.13	7
272.346	54.1
272.562	78.68
272.777	-27.82
272.993	-36.01
273.209	62.29
273.425	15.19
273.64	62.29
273.856	33.62
274.072	95.06
274.287	-31.91
274.503	37.72
274.719	37.72
274.934	-81.07
275.15	-29.87
275.366	90.96
275.581	-23.72
275.797	43.86
276.012	13.14
276.228	74.58
276.444	76.63
276.659	50
276.875	4.95
277.09	45.91
277.306	58.2
277.521	62.29
277.737	17.24
277.952	13.14
278.168	-19.63
278.383	17.24
278.599	45.91
278.814	37.72
279.03	17.24
279.245	21.33
279.461	17.24
279.676	29.52
279.892	15.19
280.107	-13.48
280.322	-17.58
280.538	74.58
280.753	13.14
280.969	50
281.184	-60.59
281.399	31.57
281.615	-9.39
281.83	4.95
282.045	-23.72
282.26	78.68
282.476	152.4
282.691	56.15
282.906	-33.96
283.122	52.05
283.337	17.24
283.552	86.87
283.767	-42.15
283.983	78.68
284.198	74.58
284.413	47.96
284.628	29.52
284.843	97.11
285.058	90.96
285.274	13.14
285.489	56.15
285.704	97.11
285.919	-7.34
286.134	11.09
286.349	78.68
286.564	-36.01
286.779	-3.24
286.995	35.67
287.21	7
287.425	109.4
287.64	37.72
287.855	41.81
288.07	78.68
288.285	-1.19
288.5	115.54
288.715	52.05
288.93	47.96
289.145	97.11
289.36	29.52
289.575	-38.06
289.79	103.25
290.004	80.72
290.219	72.53
290.434	-91.31
290.649	70.48
290.864	-5.29
291.079	78.68
291.294	72.53
291.509	-1.19
291.724	47.96
291.938	17.24
292.153	50
292.368	37.72
292.583	41.81
292.798	68.44
293.012	0.85
293.227	84.82
293.442	-3.24
293.657	58.2
293.871	80.72
294.086	62.29
294.301	54.1
294.516	115.54
294.73	-74.92
294.945	45.91
295.16	47.96
295.374	54.1
295.589	25.43
295.804	60.24
296.018	31.57
296.233	11.09
296.447	64.34
296.662	-1.19
296.877	50
297.091	78.68
297.306	50
297.52	27.48
297.735	39.76
297.949	23.38
298.164	72.53
298.378	21.33
298.593	-19.63
298.807	72.53
299.022	-25.77
299.236	70.48
299.451	-15.53
299.665	33.62
299.88	39.76
300.094	23.38
300.309	7
300.523	111.44
300.737	4.95
300.952	82.77
301.166	127.83
301.381	7
301.595	62.29
301.809	9.05
302.024	0.85
302.238	45.91
302.452	31.57
302.667	95.06
302.881	78.68
303.095	25.43
303.309	105.3
303.524	4.95
303.738	23.38
303.952	-33.96
304.166	82.77
304.381	-23.72
304.595	119.64
304.809	70.48
305.023	29.52
305.237	29.52
305.452	37.72
305.666	101.2
305.88	62.29
306.094	84.82
306.308	13.14
306.522	37.72
306.736	-48.3
306.95	-3.24
307.164	47.96
307.379	43.86
307.593	113.49
307.807	56.15
308.021	74.58
308.235	78.68
308.449	-15.53
308.663	-33.96
308.877	86.87
309.091	13.14
309.305	45.91
309.519	70.48
309.733	25.43
309.947	19.29
310.161	45.91
310.374	17.24
310.588	-15.53
310.802	-48.3
311.016	80.72
311.23	60.24
311.444	29.52
311.658	72.53
311.872	62.29
312.085	37.72
312.299	136.02
312.513	111.44
312.727	-7.34
312.941	-25.77
313.154	31.57
313.368	64.34
313.582	21.33
313.796	31.57
314.009	-19.63
314.223	115.54
314.437	37.72
314.651	70.48
314.864	103.25
315.078	-15.53
315.292	0.85
315.505	13.14
315.719	15.19
315.933	58.2
316.146	97.11
316.36	-23.72
316.573	62.29
316.787	47.96
317.001	93.01
317.214	23.38
317.428	4.95
317.641	29.52
317.855	-3.24
318.068	62.29
318.282	78.68
318.495	52.05
318.709	95.06
318.922	37.72
319.136	17.24
319.349	-5.29
319.563	50
319.776	74.58
319.99	27.48
320.203	25.43
320.417	125.78
320.63	70.48
320.843	103.25
321.057	23.38
321.27	-1.19
321.483	107.35
321.697	78.68
321.91	17.24
322.124	103.25
322.337	-9.39
322.55	60.24
322.763	47.96
322.977	7
323.19	23.38
323.403	4.95
323.617	-17.58
323.83	119.64
324.043	7
324.256	-15.53
324.469	-19.63
324.683	78.68
324.896	17.24
325.109	78.68
325.322	-17.58
325.535	113.49
325.748	25.43
325.962	21.33
326.175	76.63
326.388	4.95
326.601	-17.58
326.814	64.34
327.027	50
327.24	78.68
327.453	-76.97
327.666	47.96
327.879	103.25
328.092	56.15
328.305	-3.24
328.518	47.96
328.731	33.62
328.944	0.85
329.157	33.62
329.37	64.34
329.583	101.2
329.796	58.2
330.009	78.68
330.222	37.72
330.435	64.34
330.648	107.35
330.861	88.92
331.073	23.38
331.286	37.72
331.499	-27.82
331.712	21.33
331.925	9.05
332.138	0.85
332.35	64.34
332.563	144.21
332.776	125.78
332.989	41.81
333.202	117.59
333.414	54.1
333.627	95.06
333.84	-1.19
334.053	54.1
334.265	29.52
334.478	41.81
334.691	37.72
334.903	54.1
335.116	23.38
335.329	4.95
335.541	115.54
335.754	64.34
335.966	58.2
336.179	82.77
336.392	37.72
336.604	52.05
336.817	4.95
337.029	19.29
337.242	107.35
337.454	54.1
337.667	-5.29
337.88	80.72
338.092	39.76
338.305	70.48
338.517	-13.48
338.729	31.57
338.942	56.15
339.154	7
339.367	-50.35
339.579	62.29
339.792	31.57
340.004	82.77
340.217	70.48
340.429	-21.67
340.641	23.38
340.854	54.1
341.066	119.64
341.278	127.83
341.491	103.25
341.703	17.24
341.915	4.95
342.128	45.91
342.34	13.14
342.552	97.11
342.764	4.95
342.977	45.91
343.189	45.91
343.401	68.44
343.613	-40.11
343.826	21.33
344.038	-38.06
344.25	37.72
344.462	13.14
344.674	123.73
344.886	66.39
345.099	86.87
345.311	60.24
345.523	-7.34
345.735	-19.63
345.947	29.52
346.159	-3.24
346.371	66.39
346.583	74.58
346.795	136.02
347.007	-1.19
347.219	54.1
347.431	21.33
347.643	56.15
347.855	47.96
348.067	80.72
348.279	54.1
348.491	21.33
348.703	47.96
348.915	86.87
349.127	78.68
349.339	41.81
349.551	31.57
349.763	78.68
349.975	21.33
350.187	97.11
350.399	86.87
350.61	66.39
350.822	33.62
351.034	78.68
351.246	41.81
351.458	47.96
351.669	17.24
351.881	25.43
352.093	95.06
352.305	111.44
352.517	56.15
352.728	103.25
352.94	45.91
353.152	68.44
353.363	9.05
353.575	88.92
353.787	41.81
353.999	15.19
354.21	78.68
354.422	35.67
354.633	17.24
354.845	37.72
355.057	82.77
355.268	58.2
355.48	70.48
355.692	-74.92
355.903	90.96
356.115	90.96
356.326	0.85
356.538	31.57
356.749	23.38
356.961	95.06
357.172	58.2
357.384	39.76
357.595	97.11
357.807	123.73
358.018	-3.24
358.23	-3.24
358.441	4.95
358.653	70.48
358.864	0.85
359.075	-1.19
359.287	60.24
359.498	64.34
359.709	78.68
359.921	78.68
360.132	72.53
360.344	111.44
360.555	31.57
360.766	111.44
360.977	29.52
361.189	58.2
361.4	-15.53
361.611	127.83
361.823	70.48
362.034	97.11
362.245	-27.82
362.456	19.29
362.667	84.82
362.879	50
363.09	-31.91
363.301	95.06
363.512	76.63
363.723	50
363.935	-19.63
364.146	58.2
364.357	17.24
364.568	45.91
364.779	15.19
364.99	56.15
365.201	103.25
365.412	156.5
365.623	21.33
365.834	66.39
366.045	41.81
366.256	54.1
366.467	17.24
366.678	60.24
366.889	25.43
367.1	78.68
367.311	95.06
367.522	86.87
367.733	103.25
367.944	45.91
368.155	35.67
368.366	111.44
368.577	21.33
368.788	52.05
368.999	-60.59
369.209	86.87
369.42	111.44
369.631	111.44
369.842	47.96
370.053	47.96
370.264	29.52
370.474	50
370.685	70.48
370.896	123.73
371.107	39.76
371.317	17.24
371.528	45.91
371.739	78.68
371.95	0.85
372.16	129.88
372.371	25.43
372.582	15.19
372.792	35.67
373.003	54.1
373.214	70.48
373.424	105.3
373.635	56.15
373.846	21.33
374.056	29.52
374.267	86.87
374.477	-15.53
374.688	52.05
374.898	13.14
375.109	86.87
375.319	-11.43
375.53	7
375.74	121.68
375.951	78.68
376.161	76.63
376.372	21.33
376.582	-3.24
376.793	39.76
377.003	60.24
377.214	78.68
377.424	27.48
377.635	50
377.845	-33.96
378.055	74.58
378.266	50
378.476	95.06
378.686	7
378.897	78.68
379.107	23.38
379.317	119.64
379.528	72.53
379.738	74.58
379.948	72.53
380.158	74.58
380.369	82.77
380.579	25.43
380.789	125.78
380.999	27.48
381.21	99.16
381.42	101.2
381.63	62.29
381.84	66.39
382.05	41.81
382.261	82.77
382.471	50
382.681	62.29
382.891	86.87
383.101	-19.63
383.311	7
383.521	-3.24
383.731	64.34
383.941	21.33
384.151	25.43
384.361	86.87
384.571	56.15
384.781	60.24
384.991	88.92
385.201	95.06
385.411	72.53
385.621	95.06
385.831	4.95
386.041	97.11
386.251	62.29
386.461	62.29
386.671	-21.67
386.881	78.68
387.091	-3.24
387.301	19.29
387.511	50
387.72	50
387.93	21.33
388.14	45.91
388.35	78.68
388.56	37.72
388.769	66.39
388.979	23.38
389.189	74.58
389.399	13.14
389.609	-7.34
389.818	70.48
390.028	93.01
390.238	105.3
390.447	29.52
390.657	95.06
390.867	29.52
391.076	-21.67
391.286	39.76
391.496	107.35
391.705	129.88
391.915	121.68
392.125	103.25
392.334	88.92
392.544	66.39
392.753	109.4
392.963	90.96
393.172	25.43
393.382	-7.34
393.591	70.48
393.801	27.48
394.01	103.25
394.22	70.48
394.429	80.72
394.639	82.77
394.848	181.07
395.058	93.01
395.267	39.76
395.477	99.16
395.686	136.02
395.895	82.77
396.105	146.26
396.314	58.2
396.524	127.83
396.733	133.97
396.942	115.54
397.152	74.58
397.361	82.77
397.57	93.01
397.78	86.87
397.989	119.64
398.198	193.36
398.407	19.29
398.617	29.52
398.826	50
399.035	131.92
399.244	138.07
399.453	113.49
399.663	62.29
399.872	121.68
400.081	152.4
400.29	72.53
400.499	140.12
400.708	142.16
400.917	162.64
401.127	117.59
401.336	95.06
401.545	121.68
401.754	174.93
401.963	187.22
402.172	119.64
402.381	90.96
402.59	107.35
402.799	-5.29
403.008	211.79
403.217	179.03
403.426	140.12
403.635	117.59
403.844	88.92
404.053	160.59
404.262	43.86
404.471	236.37
404.68	111.44
404.888	207.7
405.097	156.5
405.306	140.12
405.515	222.03
405.724	156.5
405.933	164.69
406.142	166.74
406.35	105.3
406.559	189.27
406.768	232.27
406.977	172.88
407.185	203.6
407.394	256.85
407.603	162.64
407.812	205.65
408.02	219.99
408.229	244.56
408.438	340.82
408.646	193.36
408.855	217.94
409.064	277.33
409.272	334.67
409.481	332.62
409.69	303.95
409.898	340.82
410.107	334.67
410.315	404.3
410.524	355.15
410.733	336.72
410.941	363.34
411.15	340.82
411.358	349.01
411.567	478.03
411.775	422.73
411.984	392.02
412.192	435.02
412.401	496.46
412.609	533.33
412.818	504.65
413.026	598.86
413.234	549.71
413.443	492.37
413.651	598.86
413.86	521.04
414.068	654.16
414.276	582.48
414.485	684.87
414.693	654.16
414.901	758.6
415.11	758.6
415.318	777.03
415.526	715.59
415.734	830.28
415.943	824.14
416.151	852.81
416.359	889.67
416.567	850.76
416.776	897.86
416.984	940.87
417.192	1084.23
417.4	1080.13
417.608	1053.51
417.817	1094.47
418.025	1141.57
418.233	1233.73
418.441	1143.62
418.649	1219.39
418.857	1348.42
419.065	1383.23
419.273	1366.85
419.481	1289.03
419.689	1424.19
419.897	1532.73
420.105	1561.41
420.313	1579.84
420.521	1647.42
420.729	1725.24
420.937	1712.96
421.145	1786.68
421.353	1938.23
421.561	1987.38
421.769	1971
421.977	2114.36
422.185	2143.03
422.393	2308.91
422.601	2392.88
422.809	2282.29
423.017	2298.67
423.224	2454.32
423.432	2609.97
423.64	2595.63
423.848	2816.81
424.056	2650.92
424.263	2880.3
424.471	2962.22
424.679	3068.71
424.887	3099.43
425.094	3255.08
425.302	3283.75
425.51	3390.24
425.718	3490.59
425.925	3511.07
426.133	3433.25
426.341	3941.15
426.548	3961.62
426.756	3953.43
426.964	4045.59
427.171	4412.18
427.379	4393.75
427.586	4530.96
427.794	4567.82
428.001	4807.44
428.209	5174.02
428.417	4813.58
428.624	5229.32
428.832	5366.53
429.039	5178.12
429.247	5313.28
429.454	5829.37
429.662	6152.95
429.869	5706.49
430.076	5851.9
430.284	5841.66
430.491	6241.01
430.699	6484.72
430.906	6669.04
431.114	6587.12
431.321	7199.46
431.528	6886.12
431.736	7572.19
431.943	7842.53
432.15	7553.76
432.358	7654.11
432.565	8278.74
432.772	8176.34
432.979	8852.17
433.187	8569.55
433.394	8641.23
433.601	9229
433.808	9386.69
434.016	9222.86
434.223	9599.68
434.43	10242.75
434.637	9949.89
434.844	10590.9
435.052	10920.62
435.259	10703.54
435.466	10934.96
435.673	10703.54
435.88	11590.31
436.087	12055.2
436.294	11969.18
436.501	11731.62
436.708	11870.88
436.915	12337.82
437.122	13005.45
437.329	13087.37
437.537	13369.99
437.743	13398.66
437.95	13083.28
438.157	13929.09
438.364	14432.89
438.571	14353.02
438.778	14547.58
438.985	16054.88
439.192	15372.91
439.399	15678.05
439.606	15311.47
439.813	16261.73
440.02	17248.85
440.227	16874.07
440.433	16869.97
440.64	17332.81
440.847	17207.89
441.054	17652.3
441.261	18596.41
441.467	18436.67
441.674	19010.1
441.881	19735.08
442.088	19436.08
442.294	19280.43
442.501	19999.27
442.708	20054.56
442.914	21101.08
443.121	21965.32
443.328	21617.16
443.534	22729.21
443.741	22221.31
443.948	21580.3
444.154	23519.73
444.361	23331.31
444.568	23501.29
444.774	23474.67
444.981	23785.96
445.187	24312.29
445.394	25616.85
445.6	24981.98
445.807	27703.73
446.013	26022.34
446.22	26862.01
446.426	27371.96
446.633	28203.43
446.839	29223.32
447.046	27785.65
447.252	29358.49
447.459	29139.35
447.665	29127.06
447.871	30364.04
448.078	31431.03
448.284	30323.08
448.491	31285.62
448.697	32485.73
448.903	33096.03
449.11	33304.92
449.316	32711.01
449.522	33284.44
449.728	33919.31
449.935	34691.4
450.141	34396.49
450.347	34851.14
450.553	33876.3
450.76	34640.2
450.966	35594.55
451.172	35137.85
451.378	35574.07
451.584	35232.06
451.791	36239.66
451.997	36417.83
452.203	36712.74
452.409	36561.19
452.615	36575.53
452.821	35164.48
453.027	34834.75
453.233	37046.56
453.44	35326.27
453.646	35793.2
453.852	35756.34
454.058	36661.54
454.264	35823.92
454.47	36241.71
454.676	35162.43
454.882	36684.07
455.088	33522.01
455.294	34251.08
455.5	34435.4
455.705	34799.94
455.911	33421.66
456.117	32860.51
456.323	32665.95
456.529	31003
456.735	32067.95
456.941	31555.96
457.147	30812.54
457.352	29931.92
457.558	29675.92
457.764	29737.36
457.97	29301.14
458.176	28486.05
458.381	28946.84
458.587	27169.21
458.793	27234.74
458.999	25862.6
459.204	27875.76
459.41	27130.3
459.616	25559.5
459.821	25291.22
460.027	24953.3
460.233	24680.92
460.438	23505.39
460.644	23661.04
460.85	22876.66
461.055	22276.61
461.261	22348.29
461.466	20855.32
461.672	20189.73
461.878	21565.96
462.083	20075.04
462.289	19556.91
462.494	19462.7
462.7	18659.9
462.905	17920.58
463.111	18633.27
463.316	19182.13
463.522	18440.76
463.727	18475.58
463.932	18336.32
464.138	18057.79
464.343	18211.39
464.549	17617.48
464.754	18457.15
464.959	18217.54
465.165	17947.2
465.37	17543.75
465.575	16808.53
465.781	17533.51
465.986	17351.24
466.191	16726.61
466.397	16577.11
466.602	15448.68
466.807	16216.67
467.012	16155.23
467.218	16409.18
467.423	15948.39
467.628	16190.05
467.833	17132.11
468.038	16163.42
468.244	16024.16
468.449	16552.54
468.654	15895.14
468.859	15772.26
469.064	15762.02
469.269	15225.45
469.474	15323.76
469.679	15546.98
469.885	15032.94
470.09	14834.29
470.295	14838.39
470.5	14783.09
470.705	14932.59
470.91	14461.56
471.115	14553.72
471.32	14531.19
471.525	14402.17
471.73	14221.95
471.935	14160.51
472.139	13664.9
472.344	13828.74
472.549	13511.3
472.754	13699.72
472.959	13351.56
473.164	12970.64
473.369	12974.74
473.574	13333.13
473.778	13290.12
473.983	13095.57
474.188	13165.2
474.393	12679.83
474.598	12491.41
474.802	12296.86
475.007	12026.53
475.212	12483.22
475.417	11704.99
475.621	11877.02
475.826	11899.55
476.031	11655.84
476.235	11625.12
476.44	11649.7
476.645	11520.68
476.849	11420.33
477.054	11313.83
477.259	11121.32
477.463	10982.06
477.668	10697.39
477.872	11213.48
478.077	10807.98
478.282	10420.92
478.486	10396.34
478.691	10410.68
478.895	10533.56
479.1	10384.05
479.304	10293.94
479.509	10160.83
479.713	10230.46
479.918	9755.33
480.122	9663.17
480.326	9790.14
480.531	10064.57
480.735	9644.74
480.94	9632.45
481.144	10140.35
481.348	9601.73
481.553	9876.16
481.757	9548.48
481.961	9654.98
482.166	9777.86
482.37	9566.92
482.574	9589.44
482.778	9513.67
482.983	9804.48
483.187	9554.63
483.391	9501.38
483.595	9343.69
483.8	9353.93
484.004	9581.25
484.208	9536.2
484.412	9446.09
484.616	9429.7
484.821	9515.72
485.025	9327.3
485.229	9532.1
485.433	9315.02
485.637	9421.51
485.841	9376.45
486.045	9312.97
486.249	9351.88
486.453	9390.79
486.657	9634.5
486.861	9573.06
487.065	9261.77
487.269	9405.13
487.473	9183.95
487.677	9532.1
487.881	9525.96
488.085	9321.16
488.289	9579.2
488.493	9571.01
488.697	9458.37
488.901	9640.64
489.105	9491.14
489.309	9245.38
489.512	9732.8
489.716	9648.83
489.92	9525.96
490.124	9485
490.328	9763.52
490.531	9532.1
490.735	9771.71
490.939	9751.23
491.143	9716.42
491.346	9671.36
491.55	9933.5
491.754	9810.62
491.958	9935.55
492.161	9892.54
492.365	9986.75
492.569	9734.85
492.772	9933.5
492.976	10252.98
493.18	10179.26
493.383	10109.63
493.587	10410.68
493.79	10339
493.994	10042.04
494.197	10298.04
494.401	10463.93
494.605	10283.7
494.808	10609.33
495.012	10474.17
495.215	10474.17
495.419	10869.42
495.622	10662.58
495.825	10662.58
496.029	10949.29
496.232	11074.22
496.436	11139.76
496.639	11221.67
496.843	11084.46
497.046	11596.45
497.249	11645.6
497.453	11670.18
497.656	11821.73
497.859	11827.87
498.063	11811.49
498.266	12173.98
498.469	12190.36
498.673	12227.23
498.876	12405.4
499.079	12546.71
499.282	12403.35
499.485	12853.91
499.689	12755.6
499.892	13111.95
500.095	12892.82
500.298	13501.06
500.501	13349.51
500.705	13750.92
500.908	13707.91
501.111	13927.04
501.314	13898.37
501.517	14131.84
501.72	14553.72
501.923	14260.86
502.126	14649.97
502.329	14758.52
502.532	14819.96
502.735	14883.44
502.938	15114.86
503.141	15444.59
503.344	15630.95
503.547	15487.59
503.75	15829.6
503.953	15977.06
504.156	16251.49
504.359	16341.6
504.562	16415.32
504.765	16917.08
504.968	16968.27
505.17	16880.21
505.373	17439.31
505.576	17508.94
505.779	17543.75
505.982	17635.91
506.185	18025.03
506.387	18029.12
506.59	18125.38
506.793	18489.92
506.996	18461.24
507.198	19077.68
507.401	18690.62
507.604	19182.13
507.807	19419.69
508.009	19593.77
508.212	19558.95
508.415	19958.31
508.617	19980.84
508.82	20044.32
509.022	20388.38
509.225	20650.52
509.428	21123.6
509.63	21137.94
509.833	21330.45
510.035	21907.98
510.238	21232.15
510.44	21729.8
510.643	22266.37
510.845	22553.09
511.048	22282.75
511.25	22618.62
511.453	22860.28
511.655	23669.23
511.858	23245.3
512.06	23368.18
512.262	23675.37
512.465	23843.31
512.667	24162.79
512.87	24300
513.072	24170.98
513.274	24865.24
513.477	25262.55
513.679	25291.22
513.881	25575.89
514.084	25745.87
514.286	25719.24
514.488	26317.25
514.69	26800.57
514.893	26685.89
515.095	26700.22
515.297	27175.35
515.499	27232.69
515.701	27675.06
515.904	27875.76
516.106	27701.68
516.308	28285.35
516.51	28864.92
516.712	28670.37
516.914	28869.02
517.116	29348.25
517.318	29589.91
517.52	29469.08
517.722	29798.8
517.925	30097.8
518.127	30450.05
518.329	30794.11
518.531	30294.41
518.733	30835.07
518.935	31564.15
519.136	31365.49
519.338	31881.58
519.54	32121.2
519.742	32221.55
519.944	32203.11
520.146	33294.68
520.348	33044.83
520.55	33075.55
520.752	33079.64
520.954	34005.33
521.155	33575.25
521.357	33886.54
521.559	34386.25
521.761	35129.66
521.963	34898.24
522.164	34974.02
522.366	35422.52
522.568	35324.22
522.77	35662.13
522.971	36385.07
523.173	35918.13
523.375	36366.63
523.576	36227.37
523.778	36399.4
523.98	36780.32
524.181	37085.47
524.383	37108
524.584	37286.17
524.786	37413.15
524.988	37312.8
525.189	37871.89
525.391	38213.9
525.592	38258.96
525.794	38344.97
525.995	38277.39
526.197	38375.69
526.398	38344.97
526.6	38754.57
526.801	39145.73
527.003	39100.67
527.204	39147.78
527.406	39229.69
527.607	39387.39
527.808	39667.96
528.01	39125.25
528.211	39426.3
528.412	40329.45
528.614	40202.48
528.815	40317.17
529.016	40329.45
529.218	40251.63
529.419	40202.48
529.62	40650.99
529.822	40446.19
530.023	40909.03
530.224	40677.61
530.425	40718.57
530.626	40319.21
530.828	40380.65
531.029	41167.07
531.23	41228.51
531.431	41095.39
531.632	40804.58
531.833	41269.47
532.035	41154.79
532.236	41431.26
532.437	41730.26
532.638	41058.53
532.839	41601.24
533.04	41361.63
533.241	40835.3
533.442	41652.44
533.643	41830.62
533.844	41074.91
534.045	41392.35
534.246	41162.98
534.447	41744.6
534.648	41367.77
534.849	41461.98
535.05	41406.69
535.251	41453.79
535.451	41474.27
535.652	41576.67
535.853	41801.94
536.054	41224.42
536.255	41783.51
536.456	41246.94
536.657	41744.6
536.857	41410.78
537.058	41044.2
537.259	41384.16
537.46	41679.07
537.66	41236.7
537.861	41404.64
538.062	41337.05
538.263	41797.85
538.463	41162.98
538.664	40909.03
538.865	41328.86
539.065	41773.27
539.266	40800.49
539.466	41902.29
539.667	41042.15
539.868	41640.15
540.068	41576.67
540.269	41758.94
540.469	41308.38
540.67	40962.28
540.87	41060.58
541.071	41212.13
541.271	41511.13
541.472	41271.52
541.672	41197.79
541.873	40927.46
542.073	40997.09
542.274	41255.14
542.474	40880.36
542.675	41195.74
542.875	41580.76
543.075	41017.57
543.276	40782.06
543.476	41455.84
543.676	40984.8
543.877	41449.69
544.077	40855.78
544.277	41036
544.478	40966.37
544.678	41050.34
544.878	40831.21
545.078	41103.59
545.279	41220.32
545.479	40782.06
545.679	41378.01
545.879	41175.27
546.079	40831.21
546.28	40847.59
546.48	40306.93
546.68	40894.69
546.88	41183.46
547.08	41122.02
547.28	40644.84
547.48	40124.66
547.68	40949.99
547.88	40423.66
548.081	40872.17
548.281	40921.32
548.481	40315.12
548.681	41023.72
548.881	40581.35
549.081	40788.2
549.28	40323.31
549.48	40947.94
549.68	40853.73
549.88	41048.29
550.08	40689.9
550.28	40321.26
550.48	40372.46
550.68	40927.46
550.88	40460.52
551.08	40274.16
551.279	40710.38
551.479	40380.65
551.679	40290.54
551.879	40419.56
552.079	40315.12
552.278	40728.81
552.478	40788.2
552.678	40362.22
552.878	40411.37
553.077	40337.65
553.277	39944.44
553.477	40655.08
553.676	40462.57
553.876	40319.21
554.076	40095.99
554.275	40298.73
554.475	39962.87
554.674	40483.05
554.874	40665.32
555.074	39921.91
555.273	40399.08
555.473	40231.15
555.672	40155.38
555.872	39774.45
556.071	40083.7
556.271	40075.51
556.47	39790.84
556.67	39352.57
556.869	39678.2
557.068	39958.77
557.268	39495.93
557.467	39743.73
557.667	39657.72
557.866	39796.98
558.065	39594.23
558.265	39373.05
558.464	39553.27
558.663	39670.01
558.863	38766.85
559.062	39592.19
559.261	39166.21
559.461	39604.47
559.66	39078.15
559.859	39129.34
560.058	39002.37
560.258	39229.69
560.457	38496.52
560.656	38988.03
560.855	38770.95
561.054	39241.98
561.253	38830.34
561.453	38760.71
561.652	38912.26
561.851	38797.57
562.05	38895.88
562.249	38576.39
562.448	38641.93
562.647	38811.91
562.846	38334.73
563.045	38510.86
563.244	38150.42
563.443	38410.51
563.642	37871.89
563.841	37841.17
564.04	37746.97
564.239	38172.94
564.438	37359.9
564.637	38369.55
564.836	38140.18
565.035	37847.32
565.234	37875.99
565.432	37413.15
565.631	37413.15
565.83	37890.32
566.029	37306.65
566.228	37298.46
566.427	37431.58
566.625	37136.67
566.824	36747.56
567.023	36907.3
567.222	36374.83
567.42	37099.81
567.619	37034.27
567.818	36790.56
568.016	36978.98
568.215	36800.8
568.414	36380.97
568.612	36729.12
568.811	36188.46
569.01	36448.55
569.208	35907.89
569.407	36411.69
569.605	36186.41
569.804	36460.84
570.002	35703.09
570.201	35954.99
570.4	35600.69
570.598	35473.72
570.797	35739.96
570.995	35776.82
571.193	35039.55
571.392	35793.2
571.59	35184.96
571.789	35074.37
571.987	35332.41
572.186	35232.06
572.384	35066.17
572.582	35250.49
572.781	35023.17
572.979	34560.33
573.177	34799.94
573.376	34937.15
573.574	34548.04
573.772	34734.4
573.971	34320.71
574.169	33964.37
574.367	34134.35
574.565	34412.87
574.763	34156.88
574.962	33837.39
575.16	33890.64
575.358	33732.95
575.556	33505.62
575.754	34183.5
575.952	33700.18
576.151	33620.31
576.349	33282.39
576.547	33063.26
576.745	33347.93
576.943	33093.98
577.141	33364.31
577.339	33093.98
577.537	32971.1
577.735	32905.57
577.933	32711.01
578.131	33274.2
578.329	32774.5
578.527	32115.05
578.725	32561.51
578.923	32254.31
579.121	32489.83
579.319	32166.25
579.516	32606.56
579.714	32223.59
579.912	32250.22
580.11	31973.74
580.308	32133.48
580.506	31981.93
580.704	31320.44
580.901	31789.42
581.099	31820.14
581.297	31426.93
581.495	31703.41
581.692	31523.19
581.89	30943.61
582.088	31502.71
582.285	31035.77
582.483	31463.8
582.681	31056.25
582.878	30712.19
583.076	30620.03
583.274	31326.58
583.471	30820.74
583.669	30892.41
583.866	30189.96
584.064	30775.68
584.262	30359.94
584.459	30153.1
584.657	30493.06
584.854	30642.56
585.052	29866.38
585.249	30089.61
585.447	30370.18
585.644	29594
585.841	29839.76
586.039	29866.38
586.236	29696.4
586.434	29344.15
586.631	29516.18
586.828	29604.24
587.026	29215.13
587.223	29352.34
587.42	29381.01
587.618	29057.43
587.815	29014.43
588.012	28791.2
588.21	28672.42
588.407	28934.56
588.604	28621.22
588.801	28613.02
588.999	28699.04
589.196	28610.98
589.393	28279.21
589.59	27922.86
589.787	28080.55
589.984	28111.27
590.182	27847.08
590.379	28375.46
590.576	27752.88
590.773	27902.38
590.97	27472.31
591.167	27924.91
591.364	27466.16
591.561	27677.1
591.758	27189.69
591.955	27447.73
592.152	27333.04
592.349	27017.66
592.546	27412.92
592.743	27664.82
592.94	27025.85
593.137	26950.07
593.334	26661.31
593.531	26368.45
593.727	27009.47
593.924	26786.24
594.121	26601.92
594.318	26755.52
594.515	26366.4
594.712	26646.97
594.908	26128.84
595.105	26538.43
595.302	26239.43
595.499	26057.16
595.696	26239.43
595.892	26034.63
596.089	25833.93
596.286	26085.83
596.482	25702.86
596.679	25979.34
596.876	25594.32
597.072	25231.83
597.269	25418.19
597.466	25035.22
597.662	25215.44
597.859	25278.93
598.055	25084.37
598.252	25082.33
598.448	25141.72
598.645	24805.85
598.841	24512.99
599.038	24830.43
599.234	24734.17
599.431	24588.77
599.627	24502.75
599.824	24556
600.02	24394.21
600.217	24433.12
600.413	24244.71
600.609	24375.78
600.806	24250.85
601.002	23882.22
601.198	24013.29
601.395	23855.59
601.591	23968.23
601.787	23800.3
601.984	23491.05
602.18	23732.72
602.376	23736.81
602.572	23362.03
602.769	23290.35
602.965	23290.35
603.161	23441.9
603.357	23335.41
603.553	23292.4
603.75	23282.16
603.946	23050.74
604.142	23292.4
604.338	22837.75
604.534	22987.25
604.73	22422.02
604.926	22811.13
605.122	22661.63
605.318	22606.33
605.514	22667.77
605.71	22288.9
605.906	22284.8
606.102	22358.53
606.298	22444.54
606.494	22415.87
606.69	21979.65
606.886	22313.47
607.082	21799.43
607.278	22149.64
607.474	21584.4
607.67	21971.46
607.866	21488.14
608.062	22047.24
608.257	21803.53
608.453	21631.5
608.649	21697.03
608.845	21504.53
609.041	21578.25
609.236	21477.9
609.432	21342.74
609.628	21346.83
609.824	21393.93
610.019	21232.15
610.215	21252.63
610.411	21395.98
610.606	21174.8
610.802	21383.7
610.998	20929.05
611.193	21168.66
611.389	20757.02
611.584	20832.79
611.78	20945.43
611.976	21045.78
612.171	20898.33
612.367	20910.61
612.562	20664.86
612.758	20576.8
612.953	20636.19
613.149	20804.12
613.344	20515.36
613.539	21056.02
613.735	20668.95
613.93	20374.05
614.126	20441.63
614.321	20361.76
614.517	20302.37
614.712	20259.36
614.907	20275.74
615.103	20163.11
615.298	20044.32
615.493	20382.24
615.688	19737.13
615.884	20267.55
616.079	19724.84
616.274	20320.8
616.47	19905.06
616.665	19933.73
616.86	19771.94
617.055	19925.54
617.25	19724.84
617.445	19892.77
617.641	19372.59
617.836	19657.26
618.031	19313.2
618.226	19364.4
618.421	19315.25
618.616	19210.8
618.811	19098.16
619.006	19610.15
619.201	18874.93
619.396	18952.76
619.591	18895.41
619.786	19225.14
619.981	18793.01
620.176	19180.08
620.371	18764.34
620.566	18838.07
620.761	18508.35
620.956	18657.85
621.151	18283.07
621.346	18620.99
621.541	18174.53
621.735	18414.14
621.93	17707.59
622.125	18289.21
622.32	17652.3
622.515	17871.43
622.709	17824.33
622.904	17844.81
623.099	17480.27
623.294	17496.65
623.488	17379.92
623.683	17535.56
623.878	17187.41
624.072	17269.33
624.267	17093.2
624.462	16912.98
624.656	16661.08
624.851	16573.02
625.046	16777.81
625.24	16716.37
625.435	16501.34
625.629	16587.35
625.824	16083.55
626.018	16218.72
626.213	15950.43
626.407	16007.78
626.602	15946.34
626.796	15938.15
626.991	15807.08
627.185	15612.52
627.38	15807.08
627.574	15360.62
627.768	15589.99
627.963	15274.6
628.157	15225.45
628.352	15465.07
628.546	15063.66
628.74	15176.3
628.935	15010.42
629.129	15161.97
629.323	14471.8
629.517	14953.07
629.712	14856.82
629.906	14836.34
630.1	14551.67
630.294	14787.19
630.489	14371.45
630.683	14692.98
630.877	13998.72
631.071	14180.99
631.265	14129.79
631.459	14023.3
631.653	14006.91
631.848	13959.81
632.042	13718.15
632.236	13785.73
632.43	13664.9
632.624	13724.29
632.818	13302.41
633.012	13484.68
633.206	13247.12
633.4	13245.07
633.594	12982.93
633.788	13238.92
633.982	13390.47
634.176	13326.99
634.369	13075.09
634.563	12939.92
634.757	12970.64
634.951	12741.27
635.145	12763.79
635.339	12640.92
635.533	12759.7
635.726	12591.77
635.92	12317.34
636.114	12462.74
636.308	12184.22
636.501	12393.11
636.695	12366.49
636.889	11877.02
637.083	12087.96
637.276	12251.8
637.47	11813.54
637.664	11844.26
637.857	11975.33
638.051	11950.75
638.244	11793.06
638.438	11627.17
638.632	11745.95
638.825	11334.31
639.019	11590.31
639.212	11541.16
639.406	11459.24
639.599	11408.04
639.793	11461.29
639.986	11336.36
640.18	11129.52
640.373	11158.19
640.567	10863.28
640.76	10898.1
640.954	10996.4
641.147	10760.88
641.34	10492.6
641.534	10744.5
641.727	10787.5
641.92	10683.06
642.114	10506.93
642.307	10511.03
642.5	10435.25
642.694	10369.72
642.887	10244.79
643.08	10349.24
643.273	10470.07
643.467	10230.46
643.66	10146.49
643.853	9999.04
644.046	10113.72
644.239	9880.25
644.432	9763.52
644.626	9632.45
644.819	9689.79
645.012	9663.17
645.205	9777.86
645.398	9597.63
645.591	9593.54
645.784	9732.8
645.977	9394.89
646.17	9638.59
646.363	9278.15
646.556	9437.89
646.749	9261.77
646.942	9353.93
647.135	9085.64
647.328	9132.75
647.521	9106.12
647.714	9188.04
647.907	8973
648.099	9016.01
648.292	9063.12
648.485	8719.06
648.678	8766.16
648.871	8741.58
649.064	8641.23
649.256	8792.78
649.449	8479.44
649.642	8483.54
649.835	8579.79
650.027	8426.2
650.22	8524.5
650.413	8436.44
650.605	8338.13
650.798	8254.17
650.991	8272.6
651.183	8225.5
651.376	8233.69
651.568	8133.34
651.761	8000.22
651.954	8094.43
652.146	7985.88
652.339	7924.44
652.531	7944.92
652.724	7733.98
652.916	7721.7
653.109	7772.89
653.301	7756.51
653.494	7725.79
653.686	7568.1
653.879	7779.04
654.071	7731.94
654.263	7494.37
654.456	7559.91
654.648	7516.9
654.84	7357.16
655.033	7480.04
655.225	7451.36
655.417	7224.04
655.61	7273.19
655.802	7385.83
655.994	7107.3
656.186	7308.01
656.379	7174.89
656.571	7213.8
656.763	7119.59
656.955	6869.74
657.148	6945.52
657.34	7105.26
657.532	6988.52
657.724	6804.21
657.916	7004.91
658.108	6959.85
658.3	6906.6
658.492	6855.4
658.684	6439.67
658.876	6683.38
659.068	6656.75
659.26	6656.75
659.452	6505.2
659.644	6507.25
659.836	6478.58
660.028	6554.35
660.22	6304.5
660.412	6458.1
660.604	6372.08
660.796	6390.52
660.988	6355.7
661.18	6181.62
661.372	6120.18
661.563	6279.93
661.755	6034.17
661.947	6157.05
662.139	6005.5
662.331	5995.26
662.522	6083.32
662.714	5970.68
662.906	5864.19
663.097	6005.5
663.289	5774.08
663.481	5767.93
663.673	5804.8
663.864	5761.79
664.056	5829.37
664.247	5759.74
664.439	5544.7
664.631	5542.66
664.822	5782.27
665.014	5681.92
665.205	5632.77
665.397	5452.55
665.588	5509.89
665.78	5493.51
665.971	5505.79
666.163	5626.62
666.354	5444.35
666.546	5528.32
666.737	5272.32
666.929	5323.52
667.12	5364.48
667.311	5319.43
667.503	5296.9
667.694	5370.63
667.885	5110.54
668.077	5358.34
668.268	4987.66
668.459	5262.09
668.651	5298.95
668.842	5020.42
669.033	5124.87
669.224	5055.24
669.416	5063.43
669.607	5075.72
669.798	4940.55
669.989	4948.75
670.18	4913.93
670.371	4965.13
670.563	4879.11
670.754	4803.34
670.945	4746
671.136	4850.44
671.327	4774.67
671.518	4887.31
671.709	4915.98
671.9	4809.48
672.091	4621.07
672.282	4637.45
672.473	4791.05
672.664	4717.33
672.855	4549.39
673.046	4832.01
673.237	4487.95
673.428	4606.74
673.619	4469.52
673.809	4715.28
674	4420.37
674.191	4561.68
674.382	4289.3
674.573	4317.97
674.764	4358.93
674.954	4510.48
675.145	4272.92
675.336	4350.74
675.527	4340.5
675.717	4322.07
675.908	4217.62
676.099	4350.74
676.289	4315.92
676.48	4234
676.671	4240.15
676.861	4152.09
677.052	4174.61
677.243	4061.98
677.433	4066.07
677.624	4188.95
677.814	4125.46
678.005	4076.31
678.195	4217.62
678.386	4080.41
678.576	3937.05
678.767	3916.57
678.957	3889.95
679.148	4143.89
679.338	4018.97
679.529	3982.1
679.719	3828.51
679.909	4021.02
680.1	3889.95
680.29	3891.99
680.481	3937.05
680.671	3775.26
680.861	3896.09
681.052	3842.84
681.242	3728.16
681.432	3924.76
681.622	3799.84
681.813	3742.49
682.003	3728.16
682.193	3756.83
682.383	3805.98
682.573	3742.49
682.764	3726.11
682.954	3687.2
683.144	3709.72
683.334	3648.29
683.524	3545.89
683.714	3697.44
683.904	3734.3
684.094	3654.43
684.284	3580.7
684.474	3640.09
684.664	3605.28
684.854	3603.23
685.044	3468.06
685.234	3506.98
685.424	3525.41
685.614	3502.88
685.804	3547.94
685.994	3496.74
686.184	3554.08
686.374	3474.21
686.564	3431.2
686.753	3388.19
686.943	3398.43
687.133	3429.15
687.323	3382.05
687.513	3351.33
687.702	3330.85
687.892	3281.7
688.082	3386.15
688.272	3388.19
688.461	3210.02
688.651	3232.55
688.841	3259.17
689.03	3232.55
689.22	3152.68
689.41	3199.78
689.599	3142.44
689.789	3175.2
689.979	3183.4
690.168	3146.53
690.358	3150.63
690.547	3052.33
690.737	3191.59
690.926	3081
691.116	2962.22
691.305	3134.25
691.495	3068.71
691.684	2954.02
691.874	3001.13
692.063	3054.37
692.252	2999.08
692.442	2962.22
692.631	3013.42
692.82	2921.26
693.01	2943.78
693.199	2851.63
693.388	2964.26
693.578	2837.29
693.767	2865.96
693.956	2947.88
694.146	2812.71
694.335	2820.91
694.524	2964.26
694.713	2917.16
694.902	2851.63
695.092	2818.86
695.281	2837.29
695.47	2921.26
695.659	2833.19
695.848	2765.61
696.037	2788.14
696.226	2900.78
696.415	2700.08
696.604	2775.85
696.793	2802.47
696.982	2841.39
697.171	2773.8
697.36	2753.32
697.549	2708.27
697.738	2665.26
697.927	2669.36
698.116	2761.52
698.305	2751.28
698.494	2734.89
698.683	2765.61
698.872	2775.85
699.061	2790.19
699.25	2655.02
699.438	2622.25
699.627	2700.08
699.816	2700.08
700.005	2583.34
700.193	2607.92
700.382	2652.97
700.571	2718.51
700.76	2624.3
700.948	2734.89
701.137	2599.73
701.326	2585.39
701.514	2677.55
701.703	2554.67
701.892	2601.77
702.08	2593.58
702.269	2663.21
702.457	2593.58
702.646	2603.82
702.834	2464.56
703.023	2446.13
703.212	2614.06
703.4	2446.13
703.589	2575.15
703.777	2489.14
703.965	2519.85
704.154	2442.03
704.342	2480.94
704.531	2595.63
704.719	2407.22
704.907	2544.43
705.096	2499.38
705.284	2450.22
705.472	2384.69
705.661	2554.67
705.849	2579.25
706.037	2526
706.226	2542.38
706.414	2468.66
706.602	2458.42
706.79	2603.82
706.979	2521.9
707.167	2472.75
707.355	2470.7
707.543	2513.71
707.731	2405.17
707.919	2495.28
708.107	2401.07
708.296	2474.8
708.484	2493.23
708.672	2388.78
708.86	2489.14
709.048	2532.14
709.236	2478.9
709.424	2349.87
709.612	2482.99
709.8	2372.4
709.988	2530.09
710.176	2439.98
710.364	2429.74
710.551	2433.84
710.739	2462.51
710.927	2358.07
711.115	2360.11
711.303	2396.98
711.491	2351.92
711.679	2333.49
711.866	2433.84
712.054	2491.18
712.242	2358.07
712.43	2470.7
712.617	2454.32
712.805	2446.13
712.993	2446.13
713.181	2454.32
713.368	2462.51
713.556	2464.56
713.744	2411.31
713.931	2485.04
714.119	2380.59
714.306	2376.5
714.494	2327.35
714.682	2323.25
714.869	2450.22
715.057	2251.57
715.244	2405.17
715.432	2421.55
715.619	2315.06
715.807	2413.36
715.994	2401.07
716.182	2413.36
716.369	2396.98
716.556	2335.54
716.744	2364.21
716.931	2323.25
717.119	2380.59
717.306	2335.54
717.493	2372.4
717.681	2339.63
717.868	2358.07
718.055	2333.49
718.242	2310.96
718.43	2331.44
718.617	2405.17
718.804	2315.06
718.991	2396.98
719.179	2444.08
719.366	2263.86
719.553	2274.1
719.74	2356.02
719.927	2198.32
720.114	2392.88
720.301	2224.95
720.488	2376.5
720.676	2378.55
720.863	2294.58
721.05	2325.3
721.237	2317.11
721.424	2331.44
721.611	2431.79
721.798	2341.68
721.985	2265.91
722.172	2212.66
722.358	2302.77
722.545	2425.65
722.732	2294.58
722.919	2261.81
723.106	2251.57
723.293	2220.85
723.48	2429.74
723.667	2321.2
723.853	2349.87
724.04	2396.98
724.227	2274.1
724.414	2204.47
724.6	2298.67
724.787	2349.87
724.974	2331.44
725.161	2241.33
725.347	2265.91
725.534	2128.69
725.72	2265.91
725.907	2392.88
726.094	2333.49
726.28	2308.91
726.467	2308.91
726.653	2212.66
726.84	2339.63
727.027	2323.25
727.213	2202.42
727.4	2259.76
727.586	2249.52
727.773	2315.06
727.959	2243.38
728.145	2382.64
728.332	2270
728.518	2261.81
728.705	2265.91
728.891	2194.23
729.077	2313.01
729.264	2282.29
729.45	2270
729.636	2235.19
729.823	2194.23
730.009	2304.82
730.195	2229.04
730.382	2257.71
730.568	2298.67
730.754	2243.38
730.94	2210.61
731.126	2261.81
731.313	2282.29
731.499	2386.74
731.685	2288.43
731.871	2163.51
732.057	2233.14
732.243	2233.14
732.429	2186.04
732.615	2208.56
732.801	2247.48
732.987	2169.65
733.173	2106.17
733.359	2210.61
733.545	2192.18
733.731	2267.95
733.917	2233.14
734.103	2288.43
734.289	2212.66
734.475	2102.07
734.661	2239.28
734.847	2192.18
735.033	2183.99
735.219	2222.9
735.404	2134.84
735.59	2253.62
735.776	2241.33
735.962	2237.24
736.148	2241.33
736.333	2089.78
736.519	2153.27
736.705	2237.24
736.89	2200.37
737.076	2196.28
737.262	2120.5
737.447	2202.42
737.633	2179.89
737.819	2222.9
738.004	2200.37
738.19	2165.56
738.375	2145.08
738.561	2155.32
738.747	2143.03
738.932	2159.41
739.118	2143.03
739.303	2233.14
739.489	2183.99
739.674	2122.55
739.859	2020.15
740.045	2065.21
740.23	2024.25
740.416	1991.48
740.601	2085.69
740.786	2063.16
740.972	2052.92
741.157	1993.53
741.342	2011.96
741.528	2036.53
741.713	2102.07
741.898	2089.78
742.084	1979.19
742.269	2014.01
742.454	2136.88
742.639	2102.07
742.824	1989.43
743.01	2036.53
743.195	1995.57
743.38	1923.9
743.565	2046.77
743.75	1975.1
743.935	1968.95
744.12	1987.38
744.305	1960.76
744.49	1905.46
744.675	1887.03
744.86	1825.59
745.045	1889.08
745.23	1856.31
745.415	1909.56
745.6	1913.66
745.785	1856.31
745.97	1940.28
746.155	1950.52
746.34	1839.93
746.525	1876.79
746.71	1921.85
746.895	1823.55
747.079	1778.49
747.264	1790.78
747.449	1862.46
747.634	1751.87
747.819	1825.59
748.003	1833.79
748.188	1813.31
748.373	1727.29
748.557	1684.28
748.742	1620.8
748.927	1680.19
749.111	1798.97
749.296	1639.23
749.481	1747.77
749.665	1682.24
749.85	1616.7
750.034	1594.17
750.219	1553.21
750.404	1645.37
750.588	1661.76
750.773	1631.04
750.957	1626.94
751.141	1655.61
751.326	1538.88
751.51	1610.56
751.695	1585.98
751.879	1536.83
752.064	1547.07
752.248	1499.97
752.432	1491.77
752.617	1442.62
752.801	1454.91
752.985	1407.81
753.17	1532.73
753.354	1557.31
753.538	1516.35
753.722	1446.72
753.907	1483.58
754.091	1356.61
754.275	1432.38
754.459	1438.53
754.643	1403.71
754.828	1508.16
755.012	1364.8
755.196	1348.42
755.38	1317.7
755.564	1278.79
755.748	1348.42
755.932	1385.28
756.116	1282.88
756.3	1362.75
756.484	1342.27
756.668	1307.46
756.852	1231.68
757.036	1293.12
757.22	1270.59
757.404	1186.63
757.588	1250.11
757.772	1200.96
757.956	1233.73
758.14	1270.59
758.323	1205.06
758.507	1282.88
758.691	1172.29
758.875	1227.59
759.059	1250.11
759.242	1190.72
759.426	1225.54
759.61	1211.2
759.794	1112.9
759.977	1127.24
760.161	1174.34
760.345	1258.31
760.528	1231.68
760.712	1168.2
760.895	1162.05
761.079	1123.14
761.263	1073.99
761.446	1082.18
761.63	1110.85
761.813	1106.76
761.997	1094.47
762.18	1049.41
762.364	987.97
762.547	1180.48
762.731	1047.37
762.914	1119.04
763.098	1047.37
763.281	1028.93
763.464	1106.76
763.648	1069.89
763.831	1049.41
764.015	996.17
764.198	1006.41
764.381	992.07
764.564	1020.74
764.748	1057.61
764.931	1008.45
765.114	996.17
765.297	1020.74
765.481	996.17
765.664	1045.32
765.847	998.21
766.03	992.07
766.213	1004.36
766.397	951.11
766.58	926.54
766.763	957.25
766.946	889.67
767.129	1041.22
767.312	985.93
767.495	908.1
767.678	852.81
767.861	955.21
768.044	922.44
768.227	1014.6
768.41	865.1
768.593	914.25
768.776	826.18
768.959	914.25
769.142	914.25
769.324	893.77
769.507	957.25
769.69	877.38
769.873	949.06
770.056	834.38
770.239	901.96
770.421	959.3
770.604	848.71
770.787	861
770.97	824.14
771.152	865.1
771.335	987.97
771.518	832.33
771.7	938.82
771.883	949.06
772.066	721.74
772.248	785.23
772.431	889.67
772.613	854.86
772.796	840.52
772.978	830.28
773.161	811.85
773.343	809.8
773.526	793.42
773.708	742.22
773.891	709.45
774.073	760.65
774.256	756.55
774.438	803.66
774.621	713.55
774.803	799.56
774.985	746.31
775.168	699.21
775.35	717.64
775.532	791.37
775.715	660.3
775.897	654.16
776.079	729.93
776.261	817.99
776.444	676.68
776.626	725.83
776.808	684.87
776.99	766.79
777.173	770.89
777.355	750.41
777.537	668.49
777.719	793.42
777.901	662.35
778.083	725.83
778.265	607.05
778.447	715.59
778.629	613.2
778.811	611.15
778.993	668.49
779.175	695.11
779.357	623.44
779.539	594.76
779.721	564.04
779.903	654.16
780.085	656.2
780.267	686.92
780.449	678.73
780.631	619.34
780.812	582.48
780.994	588.62
781.176	662.35
781.358	635.72
781.54	619.34
781.721	611.15
781.903	508.75
782.085	592.72
782.267	564.04
782.448	562
782.63	521.04
782.812	592.72
782.993	512.85
783.175	549.71
783.357	547.66
783.538	484.17
783.72	400.21
783.901	562
784.083	529.23
784.264	463.69
784.446	488.27
784.627	490.32
784.809	512.85
784.99	426.83
785.172	533.33
785.353	523.09
785.535	568.14
785.716	490.32
785.897	447.31
786.079	437.07
786.26	484.17
786.441	480.08
786.623	398.16
786.804	406.35
786.985	422.73
787.167	443.21
787.348	299.86
787.529	467.79
787.71	408.4
787.891	469.84
788.073	406.35
788.254	435.02
788.435	439.12
788.616	398.16
788.797	369.49
788.978	375.63
789.159	414.54
789.34	420.69
789.522	385.87
789.703	359.25
789.884	375.63
790.065	455.5
790.246	508.75
790.427	392.02
790.607	465.74
790.788	381.78
790.969	389.97
791.15	369.49
791.331	375.63
791.512	357.2
791.693	377.68
791.874	439.12
792.054	392.02
792.235	332.62
792.416	373.58
792.597	293.71
792.778	396.11
792.958	359.25
793.139	381.78
793.32	312.14
793.5	414.54
793.681	377.68
793.862	254.8
794.042	408.4
794.223	275.28
794.404	295.76
794.584	328.53
794.765	308.05
794.945	406.35
795.126	324.43
795.306	367.44
795.487	340.82
795.667	332.62
795.848	336.72
796.028	271.19
796.209	269.14
796.389	306
796.57	301.9
796.75	234.32
796.93	324.43
797.111	222.03
797.291	344.91
797.471	326.48
797.652	254.8
797.832	217.94
798.012	219.99
798.192	265.04
798.373	299.86
798.553	230.23
798.733	244.56
798.913	267.09
799.093	279.38
799.274	230.23
799.454	213.84
799.634	277.33
799.814	273.23
799.994	244.56
800.174	195.41
800.354	213.84
800.534	217.94
800.714	293.71
800.894	205.65
801.074	183.12
801.254	279.38
801.434	242.51
801.614	172.88
801.794	246.61
801.974	793.42
802.154	285.52
802.334	226.13
802.514	203.6
802.693	299.86
802.873	230.23
803.053	291.66
803.233	283.47
803.413	226.13
803.592	260.95
803.772	176.98
803.952	211.79
804.131	131.92
804.311	275.28
804.491	289.62
804.67	176.98
804.85	179.03
805.03	170.83
805.209	219.99
805.389	262.99
805.568	189.27
805.748	187.22
805.928	168.79
806.107	252.75
806.287	222.03
806.466	258.9
806.646	181.07
806.825	219.99
807.004	140.12
807.184	252.75
807.363	152.4
807.543	224.08
807.722	185.17
807.901	205.65
808.081	197.46
808.26	170.83
808.439	283.47
808.619	217.94
808.798	168.79
808.977	168.79
809.156	164.69
809.336	176.98
809.515	193.36
809.694	244.56
809.873	193.36
810.052	209.75
810.231	181.07
810.411	150.36
810.59	179.03
810.769	136.02
810.948	209.75
811.127	162.64
811.306	123.73
811.485	189.27
811.664	199.51
811.843	197.46
812.022	236.37
812.201	154.45
812.38	146.26
812.559	140.12
812.737	136.02
812.916	119.64
813.095	205.65
813.274	129.88
813.453	129.88
813.632	205.65
813.811	189.27
813.989	140.12
814.168	209.75
814.347	123.73
814.526	189.27
814.704	166.74
814.883	154.45
815.062	164.69
815.24	127.83
815.419	179.03
815.598	152.4
815.776	90.96
815.955	113.49
816.133	82.77
816.312	179.03
816.49	209.75
816.669	160.59
816.847	70.48
817.026	121.68
817.204	121.68
817.383	80.72
817.561	119.64
817.74	131.92
817.918	168.79
818.097	127.83
818.275	160.59
818.453	125.78
818.632	97.11
818.81	113.49
818.988	148.31
819.167	162.64
819.345	148.31
819.523	103.25
819.701	54.1
819.879	123.73
820.058	117.59
820.236	154.45
820.414	99.16
820.592	156.5
820.77	64.34
820.948	113.49
821.127	119.64
821.305	86.87
821.483	121.68
821.661	136.02
821.839	105.3
822.017	107.35
822.195	140.12
822.373	136.02
822.551	52.05
822.729	160.59
822.907	107.35
823.085	86.87
823.262	146.26
823.44	138.07
823.618	45.91
823.796	29.52
823.974	136.02
824.152	72.53
824.329	88.92
824.507	119.64
824.685	160.59
824.863	162.64
825.04	88.92
825.218	140.12
825.396	68.44
825.574	127.83
825.751	127.83
825.929	111.44
826.107	74.58
826.284	111.44
826.462	119.64
826.639	19.29
826.817	86.87
826.994	123.73
827.172	62.29
827.349	70.48
827.527	86.87
827.704	70.48
827.882	109.4
828.059	62.29
828.237	80.72
828.414	103.25
828.591	62.29
828.769	123.73
828.946	58.2
829.124	54.1
829.301	201.55
829.478	144.21
829.655	93.01
829.833	62.29
830.01	-31.91
830.187	103.25
830.364	45.91
830.542	103.25
830.719	154.45
830.896	64.34
831.073	105.3
831.25	72.53
831.427	99.16
831.604	78.68
831.782	31.57
831.959	107.35
832.136	95.06
832.313	158.55
832.49	99.16
832.667	127.83
832.844	95.06
833.021	146.26
833.198	72.53
833.374	43.86
833.551	33.62
833.728	115.54
833.905	72.53
834.082	64.34
834.259	58.2
834.436	107.35
834.612	99.16
834.789	90.96
834.966	127.83
835.143	62.29
835.319	15.19
835.496	152.4
835.673	72.53
835.85	111.44
836.026	78.68
836.203	72.53
836.38	21.33
836.556	50
836.733	54.1
836.909	78.68
837.086	47.96
837.262	97.11
837.439	64.34
837.616	70.48
837.792	29.52
837.968	113.49
838.145	52.05
838.321	62.29
838.498	115.54
838.674	39.76
838.851	56.15
839.027	29.52
839.203	62.29
839.38	58.2
839.556	66.39
839.732	117.59
839.909	-15.53
840.085	97.11
840.261	90.96
840.437	25.43
840.614	45.91
840.79	60.24
840.966	70.48
841.142	23.38
841.318	60.24
841.494	25.43
841.671	88.92
841.847	19.29
842.023	-1.19
842.199	76.63
842.375	97.11
842.551	37.72
842.727	4.95
842.903	11.09
843.079	70.48
843.255	113.49
843.431	0.85
843.607	84.82
843.783	-1.19
843.959	56.15
844.134	45.91
844.31	62.29
844.486	70.48
844.662	60.24
844.838	39.76
845.013	113.49
845.189	47.96
845.365	99.16
845.541	99.16
845.716	78.68
845.892	78.68
846.068	25.43
846.244	21.33
846.419	11.09
846.595	-17.58
846.77	13.14
846.946	107.35
847.122	15.19
847.297	31.57
847.473	88.92
847.648	13.14
847.824	95.06
847.999	39.76
848.175	31.57
848.35	97.11
848.526	70.48
848.701	39.76
848.876	23.38
849.052	129.88
849.227	29.52
849.403	70.48
849.578	39.76
849.753	50
849.929	70.48
850.104	-17.58
850.279	90.96
850.454	54.1
850.63	86.87
850.805	19.29
850.98	4.95
851.155	64.34
851.33	90.96
851.505	21.33
851.681	19.29
851.856	15.19
852.031	95.06
852.206	7
852.381	-11.43
852.556	-11.43
852.731	23.38
852.906	95.06
853.081	-17.58
853.256	-25.77
853.431	150.36
853.606	25.43
853.781	127.83
853.956	-7.34
854.131	62.29
854.305	41.81
854.48	58.2
854.655	-40.11
854.83	-68.78
855.005	19.29
855.18	131.92
855.354	86.87
855.529	-29.87
855.704	84.82
855.879	7
856.053	21.33
856.228	7
856.403	4.95
856.577	35.67
856.752	-11.43
856.926	62.29
857.101	54.1
857.276	21.33
857.45	54.1
857.625	45.91
857.799	33.62
857.974	37.72
858.148	-5.29
858.323	70.48
858.497	62.29
858.672	27.48
858.846	-25.77
859.02	-5.29
859.195	-3.24
859.369	13.14
859.543	56.15
859.718	21.33
859.892	-17.58
860.066	-11.43
860.241	56.15
860.415	72.53
860.589	-54.44
860.763	-25.77
860.938	74.58
861.112	-11.43
861.286	-5.29
861.46	7
861.634	41.81
861.808	88.92
861.982	29.52
862.157	7
862.331	25.43
862.505	15.19
862.679	41.81
862.853	90.96
863.027	-17.58
863.201	37.72
863.375	70.48
863.549	-1.19
863.722	-62.63
863.896	62.29
864.07	9.05
864.244	13.14
864.418	-3.24
864.592	90.96
864.766	-11.43
864.939	-9.39
865.113	47.96
865.287	31.57
865.461	23.38
865.634	-3.24
865.808	-19.63
865.982	21.33
866.156	-23.72
866.329	88.92
866.503	21.33
866.676	84.82
866.85	25.43
867.024	39.76
867.197	15.19
867.371	21.33
867.544	31.57
867.718	21.33
867.891	64.34
868.065	21.33
868.238	52.05
868.412	54.1
868.585	13.14
868.759	54.1
868.932	-19.63
869.105	7
869.279	78.68
869.452	19.29
869.625	60.24
869.799	76.63
869.972	-31.91
870.145	-19.63
870.319	-7.34
870.492	54.1
870.665	33.62
870.838	-25.77
871.011	35.67
871.185	39.76
871.358	27.48
871.531	88.92
871.704	13.14
871.877	33.62
872.05	-9.39
872.223	-3.24
872.396	-1.19
872.569	17.24
872.742	25.43
872.915	-11.43
873.088	-5.29
873.261	-25.77
873.434	29.52
873.607	33.62
873.78	113.49
873.953	21.33
874.126	7
874.299	-11.43
874.471	-19.63
874.644	-17.58
874.817	-36.01
874.99	37.72
875.163	-19.63
875.335	9.05
875.508	70.48
875.681	41.81
875.853	-19.63
876.026	-3.24
876.199	21.33
876.371	0.85
876.544	2.9
876.717	54.1
876.889	4.95
877.062	29.52
877.234	-54.44
877.407	-50.35
877.579	-3.24
877.752	45.91
877.924	-7.34
878.097	23.38
878.269	15.19
878.442	76.63
878.614	-11.43
878.786	60.24
878.959	37.72
879.131	95.06
879.303	-136.36
879.476	86.87
879.648	45.91
879.82	31.57
879.993	37.72
880.165	7
880.337	-31.91
880.509	54.1
880.681	-17.58
880.854	21.33
881.026	45.91
881.198	39.76
881.37	29.52
881.542	47.96
881.714	33.62
881.886	-25.77
882.058	-44.2
882.23	-27.82
882.402	-31.91
882.574	43.86
882.746	-21.67
882.918	62.29
883.09	29.52
883.262	31.57
883.434	-17.58
883.606	-19.63
883.778	-27.82
883.95	27.48
884.122	-9.39
884.293	23.38
884.465	15.19
884.637	29.52
884.809	-44.2
884.98	50
885.152	45.91
885.324	-23.72
885.496	4.95
885.667	-5.29
885.839	21.33
886.011	29.52
886.182	-36.01
886.354	-1.19
886.525	56.15
886.697	13.14
886.869	-46.25
887.04	95.06
887.212	68.44
887.383	21.33
887.555	-31.91
887.726	-44.2
887.897	-15.53
888.069	-3.24
888.24	-23.72
888.412	23.38
888.583	56.15
888.754	-36.01
888.926	4.95
889.097	-1.19
889.268	-44.2
889.44	-19.63
889.611	29.52
889.782	25.43
889.953	-11.43
890.125	88.92
890.296	-25.77
890.467	-64.68
890.638	23.38
890.809	41.81
890.98	-27.82
891.151	109.4
891.323	13.14
891.494	17.24
891.665	21.33
891.836	54.1
892.007	-19.63
892.178	-25.77
892.349	13.14
892.52	13.14
892.691	33.62
892.862	-1.19
893.032	41.81
893.203	11.09
893.374	-48.3
893.545	-21.67
893.716	-40.11
893.887	95.06
894.057	-50.35
894.228	15.19
894.399	-23.72
894.57	78.68
894.74	-9.39
894.911	37.72
895.082	-23.72
895.253	15.19
895.423	15.19
895.594	25.43
895.764	-38.06
895.935	4.95
896.106	-15.53
896.276	-42.15
896.447	0.85
896.617	-27.82
896.788	2.9
896.958	-15.53
897.129	41.81
897.299	25.43
897.47	33.62
897.64	54.1
897.81	13.14
897.981	58.2
898.151	-60.59
898.322	-38.06
898.492	17.24
898.662	21.33
898.832	25.43
899.003	-36.01
899.173	4.95
899.343	4.95
899.513	-13.48
