Data from USB4F104151__176__14-45-03-497.txt Node

Date: Thu Mar 13 14:45:03 EDT 2025
User: louis
Spectrometer: USB4F10415
Trigger mode: 4
Integration Time (sec): 2.000000E-2
Scans to average: 1
Electric dark correction enabled: true
Nonlinearity correction enabled: false
Boxcar width: 0
XAxis mode: Wavelengths
Number of Pixels in Spectrum: 3648
>>>>>Begin Spectral Data<<<<<
178.204	-54.27
178.424	-54.27
178.644	-54.27
178.864	-146.43
179.084	-113.66
179.304	-41.98
179.524	44.03
179.744	17.41
179.964	15.36
180.184	25.6
180.404	-37.89
180.624	-9.22
180.844	-9.22
181.064	-64.51
181.283	37.89
181.503	-25.6
181.723	48.13
181.943	1.02
182.163	39.94
182.383	-78.85
182.602	156.67
182.822	56.32
183.042	17.41
183.262	-23.55
183.482	66.56
183.701	37.89
183.921	-1.02
184.141	56.32
184.361	72.7
184.58	58.37
184.8	17.41
185.02	-41.98
185.239	31.74
185.459	62.46
185.679	50.18
185.898	-17.41
186.118	50.18
186.338	-21.5
186.557	64.51
186.777	-56.32
186.997	78.85
187.216	109.57
187.436	17.41
187.655	37.89
187.875	76.8
188.095	-15.36
188.314	134.14
188.534	89.09
188.753	44.03
188.973	37.89
189.192	48.13
189.412	-29.7
189.631	78.85
189.851	3.07
190.07	50.18
190.29	-82.94
190.509	-9.22
190.729	15.36
190.948	82.94
191.168	142.33
191.387	97.28
191.607	-48.13
191.826	15.36
192.045	37.89
192.265	48.13
192.484	-31.74
192.704	-1.02
192.923	-3.07
193.142	89.09
193.362	72.7
193.581	44.03
193.8	70.65
194.02	62.46
194.239	31.74
194.458	7.17
194.678	-41.98
194.897	56.32
195.116	23.55
195.335	89.09
195.555	27.65
195.774	66.56
195.993	58.37
196.212	19.46
196.432	13.31
196.651	-35.84
196.87	52.22
197.089	107.52
197.308	25.6
197.528	56.32
197.747	-23.55
197.966	33.79
198.185	29.7
198.404	23.55
198.623	3.07
198.842	64.51
199.062	7.17
199.281	70.65
199.5	-29.7
199.719	39.94
199.938	33.79
200.157	91.13
200.376	17.41
200.595	54.27
200.814	76.8
201.033	44.03
201.252	56.32
201.471	23.55
201.69	50.18
201.909	33.79
202.128	35.84
202.347	23.55
202.566	-7.17
202.785	-13.31
203.004	-9.22
203.223	97.28
203.442	64.51
203.661	7.17
203.879	-7.17
204.098	72.7
204.317	29.7
204.536	7.17
204.755	52.22
204.974	39.94
205.193	105.47
205.411	91.13
205.63	33.79
205.849	11.26
206.068	33.79
206.287	15.36
206.505	15.36
206.724	15.36
206.943	58.37
207.162	11.26
207.381	107.52
207.599	9.22
207.818	-1.02
208.037	-13.31
208.255	87.04
208.474	-39.94
208.693	-5.12
208.911	9.22
209.13	84.99
209.349	-17.41
209.567	-25.6
209.786	99.33
210.005	76.8
210.223	48.13
210.442	-7.17
210.661	54.27
210.879	-15.36
211.098	64.51
211.316	15.36
211.535	54.27
211.753	76.8
211.972	72.7
212.191	48.13
212.409	-23.55
212.628	17.41
212.846	46.08
213.065	-5.12
213.283	31.74
213.502	27.65
213.72	23.55
213.938	1.02
214.157	-1.02
214.375	17.41
214.594	70.65
214.812	44.03
215.031	107.52
215.249	-11.26
215.467	48.13
215.686	87.04
215.904	39.94
216.122	-5.12
216.341	33.79
216.559	-11.26
216.778	142.33
216.996	142.33
217.214	105.47
217.432	27.65
217.651	33.79
217.869	52.22
218.087	52.22
218.306	27.65
218.524	44.03
218.742	48.13
218.96	84.99
219.179	82.94
219.397	107.52
219.615	140.29
219.833	72.7
220.051	31.74
220.27	58.37
220.488	39.94
220.706	52.22
220.924	-15.36
221.142	-31.74
221.36	84.99
221.578	17.41
221.796	-13.31
222.015	95.23
222.233	39.94
222.451	97.28
222.669	-29.7
222.887	113.66
223.105	97.28
223.323	17.41
223.541	-7.17
223.759	21.5
223.977	50.18
224.195	-17.41
224.413	-5.12
224.631	-13.31
224.849	41.98
225.067	78.85
225.285	13.31
225.503	15.36
225.721	13.31
225.939	23.55
226.157	23.55
226.375	93.18
226.592	13.31
226.81	52.22
227.028	9.22
227.246	138.24
227.464	-9.22
227.682	3.07
227.9	23.55
228.117	19.46
228.335	39.94
228.553	13.31
228.771	58.37
228.989	74.75
229.206	76.8
229.424	17.41
229.642	37.89
229.86	11.26
230.077	46.08
230.295	19.46
230.513	95.23
230.731	70.65
230.948	56.32
231.166	68.61
231.384	-13.31
231.601	-3.07
231.819	115.71
232.037	72.7
232.254	-7.17
232.472	50.18
232.689	-5.12
232.907	23.55
233.125	15.36
233.342	82.94
233.56	-66.56
233.777	41.98
233.995	-13.31
234.213	72.7
234.43	21.5
234.648	39.94
234.865	-1.02
235.083	35.84
235.3	-68.61
235.518	84.99
235.735	-29.7
235.953	41.98
236.17	25.6
236.388	-15.36
236.605	-33.79
236.822	-9.22
237.04	130.05
237.257	-5.12
237.475	25.6
237.692	82.94
237.909	37.89
238.127	11.26
238.344	56.32
238.562	52.22
238.779	-33.79
238.996	72.7
239.214	41.98
239.431	64.51
239.648	31.74
239.865	15.36
240.083	-15.36
240.3	-29.7
240.517	60.42
240.735	3.07
240.952	23.55
241.169	64.51
241.386	-7.17
241.603	64.51
241.821	-23.55
242.038	74.75
242.255	56.32
242.472	-25.6
242.689	56.32
242.907	64.51
243.124	-15.36
243.341	-23.55
243.558	35.84
243.775	5.12
243.992	48.13
244.209	1.02
244.426	97.28
244.643	33.79
244.86	87.04
245.078	25.6
245.295	39.94
245.512	74.75
245.729	101.37
245.946	-1.02
246.163	84.99
246.38	11.26
246.597	58.37
246.814	37.89
247.031	-5.12
247.248	19.46
247.464	35.84
247.681	23.55
247.898	11.26
248.115	-15.36
248.332	-25.6
248.549	9.22
248.766	103.42
248.983	84.99
249.2	48.13
249.417	123.9
249.633	39.94
249.85	48.13
250.067	68.61
250.284	15.36
250.501	35.84
250.717	33.79
250.934	-13.31
251.151	11.26
251.368	68.61
251.585	80.89
251.801	50.18
252.018	37.89
252.235	27.65
252.451	56.32
252.668	39.94
252.885	23.55
253.102	35.84
253.318	-9.22
253.535	64.51
253.752	9.22
253.968	68.61
254.185	-3.07
254.401	27.65
254.618	60.42
254.835	15.36
255.051	72.7
255.268	62.46
255.484	39.94
255.701	15.36
255.917	56.32
256.134	-46.08
256.351	64.51
256.567	44.03
256.784	-11.26
257	-3.07
257.217	-9.22
257.433	72.7
257.65	70.65
257.866	89.09
258.082	-62.46
258.299	-1.02
258.515	48.13
258.732	31.74
258.948	33.79
259.165	19.46
259.381	-5.12
259.597	-11.26
259.814	80.89
260.03	25.6
260.246	9.22
260.463	-1.02
260.679	50.18
260.895	39.94
261.112	89.09
261.328	48.13
261.544	33.79
261.761	58.37
261.977	72.7
262.193	5.12
262.409	-9.22
262.626	56.32
262.842	15.36
263.058	19.46
263.274	44.03
263.49	64.51
263.707	54.27
263.923	25.6
264.139	35.84
264.355	-13.31
264.571	64.51
264.787	44.03
265.004	58.37
265.22	31.74
265.436	64.51
265.652	-9.22
265.868	64.51
266.084	15.36
266.3	58.37
266.516	54.27
266.732	15.36
266.948	11.26
267.164	48.13
267.38	56.32
267.596	58.37
267.812	82.94
268.028	39.94
268.244	17.41
268.46	-41.98
268.676	91.13
268.892	56.32
269.108	3.07
269.324	-48.13
269.54	-48.13
269.756	9.22
269.972	58.37
270.188	97.28
270.403	-66.56
270.619	-11.26
270.835	27.65
271.051	-1.02
271.267	23.55
271.483	56.32
271.698	39.94
271.914	130.05
272.13	60.42
272.346	80.89
272.562	25.6
272.777	84.99
272.993	-41.98
273.209	3.07
273.425	70.65
273.64	17.41
273.856	39.94
274.072	56.32
274.287	21.5
274.503	3.07
274.719	64.51
274.934	35.84
275.15	1.02
275.366	41.98
275.581	-15.36
275.797	107.52
276.012	-50.18
276.228	56.32
276.444	66.56
276.659	82.94
276.875	-33.79
277.09	-25.6
277.306	48.13
277.521	72.7
277.737	-25.6
277.952	134.14
278.168	15.36
278.383	64.51
278.599	25.6
278.814	52.22
279.03	72.7
279.245	60.42
279.461	50.18
279.676	15.36
279.892	58.37
280.107	-5.12
280.322	48.13
280.538	82.94
280.753	50.18
280.969	33.79
281.184	-5.12
281.399	33.79
281.615	72.7
281.83	-1.02
282.045	-41.98
282.26	-23.55
282.476	-1.02
282.691	7.17
282.906	33.79
283.122	58.37
283.337	44.03
283.552	-25.6
283.767	-17.41
283.983	46.08
284.198	-3.07
284.413	-9.22
284.628	-15.36
284.843	21.5
285.058	39.94
285.274	64.51
285.489	-17.41
285.704	-31.74
285.919	9.22
286.134	27.65
286.349	-9.22
286.564	44.03
286.779	74.75
286.995	17.41
287.21	15.36
287.425	101.37
287.64	44.03
287.855	58.37
288.07	-50.18
288.285	74.75
288.5	17.41
288.715	99.33
288.93	27.65
289.145	72.7
289.36	105.47
289.575	37.89
289.79	-7.17
290.004	41.98
290.219	-7.17
290.434	1.02
290.649	39.94
290.864	7.17
291.079	21.5
291.294	11.26
291.509	-78.85
291.724	-7.17
291.938	21.5
292.153	41.98
292.368	60.42
292.583	48.13
292.798	48.13
293.012	66.56
293.227	-13.31
293.442	33.79
293.657	144.38
293.871	109.57
294.086	80.89
294.301	113.66
294.516	123.9
294.73	60.42
294.945	3.07
295.16	33.79
295.374	15.36
295.589	82.94
295.804	23.55
296.018	15.36
296.233	109.57
296.447	48.13
296.662	23.55
296.877	82.94
297.091	58.37
297.306	-68.61
297.52	-5.12
297.735	113.66
297.949	9.22
298.164	41.98
298.378	-15.36
298.593	68.61
298.807	33.79
299.022	97.28
299.236	82.94
299.451	-1.02
299.665	-9.22
299.88	76.8
300.094	9.22
300.309	134.14
300.523	-13.31
300.737	29.7
300.952	31.74
301.166	7.17
301.381	66.56
301.595	93.18
301.809	64.51
302.024	-9.22
302.238	-7.17
302.452	48.13
302.667	103.42
302.881	52.22
303.095	25.6
303.309	91.13
303.524	50.18
303.738	29.7
303.952	-70.65
304.166	105.47
304.381	7.17
304.595	82.94
304.809	48.13
305.023	39.94
305.237	74.75
305.452	31.74
305.666	23.55
305.88	27.65
306.094	80.89
306.308	78.85
306.522	66.56
306.736	87.04
306.95	60.42
307.164	105.47
307.379	52.22
307.593	39.94
307.807	52.22
308.021	31.74
308.235	-33.79
308.449	15.36
308.663	7.17
308.877	56.32
309.091	109.57
309.305	68.61
309.519	-15.36
309.733	-23.55
309.947	7.17
310.161	89.09
310.374	3.07
310.588	-3.07
310.802	7.17
311.016	50.18
311.23	35.84
311.444	41.98
311.658	80.89
311.872	87.04
312.085	93.18
312.299	99.33
312.513	-7.17
312.727	54.27
312.941	15.36
313.154	31.74
313.368	35.84
313.582	93.18
313.796	89.09
314.009	50.18
314.223	117.76
314.437	72.7
314.651	72.7
314.864	5.12
315.078	48.13
315.292	-19.46
315.505	35.84
315.719	15.36
315.933	80.89
316.146	23.55
316.36	35.84
316.573	56.32
316.787	-9.22
317.001	64.51
317.214	27.65
317.428	80.89
317.641	56.32
317.855	15.36
318.068	15.36
318.282	50.18
318.495	25.6
318.709	66.56
318.922	29.7
319.136	52.22
319.349	-3.07
319.563	140.29
319.776	66.56
319.99	93.18
320.203	17.41
320.417	91.13
320.63	74.75
320.843	56.32
321.057	39.94
321.27	97.28
321.483	91.13
321.697	130.05
321.91	7.17
322.124	99.33
322.337	31.74
322.55	41.98
322.763	3.07
322.977	-9.22
323.19	-31.74
323.403	66.56
323.617	-21.5
323.83	99.33
324.043	1.02
324.256	48.13
324.469	-21.5
324.683	-5.12
324.896	33.79
325.109	31.74
325.322	27.65
325.535	97.28
325.748	33.79
325.962	41.98
326.175	35.84
326.388	31.74
326.601	35.84
326.814	41.98
327.027	7.17
327.24	76.8
327.453	31.74
327.666	80.89
327.879	31.74
328.092	82.94
328.305	41.98
328.518	3.07
328.731	48.13
328.944	107.52
329.157	60.42
329.37	109.57
329.583	87.04
329.796	31.74
330.009	-50.18
330.222	52.22
330.435	48.13
330.648	21.5
330.861	31.74
331.073	68.61
331.286	87.04
331.499	74.75
331.712	17.41
331.925	17.41
332.138	15.36
332.35	64.51
332.563	44.03
332.776	97.28
332.989	17.41
333.202	33.79
333.414	113.66
333.627	1.02
333.84	66.56
334.053	52.22
334.265	-19.46
334.478	11.26
334.691	23.55
334.903	-39.94
335.116	27.65
335.329	-5.12
335.541	44.03
335.754	56.32
335.966	41.98
336.179	58.37
336.392	58.37
336.604	-54.27
336.817	50.18
337.029	11.26
337.242	5.12
337.454	15.36
337.667	23.55
337.88	80.89
338.092	134.14
338.305	9.22
338.517	17.41
338.729	84.99
338.942	35.84
339.154	19.46
339.367	41.98
339.579	68.61
339.792	-9.22
340.004	78.85
340.217	15.36
340.429	74.75
340.641	31.74
340.854	84.99
341.066	87.04
341.278	11.26
341.491	130.05
341.703	117.76
341.915	9.22
342.128	50.18
342.34	62.46
342.552	60.42
342.764	-13.31
342.977	31.74
343.189	-35.84
343.401	58.37
343.613	25.6
343.826	56.32
344.038	5.12
344.25	56.32
344.462	9.22
344.674	58.37
344.886	46.08
345.099	11.26
345.311	93.18
345.523	31.74
345.735	64.51
345.947	72.7
346.159	-23.55
346.371	80.89
346.583	39.94
346.795	68.61
347.007	52.22
347.219	66.56
347.431	54.27
347.643	44.03
347.855	9.22
348.067	52.22
348.279	-1.02
348.491	11.26
348.703	39.94
348.915	31.74
349.127	56.32
349.339	78.85
349.551	46.08
349.763	39.94
349.975	27.65
350.187	-5.12
350.399	44.03
350.61	7.17
350.822	89.09
351.034	115.71
351.246	29.7
351.458	-31.74
351.669	23.55
351.881	89.09
352.093	17.41
352.305	64.51
352.517	56.32
352.728	91.13
352.94	-58.37
353.152	25.6
353.363	50.18
353.575	99.33
353.787	76.8
353.999	11.26
354.21	17.41
354.422	33.79
354.633	105.47
354.845	56.32
355.057	48.13
355.268	44.03
355.48	37.89
355.692	41.98
355.903	46.08
356.115	-7.17
356.326	-9.22
356.538	68.61
356.749	76.8
356.961	64.51
357.172	31.74
357.384	41.98
357.595	80.89
357.807	91.13
358.018	44.03
358.23	60.42
358.441	91.13
358.653	27.65
358.864	113.66
359.075	23.55
359.287	41.98
359.498	130.05
359.709	-9.22
359.921	62.46
360.132	15.36
360.344	109.57
360.555	-29.7
360.766	48.13
360.977	19.46
361.189	113.66
361.4	56.32
361.611	-25.6
361.823	33.79
362.034	72.7
362.245	44.03
362.456	-17.41
362.667	107.52
362.879	56.32
363.09	62.46
363.301	44.03
363.512	23.55
363.723	7.17
363.935	48.13
364.146	82.94
364.357	-15.36
364.568	76.8
364.779	-41.98
364.99	46.08
365.201	25.6
365.412	164.86
365.623	93.18
365.834	54.27
366.045	62.46
366.256	64.51
366.467	46.08
366.678	-9.22
366.889	56.32
367.1	91.13
367.311	56.32
367.522	-7.17
367.733	33.79
367.944	23.55
368.155	132.09
368.366	25.6
368.577	7.17
368.788	-7.17
368.999	46.08
369.209	46.08
369.42	31.74
369.631	109.57
369.842	64.51
370.053	15.36
370.264	50.18
370.474	39.94
370.685	27.65
370.896	-5.12
371.107	68.61
371.317	39.94
371.528	-15.36
371.739	89.09
371.95	68.61
372.16	41.98
372.371	33.79
372.582	33.79
372.792	7.17
373.003	130.05
373.214	-5.12
373.424	68.61
373.635	15.36
373.846	25.6
374.056	44.03
374.267	23.55
374.477	76.8
374.688	27.65
374.898	35.84
375.109	84.99
375.319	15.36
375.53	60.42
375.74	31.74
375.951	72.7
376.161	80.89
376.372	128
376.582	15.36
376.793	72.7
377.003	17.41
377.214	-1.02
377.424	48.13
377.635	113.66
377.845	-25.6
378.055	33.79
378.266	29.7
378.476	17.41
378.686	97.28
378.897	-17.41
379.107	25.6
379.317	-1.02
379.528	52.22
379.738	115.71
379.948	-7.17
380.158	27.65
380.369	72.7
380.579	29.7
380.789	-1.02
380.999	66.56
381.21	56.32
381.42	27.65
381.63	19.46
381.84	25.6
382.05	39.94
382.261	68.61
382.471	50.18
382.681	-1.02
382.891	56.32
383.101	48.13
383.311	31.74
383.521	89.09
383.731	48.13
383.941	138.24
384.151	-37.89
384.361	64.51
384.571	56.32
384.781	23.55
384.991	37.89
385.201	80.89
385.411	74.75
385.621	97.28
385.831	39.94
386.041	72.7
386.251	123.9
386.461	113.66
386.671	27.65
386.881	62.46
387.091	76.8
387.301	128
387.511	33.79
387.72	152.57
387.93	72.7
388.14	-21.5
388.35	39.94
388.56	41.98
388.769	105.47
388.979	87.04
389.189	-7.17
389.399	62.46
389.609	91.13
389.818	93.18
390.028	44.03
390.238	44.03
390.447	19.46
390.657	64.51
390.867	27.65
391.076	44.03
391.286	39.94
391.496	31.74
391.705	80.89
391.915	48.13
392.125	31.74
392.334	44.03
392.544	80.89
392.753	-31.74
392.963	39.94
393.172	7.17
393.382	25.6
393.591	23.55
393.801	66.56
394.01	140.29
394.22	93.18
394.429	-39.94
394.639	35.84
394.848	89.09
395.058	84.99
395.267	48.13
395.477	41.98
395.686	39.94
395.895	130.05
396.105	117.76
396.314	23.55
396.524	23.55
396.733	101.37
396.942	140.29
397.152	125.95
397.361	101.37
397.57	113.66
397.78	68.61
397.989	27.65
398.198	191.49
398.407	62.46
398.617	48.13
398.826	39.94
399.035	52.22
399.244	9.22
399.453	117.76
399.663	82.94
399.872	130.05
400.081	-1.02
400.29	228.35
400.499	113.66
400.708	74.75
400.917	130.05
401.127	91.13
401.336	154.62
401.545	130.05
401.754	80.89
401.963	146.43
402.172	46.08
402.381	99.33
402.59	93.18
402.799	113.66
403.008	136.19
403.217	162.81
403.426	80.89
403.635	64.51
403.844	64.51
404.053	158.72
404.262	1.02
404.471	123.9
404.68	80.89
404.888	103.42
405.097	89.09
405.306	89.09
405.515	113.66
405.724	121.85
405.933	175.1
406.142	138.24
406.35	154.62
406.559	64.51
406.768	132.09
406.977	89.09
407.185	146.43
407.394	177.15
407.603	117.76
407.812	113.66
408.02	228.35
408.229	171.01
408.438	99.33
408.646	164.86
408.855	246.78
409.064	142.33
409.272	179.2
409.481	240.64
409.69	191.49
409.898	205.82
410.107	216.06
410.315	261.12
410.524	207.87
410.733	269.31
410.941	248.83
411.15	216.06
411.358	343.03
411.567	310.27
411.775	291.84
411.984	310.27
412.192	283.64
412.401	171.01
412.609	367.61
412.818	371.71
413.026	353.27
413.234	365.56
413.443	400.38
413.651	437.24
413.86	400.38
414.068	465.91
414.276	388.09
414.485	383.99
414.693	564.22
414.901	506.87
415.11	420.86
415.318	478.2
415.526	556.02
415.734	580.6
415.943	556.02
416.151	678.9
416.359	558.07
416.567	639.99
416.776	695.29
416.984	695.29
417.192	721.91
417.4	713.72
417.608	664.57
417.817	750.58
418.025	871.41
418.233	885.75
418.441	842.74
418.649	744.44
418.857	855.03
419.065	900.08
419.273	875.51
419.481	1000.43
419.689	945.14
419.897	1006.58
420.105	973.81
420.313	1055.73
420.521	1137.65
420.729	1166.32
420.937	1096.69
421.145	1186.8
421.353	1336.3
421.561	1385.45
421.769	1350.64
421.977	1395.69
422.185	1321.96
422.393	1547.24
422.601	1647.59
422.809	1645.54
423.017	1539.05
423.224	1670.12
423.432	1694.69
423.64	1631.21
423.848	1858.53
424.056	1784.8
424.263	1952.74
424.471	1887.2
424.679	1944.55
424.887	2216.93
425.094	2194.4
425.302	2239.45
425.51	2194.4
425.718	2329.56
425.925	2280.41
426.133	2374.62
426.341	2560.98
426.548	2642.9
426.756	2624.47
426.964	2790.36
427.171	2784.21
427.379	2862.04
427.586	3097.55
427.794	3046.35
428.001	3152.85
428.209	3320.78
428.417	3222.48
428.624	3570.63
428.832	3566.54
429.039	3406.8
429.247	3472.33
429.454	3779.53
429.662	4172.74
429.869	3834.82
430.076	4131.78
430.284	3931.08
430.491	4197.31
430.699	4492.22
430.906	4479.93
431.114	4393.92
431.321	4637.63
431.528	4717.5
431.736	5088.18
431.943	5127.09
432.15	5082.03
432.358	5047.22
432.565	5258.16
432.772	5411.76
432.979	5718.95
433.187	5571.5
433.394	5835.69
433.601	6079.4
433.808	6071.2
434.016	5972.9
434.223	6482.85
434.43	6749.08
434.637	6480.8
434.844	7099.28
435.052	7242.64
435.259	7269.27
435.466	7363.47
435.673	7148.43
435.88	7539.6
436.087	7879.56
436.294	8008.58
436.501	7953.29
436.708	8010.63
436.915	8158.08
437.122	8516.48
437.329	8524.67
437.537	8729.47
437.743	8985.46
437.95	8938.36
438.157	9231.22
438.364	9485.17
438.571	9575.28
438.778	9694.06
438.985	10554.21
439.192	10236.77
439.399	10586.97
439.606	10208.1
439.813	10855.26
440.02	11471.7
440.227	11330.39
440.433	10955.61
440.64	11383.63
440.847	11406.16
441.054	11639.63
441.261	12350.28
441.467	12262.21
441.674	12409.67
441.881	13093.69
442.088	13069.11
442.294	12843.84
442.501	13278.01
442.708	13378.36
442.914	14140.2
443.121	14836.51
443.328	14207.78
443.534	15069.98
443.741	14664.48
443.948	14408.48
444.154	15698.7
444.361	15614.74
444.568	15688.46
444.774	15547.15
444.981	15893.26
445.187	16165.64
445.394	16960.25
445.6	16628.48
445.807	18393.83
446.013	17457.91
446.22	18000.62
446.426	18463.46
446.633	18844.38
446.839	19493.59
447.046	18328.3
447.252	19714.77
447.459	19487.45
447.665	19483.35
447.871	20425.42
448.078	21267.13
448.284	20347.59
448.491	20744.9
448.697	21662.39
448.903	21916.34
449.11	22168.24
449.316	21805.75
449.522	22194.86
449.728	22774.44
449.935	22919.84
450.141	22704.81
450.347	23519.9
450.553	22641.32
450.76	22964.9
450.966	23673.49
451.172	23423.64
451.378	23978.64
451.584	23614.1
451.791	24228.49
451.997	23843.48
452.203	24593.03
452.409	24472.2
452.615	24341.13
452.821	23718.55
453.027	23265.95
453.233	24619.66
453.44	23362.2
453.646	24048.27
453.852	24005.27
454.058	24189.58
454.264	23610.01
454.47	24068.75
454.676	23435.93
454.882	24248.97
455.088	22022.83
455.294	22526.63
455.5	23071.39
455.705	23399.07
455.911	21885.62
456.117	21889.71
456.323	21183.16
456.529	20472.52
456.735	21256.89
456.941	20552.39
457.147	20400.84
457.352	19858.13
457.558	19759.83
457.764	19677.91
457.97	19247.83
458.176	18817.76
458.381	19139.29
458.587	17992.43
458.793	18023.15
458.999	17009.4
459.204	18287.34
459.41	17838.83
459.616	16726.78
459.821	16829.18
460.027	16519.94
460.233	16245.51
460.438	15483.67
460.644	15743.76
460.85	14975.77
461.055	14680.86
461.261	14482.21
461.466	13550.39
461.672	13085.5
461.878	13996.84
462.083	13191.99
462.289	13026.11
462.494	12720.96
462.7	12221.25
462.905	11815.76
463.111	12460.87
463.316	12487.49
463.522	11885.39
463.727	12000.07
463.932	12131.14
464.138	11856.72
464.343	11885.39
464.549	11543.38
464.754	12086.09
464.959	11854.67
465.165	11754.32
465.37	11285.33
465.575	10941.27
465.781	11664.21
465.986	11389.78
466.191	11101.01
466.397	10740.57
466.602	10363.75
466.807	10820.44
467.012	10830.68
467.218	10664.8
467.423	10533.73
467.628	10500.96
467.833	10959.7
468.038	10597.21
468.244	10513.25
468.449	10740.57
468.654	10437.47
468.859	10439.52
469.064	10212.2
469.269	9786.22
469.474	9988.97
469.679	10089.32
469.885	9894.76
470.09	10019.69
470.295	9991.02
470.5	9847.66
470.705	9915.24
470.91	9761.64
471.115	9485.17
471.32	9755.5
471.525	9866.09
471.73	9354.1
471.935	9376.62
472.139	9016.18
472.344	8964.98
472.549	9053.05
472.754	8823.67
472.959	8780.67
473.164	8479.61
473.369	8463.23
473.574	8805.24
473.778	8522.62
473.983	8668.03
474.188	8534.91
474.393	8409.98
474.598	8110.98
474.802	8264.58
475.007	8133.51
475.212	8151.94
475.417	7756.68
475.621	7805.83
475.826	7994.25
476.031	7740.3
476.235	7547.79
476.44	7627.66
476.645	7355.28
476.849	7580.56
477.054	7414.67
477.259	7351.18
477.463	7443.34
477.668	7109.52
477.872	7240.59
478.077	7052.18
478.282	6822.81
478.486	6781.85
478.691	6841.24
478.895	6888.34
479.1	6806.42
479.304	6882.2
479.509	6595.48
479.713	6718.36
479.918	6620.06
480.122	6329.25
480.326	6478.75
480.531	6460.32
480.735	6359.97
480.94	6370.21
481.144	6575
481.348	6480.8
481.553	6445.98
481.757	6355.87
481.961	6347.68
482.166	6425.5
482.37	6335.39
482.574	6294.43
482.778	6355.87
482.983	6429.6
483.187	6210.47
483.391	6388.64
483.595	6192.03
483.8	6388.64
484.004	6316.96
484.208	6384.54
484.412	6376.35
484.616	6284.19
484.821	6431.65
485.025	6218.66
485.229	6273.95
485.433	6296.48
485.637	6380.45
485.841	6095.78
486.045	6308.77
486.249	6241.18
486.453	6185.89
486.657	6224.8
486.861	6183.84
487.065	6151.07
487.269	6108.07
487.473	6210.47
487.677	6464.41
487.881	6341.54
488.085	6187.94
488.289	6464.41
488.493	6138.79
488.697	6407.07
488.901	6366.11
489.105	6370.21
489.309	6319.01
489.512	6341.54
489.716	6380.45
489.92	6355.87
490.124	6355.87
490.328	6484.89
490.531	6470.56
490.735	6445.98
490.939	6538.14
491.143	6486.94
491.346	6306.72
491.55	6560.67
491.754	6319.01
491.958	6585.24
492.161	6527.9
492.365	6583.2
492.569	6667.16
492.772	6661.02
492.976	6646.68
493.18	6712.22
493.383	6685.59
493.587	6755.22
493.79	6931.35
493.994	6765.46
494.197	6986.65
494.401	6888.34
494.605	7013.27
494.808	7060.37
495.012	7043.99
495.215	7236.5
495.419	7183.25
495.622	7127.96
495.825	7228.31
496.029	7289.74
496.232	7394.19
496.436	7603.08
496.639	7568.27
496.843	7691.15
497.046	7805.83
497.249	7785.35
497.453	7912.33
497.656	7721.87
497.859	7748.49
498.063	8029.06
498.266	8250.24
498.469	8272.77
498.673	8303.49
498.876	8346.5
499.079	8487.81
499.282	8498.05
499.485	8602.49
499.689	8610.68
499.892	8854.39
500.095	8758.14
500.298	9044.85
500.501	8733.56
500.705	9184.12
500.908	9263.99
501.111	9519.98
501.314	9442.16
501.517	9577.33
501.72	9712.49
501.923	9526.13
502.126	9886.57
502.329	10173.28
502.532	10204
502.735	10091.37
502.938	10165.09
503.141	10355.55
503.344	10546.02
503.547	10427.23
503.75	10683.23
503.953	10992.47
504.156	10879.83
504.359	11002.71
504.562	11150.17
504.765	11473.74
504.968	11494.22
505.17	11631.44
505.373	11590.48
505.576	11703.12
505.779	11862.86
505.982	12081.99
506.185	12159.81
506.387	12196.68
506.59	12227.4
506.793	12546.88
506.996	12749.63
507.198	12841.79
507.401	12774.21
507.604	13081.4
507.807	13134.65
508.009	13318.96
508.212	13296.44
508.415	13318.96
508.617	13736.75
508.82	13609.78
509.022	13663.02
509.225	14156.58
509.428	14283.56
509.63	14347.05
509.833	14637.86
510.035	15024.92
510.238	14693.15
510.44	14799.65
510.643	15035.16
510.845	15072.03
511.048	15278.87
511.25	15336.21
511.453	15643.41
511.655	16153.35
511.858	16057.1
512.06	16272.14
512.262	16239.37
512.465	16323.33
512.667	16452.36
512.87	16712.45
513.072	16722.69
513.274	17007.36
513.477	17314.55
513.679	17378.04
513.881	17492.73
514.084	17478.39
514.286	17658.61
514.488	17767.15
514.69	18375.4
514.893	18457.32
515.095	18367.21
515.297	18793.19
515.499	18803.43
515.701	19051.23
515.904	19278.55
516.106	19190.49
516.308	19288.79
516.51	19856.08
516.712	19923.66
516.914	19790.55
517.116	20200.14
517.318	20140.75
517.52	20361.93
517.722	20609.73
517.925	20947.65
518.127	21009.09
518.329	21424.83
518.531	21162.69
518.733	21635.77
518.935	21713.59
519.136	21508.79
519.338	21744.31
519.54	22256.3
519.742	22364.84
519.944	22450.86
520.146	22852.26
520.348	22917.79
520.55	22952.61
520.752	23059.1
520.954	23702.17
521.155	23368.35
521.357	23675.54
521.559	23847.57
521.761	24255.12
521.963	24126.1
522.164	24369.8
522.366	24631.94
522.568	24996.48
522.77	24867.46
522.971	25164.42
523.173	25068.16
523.375	25416.32
523.576	25217.66
523.778	25524.86
523.98	25512.57
524.181	25793.14
524.383	25830.01
524.584	26231.41
524.786	26120.82
524.988	26190.45
525.189	26487.4
525.391	26516.08
525.592	26663.53
525.794	26718.82
525.995	26917.48
526.197	26995.3
526.398	27183.71
526.6	27169.38
526.801	27066.98
527.003	27318.88
527.204	27828.82
527.406	27904.6
527.607	27554.4
527.808	27925.08
528.01	27566.68
528.211	27863.64
528.412	28478.03
528.614	28365.39
528.815	28500.56
529.016	28543.56
529.218	28023.38
529.419	28521.04
529.62	28471.89
529.822	28281.42
530.023	28447.31
530.224	28500.56
530.425	28654.15
530.626	28656.2
530.828	28623.44
531.029	29180.48
531.23	29178.43
531.431	28887.62
531.632	28817.99
531.833	28973.64
532.035	28738.12
532.236	29137.48
532.437	29368.9
532.638	28920.39
532.839	29217.35
533.04	29315.65
533.241	28971.59
533.442	29407.81
533.643	29145.67
533.844	29248.07
534.045	29192.77
534.246	28836.42
534.447	29391.42
534.648	28975.69
534.849	29276.74
535.05	29360.7
535.251	29639.23
535.451	29125.19
535.652	29229.63
535.853	29147.72
536.054	29235.78
536.255	29344.32
536.456	29076.04
536.657	29831.74
536.857	29114.95
537.058	29239.87
537.259	29368.9
537.46	29209.15
537.66	29055.56
537.861	29618.75
538.062	29141.57
538.263	29067.84
538.463	29092.42
538.664	29141.57
538.865	29377.09
539.065	29485.63
539.266	29127.24
539.466	29315.65
539.667	29076.04
539.868	29813.31
540.068	29211.2
540.269	29028.93
540.469	29133.38
540.67	29073.99
540.87	29155.91
541.071	29065.8
541.271	29299.26
541.472	29358.66
541.672	29143.62
541.873	29047.36
542.073	28813.9
542.274	29235.78
542.474	29200.96
542.675	28834.38
542.875	29299.26
543.075	29180.48
543.276	28967.49
543.476	29186.63
543.676	29131.33
543.877	29098.56
544.077	28990.02
544.277	29082.18
544.478	29096.52
544.678	29049.41
544.878	29237.83
545.078	28990.02
545.279	28848.71
545.479	29035.08
545.679	29084.23
545.879	28691.02
546.079	29026.89
546.28	28998.21
546.48	28928.58
546.68	28836.42
546.88	28987.97
547.08	28936.77
547.28	28723.79
547.48	28598.86
547.68	29180.48
547.88	28738.12
548.081	29057.6
548.281	28920.39
548.481	28777.03
548.681	29117
548.881	28766.79
549.081	28975.69
549.28	28723.79
549.48	29049.41
549.68	28785.22
549.88	29243.97
550.08	28899.91
550.28	28842.57
550.48	28566.09
550.68	28594.76
550.88	28742.22
551.08	28820.04
551.279	28906.05
551.479	28475.98
551.679	28838.47
551.879	28711.5
552.079	28904.01
552.278	28695.11
552.478	28877.38
552.678	28379.73
552.878	28379.73
553.077	28547.66
553.277	28385.87
553.477	28557.9
553.676	28385.87
553.876	28465.74
554.076	28600.91
554.275	28355.15
554.475	28236.37
554.674	28547.66
554.874	28631.63
555.074	28361.3
555.273	28246.61
555.473	28234.32
555.672	28189.27
555.872	28234.32
556.071	28396.11
556.271	28443.21
556.47	28103.25
556.67	28138.07
556.869	28125.78
557.068	28191.31
557.268	28314.19
557.467	27970.13
557.667	28058.2
557.866	28199.51
558.065	28050
558.265	27810.39
558.464	27781.72
558.663	27877.97
558.863	27853.4
559.062	28176.98
559.261	27710.04
559.461	27816.54
559.66	27642.46
559.859	27392.61
560.058	27748.95
560.258	27603.55
560.457	27529.82
560.656	27701.85
560.855	27212.38
561.054	27798.1
561.253	27169.38
561.453	27294.3
561.652	27249.25
561.851	27462.24
562.05	27040.36
562.249	27036.26
562.448	27290.21
562.647	26915.43
562.846	27206.24
563.045	27050.6
563.244	26634.86
563.443	27146.85
563.642	26532.46
563.841	26958.44
564.04	26569.32
564.239	27044.45
564.438	26524.27
564.637	26385.01
564.836	26823.27
565.035	26399.34
565.234	26436.2
565.432	26194.54
565.631	26272.37
565.83	26638.95
566.029	26339.95
566.228	26159.73
566.427	26344.05
566.625	26022.51
566.824	25784.95
567.023	26180.21
567.222	25483.9
567.42	25946.74
567.619	25680.5
567.818	25692.79
568.016	25909.88
568.215	25899.64
568.414	25483.9
568.612	25860.73
568.811	25406.08
569.01	25461.37
569.208	25266.81
569.407	25473.66
569.605	24959.62
569.804	25408.12
570.002	25057.92
570.201	25051.78
570.4	25117.31
570.598	24945.28
570.797	25068.16
570.995	24730.25
571.193	24464.01
571.392	24797.83
571.59	24451.72
571.789	24935.04
571.987	24799.88
572.186	24615.56
572.384	24449.67
572.582	24478.35
572.781	24328.84
572.979	23773.85
573.177	24470.15
573.376	24220.3
573.574	23990.93
573.772	24003.22
573.971	23941.78
574.169	23665.3
574.367	23687.83
574.565	23937.68
574.763	23382.68
574.962	23521.95
575.16	23409.31
575.358	23599.77
575.556	23171.74
575.754	23786.13
575.952	23077.54
576.151	23534.23
576.349	22973.09
576.547	23196.32
576.745	23059.1
576.943	23327.39
577.141	23050.91
577.339	22882.98
577.537	22870.69
577.735	23046.82
577.933	22672.04
578.131	22622.89
578.329	22700.71
578.527	22528.68
578.725	22631.08
578.923	22624.93
579.121	22420.14
579.319	22024.88
579.516	22237.87
579.714	22250.16
579.912	22117.04
580.11	22198.96
580.308	22147.76
580.506	22170.29
580.704	21633.72
580.901	21969.58
581.099	21869.23
581.297	21662.39
581.495	21699.25
581.692	21752.5
581.89	21822.13
582.088	21813.94
582.285	21621.43
582.483	21590.71
582.681	21459.64
582.878	21306.04
583.076	21160.64
583.274	21097.15
583.471	21013.18
583.669	21125.82
583.866	20781.76
584.064	21166.78
584.262	20599.49
584.459	21013.18
584.657	20708.04
584.854	21179.07
585.052	20779.71
585.249	20796.1
585.447	20857.54
585.644	20499.14
585.841	20497.1
586.039	20628.17
586.236	20290.25
586.434	20282.06
586.631	20280.01
586.828	20196.04
587.026	20249.29
587.223	20058.83
587.42	20167.37
587.618	20009.68
587.815	19729.11
588.012	19868.37
588.21	19778.26
588.407	20003.53
588.604	19800.79
588.801	19532.5
588.999	19725.01
589.196	19516.12
589.393	19651.28
589.59	19614.42
589.787	19520.21
589.984	19397.34
590.182	19448.54
590.379	19342.04
590.576	19026.65
590.773	19186.4
590.97	18983.65
591.167	19270.36
591.364	18905.82
591.561	19260.12
591.758	18537.19
591.955	18684.64
592.152	18911.97
592.349	18877.15
592.546	18471.65
592.743	18817.76
592.94	18481.89
593.137	18451.17
593.334	18557.67
593.531	18344.68
593.727	18340.58
593.924	18537.19
594.121	18014.96
594.318	18352.87
594.515	18135.79
594.712	18160.36
594.908	17988.33
595.105	18055.92
595.302	17986.29
595.499	17779.44
595.696	17881.84
595.892	17656.56
596.089	17824.5
596.286	17582.84
596.482	17523.44
596.679	17537.78
596.876	17431.29
597.072	17548.02
597.269	17292.02
597.466	17007.36
597.662	17707.76
597.859	17136.38
598.055	17226.49
598.252	17212.15
598.448	16925.44
598.645	17081.08
598.841	16972.54
599.038	16876.29
599.234	16939.77
599.431	16777.98
599.627	16724.74
599.824	17017.6
600.02	16546.56
600.217	16653.06
600.413	16573.19
600.609	16515.84
600.806	16552.71
601.002	16458.5
601.198	16315.14
601.395	16175.88
601.591	16280.33
601.787	16352.01
601.984	15702.8
602.18	16380.68
602.376	16005.9
602.572	15917.84
602.769	16028.43
602.965	16089.87
603.161	16118.54
603.357	15848.21
603.553	15825.68
603.75	15895.31
603.946	15756.05
604.142	15686.42
604.338	15510.29
604.534	15637.27
604.73	15461.14
604.926	15295.25
605.122	15401.75
605.318	15375.13
605.514	15346.45
605.71	15285.01
605.906	15235.86
606.102	15227.67
606.298	15248.15
606.494	15229.72
606.69	15512.34
606.886	15340.31
607.082	14957.34
607.278	15127.32
607.474	14979.87
607.67	14951.2
607.866	14478.12
608.062	14834.46
608.257	14600.99
608.453	14818.08
608.649	14707.49
608.845	14748.45
609.041	14775.07
609.236	14813.98
609.432	14523.17
609.628	14748.45
609.824	14644
610.019	14564.13
610.215	14646.05
610.411	14379.81
610.606	14416.68
610.802	14474.02
610.998	14424.87
611.193	14633.76
611.389	14437.16
611.584	14367.52
611.78	14156.58
611.976	14146.34
612.171	14080.81
612.367	14322.47
612.562	14279.46
612.758	13859.63
612.953	13886.25
613.149	14015.27
613.344	13865.77
613.539	14240.55
613.735	14351.14
613.93	14052.14
614.126	13671.22
614.321	14002.99
614.517	13833
614.712	13785.9
614.907	13847.34
615.103	13814.57
615.298	13925.16
615.493	13808.43
615.688	13568.82
615.884	13951.79
616.079	13351.73
616.274	13609.78
616.47	13624.11
616.665	13644.59
616.86	13433.65
617.055	13304.63
617.25	13398.84
617.445	13687.6
617.641	13044.54
617.836	13474.61
618.031	13191.99
618.226	13247.29
618.421	13312.82
618.616	13331.25
618.811	13157.18
619.006	13368.12
619.201	13007.67
619.396	13226.81
619.591	12927.8
619.786	12819.26
619.981	12800.83
620.176	12667.71
620.371	12387.14
620.566	12534.59
620.761	12442.43
620.956	12602.18
621.151	12526.4
621.346	12487.49
621.541	12315.46
621.735	12417.86
621.93	12278.6
622.125	12278.6
622.32	12012.36
622.515	11950.92
622.709	12211.01
622.904	12016.46
623.099	11860.81
623.294	11979.59
623.488	11670.35
623.683	11961.16
623.878	11598.67
624.072	11643.73
624.267	11514.7
624.462	11504.46
624.656	11481.94
624.851	11467.6
625.046	11180.89
625.24	11543.38
625.435	11041.62
625.629	11348.82
625.824	11262.8
626.018	11125.59
626.213	10765.15
626.407	10728.28
626.602	10765.15
626.796	10986.33
626.991	10994.52
627.185	10822.49
627.38	10492.77
627.574	10599.26
627.768	10449.76
627.963	10431.33
628.157	10523.49
628.352	10355.55
628.546	10328.93
628.74	10320.74
628.935	9927.53
629.129	10068.84
629.323	10052.45
629.517	10001.26
629.712	9991.02
629.906	9755.5
630.1	9747.31
630.294	9749.36
630.489	9667.44
630.683	9661.29
630.877	9681.77
631.071	9636.72
631.265	9724.78
631.459	9638.76
631.653	9526.13
631.848	9417.58
632.042	9298.8
632.236	9554.8
632.43	9343.86
632.624	9397.1
632.818	8952.7
633.012	9354.1
633.206	9118.58
633.4	8987.51
633.594	8911.74
633.788	8813.43
633.982	8944.5
634.176	8860.54
634.369	8643.45
634.563	8745.85
634.757	8670.08
634.951	8553.34
635.145	8743.8
635.339	8629.12
635.533	8659.84
635.726	8698.75
635.92	8526.72
636.114	8315.78
636.308	8104.84
636.501	8362.88
636.695	8452.99
636.889	8186.76
637.083	8100.74
637.276	8188.8
637.47	8098.69
637.664	8076.16
637.857	8033.16
638.051	7910.28
638.244	8110.98
638.438	8004.49
638.632	7768.97
638.825	7857.03
639.019	7693.19
639.212	7642
639.406	7857.03
639.599	7474.06
639.793	7633.8
639.986	7537.55
640.18	7521.17
640.373	7369.62
640.567	7449.49
640.76	7500.69
640.954	7297.94
641.147	7242.64
641.34	7277.46
641.534	7158.67
641.727	7199.63
641.92	7228.31
642.114	7205.78
642.307	7252.88
642.5	7050.13
642.694	7003.03
642.887	6730.65
643.08	6990.74
643.273	6988.69
643.467	6937.49
643.66	6785.94
643.853	6865.82
644.046	6673.31
644.239	6652.83
644.432	6794.14
644.626	6544.28
644.819	6581.15
645.012	6556.57
645.205	6607.77
645.398	6458.27
645.591	6513.56
645.784	6417.31
645.977	6280.1
646.17	6560.67
646.363	6411.17
646.556	6325.15
646.749	6206.37
646.942	6196.13
647.135	6089.64
647.328	6290.34
647.521	6235.04
647.714	6179.75
647.907	5962.66
648.099	5997.48
648.292	6183.84
648.485	5774.25
648.678	5809.06
648.871	5856.17
649.064	5909.41
649.256	5872.55
649.449	5923.75
649.642	5782.44
649.835	5733.29
650.027	5731.24
650.22	5794.73
650.413	5692.33
650.605	5630.89
650.798	5641.13
650.991	5641.13
651.183	5483.44
651.376	5569.45
651.568	5422
651.761	5508.01
651.954	5403.57
652.146	5520.3
652.339	5178.29
652.531	5372.85
652.724	5370.8
652.916	5249.97
653.109	5159.86
653.301	5331.89
653.494	5335.98
653.686	5176.24
653.879	5194.67
654.071	5260.21
654.263	5057.46
654.456	5200.82
654.648	5090.23
654.84	4963.25
655.033	5059.51
655.225	5006.26
655.417	4932.53
655.61	5122.99
655.802	4832.18
655.994	4834.23
656.186	4750.26
656.379	4811.7
656.571	4881.33
656.763	4713.4
656.955	4867
657.148	4711.35
657.34	4600.76
657.532	4529.08
657.724	4594.62
657.916	4715.45
658.108	4711.35
658.3	4545.47
658.492	4535.23
658.684	4455.36
658.876	4555.71
659.068	4424.64
659.26	4414.4
659.452	4488.12
659.644	4459.45
659.836	4334.53
660.028	4447.16
660.22	4189.12
660.412	4230.08
660.604	4299.71
660.796	4301.76
660.988	4152.26
661.18	4115.39
661.372	4129.73
661.563	4246.46
661.755	4086.72
661.947	4195.26
662.139	4078.53
662.331	4135.87
662.522	4101.06
662.714	3890.12
662.906	4146.11
663.097	4062.15
663.289	4103.11
663.481	3955.65
663.673	3990.47
663.864	3910.6
664.056	3953.6
664.247	3914.69
664.439	3881.92
664.631	3980.23
664.822	3980.23
665.014	3816.39
665.205	3857.35
665.397	3800.01
665.588	3857.35
665.78	3685.32
665.971	3783.62
666.163	3838.92
666.354	3693.51
666.546	3537.87
666.737	3535.82
666.929	3607.5
667.12	3650.5
667.311	3630.02
667.503	3685.32
667.694	3660.74
667.885	3437.52
668.077	3593.16
668.268	3439.56
668.459	3480.52
668.651	3402.7
668.842	3568.59
669.033	3447.76
669.224	3386.32
669.416	3466.19
669.607	3492.81
669.798	3472.33
669.989	3328.97
670.18	3468.24
670.371	3292.11
670.563	3208.14
670.754	3380.17
670.945	3251.15
671.136	3304.4
671.327	3253.2
671.518	3220.43
671.709	3361.74
671.9	3365.84
672.091	3417.04
672.282	3277.77
672.473	3204.05
672.664	3095.5
672.855	3179.47
673.046	3161.04
673.237	3171.28
673.428	3136.46
673.619	3189.71
673.809	3005.39
674	3142.61
674.191	3007.44
674.382	3120.08
674.573	3042.26
674.764	3062.74
674.954	3062.74
675.145	2980.82
675.336	2896.85
675.527	3025.87
675.717	2982.87
675.908	2972.63
676.099	2898.9
676.289	2999.25
676.48	2917.33
676.671	2913.24
676.861	3075.03
677.052	2939.86
677.243	2943.96
677.433	2837.46
677.624	3001.3
677.814	2878.42
678.005	2956.24
678.195	2833.36
678.386	2868.18
678.576	2890.71
678.767	2925.52
678.957	2821.08
679.148	2825.17
679.338	2800.6
679.529	2866.13
679.719	2796.5
679.909	2898.9
680.1	2810.84
680.29	2776.02
680.481	2720.73
680.671	2716.63
680.861	2841.56
681.052	2722.77
681.242	2741.21
681.432	2763.73
681.622	2644.95
681.813	2661.34
682.003	2663.38
682.193	2802.65
682.383	2728.92
682.573	2665.43
682.764	2669.53
682.954	2663.38
683.144	2702.29
683.334	2618.33
683.524	2655.19
683.714	2663.38
683.904	2694.1
684.094	2634.71
684.284	2626.52
684.474	2726.87
684.664	2507.74
684.854	2681.82
685.044	2653.14
685.234	2517.98
685.424	2638.81
685.614	2554.84
685.804	2681.82
685.994	2591.7
686.184	2565.08
686.374	2556.89
686.564	2485.21
686.753	2499.55
686.943	2522.07
687.133	2427.87
687.323	2464.73
687.513	2585.56
687.702	2517.98
687.892	2417.63
688.082	2517.98
688.272	2563.03
688.461	2376.67
688.651	2544.6
688.841	2438.11
689.03	2417.63
689.22	2341.85
689.41	2386.91
689.599	2374.62
689.789	2331.61
689.979	2366.43
690.168	2366.43
690.358	2276.32
690.547	2391
690.737	2374.62
690.926	2339.8
691.116	2268.13
691.305	2372.57
691.495	2243.55
691.684	2235.36
691.874	2163.68
692.063	2196.45
692.252	2286.56
692.442	2077.66
692.631	2196.45
692.82	2186.21
693.01	2249.69
693.199	2190.3
693.388	2108.38
693.578	2032.61
693.767	2161.63
693.956	2087.9
694.146	2071.52
694.335	2122.72
694.524	2092
694.713	2079.71
694.902	2098.14
695.092	2081.76
695.281	2096.1
695.47	2022.37
695.659	2057.18
695.848	2139.1
696.037	2051.04
696.226	2055.14
696.415	1928.16
696.604	1952.74
696.793	2059.23
696.982	2024.42
697.171	1989.6
697.36	2026.47
697.549	2032.61
697.738	1815.52
697.927	1981.41
698.116	1944.55
698.305	2063.33
698.494	1975.27
698.683	1893.35
698.872	2001.89
699.061	1858.53
699.25	1956.83
699.438	2030.56
699.627	1887.2
699.816	2008.03
700.005	2001.89
700.193	1989.6
700.382	1913.83
700.571	1967.07
700.76	1846.24
700.948	2030.56
701.137	1911.78
701.326	1944.55
701.514	1850.34
701.703	1973.22
701.892	2005.99
702.08	1954.79
702.269	2032.61
702.457	1764.33
702.646	1928.16
702.834	1784.8
703.023	1885.16
703.212	1899.49
703.4	1868.77
703.589	1850.34
703.777	1803.24
703.965	1745.89
704.154	1911.78
704.342	1858.53
704.531	1874.92
704.719	1917.92
704.907	1967.07
705.096	1760.23
705.284	1934.31
705.472	1924.07
705.661	1899.49
705.849	1907.68
706.037	1965.03
706.226	1817.57
706.414	1891.3
706.602	1811.43
706.79	1874.92
706.979	1833.96
707.167	1866.72
707.355	1874.92
707.543	1938.4
707.731	1850.34
707.919	1842.15
708.107	1899.49
708.296	1833.96
708.484	1719.27
708.672	1895.4
708.86	1827.81
709.048	1801.19
709.236	1891.3
709.424	1821.67
709.612	1833.96
709.8	1833.96
709.988	1870.82
710.176	1874.92
710.364	1942.5
710.551	1803.24
710.739	1858.53
710.927	1756.13
711.115	1874.92
711.303	1836
711.491	1838.05
711.679	1911.78
711.866	1836
712.054	1760.23
712.242	1772.52
712.43	1842.15
712.617	1942.5
712.805	1811.43
712.993	1874.92
713.181	1842.15
713.368	1907.68
713.556	1907.68
713.744	1801.19
713.931	1977.31
714.119	1829.86
714.306	1919.97
714.494	1756.13
714.682	1829.86
714.869	1897.44
715.057	1858.53
715.244	1737.7
715.432	1889.25
715.619	1883.11
715.807	1827.81
715.994	1858.53
716.182	1817.57
716.369	1903.59
716.556	1932.26
716.744	1917.92
716.931	1858.53
717.119	1956.83
717.306	1729.51
717.493	1917.92
717.681	1780.71
717.868	1891.3
718.055	1956.83
718.242	1874.92
718.43	1907.68
718.617	1889.25
718.804	1874.92
718.991	1803.24
719.179	1907.68
719.366	1956.83
719.553	1977.31
719.74	1854.44
719.927	1885.16
720.114	1780.71
720.301	1917.92
720.488	1874.92
720.676	1948.64
720.863	1842.15
721.05	1860.58
721.237	1856.48
721.424	1897.44
721.611	1872.87
721.798	1891.3
721.985	1895.4
722.172	1782.76
722.358	1913.83
722.545	1907.68
722.732	1846.24
722.919	2014.18
723.106	1883.11
723.293	1860.58
723.48	1950.69
723.667	1848.29
723.853	1854.44
724.04	1946.59
724.227	1809.38
724.414	1946.59
724.6	1876.96
724.787	1948.64
724.974	1891.3
725.161	1844.2
725.347	1868.77
725.534	1895.4
725.72	1948.64
725.907	1817.57
726.094	1846.24
726.28	1911.78
726.467	1838.05
726.653	1866.72
726.84	1899.49
727.027	1942.5
727.213	1948.64
727.4	1825.76
727.586	1850.34
727.773	1952.74
727.959	1965.03
728.145	1803.24
728.332	1893.35
728.518	1874.92
728.705	1983.46
728.891	1948.64
729.077	1932.26
729.264	1842.15
729.45	1868.77
729.636	1848.29
729.823	1842.15
730.009	1932.26
730.195	1870.82
730.382	1997.79
730.568	1833.96
730.754	1956.83
730.94	1909.73
731.126	1977.31
731.313	1993.7
731.499	1905.63
731.685	1858.53
731.871	1915.87
732.057	1962.98
732.243	1825.76
732.429	1913.83
732.615	1907.68
732.801	1932.26
732.987	1954.79
733.173	2001.89
733.359	1885.16
733.545	1854.44
733.731	1874.92
733.917	2022.37
734.103	1893.35
734.289	1915.87
734.475	1895.4
734.661	1989.6
734.847	1997.79
735.033	1907.68
735.219	1981.41
735.404	1909.73
735.59	1868.77
735.776	1924.07
735.962	1928.16
736.148	1919.97
736.333	1936.35
736.519	1842.15
736.705	1987.55
736.89	1891.3
737.076	1881.06
737.262	1827.81
737.447	1846.24
737.633	1895.4
737.819	1817.57
738.004	1786.85
738.19	1907.68
738.375	1772.52
738.561	1940.45
738.747	1874.92
738.932	1809.38
739.118	1922.02
739.303	1801.19
739.489	1833.96
739.674	1850.34
739.859	1768.42
740.045	1854.44
740.23	1793
740.416	1727.46
740.601	1815.52
740.786	1838.05
740.972	1795.04
741.157	1770.47
741.342	1766.37
741.528	1725.41
741.713	1876.96
741.898	1737.7
742.084	1793
742.269	1899.49
742.454	1915.87
742.639	1901.54
742.824	1666.02
743.01	1774.56
743.195	1747.94
743.38	1698.79
743.565	1731.56
743.75	1731.56
743.935	1706.98
744.12	1743.85
744.305	1688.55
744.49	1620.97
744.675	1704.93
744.86	1663.97
745.045	1672.17
745.23	1629.16
745.415	1723.37
745.6	1776.61
745.785	1729.51
745.97	1674.21
746.155	1694.69
746.34	1633.26
746.525	1653.73
746.71	1612.78
746.895	1580.01
747.079	1561.58
747.264	1582.06
747.449	1623.02
747.634	1575.91
747.819	1557.48
748.003	1596.39
748.188	1620.97
748.373	1534.95
748.557	1539.05
748.742	1420.27
748.927	1485.8
749.111	1500.14
749.296	1461.23
749.481	1424.36
749.665	1448.94
749.85	1350.64
750.034	1434.6
750.219	1436.65
750.404	1428.46
750.588	1416.17
750.773	1367.02
750.957	1438.7
751.141	1450.99
751.326	1342.44
751.51	1379.31
751.695	1418.22
751.879	1420.27
752.064	1375.21
752.248	1367.02
752.432	1399.79
752.617	1379.31
752.801	1369.07
752.985	1309.68
753.17	1377.26
753.354	1367.02
753.538	1278.96
753.722	1283.05
753.907	1299.44
754.091	1276.91
754.275	1240.05
754.459	1166.32
754.643	1231.85
754.828	1215.47
755.012	1268.72
755.196	1162.22
755.38	1139.69
755.564	1209.33
755.748	1311.72
755.932	1219.57
756.116	1268.72
756.3	1197.04
756.484	1188.85
756.668	1166.32
756.852	1129.45
757.036	1141.74
757.22	1088.5
757.404	1182.7
757.588	1084.4
757.772	1020.91
757.956	1098.74
758.14	1121.26
758.323	1098.74
758.507	1211.37
758.691	1123.31
758.875	1186.8
759.059	1072.11
759.242	1041.39
759.426	1082.35
759.61	1043.44
759.794	1010.67
759.977	1106.93
760.161	1117.17
760.345	1029.1
760.528	1057.78
760.712	1068.02
760.895	1063.92
761.079	1022.96
761.263	957.43
761.446	990.19
761.63	971.76
761.813	1006.58
761.997	990.19
762.18	926.71
762.364	998.38
762.547	900.08
762.731	959.47
762.914	932.85
763.098	949.23
763.281	1006.58
763.464	957.43
763.648	855.03
763.831	967.67
764.015	910.32
764.198	1027.06
764.381	932.85
764.564	945.14
764.748	910.32
764.931	875.51
765.114	875.51
765.297	916.47
765.481	803.83
765.664	941.04
765.847	834.55
766.03	930.8
766.213	732.15
766.397	834.55
766.58	877.55
766.763	885.75
766.946	861.17
767.129	832.5
767.312	793.59
767.495	879.6
767.678	797.68
767.861	846.84
768.044	826.36
768.227	885.75
768.41	842.74
768.593	871.41
768.776	789.49
768.959	820.21
769.142	867.31
769.324	920.56
769.507	779.25
769.69	779.25
769.873	785.4
770.056	867.31
770.239	756.72
770.421	834.55
770.604	842.74
770.787	838.64
770.97	861.17
771.152	789.49
771.335	814.07
771.518	674.81
771.7	787.44
771.883	740.34
772.066	732.15
772.248	719.86
772.431	807.92
772.613	750.58
772.796	762.87
772.978	732.15
773.161	715.77
773.343	746.48
773.526	719.86
773.708	678.9
773.891	642.04
774.073	666.61
774.256	699.38
774.438	822.26
774.621	691.19
774.803	672.76
774.985	678.9
775.168	664.57
775.35	713.72
775.532	621.56
775.715	642.04
775.897	769.01
776.079	654.33
776.261	687.09
776.444	639.99
776.626	650.23
776.808	605.17
776.99	623.61
777.173	621.56
777.355	664.57
777.537	623.61
777.719	660.47
777.901	582.65
778.083	605.17
778.265	635.89
778.447	654.33
778.629	607.22
778.811	637.94
778.993	590.84
779.175	619.51
779.357	613.37
779.539	525.3
779.721	510.97
779.903	644.09
780.085	549.88
780.267	572.41
780.449	588.79
780.631	607.22
780.812	566.26
780.994	556.02
781.176	474.1
781.358	564.22
781.54	590.84
781.721	558.07
781.903	504.82
782.085	500.73
782.267	568.31
782.448	515.06
782.63	476.15
782.812	504.82
782.993	541.69
783.175	566.26
783.357	478.2
783.538	478.2
783.72	547.83
783.901	506.87
784.083	515.06
784.264	412.67
784.446	400.38
784.627	445.43
784.809	470.01
784.99	480.25
785.172	457.72
785.353	410.62
785.535	433.15
785.716	418.81
785.897	412.67
786.079	375.8
786.26	465.91
786.441	500.73
786.623	406.52
786.804	492.54
786.985	453.63
787.167	398.33
787.348	445.43
787.529	424.95
787.71	431.1
787.891	392.19
788.073	361.47
788.254	369.66
788.435	443.39
788.616	379.9
788.797	394.23
788.978	386.04
789.159	392.19
789.34	373.75
789.522	367.61
789.703	320.51
789.884	353.27
790.065	355.32
790.246	418.81
790.427	345.08
790.607	371.71
790.788	334.84
790.969	265.21
791.15	379.9
791.331	396.28
791.512	310.27
791.693	392.19
791.874	324.6
792.054	371.71
792.235	396.28
792.416	289.79
792.597	316.41
792.778	320.51
792.958	367.61
793.139	371.71
793.32	449.53
793.5	310.27
793.681	383.99
793.862	392.19
794.042	269.31
794.223	263.16
794.404	289.79
794.584	261.12
794.765	273.4
794.945	238.59
795.126	330.75
795.306	336.89
795.487	232.44
795.667	295.93
795.848	302.08
796.028	285.69
796.209	269.31
796.389	361.47
796.57	293.88
796.75	224.25
796.93	330.75
797.111	183.29
797.291	234.49
797.471	248.83
797.652	271.36
797.832	216.06
798.012	328.7
798.192	201.72
798.373	287.74
798.553	238.59
798.733	261.12
798.913	211.96
799.093	236.54
799.274	183.29
799.454	277.5
799.634	216.06
799.814	275.45
799.994	207.87
800.174	211.96
800.354	283.64
800.534	191.49
800.714	254.97
800.894	220.16
801.074	207.87
801.254	222.2
801.434	250.88
801.614	240.64
801.794	205.82
801.974	777.2
802.154	171.01
802.334	218.11
802.514	261.12
802.693	246.78
802.873	205.82
803.053	220.16
803.233	164.86
803.413	171.01
803.592	175.1
803.772	209.92
803.952	150.53
804.131	222.2
804.311	195.58
804.491	244.73
804.67	187.39
804.85	232.44
805.03	283.64
805.209	224.25
805.389	164.86
805.568	203.77
805.748	191.49
805.928	211.96
806.107	238.59
806.287	228.35
806.466	154.62
806.646	138.24
806.825	175.1
807.004	220.16
807.184	179.2
807.363	236.54
807.543	209.92
807.722	162.81
807.901	261.12
808.081	171.01
808.26	66.56
808.439	181.25
808.619	162.81
808.798	203.77
808.977	142.33
809.156	193.53
809.336	238.59
809.515	295.93
809.694	187.39
809.873	175.1
810.052	244.73
810.231	158.72
810.411	173.05
810.59	121.85
810.769	181.25
810.948	179.2
811.127	130.05
811.306	132.09
811.485	130.05
811.664	187.39
811.843	113.66
812.022	187.39
812.201	142.33
812.38	162.81
812.559	173.05
812.737	132.09
812.916	130.05
813.095	132.09
813.274	156.67
813.453	203.77
813.632	115.71
813.811	183.29
813.989	146.43
814.168	132.09
814.347	121.85
814.526	171.01
814.704	209.92
814.883	166.91
815.062	138.24
815.24	181.25
815.419	117.76
815.598	205.82
815.776	113.66
815.955	117.76
816.133	72.7
816.312	140.29
816.49	109.57
816.669	150.53
816.847	132.09
817.026	146.43
817.204	52.22
817.383	115.71
817.561	134.14
817.74	179.2
817.918	154.62
818.097	193.53
818.275	130.05
818.453	136.19
818.632	134.14
818.81	166.91
818.988	107.52
819.167	140.29
819.345	148.48
819.523	125.95
819.701	66.56
819.879	142.33
820.058	99.33
820.236	185.34
820.414	113.66
820.592	152.57
820.77	89.09
820.948	97.28
821.127	82.94
821.305	121.85
821.483	58.37
821.661	154.62
821.839	162.81
822.017	113.66
822.195	109.57
822.373	107.52
822.551	134.14
822.729	125.95
822.907	130.05
823.085	193.53
823.262	154.62
823.44	84.99
823.618	111.61
823.796	189.44
823.974	154.62
824.152	121.85
824.329	17.41
824.507	80.89
824.685	95.23
824.863	175.1
825.04	97.28
825.218	146.43
825.396	113.66
825.574	138.24
825.751	166.91
825.929	70.65
826.107	56.32
826.284	103.42
826.462	56.32
826.639	117.76
826.817	113.66
826.994	33.79
827.172	80.89
827.349	56.32
827.527	136.19
827.704	130.05
827.882	91.13
828.059	44.03
828.237	13.31
828.414	119.81
828.591	117.76
828.769	121.85
828.946	68.61
829.124	66.56
829.301	162.81
829.478	7.17
829.655	35.84
829.833	11.26
830.01	60.42
830.187	119.81
830.364	115.71
830.542	84.99
830.719	138.24
830.896	105.47
831.073	27.65
831.25	140.29
831.427	99.33
831.604	80.89
831.782	29.7
831.959	64.51
832.136	103.42
832.313	105.47
832.49	50.18
832.667	84.99
832.844	33.79
833.021	181.25
833.198	19.46
833.374	64.51
833.551	97.28
833.728	-13.31
833.905	107.52
834.082	23.55
834.259	109.57
834.436	105.47
834.612	37.89
834.789	97.28
834.966	101.37
835.143	68.61
835.319	154.62
835.496	121.85
835.673	123.9
835.85	138.24
836.026	101.37
836.203	60.42
836.38	23.55
836.556	52.22
836.733	54.27
836.909	99.33
837.086	103.42
837.262	50.18
837.439	44.03
837.616	11.26
837.792	9.22
837.968	52.22
838.145	-7.17
838.321	48.13
838.498	80.89
838.674	68.61
838.851	84.99
839.027	74.75
839.203	64.51
839.38	158.72
839.556	31.74
839.732	80.89
839.909	123.9
840.085	44.03
840.261	27.65
840.437	56.32
840.614	19.46
840.79	142.33
840.966	68.61
841.142	89.09
841.318	27.65
841.494	31.74
841.671	142.33
841.847	-3.07
842.023	17.41
842.199	3.07
842.375	121.85
842.551	48.13
842.727	31.74
842.903	91.13
843.079	76.8
843.255	80.89
843.431	107.52
843.607	66.56
843.783	29.7
843.959	-9.22
844.134	15.36
844.31	107.52
844.486	41.98
844.662	-50.18
844.838	82.94
845.013	105.47
845.189	66.56
845.365	72.7
845.541	-25.6
845.716	60.42
845.892	93.18
846.068	105.47
846.244	39.94
846.419	80.89
846.595	-15.36
846.77	7.17
846.946	68.61
847.122	142.33
847.297	68.61
847.473	80.89
847.648	76.8
847.824	33.79
847.999	-15.36
848.175	31.74
848.35	87.04
848.526	7.17
848.701	5.12
848.876	82.94
849.052	35.84
849.227	11.26
849.403	27.65
849.578	39.94
849.753	15.36
849.929	41.98
850.104	19.46
850.279	105.47
850.454	-21.5
850.63	103.42
850.805	7.17
850.98	7.17
851.155	82.94
851.33	48.13
851.505	35.84
851.681	-21.5
851.856	99.33
852.031	130.05
852.206	15.36
852.381	-1.02
852.556	1.02
852.731	23.55
852.906	60.42
853.081	74.75
853.256	142.33
853.431	89.09
853.606	33.79
853.781	93.18
853.956	-64.51
854.131	76.8
854.305	39.94
854.48	25.6
854.655	31.74
854.83	-7.17
855.005	72.7
855.18	105.47
855.354	-13.31
855.529	58.37
855.704	27.65
855.879	97.28
856.053	-1.02
856.228	46.08
856.403	23.55
856.577	60.42
856.752	-11.26
856.926	105.47
857.101	60.42
857.276	29.7
857.45	-7.17
857.625	31.74
857.799	-25.6
857.974	48.13
858.148	1.02
858.323	33.79
858.497	1.02
858.672	19.46
858.846	41.98
859.02	-1.02
859.195	-17.41
859.369	101.37
859.543	-1.02
859.718	3.07
859.892	-21.5
860.066	1.02
860.241	-37.89
860.415	41.98
860.589	56.32
860.763	-1.02
860.938	7.17
861.112	39.94
861.286	15.36
861.46	44.03
861.634	41.98
861.808	78.85
861.982	-23.55
862.157	-17.41
862.331	46.08
862.505	31.74
862.679	7.17
862.853	-17.41
863.027	72.7
863.201	64.51
863.375	56.32
863.549	89.09
863.722	72.7
863.896	64.51
864.07	15.36
864.244	-9.22
864.418	48.13
864.592	35.84
864.766	35.84
864.939	60.42
865.113	-37.89
865.287	-1.02
865.461	15.36
865.634	1.02
865.808	-44.03
865.982	48.13
866.156	3.07
866.329	-87.04
866.503	93.18
866.676	39.94
866.85	66.56
867.024	23.55
867.197	-9.22
867.371	-13.31
867.544	33.79
867.718	66.56
867.891	37.89
868.065	17.41
868.238	-31.74
868.412	70.65
868.585	44.03
868.759	41.98
868.932	15.36
869.105	15.36
869.279	31.74
869.452	56.32
869.625	1.02
869.799	-7.17
869.972	58.37
870.145	-56.32
870.319	33.79
870.492	19.46
870.665	23.55
870.838	-29.7
871.011	-21.5
871.185	87.04
871.358	-21.5
871.531	1.02
871.704	-33.79
871.877	56.32
872.05	31.74
872.223	72.7
872.396	3.07
872.569	-48.13
872.742	-21.5
872.915	58.37
873.088	72.7
873.261	50.18
873.434	-19.46
873.607	74.75
873.78	29.7
873.953	-52.22
874.126	23.55
874.299	7.17
874.471	-23.55
874.644	48.13
874.817	41.98
874.99	93.18
875.163	11.26
875.335	9.22
875.508	7.17
875.681	-80.89
875.853	-7.17
876.026	3.07
876.199	-50.18
876.371	1.02
876.544	3.07
876.717	19.46
876.889	-48.13
877.062	15.36
877.234	-37.89
877.407	-25.6
877.579	134.14
877.752	-13.31
877.924	44.03
878.097	72.7
878.269	23.55
878.442	54.27
878.614	72.7
878.786	-9.22
878.959	64.51
879.131	105.47
879.303	-29.7
879.476	74.75
879.648	13.31
879.82	19.46
879.993	58.37
880.165	44.03
880.337	7.17
880.509	1.02
880.681	33.79
880.854	17.41
881.026	-41.98
881.198	56.32
881.37	17.41
881.542	-1.02
881.714	23.55
881.886	33.79
882.058	-58.37
882.23	-7.17
882.402	-52.22
882.574	-25.6
882.746	72.7
882.918	15.36
883.09	41.98
883.262	1.02
883.434	7.17
883.606	-9.22
883.778	25.6
883.95	35.84
884.122	64.51
884.293	78.85
884.465	-1.02
884.637	15.36
884.809	31.74
884.98	7.17
885.152	-13.31
885.324	-13.31
885.496	-17.41
885.667	52.22
885.839	29.7
886.011	39.94
886.182	-17.41
886.354	-1.02
886.525	27.65
886.697	44.03
886.869	21.5
887.04	-33.79
887.212	13.31
887.383	35.84
887.555	99.33
887.726	-11.26
887.897	-56.32
888.069	3.07
888.24	109.57
888.412	-5.12
888.583	33.79
888.754	-46.08
888.926	-66.56
889.097	15.36
889.268	-80.89
889.44	35.84
889.611	-54.27
889.782	-82.94
889.953	-15.36
890.125	21.5
890.296	9.22
890.467	-31.74
890.638	-13.31
890.809	39.94
890.98	-15.36
891.151	-23.55
891.323	68.61
891.494	48.13
891.665	31.74
891.836	-58.37
892.007	50.18
892.178	1.02
892.349	11.26
892.52	-23.55
892.691	31.74
892.862	15.36
893.032	60.42
893.203	27.65
893.374	46.08
893.545	74.75
893.716	-48.13
893.887	107.52
894.057	25.6
894.228	15.36
894.399	-15.36
894.57	9.22
894.74	39.94
894.911	-31.74
895.082	93.18
895.253	-48.13
895.423	5.12
895.594	72.7
895.764	35.84
895.935	-25.6
896.106	17.41
896.276	-33.79
896.447	13.31
896.617	-9.22
896.788	-58.37
896.958	7.17
897.129	17.41
897.299	17.41
897.47	48.13
897.64	27.65
897.81	-23.55
897.981	21.5
898.151	-21.5
898.322	17.41
898.492	21.5
898.662	60.42
898.832	35.84
899.003	-37.89
899.173	-31.74
899.343	56.32
899.513	44.03
