Data from USB4F104151__210__14-45-24-968.txt Node

Date: Thu Mar 13 14:45:24 EDT 2025
User: louis
Spectrometer: USB4F10415
Trigger mode: 4
Integration Time (sec): 2.000000E-2
Scans to average: 1
Electric dark correction enabled: true
Nonlinearity correction enabled: false
Boxcar width: 0
XAxis mode: Wavelengths
Number of Pixels in Spectrum: 3648
>>>>>Begin Spectral Data<<<<<
178.204	-38.4
178.424	-38.4
178.644	-38.4
178.864	-134.65
179.084	-87.55
179.304	0.51
179.524	-44.54
179.744	55.81
179.964	55.81
180.184	51.71
180.404	-22.02
180.624	43.52
180.844	14.85
181.064	-75.26
181.283	-42.5
181.503	-32.26
181.723	-5.63
181.943	-7.68
182.163	109.05
182.383	70.14
182.602	39.42
182.822	-58.88
183.042	80.38
183.262	-13.82
183.482	-67.07
183.701	8.7
183.921	59.9
184.141	12.8
184.361	84.48
184.58	70.14
184.8	39.42
185.02	51.71
185.239	-5.63
185.459	-19.97
185.679	64
185.898	0.51
186.118	92.67
186.338	76.29
186.557	25.09
186.777	33.28
186.997	-17.92
187.216	41.47
187.436	59.9
187.655	72.19
187.875	53.76
188.095	55.81
188.314	74.24
188.534	154.11
188.753	88.57
188.973	96.77
189.192	45.57
189.412	14.85
189.631	-34.3
189.851	72.19
190.07	23.04
190.29	55.81
190.509	47.62
190.729	-5.63
190.948	6.66
191.168	127.49
191.387	129.53
191.607	-9.73
191.826	-9.73
192.045	39.42
192.265	74.24
192.484	23.04
192.704	72.19
192.923	-30.21
193.142	64
193.362	49.66
193.581	113.15
193.8	113.15
194.02	55.81
194.239	14.85
194.458	18.94
194.678	6.66
194.897	57.86
195.116	88.57
195.335	78.33
195.555	39.42
195.774	-9.73
195.993	57.86
196.212	39.42
196.432	131.58
196.651	49.66
196.87	35.33
197.089	145.92
197.308	88.57
197.528	18.94
197.747	-1.54
197.966	6.66
198.185	88.57
198.404	-9.73
198.623	51.71
198.842	31.23
199.062	88.57
199.281	98.81
199.5	-46.59
199.719	14.85
199.938	61.95
200.157	55.81
200.376	72.19
200.595	57.86
200.814	6.66
201.033	-1.54
201.252	98.81
201.471	55.81
201.69	47.62
201.909	4.61
202.128	43.52
202.347	104.96
202.566	43.52
202.785	8.7
203.004	47.62
203.223	172.54
203.442	137.73
203.661	121.34
203.879	33.28
204.098	14.85
204.317	-9.73
204.536	66.05
204.755	-34.3
204.974	104.96
205.193	92.67
205.411	31.23
205.63	12.8
205.849	51.71
206.068	37.38
206.287	80.38
206.505	154.11
206.724	64
206.943	98.81
207.162	47.62
207.381	-34.3
207.599	6.66
207.818	86.53
208.037	55.81
208.255	35.33
208.474	64
208.693	78.33
208.911	25.09
209.13	-32.26
209.349	39.42
209.567	37.38
209.786	39.42
210.005	55.81
210.223	43.52
210.442	27.14
210.661	96.77
210.879	88.57
211.098	23.04
211.316	43.52
211.535	23.04
211.753	-26.11
211.972	33.28
212.191	47.62
212.409	27.14
212.628	121.34
212.846	72.19
213.065	25.09
213.283	125.44
213.502	31.23
213.72	41.47
213.938	66.05
214.157	-34.3
214.375	57.86
214.594	-1.54
214.812	66.05
215.031	66.05
215.249	6.66
215.467	80.38
215.686	66.05
215.904	41.47
216.122	18.94
216.341	113.15
216.559	23.04
216.778	104.96
216.996	117.25
217.214	10.75
217.432	0.51
217.651	14.85
217.869	12.8
218.087	107.01
218.306	53.76
218.524	-17.92
218.742	-5.63
218.96	-1.54
219.179	49.66
219.397	51.71
219.615	98.81
219.833	129.53
220.051	-15.87
220.27	102.91
220.488	4.61
220.706	-1.54
220.924	-1.54
221.142	-34.3
221.36	25.09
221.578	55.81
221.796	-17.92
222.015	-32.26
222.233	-19.97
222.451	57.86
222.669	43.52
222.887	55.81
223.105	72.19
223.323	18.94
223.541	55.81
223.759	55.81
223.977	-38.4
224.195	47.62
224.413	49.66
224.631	51.71
224.849	33.28
225.067	98.81
225.285	53.76
225.503	33.28
225.721	-40.45
225.939	64
226.157	59.9
226.375	117.25
226.592	72.19
226.81	23.04
227.028	78.33
227.246	49.66
227.464	51.71
227.682	82.43
227.9	39.42
228.117	66.05
228.335	98.81
228.553	72.19
228.771	25.09
228.989	184.83
229.206	-15.87
229.424	4.61
229.642	23.04
229.86	-73.21
230.077	27.14
230.295	47.62
230.513	18.94
230.731	55.81
230.948	80.38
231.166	92.67
231.384	90.62
231.601	25.09
231.819	80.38
232.037	10.75
232.254	45.57
232.472	88.57
232.689	59.9
232.907	37.38
233.125	51.71
233.342	35.33
233.56	33.28
233.777	45.57
233.995	86.53
234.213	104.96
234.43	18.94
234.648	-50.69
234.865	-1.54
235.083	61.95
235.3	41.47
235.518	102.91
235.735	145.92
235.953	31.23
236.17	53.76
236.388	23.04
236.605	61.95
236.822	59.9
237.04	-19.97
237.257	49.66
237.475	43.52
237.692	49.66
237.909	80.38
238.127	-22.02
238.344	66.05
238.562	82.43
238.779	-50.69
238.996	14.85
239.214	2.56
239.431	43.52
239.648	96.77
239.865	47.62
240.083	-5.63
240.3	2.56
240.517	92.67
240.735	88.57
240.952	90.62
241.169	68.09
241.386	49.66
241.603	113.15
241.821	-32.26
242.038	68.09
242.255	-24.06
242.472	27.14
242.689	31.23
242.907	57.86
243.124	2.56
243.341	47.62
243.558	2.56
243.775	64
243.992	0.51
244.209	90.62
244.426	92.67
244.643	76.29
244.86	47.62
245.078	25.09
245.295	125.44
245.512	59.9
245.729	-13.82
245.946	68.09
246.163	51.71
246.38	39.42
246.597	74.24
246.814	55.81
247.031	-1.54
247.248	49.66
247.464	-13.82
247.681	31.23
247.898	18.94
248.115	-19.97
248.332	27.14
248.549	88.57
248.766	41.47
248.983	2.56
249.2	39.42
249.417	-1.54
249.633	84.48
249.85	84.48
250.067	82.43
250.284	51.71
250.501	53.76
250.717	55.81
250.934	-1.54
251.151	37.38
251.368	76.29
251.585	74.24
251.801	121.34
252.018	33.28
252.235	74.24
252.451	45.57
252.668	8.7
252.885	-1.54
253.102	35.33
253.318	61.95
253.535	123.39
253.752	49.66
253.968	86.53
254.185	18.94
254.401	-1.54
254.618	96.77
254.835	88.57
255.051	88.57
255.268	66.05
255.484	64
255.701	49.66
255.917	4.61
256.134	8.7
256.351	37.38
256.567	-26.11
256.784	-1.54
257	-9.73
257.217	45.57
257.433	-40.45
257.65	98.81
257.866	59.9
258.082	-9.73
258.299	45.57
258.515	76.29
258.732	14.85
258.948	55.81
259.165	-3.58
259.381	-17.92
259.597	0.51
259.814	51.71
260.03	113.15
260.246	4.61
260.463	104.96
260.679	74.24
260.895	25.09
261.112	33.28
261.328	33.28
261.544	-13.82
261.761	150.01
261.977	51.71
262.193	25.09
262.409	68.09
262.626	45.57
262.842	16.9
263.058	27.14
263.274	82.43
263.49	47.62
263.707	76.29
263.923	64
264.139	49.66
264.355	2.56
264.571	41.47
264.787	14.85
265.004	55.81
265.22	45.57
265.436	45.57
265.652	-17.92
265.868	41.47
266.084	-30.21
266.3	55.81
266.516	8.7
266.732	41.47
266.948	12.8
267.164	111.1
267.38	113.15
267.596	31.23
267.812	104.96
268.028	80.38
268.244	37.38
268.46	-26.11
268.676	31.23
268.892	66.05
269.108	39.42
269.324	20.99
269.54	25.09
269.756	-1.54
269.972	-9.73
270.188	20.99
270.403	-32.26
270.619	31.23
270.835	29.18
271.051	16.9
271.267	33.28
271.483	55.81
271.698	-1.54
271.914	33.28
272.13	64
272.346	-7.68
272.562	-1.54
272.777	72.19
272.993	23.04
273.209	20.99
273.425	6.66
273.64	10.75
273.856	68.09
274.072	18.94
274.287	6.66
274.503	-22.02
274.719	59.9
274.934	35.33
275.15	-69.12
275.366	39.42
275.581	2.56
275.797	64
276.012	23.04
276.228	72.19
276.444	76.29
276.659	88.57
276.875	33.28
277.09	33.28
277.306	-5.63
277.521	104.96
277.737	27.14
277.952	-19.97
278.168	80.38
278.383	49.66
278.599	-7.68
278.814	64
279.03	92.67
279.245	64
279.461	47.62
279.676	84.48
279.892	57.86
280.107	43.52
280.322	51.71
280.538	107.01
280.753	86.53
280.969	59.9
281.184	57.86
281.399	125.44
281.615	72.19
281.83	96.77
282.045	6.66
282.26	8.7
282.476	6.66
282.691	0.51
282.906	90.62
283.122	90.62
283.337	-67.07
283.552	-9.73
283.767	12.8
283.983	104.96
284.198	51.71
284.413	33.28
284.628	-17.92
284.843	76.29
285.058	82.43
285.274	61.95
285.489	14.85
285.704	57.86
285.919	-9.73
286.134	23.04
286.349	8.7
286.564	8.7
286.779	109.05
286.995	59.9
287.21	-40.45
287.425	104.96
287.64	16.9
287.855	92.67
288.07	8.7
288.285	82.43
288.5	0.51
288.715	0.51
288.93	25.09
289.145	-13.82
289.36	14.85
289.575	31.23
289.79	72.19
290.004	80.38
290.219	41.47
290.434	27.14
290.649	4.61
290.864	-32.26
291.079	88.57
291.294	74.24
291.509	96.77
291.724	2.56
291.938	51.71
292.153	117.25
292.368	64
292.583	-7.68
292.798	94.72
293.012	76.29
293.227	31.23
293.442	-24.06
293.657	104.96
293.871	35.33
294.086	18.94
294.301	131.58
294.516	72.19
294.73	-9.73
294.945	51.71
295.16	49.66
295.374	41.47
295.589	0.51
295.804	20.99
296.018	72.19
296.233	39.42
296.447	82.43
296.662	41.47
296.877	104.96
297.091	72.19
297.306	-50.69
297.52	74.24
297.735	6.66
297.949	23.04
298.164	141.82
298.378	31.23
298.593	47.62
298.807	-58.88
299.022	23.04
299.236	66.05
299.451	6.66
299.665	6.66
299.88	0.51
300.094	113.15
300.309	27.14
300.523	41.47
300.737	29.18
300.952	14.85
301.166	59.9
301.381	82.43
301.595	55.81
301.809	59.9
302.024	66.05
302.238	10.75
302.452	82.43
302.667	8.7
302.881	82.43
303.095	43.52
303.309	51.71
303.524	-17.92
303.738	-38.4
303.952	31.23
304.166	66.05
304.381	59.9
304.595	107.01
304.809	35.33
305.023	82.43
305.237	47.62
305.452	51.71
305.666	104.96
305.88	10.75
306.094	80.38
306.308	33.28
306.522	6.66
306.736	23.04
306.95	37.38
307.164	51.71
307.379	80.38
307.593	55.81
307.807	55.81
308.021	33.28
308.235	31.23
308.449	-9.73
308.663	92.67
308.877	107.01
309.091	18.94
309.305	57.86
309.519	-9.73
309.733	66.05
309.947	-13.82
310.161	96.77
310.374	35.33
310.588	6.66
310.802	64
311.016	-13.82
311.23	59.9
311.444	33.28
311.658	64
311.872	121.34
312.085	68.09
312.299	121.34
312.513	84.48
312.727	80.38
312.941	16.9
313.154	113.15
313.368	-9.73
313.582	43.52
313.796	59.9
314.009	51.71
314.223	88.57
314.437	27.14
314.651	59.9
314.864	27.14
315.078	14.85
315.292	64
315.505	16.9
315.719	121.34
315.933	68.09
316.146	49.66
316.36	18.94
316.573	98.81
316.787	31.23
317.001	64
317.214	57.86
317.428	8.7
317.641	39.42
317.855	41.47
318.068	-9.73
318.282	31.23
318.495	74.24
318.709	47.62
318.922	98.81
319.136	113.15
319.349	47.62
319.563	23.04
319.776	6.66
319.99	49.66
320.203	51.71
320.417	6.66
320.63	86.53
320.843	76.29
321.057	23.04
321.27	86.53
321.483	104.96
321.697	96.77
321.91	68.09
322.124	-38.4
322.337	37.38
322.55	37.38
322.763	-38.4
322.977	43.52
323.19	80.38
323.403	90.62
323.617	27.14
323.83	47.62
324.043	18.94
324.256	-1.54
324.469	23.04
324.683	92.67
324.896	47.62
325.109	47.62
325.322	-44.54
325.535	96.77
325.748	55.81
325.962	55.81
326.175	39.42
326.388	96.77
326.601	-22.02
326.814	35.33
327.027	84.48
327.24	88.57
327.453	57.86
327.666	35.33
327.879	49.66
328.092	84.48
328.305	55.81
328.518	41.47
328.731	33.28
328.944	76.29
329.157	41.47
329.37	137.73
329.583	76.29
329.796	107.01
330.009	8.7
330.222	59.9
330.435	72.19
330.648	47.62
330.861	8.7
331.073	109.05
331.286	35.33
331.499	-1.54
331.712	33.28
331.925	18.94
332.138	90.62
332.35	37.38
332.563	68.09
332.776	92.67
332.989	39.42
333.202	20.99
333.414	29.18
333.627	72.19
333.84	80.38
334.053	76.29
334.265	53.76
334.478	68.09
334.691	-26.11
334.903	-26.11
335.116	25.09
335.329	0.51
335.541	47.62
335.754	59.9
335.966	2.56
336.179	25.09
336.392	23.04
336.604	78.33
336.817	8.7
337.029	31.23
337.242	41.47
337.454	29.18
337.667	96.77
337.88	33.28
338.092	-1.54
338.305	-1.54
338.517	-13.82
338.729	115.2
338.942	129.53
339.154	94.72
339.367	25.09
339.579	109.05
339.792	-1.54
340.004	-9.73
340.217	70.14
340.429	31.23
340.641	8.7
340.854	6.66
341.066	-24.06
341.278	125.44
341.491	51.71
341.703	-7.68
341.915	35.33
342.128	59.9
342.34	43.52
342.552	16.9
342.764	72.19
342.977	-11.78
343.189	55.81
343.401	51.71
343.613	43.52
343.826	96.77
344.038	27.14
344.25	59.9
344.462	102.91
344.674	64
344.886	8.7
345.099	59.9
345.311	66.05
345.523	41.47
345.735	64
345.947	72.19
346.159	43.52
346.371	23.04
346.583	6.66
346.795	147.97
347.007	-7.68
347.219	57.86
347.431	66.05
347.643	96.77
347.855	16.9
348.067	158.21
348.279	31.23
348.491	51.71
348.703	14.85
348.915	23.04
349.127	84.48
349.339	23.04
349.551	102.91
349.763	86.53
349.975	70.14
350.187	121.34
350.399	72.19
350.61	51.71
350.822	-5.63
351.034	25.09
351.246	8.7
351.458	41.47
351.669	115.2
351.881	121.34
352.093	123.39
352.305	55.81
352.517	72.19
352.728	76.29
352.94	109.05
353.152	31.23
353.363	14.85
353.575	88.57
353.787	70.14
353.999	109.05
354.21	64
354.422	113.15
354.633	51.71
354.845	-7.68
355.057	35.33
355.268	41.47
355.48	-1.54
355.692	8.7
355.903	90.62
356.115	55.81
356.326	25.09
356.538	59.9
356.749	49.66
356.961	64
357.172	14.85
357.384	113.15
357.595	107.01
357.807	-30.21
358.018	43.52
358.23	27.14
358.441	100.86
358.653	88.57
358.864	59.9
359.075	-22.02
359.287	-13.82
359.498	96.77
359.709	80.38
359.921	47.62
360.132	35.33
360.344	29.18
360.555	104.96
360.766	-1.54
360.977	96.77
361.189	162.3
361.4	0.51
361.611	147.97
361.823	72.19
362.034	57.86
362.245	39.42
362.456	8.7
362.667	70.14
362.879	57.86
363.09	10.75
363.301	35.33
363.512	47.62
363.723	33.28
363.935	-48.64
364.146	88.57
364.357	76.29
364.568	-7.68
364.779	-5.63
364.99	104.96
365.201	0.51
365.412	55.81
365.623	51.71
365.834	143.87
366.045	16.9
366.256	55.81
366.467	43.52
366.678	41.47
366.889	10.75
367.1	90.62
367.311	51.71
367.522	35.33
367.733	31.23
367.944	-13.82
368.155	51.71
368.366	64
368.577	57.86
368.788	92.67
368.999	47.62
369.209	25.09
369.42	145.92
369.631	121.34
369.842	53.76
370.053	39.42
370.264	51.71
370.474	23.04
370.685	27.14
370.896	-17.92
371.107	156.16
371.317	119.29
371.528	74.24
371.739	141.82
371.95	72.19
372.16	96.77
372.371	16.9
372.582	23.04
372.792	-26.11
373.003	72.19
373.214	66.05
373.424	80.38
373.635	70.14
373.846	92.67
374.056	64
374.267	35.33
374.477	49.66
374.688	84.48
374.898	72.19
375.109	129.53
375.319	23.04
375.53	68.09
375.74	98.81
375.951	18.94
376.161	39.42
376.372	154.11
376.582	31.23
376.793	51.71
377.003	31.23
377.214	16.9
377.424	23.04
377.635	123.39
377.845	39.42
378.055	137.73
378.266	18.94
378.476	98.81
378.686	49.66
378.897	80.38
379.107	92.67
379.317	6.66
379.528	37.38
379.738	121.34
379.948	-3.58
380.158	121.34
380.369	35.33
380.579	123.39
380.789	-56.83
380.999	121.34
381.21	-22.02
381.42	109.05
381.63	-5.63
381.84	96.77
382.05	27.14
382.261	49.66
382.471	59.9
382.681	10.75
382.891	147.97
383.101	72.19
383.311	10.75
383.521	25.09
383.731	39.42
383.941	14.85
384.151	64
384.361	66.05
384.571	66.05
384.781	43.52
384.991	82.43
385.201	66.05
385.411	-26.11
385.621	39.42
385.831	59.9
386.041	14.85
386.251	43.52
386.461	41.47
386.671	64
386.881	86.53
387.091	39.42
387.301	18.94
387.511	27.14
387.72	123.39
387.93	135.68
388.14	-17.92
388.35	31.23
388.56	78.33
388.769	59.9
388.979	25.09
389.189	39.42
389.399	104.96
389.609	72.19
389.818	14.85
390.028	78.33
390.238	47.62
390.447	-9.73
390.657	31.23
390.867	80.38
391.076	51.71
391.286	64
391.496	96.77
391.705	72.19
391.915	100.86
392.125	90.62
392.334	57.86
392.544	92.67
392.753	121.34
392.963	-15.87
393.172	47.62
393.382	39.42
393.591	107.01
393.801	129.53
394.01	113.15
394.22	113.15
394.429	31.23
394.639	33.28
394.848	90.62
395.058	96.77
395.267	137.73
395.477	53.76
395.686	82.43
395.895	64
396.105	84.48
396.314	14.85
396.524	111.1
396.733	47.62
396.942	64
397.152	111.1
397.361	98.81
397.57	88.57
397.78	102.91
397.989	78.33
398.198	125.44
398.407	82.43
398.617	47.62
398.826	43.52
399.035	150.01
399.244	125.44
399.453	121.34
399.663	94.72
399.872	74.24
400.081	145.92
400.29	55.81
400.499	10.75
400.708	76.29
400.917	51.71
401.127	64
401.336	100.86
401.545	117.25
401.754	76.29
401.963	129.53
402.172	100.86
402.381	104.96
402.59	90.62
402.799	100.86
403.008	123.39
403.217	117.25
403.426	117.25
403.635	10.75
403.844	59.9
404.053	68.09
404.262	139.77
404.471	145.92
404.68	145.92
404.888	96.77
405.097	186.88
405.306	213.5
405.515	145.92
405.724	199.16
405.933	143.87
406.142	100.86
406.35	205.31
406.559	172.54
406.768	170.49
406.977	145.92
407.185	205.31
407.394	236.03
407.603	166.4
407.812	190.97
408.02	219.64
408.229	293.37
408.438	186.88
408.646	145.92
408.855	178.69
409.064	231.93
409.272	178.69
409.481	219.64
409.69	256.51
409.898	236.03
410.107	260.6
410.315	289.28
410.524	229.88
410.733	317.95
410.941	293.37
411.15	256.51
411.358	371.19
411.567	375.29
411.775	387.58
411.984	326.14
412.192	416.25
412.401	350.71
412.609	395.77
412.818	399.87
413.026	416.25
413.234	442.87
413.443	483.83
413.651	399.87
413.86	381.43
414.068	565.75
414.276	510.46
414.485	514.55
414.693	528.89
414.901	555.51
415.11	494.07
415.318	616.95
415.526	539.13
415.734	670.2
415.943	631.29
416.151	745.97
416.359	649.72
416.567	737.78
416.776	713.21
416.984	778.74
417.192	725.49
417.4	842.23
417.608	690.68
417.817	778.74
418.025	915.95
418.233	950.77
418.441	866.8
418.649	983.54
418.857	999.92
419.065	1022.45
419.273	991.73
419.481	1028.59
419.689	1255.92
419.897	1139.18
420.105	1309.16
420.313	1243.63
420.521	1319.4
420.729	1272.3
420.937	1407.47
421.145	1417.71
421.353	1595.88
421.561	1434.09
421.769	1554.92
421.977	1692.13
422.185	1579.5
422.393	1755.62
422.601	1837.54
422.809	1769.96
423.017	1782.24
423.224	1923.55
423.432	1933.79
423.64	1903.07
423.848	2052.58
424.056	2054.62
424.263	2349.53
424.471	2195.93
424.679	2271.71
424.887	2513.37
425.094	2492.89
425.302	2537.95
425.51	2613.72
425.718	2660.82
425.925	2671.06
426.133	2740.69
426.341	3017.17
426.548	3060.18
426.756	3215.82
426.964	3160.53
427.171	3334.61
427.379	3348.94
427.586	3375.56
427.794	3627.46
428.001	3770.82
428.209	3793.35
428.417	3889.6
428.624	4235.71
428.832	3973.57
429.039	4016.58
429.247	4045.25
429.454	4346.3
429.662	4733.37
429.869	4356.54
430.076	4800.95
430.284	4622.78
430.491	4901.3
430.699	5058.99
430.906	5155.25
431.114	5104.05
431.321	5224.88
431.528	5482.92
431.736	5710.25
431.943	6097.31
432.15	5857.7
432.358	5888.42
432.565	6130.08
432.772	6199.71
432.979	6699.42
433.187	6515.1
433.394	6566.3
433.601	7141.78
433.808	7170.45
434.016	7199.12
434.223	7369.1
434.43	8038.79
434.637	7711.11
434.844	8094.08
435.052	8364.42
435.259	8225.15
435.466	8432
435.673	8317.31
435.88	8700.28
436.087	9437.55
436.294	9238.9
436.501	9083.25
436.708	9097.59
436.915	9574.77
437.122	9896.3
437.329	9847.15
437.537	10099.05
437.743	10402.15
437.95	10424.67
438.157	10799.45
438.364	11354.45
438.571	11352.4
438.778	11516.24
438.985	12196.17
439.192	11905.35
439.399	12118.34
439.606	11747.66
439.813	12722.49
440.02	13340.98
440.227	13025.59
440.433	12935.48
440.64	13279.54
440.847	13306.16
441.054	13697.33
441.261	14457.12
441.467	14283.05
441.674	14588.19
441.881	15061.27
442.088	15063.32
442.294	15087.9
442.501	15272.21
442.708	15745.3
442.914	16269.58
443.121	16785.66
443.328	16732.42
443.534	17506.55
443.741	17279.22
443.948	16843.01
444.154	18202.86
444.361	18211.05
444.568	18184.43
444.774	18286.82
444.981	18424.04
445.187	18700.51
445.394	19529.94
445.6	19546.33
445.807	21590.2
446.013	20416.71
446.22	20742.34
446.426	21960.88
446.633	21424.31
446.839	22233.26
447.046	21457.08
447.252	22560.94
447.459	22900.9
447.665	22720.68
447.871	23853.2
448.078	24705.16
448.284	23355.55
448.491	24473.74
448.697	25155.71
448.903	25671.8
449.11	25626.74
449.316	25335.93
449.522	25559.16
449.728	26333.29
449.935	26601.58
450.141	26488.94
450.347	27531.36
450.553	26505.32
450.76	26865.77
450.966	27658.33
451.172	27324.51
451.378	27826.26
451.584	27435.1
451.791	28207.19
451.997	28047.44
452.203	28840.01
452.409	28653.64
452.615	28491.85
452.821	27615.32
453.027	26904.68
453.233	28899.4
453.44	27510.88
453.646	27969.62
453.852	28135.51
454.058	28512.33
454.264	27856.98
454.47	28221.52
454.676	27242.59
454.882	28590.16
455.088	26013.81
455.294	26538.09
455.5	26755.18
455.705	27150.43
455.911	26056.82
456.117	25794.68
456.323	25241.73
456.529	23539.86
456.735	25086.08
456.941	24551.56
457.147	24098.96
457.352	23220.38
457.558	23292.06
457.764	22845.6
457.97	22864.04
458.176	22251.69
458.381	21881.01
458.587	21227.71
458.793	21258.43
458.999	20052.17
459.204	21831.86
459.41	20621.51
459.616	19488.98
459.821	19542.23
460.027	19417.3
460.233	18921.7
460.438	18114.8
460.644	18190.57
460.85	17428.73
461.055	17213.69
461.261	17135.87
461.466	15913.23
461.672	15526.16
461.878	16320.77
462.083	15526.16
462.289	15077.66
462.494	15132.95
462.7	14192.94
462.905	14016.81
463.111	14657.82
463.316	14453.03
463.522	13984.04
463.727	14143.78
463.932	14166.31
464.138	13914.41
464.343	14080.3
464.549	13828.4
464.754	14010.67
464.959	14086.44
465.165	13926.7
465.37	13177.14
465.575	13123.9
465.781	13390.13
465.986	13639.98
466.191	12970.3
466.397	12902.72
466.602	12091.72
466.807	12616
467.012	12429.63
467.218	12579.14
467.423	12362.05
467.628	12699.97
467.833	12964.15
468.038	12351.81
468.244	12061
468.449	12585.28
468.654	12163.4
468.859	12196.17
469.064	12257.6
469.269	11624.78
469.474	11780.43
469.679	12116.3
469.885	11522.38
470.09	11651.41
470.295	11682.13
470.5	11473.23
470.705	11526.48
470.91	11268.44
471.115	11319.64
471.32	11219.28
471.525	11329.88
471.73	10873.18
471.935	10983.77
472.139	10565.98
472.344	10592.61
472.549	10445.15
472.754	10522.98
472.959	10344.8
473.164	10074.47
473.369	9898.34
473.574	10318.18
473.778	10103.14
473.983	10142.05
474.188	10135.91
474.393	9593.2
474.598	9691.5
474.802	9658.73
475.007	9615.73
475.212	9421.17
475.417	9165.17
475.621	9404.78
475.826	9345.39
476.031	9068.92
476.235	8681.85
476.44	9054.58
476.645	8829.31
476.849	8755.58
477.054	8790.39
477.259	8720.76
477.463	8681.85
477.668	8436.1
477.872	8487.29
478.077	8495.49
478.282	8186.24
478.486	8149.38
478.691	8014.21
478.895	8001.93
479.1	7991.69
479.304	8036.74
479.509	7756.17
479.713	7889.29
479.918	7707.02
480.122	7573.9
480.326	7793.03
480.531	7532.94
480.735	7473.55
480.94	7569.8
481.144	7821.7
481.348	7573.9
481.553	7489.93
481.757	7346.58
481.961	7418.25
482.166	7496.08
482.37	7420.3
482.574	7371.15
482.778	7410.06
482.983	7596.43
483.187	7481.74
483.391	7387.54
483.595	7262.61
483.8	7256.47
484.004	7365.01
484.208	7319.95
484.412	7397.78
484.616	7346.58
484.821	7426.45
485.025	7340.43
485.229	7352.72
485.433	7231.89
485.637	7324.05
485.841	7375.25
486.045	7221.65
486.249	7291.28
486.453	7246.23
486.657	7428.49
486.861	7313.81
487.065	7215.51
487.269	7283.09
487.473	7350.67
487.677	7444.88
487.881	7422.35
488.085	7375.25
488.289	7502.22
488.493	7530.89
488.697	7350.67
488.901	7506.32
489.105	7369.1
489.309	7401.87
489.512	7514.51
489.716	7594.38
489.92	7473.55
490.124	7453.07
490.328	7627.15
490.531	7584.14
490.735	7633.29
490.939	7631.24
491.143	7608.72
491.346	7711.11
491.55	7801.22
491.754	7764.36
491.958	7700.87
492.161	7610.76
492.365	7819.66
492.569	7739.79
492.772	7801.22
492.976	7815.56
493.18	7793.03
493.383	7907.72
493.587	8055.17
493.79	8044.93
493.994	8063.36
494.197	8120.71
494.401	8169.86
494.605	8075.65
494.808	8163.72
495.012	8444.29
495.215	8399.23
495.419	8300.93
495.622	8259.97
495.825	8446.34
496.029	8337.79
496.232	8579.45
496.436	8571.26
496.639	8937.85
496.843	8823.16
497.046	9093.49
497.249	9138.55
497.453	9183.6
497.656	9265.52
497.859	9138.55
498.063	9353.59
498.266	9572.72
498.469	9470.32
498.673	9503.09
498.876	9650.54
499.079	9830.76
499.282	9752.94
499.485	10137.96
499.689	10060.13
499.892	10180.96
500.095	10070.37
500.298	10619.23
500.501	10305.89
500.705	10713.44
500.908	10948.95
501.111	11096.41
501.314	10811.74
501.517	11229.52
501.72	11438.42
501.923	11237.72
502.126	11553.1
502.329	11811.15
502.532	11671.89
502.735	11858.25
502.938	12001.61
503.141	12124.49
503.344	12187.97
503.547	12335.43
503.75	12499.27
503.953	12878.14
504.156	12826.94
504.359	12839.23
504.562	13058.36
504.765	13113.66
504.968	13171
505.17	13416.76
505.373	13453.62
505.576	13529.39
505.779	13951.28
505.982	14133.54
506.185	14444.84
506.387	14367.01
506.59	14487.84
506.793	14833.95
506.996	14457.12
507.198	15065.37
507.401	14948.64
507.604	15378.71
507.807	15724.82
508.009	15554.83
508.212	15397.14
508.415	15847.69
508.617	16070.92
508.82	15952.14
509.022	16023.82
509.225	16627.97
509.428	16785.66
509.63	16800
509.833	16800
510.035	17262.84
510.238	17232.12
510.44	17522.93
510.643	17866.99
510.845	17811.7
511.048	17588.47
511.25	18233.58
511.453	18202.86
511.655	18907.36
511.858	18481.38
512.06	18899.17
512.262	18944.22
512.465	18850.02
512.667	19626.2
512.87	19589.33
513.072	19392.73
513.274	19892.43
513.477	19980.5
513.679	20195.53
513.881	20613.32
514.084	20586.69
514.286	20449.48
514.488	21014.72
514.69	21342.39
514.893	21430.46
515.095	21457.08
515.297	21745.84
515.499	22112.43
515.701	21835.95
515.904	22403.24
516.106	22339.76
516.308	22683.81
516.51	23056.54
516.712	22771.88
516.914	23402.65
517.116	23478.43
517.318	23634.07
517.52	24066.19
517.722	23869.59
517.925	24311.95
518.127	24567.95
518.329	24752.26
518.531	24541.32
518.733	25184.38
518.935	25393.28
519.136	25241.73
519.338	25555.07
519.54	25811.06
519.742	26087.54
519.944	26378.35
520.146	26669.16
520.348	26480.75
520.55	26501.23
520.752	26941.54
520.954	27304.03
521.155	27295.84
521.357	27627.61
521.559	27578.46
521.761	28207.19
521.963	28219.47
522.164	27971.67
522.366	28416.08
522.568	28829.77
522.77	28790.86
522.971	29018.18
523.173	28985.41
523.375	29313.09
523.576	29388.86
523.778	29311.04
523.98	29599.8
524.181	30040.12
524.383	30005.3
524.584	30683.18
524.786	30058.55
524.988	30273.59
525.189	30582.83
525.391	30992.42
525.592	31250.47
525.794	30982.18
525.995	31090.73
526.197	31600.67
526.398	31694.88
526.6	31385.63
526.801	31664.16
527.003	32141.33
527.204	32151.57
527.406	32016.41
527.607	32045.08
527.808	32387.09
528.01	31993.88
528.211	32520.21
528.412	32634.89
528.614	32575.5
528.815	32497.68
529.016	33271.81
529.218	32778.25
529.419	32983.05
529.62	33263.62
529.822	33034.25
530.023	33173.51
530.224	33159.17
530.425	33024.01
530.626	32829.45
530.828	33306.63
531.029	33738.75
531.23	33388.55
531.431	33314.82
531.632	33587.2
531.833	33402.88
532.035	33609.73
532.236	33492.99
532.437	33687.55
532.638	33579.01
532.839	34119.67
533.04	33687.55
533.241	33595.39
533.442	34183.16
533.643	33814.52
533.844	34125.82
534.045	34093.05
534.246	33654.78
534.447	34039.8
534.648	33894.39
534.849	34113.53
535.05	33665.02
535.251	34041.85
535.451	33961.98
535.652	34248.69
535.853	33849.34
536.054	34379.76
536.255	34025.46
536.456	33779.71
536.657	34158.58
536.857	34023.42
537.058	33796.09
537.259	33861.63
537.46	34324.47
537.66	33945.59
537.861	34043.9
538.062	33736.7
538.263	34033.66
538.463	33814.52
538.664	33984.51
538.865	33665.02
539.065	34220.02
539.266	33837.05
539.466	33976.31
539.667	33591.3
539.868	34138.1
540.068	33951.74
540.269	33822.72
540.469	33939.45
540.67	33634.3
540.87	33929.21
541.071	33699.84
541.271	33908.73
541.472	33769.47
541.672	33667.07
541.873	33499.14
542.073	33818.62
542.274	34115.58
542.474	33830.91
542.675	33757.18
542.875	34091
543.075	33507.33
543.276	33097.73
543.476	33769.47
543.676	33628.16
543.877	33423.36
544.077	33787.9
544.277	33622.01
544.478	33538.05
544.678	33892.35
544.878	33699.84
545.078	33738.75
545.279	33388.55
545.479	33665.02
545.679	33542.14
545.879	33617.92
546.079	33220.61
546.28	33480.71
546.48	33386.5
546.68	33550.34
546.88	33351.68
547.08	33282.05
547.28	33605.63
547.48	33435.65
547.68	33632.25
547.88	33480.71
548.081	33519.62
548.281	33269.76
548.481	33484.8
548.681	33607.68
548.881	33515.52
549.081	33593.34
549.28	33286.15
549.48	33646.59
549.68	33458.18
549.88	33794.04
550.08	33343.49
550.28	33509.38
550.48	33499.14
550.68	33517.57
550.88	33144.84
551.08	33089.54
551.279	33476.61
551.479	33056.78
551.679	33374.21
551.879	33368.07
552.079	33427.46
552.278	33372.16
552.478	33058.82
552.678	33441.79
552.878	33615.87
553.077	33077.26
553.277	32913.42
553.477	33265.67
553.676	32946.19
553.876	33062.92
554.076	32897.03
554.275	33017.86
554.475	32552.98
554.674	33355.78
554.874	32870.41
555.074	33003.53
555.273	33069.06
555.473	33228.8
555.672	32636.94
555.872	32784.4
556.071	33005.58
556.271	32933.9
556.47	32432.15
556.67	32098.33
556.869	32626.7
557.068	32661.52
557.268	32501.78
557.467	32393.23
557.667	32419.86
557.866	32409.62
558.065	32571.41
558.265	32434.19
558.464	32223.25
558.663	32663.57
558.863	31807.51
559.062	32116.76
559.261	31754.27
559.461	32251.92
559.66	31856.67
559.859	32247.83
560.058	31926.3
560.258	32127
560.457	31559.71
560.656	32245.78
560.855	32032.79
561.054	31670.3
561.253	31420.45
561.453	31418.4
561.652	31735.84
561.851	31649.82
562.05	31184.93
562.249	31227.94
562.448	31825.95
562.647	31320.1
562.846	31365.15
563.045	31182.88
563.244	31060.01
563.443	31729.69
563.642	31354.91
563.841	31143.97
564.04	31037.48
564.239	31647.77
564.438	30611.5
564.637	30734.38
564.836	30955.56
565.035	30812.2
565.234	31098.92
565.432	30619.69
565.631	30642.22
565.83	31000.61
566.029	30404.66
566.228	30189.62
566.427	30228.53
566.625	30138.42
566.824	29958.2
567.023	30068.79
567.222	29915.19
567.42	29872.18
567.619	29841.46
567.818	29943.86
568.016	29839.42
568.215	29788.22
568.414	29642.81
568.612	30009.4
568.811	29681.72
569.01	30027.83
569.208	29450.3
569.407	29464.64
569.605	29540.41
569.804	29464.64
570.002	28797
570.201	29390.91
570.4	29100.1
570.598	28731.47
570.797	28440.65
570.995	28997.7
571.193	28670.03
571.392	28786.76
571.59	28559.44
571.789	28667.98
571.987	28717.13
572.186	28698.7
572.384	28309.58
572.582	28844.1
572.781	28254.29
572.979	27963.48
573.177	28459.09
573.376	28131.41
573.574	27848.79
573.772	27959.38
573.971	27746.39
574.169	27971.67
574.367	27818.07
574.565	28182.61
574.763	27623.51
574.962	27625.56
575.16	27344.99
575.358	27523.16
575.556	27113.57
575.754	27365.47
575.952	26980.45
576.151	27365.47
576.349	27088.99
576.547	27111.52
576.745	26765.42
576.943	27121.76
577.141	26892.39
577.339	26611.82
577.537	26775.66
577.735	26714.22
577.933	26249.33
578.131	26859.62
578.329	26521.71
578.527	26306.67
578.725	26159.22
578.923	26300.53
579.121	26097.78
579.319	26181.74
579.516	26259.57
579.714	26224.75
579.912	25944.18
580.11	25813.11
580.308	25751.67
580.506	25684.09
580.704	25376.89
580.901	25768.05
581.099	25776.25
581.297	25499.77
581.495	25548.92
581.692	25385.08
581.89	25297.02
582.088	25421.95
582.285	25129.09
582.483	25450.62
582.681	24883.33
582.878	24893.57
583.076	24762.5
583.274	24979.59
583.471	24557.71
583.669	24615.05
583.866	24555.66
584.064	24561.8
584.262	24574.09
584.459	24582.28
584.657	24477.83
584.854	24512.65
585.052	23847.06
585.249	24316.04
585.447	24248.46
585.644	24090.77
585.841	24123.54
586.039	24152.21
586.236	24019.09
586.434	23949.46
586.631	23851.16
586.828	23681.17
587.026	23928.98
587.223	23691.41
587.42	23423.13
587.618	23451.8
587.815	23079.07
588.012	23314.59
588.21	23144.61
588.407	23484.57
588.604	23144.61
588.801	22898.85
588.999	22790.31
589.196	22677.67
589.393	23050.4
589.59	22485.16
589.787	22655.14
589.984	22595.75
590.182	22306.99
590.379	22536.36
590.576	22542.5
590.773	22493.35
590.97	22196.4
591.167	22388.91
591.364	21948.59
591.561	22440.11
591.758	21987.5
591.955	21905.59
592.152	21848.24
592.349	21493.94
592.546	21967.02
592.743	21909.68
592.94	21432.5
593.137	21409.98
593.334	21801.14
593.531	21498.04
593.727	21493.94
593.924	21541.05
594.121	21207.23
594.318	21283
594.515	21102.78
594.712	21317.82
594.908	21260.48
595.105	21006.53
595.302	21047.49
595.499	20801.73
595.696	20873.41
595.892	20570.31
596.089	20869.31
596.286	20658.37
596.482	20480.2
596.679	20693.19
596.876	20846.79
597.072	20250.83
597.269	20621.51
597.466	19960.02
597.662	20109.52
597.859	20259.02
598.055	20261.07
598.252	20000.97
598.448	20173
598.645	19830.99
598.841	19701.97
599.038	19826.9
599.234	19931.34
599.431	19505.37
599.627	19615.96
599.824	19419.35
600.02	19671.25
600.217	19587.29
600.413	19351.77
600.609	19425.5
600.806	19210.46
601.002	19321.05
601.198	19243.23
601.395	18856.16
601.591	19052.77
601.787	19060.96
601.984	18815.2
602.18	19149.02
602.376	18520.29
602.572	18792.67
602.769	18761.95
602.965	18536.68
603.161	18710.75
603.357	18168.04
603.553	18485.48
603.75	18571.49
603.946	18231.53
604.142	18524.39
604.338	18389.22
604.534	18252.01
604.73	18020.59
604.926	18147.56
605.122	18225.39
605.318	18067.69
605.514	17758.45
605.71	17711.35
605.906	18024.68
606.102	17856.75
606.298	17647.86
606.494	17694.96
606.69	17758.45
606.886	17596.66
607.082	17320.18
607.278	17455.35
607.474	17422.58
607.67	17660.15
607.866	17232.12
608.062	17359.1
608.257	17203.45
608.453	17074.43
608.649	17277.18
608.845	17082.62
609.041	17041.66
609.236	17084.67
609.432	17105.15
609.628	17109.24
609.824	16951.55
610.019	16974.08
610.215	17056
610.411	17080.57
610.606	16730.37
610.802	16756.99
610.998	16849.15
611.193	16644.35
611.389	16791.81
611.584	16546.05
611.78	16734.46
611.976	16619.78
612.171	16777.47
612.367	16392.45
612.562	16564.48
612.758	16136.46
612.953	16242.95
613.149	16273.67
613.344	16056.59
613.539	16621.83
613.735	16369.93
613.93	16326.92
614.126	16124.17
614.321	16326.92
614.517	16001.29
614.712	16046.35
614.907	15976.72
615.103	16050.44
615.298	15972.62
615.493	16177.42
615.688	15849.74
615.884	16236.81
616.079	15745.3
616.274	16128.27
616.47	15874.32
616.665	16027.92
616.86	15601.94
617.055	15714.58
617.25	15773.97
617.445	15984.91
617.641	15352.09
617.836	15829.26
618.031	15317.27
618.226	15434
618.421	15517.97
618.616	15556.88
618.811	15227.16
619.006	15335.7
619.201	15096.09
619.396	15091.99
619.591	14936.35
619.786	15237.4
619.981	14788.89
620.176	14965.02
620.371	14928.16
620.566	14825.76
620.761	14530.85
620.956	14829.85
621.151	14668.06
621.346	14500.13
621.541	14350.63
621.735	14805.28
621.93	14088.49
622.125	14369.06
622.32	14072.11
622.515	14207.27
622.709	14006.57
622.904	13842.73
623.099	13973.8
623.294	13857.07
623.488	13551.92
623.683	13609.26
623.878	13525.3
624.072	13744.43
624.267	13312.31
624.462	13457.71
624.656	13388.08
624.851	13179.19
625.046	13510.96
625.24	13144.38
625.435	12896.57
625.629	12978.49
625.824	12917.05
626.018	12896.57
626.213	12583.23
626.407	12874.04
626.602	12466.5
626.796	12671.29
626.991	12558.66
627.185	12468.55
627.38	12421.44
627.574	12335.43
627.768	12181.83
627.963	12286.28
628.157	12067.14
628.352	12233.03
628.546	12083.53
628.74	12204.36
628.935	11893.07
629.129	11712.85
629.323	11827.53
629.517	11614.54
629.712	11501.9
629.906	11553.1
630.1	11344.21
630.294	11524.43
630.489	11352.4
630.683	11348.31
630.877	11032.92
631.071	11063.64
631.265	11219.28
631.459	11057.5
631.653	11002.2
631.848	10903.9
632.042	10951
632.236	11032.92
632.43	10684.76
632.624	10750.3
632.818	10795.36
633.012	10518.88
633.206	10479.97
633.4	10619.23
633.594	10621.28
633.788	10525.02
633.982	10439.01
634.176	10240.36
634.369	10230.12
634.563	10185.06
634.757	10072.42
634.951	10275.17
635.145	10097
635.339	10041.7
635.533	10029.41
635.726	9795.95
635.92	9886.06
636.114	9754.99
636.308	9697.64
636.501	9460.08
636.695	9650.54
636.889	9650.54
637.083	9521.52
637.276	9412.98
637.47	9369.97
637.664	9451.89
637.857	9378.16
638.051	9398.64
638.244	9462.13
638.438	9265.52
638.632	9126.26
638.825	8970.62
639.019	8950.14
639.212	9025.91
639.406	8913.27
639.599	8749.43
639.793	8860.02
639.986	8644.99
640.18	8757.63
640.373	8698.24
640.567	8569.21
640.76	8751.48
640.954	8614.27
641.147	8622.46
641.34	8565.12
641.534	8499.58
641.727	8636.8
641.92	8491.39
642.114	8407.42
642.307	8208.77
642.5	8247.68
642.694	8057.22
642.887	8053.13
643.08	8255.87
643.273	8008.07
643.467	7989.64
643.66	7954.82
643.853	7831.94
644.046	7725.45
644.239	7629.2
644.432	7750.03
644.626	7747.98
644.819	7846.28
645.012	7721.35
645.205	7569.8
645.398	7659.92
645.591	7633.29
645.784	7399.82
645.977	7367.06
646.17	7477.65
646.363	7254.42
646.556	7211.41
646.749	7324.05
646.942	7322
647.135	7109.01
647.328	7076.24
647.521	7066
647.714	7068.05
647.907	7035.28
648.099	7010.71
648.292	6936.98
648.485	7084.44
648.678	6797.72
648.871	6781.34
649.064	6869.4
649.256	6803.86
649.449	6791.58
649.642	6678.94
649.835	6723.99
650.027	6648.22
650.22	6832.54
650.413	6447.52
650.605	6564.25
650.798	6584.73
650.991	6398.37
651.183	6560.16
651.376	6586.78
651.568	6365.6
651.761	6400.41
651.954	6384.03
652.146	6300.06
652.339	6269.34
652.531	6334.88
652.724	6152.61
652.916	6072.74
653.109	6140.32
653.301	6011.3
653.494	6283.68
653.686	5945.77
653.879	6091.17
654.071	5953.96
654.263	5923.24
654.456	5990.82
654.648	5953.96
654.84	5747.11
655.033	5876.13
655.225	5790.12
655.417	5710.25
655.61	5906.85
655.802	5790.12
655.994	5562.8
656.186	5773.74
656.379	5738.92
656.571	5642.67
656.763	5622.19
656.955	5337.52
657.148	5487.02
657.34	5474.73
657.532	5366.19
657.724	5519.79
657.916	5321.13
658.108	5441.96
658.3	5540.27
658.492	5341.61
658.684	5212.59
658.876	5249.46
659.068	5255.6
659.26	5110.19
659.452	5122.48
659.644	5009.84
659.836	5104.05
660.028	5028.28
660.22	5015.99
660.412	5104.05
660.604	4866.49
660.796	4889.01
660.988	5015.99
661.18	4798.9
661.372	4958.64
661.563	4864.44
661.755	4794.81
661.947	4848.05
662.139	4745.66
662.331	4759.99
662.522	4725.18
662.714	4671.93
662.906	4686.26
663.097	4727.22
663.289	4495.8
663.481	4553.15
663.673	4618.68
663.864	4487.61
664.056	4428.22
664.247	4520.38
664.439	4430.27
664.631	4436.41
664.822	4465.08
665.014	4415.93
665.205	4389.31
665.397	4243.9
665.588	4258.24
665.78	4233.66
665.971	4266.43
666.163	4295.1
666.354	4342.21
666.546	4215.23
666.737	4164.03
666.929	4358.59
667.12	4237.76
667.311	4258.24
667.503	4291.01
667.694	4168.13
667.885	4121.03
668.077	4016.58
668.268	4071.87
668.459	4084.16
668.651	4000.19
668.842	4086.21
669.033	4006.34
669.224	3905.99
669.416	3953.09
669.607	4010.43
669.798	3996.1
669.989	3994.05
670.18	3840.45
670.371	3938.76
670.563	3848.65
670.754	3865.03
670.945	3678.66
671.136	3848.65
671.327	3727.82
671.518	3742.15
671.709	3809.73
671.9	3875.27
672.091	3615.18
672.282	3744.2
672.473	3733.96
672.664	3690.95
672.855	3672.52
673.046	3600.84
673.237	3596.75
673.428	3572.17
673.619	3660.23
673.809	3635.66
674	3525.07
674.191	3574.22
674.382	3504.59
674.573	3508.68
674.764	3516.87
674.954	3504.59
675.145	3482.06
675.336	3463.63
675.527	3490.25
675.717	3514.83
675.908	3563.98
676.099	3375.56
676.289	3561.93
676.48	3228.11
676.671	3416.52
676.861	3465.68
677.052	3285.45
677.243	3420.62
677.433	3273.17
677.624	3414.48
677.814	3406.28
678.005	3301.84
678.195	3332.56
678.386	3359.18
678.576	3244.49
678.767	3330.51
678.957	3277.26
679.148	3389.9
679.338	3254.73
679.529	3250.64
679.719	3262.93
679.909	3361.23
680.1	3230.16
680.29	3154.38
680.481	3281.36
680.671	3297.74
680.861	3113.42
681.052	3148.24
681.242	3127.76
681.432	3277.26
681.622	3097.04
681.813	3115.47
682.003	3160.53
682.193	3051.99
682.383	3103.18
682.573	3178.96
682.764	2970.07
682.954	3146.19
683.144	3138
683.334	3006.93
683.524	3193.3
683.714	3138
683.904	3008.98
684.094	3092.94
684.284	3029.46
684.474	3105.23
684.664	3090.9
684.854	2931.16
685.044	2998.74
685.234	3025.36
685.424	2922.96
685.614	2925.01
685.804	3168.72
685.994	3070.42
686.184	2976.21
686.374	3041.75
686.564	2941.4
686.753	2922.96
686.943	2957.78
687.133	2857.43
687.323	2875.86
687.513	3008.98
687.702	2763.22
687.892	2925.01
688.082	2791.89
688.272	2714.07
688.461	2744.79
688.651	2877.91
688.841	2693.59
689.03	2714.07
689.22	2703.83
689.41	2697.69
689.599	2619.86
689.789	2802.13
689.979	2750.93
690.168	2673.11
690.358	2759.13
690.547	2709.97
690.737	2480.6
690.926	2607.58
691.116	2509.27
691.305	2580.95
691.495	2628.06
691.684	2554.33
691.874	2689.49
692.063	2556.38
692.252	2654.68
692.442	2574.81
692.631	2507.23
692.82	2521.56
693.01	2587.1
693.199	2513.37
693.388	2509.27
693.578	2433.5
693.767	2507.23
693.956	2417.12
694.146	2308.57
694.335	2357.72
694.524	2488.79
694.713	2456.03
694.902	2347.48
695.092	2419.16
695.281	2337.24
695.47	2343.39
695.659	2351.58
695.848	2300.38
696.037	2261.47
696.226	2238.94
696.415	2308.57
696.604	2435.55
696.793	2290.14
696.982	2193.89
697.171	2259.42
697.36	2284
697.549	2288.09
697.738	2208.22
697.927	2220.51
698.116	2318.81
698.305	2370.01
698.494	2322.91
698.683	2357.72
698.872	2251.23
699.061	2150.88
699.25	2304.48
699.438	2333.15
699.627	2167.26
699.816	2234.85
700.005	2202.08
700.193	2243.04
700.382	2249.18
700.571	2187.74
700.76	2259.42
700.948	2341.34
701.137	2251.23
701.326	2187.74
701.514	2195.93
701.703	2263.52
701.892	2103.78
702.08	2247.13
702.269	2030.05
702.457	2193.89
702.646	2167.26
702.834	2114.02
703.023	2114.02
703.212	2136.54
703.4	2103.78
703.589	2062.82
703.777	2126.3
703.965	2001.38
704.154	2224.61
704.342	2054.62
704.531	2021.86
704.719	2050.53
704.907	2050.53
705.096	2075.1
705.284	2107.87
705.472	2118.11
705.661	2058.72
705.849	2120.16
706.037	2071.01
706.226	2138.59
706.414	2062.82
706.602	2066.91
706.79	2081.25
706.979	2105.82
707.167	2099.68
707.355	2005.47
707.543	2001.38
707.731	2161.12
707.919	2046.43
708.107	2169.31
708.296	2091.49
708.484	1997.28
708.672	1997.28
708.86	2181.6
709.048	2079.2
709.236	2042.34
709.424	2185.69
709.612	2105.82
709.8	2085.34
709.988	2175.45
710.176	2124.26
710.364	2140.64
710.551	2107.87
710.739	2056.67
710.927	2111.97
711.115	2173.41
711.303	2152.93
711.491	2128.35
711.679	2038.24
711.866	2030.05
712.054	2054.62
712.242	2105.82
712.43	2048.48
712.617	2075.1
712.805	2013.67
712.993	1956.32
713.181	1978.85
713.368	2046.43
713.556	2105.82
713.744	2103.78
713.931	2101.73
714.119	2009.57
714.306	2128.35
714.494	2095.58
714.682	2030.05
714.869	1984.99
715.057	2023.91
715.244	2028
715.432	2021.86
715.619	2071.01
715.807	2122.21
715.994	2107.87
716.182	2144.74
716.369	2021.86
716.556	2103.78
716.744	2023.91
716.931	2048.48
717.119	2032.1
717.306	2130.4
717.493	2173.41
717.681	2023.91
717.868	2015.71
718.055	2028
718.242	2079.2
718.43	2019.81
718.617	2101.73
718.804	2116.06
718.991	2046.43
719.179	2071.01
719.366	2019.81
719.553	2097.63
719.74	1921.51
719.927	2111.97
720.114	1984.99
720.301	2062.82
720.488	2099.68
720.676	2075.1
720.863	2058.72
721.05	2128.35
721.237	2036.19
721.424	1919.46
721.611	2062.82
721.798	1919.46
721.985	2050.53
722.172	1948.13
722.358	2101.73
722.545	2152.93
722.732	2050.53
722.919	2050.53
723.106	2073.06
723.293	2054.62
723.48	2152.93
723.667	2030.05
723.853	2116.06
724.04	2122.21
724.227	2107.87
724.414	2140.64
724.6	1991.14
724.787	2152.93
724.974	2128.35
725.161	2062.82
725.347	1972.71
725.534	2075.1
725.72	2120.16
725.907	2030.05
726.094	2011.62
726.28	2134.5
726.467	2120.16
726.653	2028
726.84	2056.67
727.027	2142.69
727.213	1999.33
727.4	2068.96
727.586	2095.58
727.773	2095.58
727.959	2048.48
728.145	2152.93
728.332	2136.54
728.518	2128.35
728.705	2111.97
728.891	2068.96
729.077	2066.91
729.264	2068.96
729.45	2136.54
729.636	2058.72
729.823	2087.39
730.009	2058.72
730.195	2060.77
730.382	2122.21
730.568	2009.57
730.754	2099.68
730.94	2101.73
731.126	2054.62
731.313	2146.78
731.499	2058.72
731.685	2169.31
731.871	2183.65
732.057	2015.71
732.243	2046.43
732.429	2120.16
732.615	2038.24
732.801	2089.44
732.987	2144.74
733.173	2177.5
733.359	2032.1
733.545	2081.25
733.731	2001.38
733.917	2066.91
734.103	2111.97
734.289	2085.34
734.475	2073.06
734.661	2128.35
734.847	2120.16
735.033	2079.2
735.219	2001.38
735.404	2128.35
735.59	2093.54
735.776	1964.51
735.962	1993.19
736.148	2120.16
736.333	2122.21
736.519	2054.62
736.705	1997.28
736.89	2079.2
737.076	2038.24
737.262	2077.15
737.447	2101.73
737.633	1964.51
737.819	1923.55
738.004	2046.43
738.19	2003.43
738.375	1997.28
738.561	1968.61
738.747	2021.86
738.932	1997.28
739.118	2071.01
739.303	1964.51
739.489	2013.67
739.674	2075.1
739.859	2021.86
740.045	1995.23
740.23	2079.2
740.416	1968.61
740.601	1980.9
740.786	2001.38
740.972	2011.62
741.157	1874.4
741.342	1890.79
741.528	1972.71
741.713	1915.36
741.898	1952.23
742.084	2005.47
742.269	1950.18
742.454	1886.69
742.639	1989.09
742.824	1964.51
743.01	1878.5
743.195	1894.88
743.38	1919.46
743.565	1905.12
743.75	1841.64
743.935	1972.71
744.12	1862.12
744.305	1823.2
744.49	1876.45
744.675	1737.19
744.86	1821.16
745.045	1833.44
745.23	1794.53
745.415	1841.64
745.6	1788.39
745.785	1720.81
745.97	1802.72
746.155	1784.29
746.34	1829.35
746.525	1767.91
746.71	1792.48
746.895	1788.39
747.079	1759.72
747.264	1702.37
747.449	1696.23
747.634	1800.68
747.819	1696.23
748.003	1776.1
748.188	1612.26
748.373	1735.14
748.557	1694.18
748.742	1632.74
748.927	1673.7
749.111	1575.4
749.296	1599.98
749.481	1636.84
749.665	1554.92
749.85	1647.08
750.034	1595.88
750.219	1651.17
750.404	1565.16
750.588	1530.34
750.773	1454.57
750.957	1597.93
751.141	1554.92
751.326	1630.7
751.51	1499.63
751.695	1489.39
751.879	1559.02
752.064	1624.55
752.248	1448.43
752.432	1554.92
752.617	1511.91
752.801	1567.21
752.985	1409.51
753.17	1464.81
753.354	1473
753.538	1434.09
753.722	1419.75
753.907	1440.23
754.091	1323.5
754.275	1335.79
754.459	1399.27
754.643	1407.47
754.828	1399.27
755.012	1270.25
755.196	1280.49
755.38	1378.79
755.564	1362.41
755.748	1229.29
755.932	1309.16
756.116	1303.02
756.3	1313.26
756.484	1288.68
756.668	1243.63
756.852	1219.05
757.036	1243.63
757.22	1243.63
757.404	1309.16
757.588	1253.87
757.772	1239.53
757.956	1221.1
758.14	1339.88
758.323	1239.53
758.507	1284.59
758.691	1178.09
758.875	1206.77
759.059	1194.48
759.242	1130.99
759.426	1161.71
759.61	1163.76
759.794	1174
759.977	1174
760.161	1188.33
760.345	1139.18
760.528	1055.22
760.712	1090.03
760.895	1171.95
761.079	1057.26
761.263	1065.46
761.446	1049.07
761.63	1057.26
761.813	1174
761.997	1040.88
762.18	1079.79
762.364	1100.27
762.547	971.25
762.731	1051.12
762.914	1167.85
763.098	1022.45
763.281	1038.83
763.464	1055.22
763.648	1036.78
763.831	1065.46
764.015	1010.16
764.198	983.54
764.381	1014.26
764.564	1032.69
764.748	946.67
764.931	1032.69
765.114	993.78
765.297	1081.84
765.481	913.91
765.664	989.68
765.847	989.68
766.03	1014.26
766.213	885.23
766.397	1014.26
766.58	858.61
766.763	1006.06
766.946	866.8
767.129	879.09
767.312	870.9
767.495	936.43
767.678	881.14
767.861	961.01
768.044	926.19
768.227	883.19
768.41	842.23
768.593	958.96
768.776	854.51
768.959	874.99
769.142	922.1
769.324	907.76
769.507	870.9
769.69	915.95
769.873	791.03
770.056	850.42
770.239	854.51
770.421	764.4
770.604	903.67
770.787	809.46
770.97	901.62
771.152	807.41
771.335	866.8
771.518	786.93
771.7	940.53
771.883	825.84
772.066	915.95
772.248	825.84
772.431	836.08
772.613	793.08
772.796	784.88
772.978	776.69
773.161	827.89
773.343	891.38
773.526	803.32
773.708	702.97
773.891	766.45
774.073	829.94
774.256	774.64
774.438	795.12
774.621	776.69
774.803	862.71
774.985	772.6
775.168	788.98
775.35	727.54
775.532	776.69
775.715	737.78
775.897	662.01
776.079	657.91
776.261	688.63
776.444	702.97
776.626	739.83
776.808	674.29
776.99	631.29
777.173	678.39
777.355	662.01
777.537	764.4
777.719	733.68
777.901	694.77
778.083	641.53
778.265	682.49
778.447	705.01
778.629	565.75
778.811	616.95
778.993	694.77
779.175	664.05
779.357	600.57
779.539	481.78
779.721	639.48
779.903	641.53
780.085	559.61
780.267	672.25
780.449	653.81
780.631	639.48
780.812	616.95
780.994	604.66
781.176	629.24
781.358	590.33
781.54	678.39
781.721	582.14
781.903	592.37
782.085	555.51
782.267	549.37
782.448	557.56
782.63	526.84
782.812	506.36
782.993	586.23
783.175	608.76
783.357	522.74
783.538	481.78
783.72	586.23
783.901	522.74
784.083	619
784.264	518.65
784.446	494.07
784.627	473.59
784.809	608.76
784.99	494.07
785.172	504.31
785.353	481.78
785.535	434.68
785.716	459.26
785.897	444.92
786.079	500.22
786.26	481.78
786.441	483.83
786.623	391.67
786.804	461.3
786.985	520.7
787.167	430.59
787.348	489.98
787.529	432.63
787.71	487.93
787.891	438.78
788.073	457.21
788.254	367.1
788.435	465.4
788.616	387.58
788.797	389.63
788.978	385.53
789.159	346.62
789.34	375.29
789.522	518.65
789.703	408.06
789.884	389.63
790.065	328.19
790.246	375.29
790.427	371.19
790.607	459.26
790.788	487.93
790.969	358.91
791.15	383.48
791.331	412.15
791.512	383.48
791.693	289.28
791.874	367.1
792.054	399.87
792.235	356.86
792.416	412.15
792.597	279.04
792.778	436.73
792.958	289.28
793.139	285.18
793.32	285.18
793.5	344.57
793.681	391.67
793.862	395.77
794.042	375.29
794.223	285.18
794.404	309.76
794.584	244.22
794.765	342.52
794.945	369.15
795.126	317.95
795.306	236.03
795.487	264.7
795.667	276.99
795.848	375.29
796.028	293.37
796.209	346.62
796.389	301.56
796.57	311.8
796.75	238.08
796.93	326.14
797.111	328.19
797.291	346.62
797.471	264.7
797.652	240.12
797.832	313.85
798.012	268.8
798.192	309.76
798.373	283.13
798.553	264.7
798.733	270.84
798.913	289.28
799.093	244.22
799.274	258.56
799.454	303.61
799.634	315.9
799.814	293.37
799.994	285.18
800.174	246.27
800.354	315.9
800.534	231.93
800.714	293.37
800.894	213.5
801.074	182.78
801.254	221.69
801.434	260.6
801.614	248.32
801.794	256.51
801.974	819.7
802.154	227.84
802.334	238.08
802.514	199.16
802.693	285.18
802.873	211.45
803.053	236.03
803.233	236.03
803.413	221.69
803.592	231.93
803.772	188.93
803.952	203.26
804.131	162.3
804.311	193.02
804.491	236.03
804.67	197.12
804.85	229.88
805.03	207.36
805.209	281.08
805.389	195.07
805.568	195.07
805.748	156.16
805.928	231.93
806.107	141.82
806.287	199.16
806.466	219.64
806.646	172.54
806.825	231.93
807.004	223.74
807.184	182.78
807.363	238.08
807.543	219.64
807.722	227.84
807.901	215.55
808.081	180.73
808.26	219.64
808.439	254.46
808.619	129.53
808.798	172.54
808.977	172.54
809.156	193.02
809.336	213.5
809.515	213.5
809.694	94.72
809.873	219.64
810.052	158.21
810.231	168.45
810.411	98.81
810.59	244.22
810.769	219.64
810.948	113.15
811.127	121.34
811.306	150.01
811.485	197.12
811.664	219.64
811.843	211.45
812.022	195.07
812.201	160.25
812.38	156.16
812.559	195.07
812.737	223.74
812.916	182.78
813.095	107.01
813.274	147.97
813.453	199.16
813.632	162.3
813.811	186.88
813.989	213.5
814.168	272.89
814.347	158.21
814.526	170.49
814.704	211.45
814.883	254.46
815.062	47.62
815.24	180.73
815.419	184.83
815.598	170.49
815.776	145.92
815.955	145.92
816.133	90.62
816.312	195.07
816.49	178.69
816.669	174.59
816.847	96.77
817.026	88.57
817.204	125.44
817.383	135.68
817.561	82.43
817.74	188.93
817.918	109.05
818.097	123.39
818.275	78.33
818.453	104.96
818.632	166.4
818.81	164.35
818.988	219.64
819.167	145.92
819.345	154.11
819.523	125.44
819.701	102.91
819.879	113.15
820.058	182.78
820.236	164.35
820.414	104.96
820.592	211.45
820.77	244.22
820.948	45.57
821.127	72.19
821.305	162.3
821.483	121.34
821.661	127.49
821.839	109.05
822.017	64
822.195	102.91
822.373	217.6
822.551	88.57
822.729	162.3
822.907	90.62
823.085	145.92
823.262	111.1
823.44	143.87
823.618	170.49
823.796	61.95
823.974	121.34
824.152	123.39
824.329	96.77
824.507	123.39
824.685	100.86
824.863	123.39
825.04	98.81
825.218	129.53
825.396	113.15
825.574	211.45
825.751	129.53
825.929	145.92
826.107	109.05
826.284	107.01
826.462	102.91
826.639	64
826.817	117.25
826.994	170.49
827.172	84.48
827.349	131.58
827.527	115.2
827.704	84.48
827.882	180.73
828.059	59.9
828.237	80.38
828.414	123.39
828.591	80.38
828.769	170.49
828.946	121.34
829.124	64
829.301	182.78
829.478	59.9
829.655	35.33
829.833	111.1
830.01	51.71
830.187	139.77
830.364	129.53
830.542	119.29
830.719	164.35
830.896	145.92
831.073	145.92
831.25	150.01
831.427	113.15
831.604	96.77
831.782	137.73
831.959	82.43
832.136	145.92
832.313	14.85
832.49	80.38
832.667	186.88
832.844	78.33
833.021	74.24
833.198	51.71
833.374	94.72
833.551	168.45
833.728	102.91
833.905	104.96
834.082	135.68
834.259	41.47
834.436	117.25
834.612	49.66
834.789	72.19
834.966	88.57
835.143	64
835.319	35.33
835.496	72.19
835.673	64
835.85	107.01
836.026	72.19
836.203	164.35
836.38	61.95
836.556	96.77
836.733	100.86
836.909	195.07
837.086	41.47
837.262	68.09
837.439	55.81
837.616	55.81
837.792	88.57
837.968	117.25
838.145	-42.5
838.321	145.92
838.498	57.86
838.674	-9.73
838.851	82.43
839.027	51.71
839.203	53.76
839.38	102.91
839.556	57.86
839.732	82.43
839.909	66.05
840.085	31.23
840.261	41.47
840.437	74.24
840.614	33.28
840.79	59.9
840.966	92.67
841.142	131.58
841.318	66.05
841.494	88.57
841.671	96.77
841.847	4.61
842.023	55.81
842.199	43.52
842.375	39.42
842.551	35.33
842.727	-17.92
842.903	33.28
843.079	-17.92
843.255	121.34
843.431	74.24
843.607	68.09
843.783	37.38
843.959	82.43
844.134	76.29
844.31	88.57
844.486	47.62
844.662	82.43
844.838	18.94
845.013	-5.63
845.189	96.77
845.365	137.73
845.541	92.67
845.716	80.38
845.892	53.76
846.068	16.9
846.244	-9.73
846.419	72.19
846.595	39.42
846.77	80.38
846.946	25.09
847.122	104.96
847.297	-1.54
847.473	18.94
847.648	57.86
847.824	104.96
847.999	53.76
848.175	80.38
848.35	80.38
848.526	55.81
848.701	6.66
848.876	113.15
849.052	33.28
849.227	147.97
849.403	45.57
849.578	51.71
849.753	59.9
849.929	23.04
850.104	10.75
850.279	35.33
850.454	37.38
850.63	92.67
850.805	53.76
850.98	25.09
851.155	49.66
851.33	156.16
851.505	39.42
851.681	61.95
851.856	-34.3
852.031	109.05
852.206	57.86
852.381	51.71
852.556	18.94
852.731	6.66
852.906	29.18
853.081	88.57
853.256	14.85
853.431	88.57
853.606	39.42
853.781	-9.73
853.956	64
854.131	80.38
854.305	33.28
854.48	23.04
854.655	53.76
854.83	43.52
855.005	31.23
855.18	35.33
855.354	25.09
855.529	74.24
855.704	47.62
855.879	51.71
856.053	51.71
856.228	86.53
856.403	-26.11
856.577	66.05
856.752	-26.11
856.926	23.04
857.101	51.71
857.276	39.42
857.45	27.14
857.625	86.53
857.799	47.62
857.974	0.51
858.148	64
858.323	80.38
858.497	-40.45
858.672	31.23
858.846	125.44
859.02	39.42
859.195	-3.58
859.369	14.85
859.543	14.85
859.718	72.19
859.892	-1.54
860.066	123.39
860.241	31.23
860.415	8.7
860.589	14.85
860.763	14.85
860.938	-9.73
861.112	64
861.286	-3.58
861.46	41.47
861.634	31.23
861.808	164.35
861.982	55.81
862.157	39.42
862.331	31.23
862.505	74.24
862.679	18.94
862.853	33.28
863.027	47.62
863.201	92.67
863.375	-3.58
863.549	74.24
863.722	35.33
863.896	35.33
864.07	-1.54
864.244	16.9
864.418	23.04
864.592	100.86
864.766	-24.06
864.939	-22.02
865.113	-5.63
865.287	-22.02
865.461	-5.63
865.634	47.62
865.808	27.14
865.982	-1.54
866.156	-108.03
866.329	-34.3
866.503	6.66
866.676	47.62
866.85	-7.68
867.024	25.09
867.197	0.51
867.371	23.04
867.544	49.66
867.718	0.51
867.891	16.9
868.065	29.18
868.238	8.7
868.412	6.66
868.585	-22.02
868.759	31.23
868.932	29.18
869.105	-7.68
869.279	33.28
869.452	55.81
869.625	59.9
869.799	55.81
869.972	-81.41
870.145	-1.54
870.319	-34.3
870.492	49.66
870.665	98.81
870.838	-11.78
871.011	-13.82
871.185	72.19
871.358	-24.06
871.531	61.95
871.704	23.04
871.877	10.75
872.05	47.62
872.223	-1.54
872.396	98.81
872.569	23.04
872.742	-7.68
872.915	43.52
873.088	39.42
873.261	68.09
873.434	33.28
873.607	33.28
873.78	76.29
873.953	-34.3
874.126	16.9
874.299	55.81
874.471	-42.5
874.644	18.94
874.817	113.15
874.99	137.73
875.163	51.71
875.335	8.7
875.508	29.18
875.681	74.24
875.853	41.47
876.026	14.85
876.199	25.09
876.371	4.61
876.544	10.75
876.717	-7.68
876.889	-7.68
877.062	55.81
877.234	25.09
877.407	8.7
877.579	-32.26
877.752	27.14
877.924	55.81
878.097	31.23
878.269	84.48
878.442	64
878.614	57.86
878.786	14.85
878.959	-26.11
879.131	31.23
879.303	10.75
879.476	20.99
879.648	55.81
879.82	39.42
879.993	-17.92
880.165	18.94
880.337	-58.88
880.509	74.24
880.681	16.9
880.854	-9.73
881.026	104.96
881.198	64
881.37	29.18
881.542	-7.68
881.714	57.86
881.886	96.77
882.058	18.94
882.23	-7.68
882.402	0.51
882.574	47.62
882.746	8.7
882.918	59.9
883.09	10.75
883.262	39.42
883.434	14.85
883.606	-9.73
883.778	-13.82
883.95	47.62
884.122	57.86
884.293	68.09
884.465	-67.07
884.637	96.77
884.809	-50.69
884.98	57.86
885.152	90.62
885.324	6.66
885.496	41.47
885.667	12.8
885.839	8.7
886.011	80.38
886.182	35.33
886.354	25.09
886.525	23.04
886.697	25.09
886.869	14.85
887.04	127.49
887.212	33.28
887.383	90.62
887.555	47.62
887.726	-24.06
887.897	-1.54
888.069	-1.54
888.24	-9.73
888.412	66.05
888.583	35.33
888.754	35.33
888.926	-32.26
889.097	107.01
889.268	-36.35
889.44	23.04
889.611	31.23
889.782	-34.3
889.953	31.23
890.125	35.33
890.296	12.8
890.467	92.67
890.638	0.51
890.809	-7.68
890.98	39.42
891.151	8.7
891.323	66.05
891.494	39.42
891.665	-9.73
891.836	59.9
892.007	18.94
892.178	-26.11
892.349	31.23
892.52	57.86
892.691	8.7
892.862	33.28
893.032	18.94
893.203	6.66
893.374	51.71
893.545	59.9
893.716	64
893.887	80.38
894.057	66.05
894.228	6.66
894.399	-1.54
894.57	98.81
894.74	-26.11
894.911	109.05
895.082	6.66
895.253	-17.92
895.423	98.81
895.594	6.66
895.764	-22.02
895.935	-36.35
896.106	35.33
896.276	47.62
896.447	41.47
896.617	-17.92
896.788	14.85
896.958	6.66
897.129	70.14
897.299	55.81
897.47	61.95
897.64	76.29
897.81	-48.64
897.981	-11.78
898.151	4.61
898.322	23.04
898.492	0.51
898.662	-3.58
898.832	-17.92
899.003	92.67
899.173	16.9
899.343	-38.4
899.513	12.8
