Data from USB4F104151__49__14-43-05-542.txt Node

Date: Thu Mar 13 14:43:05 EDT 2025
User: louis
Spectrometer: USB4F10415
Trigger mode: 4
Integration Time (sec): 2.000000E-2
Scans to average: 1
Electric dark correction enabled: true
Nonlinearity correction enabled: false
Boxcar width: 0
XAxis mode: Wavelengths
Number of Pixels in Spectrum: 3648
>>>>>Begin Spectral Data<<<<<
178.204	-100.18
178.424	-100.18
178.644	-100.18
178.864	-141.14
179.084	-67.41
179.304	6.31
179.524	-65.36
179.744	-26.45
179.964	-22.36
180.184	-22.36
180.404	49.32
180.624	2.22
180.844	39.08
181.064	-5.97
181.283	61.61
181.503	-63.32
181.723	47.27
181.943	-16.21
182.163	47.27
182.383	14.51
182.602	57.51
182.822	77.99
183.042	104.62
183.262	63.66
183.482	20.65
183.701	16.55
183.921	34.99
184.141	-51.03
184.361	41.13
184.58	104.62
184.8	63.66
185.02	-16.21
185.239	98.47
185.459	18.6
185.679	82.09
185.898	34.99
186.118	106.67
186.338	-20.31
186.557	63.66
186.777	22.7
186.997	-38.74
187.216	28.84
187.436	24.75
187.655	82.09
187.875	65.71
188.095	41.13
188.314	-16.21
188.534	75.95
188.753	-63.32
188.973	88.23
189.192	63.66
189.412	-20.31
189.631	-8.02
189.851	-10.07
190.07	121
190.29	24.75
190.509	63.66
190.729	-34.64
190.948	51.37
191.168	137.38
191.387	32.94
191.607	18.6
191.826	71.85
192.045	75.95
192.265	-18.26
192.484	14.51
192.704	51.37
192.923	43.18
193.142	123.05
193.362	30.89
193.581	-5.97
193.8	10.41
194.02	80.04
194.239	100.52
194.458	94.38
194.678	51.37
194.897	32.94
195.116	75.95
195.335	51.37
195.555	2.22
195.774	34.99
195.993	47.27
196.212	22.7
196.432	-63.32
196.651	55.47
196.87	-22.36
197.089	129.19
197.308	6.31
197.528	-32.6
197.747	18.6
197.966	47.27
198.185	59.56
198.404	75.95
198.623	28.84
198.842	57.51
199.062	86.19
199.281	26.79
199.5	-59.22
199.719	14.51
199.938	51.37
200.157	98.47
200.376	30.89
200.595	73.9
200.814	-42.84
201.033	-51.03
201.252	112.81
201.471	-16.21
201.69	14.51
201.909	26.79
202.128	88.23
202.347	18.6
202.566	-16.21
202.785	12.46
203.004	0.17
203.223	75.95
203.442	32.94
203.661	65.71
203.879	6.31
204.098	-18.26
204.317	10.41
204.536	-10.07
204.755	43.18
204.974	73.9
205.193	73.9
205.411	155.82
205.63	26.79
205.849	51.37
206.068	80.04
206.287	-5.97
206.505	63.66
206.724	34.99
206.943	8.36
207.162	-8.02
207.381	43.18
207.599	-1.88
207.818	4.27
208.037	30.89
208.255	10.41
208.474	84.14
208.693	63.66
208.911	65.71
209.13	43.18
209.349	69.8
209.567	110.76
209.786	34.99
210.005	26.79
210.223	106.67
210.442	-14.17
210.661	145.58
210.879	-26.45
211.098	55.47
211.316	8.36
211.535	61.61
211.753	88.23
211.972	51.37
212.191	-26.45
212.409	-28.5
212.628	41.13
212.846	41.13
213.065	-5.97
213.283	39.08
213.502	10.41
213.72	121
213.938	4.27
214.157	-1.88
214.375	49.32
214.594	32.94
214.812	112.81
215.031	-46.93
215.249	86.19
215.467	123.05
215.686	92.33
215.904	-32.6
216.122	-14.17
216.341	96.43
216.559	39.08
216.778	86.19
216.996	-10.07
217.214	41.13
217.432	63.66
217.651	-24.4
217.869	-48.98
218.087	98.47
218.306	-14.17
218.524	14.51
218.742	10.41
218.96	-12.12
219.179	12.46
219.397	-1.88
219.615	51.37
219.833	-40.79
220.051	-16.21
220.27	32.94
220.488	18.6
220.706	18.6
220.924	16.55
221.142	-3.93
221.36	37.03
221.578	-24.4
221.796	-10.07
222.015	47.27
222.233	18.6
222.451	39.08
222.669	30.89
222.887	88.23
223.105	34.99
223.323	2.22
223.541	133.29
223.759	106.67
223.977	59.56
224.195	71.85
224.413	55.47
224.631	-5.97
224.849	71.85
225.067	114.86
225.285	30.89
225.503	47.27
225.721	-36.69
225.939	0.17
226.157	24.75
226.375	141.48
226.592	47.27
226.81	-8.02
227.028	73.9
227.246	59.56
227.464	18.6
227.682	-1.88
227.9	-34.64
228.117	22.7
228.335	98.47
228.553	28.84
228.771	-20.31
228.989	59.56
229.206	59.56
229.424	98.47
229.642	-10.07
229.86	-24.4
230.077	24.75
230.295	71.85
230.513	18.6
230.731	47.27
230.948	71.85
231.166	88.23
231.384	-1.88
231.601	71.85
231.819	57.51
232.037	10.41
232.254	-18.26
232.472	24.75
232.689	10.41
232.907	121
233.125	-18.26
233.342	82.09
233.56	30.89
233.777	37.03
233.995	96.43
234.213	30.89
234.43	47.27
234.648	57.51
234.865	4.27
235.083	80.04
235.3	39.08
235.518	112.81
235.735	16.55
235.953	26.79
236.17	-51.03
236.388	82.09
236.605	-18.26
236.822	57.51
237.04	41.13
237.257	34.99
237.475	22.7
237.692	90.28
237.909	-10.07
238.127	47.27
238.344	-16.21
238.562	34.99
238.779	30.89
238.996	6.31
239.214	49.32
239.431	170.15
239.648	-1.88
239.865	73.9
240.083	63.66
240.3	-14.17
240.517	-26.45
240.735	45.23
240.952	61.61
241.169	49.32
241.386	14.51
241.603	73.9
241.821	51.37
242.038	61.61
242.255	161.96
242.472	8.36
242.689	69.8
242.907	123.05
243.124	121
243.341	-51.03
243.558	61.61
243.775	20.65
243.992	59.56
244.209	59.56
244.426	96.43
244.643	39.08
244.86	96.43
245.078	14.51
245.295	8.36
245.512	49.32
245.729	55.47
245.946	121
246.163	49.32
246.38	125.1
246.597	0.17
246.814	49.32
247.031	47.27
247.248	2.22
247.464	90.28
247.681	71.85
247.898	55.47
248.115	112.81
248.332	47.27
248.549	100.52
248.766	57.51
248.983	71.85
249.2	16.55
249.417	96.43
249.633	14.51
249.85	98.47
250.067	73.9
250.284	129.19
250.501	127.14
250.717	18.6
250.934	-18.26
251.151	43.18
251.368	-14.17
251.585	57.51
251.801	2.22
252.018	43.18
252.235	49.32
252.451	-14.17
252.668	-5.97
252.885	37.03
253.102	32.94
253.318	10.41
253.535	30.89
253.752	34.99
253.968	65.71
254.185	12.46
254.401	-26.45
254.618	114.86
254.835	-28.5
255.051	112.81
255.268	16.55
255.484	12.46
255.701	47.27
255.917	116.9
256.134	14.51
256.351	100.52
256.567	-1.88
256.784	55.47
257	26.79
257.217	53.42
257.433	92.33
257.65	86.19
257.866	84.14
258.082	30.89
258.299	4.27
258.515	65.71
258.732	32.94
258.948	88.23
259.165	39.08
259.381	-18.26
259.597	20.65
259.814	90.28
260.03	22.7
260.246	41.13
260.463	24.75
260.679	26.79
260.895	63.66
261.112	98.47
261.328	6.31
261.544	16.55
261.761	121
261.977	-10.07
262.193	63.66
262.409	67.75
262.626	14.51
262.842	51.37
263.058	16.55
263.274	104.62
263.49	22.7
263.707	137.38
263.923	30.89
264.139	-8.02
264.355	4.27
264.571	94.38
264.787	55.47
265.004	34.99
265.22	-14.17
265.436	16.55
265.652	34.99
265.868	39.08
266.084	65.71
266.3	94.38
266.516	34.99
266.732	63.66
266.948	59.56
267.164	-18.26
267.38	43.18
267.596	63.66
267.812	67.75
268.028	-30.55
268.244	32.94
268.46	47.27
268.676	41.13
268.892	55.47
269.108	16.55
269.324	47.27
269.54	-63.32
269.756	43.18
269.972	71.85
270.188	14.51
270.403	26.79
270.619	32.94
270.835	98.47
271.051	8.36
271.267	37.03
271.483	30.89
271.698	73.9
271.914	39.08
272.13	53.42
272.346	49.32
272.562	-26.45
272.777	49.32
272.993	18.6
273.209	-63.32
273.425	59.56
273.64	-10.07
273.856	55.47
274.072	10.41
274.287	2.22
274.503	39.08
274.719	18.6
274.934	90.28
275.15	14.51
275.366	73.9
275.581	-22.36
275.797	73.9
276.012	-30.55
276.228	30.89
276.444	41.13
276.659	67.75
276.875	-24.4
277.09	63.66
277.306	-28.5
277.521	67.75
277.737	39.08
277.952	80.04
278.168	55.47
278.383	22.7
278.599	96.43
278.814	67.75
279.03	41.13
279.245	45.23
279.461	47.27
279.676	16.55
279.892	-42.84
280.107	-8.02
280.322	-38.74
280.538	106.67
280.753	-30.55
280.969	28.84
281.184	137.38
281.399	90.28
281.615	112.81
281.83	65.71
282.045	22.7
282.26	51.37
282.476	16.55
282.691	30.89
282.906	-28.5
283.122	80.04
283.337	16.55
283.552	59.56
283.767	-1.88
283.983	100.52
284.198	18.6
284.413	-34.64
284.628	-20.31
284.843	6.31
285.058	6.31
285.274	96.43
285.489	-5.97
285.704	49.32
285.919	51.37
286.134	47.27
286.349	2.22
286.564	8.36
286.779	32.94
286.995	47.27
287.21	65.71
287.425	71.85
287.64	16.55
287.855	2.22
288.07	-10.07
288.285	-1.88
288.5	14.51
288.715	32.94
288.93	-5.97
289.145	32.94
289.36	30.89
289.575	-1.88
289.79	10.41
290.004	82.09
290.219	30.89
290.434	39.08
290.649	6.31
290.864	-42.84
291.079	14.51
291.294	75.95
291.509	63.66
291.724	63.66
291.938	2.22
292.153	43.18
292.368	67.75
292.583	47.27
292.798	-3.93
293.012	39.08
293.227	39.08
293.442	-8.02
293.657	67.75
293.871	121
294.086	80.04
294.301	88.23
294.516	41.13
294.73	43.18
294.945	18.6
295.16	39.08
295.374	57.51
295.589	-34.64
295.804	43.18
296.018	18.6
296.233	59.56
296.447	55.47
296.662	-1.88
296.877	24.75
297.091	2.22
297.306	22.7
297.52	-16.21
297.735	59.56
297.949	77.99
298.164	47.27
298.378	14.51
298.593	2.22
298.807	-14.17
299.022	-32.6
299.236	45.23
299.451	-1.88
299.665	2.22
299.88	116.9
300.094	39.08
300.309	18.6
300.523	71.85
300.737	129.19
300.952	34.99
301.166	53.42
301.381	-42.84
301.595	82.09
301.809	32.94
302.024	22.7
302.238	67.75
302.452	14.51
302.667	37.03
302.881	145.58
303.095	2.22
303.309	112.81
303.524	-51.03
303.738	80.04
303.952	41.13
304.166	84.14
304.381	49.32
304.595	96.43
304.809	37.03
305.023	92.33
305.237	16.55
305.452	90.28
305.666	30.89
305.88	125.1
306.094	59.56
306.308	67.75
306.522	84.14
306.736	10.41
306.95	16.55
307.164	-10.07
307.379	22.7
307.593	114.86
307.807	84.14
308.021	73.9
308.235	22.7
308.449	-42.84
308.663	86.19
308.877	145.58
309.091	16.55
309.305	-8.02
309.519	-24.4
309.733	-10.07
309.947	32.94
310.161	-24.4
310.374	22.7
310.588	34.99
310.802	14.51
311.016	55.47
311.23	39.08
311.444	67.75
311.658	6.31
311.872	55.47
312.085	16.55
312.299	8.36
312.513	39.08
312.727	55.47
312.941	-51.03
313.154	30.89
313.368	39.08
313.582	-32.6
313.796	22.7
314.009	-14.17
314.223	96.43
314.437	59.56
314.651	14.51
314.864	-8.02
315.078	6.31
315.292	84.14
315.505	10.41
315.719	67.75
315.933	121
316.146	65.71
316.36	-46.93
316.573	69.8
316.787	90.28
317.001	71.85
317.214	12.46
317.428	153.77
317.641	8.36
317.855	41.13
318.068	57.51
318.282	24.75
318.495	137.38
318.709	63.66
318.922	8.36
319.136	100.52
319.349	59.56
319.563	55.47
319.776	59.56
319.99	59.56
320.203	80.04
320.417	22.7
320.63	18.6
320.843	43.18
321.057	80.04
321.27	-1.88
321.483	86.19
321.697	65.71
321.91	63.66
322.124	55.47
322.337	84.14
322.55	-16.21
322.763	-10.07
322.977	-30.55
323.19	39.08
323.403	53.42
323.617	18.6
323.83	24.75
324.043	14.51
324.256	112.81
324.469	22.7
324.683	39.08
324.896	0.17
325.109	24.75
325.322	-40.79
325.535	47.27
325.748	80.04
325.962	-10.07
326.175	39.08
326.388	86.19
326.601	20.65
326.814	14.51
327.027	51.37
327.24	96.43
327.453	47.27
327.666	86.19
327.879	82.09
328.092	104.62
328.305	77.99
328.518	80.04
328.731	63.66
328.944	43.18
329.157	88.23
329.37	39.08
329.583	51.37
329.796	88.23
330.009	49.32
330.222	-24.4
330.435	112.81
330.648	10.41
330.861	32.94
331.073	51.37
331.286	-22.36
331.499	51.37
331.712	75.95
331.925	18.6
332.138	47.27
332.35	104.62
332.563	8.36
332.776	26.79
332.989	55.47
333.202	-55.12
333.414	26.79
333.627	82.09
333.84	16.55
334.053	39.08
334.265	100.52
334.478	-34.64
334.691	51.37
334.903	116.9
335.116	41.13
335.329	22.7
335.541	88.23
335.754	80.04
335.966	2.22
336.179	121
336.392	96.43
336.604	26.79
336.817	137.38
337.029	77.99
337.242	34.99
337.454	84.14
337.667	71.85
337.88	24.75
338.092	55.47
338.305	98.47
338.517	-5.97
338.729	6.31
338.942	47.27
339.154	-14.17
339.367	14.51
339.579	110.76
339.792	-5.97
340.004	80.04
340.217	41.13
340.429	49.32
340.641	75.95
340.854	-71.51
341.066	-40.79
341.278	86.19
341.491	39.08
341.703	88.23
341.915	26.79
342.128	39.08
342.34	26.79
342.552	2.22
342.764	-8.02
342.977	84.14
343.189	39.08
343.401	59.56
343.613	22.7
343.826	104.62
344.038	47.27
344.25	26.79
344.462	32.94
344.674	47.27
344.886	0.17
345.099	63.66
345.311	30.89
345.523	39.08
345.735	-32.6
345.947	63.66
346.159	28.84
346.371	90.28
346.583	88.23
346.795	59.56
347.007	73.9
347.219	59.56
347.431	49.32
347.643	80.04
347.855	12.46
348.067	106.67
348.279	51.37
348.491	34.99
348.703	67.75
348.915	88.23
349.127	96.43
349.339	63.66
349.551	32.94
349.763	0.17
349.975	51.37
350.187	141.48
350.399	102.57
350.61	6.31
350.822	-26.45
351.034	39.08
351.246	100.52
351.458	16.55
351.669	92.33
351.881	24.75
352.093	88.23
352.305	80.04
352.517	71.85
352.728	135.34
352.94	18.6
353.152	24.75
353.363	59.56
353.575	121
353.787	112.81
353.999	63.66
354.21	116.9
354.422	14.51
354.633	59.56
354.845	82.09
355.057	49.32
355.268	145.58
355.48	88.23
355.692	-24.4
355.903	63.66
356.115	16.55
356.326	69.8
356.538	30.89
356.749	-20.31
356.961	96.43
357.172	96.43
357.384	32.94
357.595	108.71
357.807	43.18
358.018	82.09
358.23	63.66
358.441	96.43
358.653	57.51
358.864	59.56
359.075	-32.6
359.287	24.75
359.498	30.89
359.709	84.14
359.921	127.14
360.132	34.99
360.344	16.55
360.555	24.75
360.766	49.32
360.977	16.55
361.189	108.71
361.4	34.99
361.611	32.94
361.823	39.08
362.034	39.08
362.245	-1.88
362.456	45.23
362.667	96.43
362.879	-32.6
363.09	55.47
363.301	82.09
363.512	6.31
363.723	-1.88
363.935	30.89
364.146	116.9
364.357	22.7
364.568	-16.21
364.779	77.99
364.99	159.91
365.201	-24.4
365.412	96.43
365.623	32.94
365.834	34.99
366.045	49.32
366.256	67.75
366.467	-26.45
366.678	18.6
366.889	41.13
367.1	88.23
367.311	47.27
367.522	30.89
367.733	90.28
367.944	28.84
368.155	-22.36
368.366	24.75
368.577	30.89
368.788	55.47
368.999	71.85
369.209	104.62
369.42	125.1
369.631	67.75
369.842	73.9
370.053	63.66
370.264	49.32
370.474	16.55
370.685	30.89
370.896	80.04
371.107	51.37
371.317	112.81
371.528	88.23
371.739	47.27
371.95	73.9
372.16	75.95
372.371	2.22
372.582	94.38
372.792	63.66
373.003	43.18
373.214	100.52
373.424	92.33
373.635	49.32
373.846	100.52
374.056	43.18
374.267	153.77
374.477	104.62
374.688	55.47
374.898	39.08
375.109	57.51
375.319	24.75
375.53	106.67
375.74	100.52
375.951	65.71
376.161	26.79
376.372	71.85
376.582	49.32
376.793	73.9
377.003	47.27
377.214	55.47
377.424	92.33
377.635	116.9
377.845	28.84
378.055	90.28
378.266	45.23
378.476	75.95
378.686	49.32
378.897	30.89
379.107	61.61
379.317	131.24
379.528	75.95
379.738	110.76
379.948	104.62
380.158	6.31
380.369	57.51
380.579	84.14
380.789	-26.45
380.999	63.66
381.21	51.37
381.42	61.61
381.63	32.94
381.84	88.23
382.05	55.47
382.261	57.51
382.471	106.67
382.681	49.32
382.891	139.43
383.101	65.71
383.311	57.51
383.521	55.47
383.731	57.51
383.941	129.19
384.151	108.71
384.361	-1.88
384.571	43.18
384.781	90.28
384.991	149.67
385.201	106.67
385.411	34.99
385.621	59.56
385.831	112.81
386.041	41.13
386.251	84.14
386.461	53.42
386.671	73.9
386.881	71.85
387.091	24.75
387.301	73.9
387.511	65.71
387.72	49.32
387.93	14.51
388.14	47.27
388.35	129.19
388.56	77.99
388.769	131.24
388.979	30.89
389.189	65.71
389.399	123.05
389.609	121
389.818	90.28
390.028	37.03
390.238	106.67
390.447	14.51
390.657	80.04
390.867	106.67
391.076	51.37
391.286	88.23
391.496	67.75
391.705	71.85
391.915	47.27
392.125	123.05
392.334	41.13
392.544	98.47
392.753	88.23
392.963	-18.26
393.172	123.05
393.382	32.94
393.591	145.58
393.801	129.19
394.01	153.77
394.22	43.18
394.429	129.19
394.639	59.56
394.848	96.43
395.058	112.81
395.267	137.38
395.477	94.38
395.686	63.66
395.895	73.9
396.105	172.2
396.314	47.27
396.524	22.7
396.733	92.33
396.942	137.38
397.152	104.62
397.361	170.15
397.57	116.9
397.78	75.95
397.989	104.62
398.198	161.96
398.407	182.44
398.617	92.33
398.826	106.67
399.035	147.62
399.244	131.24
399.453	-1.88
399.663	80.04
399.872	114.86
400.081	-24.4
400.29	71.85
400.499	6.31
400.708	51.37
400.917	106.67
401.127	88.23
401.336	141.48
401.545	118.95
401.754	149.67
401.963	133.29
402.172	55.47
402.381	114.86
402.59	108.71
402.799	69.8
403.008	153.77
403.217	67.75
403.426	157.86
403.635	108.71
403.844	170.15
404.053	182.44
404.262	161.96
404.471	166.06
404.68	178.34
404.888	155.82
405.097	4.27
405.306	245.93
405.515	184.49
405.724	219.3
405.933	159.91
406.142	159.91
406.35	188.58
406.559	194.73
406.768	174.25
406.977	172.2
407.185	202.92
407.394	174.25
407.603	170.15
407.812	293.03
408.02	219.3
408.229	247.97
408.438	202.92
408.646	116.9
408.855	274.6
409.064	227.5
409.272	235.69
409.481	256.17
409.69	237.74
409.898	252.07
410.107	258.21
410.315	252.07
410.524	270.5
410.733	331.94
410.941	338.09
411.15	309.41
411.358	385.19
411.567	485.54
411.775	428.2
411.984	403.62
412.192	454.82
412.401	448.68
412.609	442.53
412.818	471.2
413.026	467.11
413.234	495.78
413.443	393.38
413.651	460.96
413.86	518.31
414.068	647.33
414.276	637.09
414.485	571.55
414.693	778.4
414.901	673.95
415.11	647.33
415.318	673.95
415.526	768.16
415.734	843.93
415.943	805.02
416.151	858.27
416.359	805.02
416.567	878.75
416.776	919.71
416.984	983.2
417.192	950.43
417.4	1020.06
417.608	960.67
417.817	972.96
418.025	1134.75
418.233	1198.23
418.441	1083.55
418.649	1196.18
418.857	1153.18
419.065	1269.91
419.273	1194.14
419.481	1310.87
419.689	1427.6
419.897	1431.7
420.105	1513.62
420.313	1534.1
420.521	1640.59
420.729	1620.11
420.937	1595.54
421.145	1710.22
421.353	1806.48
421.561	1812.62
421.769	1980.56
421.977	2056.33
422.185	1906.83
422.393	2078.86
422.601	2207.88
422.809	2283.66
423.017	2236.55
423.224	2273.42
423.432	2351.24
423.64	2463.88
423.848	2758.78
424.056	2564.23
424.263	2656.39
424.471	2795.65
424.679	2726.02
424.887	2949.25
425.094	3051.64
425.302	3000.44
425.51	3080.32
425.718	3281.02
425.925	3250.3
426.133	3487.86
426.341	3696.75
426.548	3733.62
426.756	3766.39
426.964	3817.58
427.171	4028.53
427.379	4063.34
427.586	4130.92
427.794	4239.47
428.001	4548.71
428.209	4747.36
428.417	4710.5
428.624	5103.71
428.832	4868.19
429.039	4925.54
429.247	4841.57
429.454	5503.06
429.662	5857.36
429.869	5406.81
430.076	5711.96
430.284	5695.57
430.491	5763.15
430.699	6060.11
430.906	6180.94
431.114	6322.25
431.321	6357.07
431.528	6604.87
431.736	7127.1
431.943	7235.64
432.15	7073.85
432.358	7301.18
432.565	7635
432.772	7520.31
432.979	7970.87
433.187	8216.62
433.394	8149.04
433.601	8675.37
433.808	8730.66
434.016	8689.7
434.223	9275.42
434.43	9689.11
434.637	9365.53
434.844	9908.24
435.052	10088.46
435.259	10098.7
435.466	10098.7
435.673	10287.12
435.88	10676.23
436.087	11292.67
436.294	11237.38
436.501	11022.34
436.708	11403.26
436.915	11780.09
437.122	12138.48
437.329	12142.58
437.537	12550.12
437.743	12730.34
437.95	12531.69
438.157	13318.11
438.364	13615.07
438.571	13524.96
438.778	13514.72
438.985	15132.61
439.192	14288.85
439.399	14979.01
439.606	14643.15
439.813	15448
440.02	16465.84
440.227	16197.56
440.433	16127.92
440.64	16250.8
440.847	16185.27
441.054	16783.27
441.261	17971.1
441.467	17557.41
441.674	17991.58
441.881	18597.77
442.088	18657.17
442.294	18233.24
442.501	18933.64
442.708	19400.58
442.914	19777.4
443.121	20844.4
443.328	20139.9
443.534	21657.44
443.741	21100.39
443.948	20719.47
444.154	22355.8
444.361	21919.58
444.568	22355.8
444.774	22447.96
444.981	22484.82
445.187	22933.32
445.394	24221.5
445.6	24078.14
445.807	26263.32
446.013	24743.73
446.22	25177.9
446.426	26181.4
446.633	26724.11
446.839	27629.32
447.046	26560.28
447.252	27965.18
447.459	27985.66
447.665	27866.88
447.871	29284.08
448.078	30349.02
448.284	28983.02
448.491	29916.9
448.697	30818
448.903	31686.34
449.11	31401.68
449.316	30754.52
449.522	31368.91
449.728	32220.86
449.935	32628.41
450.141	32657.08
450.347	33300.14
450.553	32466.62
450.76	32673.46
450.966	33855.14
451.172	33429.16
451.378	34375.33
451.584	33715.88
451.791	34631.32
451.997	34416.29
452.203	34930.33
452.409	35108.5
452.615	34836.12
452.821	33812.13
453.027	33158.83
453.233	35182.23
453.44	33603.24
453.646	33789.61
453.852	34490.01
454.058	34850.45
454.264	33703.59
454.47	34279.07
454.676	33478.32
454.882	34412.19
455.088	31409.87
455.294	32513.72
455.5	32870.07
455.705	33212.08
455.911	31889.09
456.117	31293.13
456.323	30953.17
456.529	29363.95
456.735	30353.12
456.941	29859.56
457.147	29288.17
457.352	28536.57
457.558	28210.94
457.764	28391.16
457.97	27795.2
458.176	27096.85
458.381	27469.58
458.587	25583.4
458.793	25837.34
458.999	24622.9
459.204	26396.44
459.41	25642.79
459.616	23893.82
459.821	23832.38
460.027	23998.27
460.233	23261
460.438	22257.5
460.644	22495.06
460.85	21479.27
461.055	21002.09
461.261	20813.68
461.466	19435.39
461.672	18874.25
461.878	20141.94
462.083	18868.11
462.289	18782.09
462.494	18290.58
462.7	17610.65
462.905	17168.29
463.111	17610.65
463.316	17956.76
463.522	17430.43
463.727	17313.7
463.932	17375.14
464.138	17002.41
464.343	17180.58
464.549	16742.32
464.754	17242.02
464.959	17080.23
465.165	16963.5
465.37	16375.73
465.575	15620.03
465.781	16525.23
465.986	16748.46
466.191	15728.57
466.397	15613.88
466.602	14950.34
466.807	15275.97
467.012	15554.49
467.218	15296.45
467.423	15142.85
467.628	15308.74
467.833	15853.5
468.038	15329.22
468.244	14825.42
468.449	15564.73
468.654	14911.43
468.859	15140.8
469.064	14798.79
469.269	14239.7
469.474	14286.8
469.679	14614.48
469.885	14172.11
470.09	14278.61
470.295	14473.17
470.5	14092.24
470.705	14282.7
470.91	13821.91
471.115	13557.72
471.32	13932.5
471.525	13801.43
471.73	13230.05
471.935	13348.83
472.139	12916.71
472.344	12908.52
472.549	13002.72
472.754	12625.9
472.959	12578.79
473.164	12271.6
473.369	12328.94
473.574	12496.88
473.778	12451.82
473.983	12310.51
474.188	12290.03
474.393	11782.13
474.598	11847.67
474.802	11782.13
475.007	11614.2
475.212	11626.49
475.417	11372.54
475.621	11423.74
475.826	11397.12
476.031	11239.42
476.235	10727.43
476.44	10930.18
476.645	10848.26
476.849	10944.52
477.054	10541.07
477.259	10424.33
477.463	10235.92
477.668	10475.53
477.872	10375.18
478.077	10197.01
478.282	9918.48
478.486	10127.38
478.691	9822.23
478.895	9928.72
479.1	9803.8
479.304	9678.87
479.509	9447.45
479.713	9519.13
479.918	9482.27
480.122	9263.13
480.326	9605.14
480.531	9314.33
480.735	9412.64
480.94	9240.61
481.144	9443.35
481.348	8939.55
481.553	9074.72
481.757	9074.72
481.961	9013.28
482.166	9140.26
482.37	9117.73
482.574	8888.36
482.778	8943.65
482.983	9150.5
483.187	9087.01
483.391	8941.6
483.595	8904.74
483.8	8990.75
484.004	9070.62
484.208	8923.17
484.412	9037.86
484.616	8874.02
484.821	8822.82
485.025	8921.12
485.229	8882.21
485.433	8738.85
485.637	8925.22
485.841	9007.14
486.045	8933.41
486.249	8951.84
486.453	8884.26
486.657	8998.95
486.861	9054.24
487.065	8650.79
487.269	8837.16
487.473	8812.58
487.677	8996.9
487.881	8972.32
488.085	8976.42
488.289	9064.48
488.493	8783.91
488.697	8960.03
488.901	8986.66
489.105	8882.21
489.309	8992.8
489.512	9013.28
489.716	9130.02
489.92	9062.43
490.124	8931.36
490.328	9150.5
490.531	9314.33
490.735	9207.84
490.939	9205.79
491.143	9152.54
491.346	9156.64
491.55	9377.82
491.754	9328.67
491.958	9183.26
492.161	9359.39
492.365	9369.63
492.569	9564.18
492.772	9478.17
492.976	9650.2
493.18	9560.09
493.383	9711.64
493.587	9721.88
493.79	9740.31
493.994	9691.16
494.197	9834.52
494.401	9824.28
494.605	9818.13
494.808	9990.16
495.012	10131.47
495.215	9848.85
495.419	10258.45
495.622	9947.15
495.825	10346.51
496.029	10301.45
496.232	10571.79
496.436	10483.72
496.639	10878.98
496.843	10762.25
497.046	10795.01
497.249	10909.7
497.453	11046.91
497.656	11280.38
497.859	11294.72
498.063	11124.74
498.266	11407.36
498.469	11495.42
498.673	11409.4
498.876	11571.19
499.079	11784.18
499.282	12017.65
499.485	12152.82
499.689	12081.14
499.892	12511.21
500.095	12546.03
500.298	12865.51
500.501	12498.92
500.705	12826.6
500.908	13088.74
501.111	13045.73
501.314	13303.78
501.517	13459.42
501.72	13844.44
501.923	13725.66
502.126	13795.29
502.329	14186.45
502.532	14090.2
502.735	14194.64
502.938	14471.12
503.141	14577.61
503.344	14970.82
503.547	14936.01
503.75	15038.41
503.953	15423.42
504.156	15722.43
504.359	15497.15
504.562	15693.76
504.765	15996.85
504.968	16031.67
505.17	16447.41
505.373	16162.74
505.576	16537.52
505.779	16754.6
505.982	17074.09
506.185	17348.51
506.387	17409.95
506.59	17588.13
506.793	17678.24
506.996	17495.97
507.198	18175.89
507.401	17889.18
507.604	18317.2
507.807	18706.32
508.009	18782.09
508.212	18800.52
508.415	19062.66
508.617	19263.36
508.82	19531.65
509.022	19292.04
509.225	20068.22
509.428	19738.49
509.63	20330.36
509.833	20076.41
510.035	20539.25
510.238	20586.35
510.44	20957.03
510.643	21137.26
510.845	21559.14
511.048	21342.05
511.25	21862.24
511.453	22126.43
511.655	22728.53
511.858	22372.18
512.06	22566.74
512.262	22648.66
512.465	22994.76
512.667	23340.87
512.87	23484.23
513.072	23365.45
513.274	23824.19
513.477	24125.24
513.679	24342.33
513.881	24598.32
514.084	24725.3
514.286	24923.95
514.488	24680.24
514.69	25546.53
514.893	25675.55
515.095	25759.52
515.297	26072.86
515.499	26175.26
515.701	26562.33
515.904	26670.87
516.106	27041.55
516.308	27248.39
516.51	27297.55
516.712	27367.18
516.914	28030.72
517.116	28268.28
517.318	28204.8
517.52	27971.33
517.722	28806.9
517.925	29120.24
518.127	29341.42
518.329	29490.92
518.531	29325.04
518.733	30136.03
518.935	30426.84
519.136	30217.95
519.338	30609.11
519.54	30940.88
519.742	30994.13
519.944	31416.01
520.146	31721.16
520.348	31917.76
520.55	31663.82
520.752	31755.97
520.954	32626.36
521.155	32319.17
521.357	32941.75
521.559	32941.75
521.761	33652.39
521.963	33791.66
522.164	33408.68
522.366	34045.6
522.568	34109.09
522.77	34475.68
522.971	34942.61
523.173	34281.12
523.375	34807.45
523.576	35030.68
523.778	34954.9
523.98	35514
524.181	35772.04
524.383	35763.85
524.584	35968.65
524.786	35944.07
524.988	36021.89
525.189	36603.52
525.391	36515.45
525.592	37135.99
525.794	36966.01
525.995	37072.5
526.197	37054.07
526.398	37179
526.6	37613.16
526.801	37865.06
527.003	37746.28
527.204	37693.04
527.406	38172.26
527.607	38020.71
527.808	38489.7
528.01	37619.31
528.211	38254.18
528.412	38757.98
528.614	38512.22
528.815	38958.68
529.016	38960.73
529.218	38739.55
529.419	39136.85
529.62	38891.1
529.822	38516.32
530.023	39349.84
530.224	39374.42
530.425	39069.27
530.626	39050.84
530.828	39056.98
531.029	39792.2
531.23	39265.88
531.431	38991.45
531.632	39974.47
531.833	40107.59
532.035	39646.8
532.236	39835.21
532.437	39630.41
532.638	39734.86
532.839	39892.55
533.04	40037.96
533.241	39708.24
533.442	40142.41
533.643	39822.92
533.844	39876.17
534.045	39796.3
534.246	39886.41
534.447	40021.58
534.648	39884.36
534.849	40384.07
535.05	39515.73
535.251	40234.56
535.451	39755.34
535.652	40177.22
535.853	39943.75
536.054	40185.41
536.255	40062.54
536.456	39732.81
536.657	40560.19
536.857	39857.74
537.058	40205.89
537.259	40042.06
537.46	40584.77
537.66	39855.69
537.861	40502.85
538.062	39913.03
538.263	40107.59
538.463	39843.4
538.664	40142.41
538.865	39951.95
539.065	40431.17
539.266	39640.65
539.466	40152.65
539.667	39741
539.868	40146.5
540.068	40255.04
540.269	39947.85
540.469	40519.23
540.67	40132.17
540.87	39691.85
541.071	39816.78
541.271	40504.9
541.472	39917.13
541.672	40042.06
541.873	39714.38
542.073	39495.25
542.274	40160.84
542.474	40035.91
542.675	39595.6
542.875	40091.21
543.075	39573.07
543.276	39769.68
543.476	40040.01
543.676	39777.87
543.877	40044.1
544.077	40128.07
544.277	39435.86
544.478	39691.85
544.678	39867.98
544.878	39949.9
545.078	39650.89
545.279	39730.76
545.479	39417.43
545.679	39896.65
545.879	39675.47
546.079	39874.12
546.28	39712.33
546.48	39347.79
546.68	39761.48
546.88	39499.34
547.08	39382.61
547.28	39652.94
547.48	39261.78
547.68	39433.81
547.88	39462.48
548.081	39714.38
548.281	39351.89
548.481	39355.99
548.681	39708.24
548.881	39403.09
549.081	39054.93
549.28	39511.63
549.48	39581.26
549.68	39300.69
549.88	40089.16
550.08	39122.52
550.28	39028.31
550.48	39396.95
550.68	39562.83
550.88	39038.55
551.08	39804.49
551.279	39454.29
551.479	38710.88
551.679	39398.99
551.879	39126.61
552.079	39775.82
552.278	39386.71
552.478	39104.09
552.678	39353.94
552.878	39020.12
553.077	38735.45
553.277	38383.2
553.477	39499.34
553.676	38903.39
553.876	39059.03
554.076	38684.25
554.275	38993.5
554.475	38592.09
554.674	38612.57
554.874	38917.72
555.074	38731.36
555.273	38760.03
555.473	38946.39
555.672	38397.54
555.872	38536.8
556.071	38278.75
556.271	38954.58
556.47	38487.65
556.67	38053.48
556.869	38409.82
557.068	38532.7
557.268	38475.36
557.467	38596.19
557.667	38024.81
557.866	38403.68
558.065	38518.37
558.265	37906.02
558.464	38375.01
558.663	38217.32
558.863	37572.21
559.062	38604.38
559.261	37428.85
559.461	37863.02
559.66	37451.38
559.859	37918.31
560.058	37873.26
560.258	37674.6
560.457	37551.73
560.656	38033
560.855	37381.74
561.054	37989.99
561.253	37242.48
561.453	37711.47
561.652	37604.97
561.851	37686.89
562.05	37269.11
562.249	37408.37
562.448	37455.47
562.647	37219.95
562.846	37234.29
563.045	36982.39
563.244	36826.74
563.443	37385.84
563.642	36828.79
563.841	36740.73
564.04	36773.5
564.239	37056.12
564.438	36695.67
564.637	36544.13
564.836	37021.3
565.035	36281.99
565.234	36482.69
565.432	36120.2
565.631	36157.06
565.83	36277.89
566.029	36408.96
566.228	35933.83
566.427	36013.7
566.625	36120.2
566.824	35573.39
567.023	36406.91
567.222	35118.74
567.42	35876.49
567.619	35397.26
567.818	35468.94
568.016	35481.23
568.215	35782.28
568.414	35233.43
568.612	35698.31
568.811	35503.76
569.01	35538.57
569.208	34969.24
569.407	35243.66
569.605	34895.51
569.804	35126.93
570.002	34639.51
570.201	34934.42
570.4	34619.03
570.598	34188.96
570.797	34305.7
570.995	34557.6
571.193	33988.26
571.392	34866.84
571.59	34461.34
571.789	34469.53
571.987	34193.06
572.186	34184.87
572.384	33453.74
572.582	33939.11
572.781	34012.84
572.979	33865.38
573.177	33713.83
573.376	34158.24
573.574	33144.5
573.772	33459.88
573.971	33191.6
574.169	33521.32
574.367	32972.47
574.565	33029.81
574.763	32904.88
574.962	32997.04
575.16	32655.03
575.358	32917.17
575.556	32601.79
575.754	32720.57
575.952	32278.21
576.151	32489.15
576.349	32394.94
576.547	32542.39
576.745	32706.23
576.943	32071.36
577.141	32310.97
577.339	32239.29
577.537	32007.87
577.735	31655.62
577.933	31416.01
578.131	31964.87
578.329	31645.38
578.527	31674.06
578.725	31493.83
578.923	31585.99
579.121	31631.05
579.319	31430.35
579.516	31307.47
579.714	30883.54
579.912	30779.09
580.11	30801.62
580.308	31024.85
580.506	30793.43
580.704	30736.09
580.901	30635.74
581.099	30693.08
581.297	30363.36
581.495	30287.58
581.692	30531.29
581.89	30318.3
582.088	30527.19
582.285	30011.1
582.483	30338.78
582.681	30389.98
582.878	30220
583.076	29296.36
583.274	30125.79
583.471	29613.8
583.669	29888.23
583.866	29646.57
584.064	29599.46
584.262	29312.75
584.459	29339.37
584.657	29157.1
584.854	29728.49
585.052	28700.4
585.249	29101.81
585.447	28751.6
585.644	28684.02
585.841	28835.57
586.039	28950.26
586.236	28759.8
586.434	28569.33
586.631	28573.43
586.828	28139.26
587.026	28499.7
587.223	28495.61
587.42	27938.56
587.618	28413.69
587.815	28055.29
588.012	28032.77
588.21	27911.94
588.407	28102.4
588.604	27793.15
588.801	27377.42
588.999	27449.1
589.196	27483.91
589.393	27467.53
589.59	27318.03
589.787	27201.29
589.984	27207.44
590.182	27246.35
590.379	26951.44
590.576	26908.43
590.773	26945.3
590.97	26836.75
591.167	27152.14
591.364	26388.25
591.561	26869.52
591.758	26611.48
591.955	26705.68
592.152	26689.3
592.349	26361.62
592.546	26576.66
592.743	26261.27
592.94	25943.84
593.137	26044.19
593.334	26314.52
593.531	25792.29
593.727	26062.62
593.924	25962.27
594.121	25605.92
594.318	25585.44
594.515	25648.93
594.712	25708.32
594.908	25333.54
595.105	25487.14
595.302	25214.76
595.499	25114.41
595.696	25173.8
595.892	25220.91
596.089	25130.8
596.286	24975.15
596.482	25030.44
596.679	24827.7
596.876	24733.49
597.072	24389.43
597.269	24686.39
597.466	24432.44
597.662	24229.69
597.859	24309.56
598.055	24385.33
598.252	24188.73
598.448	23973.69
598.645	23801.66
598.841	23846.72
599.038	23768.9
599.234	24137.53
599.431	23617.35
599.627	23723.84
599.824	23955.26
600.02	23508.8
600.217	23789.38
600.413	23289.67
600.609	23527.24
600.806	23215.94
601.002	23271.24
601.198	23293.77
601.395	23035.72
601.591	22857.55
601.787	23236.42
601.984	22923.08
602.18	23027.53
602.376	22601.55
602.572	22505.3
602.769	22648.66
602.965	22421.33
603.161	22345.56
603.357	22185.82
603.553	22136.66
603.75	22355.8
603.946	22001.5
604.142	21962.59
604.338	22019.93
604.534	22128.47
604.73	21946.2
604.926	21794.65
605.122	21778.27
605.318	21765.98
605.514	21421.92
605.71	21514.08
605.906	21639.01
606.102	21745.5
606.298	21448.55
606.494	21301.09
606.69	21174.12
606.886	21456.74
607.082	21041
607.278	21139.3
607.474	20866.92
607.67	21065.58
607.866	20658.03
608.062	21245.8
608.257	20830.06
608.453	21000.04
608.649	20807.53
608.845	20508.53
609.041	20696.94
609.236	20828.01
609.432	20451.19
609.628	20567.92
609.824	20438.9
610.019	20397.94
610.215	20486
610.411	20643.7
610.606	20410.23
610.802	20436.85
610.998	20283.25
611.193	20299.64
611.389	20199.29
611.584	20129.66
611.78	20154.23
611.976	19935.1
612.171	20152.18
612.367	19814.27
612.562	20035.45
612.758	19904.38
612.953	19789.69
613.149	19892.09
613.344	19517.31
613.539	20150.14
613.735	19896.19
613.93	19554.18
614.126	19543.94
614.321	19906.43
614.517	19730.3
614.712	19634.05
614.907	19404.67
615.103	19537.79
615.298	19517.31
615.493	19777.4
615.688	19289.99
615.884	19666.81
616.079	19160.97
616.274	19298.18
616.47	19148.68
616.665	19195.78
616.86	19189.64
617.055	19242.89
617.25	18753.42
617.445	19320.71
617.641	18605.97
617.836	18976.65
618.031	18288.53
618.226	18841.48
618.421	18704.27
618.616	18929.55
618.811	18364.31
619.006	18737.04
619.201	18429.84
619.396	18358.16
619.591	18071.45
619.786	18175.89
619.981	18057.11
620.176	18405.27
620.371	17993.62
620.566	18038.68
620.761	17801.12
620.956	17803.16
621.151	17692.57
621.346	17702.81
621.541	17604.51
621.735	17639.33
621.93	17459.1
622.125	17430.43
622.32	17127.33
622.515	16957.35
622.709	17119.14
622.904	16940.97
623.099	16744.36
623.294	17045.41
623.488	16809.9
623.683	16760.75
623.878	16613.29
624.072	16451.5
624.267	16410.54
624.462	16209.84
624.656	15962.04
624.851	16125.88
625.046	16111.54
625.24	15982.52
625.435	15677.37
625.629	15892.41
625.824	15599.55
626.018	15755.19
626.213	15448
626.407	15646.65
626.602	15212.48
626.796	15235.01
626.991	14999.49
627.185	15120.32
627.38	15087.56
627.574	14774.22
627.768	14878.66
627.963	14888.9
628.157	14514.13
628.352	14565.32
628.546	14446.54
628.74	14583.76
628.935	14370.77
629.129	14387.15
629.323	14270.42
629.517	14006.23
629.712	13985.75
629.906	14176.21
630.1	13977.56
630.294	13950.93
630.489	13723.61
630.683	13801.43
630.877	13621.21
631.071	13619.16
631.265	13451.23
631.459	13406.17
631.653	13383.65
631.848	13199.33
632.042	13408.22
632.236	13320.16
632.43	13045.73
632.624	13146.08
632.818	12756.97
633.012	12847.08
633.206	12675.05
633.4	12906.47
633.594	12548.08
633.788	12462.06
633.982	12765.16
634.176	12660.71
634.369	12625.9
634.563	12589.03
634.757	12183.54
634.951	12509.16
635.145	12320.75
635.339	12113.91
635.533	12111.86
635.726	11952.12
635.92	12107.76
636.114	11800.57
636.308	11790.33
636.501	11911.16
636.695	11839.48
636.889	11642.87
637.083	11720.7
637.276	11642.87
637.47	11364.35
637.664	11300.86
637.857	11413.5
638.051	11153.41
638.244	11442.17
638.438	11337.73
638.632	11270.14
638.825	11042.82
639.019	10889.22
639.212	10846.21
639.406	11034.63
639.599	10745.86
639.793	10846.21
639.986	10680.33
640.18	10778.63
640.373	10598.41
640.567	10371.08
640.76	10522.63
640.954	10346.51
641.147	10467.34
641.34	10156.05
641.534	10223.63
641.727	10444.81
641.92	10180.62
642.114	10096.66
642.307	9959.44
642.5	9902.1
642.694	9992.21
642.887	9775.13
643.08	9857.04
643.273	9838.61
643.467	9852.95
643.66	9689.11
643.853	9658.39
644.046	9558.04
644.239	9441.31
644.432	9560.09
644.626	9488.41
644.819	9449.5
645.012	9289.76
645.205	9256.99
645.398	9267.23
645.591	9046.05
645.784	9140.26
645.977	9007.14
646.17	9021.47
646.363	8886.31
646.556	8935.46
646.749	9013.28
646.942	9007.14
647.135	8814.63
647.328	8718.37
647.521	8853.54
647.714	8523.82
647.907	8521.77
648.099	8712.23
648.292	8566.82
648.485	8501.29
648.678	8144.94
648.871	8386.6
649.064	8409.13
649.256	8415.27
649.449	8325.16
649.642	8284.2
649.835	7946.29
650.027	8058.93
650.22	8056.88
650.413	8079.41
650.605	8058.93
650.798	7925.81
650.991	7862.32
651.183	7850.03
651.376	7792.69
651.568	7780.4
651.761	7706.68
651.954	7698.49
652.146	7651.38
652.339	7497.78
652.531	7505.98
652.724	7761.97
652.916	7356.47
653.109	7356.47
653.301	7389.24
653.494	7290.94
653.686	7116.86
653.879	7630.9
654.071	7200.83
654.263	7198.78
654.456	7149.63
654.648	7123.01
654.84	7036.99
655.033	7041.09
655.225	6977.6
655.417	6932.54
655.61	7004.22
655.802	6938.69
655.994	6981.7
656.186	6928.45
656.379	6838.34
656.571	6740.04
656.763	6760.52
656.955	6766.66
657.148	6772.8
657.34	6619.21
657.532	6772.8
657.724	6502.47
657.916	6529.1
658.108	6381.64
658.3	6379.59
658.492	6408.26
658.684	6248.52
658.876	6436.94
659.068	6365.26
659.26	6262.86
659.452	6375.5
659.644	6348.87
659.836	6125.65
660.028	6162.51
660.22	6019.15
660.412	6207.56
660.604	5912.66
660.796	6086.73
660.988	6080.59
661.18	5978.19
661.372	5888.08
661.563	5867.6
661.755	5838.93
661.947	5935.18
662.139	5822.55
662.331	5783.63
662.522	5711.96
662.714	5691.48
662.906	5646.42
663.097	5644.37
663.289	5453.91
663.481	5656.66
663.673	5503.06
663.864	5546.07
664.056	5458.01
664.247	5515.35
664.439	5390.42
664.631	5335.13
664.822	5406.81
665.014	5339.23
665.205	5240.92
665.397	5404.76
665.588	5230.68
665.78	5077.09
665.971	5179.48
666.163	5175.39
666.354	5134.43
666.546	5259.35
666.737	4968.54
666.929	5101.66
667.12	5003.36
667.311	5152.86
667.503	5103.71
667.694	5054.56
667.885	4896.86
668.077	4950.11
668.268	5013.6
668.459	4868.19
668.651	4782.18
668.842	4937.82
669.033	4937.82
669.224	4798.56
669.416	4753.51
669.607	4640.87
669.798	4898.91
669.989	4786.27
670.18	4745.31
670.371	4470.89
670.563	4726.88
670.754	4704.35
670.945	4571.24
671.136	4669.54
671.327	4487.27
671.518	4606.05
671.709	4464.74
671.9	4524.13
672.091	4419.69
672.282	4608.1
672.473	4382.82
672.664	4388.97
672.855	4477.03
673.046	4380.78
673.237	4399.21
673.428	4278.38
673.619	4397.16
673.809	4323.43
674	4278.38
674.191	4214.89
674.382	4200.55
674.573	4233.32
674.764	4175.98
674.954	4149.36
675.145	4135.02
675.336	4057.2
675.527	4196.46
675.717	4024.43
675.908	4130.92
676.099	3987.57
676.289	4065.39
676.48	4069.48
676.671	3881.07
676.861	3958.89
677.052	4077.68
677.243	3907.7
677.433	3895.41
677.624	4046.96
677.814	3995.76
678.005	3954.8
678.195	4020.33
678.386	3881.07
678.576	3704.95
678.767	3858.54
678.957	3760.24
679.148	3733.62
679.338	3854.45
679.529	3623.03
679.719	3795.06
679.909	3717.23
680.1	3698.8
680.29	3704.95
680.481	3684.47
680.671	3735.67
680.861	3709.04
681.052	3692.66
681.242	3709.04
681.432	3674.23
681.622	3680.37
681.813	3618.93
682.003	3637.36
682.193	3547.25
682.383	3512.44
682.573	3551.35
682.764	3430.52
682.954	3627.12
683.144	3582.07
683.334	3524.72
683.524	3561.59
683.714	3498.1
683.904	3455.09
684.094	3577.97
684.284	3475.57
684.474	3336.31
684.664	3539.06
684.854	3428.47
685.044	3410.04
685.234	3371.13
685.424	3375.22
685.614	3358.84
685.804	3188.86
685.994	3334.26
686.184	3405.94
686.374	3385.46
686.564	3328.12
686.753	3154.04
686.943	3258.49
687.133	3242.11
687.323	3135.61
687.513	3244.15
687.702	3209.34
687.892	3164.28
688.082	3131.51
688.272	3301.5
688.461	3205.24
688.651	3151.99
688.841	3233.91
689.03	3094.65
689.22	3111.04
689.41	3113.08
689.599	2998.4
689.789	3115.13
689.979	2926.72
690.168	3047.55
690.358	3047.55
690.547	2881.66
690.737	2986.11
690.926	2957.44
691.116	2898.05
691.305	2992.25
691.495	3014.78
691.684	2865.28
691.874	2979.97
692.063	2838.66
692.252	2830.46
692.442	2971.77
692.631	2744.45
692.82	2807.94
693.01	2769.02
693.199	2881.66
693.388	2883.71
693.578	2756.74
693.767	2758.78
693.956	2742.4
694.146	2726.02
694.335	2736.26
694.524	2691.2
694.713	2830.46
694.902	2795.65
695.092	2693.25
695.281	2693.25
695.47	2525.32
695.659	2676.87
695.848	2617.47
696.037	2570.37
696.226	2605.19
696.415	2627.71
696.604	2627.71
696.793	2564.23
696.982	2562.18
697.171	2648.19
697.36	2646.15
697.549	2529.41
697.738	2488.45
697.927	2556.04
698.116	2607.23
698.305	2357.38
698.494	2574.47
698.683	2537.6
698.872	2601.09
699.061	2533.51
699.25	2506.88
699.438	2494.6
699.627	2402.44
699.816	2556.04
700.005	2293.9
700.193	2408.58
700.382	2504.84
700.571	2586.76
700.76	2455.69
700.948	2599.04
701.137	2570.37
701.326	2439.3
701.514	2427.01
701.703	2492.55
701.892	2379.91
702.08	2443.4
702.269	2390.15
702.457	2324.62
702.646	2316.42
702.834	2414.73
703.023	2447.49
703.212	2461.83
703.4	2384.01
703.589	2353.29
703.777	2433.16
703.965	2402.44
704.154	2504.84
704.342	2320.52
704.531	2312.33
704.719	2285.7
704.907	2261.13
705.096	2203.79
705.284	2265.22
705.472	2318.47
705.661	2334.86
705.849	2302.09
706.037	2304.14
706.226	2275.46
706.414	2328.71
706.602	2263.18
706.79	2132.11
706.979	2410.63
707.167	2277.51
707.355	2359.43
707.543	2316.42
707.731	2375.81
707.919	2271.37
708.107	2160.78
708.296	2261.13
708.484	2285.7
708.672	2250.89
708.86	2230.41
709.048	2310.28
709.236	2226.31
709.424	2216.07
709.612	2254.98
709.8	2242.7
709.988	2250.89
710.176	2316.42
710.364	2300.04
710.551	2271.37
710.739	2128.01
710.927	2230.41
711.115	2228.36
711.303	2316.42
711.491	2220.17
711.679	2189.45
711.866	2177.16
712.054	2257.03
712.242	2226.31
712.43	2381.96
712.617	2193.55
712.805	2203.79
712.993	2273.42
713.181	2058.38
713.368	2297.99
713.556	2154.63
713.744	2191.5
713.931	2316.42
714.119	2164.87
714.306	2175.11
714.494	2300.04
714.682	2136.2
714.869	2257.03
715.057	2101.39
715.244	2181.26
715.432	2273.42
715.619	2168.97
715.807	2220.17
715.994	2201.74
716.182	2109.58
716.369	2232.46
716.556	2177.16
716.744	2214.02
716.931	2226.31
717.119	2201.74
717.306	2121.87
717.493	2056.33
717.681	2228.36
717.868	2134.15
718.055	2019.47
718.242	2111.63
718.43	2173.07
718.617	2271.37
718.804	2111.63
718.991	2168.97
719.179	2115.72
719.366	2179.21
719.553	2209.93
719.74	2123.91
719.927	2091.15
720.114	2154.63
720.301	2097.29
720.488	2160.78
720.676	2072.72
720.863	2160.78
721.05	2156.68
721.237	2254.98
721.424	2142.35
721.611	2187.4
721.798	2146.44
721.985	2111.63
722.172	2179.21
722.358	2162.83
722.545	2095.24
722.732	2113.67
722.919	2121.87
723.106	2177.16
723.293	2136.2
723.48	2162.83
723.667	2128.01
723.853	2039.95
724.04	2070.67
724.227	2037.9
724.414	2171.02
724.6	2029.71
724.787	2160.78
724.974	2062.48
725.161	2095.24
725.347	2136.2
725.534	2121.87
725.72	2089.1
725.907	2013.32
726.094	2103.43
726.28	2132.11
726.467	2095.24
726.653	2099.34
726.84	1972.36
727.027	2099.34
727.213	2064.52
727.4	2091.15
727.586	2066.57
727.773	2066.57
727.959	2205.83
728.145	2099.34
728.332	2095.24
728.518	2136.2
728.705	2203.79
728.891	2085
729.077	1949.84
729.264	1849.49
729.45	2046.09
729.636	2074.76
729.823	2095.24
730.009	2089.1
730.195	2119.82
730.382	2166.92
730.568	2005.13
730.754	2023.56
730.94	2074.76
731.126	2070.67
731.313	2099.34
731.499	2087.05
731.685	2072.72
731.871	1925.26
732.057	1947.79
732.243	2076.81
732.429	2054.28
732.615	2070.67
732.801	2066.57
732.987	2015.37
733.173	2031.76
733.359	2144.39
733.545	2054.28
733.731	2080.91
733.917	2087.05
734.103	2080.91
734.289	2062.48
734.475	2060.43
734.661	1972.36
734.847	2078.86
735.033	2029.71
735.219	2054.28
735.404	1964.17
735.59	1986.7
735.776	2037.9
735.962	1998.99
736.148	2044.04
736.333	2074.76
736.519	2050.19
736.705	1968.27
736.89	2107.53
737.076	1996.94
737.262	1824.91
737.447	1935.5
737.633	1927.31
737.819	1921.17
738.004	1943.69
738.19	1896.59
738.375	1947.79
738.561	1898.64
738.747	1972.36
738.932	2048.14
739.118	1972.36
739.303	1869.97
739.489	1941.65
739.674	1915.02
739.859	1960.08
740.045	2099.34
740.23	1947.79
740.416	1902.73
740.601	1882.25
740.786	1839.25
740.972	1972.36
741.157	1820.81
741.342	1810.58
741.528	1822.86
741.713	1955.98
741.898	1814.67
742.084	1857.68
742.269	1861.77
742.454	1896.59
742.639	1765.52
742.824	1802.38
743.01	1718.42
743.195	1835.15
743.38	1751.18
743.565	1761.42
743.75	1824.91
743.935	1761.42
744.12	1915.02
744.305	1769.62
744.49	1712.27
744.675	1732.75
744.86	1683.6
745.045	1738.9
745.23	1636.5
745.415	1718.42
745.6	1702.03
745.785	1689.74
745.97	1667.22
746.155	1673.36
746.34	1669.27
746.525	1632.4
746.71	1718.42
746.895	1628.31
747.079	1654.93
747.264	1669.27
747.449	1689.74
747.634	1575.06
747.819	1622.16
748.003	1640.59
748.188	1595.54
748.373	1515.67
748.557	1499.28
748.742	1546.39
748.927	1613.97
749.111	1513.62
749.296	1505.43
749.481	1566.87
749.665	1611.92
749.85	1439.89
750.034	1562.77
750.219	1407.13
750.404	1497.24
750.588	1595.54
750.773	1423.51
750.957	1394.84
751.141	1431.7
751.326	1499.28
751.51	1390.74
751.695	1411.22
751.879	1425.56
752.064	1464.47
752.248	1386.65
752.432	1390.74
752.617	1292.44
752.801	1378.45
752.985	1357.97
753.17	1405.08
753.354	1423.51
753.538	1366.17
753.722	1427.6
753.907	1220.76
754.091	1333.4
754.275	1368.21
754.459	1296.53
754.643	1228.95
754.828	1247.38
755.012	1204.38
755.196	1267.86
755.38	1187.99
755.564	1286.3
755.748	1296.53
755.932	1239.19
756.116	1235.1
756.3	1233.05
756.484	1271.96
756.668	1122.46
756.852	1140.89
757.036	1140.89
757.22	1202.33
757.404	1079.45
757.588	1177.75
757.772	1235.1
757.956	1128.6
758.14	1128.6
758.323	1165.46
758.507	1247.38
758.691	1089.69
758.875	1097.88
759.059	1151.13
759.242	1128.6
759.426	1073.31
759.61	1075.35
759.794	1120.41
759.977	1018.01
760.161	1161.37
760.345	1063.07
760.528	1046.68
760.712	985.24
760.895	1036.44
761.079	979.1
761.263	977.05
761.446	1067.16
761.63	997.53
761.813	1054.87
761.997	1005.72
762.18	1003.68
762.364	1073.31
762.547	1005.72
762.731	975
762.914	948.38
763.098	1013.92
763.281	981.15
763.464	954.52
763.648	972.96
763.831	956.57
764.015	925.85
764.198	919.71
764.381	1030.3
764.564	977.05
764.748	899.23
764.931	989.34
765.114	854.17
765.297	954.52
765.481	954.52
765.664	938.14
765.847	901.28
766.03	948.38
766.213	809.12
766.397	999.58
766.58	915.61
766.763	876.7
766.946	858.27
767.129	919.71
767.312	903.32
767.495	850.08
767.678	977.05
767.861	848.03
768.044	850.08
768.227	899.23
768.41	915.61
768.593	915.61
768.776	827.55
768.959	852.13
769.142	899.23
769.324	909.47
769.507	866.46
769.69	915.61
769.873	882.85
770.056	977.05
770.239	868.51
770.421	915.61
770.604	845.98
770.787	751.78
770.97	794.78
771.152	800.93
771.335	850.08
771.518	827.55
771.7	802.97
771.883	841.89
772.066	768.16
772.248	823.45
772.431	778.4
772.613	878.75
772.796	755.87
772.978	706.72
773.161	716.96
773.343	745.63
773.526	796.83
773.708	729.25
773.891	671.9
774.073	723.1
774.256	729.25
774.438	762.02
774.621	661.66
774.803	706.72
774.985	716.96
775.168	735.39
775.35	628.9
775.532	645.28
775.715	714.91
775.897	657.57
776.079	669.86
776.261	739.49
776.444	606.37
776.626	639.14
776.808	671.9
776.99	647.33
777.173	719.01
777.355	579.75
777.537	637.09
777.719	624.8
777.901	708.77
778.083	678.05
778.265	555.17
778.447	665.76
778.629	659.62
778.811	637.09
778.993	573.6
779.175	706.72
779.357	596.13
779.539	624.8
779.721	596.13
779.903	596.13
780.085	637.09
780.267	571.55
780.449	637.09
780.631	604.32
780.812	549.03
780.994	573.6
781.176	581.79
781.358	600.23
781.54	557.22
781.721	606.37
781.903	598.18
782.085	508.07
782.267	559.27
782.448	493.73
782.63	452.77
782.812	458.92
782.993	559.27
783.175	559.27
783.357	565.41
783.538	499.88
783.72	493.73
783.901	491.68
784.083	512.16
784.264	514.21
784.446	538.79
784.627	440.48
784.809	524.45
784.99	407.72
785.172	510.11
785.353	497.83
785.535	456.87
785.716	448.68
785.897	403.62
786.079	477.35
786.26	489.64
786.441	401.57
786.623	323.75
786.804	434.34
786.985	370.85
787.167	465.06
787.348	469.16
787.529	518.31
787.71	473.25
787.891	344.23
788.073	374.95
788.254	344.23
788.435	450.72
788.616	481.44
788.797	329.89
788.978	403.62
789.159	409.76
789.34	456.87
789.522	397.48
789.703	342.18
789.884	336.04
790.065	331.94
790.246	366.76
790.427	383.14
790.607	438.44
790.788	325.8
790.969	340.13
791.15	350.37
791.331	336.04
791.512	352.42
791.693	393.38
791.874	331.94
792.054	370.85
792.235	360.61
792.416	352.42
792.597	366.76
792.778	264.36
792.958	329.89
793.139	360.61
793.32	364.71
793.5	286.89
793.681	338.09
793.862	354.47
794.042	250.02
794.223	356.52
794.404	329.89
794.584	358.57
794.765	329.89
794.945	303.27
795.126	254.12
795.306	358.57
795.487	270.5
795.667	278.69
795.848	284.84
796.028	344.23
796.209	278.69
796.389	327.85
796.57	262.31
796.75	288.93
796.93	260.26
797.111	288.93
797.291	260.26
797.471	362.66
797.652	198.82
797.832	250.02
798.012	352.42
798.192	276.65
798.373	286.89
798.553	239.78
798.733	350.37
798.913	270.5
799.093	260.26
799.274	243.88
799.454	204.97
799.634	256.17
799.814	284.84
799.994	254.12
800.174	202.92
800.354	229.54
800.534	211.11
800.714	233.64
800.894	190.63
801.074	178.34
801.254	293.03
801.434	264.36
801.614	178.34
801.794	252.07
801.974	770.21
802.154	284.84
802.334	266.41
802.514	276.65
802.693	223.4
802.873	264.36
803.053	268.45
803.233	202.92
803.413	194.73
803.592	196.78
803.772	174.25
803.952	215.21
804.131	186.54
804.311	272.55
804.491	194.73
804.67	192.68
804.85	186.54
805.03	194.73
805.209	286.89
805.389	198.82
805.568	202.92
805.748	174.25
805.928	245.93
806.107	227.5
806.287	172.2
806.466	157.86
806.646	164.01
806.825	215.21
807.004	188.58
807.184	213.16
807.363	264.36
807.543	266.41
807.722	139.43
807.901	202.92
808.081	207.02
808.26	176.3
808.439	209.06
808.619	121
808.798	227.5
808.977	309.41
809.156	194.73
809.336	223.4
809.515	198.82
809.694	153.77
809.873	190.63
810.052	161.96
810.231	245.93
810.411	184.49
810.59	215.21
810.769	157.86
810.948	235.69
811.127	92.33
811.306	168.1
811.485	186.54
811.664	221.35
811.843	196.78
812.022	123.05
812.201	102.57
812.38	219.3
812.559	121
812.737	139.43
812.916	147.62
813.095	157.86
813.274	211.11
813.453	157.86
813.632	149.67
813.811	217.26
813.989	71.85
814.168	153.77
814.347	104.62
814.526	133.29
814.704	176.3
814.883	141.48
815.062	239.78
815.24	155.82
815.419	110.76
815.598	172.2
815.776	145.58
815.955	151.72
816.133	90.28
816.312	139.43
816.49	137.38
816.669	166.06
816.847	137.38
817.026	67.75
817.204	100.52
817.383	123.05
817.561	129.19
817.74	135.34
817.918	153.77
818.097	86.19
818.275	141.48
818.453	131.24
818.632	188.58
818.81	125.1
818.988	100.52
819.167	145.58
819.345	47.27
819.523	86.19
819.701	98.47
819.879	133.29
820.058	100.52
820.236	104.62
820.414	121
820.592	135.34
820.77	133.29
820.948	143.53
821.127	92.33
821.305	65.71
821.483	108.71
821.661	129.19
821.839	153.77
822.017	116.9
822.195	112.81
822.373	145.58
822.551	98.47
822.729	123.05
822.907	129.19
823.085	112.81
823.262	16.55
823.44	139.43
823.618	129.19
823.796	112.81
823.974	22.7
824.152	61.61
824.329	172.2
824.507	32.94
824.685	71.85
824.863	75.95
825.04	59.56
825.218	84.14
825.396	55.47
825.574	63.66
825.751	16.55
825.929	92.33
826.107	96.43
826.284	202.92
826.462	61.61
826.639	102.57
826.817	6.31
826.994	180.39
827.172	104.62
827.349	55.47
827.527	100.52
827.704	104.62
827.882	92.33
828.059	104.62
828.237	80.04
828.414	123.05
828.591	24.75
828.769	104.62
828.946	77.99
829.124	172.2
829.301	80.04
829.478	116.9
829.655	73.9
829.833	168.1
830.01	86.19
830.187	90.28
830.364	114.86
830.542	125.1
830.719	20.65
830.896	80.04
831.073	67.75
831.25	116.9
831.427	192.68
831.604	147.62
831.782	82.09
831.959	71.85
832.136	-18.26
832.313	39.08
832.49	114.86
832.667	121
832.844	73.9
833.021	141.48
833.198	63.66
833.374	92.33
833.551	108.71
833.728	26.79
833.905	121
834.082	16.55
834.259	22.7
834.436	188.58
834.612	96.43
834.789	112.81
834.966	47.27
835.143	80.04
835.319	84.14
835.496	106.67
835.673	174.25
835.85	123.05
836.026	57.51
836.203	114.86
836.38	67.75
836.556	82.09
836.733	-18.26
836.909	139.43
837.086	90.28
837.262	30.89
837.439	65.71
837.616	30.89
837.792	141.48
837.968	125.1
838.145	43.18
838.321	30.89
838.498	32.94
838.674	145.58
838.851	49.32
839.027	129.19
839.203	43.18
839.38	116.9
839.556	34.99
839.732	55.47
839.909	41.13
840.085	4.27
840.261	-1.88
840.437	47.27
840.614	90.28
840.79	18.6
840.966	43.18
841.142	90.28
841.318	61.61
841.494	96.43
841.671	55.47
841.847	41.13
842.023	6.31
842.199	82.09
842.375	75.95
842.551	32.94
842.727	30.89
842.903	114.86
843.079	24.75
843.255	73.9
843.431	71.85
843.607	32.94
843.783	-42.84
843.959	34.99
844.134	49.32
844.31	34.99
844.486	77.99
844.662	24.75
844.838	98.47
845.013	51.37
845.189	39.08
845.365	63.66
845.541	135.34
845.716	30.89
845.892	69.8
846.068	96.43
846.244	47.27
846.419	100.52
846.595	-16.21
846.77	63.66
846.946	18.6
847.122	98.47
847.297	96.43
847.473	102.57
847.648	-10.07
847.824	108.71
847.999	12.46
848.175	30.89
848.35	34.99
848.526	51.37
848.701	39.08
848.876	104.62
849.052	59.56
849.227	6.31
849.403	63.66
849.578	16.55
849.753	106.67
849.929	41.13
850.104	-30.55
850.279	94.38
850.454	112.81
850.63	49.32
850.805	6.31
850.98	94.38
851.155	41.13
851.33	65.71
851.505	39.08
851.681	24.75
851.856	75.95
852.031	123.05
852.206	-18.26
852.381	55.47
852.556	14.51
852.731	45.23
852.906	20.65
853.081	34.99
853.256	57.51
853.431	24.75
853.606	-18.26
853.781	-24.4
853.956	-32.6
854.131	39.08
854.305	6.31
854.48	96.43
854.655	59.56
854.83	51.37
855.005	55.47
855.18	32.94
855.354	47.27
855.529	37.03
855.704	-44.88
855.879	37.03
856.053	-18.26
856.228	65.71
856.403	80.04
856.577	-8.02
856.752	-26.45
856.926	80.04
857.101	0.17
857.276	37.03
857.45	10.41
857.625	86.19
857.799	14.51
857.974	51.37
858.148	16.55
858.323	39.08
858.497	-24.4
858.672	24.75
858.846	-55.12
859.02	-1.88
859.195	43.18
859.369	-8.02
859.543	73.9
859.718	32.94
859.892	-3.93
860.066	47.27
860.241	18.6
860.415	10.41
860.589	-22.36
860.763	55.47
860.938	-1.88
861.112	98.47
861.286	-8.02
861.46	14.51
861.634	-28.5
861.808	57.51
861.982	-16.21
862.157	-22.36
862.331	49.32
862.505	-3.93
862.679	-55.12
862.853	-18.26
863.027	-10.07
863.201	141.48
863.375	-36.69
863.549	12.46
863.722	71.85
863.896	18.6
864.07	2.22
864.244	28.84
864.418	43.18
864.592	32.94
864.766	-46.93
864.939	73.9
865.113	-38.74
865.287	6.31
865.461	14.51
865.634	14.51
865.808	-26.45
865.982	18.6
866.156	49.32
866.329	-12.12
866.503	55.47
866.676	30.89
866.85	-14.17
867.024	14.51
867.197	75.95
867.371	30.89
867.544	63.66
867.718	14.51
867.891	63.66
868.065	47.27
868.238	-1.88
868.412	80.04
868.585	-8.02
868.759	-8.02
868.932	18.6
869.105	28.84
869.279	-10.07
869.452	65.71
869.625	2.22
869.799	30.89
869.972	39.08
870.145	6.31
870.319	-22.36
870.492	-34.64
870.665	-1.88
870.838	14.51
871.011	-8.02
871.185	-8.02
871.358	30.89
871.531	-26.45
871.704	12.46
871.877	26.79
872.05	18.6
872.223	6.31
872.396	-10.07
872.569	90.28
872.742	-75.6
872.915	71.85
873.088	-48.98
873.261	-3.93
873.434	14.51
873.607	-65.36
873.78	106.67
873.953	-18.26
874.126	14.51
874.299	-1.88
874.471	16.55
874.644	88.23
874.817	90.28
874.99	-12.12
875.163	26.79
875.335	-1.88
875.508	10.41
875.681	100.52
875.853	6.31
876.026	-1.88
876.199	92.33
876.371	24.75
876.544	16.55
876.717	39.08
876.889	14.51
877.062	-46.93
877.234	-10.07
877.407	2.22
877.579	67.75
877.752	51.37
877.924	80.04
878.097	-26.45
878.269	2.22
878.442	16.55
878.614	41.13
878.786	-5.97
878.959	8.36
879.131	51.37
879.303	6.31
879.476	14.51
879.648	30.89
879.82	63.66
879.993	-24.4
880.165	2.22
880.337	37.03
880.509	63.66
880.681	-18.26
880.854	30.89
881.026	10.41
881.198	96.43
881.37	18.6
881.542	34.99
881.714	77.99
881.886	4.27
882.058	-3.93
882.23	114.86
882.402	47.27
882.574	22.7
882.746	-32.6
882.918	39.08
883.09	-10.07
883.262	-42.84
883.434	24.75
883.606	-57.17
883.778	20.65
883.95	22.7
884.122	43.18
884.293	8.36
884.465	12.46
884.637	-40.79
884.809	-8.02
884.98	75.95
885.152	-26.45
885.324	71.85
885.496	34.99
885.667	-40.79
885.839	-5.97
886.011	18.6
886.182	49.32
886.354	22.7
886.525	20.65
886.697	55.47
886.869	-28.5
887.04	-12.12
887.212	30.89
887.383	34.99
887.555	-75.6
887.726	-32.6
887.897	-51.03
888.069	-3.93
888.24	14.51
888.412	-1.88
888.583	-16.21
888.754	16.55
888.926	-1.88
889.097	0.17
889.268	-38.74
889.44	-18.26
889.611	53.42
889.782	-34.64
889.953	-8.02
890.125	80.04
890.296	-12.12
890.467	22.7
890.638	30.89
890.809	-48.98
890.98	8.36
891.151	51.37
891.323	-1.88
891.494	47.27
891.665	14.51
891.836	10.41
892.007	-20.31
892.178	67.75
892.349	2.22
892.52	24.75
892.691	28.84
892.862	-36.69
893.032	22.7
893.203	-20.31
893.374	63.66
893.545	-18.26
893.716	0.17
893.887	45.23
894.057	47.27
894.228	-1.88
894.399	-14.17
894.57	43.18
894.74	-5.97
894.911	80.04
895.082	22.7
895.253	55.47
895.423	14.51
895.594	-5.97
895.764	10.41
895.935	34.99
896.106	34.99
896.276	10.41
896.447	-22.36
896.617	14.51
896.788	-8.02
896.958	55.47
897.129	-16.21
897.299	-61.27
897.47	39.08
897.64	32.94
897.81	2.22
897.981	61.61
898.151	-36.69
898.322	82.09
898.492	14.51
898.662	47.27
898.832	18.6
899.003	-5.97
899.173	80.04
899.343	47.27
899.513	65.71
