Data from USB4F104151__250__14-45-52-402.txt Node

Date: Thu Mar 13 14:45:52 EDT 2025
User: louis
Spectrometer: USB4F10415
Trigger mode: 4
Integration Time (sec): 2.000000E-2
Scans to average: 1
Electric dark correction enabled: true
Nonlinearity correction enabled: false
Boxcar width: 0
XAxis mode: Wavelengths
Number of Pixels in Spectrum: 3648
>>>>>Begin Spectral Data<<<<<
178.204	-187.56
178.424	-187.56
178.644	-187.56
178.864	-160.94
179.084	-156.84
179.304	27.48
179.524	11.09
179.744	-9.39
179.964	0.85
180.184	15.19
180.404	31.57
180.624	-9.39
180.844	-21.67
181.064	-81.07
181.283	9.05
181.503	23.38
181.723	2.9
181.943	-31.91
182.163	93.01
182.383	60.24
182.602	9.05
182.822	-5.29
183.042	80.72
183.262	56.15
183.482	105.3
183.701	-9.39
183.921	-1.19
184.141	9.05
184.361	99.16
184.58	31.57
184.8	56.15
185.02	-11.43
185.239	82.77
185.459	15.19
185.679	39.76
185.898	-33.96
186.118	78.68
186.338	82.77
186.557	56.15
186.777	47.96
186.997	0.85
187.216	-25.77
187.436	88.92
187.655	35.67
187.875	52.05
188.095	64.34
188.314	37.72
188.534	62.29
188.753	80.72
188.973	45.91
189.192	76.63
189.412	37.72
189.631	41.81
189.851	17.24
190.07	31.57
190.29	-33.96
190.509	64.34
190.729	58.2
190.948	54.1
191.168	201.55
191.387	121.68
191.607	-38.06
191.826	7
192.045	43.86
192.265	-25.77
192.484	62.29
192.704	23.38
192.923	-1.19
193.142	39.76
193.362	50
193.581	86.87
193.8	21.33
194.02	43.86
194.239	64.34
194.458	-13.48
194.678	4.95
194.897	47.96
195.116	31.57
195.335	95.06
195.555	47.96
195.774	27.48
195.993	45.91
196.212	0.85
196.432	-5.29
196.651	9.05
196.87	17.24
197.089	-46.25
197.308	88.92
197.528	74.58
197.747	35.67
197.966	41.81
198.185	35.67
198.404	-17.58
198.623	0.85
198.842	76.63
199.062	47.96
199.281	62.29
199.5	64.34
199.719	60.24
199.938	27.48
200.157	80.72
200.376	27.48
200.595	97.11
200.814	9.05
201.033	47.96
201.252	84.82
201.471	52.05
201.69	72.53
201.909	2.9
202.128	113.49
202.347	113.49
202.566	29.52
202.785	2.9
203.004	2.9
203.223	97.11
203.442	23.38
203.661	15.19
203.879	80.72
204.098	9.05
204.317	-9.39
204.536	47.96
204.755	41.81
204.974	123.73
205.193	111.44
205.411	103.25
205.63	62.29
205.849	93.01
206.068	29.52
206.287	125.78
206.505	60.24
206.724	68.44
206.943	25.43
207.162	29.52
207.381	11.09
207.599	31.57
207.818	-31.91
208.037	15.19
208.255	11.09
208.474	-7.34
208.693	17.24
208.911	52.05
209.13	21.33
209.349	93.01
209.567	23.38
209.786	58.2
210.005	9.05
210.223	31.57
210.442	7
210.661	23.38
210.879	97.11
211.098	23.38
211.316	50
211.535	101.2
211.753	-1.19
211.972	43.86
212.191	50
212.409	58.2
212.628	-33.96
212.846	11.09
213.065	39.76
213.283	41.81
213.502	-52.39
213.72	52.05
213.938	56.15
214.157	-7.34
214.375	76.63
214.594	-17.58
214.812	2.9
215.031	-56.49
215.249	43.86
215.467	58.2
215.686	66.39
215.904	15.19
216.122	56.15
216.341	25.43
216.559	11.09
216.778	-3.24
216.996	113.49
217.214	82.77
217.432	2.9
217.651	33.62
217.869	7
218.087	47.96
218.306	15.19
218.524	50
218.742	-15.53
218.96	33.62
219.179	-15.53
219.397	66.39
219.615	45.91
219.833	58.2
220.051	21.33
220.27	33.62
220.488	68.44
220.706	-5.29
220.924	-21.67
221.142	39.76
221.36	37.72
221.578	39.76
221.796	13.14
222.015	21.33
222.233	-1.19
222.451	82.77
222.669	58.2
222.887	56.15
223.105	19.29
223.323	19.29
223.541	-17.58
223.759	39.76
223.977	68.44
224.195	74.58
224.413	-1.19
224.631	88.92
224.849	2.9
225.067	97.11
225.285	19.29
225.503	41.81
225.721	-31.91
225.939	41.81
226.157	54.1
226.375	154.45
226.592	56.15
226.81	56.15
227.028	31.57
227.246	101.2
227.464	23.38
227.682	50
227.9	-5.29
228.117	41.81
228.335	15.19
228.553	27.48
228.771	-1.19
228.989	72.53
229.206	90.96
229.424	56.15
229.642	41.81
229.86	52.05
230.077	70.48
230.295	39.76
230.513	15.19
230.731	74.58
230.948	64.34
231.166	47.96
231.384	0.85
231.601	35.67
231.819	101.2
232.037	56.15
232.254	-5.29
232.472	31.57
232.689	45.91
232.907	17.24
233.125	-13.48
233.342	-21.67
233.56	-19.63
233.777	0.85
233.995	64.34
234.213	76.63
234.43	17.24
234.648	88.92
234.865	43.86
235.083	74.58
235.3	23.38
235.518	27.48
235.735	72.53
235.953	97.11
236.17	90.96
236.388	-17.58
236.605	35.67
236.822	131.92
237.04	33.62
237.257	64.34
237.475	-42.15
237.692	90.96
237.909	17.24
238.127	60.24
238.344	76.63
238.562	-21.67
238.779	21.33
238.996	-19.63
239.214	27.48
239.431	78.68
239.648	23.38
239.865	70.48
240.083	33.62
240.3	27.48
240.517	37.72
240.735	-17.58
240.952	62.29
241.169	84.82
241.386	31.57
241.603	29.52
241.821	35.67
242.038	2.9
242.255	47.96
242.472	23.38
242.689	58.2
242.907	39.76
243.124	95.06
243.341	-1.19
243.558	11.09
243.775	43.86
243.992	33.62
244.209	23.38
244.426	113.49
244.643	33.62
244.86	45.91
245.078	-13.48
245.295	105.3
245.512	19.29
245.729	47.96
245.946	58.2
246.163	138.07
246.38	31.57
246.597	-1.19
246.814	33.62
247.031	39.76
247.248	-1.19
247.464	-33.96
247.681	7
247.898	31.57
248.115	80.72
248.332	-50.35
248.549	119.64
248.766	58.2
248.983	127.83
249.2	4.95
249.417	9.05
249.633	-21.67
249.85	47.96
250.067	70.48
250.284	105.3
250.501	-13.48
250.717	52.05
250.934	31.57
251.151	84.82
251.368	-1.19
251.585	82.77
251.801	66.39
252.018	23.38
252.235	74.58
252.451	39.76
252.668	-27.82
252.885	9.05
253.102	70.48
253.318	60.24
253.535	-38.06
253.752	19.29
253.968	19.29
254.185	15.19
254.401	45.91
254.618	33.62
254.835	-25.77
255.051	72.53
255.268	9.05
255.484	9.05
255.701	-42.15
255.917	76.63
256.134	-19.63
256.351	15.19
256.567	33.62
256.784	35.67
257	-1.19
257.217	47.96
257.433	72.53
257.65	47.96
257.866	-9.39
258.082	-70.83
258.299	29.52
258.515	43.86
258.732	41.81
258.948	-25.77
259.165	23.38
259.381	11.09
259.597	15.19
259.814	99.16
260.03	113.49
260.246	-1.19
260.463	31.57
260.679	45.91
260.895	15.19
261.112	60.24
261.328	66.39
261.544	52.05
261.761	101.2
261.977	9.05
262.193	-33.96
262.409	93.01
262.626	64.34
262.842	27.48
263.058	-31.91
263.274	17.24
263.49	54.1
263.707	88.92
263.923	23.38
264.139	31.57
264.355	148.31
264.571	68.44
264.787	62.29
265.004	82.77
265.22	-1.19
265.436	39.76
265.652	-7.34
265.868	41.81
266.084	35.67
266.3	101.2
266.516	-38.06
266.732	64.34
266.948	25.43
267.164	54.1
267.38	23.38
267.596	7
267.812	23.38
268.028	60.24
268.244	31.57
268.46	97.11
268.676	-19.63
268.892	58.2
269.108	31.57
269.324	45.91
269.54	25.43
269.756	35.67
269.972	64.34
270.188	68.44
270.403	-21.67
270.619	39.76
270.835	115.54
271.051	0.85
271.267	43.86
271.483	25.43
271.698	58.2
271.914	41.81
272.13	52.05
272.346	-36.01
272.562	47.96
272.777	113.49
272.993	64.34
273.209	27.48
273.425	19.29
273.64	23.38
273.856	129.88
274.072	15.19
274.287	-33.96
274.503	131.92
274.719	37.72
274.934	0.85
275.15	17.24
275.366	31.57
275.581	47.96
275.797	41.81
276.012	54.1
276.228	47.96
276.444	-9.39
276.659	31.57
276.875	37.72
277.09	27.48
277.306	-33.96
277.521	-17.58
277.737	64.34
277.952	47.96
278.168	-44.2
278.383	50
278.599	72.53
278.814	50
279.03	27.48
279.245	90.96
279.461	47.96
279.676	88.92
279.892	-9.39
280.107	2.9
280.322	31.57
280.538	74.58
280.753	-17.58
280.969	-23.72
281.184	35.67
281.399	39.76
281.615	56.15
281.83	-7.34
282.045	72.53
282.26	58.2
282.476	9.05
282.691	113.49
282.906	62.29
283.122	31.57
283.337	7
283.552	19.29
283.767	72.53
283.983	101.2
284.198	2.9
284.413	43.86
284.628	-21.67
284.843	7
285.058	97.11
285.274	0.85
285.489	-21.67
285.704	21.33
285.919	-19.63
286.134	-25.77
286.349	56.15
286.564	15.19
286.779	133.97
286.995	105.3
287.21	21.33
287.425	47.96
287.64	50
287.855	107.35
288.07	25.43
288.285	9.05
288.5	72.53
288.715	37.72
288.93	113.49
289.145	33.62
289.36	45.91
289.575	47.96
289.79	76.63
290.004	-29.87
290.219	117.59
290.434	99.16
290.649	29.52
290.864	56.15
291.079	37.72
291.294	117.59
291.509	76.63
291.724	11.09
291.938	-21.67
292.153	47.96
292.368	58.2
292.583	43.86
292.798	93.01
293.012	29.52
293.227	27.48
293.442	47.96
293.657	19.29
293.871	39.76
294.086	58.2
294.301	109.4
294.516	66.39
294.73	76.63
294.945	43.86
295.16	7
295.374	33.62
295.589	90.96
295.804	13.14
296.018	39.76
296.233	58.2
296.447	97.11
296.662	64.34
296.877	64.34
297.091	80.72
297.306	-9.39
297.52	4.95
297.735	45.91
297.949	25.43
298.164	88.92
298.378	35.67
298.593	17.24
298.807	80.72
299.022	76.63
299.236	70.48
299.451	80.72
299.665	35.67
299.88	58.2
300.094	72.53
300.309	9.05
300.523	35.67
300.737	64.34
300.952	27.48
301.166	72.53
301.381	58.2
301.595	35.67
301.809	-42.15
302.024	13.14
302.238	88.92
302.452	88.92
302.667	-1.19
302.881	185.17
303.095	56.15
303.309	74.58
303.524	23.38
303.738	56.15
303.952	43.86
304.166	88.92
304.381	-42.15
304.595	72.53
304.809	39.76
305.023	56.15
305.237	-9.39
305.452	23.38
305.666	97.11
305.88	56.15
306.094	35.67
306.308	82.77
306.522	41.81
306.736	41.81
306.95	39.76
307.164	56.15
307.379	72.53
307.593	80.72
307.807	56.15
308.021	-5.29
308.235	47.96
308.449	84.82
308.663	-1.19
308.877	99.16
309.091	9.05
309.305	101.2
309.519	-9.39
309.733	60.24
309.947	64.34
310.161	72.53
310.374	113.49
310.588	95.06
310.802	-42.15
311.016	90.96
311.23	58.2
311.444	25.43
311.658	39.76
311.872	107.35
312.085	62.29
312.299	68.44
312.513	88.92
312.727	33.62
312.941	-46.25
313.154	33.62
313.368	-46.25
313.582	39.76
313.796	62.29
314.009	90.96
314.223	39.76
314.437	25.43
314.651	72.53
314.864	-13.48
315.078	45.91
315.292	13.14
315.505	39.76
315.719	58.2
315.933	27.48
316.146	82.77
316.36	-25.77
316.573	45.91
316.787	-17.58
317.001	58.2
317.214	-42.15
317.428	50
317.641	47.96
317.855	84.82
318.068	43.86
318.282	52.05
318.495	15.19
318.709	84.82
318.922	88.92
319.136	117.59
319.349	29.52
319.563	50
319.776	43.86
319.99	11.09
320.203	31.57
320.417	115.54
320.63	142.16
320.843	84.82
321.057	39.76
321.27	62.29
321.483	68.44
321.697	39.76
321.91	15.19
322.124	86.87
322.337	45.91
322.55	50
322.763	35.67
322.977	117.59
323.19	7
323.403	35.67
323.617	47.96
323.83	140.12
324.043	90.96
324.256	62.29
324.469	39.76
324.683	70.48
324.896	2.9
325.109	119.64
325.322	-7.34
325.535	31.57
325.748	25.43
325.962	-13.48
326.175	15.19
326.388	25.43
326.601	148.31
326.814	121.68
327.027	68.44
327.24	47.96
327.453	-9.39
327.666	50
327.879	140.12
328.092	45.91
328.305	47.96
328.518	60.24
328.731	72.53
328.944	-5.29
329.157	129.88
329.37	15.19
329.583	88.92
329.796	84.82
330.009	39.76
330.222	-44.2
330.435	11.09
330.648	-60.59
330.861	56.15
331.073	72.53
331.286	70.48
331.499	52.05
331.712	31.57
331.925	74.58
332.138	88.92
332.35	111.44
332.563	25.43
332.776	43.86
332.989	72.53
333.202	-1.19
333.414	-29.87
333.627	47.96
333.84	47.96
334.053	7
334.265	78.68
334.478	50
334.691	76.63
334.903	105.3
335.116	80.72
335.329	105.3
335.541	23.38
335.754	105.3
335.966	31.57
336.179	-25.77
336.392	74.58
336.604	58.2
336.817	35.67
337.029	113.49
337.242	-3.24
337.454	47.96
337.667	99.16
337.88	84.82
338.092	-31.91
338.305	66.39
338.517	0.85
338.729	54.1
338.942	47.96
339.154	72.53
339.367	31.57
339.579	93.01
339.792	-7.34
340.004	82.77
340.217	47.96
340.429	74.58
340.641	64.34
340.854	19.29
341.066	-9.39
341.278	43.86
341.491	29.52
341.703	72.53
341.915	-21.67
342.128	105.3
342.34	25.43
342.552	9.05
342.764	27.48
342.977	56.15
343.189	25.43
343.401	-17.58
343.613	-70.83
343.826	133.97
344.038	43.86
344.25	66.39
344.462	-13.48
344.674	146.26
344.886	31.57
345.099	97.11
345.311	99.16
345.523	-42.15
345.735	47.96
345.947	52.05
346.159	76.63
346.371	74.58
346.583	0.85
346.795	41.81
347.007	25.43
347.219	21.33
347.431	56.15
347.643	86.87
347.855	-17.58
348.067	80.72
348.279	119.64
348.491	154.45
348.703	117.59
348.915	56.15
349.127	0.85
349.339	107.35
349.551	25.43
349.763	72.53
349.975	64.34
350.187	25.43
350.399	90.96
350.61	47.96
350.822	88.92
351.034	47.96
351.246	31.57
351.458	25.43
351.669	72.53
351.881	146.26
352.093	97.11
352.305	105.3
352.517	56.15
352.728	131.92
352.94	7
353.152	90.96
353.363	-56.49
353.575	113.49
353.787	133.97
353.999	154.45
354.21	62.29
354.422	15.19
354.633	52.05
354.845	88.92
355.057	31.57
355.268	39.76
355.48	107.35
355.692	45.91
355.903	0.85
356.115	72.53
356.326	45.91
356.538	88.92
356.749	99.16
356.961	162.64
357.172	7
357.384	113.49
357.595	129.88
357.807	15.19
358.018	-38.06
358.23	68.44
358.441	115.54
358.653	88.92
358.864	88.92
359.075	68.44
359.287	43.86
359.498	99.16
359.709	56.15
359.921	88.92
360.132	33.62
360.344	56.15
360.555	70.48
360.766	129.88
360.977	93.01
361.189	101.2
361.4	58.2
361.611	129.88
361.823	70.48
362.034	58.2
362.245	33.62
362.456	9.05
362.667	74.58
362.879	156.5
363.09	64.34
363.301	101.2
363.512	39.76
363.723	-1.19
363.935	25.43
364.146	146.26
364.357	33.62
364.568	90.96
364.779	54.1
364.99	97.11
365.201	45.91
365.412	146.26
365.623	97.11
365.834	19.29
366.045	33.62
366.256	41.81
366.467	64.34
366.678	64.34
366.889	33.62
367.1	41.81
367.311	82.77
367.522	97.11
367.733	56.15
367.944	23.38
368.155	66.39
368.366	47.96
368.577	88.92
368.788	97.11
368.999	2.9
369.209	15.19
369.42	90.96
369.631	117.59
369.842	33.62
370.053	35.67
370.264	74.58
370.474	107.35
370.685	31.57
370.896	58.2
371.107	105.3
371.317	58.2
371.528	9.05
371.739	84.82
371.95	68.44
372.16	74.58
372.371	17.24
372.582	99.16
372.792	101.2
373.003	99.16
373.214	15.19
373.424	31.57
373.635	37.72
373.846	72.53
374.056	68.44
374.267	52.05
374.477	76.63
374.688	82.77
374.898	82.77
375.109	107.35
375.319	56.15
375.53	74.58
375.74	39.76
375.951	97.11
376.161	17.24
376.372	154.45
376.582	-7.34
376.793	152.4
377.003	-17.58
377.214	47.96
377.424	80.72
377.635	23.38
377.845	68.44
378.055	60.24
378.266	47.96
378.476	31.57
378.686	123.73
378.897	47.96
379.107	127.83
379.317	23.38
379.528	17.24
379.738	117.59
379.948	47.96
380.158	80.72
380.369	125.78
380.579	140.12
380.789	31.57
380.999	113.49
381.21	105.3
381.42	129.88
381.63	29.52
381.84	76.63
382.05	90.96
382.261	72.53
382.471	76.63
382.681	64.34
382.891	33.62
383.101	64.34
383.311	60.24
383.521	127.83
383.731	43.86
383.941	80.72
384.151	72.53
384.361	41.81
384.571	72.53
384.781	113.49
384.991	146.26
385.201	60.24
385.411	95.06
385.621	97.11
385.831	56.15
386.041	80.72
386.251	97.11
386.461	146.26
386.671	64.34
386.881	15.19
387.091	84.82
387.301	107.35
387.511	133.97
387.72	66.39
387.93	31.57
388.14	35.67
388.35	58.2
388.56	88.92
388.769	142.16
388.979	41.81
389.189	47.96
389.399	13.14
389.609	129.88
389.818	58.2
390.028	64.34
390.238	166.74
390.447	72.53
390.657	64.34
390.867	88.92
391.076	86.87
391.286	97.11
391.496	66.39
391.705	121.68
391.915	131.92
392.125	160.59
392.334	88.92
392.544	127.83
392.753	123.73
392.963	88.92
393.172	41.81
393.382	39.76
393.591	82.77
393.801	74.58
394.01	101.2
394.22	39.76
394.429	27.48
394.639	80.72
394.848	127.83
395.058	78.68
395.267	72.53
395.477	133.97
395.686	74.58
395.895	129.88
396.105	179.03
396.314	113.49
396.524	138.07
396.733	105.3
396.942	117.59
397.152	62.29
397.361	90.96
397.57	146.26
397.78	97.11
397.989	162.64
398.198	164.69
398.407	90.96
398.617	129.88
398.826	74.58
399.035	168.79
399.244	107.35
399.453	119.64
399.663	131.92
399.872	72.53
400.081	95.06
400.29	176.98
400.499	121.68
400.708	187.22
400.917	115.54
401.127	179.03
401.336	74.58
401.545	232.27
401.754	144.21
401.963	47.96
402.172	144.21
402.381	144.21
402.59	76.63
402.799	113.49
403.008	172.88
403.217	187.22
403.426	107.35
403.635	162.64
403.844	113.49
404.053	205.65
404.262	156.5
404.471	166.74
404.68	142.16
404.888	222.03
405.097	170.83
405.306	181.07
405.515	201.55
405.724	168.79
405.933	230.23
406.142	187.22
406.35	133.97
406.559	203.6
406.768	271.19
406.977	254.8
407.185	230.23
407.394	205.65
407.603	303.95
407.812	301.9
408.02	265.04
408.229	265.04
408.438	189.27
408.646	244.56
408.855	301.9
409.064	373.58
409.272	260.95
409.481	344.91
409.69	295.76
409.898	316.24
410.107	334.67
410.315	363.34
410.524	330.58
410.733	375.63
410.941	406.35
411.15	457.55
411.358	408.4
411.567	465.74
411.775	451.41
411.984	486.22
412.192	535.37
412.401	475.98
412.609	498.51
412.818	580.43
413.026	600.91
413.234	621.39
413.443	533.33
413.651	656.2
413.86	729.93
414.068	731.98
414.276	824.14
414.485	670.54
414.693	809.8
414.901	719.69
415.11	744.27
415.318	781.13
415.526	969.54
415.734	893.77
415.943	942.92
416.151	967.49
416.359	875.34
416.567	1012.55
416.776	1022.79
416.984	1088.32
417.192	1170.24
417.4	1178.44
417.608	1162.05
417.817	1174.34
418.025	1227.59
418.233	1366.85
418.441	1438.53
418.649	1393.47
418.857	1446.72
419.065	1540.93
419.273	1565.5
419.481	1547.07
419.689	1694.52
419.897	1663.8
420.105	1755.96
420.313	1891.13
420.521	1911.61
420.729	1866.55
420.937	2079.54
421.145	2022.2
421.353	2138.93
421.561	2276.15
421.769	2284.34
421.977	2407.22
422.185	2366.26
422.393	2552.62
422.601	2630.45
422.809	2736.94
423.017	2702.12
423.224	2825
423.432	2982.7
423.64	2992.94
423.848	3128.1
424.056	3095.33
424.263	3439.39
424.471	3259.17
424.679	3449.63
424.887	3660.57
425.094	3697.44
425.302	3730.2
425.51	3980.06
425.718	3863.32
425.925	3990.3
426.133	4215.57
426.341	4485.9
426.548	4569.87
426.756	4659.98
426.964	4705.04
427.171	5120.78
427.379	4944.65
427.586	5065.48
427.794	5337.86
428.001	5567.23
428.209	5792.51
428.417	5540.61
428.624	6171.38
428.832	6019.83
429.039	6073.08
429.247	6077.18
429.454	6601.46
429.662	6966
429.869	6775.53
430.076	7133.93
430.284	6945.52
430.491	7090.92
430.699	7512.8
430.906	7518.95
431.114	7690.98
431.321	8223.45
431.528	8020.7
431.736	8557.27
431.943	9102.03
432.15	8934.09
432.358	9075.4
432.565	9241.29
432.772	9315.02
432.979	9855.68
433.187	9923.26
433.394	10072.76
433.601	10629.81
433.808	10924.72
434.016	11012.78
434.223	11190.95
434.43	11737.76
434.637	11725.47
434.844	12335.77
435.052	12753.55
435.259	12485.27
435.466	12667.54
435.673	12294.81
435.88	13400.71
436.087	13918.85
436.294	14219.9
436.501	13570.69
436.708	13843.07
436.915	14434.94
437.122	15073.9
437.329	15006.32
437.537	15641.19
437.743	15735.4
437.95	15678.05
438.157	16482.91
438.364	16900.69
438.571	16890.45
438.778	17289.81
438.985	18512.44
439.192	18229.82
439.399	18610.75
439.606	18082.37
439.813	19280.43
440.02	20412.96
440.227	20322.85
440.433	19888.68
440.64	20400.67
440.847	20527.64
441.054	20945.43
441.261	22227.46
441.467	22272.51
441.674	22350.34
441.881	23015.93
442.088	22880.76
442.294	22731.26
442.501	23792.11
442.708	24138.21
442.914	25037.27
443.121	25944.52
443.328	25518.54
443.534	27304.37
443.741	26307.01
443.948	26057.16
444.154	27959.72
444.361	28060.07
444.568	28064.17
444.774	28379.56
444.981	28086.7
445.187	29338.01
445.394	30450.05
445.6	30017.93
445.807	32876.9
446.013	31334.78
446.22	32129.39
446.426	33411.42
446.633	33681.75
446.839	34769.22
447.046	33272.15
447.252	35223.87
447.459	35164.48
447.665	35279.16
447.871	36528.42
448.078	38394.12
448.284	36053.3
448.491	37566.74
448.697	38863.11
448.903	39565.56
449.11	40141.04
449.316	39256.32
449.522	39483.64
449.728	41101.54
449.935	41119.97
450.141	41345.25
450.347	42488.01
450.553	41175.27
450.76	41922.77
450.966	42752.2
451.172	42244.3
451.378	43651.26
451.584	42713.29
451.791	43976.89
451.997	43763.9
452.203	44535.98
452.409	44546.22
452.615	44511.41
452.821	42494.16
453.027	42602.7
453.233	44720.3
453.44	42789.06
453.646	43493.57
453.852	44073.14
454.058	44480.69
454.264	42954.95
454.47	44343.47
454.676	42748.11
454.882	44460.21
455.088	40601.83
455.294	41271.52
455.5	41634.01
455.705	42434.77
455.911	41074.91
456.117	40276.21
456.323	39457.02
456.529	37523.74
456.735	39246.08
456.941	38471.95
457.147	37839.12
457.352	36606.25
457.558	36368.68
457.764	36206.89
457.97	35574.07
458.176	34640.2
458.381	35100.99
458.587	33648.98
458.793	33415.51
458.999	31662.45
459.204	33837.39
459.41	33098.08
459.616	30841.21
459.821	31107.45
460.027	31191.42
460.233	29981.07
460.438	28752.29
460.644	29151.64
460.85	28058.03
461.055	27208.12
461.261	27404.72
461.466	25371.09
461.672	24639.97
461.878	26347.97
462.083	24545.76
462.289	24166.88
462.494	23941.61
462.7	23046.65
462.905	22305.28
463.111	23126.52
463.316	23175.67
463.522	22659.58
463.727	22604.28
463.932	22835.7
464.138	22522.37
464.343	22702.59
464.549	21944.84
464.754	22471.17
464.959	22290.95
465.165	22254.08
465.37	21568.01
465.575	20863.51
465.781	21789.19
465.986	21969.41
466.191	21475.85
466.397	20671
466.602	19675.69
466.807	20478.49
467.012	20451.87
467.218	20494.88
467.423	20171.3
467.628	20527.64
467.833	20853.27
468.038	20349.47
468.244	19642.92
468.449	20703.77
468.654	19716.65
468.859	19554.86
469.064	19460.65
469.269	18846.26
469.474	19171.89
469.679	19540.52
469.885	18950.71
470.09	19096.11
470.295	18864.69
470.5	18541.11
470.705	18520.63
470.91	18195.01
471.115	18104.9
471.32	18225.73
471.525	18209.34
471.73	17971.78
471.935	17736.26
472.139	16906.84
472.344	17502.79
472.549	17406.54
472.754	17097.3
472.959	16906.84
473.164	16370.27
473.369	16376.41
473.574	16765.53
473.778	16558.68
473.983	16349.79
474.188	16530.01
474.393	15649.38
474.598	15825.51
474.802	15417.96
475.007	15362.67
475.212	15506.02
475.417	15024.75
475.621	15145.58
475.826	14789.24
476.031	14791.28
476.235	14613.11
476.44	14832.24
476.645	14457.46
476.849	14318.2
477.054	14531.19
477.259	14006.91
477.463	13990.53
477.668	13744.77
477.872	13920.9
478.077	13410.95
478.282	13279.88
478.486	13402.76
478.691	13312.65
478.895	13093.52
479.1	13054.61
479.304	12905.1
479.509	12477.08
479.713	12905.1
479.918	12706.45
480.122	12401.3
480.326	12450.46
480.531	12624.53
480.735	12214.94
480.94	12462.74
481.144	12675.73
481.348	12157.6
481.553	12327.58
481.757	11985.57
481.961	12167.84
482.166	12204.7
482.37	12059.29
482.574	11905.7
482.778	12053.15
482.983	12350.1
483.187	12057.25
483.391	12036.77
483.595	11917.98
483.8	11926.18
484.004	11991.71
484.208	12350.1
484.412	12102.3
484.616	12135.07
484.821	12001.95
485.025	11975.33
485.229	12157.6
485.433	12036.77
485.637	12167.84
485.841	11838.11
486.045	12145.31
486.249	12165.79
486.453	12010.14
486.657	12221.08
486.861	12270.23
487.065	11717.28
487.269	12083.87
487.473	11743.91
487.677	12087.96
487.881	12153.5
488.085	12079.77
488.289	12241.56
488.493	11946.66
488.697	12262.04
488.901	12163.74
489.105	12069.53
489.309	12163.74
489.512	12161.69
489.716	12219.03
489.92	12466.84
490.124	12104.35
490.328	12622.48
490.531	12372.63
490.735	12472.98
490.939	12530.33
491.143	12384.92
491.346	12563.09
491.55	12780.18
491.754	12878.48
491.958	12722.84
492.161	12829.33
492.365	12929.68
492.569	13013.65
492.772	12944.02
492.976	12937.87
493.18	13087.37
493.383	13257.36
493.587	13585.03
493.79	13437.58
493.994	13181.58
494.197	13531.78
494.401	13664.9
494.605	13564.55
494.808	13712
495.012	13879.94
495.215	13943.42
495.419	14350.97
495.622	14070.4
495.825	14375.55
496.029	14150.27
496.232	14559.86
496.436	14744.18
496.639	14895.73
496.843	14916.21
497.046	15374.95
497.249	15385.19
497.453	15477.35
497.656	15600.23
497.859	15565.42
498.063	15888.99
498.266	16243.29
498.469	16052.83
498.673	16376.41
498.876	16357.98
499.079	16906.84
499.282	16849.49
499.485	16939.6
499.689	17078.86
499.892	17304.14
500.095	17594.95
500.298	18102.85
500.501	17728.07
500.705	18541.11
500.908	18608.7
501.111	18793.01
501.314	18975.28
501.517	19235.38
501.72	19364.4
501.923	19391.02
502.126	19698.22
502.329	20292.13
502.532	20417.05
502.735	20472.35
502.938	20816.41
503.141	21082.64
503.344	21357.07
503.547	21174.8
503.75	21367.31
503.953	21924.36
504.156	22213.12
504.359	22037
504.562	22411.78
504.765	23134.71
504.968	23185.91
505.17	23480.82
505.373	23759.34
505.576	24054.25
505.779	24248.8
505.982	24271.33
506.185	24781.28
506.387	25291.22
506.59	25094.61
506.793	25731.53
506.996	25422.29
507.198	26288.58
507.401	26384.83
507.604	26718.65
507.807	27296.18
508.009	27347.38
508.212	27525.55
508.415	27744.69
508.617	28371.36
508.82	28715.42
509.022	28379.56
509.225	29084.06
509.428	29335.96
509.63	29491.6
509.833	29628.82
510.035	30615.94
510.238	30220.68
510.44	30871.93
510.643	31152.51
510.845	31523.19
511.048	31154.55
511.25	31830.38
511.453	32127.34
511.655	33417.56
511.858	33059.16
512.06	33481.05
512.262	33827.15
512.465	33743.19
512.667	34429.26
512.87	34513.22
513.072	34617.67
513.274	35303.74
513.477	35524.92
513.679	35840.31
513.881	36317.48
514.084	36514.09
514.286	36643.11
514.488	36774.18
514.69	38396.17
514.893	38023.44
515.095	38244.62
515.297	39022.85
515.499	38742.28
515.701	39520.51
515.904	39923.96
516.106	39956.72
516.308	40112.37
516.51	40767.72
516.712	40909.03
516.914	41607.39
517.116	42123.47
517.318	42207.44
517.52	42346.7
517.722	43004.1
517.925	43116.74
518.127	43987.13
518.329	44302.51
518.531	43763.9
518.733	44421.3
518.935	44865.7
519.136	44841.13
519.338	45797.53
519.54	46211.22
519.742	46307.47
519.944	46231.7
520.146	47294.6
520.348	47108.23
520.55	47911.03
520.752	48042.1
520.954	48705.65
521.155	48148.6
521.357	48674.93
521.559	49959
521.761	50067.55
521.963	49694.82
522.164	50344.02
522.366	50284.63
522.568	51306.57
522.77	50796.62
522.971	51411.01
523.173	51486.79
523.375	52340.79
523.576	52252.73
523.778	51875.9
523.98	53039.15
524.181	52883.5
524.383	53059.63
524.584	53602.34
524.786	53661.73
524.988	53358.63
525.189	54251.55
525.391	53930.01
525.592	54601.75
525.794	55066.64
525.995	54763.54
526.197	54730.77
526.398	55449.61
526.6	55273.48
526.801	55879.68
527.003	56168.44
527.204	55816.19
527.406	56750.07
527.607	56520.69
527.808	56856.56
528.01	56117.25
528.211	56557.56
528.412	57108.46
528.614	57108.46
528.815	57315.31
529.016	58009.57
529.218	57690.09
529.419	57698.28
529.62	57544.68
529.822	57892.83
530.023	57745.38
530.224	57946.08
530.425	57749.48
530.626	57829.35
530.828	57659.37
531.029	58736.6
531.23	57853.92
531.431	58003.42
531.632	58630.1
531.833	59181.01
532.035	58517.46
532.236	58869.72
532.437	59150.29
532.638	58394.59
532.839	58681.3
533.04	59189.2
533.241	58570.71
533.442	59596.74
533.643	59387.85
533.844	58912.72
534.045	59174.86
534.246	58433.5
534.447	59174.86
534.648	59029.46
534.849	59428.81
535.05	58423.26
535.251	59189.2
535.451	58806.23
535.652	59596.74
535.853	58869.72
536.054	59469.77
536.255	59363.28
536.456	59054.03
536.657	59953.09
536.857	58947.54
537.058	58904.53
537.259	59498.44
537.46	59041.74
537.66	58949.59
537.861	59410.38
538.062	59181.01
538.263	59269.07
538.463	59254.73
538.664	59301.84
538.865	59131.86
539.065	59674.57
539.266	59019.22
539.466	59326.41
539.667	58507.22
539.868	59555.78
540.068	59027.41
540.269	59027.41
540.469	59508.68
540.67	58486.74
540.87	59338.7
541.071	58863.57
541.271	59477.96
541.472	58535.9
541.672	58681.3
541.873	59129.81
542.073	58255.32
542.274	59699.14
542.474	59045.84
542.675	58671.06
542.875	59502.54
543.075	59140.05
543.276	58494.94
543.476	59350.99
543.676	58814.42
543.877	59187.15
544.077	59215.82
544.277	58941.39
544.478	58636.25
544.678	59256.78
544.878	59127.76
545.078	58808.28
545.279	58849.24
545.479	58638.29
545.679	58886.1
545.879	58933.2
546.079	58691.54
546.28	58320.86
546.48	58341.34
546.68	58976.21
546.88	59207.63
547.08	59004.88
547.28	58959.83
547.48	58314.72
547.68	58642.39
547.88	58257.37
548.081	59054.03
548.281	58638.29
548.481	58453.98
548.681	59185.1
548.881	58965.97
549.081	58658.77
549.28	58740.69
549.48	58947.54
549.68	58232.8
549.88	58918.87
550.08	58284
550.28	58419.16
550.48	58597.34
550.68	58691.54
550.88	58101.73
551.08	58286.04
551.279	58656.73
551.479	57694.18
551.679	58615.77
551.879	58159.07
552.079	58730.45
552.278	58222.56
552.478	58793.94
552.678	58298.33
552.878	58613.72
553.077	58585.05
553.277	58255.32
553.477	59109.33
553.676	58314.72
553.876	58406.87
554.076	58140.64
554.275	58140.64
554.475	57970.66
554.674	58167.26
554.874	58134.49
555.074	58068.96
555.273	58202.08
555.473	58359.77
555.672	57659.37
555.872	58001.38
556.071	58040.29
556.271	58163.17
556.47	57987.04
556.67	57391.08
556.869	57683.94
557.068	57690.09
557.268	57626.6
557.467	58087.39
557.667	57264.11
557.866	57323.5
558.065	57282.54
558.265	57126.89
558.464	56995.82
558.663	57464.81
558.863	56705.01
559.062	57270.25
559.261	57006.06
559.461	57567.21
559.66	56950.77
559.859	57257.96
560.058	56627.19
560.258	57174
560.457	56373.24
560.656	57008.11
560.855	56324.09
561.054	57343.98
561.253	56373.24
561.453	56430.58
561.652	56629.24
561.851	56958.96
562.05	56682.48
562.249	56166.4
562.448	56887.28
562.647	56477.69
562.846	56469.5
563.045	55977.98
563.244	55666.69
563.443	56287.23
563.642	55619.59
563.841	55996.41
564.04	55808
564.239	56203.26
564.438	55566.34
564.637	55754.75
564.836	55724.04
565.035	54947.85
565.234	55617.54
565.432	55253
565.631	54898.7
565.83	55377.93
566.029	55103.5
566.228	55060.49
566.427	54788.11
566.625	54718.48
566.824	54579.22
567.023	55179.28
567.222	54138.91
567.42	54755.35
567.619	54407.19
567.818	54235.16
568.016	54249.5
568.215	54667.28
568.414	54417.43
568.612	54923.28
568.811	54335.51
569.01	54495.25
569.208	53354.54
569.407	54034.46
569.605	53248.04
569.804	53805.09
570.002	53057.58
570.201	53952.54
570.4	53258.28
570.598	52895.79
570.797	53055.53
570.995	53428.26
571.193	52463.67
571.392	52899.89
571.59	52316.22
571.789	52973.61
571.987	52463.67
572.186	52385.85
572.384	51785.79
572.582	52420.66
572.781	52078.65
572.979	51963.96
573.177	52359.22
573.376	52086.84
573.574	51898.43
573.772	51947.58
573.971	51179.59
574.169	51611.71
574.367	51318.85
574.565	51724.35
574.763	51181.64
574.962	51005.52
575.16	50903.12
575.358	51015.75
575.556	50487.38
575.754	51290.18
575.952	50530.39
576.151	50831.44
576.349	50294.87
576.547	49907.8
576.745	49950.81
576.943	50112.6
577.141	49854.56
577.339	49604.7
577.537	49993.82
577.735	50120.79
577.933	49303.65
578.131	49807.45
578.329	49576.03
578.527	48900.2
578.725	49051.75
578.923	49303.65
579.121	48697.45
579.319	48867.44
579.516	48648.3
579.714	48855.15
579.912	47970.43
580.11	47868.03
580.308	48416.88
580.506	48343.16
580.704	47837.31
580.901	47954.04
581.099	48193.65
581.297	47452.29
581.495	47552.64
581.692	47784.06
581.89	47071.37
582.088	47380.61
582.285	47030.41
582.483	47380.61
582.681	46997.64
582.878	47011.98
583.076	46117.01
583.274	46827.66
583.471	46481.55
583.669	46852.23
583.866	46252.18
584.064	46352.53
584.262	46024.86
584.459	46043.29
584.657	46000.28
584.854	45838.49
585.052	45150.37
585.249	45402.27
585.447	45754.52
585.644	44912.81
585.841	44961.96
586.039	45699.23
586.236	44673.2
586.434	44974.25
586.631	44482.73
586.828	44417.2
587.026	44329.14
587.223	44617.9
587.42	44193.97
587.618	43966.65
587.815	43851.96
588.012	43911.35
588.21	43485.37
588.407	43690.17
588.604	43641.02
588.801	43370.69
588.999	43202.75
589.196	43256
589.393	42944.71
589.59	42707.15
589.787	42879.18
589.984	42832.07
590.182	42041.56
590.379	42752.2
590.576	42553.55
590.773	42223.83
590.97	42072.28
591.167	42334.42
591.364	41840.85
591.561	42277.07
591.758	41443.55
591.955	41711.83
592.152	41799.9
592.349	41294.05
592.546	41328.86
592.743	41472.22
592.94	41072.87
593.137	41144.55
593.334	41101.54
593.531	40622.31
593.727	40661.22
593.924	40524.01
594.121	40151.28
594.318	40632.55
594.515	40001.78
594.712	40339.69
594.908	40022.26
595.105	39997.68
595.302	39362.81
595.499	39667.96
595.696	39809.27
595.892	39108.86
596.089	39368.96
596.286	39078.15
596.482	39508.22
596.679	39362.81
596.876	38811.91
597.072	38658.31
597.269	38648.07
597.466	38416.65
597.662	38283.53
597.859	38562.06
598.055	38555.91
598.252	38306.06
598.448	37994.77
598.645	37679.38
598.841	37595.42
599.038	37701.91
599.234	37681.43
599.431	37159.2
599.627	37323.04
599.824	37767.45
600.02	37062.94
600.217	37234.97
600.413	36890.91
600.609	36462.89
600.806	36297
601.002	36802.85
601.198	36499.75
601.395	36372.78
601.591	36045.1
601.787	36225.32
601.984	36215.08
602.18	36219.18
602.376	35860.79
602.572	35449.14
602.769	35488.06
602.965	35291.45
603.161	35580.21
603.357	35295.55
603.553	35109.18
603.75	35361.08
603.946	34928.96
604.142	35113.28
604.338	34761.03
604.534	34834.75
604.73	34392.39
604.926	34312.52
605.122	34539.85
605.318	34308.43
605.514	34310.47
605.71	34414.92
605.906	33970.51
606.102	33689.94
606.298	34029.9
606.494	33939.79
606.69	33825.11
606.886	33597.78
607.082	33214.81
607.278	33427.8
607.474	32913.76
607.67	33411.42
607.866	32604.52
608.062	33218.91
608.257	33196.38
608.453	33085.79
608.649	32891.23
608.845	32676.19
609.041	32930.14
609.236	32778.59
609.432	32672.1
609.628	32325.99
609.824	32639.33
610.019	32547.17
610.215	32471.4
610.411	32280.94
610.606	32113
610.802	31990.13
610.998	31971.69
611.193	32244.07
611.389	31629.68
611.584	31535.48
611.78	31717.75
611.976	31895.92
612.171	31736.18
612.367	31570.29
612.562	31695.22
612.758	31134.07
612.953	31035.77
613.149	31439.22
613.344	30871.93
613.539	31644.02
613.735	31097.21
613.93	30919.04
614.126	30689.67
614.321	31332.73
614.517	30765.44
614.712	30681.47
614.907	30452.1
615.103	31009.15
615.298	30810.5
615.493	30718.34
615.688	30351.75
615.884	30718.34
616.079	30146.95
616.274	30316.93
616.47	30212.49
616.665	30468.48
616.86	29956.49
617.055	29921.68
617.25	29712.78
617.445	29876.62
617.641	29495.7
617.836	29958.54
618.031	29385.11
618.226	29591.95
618.421	29335.96
618.616	29534.61
618.811	29149.59
619.006	29442.45
619.201	28768.67
619.396	28887.45
619.591	28361.12
619.786	28764.57
619.981	28090.79
620.176	28588.45
620.371	28445.09
620.566	28139.94
620.761	28125.61
620.956	28109.22
621.151	27728.3
621.346	27990.44
621.541	27396.53
621.735	27560.37
621.93	27064.76
622.125	27152.82
622.32	26776
622.515	27077.05
622.709	26622.4
622.904	26692.03
623.099	26481.09
623.294	26864.06
623.488	26089.93
623.683	26175.94
623.878	25829.84
624.072	25999.82
624.267	25993.67
624.462	25342.42
624.656	25360.85
624.851	25457.1
625.046	25268.69
625.24	24918.49
625.435	24930.78
625.629	24482.27
625.824	24754.65
626.018	24865.24
626.213	24160.74
626.407	24349.15
626.602	23984.62
626.796	24109.54
626.991	23917.03
627.185	23644.65
627.38	23446
627.574	23675.37
627.768	23149.04
627.963	23495.15
628.157	22678.01
628.352	23097.84
628.546	22714.87
628.74	22698.49
628.935	22727.16
629.129	22481.41
629.323	22340.1
629.517	22362.62
629.712	22524.41
629.906	22274.56
630.1	21854.73
630.294	21627.4
630.489	21793.29
630.683	21737.99
630.877	21416.46
631.071	21408.27
631.265	21330.45
631.459	21125.65
631.653	21281.3
631.848	20959.77
632.042	20369.95
632.236	20820.5
632.43	20673.05
632.624	20435.49
632.818	20433.44
633.012	20232.74
633.206	20187.68
633.4	20302.37
633.594	19747.37
633.788	20083.23
633.982	19749.42
634.176	19831.33
634.369	19573.29
634.563	19434.03
634.757	19251.76
634.951	19542.57
635.145	19251.76
635.339	19100.21
635.533	18813.49
635.726	19026.48
635.92	18594.36
636.114	18637.37
636.308	18547.26
636.501	18354.75
636.695	18655.8
636.889	18295.36
637.083	18164.29
637.276	18287.17
637.47	18182.72
637.664	17693.26
637.857	17973.83
638.051	17510.99
638.244	17556.04
638.438	17488.46
638.632	17185.36
638.825	17316.43
639.019	17345.1
639.212	17132.11
639.406	17115.73
639.599	17246.8
639.793	17009.23
639.986	16779.86
640.18	16818.77
640.373	16771.67
640.567	16325.21
640.76	16626.26
640.954	16314.97
641.147	16198.24
641.34	16144.99
641.534	16054.88
641.727	15852.13
641.92	16200.29
642.114	15475.31
642.307	15708.77
642.5	15778.4
642.694	15354.48
642.887	15227.5
643.08	15399.53
643.273	15321.71
643.467	15424.11
643.66	15139.44
643.853	15028.85
644.046	14682.74
644.239	14776.95
644.432	14828.15
644.626	14559.86
644.819	14541.43
645.012	14506.62
645.205	14617.21
645.398	14436.99
645.591	14295.68
645.784	14293.63
645.977	13949.57
646.17	14322.3
646.363	13886.08
646.556	13834.88
646.749	13687.43
646.942	13505.16
647.135	13615.75
647.328	13468.3
647.521	13742.72
647.714	13384.33
647.907	13488.78
648.099	13306.51
648.292	13337.23
648.485	13204.11
648.678	12782.23
648.871	13089.42
649.064	12810.9
649.256	12886.67
649.449	12753.55
649.642	12812.95
649.835	12483.22
650.027	12630.68
650.22	12358.3
650.413	12477.08
650.605	12294.81
650.798	12305.05
650.991	12245.66
651.183	12268.19
651.376	11965.09
651.568	11940.51
651.761	11766.43
651.954	11891.36
652.146	11690.66
652.339	11756.19
652.531	11567.78
652.724	11659.94
652.916	11336.36
653.109	11459.24
653.301	11500.2
653.494	11340.46
653.686	11252.39
653.879	11420.33
654.071	11217.58
654.263	11152.04
654.456	11254.44
654.648	10918.57
654.84	10801.84
655.033	10906.29
655.225	10855.09
655.417	10603.19
655.61	10611.38
655.802	10726.07
655.994	10410.68
656.186	10445.49
656.379	10451.64
656.571	10453.69
656.763	10257.08
656.955	10287.8
657.148	10220.22
657.34	10191.55
657.532	9943.74
657.724	10091.2
657.916	9915.07
658.108	10025.66
658.3	9726.66
658.492	9935.55
658.684	9749.18
658.876	9638.59
659.068	9605.83
659.26	9370.31
659.452	9487.04
659.644	9415.37
659.836	9329.35
660.028	9429.7
660.22	9253.58
660.412	9239.24
660.604	9069.26
660.796	8993.48
660.988	9165.51
661.18	8981.2
661.372	8901.33
661.563	8995.53
661.755	8798.93
661.947	8948.43
662.139	8674
662.331	8587.99
662.522	8452.82
662.714	8583.89
662.906	8379.09
663.097	8227.54
663.289	8438.48
663.481	8346.33
663.673	8176.34
663.864	8088.28
664.056	8248.02
664.247	8063.71
664.439	7754.46
664.631	7942.88
664.822	7910.11
665.014	7959.26
665.205	7869.15
665.397	7764.7
665.588	7641.82
665.78	7535.33
665.971	7641.82
666.163	7617.25
666.354	7727.84
666.546	7455.46
666.737	7312.1
666.929	7330.53
667.12	7389.92
667.311	7308.01
667.503	7217.9
667.694	7123.69
667.885	7365.35
668.077	7174.89
668.268	7047.91
668.459	7109.35
668.651	7176.94
668.842	7076.59
669.033	7047.91
669.224	6800.11
669.416	6925.04
669.607	6771.44
669.798	6783.73
669.989	6863.6
670.18	6796.01
670.371	6652.66
670.563	6716.14
670.754	6621.94
670.945	6425.33
671.136	6492.91
671.327	6613.74
671.518	6533.87
671.709	6509.3
671.9	6478.58
672.091	6355.7
672.282	6384.37
672.473	6175.48
672.664	6316.79
672.855	6343.41
673.046	6290.17
673.237	6208.25
673.428	6105.85
673.619	6308.6
673.809	6079.22
674	6173.43
674.191	6095.61
674.382	5982.97
674.573	6030.07
674.764	5860.09
674.954	5843.71
675.145	5792.51
675.336	5997.31
675.527	5839.61
675.717	5704.45
675.908	5704.45
676.099	5776.13
676.289	5716.73
676.48	5661.44
676.671	5667.58
676.861	5585.66
677.052	5604.1
677.243	5493.51
677.433	5585.66
677.624	5698.3
677.814	5417.73
678.005	5436.16
678.195	5544.7
678.386	5307.14
678.576	5376.77
678.767	5323.52
678.957	5344
679.148	5546.75
679.338	5473.03
679.529	5325.57
679.719	5464.83
679.909	5247.75
680.1	5309.19
680.29	5257.99
680.481	5104.39
680.671	5325.57
680.861	5223.17
681.052	5190.41
681.242	5214.98
681.432	5196.55
681.622	5085.96
681.813	5028.62
682.003	5200.65
682.193	5069.58
682.383	5169.93
682.573	5010.18
682.764	4965.13
682.954	5020.42
683.144	5096.2
683.334	4936.46
683.524	4965.13
683.714	5022.47
683.904	5038.86
684.094	4946.7
684.284	4915.98
684.474	5045
684.664	4803.34
684.854	4713.23
685.044	4891.4
685.234	4803.34
685.424	4733.71
685.614	4768.52
685.804	4766.48
685.994	4705.04
686.184	4766.48
686.374	4922.12
686.564	4688.65
686.753	4735.76
686.943	4774.67
687.133	4702.99
687.323	4592.4
687.513	4647.69
687.702	4520.72
687.892	4678.41
688.082	4643.6
688.272	4504.34
688.461	4565.78
688.651	4471.57
688.841	4406.03
689.03	4498.19
689.22	4477.71
689.41	4537.1
689.599	4424.47
689.789	4463.38
689.979	4377.36
690.168	4406.03
690.358	4348.69
690.547	4432.66
690.737	4424.47
690.926	4344.6
691.116	4342.55
691.305	4496.14
691.495	4203.29
691.684	4215.57
691.874	4311.83
692.063	4436.75
692.252	4369.17
692.442	4324.12
692.631	4242.2
692.82	4121.37
693.01	4320.02
693.199	4363.03
693.388	4156.18
693.578	4193.05
693.767	4156.18
693.956	4053.78
694.146	4090.65
694.335	4131.61
694.524	4102.93
694.713	4135.7
694.902	4127.51
695.092	4047.64
695.281	4043.54
695.47	4043.54
695.659	4047.64
695.848	4070.17
696.037	3939.1
696.226	4057.88
696.415	3951.39
696.604	3990.3
696.793	3793.69
696.982	3814.17
697.171	3984.15
697.36	3930.91
697.549	3869.47
697.738	3808.03
697.927	3930.91
698.116	3836.7
698.305	3785.5
698.494	3730.2
698.683	3738.4
698.872	3939.1
699.061	3891.99
699.25	3767.07
699.438	3867.42
699.627	3795.74
699.816	3881.75
700.005	3775.26
700.193	3758.88
700.382	3736.35
700.571	3605.28
700.76	3689.25
700.948	3779.36
701.137	3758.88
701.326	3795.74
701.514	3730.2
701.703	3644.19
701.892	3668.77
702.08	3611.42
702.269	3726.11
702.457	3554.08
702.646	3552.03
702.834	3425.06
703.023	3558.18
703.212	3509.02
703.4	3486.5
703.589	3394.34
703.777	3578.65
703.965	3474.21
704.154	3521.31
704.342	3365.67
704.531	3545.89
704.719	3466.02
704.907	3420.96
705.096	3328.8
705.284	3293.99
705.472	3373.86
705.661	3496.74
705.849	3455.78
706.037	3357.47
706.226	3312.42
706.414	3384.1
706.602	3367.71
706.79	3316.51
706.979	3357.47
707.167	3361.57
707.355	3257.12
707.543	3201.83
707.731	3240.74
707.919	3218.21
708.107	3169.06
708.296	3095.33
708.484	3177.25
708.672	3349.28
708.86	3107.62
709.048	3291.94
709.236	2982.7
709.424	3312.42
709.612	3152.68
709.8	3054.37
709.988	3179.3
710.176	3042.09
710.364	3179.3
710.551	3111.72
710.739	3121.96
710.927	3011.37
711.115	2990.89
711.303	3070.76
711.491	2958.12
711.679	2980.65
711.866	3044.13
712.054	3035.94
712.242	2982.7
712.43	3058.47
712.617	3017.51
712.805	2859.82
712.993	3048.23
713.181	2915.11
713.368	2890.54
713.556	2898.73
713.744	2880.3
713.931	2908.97
714.119	2738.99
714.306	2816.81
714.494	2835.24
714.682	2765.61
714.869	2749.23
715.057	2874.15
715.244	2857.77
715.432	2849.58
715.619	2827.05
715.807	2759.47
715.994	2736.94
716.182	2784.04
716.369	2747.18
716.556	2847.53
716.744	2859.82
716.931	2730.8
717.119	2648.88
717.306	2720.56
717.493	2636.59
717.681	2671.4
717.868	2751.28
718.055	2722.6
718.242	2620.21
718.43	2607.92
718.617	2634.54
718.804	2655.02
718.991	2661.16
719.179	2622.25
719.366	2482.99
719.553	2669.36
719.74	2599.73
719.927	2540.33
720.114	2579.25
720.301	2513.71
720.488	2439.98
720.676	2485.04
720.863	2456.37
721.05	2526
721.237	2517.81
721.424	2517.81
721.611	2499.38
721.798	2523.95
721.985	2407.22
722.172	2575.15
722.358	2376.5
722.545	2364.21
722.732	2442.03
722.919	2472.75
723.106	2360.11
723.293	2323.25
723.48	2415.41
723.667	2351.92
723.853	2374.45
724.04	2497.33
724.227	2411.31
724.414	2386.74
724.6	2356.02
724.787	2358.07
724.974	2423.6
725.161	2247.48
725.347	2253.62
725.534	2292.53
725.72	2263.86
725.907	2263.86
726.094	2227
726.28	2251.57
726.467	2319.15
726.653	2325.3
726.84	2220.85
727.027	2317.11
727.213	2171.7
727.4	2243.38
727.586	2206.52
727.773	2292.53
727.959	2063.16
728.145	2153.27
728.332	2186.04
728.518	2179.89
728.705	2214.71
728.891	2177.84
729.077	2104.12
729.264	2083.64
729.45	2122.55
729.636	2108.21
729.823	2136.88
730.009	2149.17
730.195	2091.83
730.382	1971
730.568	2138.93
730.754	2149.17
730.94	2138.93
731.126	2040.63
731.313	2044.73
731.499	2067.25
731.685	2022.2
731.871	2024.25
732.057	2014.01
732.243	1991.48
732.429	1915.7
732.615	2124.6
732.801	2046.77
732.987	1991.48
733.173	1964.86
733.359	1848.12
733.545	1874.74
733.731	1927.99
733.917	1864.5
734.103	1966.9
734.289	1958.71
734.475	1882.94
734.661	1925.94
734.847	2003.77
735.033	1874.74
735.219	1848.12
735.404	1932.09
735.59	1862.46
735.776	1753.91
735.962	1837.88
736.148	1895.22
736.333	1882.94
736.519	1780.54
736.705	1788.73
736.89	1833.79
737.076	1891.13
737.262	1846.07
737.447	1702.72
737.633	1753.91
737.819	1778.49
738.004	1831.74
738.19	1702.72
738.375	1780.54
738.561	1858.36
738.747	1874.74
738.932	1663.8
739.118	1710.91
739.303	1825.59
739.489	1727.29
739.674	1674.04
739.859	1647.42
740.045	1762.11
740.23	1696.57
740.416	1618.75
740.601	1727.29
740.786	1684.28
740.972	1686.33
741.157	1633.08
741.342	1600.32
741.528	1606.46
741.713	1594.17
741.898	1616.7
742.084	1581.89
742.269	1590.08
742.454	1538.88
742.639	1637.18
742.824	1663.8
743.01	1583.93
743.195	1559.36
743.38	1547.07
743.565	1616.7
743.75	1516.35
743.935	1604.41
744.12	1489.73
744.305	1540.93
744.49	1432.38
744.675	1475.39
744.86	1473.34
745.045	1479.49
745.23	1542.97
745.415	1485.63
745.6	1397.57
745.785	1504.06
745.97	1489.73
746.155	1626.94
746.34	1411.9
746.525	1538.88
746.71	1497.92
746.895	1407.81
747.079	1356.61
747.264	1399.62
747.449	1375.04
747.634	1491.77
747.819	1426.24
748.003	1416
748.188	1258.31
748.373	1399.62
748.557	1303.36
748.742	1276.74
748.927	1411.9
749.111	1395.52
749.296	1293.12
749.481	1194.82
749.665	1278.79
749.85	1317.7
750.034	1246.02
750.219	1246.02
750.404	1215.3
750.588	1129.28
750.773	1301.31
750.957	1170.24
751.141	1139.52
751.326	1303.36
751.51	1205.06
751.695	1262.4
751.879	1260.35
752.064	1303.36
752.248	1170.24
752.432	1229.63
752.617	1266.5
752.801	1256.26
752.985	1170.24
753.17	1207.11
753.354	1170.24
753.538	1108.8
753.722	1114.95
753.907	1123.14
754.091	1088.32
754.275	1073.99
754.459	1096.52
754.643	1067.85
754.828	1137.48
755.012	1030.98
755.196	1047.37
755.38	1157.96
755.564	1043.27
755.748	1033.03
755.932	977.73
756.116	983.88
756.3	1043.27
756.484	924.49
756.668	1114.95
756.852	838.47
757.036	924.49
757.22	947.01
757.404	1004.36
757.588	916.3
757.772	932.68
757.956	965.45
758.14	1014.6
758.323	977.73
758.507	924.49
758.691	959.3
758.875	926.54
759.059	932.68
759.242	932.68
759.426	910.15
759.61	832.33
759.794	850.76
759.977	940.87
760.161	969.54
760.345	858.95
760.528	938.82
760.712	889.67
760.895	942.92
761.079	916.3
761.263	809.8
761.446	809.8
761.63	877.38
761.813	852.81
761.997	826.18
762.18	836.42
762.364	940.87
762.547	758.6
762.731	828.23
762.914	822.09
763.098	801.61
763.281	838.47
763.464	770.89
763.648	744.27
763.831	781.13
764.015	707.4
764.198	760.65
764.381	781.13
764.564	795.47
764.748	848.71
764.931	826.18
765.114	797.51
765.297	727.88
765.481	797.51
765.664	707.4
765.847	740.17
766.03	758.6
766.213	756.55
766.397	826.18
766.58	756.55
766.763	793.42
766.946	711.5
767.129	703.31
767.312	760.65
767.495	820.04
767.678	760.65
767.861	779.08
768.044	707.4
768.227	707.4
768.41	596.81
768.593	760.65
768.776	736.07
768.959	736.07
769.142	731.98
769.324	688.97
769.507	770.89
769.69	740.17
769.873	633.68
770.056	762.7
770.239	760.65
770.421	738.12
770.604	686.92
770.787	693.07
770.97	719.69
771.152	777.03
771.335	584.52
771.518	742.22
771.7	662.35
771.883	729.93
772.066	711.5
772.248	674.64
772.431	660.3
772.613	619.34
772.796	625.48
772.978	662.35
773.161	643.92
773.343	590.67
773.526	568.14
773.708	564.04
773.891	613.2
774.073	717.64
774.256	637.77
774.438	697.16
774.621	588.62
774.803	699.21
774.985	514.89
775.168	582.48
775.35	559.95
775.532	615.24
775.715	580.43
775.897	674.64
776.079	586.57
776.261	596.81
776.444	590.67
776.626	588.62
776.808	557.9
776.99	529.23
777.173	539.47
777.355	568.14
777.537	557.9
777.719	549.71
777.901	533.33
778.083	598.86
778.265	553.8
778.447	572.24
778.629	570.19
778.811	449.36
778.993	582.48
779.175	500.56
779.357	539.47
779.539	441.17
779.721	449.36
779.903	545.61
780.085	543.57
780.267	523.09
780.449	506.7
780.631	445.26
780.812	498.51
780.994	443.21
781.176	459.6
781.358	430.93
781.54	402.26
781.721	418.64
781.903	467.79
782.085	447.31
782.267	459.6
782.448	465.74
782.63	439.12
782.812	445.26
782.993	451.41
783.175	504.65
783.357	422.73
783.538	445.26
783.72	447.31
783.901	449.36
784.083	408.4
784.264	400.21
784.446	383.82
784.627	428.88
784.809	359.25
784.99	381.78
785.172	443.21
785.353	334.67
785.535	432.97
785.716	373.58
785.897	353.1
786.079	351.06
786.26	340.82
786.441	482.13
786.623	336.72
786.804	353.1
786.985	381.78
787.167	412.5
787.348	295.76
787.529	285.52
787.71	416.59
787.891	355.15
788.073	226.13
788.254	320.34
788.435	359.25
788.616	336.72
788.797	312.14
788.978	351.06
789.159	338.77
789.34	295.76
789.522	330.58
789.703	385.87
789.884	310.1
790.065	342.86
790.246	336.72
790.427	326.48
790.607	346.96
790.788	287.57
790.969	273.23
791.15	293.71
791.331	293.71
791.512	330.58
791.693	215.89
791.874	230.23
792.054	367.44
792.235	310.1
792.416	236.37
792.597	226.13
792.778	250.71
792.958	289.62
793.139	207.7
793.32	369.49
793.5	254.8
793.681	314.19
793.862	252.75
794.042	244.56
794.223	244.56
794.404	211.79
794.584	295.76
794.765	244.56
794.945	295.76
795.126	320.34
795.306	310.1
795.487	244.56
795.667	260.95
795.848	279.38
796.028	260.95
796.209	326.48
796.389	260.95
796.57	162.64
796.75	256.85
796.93	283.47
797.111	168.79
797.291	232.27
797.471	301.9
797.652	195.41
797.832	164.69
798.012	246.61
798.192	195.41
798.373	133.97
798.553	217.94
798.733	234.32
798.913	238.42
799.093	224.08
799.274	238.42
799.454	205.65
799.634	252.75
799.814	310.1
799.994	277.33
800.174	244.56
800.354	248.66
800.534	164.69
800.714	203.6
800.894	207.7
801.074	142.16
801.254	228.18
801.434	219.99
801.614	113.49
801.794	238.42
801.974	764.75
802.154	148.31
802.334	201.55
802.514	164.69
802.693	129.88
802.873	183.12
803.053	260.95
803.233	228.18
803.413	179.03
803.592	179.03
803.772	219.99
803.952	170.83
804.131	170.83
804.311	207.7
804.491	222.03
804.67	90.96
804.85	189.27
805.03	148.31
805.209	219.99
805.389	150.36
805.568	166.74
805.748	162.64
805.928	154.45
806.107	156.5
806.287	168.79
806.466	170.83
806.646	146.26
806.825	207.7
807.004	99.16
807.184	201.55
807.363	219.99
807.543	158.55
807.722	144.21
807.901	93.01
808.081	183.12
808.26	129.88
808.439	189.27
808.619	109.4
808.798	136.02
808.977	185.17
809.156	127.83
809.336	191.31
809.515	219.99
809.694	154.45
809.873	99.16
810.052	164.69
810.231	162.64
810.411	146.26
810.59	101.2
810.769	154.45
810.948	246.61
811.127	68.44
811.306	109.4
811.485	62.29
811.664	252.75
811.843	203.6
812.022	203.6
812.201	179.03
812.38	101.2
812.559	133.97
812.737	123.73
812.916	76.63
813.095	80.72
813.274	166.74
813.453	129.88
813.632	86.87
813.811	142.16
813.989	140.12
814.168	150.36
814.347	103.25
814.526	154.45
814.704	105.3
814.883	117.59
815.062	123.73
815.24	121.68
815.419	95.06
815.598	123.73
815.776	101.2
815.955	78.68
816.133	107.35
816.312	121.68
816.49	82.77
816.669	68.44
816.847	37.72
817.026	80.72
817.204	86.87
817.383	80.72
817.561	125.78
817.74	99.16
817.918	168.79
818.097	152.4
818.275	56.15
818.453	144.21
818.632	191.31
818.81	101.2
818.988	131.92
819.167	181.07
819.345	125.78
819.523	146.26
819.701	117.59
819.879	107.35
820.058	195.41
820.236	138.07
820.414	60.24
820.592	80.72
820.77	146.26
820.948	105.3
821.127	93.01
821.305	170.83
821.483	117.59
821.661	140.12
821.839	90.96
822.017	56.15
822.195	136.02
822.373	156.5
822.551	58.2
822.729	138.07
822.907	58.2
823.085	103.25
823.262	170.83
823.44	31.57
823.618	39.76
823.796	140.12
823.974	187.22
824.152	90.96
824.329	50
824.507	101.2
824.685	129.88
824.863	101.2
825.04	31.57
825.218	113.49
825.396	58.2
825.574	39.76
825.751	56.15
825.929	117.59
826.107	19.29
826.284	27.48
826.462	113.49
826.639	19.29
826.817	-29.87
826.994	107.35
827.172	90.96
827.349	76.63
827.527	158.55
827.704	88.92
827.882	43.86
828.059	64.34
828.237	-89.26
828.414	121.68
828.591	52.05
828.769	113.49
828.946	129.88
829.124	107.35
829.301	58.2
829.478	90.96
829.655	82.77
829.833	60.24
830.01	56.15
830.187	84.82
830.364	82.77
830.542	68.44
830.719	99.16
830.896	170.83
831.073	64.34
831.25	109.4
831.427	74.58
831.604	15.19
831.782	-15.53
831.959	68.44
832.136	-5.29
832.313	47.96
832.49	93.01
832.667	95.06
832.844	23.38
833.021	52.05
833.198	117.59
833.374	15.19
833.551	43.86
833.728	9.05
833.905	66.39
834.082	39.76
834.259	125.78
834.436	140.12
834.612	66.39
834.789	72.53
834.966	23.38
835.143	84.82
835.319	-15.53
835.496	146.26
835.673	56.15
835.85	47.96
836.026	72.53
836.203	125.78
836.38	56.15
836.556	109.4
836.733	27.48
836.909	88.92
837.086	-13.48
837.262	7
837.439	19.29
837.616	39.76
837.792	31.57
837.968	119.64
838.145	68.44
838.321	31.57
838.498	121.68
838.674	15.19
838.851	115.54
839.027	39.76
839.203	27.48
839.38	50
839.556	2.9
839.732	148.31
839.909	17.24
840.085	50
840.261	13.14
840.437	41.81
840.614	-5.29
840.79	72.53
840.966	140.12
841.142	15.19
841.318	47.96
841.494	113.49
841.671	47.96
841.847	31.57
842.023	11.09
842.199	78.68
842.375	66.39
842.551	-44.2
842.727	4.95
842.903	39.76
843.079	43.86
843.255	17.24
843.431	21.33
843.607	84.82
843.783	-17.58
843.959	156.5
844.134	25.43
844.31	105.3
844.486	39.76
844.662	50
844.838	54.1
845.013	33.62
845.189	119.64
845.365	-13.48
845.541	37.72
845.716	101.2
845.892	-7.34
846.068	19.29
846.244	-31.91
846.419	60.24
846.595	-1.19
846.77	-21.67
846.946	47.96
847.122	80.72
847.297	64.34
847.473	72.53
847.648	-23.72
847.824	58.2
847.999	-17.58
848.175	129.88
848.35	60.24
848.526	47.96
848.701	15.19
848.876	113.49
849.052	47.96
849.227	64.34
849.403	-3.24
849.578	82.77
849.753	101.2
849.929	47.96
850.104	31.57
850.279	107.35
850.454	-9.39
850.63	99.16
850.805	47.96
850.98	72.53
851.155	-1.19
851.33	4.95
851.505	50
851.681	31.57
851.856	19.29
852.031	107.35
852.206	47.96
852.381	56.15
852.556	15.19
852.731	35.67
852.906	109.4
853.081	72.53
853.256	117.59
853.431	39.76
853.606	15.19
853.781	97.11
853.956	-42.15
854.131	21.33
854.305	25.43
854.48	-7.34
854.655	-25.77
854.83	-25.77
855.005	41.81
855.18	27.48
855.354	-29.87
855.529	66.39
855.704	23.38
855.879	66.39
856.053	35.67
856.228	39.76
856.403	56.15
856.577	56.15
856.752	33.62
856.926	-1.19
857.101	-15.53
857.276	-40.11
857.45	13.14
857.625	105.3
857.799	25.43
857.974	72.53
858.148	43.86
858.323	-17.58
858.497	64.34
858.672	66.39
858.846	9.05
859.02	35.67
859.195	39.76
859.369	58.2
859.543	-13.48
859.718	43.86
859.892	82.77
860.066	33.62
860.241	-1.19
860.415	25.43
860.589	9.05
860.763	15.19
860.938	-54.44
861.112	31.57
861.286	23.38
861.46	17.24
861.634	23.38
861.808	31.57
861.982	-17.58
862.157	142.16
862.331	9.05
862.505	27.48
862.679	-48.3
862.853	72.53
863.027	47.96
863.201	154.45
863.375	-1.19
863.549	11.09
863.722	-1.19
863.896	140.12
864.07	64.34
864.244	60.24
864.418	0.85
864.592	97.11
864.766	0.85
864.939	-25.77
865.113	33.62
865.287	68.44
865.461	25.43
865.634	54.1
865.808	11.09
865.982	90.96
866.156	-7.34
866.329	-7.34
866.503	39.76
866.676	23.38
866.85	-17.58
867.024	-9.39
867.197	9.05
867.371	70.48
867.544	-9.39
867.718	0.85
867.891	62.29
868.065	-13.48
868.238	37.72
868.412	54.1
868.585	58.2
868.759	-23.72
868.932	11.09
869.105	68.44
869.279	37.72
869.452	-21.67
869.625	23.38
869.799	-5.29
869.972	25.43
870.145	23.38
870.319	-1.19
870.492	-40.11
870.665	-33.96
870.838	97.11
871.011	-33.96
871.185	11.09
871.358	15.19
871.531	-31.91
871.704	-17.58
871.877	23.38
872.05	31.57
872.223	39.76
872.396	41.81
872.569	50
872.742	-1.19
872.915	41.81
873.088	2.9
873.261	31.57
873.434	72.53
873.607	13.14
873.78	31.57
873.953	-38.06
874.126	-5.29
874.299	50
874.471	43.86
874.644	-105.64
874.817	80.72
874.99	25.43
875.163	31.57
875.335	25.43
875.508	-13.48
875.681	35.67
875.853	-13.48
876.026	-13.48
876.199	35.67
876.371	15.19
876.544	17.24
876.717	15.19
876.889	29.52
877.062	64.34
877.234	-56.49
877.407	76.63
877.579	17.24
877.752	-91.31
877.924	9.05
878.097	-3.24
878.269	19.29
878.442	-64.68
878.614	15.19
878.786	97.11
878.959	-72.87
879.131	-42.15
879.303	-17.58
879.476	-29.87
879.648	23.38
879.82	41.81
879.993	23.38
880.165	-31.91
880.337	52.05
880.509	60.24
880.681	-9.39
880.854	-1.19
881.026	0.85
881.198	52.05
881.37	72.53
881.542	-23.72
881.714	-40.11
881.886	-17.58
882.058	41.81
882.23	-25.77
882.402	74.58
882.574	25.43
882.746	27.48
882.918	88.92
883.09	41.81
883.262	-13.48
883.434	-81.07
883.606	-36.01
883.778	29.52
883.95	7
884.122	7
884.293	21.33
884.465	9.05
884.637	-5.29
884.809	-99.5
884.98	-1.19
885.152	4.95
885.324	15.19
885.496	-40.11
885.667	39.76
885.839	43.86
886.011	86.87
886.182	-27.82
886.354	-42.15
886.525	23.38
886.697	-19.63
886.869	-62.63
887.04	72.53
887.212	7
887.383	74.58
887.555	27.48
887.726	-29.87
887.897	-23.72
888.069	-31.91
888.24	-7.34
888.412	23.38
888.583	35.67
888.754	-48.3
888.926	-19.63
889.097	35.67
889.268	-33.96
889.44	-60.59
889.611	-1.19
889.782	-62.63
889.953	-7.34
890.125	52.05
890.296	-15.53
890.467	7
890.638	-9.39
890.809	4.95
890.98	-7.34
891.151	7
891.323	-7.34
891.494	-42.15
891.665	60.24
891.836	50
892.007	4.95
892.178	11.09
892.349	56.15
892.52	-58.54
892.691	-42.15
892.862	2.9
893.032	-50.35
893.203	-5.29
893.374	-60.59
893.545	-9.39
893.716	-29.87
893.887	74.58
894.057	-62.63
894.228	15.19
894.399	17.24
894.57	7
894.74	33.62
894.911	31.57
895.082	-68.78
895.253	-70.83
895.423	0.85
895.594	-48.3
895.764	80.72
895.935	25.43
896.106	-7.34
896.276	-68.78
896.447	-29.87
896.617	-70.83
896.788	0.85
896.958	-1.19
897.129	-56.49
897.299	-7.34
897.47	35.67
897.64	113.49
897.81	-33.96
897.981	-9.39
898.151	-33.96
898.322	27.48
898.492	25.43
898.662	9.05
898.832	-1.19
899.003	-17.58
899.173	-15.53
899.343	0.85
899.513	-1.19
