Data from USB4F104151__245__14-45-48-663.txt Node

Date: Thu Mar 13 14:45:48 EDT 2025
User: louis
Spectrometer: USB4F10415
Trigger mode: 4
Integration Time (sec): 2.000000E-2
Scans to average: 1
Electric dark correction enabled: true
Nonlinearity correction enabled: false
Boxcar width: 0
XAxis mode: Wavelengths
Number of Pixels in Spectrum: 3648
>>>>>Begin Spectral Data<<<<<
178.204	-105.98
178.424	-105.98
178.644	-105.98
178.864	-151.04
179.084	-153.09
179.304	-24.06
179.524	4.61
179.744	84.48
179.964	-28.16
180.184	25.09
180.404	-7.68
180.624	-38.4
180.844	-1.54
181.064	-26.11
181.283	-48.64
181.503	35.33
181.723	25.09
181.943	-32.26
182.163	70.14
182.383	66.05
182.602	-24.06
182.822	-7.68
183.042	27.14
183.262	-15.87
183.482	94.72
183.701	45.57
183.921	8.7
184.141	53.76
184.361	82.43
184.58	49.66
184.8	27.14
185.02	10.75
185.239	61.95
185.459	68.09
185.679	0.51
185.898	68.09
186.118	74.24
186.338	16.9
186.557	47.62
186.777	-15.87
186.997	23.04
187.216	8.7
187.436	10.75
187.655	64
187.875	39.42
188.095	16.9
188.314	-5.63
188.534	115.2
188.753	16.9
188.973	37.38
189.192	72.19
189.412	-3.58
189.631	27.14
189.851	37.38
190.07	57.86
190.29	41.47
190.509	18.94
190.729	33.28
190.948	27.14
191.168	107.01
191.387	33.28
191.607	-50.69
191.826	78.33
192.045	29.18
192.265	29.18
192.484	-7.68
192.704	57.86
192.923	6.66
193.142	57.86
193.362	23.04
193.581	39.42
193.8	31.23
194.02	27.14
194.239	43.52
194.458	35.33
194.678	98.81
194.897	57.86
195.116	31.23
195.335	4.61
195.555	0.51
195.774	61.95
195.993	2.56
196.212	37.38
196.432	0.51
196.651	49.66
196.87	-15.87
197.089	102.91
197.308	131.58
197.528	115.2
197.747	14.85
197.966	-1.54
198.185	70.14
198.404	-11.78
198.623	25.09
198.842	98.81
199.062	90.62
199.281	92.67
199.5	37.38
199.719	92.67
199.938	66.05
200.157	113.15
200.376	74.24
200.595	8.7
200.814	-40.45
201.033	31.23
201.252	84.48
201.471	2.56
201.69	137.73
201.909	-5.63
202.128	33.28
202.347	27.14
202.566	-11.78
202.785	-7.68
203.004	49.66
203.223	141.82
203.442	18.94
203.661	-11.78
203.879	8.7
204.098	-11.78
204.317	29.18
204.536	90.62
204.755	25.09
204.974	68.09
205.193	139.77
205.411	143.87
205.63	37.38
205.849	-22.02
206.068	-5.63
206.287	-28.16
206.505	35.33
206.724	66.05
206.943	43.52
207.162	-73.21
207.381	-19.97
207.599	-28.16
207.818	0.51
208.037	6.66
208.255	0.51
208.474	72.19
208.693	49.66
208.911	-5.63
209.13	107.01
209.349	18.94
209.567	33.28
209.786	113.15
210.005	37.38
210.223	4.61
210.442	-44.54
210.661	57.86
210.879	-105.98
211.098	-15.87
211.316	-7.68
211.535	-3.58
211.753	94.72
211.972	51.71
212.191	-79.36
212.409	66.05
212.628	100.86
212.846	55.81
213.065	49.66
213.283	82.43
213.502	-65.02
213.72	51.71
213.938	72.19
214.157	49.66
214.375	76.29
214.594	-15.87
214.812	61.95
215.031	-77.31
215.249	-30.21
215.467	4.61
215.686	66.05
215.904	-30.21
216.122	12.8
216.341	0.51
216.559	-15.87
216.778	49.66
216.996	66.05
217.214	27.14
217.432	-40.45
217.651	25.09
217.869	23.04
218.087	18.94
218.306	33.28
218.524	12.8
218.742	-13.82
218.96	-3.58
219.179	2.56
219.397	29.18
219.615	64
219.833	25.09
220.051	78.33
220.27	66.05
220.488	57.86
220.706	-15.87
220.924	-13.82
221.142	25.09
221.36	12.8
221.578	-22.02
221.796	-40.45
222.015	-32.26
222.233	20.99
222.451	68.09
222.669	-69.12
222.887	4.61
223.105	41.47
223.323	-22.02
223.541	-28.16
223.759	12.8
223.977	-7.68
224.195	33.28
224.413	70.14
224.631	-32.26
224.849	84.48
225.067	64
225.285	14.85
225.503	10.75
225.721	-3.58
225.939	-52.74
226.157	-3.58
226.375	76.29
226.592	-44.54
226.81	-19.97
227.028	27.14
227.246	68.09
227.464	25.09
227.682	43.52
227.9	-3.58
228.117	66.05
228.335	55.81
228.553	92.67
228.771	47.62
228.989	25.09
229.206	76.29
229.424	-3.58
229.642	-3.58
229.86	45.57
230.077	137.73
230.295	66.05
230.513	78.33
230.731	70.14
230.948	57.86
231.166	61.95
231.384	-32.26
231.601	-38.4
231.819	23.04
232.037	68.09
232.254	-5.63
232.472	-3.58
232.689	-24.06
232.907	-58.88
233.125	25.09
233.342	66.05
233.56	76.29
233.777	74.24
233.995	-40.45
234.213	-1.54
234.43	49.66
234.648	-22.02
234.865	33.28
235.083	49.66
235.3	-32.26
235.518	-54.78
235.735	82.43
235.953	66.05
236.17	-5.63
236.388	35.33
236.605	66.05
236.822	25.09
237.04	33.28
237.257	33.28
237.475	-60.93
237.692	66.05
237.909	10.75
238.127	-13.82
238.344	43.52
238.562	-40.45
238.779	51.71
238.996	49.66
239.214	-65.02
239.431	8.7
239.648	-15.87
239.865	37.38
240.083	66.05
240.3	4.61
240.517	18.94
240.735	2.56
240.952	131.58
241.169	84.48
241.386	6.66
241.603	33.28
241.821	-22.02
242.038	37.38
242.255	27.14
242.472	18.94
242.689	29.18
242.907	68.09
243.124	-13.82
243.341	-5.63
243.558	0.51
243.775	37.38
243.992	23.04
244.209	66.05
244.426	57.86
244.643	-7.68
244.86	59.9
245.078	66.05
245.295	-3.58
245.512	61.95
245.729	-24.06
245.946	41.47
246.163	57.86
246.38	76.29
246.597	45.57
246.814	49.66
247.031	25.09
247.248	-7.68
247.464	27.14
247.681	104.96
247.898	-17.92
248.115	25.09
248.332	39.42
248.549	98.81
248.766	76.29
248.983	2.56
249.2	-1.54
249.417	25.09
249.633	64
249.85	94.72
250.067	18.94
250.284	4.61
250.501	18.94
250.717	53.76
250.934	0.51
251.151	31.23
251.368	49.66
251.585	-13.82
251.801	86.53
252.018	18.94
252.235	35.33
252.451	-46.59
252.668	-15.87
252.885	4.61
253.102	20.99
253.318	57.86
253.535	-15.87
253.752	-15.87
253.968	41.47
254.185	-81.41
254.401	-11.78
254.618	31.23
254.835	33.28
255.051	70.14
255.268	33.28
255.484	14.85
255.701	-87.55
255.917	59.9
256.134	-1.54
256.351	57.86
256.567	8.7
256.784	39.42
257	27.14
257.217	16.9
257.433	82.43
257.65	92.67
257.866	-32.26
258.082	-11.78
258.299	2.56
258.515	2.56
258.732	-36.35
258.948	-54.78
259.165	47.62
259.381	33.28
259.597	72.19
259.814	-13.82
260.03	61.95
260.246	16.9
260.463	41.47
260.679	59.9
260.895	12.8
261.112	57.86
261.328	51.71
261.544	20.99
261.761	57.86
261.977	41.47
262.193	-58.88
262.409	35.33
262.626	98.81
262.842	88.57
263.058	-19.97
263.274	33.28
263.49	82.43
263.707	78.33
263.923	25.09
264.139	-46.59
264.355	8.7
264.571	176.64
264.787	10.75
265.004	25.09
265.22	-17.92
265.436	51.71
265.652	20.99
265.868	35.33
266.084	-7.68
266.3	-48.64
266.516	-46.59
266.732	70.14
266.948	70.14
267.164	8.7
267.38	37.38
267.596	47.62
267.812	18.94
268.028	43.52
268.244	-40.45
268.46	-7.68
268.676	57.86
268.892	33.28
269.108	-13.82
269.324	-13.82
269.54	18.94
269.756	45.57
269.972	-40.45
270.188	27.14
270.403	-36.35
270.619	-26.11
270.835	86.53
271.051	31.23
271.267	-15.87
271.483	-17.92
271.698	100.86
271.914	68.09
272.13	41.47
272.346	66.05
272.562	-15.87
272.777	37.38
272.993	-81.41
273.209	51.71
273.425	16.9
273.64	66.05
273.856	74.24
274.072	-60.93
274.287	-13.82
274.503	14.85
274.719	66.05
274.934	25.09
275.15	33.28
275.366	0.51
275.581	2.56
275.797	16.9
276.012	59.9
276.228	-28.16
276.444	-50.69
276.659	80.38
276.875	-40.45
277.09	25.09
277.306	20.99
277.521	20.99
277.737	-3.58
277.952	53.76
278.168	72.19
278.383	-17.92
278.599	66.05
278.814	0.51
279.03	-19.97
279.245	70.14
279.461	-38.4
279.676	47.62
279.892	-28.16
280.107	-1.54
280.322	20.99
280.538	25.09
280.753	57.86
280.969	39.42
281.184	66.05
281.399	39.42
281.615	76.29
281.83	-36.35
282.045	-28.16
282.26	-7.68
282.476	-17.92
282.691	8.7
282.906	-15.87
283.122	29.18
283.337	33.28
283.552	23.04
283.767	0.51
283.983	-32.26
284.198	12.8
284.413	-9.73
284.628	12.8
284.843	82.43
285.058	-13.82
285.274	82.43
285.489	74.24
285.704	39.42
285.919	-44.54
286.134	33.28
286.349	8.7
286.564	16.9
286.779	57.86
286.995	66.05
287.21	8.7
287.425	100.86
287.64	74.24
287.855	61.95
288.07	-19.97
288.285	64
288.5	27.14
288.715	117.25
288.93	-48.64
289.145	8.7
289.36	70.14
289.575	127.49
289.79	55.81
290.004	35.33
290.219	41.47
290.434	49.66
290.649	-22.02
290.864	2.56
291.079	-30.21
291.294	23.04
291.509	33.28
291.724	90.62
291.938	35.33
292.153	16.9
292.368	29.18
292.583	20.99
292.798	49.66
293.012	27.14
293.227	49.66
293.442	-7.68
293.657	86.53
293.871	109.05
294.086	-24.06
294.301	47.62
294.516	68.09
294.73	43.52
294.945	66.05
295.16	-28.16
295.374	31.23
295.589	82.43
295.804	25.09
296.018	2.56
296.233	18.94
296.447	90.62
296.662	10.75
296.877	-5.63
297.091	61.95
297.306	88.57
297.52	-30.21
297.735	107.01
297.949	107.01
298.164	88.57
298.378	27.14
298.593	-24.06
298.807	16.9
299.022	123.39
299.236	43.52
299.451	74.24
299.665	39.42
299.88	41.47
300.094	59.9
300.309	104.96
300.523	39.42
300.737	47.62
300.952	-11.78
301.166	10.75
301.381	49.66
301.595	123.39
301.809	78.33
302.024	59.9
302.238	-5.63
302.452	82.43
302.667	23.04
302.881	25.09
303.095	98.81
303.309	35.33
303.524	-69.12
303.738	37.38
303.952	-3.58
304.166	12.8
304.381	10.75
304.595	115.2
304.809	-24.06
305.023	27.14
305.237	-15.87
305.452	100.86
305.666	74.24
305.88	64
306.094	4.61
306.308	41.47
306.522	96.77
306.736	-15.87
306.95	57.86
307.164	12.8
307.379	20.99
307.593	102.91
307.807	39.42
308.021	51.71
308.235	43.52
308.449	0.51
308.663	-13.82
308.877	123.39
309.091	-1.54
309.305	25.09
309.519	-36.35
309.733	82.43
309.947	-56.83
310.161	-7.68
310.374	37.38
310.588	45.57
310.802	-1.54
311.016	14.85
311.23	18.94
311.444	-48.64
311.658	10.75
311.872	64
312.085	61.95
312.299	57.86
312.513	47.62
312.727	55.81
312.941	27.14
313.154	68.09
313.368	43.52
313.582	33.28
313.796	59.9
314.009	-28.16
314.223	-34.3
314.437	16.9
314.651	-9.73
314.864	-5.63
315.078	-46.59
315.292	-15.87
315.505	66.05
315.719	14.85
315.933	37.38
316.146	84.48
316.36	43.52
316.573	8.7
316.787	35.33
317.001	76.29
317.214	37.38
317.428	57.86
317.641	-13.82
317.855	66.05
318.068	43.52
318.282	8.7
318.495	6.66
318.709	92.67
318.922	-9.73
319.136	78.33
319.349	10.75
319.563	25.09
319.776	57.86
319.99	41.47
320.203	80.38
320.417	-48.64
320.63	-13.82
320.843	90.62
321.057	33.28
321.27	18.94
321.483	-11.78
321.697	119.29
321.91	20.99
322.124	-17.92
322.337	61.95
322.55	10.75
322.763	61.95
322.977	-69.12
323.19	-5.63
323.403	-7.68
323.617	86.53
323.83	2.56
324.043	6.66
324.256	4.61
324.469	0.51
324.683	49.66
324.896	-40.45
325.109	57.86
325.322	-30.21
325.535	82.43
325.748	4.61
325.962	8.7
326.175	-3.58
326.388	86.53
326.601	37.38
326.814	45.57
327.027	29.18
327.24	119.29
327.453	-5.63
327.666	2.56
327.879	57.86
328.092	0.51
328.305	43.52
328.518	41.47
328.731	8.7
328.944	49.66
329.157	45.57
329.37	33.28
329.583	39.42
329.796	18.94
330.009	-48.64
330.222	80.38
330.435	2.56
330.648	76.29
330.861	-38.4
331.073	70.14
331.286	53.76
331.499	119.29
331.712	-30.21
331.925	33.28
332.138	16.9
332.35	14.85
332.563	53.76
332.776	41.47
332.989	-17.92
333.202	49.66
333.414	4.61
333.627	-32.26
333.84	43.52
334.053	55.81
334.265	-9.73
334.478	76.29
334.691	68.09
334.903	59.9
335.116	-56.83
335.329	39.42
335.541	-7.68
335.754	90.62
335.966	47.62
336.179	-5.63
336.392	-5.63
336.604	-15.87
336.817	96.77
337.029	68.09
337.242	-22.02
337.454	4.61
337.667	78.33
337.88	94.72
338.092	45.57
338.305	16.9
338.517	33.28
338.729	35.33
338.942	82.43
339.154	51.71
339.367	4.61
339.579	57.86
339.792	0.51
340.004	23.04
340.217	55.81
340.429	66.05
340.641	86.53
340.854	90.62
341.066	12.8
341.278	127.49
341.491	76.29
341.703	90.62
341.915	-7.68
342.128	98.81
342.34	4.61
342.552	25.09
342.764	-36.35
342.977	0.51
343.189	76.29
343.401	18.94
343.613	35.33
343.826	90.62
344.038	-24.06
344.25	27.14
344.462	-38.4
344.674	43.52
344.886	-56.83
345.099	74.24
345.311	-26.11
345.523	-24.06
345.735	-40.45
345.947	78.33
346.159	20.99
346.371	-32.26
346.583	37.38
346.795	57.86
347.007	41.47
347.219	33.28
347.431	-13.82
347.643	27.14
347.855	25.09
348.067	-7.68
348.279	25.09
348.491	64
348.703	10.75
348.915	53.76
349.127	-15.87
349.339	131.58
349.551	25.09
349.763	27.14
349.975	16.9
350.187	90.62
350.399	61.95
350.61	66.05
350.822	70.14
351.034	10.75
351.246	53.76
351.458	61.95
351.669	49.66
351.881	107.01
352.093	45.57
352.305	12.8
352.517	10.75
352.728	41.47
352.94	70.14
353.152	115.2
353.363	-13.82
353.575	8.7
353.787	49.66
353.999	-15.87
354.21	98.81
354.422	90.62
354.633	2.56
354.845	90.62
355.057	23.04
355.268	55.81
355.48	76.29
355.692	16.9
355.903	0.51
356.115	33.28
356.326	16.9
356.538	66.05
356.749	37.38
356.961	84.48
357.172	76.29
357.384	25.09
357.595	68.09
357.807	8.7
358.018	90.62
358.23	-38.4
358.441	8.7
358.653	49.66
358.864	-28.16
359.075	-26.11
359.287	51.71
359.498	-9.73
359.709	57.86
359.921	-24.06
360.132	35.33
360.344	2.56
360.555	16.9
360.766	-7.68
360.977	29.18
361.189	-1.54
361.4	74.24
361.611	-5.63
361.823	45.57
362.034	4.61
362.245	-15.87
362.456	35.33
362.667	16.9
362.879	51.71
363.09	47.62
363.301	51.71
363.512	25.09
363.723	-3.58
363.935	49.66
364.146	-15.87
364.357	70.14
364.568	55.81
364.779	18.94
364.99	70.14
365.201	-15.87
365.412	14.85
365.623	29.18
365.834	59.9
366.045	41.47
366.256	76.29
366.467	35.33
366.678	88.57
366.889	20.99
367.1	84.48
367.311	43.52
367.522	25.09
367.733	107.01
367.944	33.28
368.155	43.52
368.366	64
368.577	45.57
368.788	68.09
368.999	117.25
369.209	27.14
369.42	150.01
369.631	45.57
369.842	4.61
370.053	-48.64
370.264	33.28
370.474	8.7
370.685	41.47
370.896	18.94
371.107	18.94
371.317	115.2
371.528	100.86
371.739	84.48
371.95	51.71
372.16	-15.87
372.371	20.99
372.582	45.57
372.792	16.9
373.003	27.14
373.214	57.86
373.424	100.86
373.635	-24.06
373.846	35.33
374.056	76.29
374.267	25.09
374.477	18.94
374.688	16.9
374.898	53.76
375.109	88.57
375.319	53.76
375.53	8.7
375.74	-40.45
375.951	6.66
376.161	-9.73
376.372	84.48
376.582	16.9
376.793	47.62
377.003	-44.54
377.214	96.77
377.424	57.86
377.635	0.51
377.845	107.01
378.055	94.72
378.266	16.9
378.476	49.66
378.686	37.38
378.897	43.52
379.107	80.38
379.317	45.57
379.528	29.18
379.738	16.9
379.948	18.94
380.158	100.86
380.369	49.66
380.579	51.71
380.789	-54.78
380.999	-22.02
381.21	49.66
381.42	18.94
381.63	72.19
381.84	12.8
382.05	100.86
382.261	41.47
382.471	-3.58
382.681	29.18
382.891	133.63
383.101	70.14
383.311	-65.02
383.521	41.47
383.731	111.1
383.941	27.14
384.151	23.04
384.361	-7.68
384.571	147.97
384.781	53.76
384.991	43.52
385.201	141.82
385.411	94.72
385.621	70.14
385.831	88.57
386.041	96.77
386.251	-15.87
386.461	74.24
386.671	-54.78
386.881	49.66
387.091	41.47
387.301	37.38
387.511	18.94
387.72	127.49
387.93	115.2
388.14	4.61
388.35	-15.87
388.56	113.15
388.769	43.52
388.979	16.9
389.189	107.01
389.399	47.62
389.609	68.09
389.818	82.43
390.028	55.81
390.238	123.39
390.447	12.8
390.657	80.38
390.867	-3.58
391.076	29.18
391.286	35.33
391.496	41.47
391.705	-19.97
391.915	92.67
392.125	16.9
392.334	10.75
392.544	-9.73
392.753	27.14
392.963	127.49
393.172	86.53
393.382	55.81
393.591	131.58
393.801	123.39
394.01	4.61
394.22	33.28
394.429	4.61
394.639	90.62
394.848	33.28
395.058	37.38
395.267	49.66
395.477	33.28
395.686	66.05
395.895	92.67
396.105	154.11
396.314	16.9
396.524	61.95
396.733	109.05
396.942	6.66
397.152	10.75
397.361	53.76
397.57	43.52
397.78	100.86
397.989	43.52
398.198	100.86
398.407	45.57
398.617	139.77
398.826	-36.35
399.035	115.2
399.244	41.47
399.453	90.62
399.663	55.81
399.872	98.81
400.081	123.39
400.29	115.2
400.499	-15.87
400.708	64
400.917	53.76
401.127	70.14
401.336	113.15
401.545	123.39
401.754	76.29
401.963	49.66
402.172	27.14
402.381	57.86
402.59	33.28
402.799	64
403.008	139.77
403.217	141.82
403.426	115.2
403.635	-13.82
403.844	84.48
404.053	90.62
404.262	109.05
404.471	139.77
404.68	150.01
404.888	123.39
405.097	121.34
405.306	133.63
405.515	86.53
405.724	98.81
405.933	205.31
406.142	98.81
406.35	150.01
406.559	109.05
406.768	139.77
406.977	190.97
407.185	139.77
407.394	176.64
407.603	66.05
407.812	141.82
408.02	125.44
408.229	238.08
408.438	156.16
408.646	74.24
408.855	133.63
409.064	131.58
409.272	178.69
409.481	154.11
409.69	231.93
409.898	246.27
410.107	164.35
410.315	279.04
410.524	229.88
410.733	182.78
410.941	186.88
411.15	279.04
411.358	256.51
411.567	238.08
411.775	250.36
411.984	358.91
412.192	246.27
412.401	322.04
412.609	348.67
412.818	344.57
413.026	430.59
413.234	354.81
413.443	422.39
413.651	381.43
413.86	311.8
414.068	430.59
414.276	385.53
414.485	467.45
414.693	516.6
414.901	492.02
415.11	520.7
415.318	518.65
415.526	477.69
415.734	549.37
415.943	512.5
416.151	549.37
416.359	606.71
416.567	643.57
416.776	594.42
416.984	674.29
417.192	696.82
417.4	715.25
417.608	731.64
417.817	737.78
418.025	811.51
418.233	836.08
418.441	778.74
418.649	877.04
418.857	799.22
419.065	971.25
419.273	909.81
419.481	934.39
419.689	969.2
419.897	1067.5
420.105	1106.42
420.313	1067.5
420.521	1122.8
420.729	1196.53
420.937	1192.43
421.145	1286.64
421.353	1198.57
421.561	1470.95
421.769	1399.27
421.977	1460.71
422.185	1499.63
422.393	1503.72
422.601	1632.74
422.809	1565.16
423.017	1747.43
423.224	1665.51
423.432	1827.3
423.64	1776.1
423.848	1884.64
424.056	1927.65
424.263	2023.91
424.471	2050.53
424.679	2081.25
424.887	2134.5
425.094	2230.75
425.302	2335.2
425.51	2331.1
425.718	2458.07
425.925	2351.58
426.133	2478.55
426.341	2675.16
426.548	2679.26
426.756	2683.35
426.964	2892.24
427.171	2976.21
427.379	2968.02
427.586	3041.75
427.794	3207.63
428.001	3340.75
428.209	3547.59
428.417	3314.13
428.624	3592.65
428.832	3576.27
429.039	3539.4
429.247	3531.21
429.454	3940.8
429.662	4215.23
429.869	3858.89
430.076	4317.63
430.284	4061.63
430.491	4291.01
430.699	4567.48
430.906	4395.45
431.114	4676.02
431.321	4714.94
431.528	4792.76
431.736	5204.4
431.943	5360.05
432.15	5290.42
432.358	5222.83
432.565	5501.36
432.772	5517.74
432.979	5874.09
433.187	5931.43
433.394	5849.51
433.601	6422.94
433.808	6357.41
434.016	6420.89
434.223	6652.31
434.43	6914.45
434.637	6883.73
434.844	7301.52
435.052	7381.39
435.259	7369.1
435.466	7360.91
435.673	7494.03
435.88	7946.63
436.087	8380.8
436.294	8364.42
436.501	8147.33
436.708	8276.35
436.915	8407.42
437.122	8962.42
437.329	8839.55
437.537	9206.13
437.743	9097.59
437.95	9372.02
438.157	9785.71
438.364	10140.01
438.571	10056.04
438.778	9859.43
438.985	11141.46
439.192	10473.82
439.399	10887.51
439.606	10643.81
439.813	11209.04
440.02	11802.96
440.227	11929.93
440.433	11485.52
440.64	12038.47
440.847	11979.08
441.054	12226.89
441.261	12792.12
441.467	12951.87
441.674	13146.42
441.881	13533.49
442.088	13611.31
442.294	13201.72
442.501	13820.21
442.708	14137.64
442.914	14770.46
443.121	15401.24
443.328	15028.51
443.534	15896.85
443.741	15489.3
443.948	15149.34
444.154	16199.94
444.361	16097.55
444.568	16398.6
444.774	16173.32
444.981	16320.77
445.187	16912.64
445.394	17772.78
445.6	17436.92
445.807	19044.57
446.013	18133.23
446.22	18843.87
446.426	19370.2
446.633	19407.06
446.839	20353.23
447.046	19247.32
447.252	20578.5
447.459	20109.52
447.665	20420.81
447.871	21373.11
448.078	22202.54
448.284	21129.41
448.491	21620.92
448.697	22771.88
448.903	23314.59
449.11	23204
449.316	22700.2
449.522	23193.76
449.728	23933.07
449.935	24266.89
450.141	23785.62
450.347	24543.37
450.553	23814.29
450.76	24074.38
450.966	24807.56
451.172	24424.59
451.378	25364.6
451.584	24995.97
451.791	25395.32
451.997	25284.73
452.203	26024.05
452.409	25981.04
452.615	25696.38
452.821	24690.82
453.027	24500.36
453.233	26089.59
453.44	24924.29
453.646	24793.22
453.852	25165.95
454.058	25165.95
454.264	25034.88
454.47	25573.5
454.676	24692.87
454.882	25647.22
455.088	23195.81
455.294	23969.94
455.5	24500.36
455.705	24756.36
455.911	23400.6
456.117	23122.08
456.323	22636.71
456.529	21528.76
456.735	22810.79
456.941	22069.42
457.147	21688.5
457.352	20914.37
457.558	20904.13
457.764	20842.69
457.97	20512.97
458.176	20213.96
458.381	19996.88
458.587	18931.94
458.793	19056.86
458.999	18313.45
459.204	19321.05
459.41	18817.25
459.616	17404.15
459.821	17563.89
460.027	17424.63
460.233	17125.63
460.438	16507.14
460.644	16691.46
460.85	15982.86
461.055	15477.01
461.261	15532.31
461.466	14410.02
461.672	13779.25
461.878	14999.84
462.083	14068.01
462.289	13674.8
462.494	13461.81
462.7	12853.56
462.905	12626.24
463.111	13097.27
463.316	13232.44
463.522	12759.36
463.727	12687.68
463.932	12755.26
464.138	12788.03
464.343	12685.63
464.549	12468.55
464.754	12691.77
464.959	12609.86
465.165	12550.46
465.37	11970.89
465.575	11757.9
465.781	12196.17
465.986	12292.42
466.191	11780.43
466.397	11639.12
466.602	11055.45
466.807	11471.18
467.012	11469.14
467.218	11192.66
467.423	11200.85
467.628	11372.88
467.833	11764.04
468.038	11405.65
468.244	10869.08
468.449	11411.79
468.654	11061.59
468.859	11006.3
469.064	11026.78
469.269	10381.67
469.474	10539.36
469.679	10969.43
469.885	10428.77
470.09	10770.78
470.295	10647.9
470.5	10113.38
470.705	10475.87
470.91	10084.71
471.115	10195.3
471.32	10183.01
471.525	10051.94
471.73	10029.41
471.935	10053.99
472.139	9466.22
472.344	9783.66
472.549	9693.55
472.754	9380.21
472.959	9275.76
473.164	8972.66
473.369	9093.49
473.574	9281.91
473.778	9197.94
473.983	9224.56
474.188	9052.53
474.393	8763.77
474.598	8700.28
474.802	8681.85
475.007	8661.37
475.212	8644.99
475.417	8384.9
475.621	8479.1
475.826	8272.26
476.031	8294.79
476.235	7995.78
476.44	8239.49
476.645	7999.88
476.849	8120.71
477.054	7995.78
477.259	7750.03
477.463	7797.13
477.668	7510.41
477.872	7831.94
478.077	7365.01
478.282	7403.92
478.486	7459.21
478.691	7401.87
478.895	7371.15
479.1	7209.36
479.304	7250.32
479.509	7078.29
479.713	7246.23
479.918	6834.58
480.122	6914.45
480.326	6975.89
480.531	6967.7
480.735	6924.69
480.94	6781.34
481.144	7061.91
481.348	6750.62
481.553	6848.92
481.757	6465.95
481.961	6732.19
482.166	6859.16
482.37	6721.95
482.574	6691.23
482.778	6816.15
482.983	6676.89
483.187	6617.5
483.391	6603.16
483.595	6506.91
483.8	6707.61
484.004	6623.64
484.208	6730.14
484.412	6547.87
484.616	6556.06
484.821	6590.88
485.025	6599.07
485.229	6762.9
485.433	6637.98
485.637	6695.32
485.841	6603.16
486.045	6568.35
486.249	6672.79
486.453	6537.63
486.657	6601.12
486.861	6631.83
487.065	6363.55
487.269	6810.01
487.473	6498.72
487.677	6656.41
487.881	6711.71
488.085	6705.56
488.289	6560.16
488.493	6943.13
488.697	6881.69
488.901	6793.62
489.105	6693.27
489.309	6793.62
489.512	6707.61
489.716	6719.9
489.92	6670.75
490.124	6646.17
490.328	6803.86
490.531	6660.51
490.735	6840.73
490.939	6916.5
491.143	6865.3
491.346	6750.62
491.55	6863.26
491.754	6820.25
491.958	6920.6
492.161	6926.74
492.365	6963.61
492.569	7078.29
492.772	7117.2
492.976	7111.06
493.18	7125.4
493.383	7037.33
493.587	7242.13
493.79	7356.82
493.994	7184.79
494.197	7416.21
494.401	7438.73
494.605	7233.94
494.808	7483.79
495.012	7506.32
495.215	7557.52
495.419	7590.28
495.622	7453.07
495.825	7602.57
496.029	7635.34
496.232	8026.5
496.436	7969.16
496.639	8016.26
496.843	8063.36
497.046	8341.89
497.249	8192.39
497.453	8407.42
497.656	8452.48
497.859	8438.14
498.063	8599.93
498.266	8612.22
498.469	8724.86
498.673	8995.19
498.876	8843.64
499.079	8847.74
499.282	8956.28
499.485	9240.95
499.689	9068.92
499.892	9218.42
500.095	9300.34
500.298	9568.62
500.501	9560.43
500.705	9787.75
500.908	9777.51
501.111	9841
501.314	10006.89
501.517	10269.03
501.72	10305.89
501.923	10305.89
502.126	10527.07
502.329	10602.85
502.532	10690.91
502.735	10744.16
502.938	11075.93
503.141	11174.23
503.344	11163.99
503.547	11194.71
503.75	11446.61
503.953	11739.47
504.156	11745.61
504.359	11809.1
504.562	11843.92
504.765	12071.24
504.968	12462.4
505.17	12329.28
505.373	12476.74
505.576	12560.7
505.779	12751.17
505.982	12722.49
506.185	12855.61
506.387	13058.36
506.59	13304.12
506.793	13463.86
506.996	13470
507.198	14053.67
507.401	13775.15
507.604	13904.17
507.807	14041.39
508.009	14149.93
508.212	14389.54
508.415	14704.93
508.617	14573.86
508.82	14895.39
509.022	14528.8
509.225	15311.13
509.428	15366.42
509.63	15573.27
509.833	15452.44
510.035	15749.39
510.238	15989
510.44	16056.59
510.643	16400.65
510.845	16541.96
511.048	16437.51
511.25	16584.96
511.453	17039.61
511.655	17760.5
511.858	17264.89
512.06	17213.69
512.262	17481.97
512.465	17654
512.667	17993.97
512.87	17721.59
513.072	18024.68
513.274	18516.2
513.477	18669.8
513.679	18866.4
513.881	19099.87
514.084	19177.69
514.286	18895.07
514.488	19362.01
514.69	19849.43
514.893	19863.76
515.095	19947.73
515.297	20138.19
515.499	20310.22
515.701	20445.38
515.904	20594.89
516.106	20838.59
516.308	21098.69
516.51	21194.94
516.712	21289.15
516.914	21846.19
517.116	22079.66
517.318	21971.12
517.52	22177.97
517.722	22036.66
517.925	22851.75
518.127	22974.63
518.329	22984.87
518.531	23046.3
518.733	23457.95
518.935	23533.72
519.136	23607.45
519.338	23605.4
519.54	23814.29
519.742	24262.8
519.944	24162.45
520.146	24674.44
520.348	24934.53
520.55	25104.51
520.752	25077.89
520.954	25479.29
521.155	25452.67
521.357	25825.4
521.559	25675.9
521.761	26226.8
521.963	26269.81
522.164	26480.75
522.366	26421.36
522.568	26640.49
522.77	26841.19
522.971	27396.19
523.173	27275.36
523.375	27777.11
523.576	27492.44
523.778	27474.01
523.98	28041.3
524.181	28065.88
524.383	28170.32
524.584	28162.13
524.786	28747.85
524.988	28495.95
525.189	28856.39
525.391	28979.27
525.592	29372.48
525.794	29296.7
525.995	29270.08
526.197	29550.65
526.398	29481.02
526.6	29722.68
526.801	29878.33
527.003	29902.9
527.204	29997.11
527.406	30214.19
527.607	30283.83
527.808	30421.04
528.01	30328.88
528.211	30683.18
528.412	31092.77
528.614	30822.44
528.815	30591.02
529.016	31219.75
529.218	30689.32
529.419	31076.39
529.62	30887.98
529.822	30926.89
530.023	31096.87
530.224	30969.9
530.425	31309.86
530.626	31213.6
530.828	30900.26
531.029	31719.45
531.23	31496.22
531.431	31338.53
531.632	31262.75
531.833	31787.03
532.035	31272.99
532.236	31547.42
532.437	31891.48
532.638	31791.13
532.839	31725.6
533.04	31881.24
533.241	31430.69
533.442	31905.82
533.643	31660.06
533.844	31774.75
534.045	31731.74
534.246	31477.79
534.447	32200.72
534.648	31455.26
534.849	31666.2
535.05	32036.89
535.251	31873.05
535.451	32114.71
535.652	31897.63
535.853	32055.32
536.054	31997.98
536.255	31832.09
536.456	31758.36
536.657	32565.26
536.857	31965.21
537.058	31825.95
537.259	32241.68
537.46	31795.23
537.66	31825.95
537.861	32047.13
538.062	31717.4
538.263	31811.61
538.463	32020.5
538.664	31965.21
538.865	32004.12
539.065	32260.12
539.266	31383.59
539.466	32204.82
539.667	31565.85
539.868	32331.79
540.068	32040.98
540.269	31750.17
540.469	32454.67
540.67	31672.35
540.87	31791.13
541.071	31784.99
541.271	31701.02
541.472	31819.8
541.672	31840.28
541.873	31633.44
542.073	31811.61
542.274	32270.36
542.474	31772.7
542.675	31361.06
542.875	32153.62
543.075	31787.03
543.276	31258.66
543.476	32102.42
543.676	31615.01
543.877	31787.03
544.077	31774.75
544.277	31840.28
544.478	31885.34
544.678	31975.45
544.878	31481.89
545.078	31778.84
545.279	31606.81
545.479	31735.84
545.679	31465.5
545.879	31823.9
546.079	31608.86
546.28	31877.15
546.48	31197.22
546.68	31684.64
546.88	31944.73
547.08	31649.82
547.28	31705.12
547.48	31365.15
547.68	31748.12
547.88	31442.98
548.081	31621.15
548.281	31494.18
548.481	31332.39
548.681	31727.64
548.881	31756.32
549.081	31404.06
549.28	31533.09
549.48	31823.9
549.68	31393.82
549.88	32161.81
550.08	31303.71
550.28	31496.22
550.48	31817.75
550.68	31565.85
550.88	31350.82
551.08	31522.85
551.279	31582.24
551.479	31100.97
551.679	31291.43
551.879	31410.21
552.079	31567.9
552.278	31029.29
552.478	31445.02
552.678	31516.7
552.878	31565.85
553.077	31115.3
553.277	31209.51
553.477	31647.77
553.676	31432.74
553.876	31256.61
554.076	31377.44
554.275	30955.56
554.475	30689.32
554.674	31201.32
554.874	31295.52
555.074	31043.62
555.273	31086.63
555.473	31363.11
555.672	30920.74
555.872	30945.32
556.071	30947.37
556.271	31184.93
556.47	31086.63
556.67	30775.34
556.869	30822.44
557.068	31017
557.268	30533.68
557.467	30566.45
557.667	30900.26
557.866	30787.63
558.065	30515.25
558.265	30521.39
558.464	30545.97
558.663	30877.74
558.863	30189.62
559.062	30621.74
559.261	30081.08
559.461	30599.21
559.66	30175.28
559.859	30519.34
560.058	30300.21
560.258	30861.35
560.457	29794.36
560.656	30728.24
560.855	30027.83
561.054	30310.45
561.253	29956.15
561.453	29964.34
561.652	29909.05
561.851	29894.71
562.05	29569.08
562.249	29894.71
562.448	29868.09
562.647	29608
562.846	29499.45
563.045	29685.82
563.244	29438.01
563.443	29689.91
563.642	29442.11
563.841	29278.27
564.04	29454.4
564.239	29235.27
564.438	29270.08
564.637	29294.66
564.836	29247.55
565.035	29005.89
565.234	28817.48
565.432	29018.18
565.631	28690.51
565.83	29036.61
566.029	28594.25
566.228	28776.52
566.427	28872.78
566.625	28768.33
566.824	28340.3
567.023	28758.09
567.222	28221.52
567.42	28541
567.619	28641.35
567.818	28475.47
568.016	28373.07
568.215	28434.51
568.414	27928.66
568.612	28162.13
568.811	28264.53
569.01	27994.2
569.208	27783.26
569.407	27863.13
569.605	27549.79
569.804	27719.77
570.002	27449.44
570.201	27467.87
570.4	27258.98
570.598	27291.74
570.797	27195.49
570.995	27230.3
571.193	27056.23
571.392	27359.33
571.59	26902.63
571.789	27056.23
571.987	26789.99
572.186	26749.03
572.384	26654.83
572.582	26556.52
572.781	26835.05
572.979	26372.21
573.177	26656.87
573.376	26536.04
573.574	26392.69
573.772	26386.54
573.971	26632.3
574.169	26083.44
574.367	25946.23
574.565	26202.22
574.763	25901.17
574.962	25856.12
575.16	25702.52
575.358	26151.02
575.556	25628.79
575.754	26040.43
575.952	25325.69
576.151	25596.03
576.349	25350.27
576.547	25366.65
576.745	25589.88
576.943	25520.25
577.141	25370.75
577.339	25249.92
577.537	25028.74
577.735	25159.81
577.933	24821.89
578.131	24965.25
578.329	24615.05
578.527	24481.93
578.725	24703.11
578.923	24735.88
579.121	24719.49
579.319	24369.29
579.516	24907.91
579.714	24610.95
579.912	24504.46
580.11	24408.2
580.308	24096.91
580.506	24285.33
580.704	24209.55
580.901	24006.8
581.099	24189.07
581.297	23799.96
581.495	24058
581.692	23857.3
581.89	23560.34
582.088	23836.82
582.285	23861.4
582.483	24064.14
582.681	23634.07
582.878	23552.15
583.076	23097.5
583.274	23722.13
583.471	23152.8
583.669	23181.47
583.866	22952.1
584.064	23292.06
584.262	22923.43
584.459	23152.8
584.657	22952.1
584.854	22997.15
585.052	22524.07
585.249	22921.38
585.447	23038.11
585.644	22603.94
585.841	22821.03
586.039	22689.96
586.236	22438.06
586.434	22257.84
586.631	22110.38
586.828	22333.61
587.026	22020.27
587.223	22134.96
587.42	21897.39
587.618	21885.11
587.815	21883.06
588.012	21872.82
588.21	21848.24
588.407	21885.11
588.604	21651.64
588.801	21739.7
588.999	21342.39
589.196	21209.28
589.393	21309.63
589.59	21405.88
589.787	20895.94
589.984	21092.54
590.182	21033.15
590.379	21440.7
590.576	21033.15
590.773	21289.15
590.97	20701.38
591.167	21024.96
591.364	20965.57
591.561	20791.49
591.758	20570.31
591.955	20703.43
592.152	20619.46
592.349	20365.51
592.546	20392.14
592.743	20402.38
592.94	20023.5
593.137	20402.38
593.334	20488.39
593.531	19890.38
593.727	20285.64
593.924	19974.35
594.121	19843.28
594.318	20097.23
594.515	19591.38
594.712	20117.71
594.908	19753.17
595.105	19816.66
595.302	19269.85
595.499	19536.09
595.696	19734.74
595.892	19429.59
596.089	19583.19
596.286	19435.74
596.482	19298.52
596.679	19343.58
596.876	19407.06
597.072	19212.51
597.269	19161.31
597.466	19050.72
597.662	19073.24
597.859	18825.44
598.055	18993.37
598.252	18563.3
598.448	18725.09
598.645	18839.78
598.841	18505.96
599.038	18555.11
599.234	18626.79
599.431	18352.36
599.627	18262.25
599.824	18127.08
600.02	18106.6
600.217	18321.64
600.413	18299.11
600.609	18133.23
600.806	18055.4
601.002	18112.75
601.198	18145.52
601.395	18084.08
601.591	17672.43
601.787	17797.36
601.984	17830.13
602.18	17905.9
602.376	17725.68
602.572	17524.98
602.769	17465.59
602.965	17330.42
603.161	17441.01
603.357	17400.05
603.553	17254.65
603.75	17268.98
603.946	16996.6
604.142	17225.98
604.338	16840.96
604.534	17051.9
604.73	16699.65
604.926	16730.37
605.122	16937.21
605.318	16777.47
605.514	16802.05
605.71	16726.27
605.906	16883.97
606.102	16660.74
606.298	16658.69
606.494	16677.12
606.69	16652.55
606.886	16609.54
607.082	16515.33
607.278	16535.81
607.474	16378.12
607.67	16427.27
607.866	16101.64
608.062	16195.85
608.257	15972.62
608.453	16152.84
608.649	16183.56
608.845	16111.88
609.041	16062.73
609.236	16009.48
609.432	16097.55
609.628	15898.89
609.824	15706.38
610.019	15935.76
610.215	15724.82
610.411	15814.93
610.606	15698.19
610.802	15773.97
610.998	15499.54
611.193	15810.83
611.389	15638.8
611.584	15616.27
611.78	15540.5
611.976	15626.51
612.171	15448.34
612.367	15405.33
612.562	15442.2
612.758	15255.83
612.953	15251.74
613.149	15626.51
613.344	15143.19
613.539	15356.18
613.735	15454.48
613.93	15407.38
614.126	15104.28
614.321	15249.69
614.517	15122.71
614.712	14922.01
614.907	15102.23
615.103	14919.96
615.298	15073.56
615.493	15167.77
615.688	14975.26
615.884	15100.19
616.079	14819.61
616.274	14840.09
616.47	14833.95
616.665	14811.42
616.86	14659.87
617.055	14592.29
617.25	14686.5
617.445	14819.61
617.641	14555.43
617.836	14561.57
618.031	14557.47
618.226	14330.15
618.421	14450.98
618.616	14493.99
618.811	14231.85
619.006	14684.45
619.201	14086.44
619.396	14250.28
619.591	13934.89
619.786	14199.08
619.981	13949.23
620.176	14131.5
620.371	13887.79
620.566	13824.3
620.761	13670.7
620.956	13893.93
621.151	13508.91
621.346	13427
621.541	13318.45
621.735	13601.07
621.93	13246.77
622.125	13381.94
622.32	13254.97
622.515	13402.42
622.709	13304.12
622.904	12949.82
623.099	12863.8
623.294	13013.31
623.488	12755.26
623.683	12816.7
623.878	12511.55
624.072	12691.77
624.267	12534.08
624.462	12777.79
624.656	12405.06
624.851	12570.94
625.046	12345.67
625.24	12372.29
625.435	12099.91
625.629	12050.76
625.824	11948.36
626.018	12046.66
626.213	11702.61
626.407	11870.54
626.602	11766.09
626.796	11907.4
626.991	11430.23
627.185	11727.18
627.38	11544.91
627.574	11598.16
627.768	11391.31
627.963	11313.49
628.157	11403.6
628.352	11364.69
628.546	11282.77
628.74	11010.39
628.935	11112.79
629.129	11211.09
629.323	11018.58
629.517	10856.79
629.712	10764.64
629.906	10819.93
630.1	10592.61
630.294	10699.1
630.489	10561.89
630.683	10545.5
630.877	10355.04
631.071	10291.55
631.265	10322.27
631.459	10387.81
631.653	10309.99
631.848	10324.32
632.042	10090.85
632.236	10348.9
632.43	10088.81
632.624	9965.93
632.818	9820.52
633.012	9775.47
633.206	9791.85
633.4	9754.99
633.594	9646.44
633.788	9595.25
633.982	9691.5
634.176	9654.64
634.369	9519.47
634.563	9439.6
634.757	9281.91
634.951	9419.12
635.145	9308.53
635.339	9318.77
635.533	9359.73
635.726	9288.05
635.92	9193.84
636.114	8894.84
636.308	9224.56
636.501	9259.38
636.695	9062.77
636.889	8950.14
637.083	8757.63
637.276	8939.9
637.47	8728.95
637.664	8720.76
637.857	8692.09
638.051	8632.7
638.244	8542.59
638.438	8669.56
638.632	8438.14
638.825	8315.27
639.019	8415.62
639.212	8475.01
639.406	8354.18
639.599	8165.76
639.793	8233.35
639.986	8223.11
640.18	8083.84
640.373	8049.03
640.567	8032.65
640.76	8014.21
640.954	8026.5
641.147	7833.99
641.34	7825.8
641.534	7844.23
641.727	7856.52
641.92	7752.07
642.114	7745.93
642.307	7735.69
642.5	7612.81
642.694	7539.08
642.887	7479.69
643.08	7707.02
643.273	7504.27
643.467	7629.2
643.66	7377.3
643.853	7496.08
644.046	7393.68
644.239	7305.62
644.432	7405.97
644.626	7135.64
644.819	7029.14
645.012	7225.75
645.205	7137.68
645.398	7233.94
645.591	7023
645.784	6844.82
645.977	6873.5
646.17	6955.41
646.363	6910.36
646.556	6664.6
646.749	6900.12
646.942	6623.64
647.135	6711.71
647.328	6668.7
647.521	6701.47
647.714	6558.11
647.907	6496.67
648.099	6330.78
648.292	6590.88
648.485	6310.3
648.678	6390.17
648.871	6285.73
649.064	6316.45
649.256	6295.97
649.449	6246.82
649.642	6257.06
649.835	6166.95
650.027	6078.88
650.22	6089.12
650.413	6111.65
650.605	6119.84
650.798	6144.42
650.991	5779.88
651.183	5992.87
651.376	6021.54
651.568	5931.43
651.761	5915.05
651.954	5886.37
652.146	5943.72
652.339	5820.84
652.531	5956.01
652.724	5732.78
652.916	5697.96
653.109	5640.62
653.301	5628.33
653.494	5700.01
653.686	5671.34
653.879	5521.84
654.071	5654.95
654.263	5573.03
654.456	5435.82
654.648	5499.31
654.84	5450.16
655.033	5304.75
655.225	5358
655.417	5005.75
655.61	5415.34
655.802	5167.54
655.994	5220.78
656.186	5276.08
656.379	5284.27
656.571	5147.06
656.763	4997.56
656.955	5110.19
657.148	5097.91
657.34	5022.13
657.532	4960.69
657.724	4956.6
657.916	5071.28
658.108	4997.56
658.3	4915.64
658.492	4862.39
658.684	4874.68
658.876	4747.7
659.068	4743.61
659.26	4786.61
659.452	4653.5
659.644	4653.5
659.836	4641.21
660.028	4592.06
660.22	4663.74
660.412	4659.64
660.604	4477.37
660.796	4499.9
660.988	4465.08
661.18	4616.63
661.372	4426.17
661.563	4442.56
661.755	4456.89
661.947	4442.56
662.139	4428.22
662.331	4432.32
662.522	4534.71
662.714	4340.16
662.906	4180.42
663.097	4301.25
663.289	4229.57
663.481	4219.33
663.673	4260.29
663.864	4088.26
664.056	4118.98
664.247	4090.31
664.439	4100.55
664.631	4245.95
664.822	4047.3
665.014	4047.3
665.205	4149.7
665.397	4053.44
665.588	4071.87
665.78	3887.56
665.971	3903.94
666.163	3883.46
666.354	3850.69
666.546	3953.09
666.737	3811.78
666.929	3953.09
667.12	3860.93
667.311	3795.4
667.503	3711.43
667.694	3770.82
667.885	3817.93
668.077	3514.83
668.268	3760.58
668.459	3813.83
668.651	3785.16
668.842	3639.75
669.033	3697.1
669.224	3498.44
669.416	3643.85
669.607	3568.07
669.798	3580.36
669.989	3576.27
670.18	3555.79
670.371	3606.98
670.563	3639.75
670.754	3621.32
670.945	3346.89
671.136	3422.67
671.327	3420.62
671.518	3586.51
671.709	3574.22
671.9	3416.52
672.091	3443.15
672.282	3301.84
672.473	3367.37
672.664	3424.72
672.855	3289.55
673.046	3379.66
673.237	3363.28
673.428	3289.55
673.619	3307.98
673.809	3273.17
674	3310.03
674.191	3166.67
674.382	3199.44
674.573	3236.3
674.764	3256.78
674.954	3203.54
675.145	3058.13
675.336	3252.69
675.527	3138
675.717	3181.01
675.908	3187.15
676.099	3105.23
676.289	3115.47
676.48	3000.79
676.671	3031.51
676.861	3037.65
677.052	3101.14
677.243	3097.04
677.433	3043.79
677.624	2906.58
677.814	3025.36
678.005	2984.4
678.195	2904.53
678.386	2976.21
678.576	2986.45
678.767	2875.86
678.957	2853.33
679.148	2920.92
679.338	2877.91
679.529	2918.87
679.719	2834.9
679.909	2957.78
680.1	3037.65
680.29	2888.15
680.481	2861.52
680.671	2875.86
680.861	2763.22
681.052	2873.81
681.242	2877.91
681.432	2976.21
681.622	2875.86
681.813	2836.95
682.003	2761.17
682.193	2779.61
682.383	2828.76
682.573	2736.6
682.764	2720.21
682.954	2771.41
683.144	2695.64
683.334	2714.07
683.524	2793.94
683.714	2777.56
683.904	2755.03
684.094	2738.65
684.284	2662.87
684.474	2791.89
684.664	2771.41
684.854	2671.06
685.044	2632.15
685.234	2646.49
685.424	2669.02
685.614	2705.88
685.804	2720.21
685.994	2671.06
686.184	2566.62
686.374	2656.73
686.564	2693.59
686.753	2689.49
686.943	2574.81
687.133	2677.21
687.323	2531.8
687.513	2525.66
687.702	2591.19
687.892	2607.58
688.082	2642.39
688.272	2587.1
688.461	2480.6
688.651	2558.42
688.841	2507.23
689.03	2537.95
689.22	2443.74
689.41	2451.93
689.599	2429.4
689.789	2363.87
689.979	2544.09
690.168	2302.43
690.358	2384.35
690.547	2400.73
690.737	2435.55
690.926	2449.88
691.116	2402.78
691.305	2380.25
691.495	2294.24
691.684	2286.05
691.874	2320.86
692.063	2247.13
692.252	2331.1
692.442	2359.77
692.631	2304.48
692.82	2173.41
693.01	2212.32
693.199	2286.05
693.388	2154.98
693.578	2187.74
693.767	2286.05
693.956	2195.93
694.146	2290.14
694.335	2202.08
694.524	2167.26
694.713	2111.97
694.902	2210.27
695.092	2212.32
695.281	2089.44
695.47	2122.21
695.659	2214.37
695.848	2150.88
696.037	2048.48
696.226	2062.82
696.415	2220.51
696.604	2091.49
696.793	2097.63
696.982	2058.72
697.171	2220.51
697.36	2021.86
697.549	2157.02
697.738	1933.79
697.927	1989.09
698.116	1982.95
698.305	2152.93
698.494	2050.53
698.683	2066.91
698.872	2050.53
699.061	2140.64
699.25	1976.8
699.438	2073.06
699.627	1913.31
699.816	2130.4
700.005	1915.36
700.193	1991.14
700.382	1927.65
700.571	2089.44
700.76	2023.91
700.948	1946.08
701.137	2023.91
701.326	1984.99
701.514	1880.55
701.703	2056.67
701.892	2001.38
702.08	2099.68
702.269	2015.71
702.457	1927.65
702.646	2040.29
702.834	2021.86
703.023	1972.71
703.212	2025.95
703.4	2085.34
703.589	1950.18
703.777	1948.13
703.965	1905.12
704.154	2001.38
704.342	1950.18
704.531	1851.88
704.719	1946.08
704.907	1999.33
705.096	1868.26
705.284	1952.23
705.472	1901.03
705.661	1892.84
705.849	2007.52
706.037	2011.62
706.226	1917.41
706.414	1911.27
706.602	1862.12
706.79	1972.71
706.979	1946.08
707.167	1958.37
707.355	1925.6
707.543	1812.96
707.731	1960.42
707.919	1839.59
708.107	1962.47
708.296	1933.79
708.484	1892.84
708.672	1849.83
708.86	1921.51
709.048	1894.88
709.236	1937.89
709.424	1984.99
709.612	1925.6
709.8	1802.72
709.988	1927.65
710.176	1952.23
710.364	1894.88
710.551	1903.07
710.739	1892.84
710.927	1890.79
711.115	1978.85
711.303	1921.51
711.491	1917.41
711.679	1872.36
711.866	1851.88
712.054	1868.26
712.242	1870.31
712.43	1950.18
712.617	1989.09
712.805	1851.88
712.993	1944.03
713.181	1825.25
713.368	1827.3
713.556	1952.23
713.744	1907.17
713.931	1954.27
714.119	1823.2
714.306	1929.7
714.494	1886.69
714.682	1919.46
714.869	1845.73
715.057	1909.22
715.244	1790.44
715.432	1860.07
715.619	1862.12
715.807	1952.23
715.994	1847.78
716.182	1958.37
716.369	1941.99
716.556	1909.22
716.744	1794.53
716.931	1868.26
717.119	1991.14
717.306	1823.2
717.493	1911.27
717.681	1923.55
717.868	1860.07
718.055	1872.36
718.242	1884.64
718.43	1841.64
718.617	1884.64
718.804	1925.6
718.991	1810.92
719.179	1864.16
719.366	1800.68
719.553	1937.89
719.74	1894.88
719.927	1933.79
720.114	1853.92
720.301	1847.78
720.488	1831.4
720.676	1860.07
720.863	1927.65
721.05	1823.2
721.237	1911.27
721.424	1886.69
721.611	1823.2
721.798	1796.58
721.985	1880.55
722.172	1755.62
722.358	1878.5
722.545	1831.4
722.732	1851.88
722.919	1874.4
723.106	1823.2
723.293	1837.54
723.48	1847.78
723.667	1825.25
723.853	1882.6
724.04	1829.35
724.227	1778.15
724.414	1853.92
724.6	1884.64
724.787	1858.02
724.974	1851.88
725.161	1905.12
725.347	1792.48
725.534	1868.26
725.72	1810.92
725.907	1817.06
726.094	1792.48
726.28	1761.77
726.467	1841.64
726.653	1786.34
726.84	1790.44
727.027	1927.65
727.213	1708.52
727.4	1851.88
727.586	1872.36
727.773	1739.24
727.959	1884.64
728.145	1716.71
728.332	1862.12
728.518	1696.23
728.705	1821.16
728.891	1706.47
729.077	1858.02
729.264	1876.45
729.45	1876.45
729.636	1851.88
729.823	1821.16
730.009	1806.82
730.195	1876.45
730.382	1946.08
730.568	1843.68
730.754	1864.16
730.94	1761.77
731.126	1874.4
731.313	1946.08
731.499	1819.11
731.685	1761.77
731.871	1892.84
732.057	1868.26
732.243	1810.92
732.429	1825.25
732.615	1757.67
732.801	1888.74
732.987	1810.92
733.173	1821.16
733.359	1860.07
733.545	1812.96
733.731	1876.45
733.917	1876.45
734.103	1810.92
734.289	1835.49
734.475	1835.49
734.661	1939.94
734.847	1786.34
735.033	1847.78
735.219	1821.16
735.404	1802.72
735.59	1698.28
735.776	1761.77
735.962	1761.77
736.148	1729
736.333	1743.33
736.519	1741.29
736.705	1757.67
736.89	1753.57
737.076	1845.73
737.262	1673.7
737.447	1786.34
737.633	1747.43
737.819	1729
738.004	1806.82
738.19	1851.88
738.375	1563.11
738.561	1790.44
738.747	1898.98
738.932	1683.94
739.118	1716.71
739.303	1677.8
739.489	1722.85
739.674	1647.08
739.859	1708.52
740.045	1796.58
740.23	1755.62
740.416	1692.13
740.601	1692.13
740.786	1665.51
740.972	1599.98
741.157	1647.08
741.342	1681.89
741.528	1673.7
741.713	1677.8
741.898	1642.98
742.084	1636.84
742.269	1606.12
742.454	1698.28
742.639	1626.6
742.824	1610.22
743.01	1597.93
743.195	1673.7
743.38	1610.22
743.565	1573.35
743.75	1468.91
743.935	1606.12
744.12	1624.55
744.305	1608.17
744.49	1507.82
744.675	1548.78
744.86	1442.28
745.045	1540.58
745.23	1518.06
745.415	1575.4
745.6	1567.21
745.785	1483.24
745.97	1544.68
746.155	1526.25
746.34	1563.11
746.525	1491.43
746.71	1378.79
746.895	1432.04
747.079	1436.14
747.264	1485.29
747.449	1454.57
747.634	1511.91
747.819	1464.81
748.003	1405.42
748.188	1378.79
748.373	1364.46
748.557	1438.19
748.742	1384.94
748.927	1436.14
749.111	1352.17
749.296	1298.92
749.481	1454.57
749.665	1366.51
749.85	1174
750.034	1346.03
750.219	1354.22
750.404	1360.36
750.588	1274.35
750.773	1321.45
750.957	1309.16
751.141	1282.54
751.326	1372.65
751.51	1270.25
751.695	1307.12
751.879	1298.92
752.064	1311.21
752.248	1384.94
752.432	1274.35
752.617	1323.5
752.801	1253.87
752.985	1235.44
753.17	1311.21
753.354	1245.68
753.538	1229.29
753.722	1192.43
753.907	1237.49
754.091	1268.2
754.275	1243.63
754.459	1090.03
754.643	1137.13
754.828	1165.81
755.012	1165.81
755.196	1118.7
755.38	1139.18
755.564	1130.99
755.748	1102.32
755.932	1059.31
756.116	1020.4
756.3	1047.02
756.484	1036.78
756.668	1059.31
756.852	1108.46
757.036	993.78
757.22	995.82
757.404	1114.61
757.588	997.87
757.772	926.19
757.956	969.2
758.14	1008.11
758.323	930.29
758.507	1051.12
758.691	1040.88
758.875	950.77
759.059	1001.97
759.242	1001.97
759.426	975.35
759.61	881.14
759.794	961.01
759.977	942.58
760.161	1094.13
760.345	920.05
760.528	950.77
760.712	926.19
760.895	926.19
761.079	975.35
761.263	961.01
761.446	899.57
761.63	967.15
761.813	946.67
761.997	879.09
762.18	850.42
762.364	946.67
762.547	856.56
762.731	885.23
762.914	897.52
763.098	868.85
763.281	887.28
763.464	868.85
763.648	846.32
763.831	836.08
764.015	821.75
764.198	795.12
764.381	860.66
764.564	848.37
764.748	741.88
764.931	862.71
765.114	807.41
765.297	827.89
765.481	850.42
765.664	838.13
765.847	778.74
766.03	885.23
766.213	844.28
766.397	829.94
766.58	766.45
766.763	836.08
766.946	854.51
767.129	827.89
767.312	731.64
767.495	778.74
767.678	739.83
767.861	766.45
768.044	758.26
768.227	762.36
768.41	731.64
768.593	682.49
768.776	778.74
768.959	737.78
769.142	729.59
769.324	778.74
769.507	692.73
769.69	731.64
769.873	729.59
770.056	870.9
770.239	729.59
770.421	827.89
770.604	829.94
770.787	725.49
770.97	649.72
771.152	649.72
771.335	666.1
771.518	696.82
771.7	752.12
771.883	766.45
772.066	748.02
772.248	641.53
772.431	696.82
772.613	655.86
772.796	698.87
772.978	647.67
773.161	659.96
773.343	653.81
773.526	715.25
773.708	690.68
773.891	629.24
774.073	657.91
774.256	668.15
774.438	727.54
774.621	641.53
774.803	629.24
774.985	573.94
775.168	637.43
775.35	655.86
775.532	657.91
775.715	729.59
775.897	584.18
776.079	571.9
776.261	592.37
776.444	602.61
776.626	565.75
776.808	584.18
776.99	629.24
777.173	621.05
777.355	545.27
777.537	578.04
777.719	633.33
777.901	561.66
778.083	526.84
778.265	516.6
778.447	584.18
778.629	481.78
778.811	590.33
778.993	606.71
779.175	567.8
779.357	526.84
779.539	494.07
779.721	483.83
779.903	551.42
780.085	479.74
780.267	551.42
780.449	494.07
780.631	500.22
780.812	547.32
780.994	475.64
781.176	453.11
781.358	532.98
781.54	500.22
781.721	481.78
781.903	502.26
782.085	492.02
782.267	453.11
782.448	389.63
782.63	393.72
782.812	406.01
782.993	424.44
783.175	403.96
783.357	444.92
783.538	483.83
783.72	442.87
783.901	416.25
784.083	475.64
784.264	444.92
784.446	412.15
784.627	369.15
784.809	414.2
784.99	467.45
785.172	393.72
785.353	483.83
785.535	328.19
785.716	377.34
785.897	440.83
786.079	467.45
786.26	365.05
786.441	467.45
786.623	360.95
786.804	328.19
786.985	428.54
787.167	320
787.348	340.47
787.529	418.3
787.71	428.54
787.891	377.34
788.073	354.81
788.254	287.23
788.435	381.43
788.616	330.23
788.797	317.95
788.978	320
789.159	326.14
789.34	363
789.522	338.43
789.703	328.19
789.884	352.76
790.065	350.71
790.246	336.38
790.427	326.14
790.607	264.7
790.788	315.9
790.969	377.34
791.15	315.9
791.331	260.6
791.512	363
791.693	297.47
791.874	262.65
792.054	287.23
792.235	256.51
792.416	305.66
792.597	270.84
792.778	272.89
792.958	311.8
793.139	322.04
793.32	307.71
793.5	281.08
793.681	301.56
793.862	250.36
794.042	297.47
794.223	180.73
794.404	262.65
794.584	215.55
794.765	287.23
794.945	229.88
795.126	315.9
795.306	344.57
795.487	215.55
795.667	266.75
795.848	225.79
796.028	250.36
796.209	264.7
796.389	289.28
796.57	184.83
796.75	274.94
796.93	246.27
797.111	158.21
797.291	158.21
797.471	309.76
797.652	266.75
797.832	295.42
798.012	274.94
798.192	137.73
798.373	182.78
798.553	281.08
798.733	197.12
798.913	184.83
799.093	223.74
799.274	152.06
799.454	223.74
799.634	262.65
799.814	193.02
799.994	240.12
800.174	201.21
800.354	272.89
800.534	156.16
800.714	240.12
800.894	168.45
801.074	225.79
801.254	172.54
801.434	229.88
801.614	217.6
801.794	139.77
801.974	754.16
802.154	199.16
802.334	180.73
802.514	262.65
802.693	180.73
802.873	186.88
803.053	236.03
803.233	223.74
803.413	199.16
803.592	168.45
803.772	168.45
803.952	174.59
804.131	231.93
804.311	168.45
804.491	258.56
804.67	188.93
804.85	188.93
805.03	172.54
805.209	242.17
805.389	145.92
805.568	121.34
805.748	221.69
805.928	188.93
806.107	127.49
806.287	104.96
806.466	184.83
806.646	139.77
806.825	141.82
807.004	135.68
807.184	172.54
807.363	188.93
807.543	147.97
807.722	150.01
807.901	121.34
808.081	238.08
808.26	135.68
808.439	188.93
808.619	180.73
808.798	168.45
808.977	197.12
809.156	225.79
809.336	193.02
809.515	135.68
809.694	49.66
809.873	139.77
810.052	135.68
810.231	197.12
810.411	117.25
810.59	141.82
810.769	107.01
810.948	188.93
811.127	164.35
811.306	100.86
811.485	82.43
811.664	205.31
811.843	94.72
812.022	107.01
812.201	84.48
812.38	98.81
812.559	164.35
812.737	147.97
812.916	111.1
813.095	125.44
813.274	166.4
813.453	111.1
813.632	100.86
813.811	147.97
813.989	-7.68
814.168	117.25
814.347	66.05
814.526	154.11
814.704	174.59
814.883	107.01
815.062	131.58
815.24	104.96
815.419	41.47
815.598	150.01
815.776	111.1
815.955	129.53
816.133	61.95
816.312	94.72
816.49	154.11
816.669	113.15
816.847	125.44
817.026	139.77
817.204	76.29
817.383	117.25
817.561	43.52
817.74	131.58
817.918	111.1
818.097	74.24
818.275	133.63
818.453	129.53
818.632	57.86
818.81	90.62
818.988	90.62
819.167	35.33
819.345	51.71
819.523	80.38
819.701	115.2
819.879	127.49
820.058	18.94
820.236	74.24
820.414	119.29
820.592	-3.58
820.77	141.82
820.948	156.16
821.127	90.62
821.305	104.96
821.483	109.05
821.661	123.39
821.839	49.66
822.017	90.62
822.195	66.05
822.373	109.05
822.551	59.9
822.729	150.01
822.907	131.58
823.085	74.24
823.262	129.53
823.44	117.25
823.618	49.66
823.796	51.71
823.974	111.1
824.152	57.86
824.329	96.77
824.507	51.71
824.685	102.91
824.863	145.92
825.04	47.62
825.218	61.95
825.396	74.24
825.574	90.62
825.751	57.86
825.929	131.58
826.107	76.29
826.284	76.29
826.462	127.49
826.639	92.67
826.817	66.05
826.994	145.92
827.172	51.71
827.349	102.91
827.527	57.86
827.704	86.53
827.882	115.2
828.059	164.35
828.237	109.05
828.414	98.81
828.591	-58.88
828.769	82.43
828.946	47.62
829.124	59.9
829.301	164.35
829.478	53.76
829.655	-1.54
829.833	49.66
830.01	104.96
830.187	57.86
830.364	123.39
830.542	27.14
830.719	123.39
830.896	45.57
831.073	90.62
831.25	64
831.427	66.05
831.604	33.28
831.782	47.62
831.959	133.63
832.136	66.05
832.313	76.29
832.49	98.81
832.667	94.72
832.844	39.42
833.021	98.81
833.198	16.9
833.374	16.9
833.551	43.52
833.728	111.1
833.905	45.57
834.082	10.75
834.259	57.86
834.436	80.38
834.612	-13.82
834.789	133.63
834.966	4.61
835.143	37.38
835.319	18.94
835.496	-7.68
835.673	96.77
835.85	35.33
836.026	33.28
836.203	12.8
836.38	18.94
836.556	61.95
836.733	57.86
836.909	45.57
837.086	29.18
837.262	49.66
837.439	92.67
837.616	16.9
837.792	68.09
837.968	82.43
838.145	23.04
838.321	12.8
838.498	66.05
838.674	23.04
838.851	49.66
839.027	102.91
839.203	41.47
839.38	55.81
839.556	25.09
839.732	18.94
839.909	25.09
840.085	133.63
840.261	-3.58
840.437	-7.68
840.614	29.18
840.79	129.53
840.966	86.53
841.142	90.62
841.318	25.09
841.494	35.33
841.671	76.29
841.847	27.14
842.023	45.57
842.199	33.28
842.375	133.63
842.551	14.85
842.727	-7.68
842.903	84.48
843.079	84.48
843.255	8.7
843.431	35.33
843.607	59.9
843.783	-110.08
843.959	41.47
844.134	59.9
844.31	51.71
844.486	20.99
844.662	8.7
844.838	4.61
845.013	90.62
845.189	107.01
845.365	10.75
845.541	14.85
845.716	70.14
845.892	53.76
846.068	8.7
846.244	-48.64
846.419	156.16
846.595	102.91
846.77	-7.68
846.946	84.48
847.122	27.14
847.297	-42.5
847.473	61.95
847.648	-3.58
847.824	37.38
847.999	64
848.175	29.18
848.35	33.28
848.526	49.66
848.701	66.05
848.876	133.63
849.052	33.28
849.227	-15.87
849.403	72.19
849.578	98.81
849.753	53.76
849.929	-3.58
850.104	-28.16
850.279	33.28
850.454	119.29
850.63	125.44
850.805	16.9
850.98	66.05
851.155	-9.73
851.33	41.47
851.505	-11.78
851.681	72.19
851.856	-24.06
852.031	82.43
852.206	55.81
852.381	25.09
852.556	-13.82
852.731	70.14
852.906	33.28
853.081	78.33
853.256	-36.35
853.431	43.52
853.606	8.7
853.781	70.14
853.956	82.43
854.131	53.76
854.305	92.67
854.48	61.95
854.655	25.09
854.83	61.95
855.005	14.85
855.18	-52.74
855.354	57.86
855.529	61.95
855.704	25.09
855.879	25.09
856.053	-44.54
856.228	8.7
856.403	-24.06
856.577	41.47
856.752	27.14
856.926	29.18
857.101	16.9
857.276	-38.4
857.45	-19.97
857.625	66.05
857.799	-24.06
857.974	0.51
858.148	-44.54
858.323	-24.06
858.497	49.66
858.672	0.51
858.846	-36.35
859.02	4.61
859.195	-32.26
859.369	49.66
859.543	25.09
859.718	82.43
859.892	41.47
860.066	4.61
860.241	0.51
860.415	-71.17
860.589	49.66
860.763	66.05
860.938	-30.21
861.112	8.7
861.286	-32.26
861.46	2.56
861.634	-36.35
861.808	78.33
861.982	10.75
862.157	-5.63
862.331	0.51
862.505	-40.45
862.679	-46.59
862.853	25.09
863.027	-54.78
863.201	4.61
863.375	-48.64
863.549	4.61
863.722	-17.92
863.896	-52.74
864.07	43.52
864.244	45.57
864.418	61.95
864.592	16.9
864.766	-5.63
864.939	98.81
865.113	18.94
865.287	43.52
865.461	33.28
865.634	-5.63
865.808	70.14
865.982	-69.12
866.156	29.18
866.329	64
866.503	-15.87
866.676	35.33
866.85	29.18
867.024	49.66
867.197	10.75
867.371	-44.54
867.544	16.9
867.718	2.56
867.891	27.14
868.065	111.1
868.238	-32.26
868.412	29.18
868.585	16.9
868.759	-28.16
868.932	-22.02
869.105	16.9
869.279	10.75
869.452	-24.06
869.625	10.75
869.799	-26.11
869.972	-85.5
870.145	43.52
870.319	16.9
870.492	10.75
870.665	-38.4
870.838	2.56
871.011	-85.5
871.185	55.81
871.358	33.28
871.531	-28.16
871.704	-54.78
871.877	-46.59
872.05	41.47
872.223	2.56
872.396	72.19
872.569	-5.63
872.742	-54.78
872.915	35.33
873.088	-11.78
873.261	-13.82
873.434	25.09
873.607	6.66
873.78	49.66
873.953	35.33
874.126	-32.26
874.299	43.52
874.471	47.62
874.644	-28.16
874.817	33.28
874.99	74.24
875.163	-26.11
875.335	61.95
875.508	25.09
875.681	37.38
875.853	2.56
876.026	-34.3
876.199	18.94
876.371	-3.58
876.544	-15.87
876.717	25.09
876.889	-40.45
877.062	-28.16
877.234	-24.06
877.407	41.47
877.579	66.05
877.752	47.62
877.924	16.9
878.097	66.05
878.269	10.75
878.442	45.57
878.614	-110.08
878.786	117.25
878.959	-24.06
879.131	-5.63
879.303	-54.78
879.476	-5.63
879.648	45.57
879.82	33.28
879.993	29.18
880.165	-81.41
880.337	-11.78
880.509	59.9
880.681	16.9
880.854	-7.68
881.026	14.85
881.198	82.43
881.37	12.8
881.542	66.05
881.714	-62.98
881.886	-11.78
882.058	61.95
882.23	39.42
882.402	-17.92
882.574	76.29
882.746	-69.12
882.918	29.18
883.09	0.51
883.262	-11.78
883.434	10.75
883.606	-32.26
883.778	8.7
883.95	86.53
884.122	-62.98
884.293	10.75
884.465	16.9
884.637	92.67
884.809	-5.63
884.98	37.38
885.152	-7.68
885.324	-5.63
885.496	-73.21
885.667	23.04
885.839	14.85
886.011	33.28
886.182	-24.06
886.354	23.04
886.525	-46.59
886.697	23.04
886.869	-19.97
887.04	-34.3
887.212	-52.74
887.383	80.38
887.555	-40.45
887.726	-38.4
887.897	18.94
888.069	0.51
888.24	-40.45
888.412	-3.58
888.583	-11.78
888.754	-48.64
888.926	-24.06
889.097	27.14
889.268	-13.82
889.44	-22.02
889.611	16.9
889.782	49.66
889.953	-52.74
890.125	41.47
890.296	-65.02
890.467	-48.64
890.638	-40.45
890.809	16.9
890.98	-44.54
891.151	-11.78
891.323	35.33
891.494	98.81
891.665	-19.97
891.836	-56.83
892.007	-15.87
892.178	76.29
892.349	35.33
892.52	0.51
892.691	-44.54
892.862	-48.64
893.032	-105.98
893.203	4.61
893.374	8.7
893.545	59.9
893.716	25.09
893.887	10.75
894.057	-48.64
894.228	-40.45
894.399	-15.87
894.57	72.19
894.74	4.61
894.911	-48.64
895.082	-122.37
895.253	-40.45
895.423	-15.87
895.594	14.85
895.764	59.9
895.935	-24.06
896.106	-22.02
896.276	-40.45
896.447	43.52
896.617	-22.02
896.788	-7.68
896.958	20.99
897.129	-11.78
897.299	-34.3
897.47	61.95
897.64	29.18
897.81	-22.02
897.981	43.52
898.151	-32.26
898.322	23.04
898.492	-36.35
898.662	-48.64
898.832	-36.35
899.003	55.81
899.173	-19.97
899.343	31.23
899.513	-85.5
