Data from USB4F104151__138__14-44-08-706.txt Node

Date: Thu Mar 13 14:44:08 EDT 2025
User: louis
Spectrometer: USB4F10415
Trigger mode: 4
Integration Time (sec): 2.000000E-2
Scans to average: 1
Electric dark correction enabled: true
Nonlinearity correction enabled: false
Boxcar width: 0
XAxis mode: Wavelengths
Number of Pixels in Spectrum: 3648
>>>>>Begin Spectral Data<<<<<
178.204	-124.76
178.424	-124.76
178.644	-124.76
178.864	-120.66
179.084	-96.08
179.304	-38.74
179.524	-3.93
179.744	18.6
179.964	59.56
180.184	55.47
180.404	-16.21
180.624	-1.88
180.844	-5.97
181.064	14.51
181.283	4.27
181.503	-55.12
181.723	-30.55
181.943	-28.5
182.163	49.32
182.383	12.46
182.602	-36.69
182.822	75.95
183.042	67.75
183.262	-8.02
183.482	-3.93
183.701	14.51
183.921	-12.12
184.141	-22.36
184.361	61.61
184.58	-22.36
184.8	2.22
185.02	45.23
185.239	4.27
185.459	-1.88
185.679	20.65
185.898	2.22
186.118	77.99
186.338	-3.93
186.557	41.13
186.777	-38.74
186.997	26.79
187.216	-61.27
187.436	75.95
187.655	2.22
187.875	10.41
188.095	-18.26
188.314	67.75
188.534	67.75
188.753	80.04
188.973	6.31
189.192	8.36
189.412	65.71
189.631	10.41
189.851	43.18
190.07	4.27
190.29	-18.26
190.509	-42.84
190.729	59.56
190.948	55.47
191.168	137.38
191.387	14.51
191.607	-26.45
191.826	26.79
192.045	-30.55
192.265	14.51
192.484	69.8
192.704	77.99
192.923	-20.31
193.142	133.29
193.362	37.03
193.581	61.61
193.8	2.22
194.02	-3.93
194.239	-10.07
194.458	-30.55
194.678	34.99
194.897	4.27
195.116	24.75
195.335	12.46
195.555	43.18
195.774	30.89
195.993	61.61
196.212	26.79
196.432	2.22
196.651	51.37
196.87	30.89
197.089	2.22
197.308	20.65
197.528	59.56
197.747	43.18
197.966	47.27
198.185	2.22
198.404	-26.45
198.623	20.65
198.842	75.95
199.062	14.51
199.281	63.66
199.5	69.8
199.719	12.46
199.938	18.6
200.157	8.36
200.376	67.75
200.595	43.18
200.814	34.99
201.033	-20.31
201.252	45.23
201.471	47.27
201.69	18.6
201.909	71.85
202.128	59.56
202.347	26.79
202.566	43.18
202.785	59.56
203.004	-69.46
203.223	102.57
203.442	0.17
203.661	-53.08
203.879	-3.93
204.098	67.75
204.317	10.41
204.536	8.36
204.755	12.46
204.974	34.99
205.193	4.27
205.411	37.03
205.63	-14.17
205.849	-22.36
206.068	-5.97
206.287	-3.93
206.505	47.27
206.724	18.6
206.943	-14.17
207.162	-24.4
207.381	22.7
207.599	-1.88
207.818	14.51
208.037	-20.31
208.255	-26.45
208.474	39.08
208.693	2.22
208.911	-79.7
209.13	37.03
209.349	55.47
209.567	-18.26
209.786	100.52
210.005	55.47
210.223	26.79
210.442	-59.22
210.661	-18.26
210.879	6.31
211.098	-1.88
211.316	37.03
211.535	43.18
211.753	-53.08
211.972	-32.6
212.191	10.41
212.409	75.95
212.628	2.22
212.846	6.31
213.065	14.51
213.283	116.9
213.502	-94.04
213.72	-8.02
213.938	26.79
214.157	43.18
214.375	34.99
214.594	-46.93
214.812	39.08
215.031	18.6
215.249	14.51
215.467	14.51
215.686	-38.74
215.904	30.89
216.122	26.79
216.341	84.14
216.559	28.84
216.778	-5.97
216.996	34.99
217.214	2.22
217.432	34.99
217.651	12.46
217.869	75.95
218.087	92.33
218.306	-40.79
218.524	14.51
218.742	32.94
218.96	47.27
219.179	-55.12
219.397	63.66
219.615	53.42
219.833	0.17
220.051	39.08
220.27	73.9
220.488	30.89
220.706	92.33
220.924	67.75
221.142	69.8
221.36	-8.02
221.578	39.08
221.796	30.89
222.015	-22.36
222.233	30.89
222.451	49.32
222.669	22.7
222.887	67.75
223.105	20.65
223.323	43.18
223.541	-24.4
223.759	75.95
223.977	47.27
224.195	61.61
224.413	-5.97
224.631	43.18
224.849	-3.93
225.067	18.6
225.285	-1.88
225.503	-14.17
225.721	-53.08
225.939	45.23
226.157	2.22
226.375	108.71
226.592	2.22
226.81	90.28
227.028	49.32
227.246	43.18
227.464	-5.97
227.682	53.42
227.9	47.27
228.117	0.17
228.335	39.08
228.553	14.51
228.771	-18.26
228.989	-14.17
229.206	26.79
229.424	12.46
229.642	22.7
229.86	-14.17
230.077	55.47
230.295	14.51
230.513	-65.36
230.731	37.03
230.948	18.6
231.166	55.47
231.384	59.56
231.601	-5.97
231.819	67.75
232.037	-1.88
232.254	-3.93
232.472	-46.93
232.689	2.22
232.907	6.31
233.125	-14.17
233.342	22.7
233.56	-3.93
233.777	28.84
233.995	4.27
234.213	84.14
234.43	-26.45
234.648	-38.74
234.865	49.32
235.083	43.18
235.3	-104.28
235.518	6.31
235.735	28.84
235.953	-30.55
236.17	20.65
236.388	-12.12
236.605	57.51
236.822	47.27
237.04	-40.79
237.257	-1.88
237.475	18.6
237.692	92.33
237.909	-1.88
238.127	-42.84
238.344	-22.36
238.562	2.22
238.779	75.95
238.996	-28.5
239.214	-28.5
239.431	43.18
239.648	14.51
239.865	22.7
240.083	8.36
240.3	-10.07
240.517	39.08
240.735	45.23
240.952	10.41
241.169	67.75
241.386	37.03
241.603	59.56
241.821	-5.97
242.038	-10.07
242.255	18.6
242.472	-30.55
242.689	37.03
242.907	51.37
243.124	-14.17
243.341	84.14
243.558	-20.31
243.775	-5.97
243.992	51.37
244.209	26.79
244.426	110.76
244.643	-10.07
244.86	-22.36
245.078	45.23
245.295	53.42
245.512	10.41
245.729	22.7
245.946	4.27
246.163	22.7
246.38	-12.12
246.597	22.7
246.814	24.75
247.031	22.7
247.248	43.18
247.464	-30.55
247.681	28.84
247.898	57.51
248.115	12.46
248.332	-1.88
248.549	22.7
248.766	45.23
248.983	129.19
249.2	88.23
249.417	59.56
249.633	-30.55
249.85	2.22
250.067	0.17
250.284	-14.17
250.501	80.04
250.717	61.61
250.934	4.27
251.151	53.42
251.368	-18.26
251.585	65.71
251.801	6.31
252.018	-28.5
252.235	77.99
252.451	-65.36
252.668	34.99
252.885	-18.26
253.102	45.23
253.318	43.18
253.535	20.65
253.752	57.51
253.968	-14.17
254.185	59.56
254.401	-44.88
254.618	75.95
254.835	26.79
255.051	94.38
255.268	77.99
255.484	51.37
255.701	30.89
255.917	12.46
256.134	2.22
256.351	71.85
256.567	-38.74
256.784	71.85
257	-1.88
257.217	18.6
257.433	-12.12
257.65	63.66
257.866	34.99
258.082	14.51
258.299	14.51
258.515	104.62
258.732	-28.5
258.948	-55.12
259.165	45.23
259.381	-20.31
259.597	-46.93
259.814	-16.21
260.03	45.23
260.246	43.18
260.463	20.65
260.679	34.99
260.895	10.41
261.112	80.04
261.328	59.56
261.544	-55.12
261.761	18.6
261.977	-20.31
262.193	43.18
262.409	34.99
262.626	67.75
262.842	61.61
263.058	53.42
263.274	26.79
263.49	-16.21
263.707	-46.93
263.923	12.46
264.139	-5.97
264.355	30.89
264.571	59.56
264.787	22.7
265.004	10.41
265.22	106.67
265.436	59.56
265.652	22.7
265.868	4.27
266.084	6.31
266.3	18.6
266.516	-59.22
266.732	77.99
266.948	-1.88
267.164	-14.17
267.38	-1.88
267.596	57.51
267.812	30.89
268.028	71.85
268.244	2.22
268.46	80.04
268.676	-24.4
268.892	65.71
269.108	2.22
269.324	51.37
269.54	49.32
269.756	65.71
269.972	12.46
270.188	16.55
270.403	-30.55
270.619	75.95
270.835	34.99
271.051	30.89
271.267	-46.93
271.483	-20.31
271.698	14.51
271.914	26.79
272.13	10.41
272.346	-10.07
272.562	18.6
272.777	26.79
272.993	26.79
273.209	-3.93
273.425	34.99
273.64	-61.27
273.856	41.13
274.072	-32.6
274.287	110.76
274.503	100.52
274.719	43.18
274.934	26.79
275.15	-46.93
275.366	10.41
275.581	26.79
275.797	30.89
276.012	-20.31
276.228	-26.45
276.444	12.46
276.659	55.47
276.875	-22.36
277.09	34.99
277.306	-5.97
277.521	-1.88
277.737	10.41
277.952	82.09
278.168	-5.97
278.383	127.14
278.599	26.79
278.814	22.7
279.03	71.85
279.245	26.79
279.461	37.03
279.676	100.52
279.892	24.75
280.107	18.6
280.322	-3.93
280.538	110.76
280.753	-20.31
280.969	59.56
281.184	55.47
281.399	26.79
281.615	-67.41
281.83	57.51
282.045	28.84
282.26	26.79
282.476	-36.69
282.691	18.6
282.906	59.56
283.122	51.37
283.337	22.7
283.552	6.31
283.767	-1.88
283.983	43.18
284.198	4.27
284.413	26.79
284.628	28.84
284.843	12.46
285.058	22.7
285.274	26.79
285.489	22.7
285.704	22.7
285.919	-32.6
286.134	-20.31
286.349	18.6
286.564	71.85
286.779	20.65
286.995	10.41
287.21	-26.45
287.425	34.99
287.64	12.46
287.855	32.94
288.07	24.75
288.285	92.33
288.5	26.79
288.715	12.46
288.93	37.03
289.145	28.84
289.36	92.33
289.575	-1.88
289.79	32.94
290.004	49.32
290.219	53.42
290.434	34.99
290.649	6.31
290.864	28.84
291.079	39.08
291.294	12.46
291.509	106.67
291.724	37.03
291.938	59.56
292.153	75.95
292.368	43.18
292.583	34.99
292.798	-22.36
293.012	-38.74
293.227	41.13
293.442	4.27
293.657	2.22
293.871	-12.12
294.086	14.51
294.301	51.37
294.516	18.6
294.73	6.31
294.945	-3.93
295.16	-22.36
295.374	30.89
295.589	100.52
295.804	10.41
296.018	24.75
296.233	63.66
296.447	59.56
296.662	-42.84
296.877	2.22
297.091	8.36
297.306	43.18
297.52	-26.45
297.735	-12.12
297.949	20.65
298.164	-22.36
298.378	-46.93
298.593	-8.02
298.807	-36.69
299.022	20.65
299.236	10.41
299.451	53.42
299.665	51.37
299.88	45.23
300.094	6.31
300.309	10.41
300.523	4.27
300.737	26.79
300.952	39.08
301.166	82.09
301.381	45.23
301.595	53.42
301.809	34.99
302.024	6.31
302.238	55.47
302.452	34.99
302.667	30.89
302.881	71.85
303.095	61.61
303.309	73.9
303.524	-1.88
303.738	22.7
303.952	-10.07
304.166	10.41
304.381	-36.69
304.595	14.51
304.809	59.56
305.023	-3.93
305.237	100.52
305.452	61.61
305.666	151.72
305.88	12.46
306.094	47.27
306.308	59.56
306.522	45.23
306.736	51.37
306.95	34.99
307.164	2.22
307.379	53.42
307.593	75.95
307.807	55.47
308.021	30.89
308.235	2.22
308.449	-1.88
308.663	30.89
308.877	143.53
309.091	28.84
309.305	94.38
309.519	4.27
309.733	57.51
309.947	-87.89
310.161	55.47
310.374	94.38
310.588	67.75
310.802	-51.03
311.016	2.22
311.23	-22.36
311.444	-1.88
311.658	53.42
311.872	51.37
312.085	-26.45
312.299	-18.26
312.513	92.33
312.727	67.75
312.941	-69.46
313.154	-26.45
313.368	-85.84
313.582	-38.74
313.796	-12.12
314.009	10.41
314.223	26.79
314.437	10.41
314.651	67.75
314.864	-79.7
315.078	-12.12
315.292	-22.36
315.505	8.36
315.719	-36.69
315.933	-24.4
316.146	14.51
316.36	77.99
316.573	59.56
316.787	67.75
317.001	112.81
317.214	-28.5
317.428	-18.26
317.641	14.51
317.855	63.66
318.068	-34.64
318.282	28.84
318.495	41.13
318.709	53.42
318.922	-55.12
319.136	96.43
319.349	32.94
319.563	67.75
319.776	30.89
319.99	47.27
320.203	71.85
320.417	75.95
320.63	22.7
320.843	59.56
321.057	20.65
321.27	41.13
321.483	2.22
321.697	55.47
321.91	34.99
322.124	2.22
322.337	-12.12
322.55	8.36
322.763	12.46
322.977	-14.17
323.19	75.95
323.403	-12.12
323.617	114.86
323.83	-8.02
324.043	34.99
324.256	59.56
324.469	-77.65
324.683	59.56
324.896	-30.55
325.109	84.14
325.322	-42.84
325.535	22.7
325.748	118.95
325.962	-20.31
326.175	51.37
326.388	14.51
326.601	100.52
326.814	-14.17
327.027	-14.17
327.24	37.03
327.453	-55.12
327.666	59.56
327.879	37.03
328.092	2.22
328.305	-8.02
328.518	-36.69
328.731	34.99
328.944	-5.97
329.157	26.79
329.37	108.71
329.583	10.41
329.796	51.37
330.009	-18.26
330.222	34.99
330.435	-10.07
330.648	39.08
330.861	94.38
331.073	43.18
331.286	51.37
331.499	14.51
331.712	-22.36
331.925	100.52
332.138	4.27
332.35	51.37
332.563	-10.07
332.776	28.84
332.989	-14.17
333.202	26.79
333.414	26.79
333.627	98.47
333.84	4.27
334.053	67.75
334.265	104.62
334.478	88.23
334.691	34.99
334.903	26.79
335.116	-38.74
335.329	-59.22
335.541	2.22
335.754	84.14
335.966	-5.97
336.179	24.75
336.392	-10.07
336.604	53.42
336.817	71.85
337.029	-63.32
337.242	59.56
337.454	-14.17
337.667	20.65
337.88	94.38
338.092	-14.17
338.305	108.71
338.517	10.41
338.729	12.46
338.942	-26.45
339.154	-14.17
339.367	14.51
339.579	28.84
339.792	-36.69
340.004	61.61
340.217	2.22
340.429	22.7
340.641	34.99
340.854	-40.79
341.066	2.22
341.278	71.85
341.491	69.8
341.703	133.29
341.915	92.33
342.128	84.14
342.34	18.6
342.552	-55.12
342.764	75.95
342.977	37.03
343.189	53.42
343.401	61.61
343.613	-30.55
343.826	65.71
344.038	43.18
344.25	-20.31
344.462	43.18
344.674	18.6
344.886	30.89
345.099	53.42
345.311	-18.26
345.523	14.51
345.735	-18.26
345.947	47.27
346.159	16.55
346.371	61.61
346.583	-1.88
346.795	102.57
347.007	28.84
347.219	18.6
347.431	84.14
347.643	45.23
347.855	37.03
348.067	92.33
348.279	34.99
348.491	-18.26
348.703	20.65
348.915	92.33
349.127	-3.93
349.339	14.51
349.551	47.27
349.763	30.89
349.975	53.42
350.187	59.56
350.399	104.62
350.61	116.9
350.822	75.95
351.034	75.95
351.246	-1.88
351.458	20.65
351.669	34.99
351.881	37.03
352.093	49.32
352.305	-26.45
352.517	100.52
352.728	88.23
352.94	77.99
353.152	92.33
353.363	80.04
353.575	22.7
353.787	-5.97
353.999	57.51
354.21	94.38
354.422	0.17
354.633	34.99
354.845	2.22
355.057	2.22
355.268	37.03
355.48	18.6
355.692	-3.93
355.903	2.22
356.115	53.42
356.326	-51.03
356.538	104.62
356.749	24.75
356.961	28.84
357.172	61.61
357.384	-5.97
357.595	-10.07
357.807	141.48
358.018	47.27
358.23	28.84
358.441	69.8
358.653	-57.17
358.864	41.13
359.075	-22.36
359.287	30.89
359.498	84.14
359.709	96.43
359.921	104.62
360.132	61.61
360.344	51.37
360.555	-20.31
360.766	59.56
360.977	-18.26
361.189	84.14
361.4	53.42
361.611	37.03
361.823	61.61
362.034	18.6
362.245	26.79
362.456	18.6
362.667	8.36
362.879	43.18
363.09	20.65
363.301	24.75
363.512	39.08
363.723	43.18
363.935	2.22
364.146	-22.36
364.357	10.41
364.568	67.75
364.779	28.84
364.99	61.61
365.201	-65.36
365.412	108.71
365.623	-20.31
365.834	59.56
366.045	-34.64
366.256	8.36
366.467	-10.07
366.678	-5.97
366.889	22.7
367.1	53.42
367.311	53.42
367.522	-12.12
367.733	37.03
367.944	53.42
368.155	80.04
368.366	2.22
368.577	20.65
368.788	10.41
368.999	-38.74
369.209	41.13
369.42	135.34
369.631	121
369.842	125.1
370.053	96.43
370.264	39.08
370.474	6.31
370.685	-5.97
370.896	41.13
371.107	55.47
371.317	45.23
371.528	2.22
371.739	22.7
371.95	37.03
372.16	-14.17
372.371	-77.65
372.582	41.13
372.792	14.51
373.003	34.99
373.214	12.46
373.424	28.84
373.635	8.36
373.846	26.79
374.056	61.61
374.267	39.08
374.477	16.55
374.688	22.7
374.898	2.22
375.109	10.41
375.319	20.65
375.53	129.19
375.74	-69.46
375.951	6.31
376.161	12.46
376.372	53.42
376.582	34.99
376.793	121
377.003	24.75
377.214	10.41
377.424	20.65
377.635	-12.12
377.845	61.61
378.055	75.95
378.266	-28.5
378.476	6.31
378.686	67.75
378.897	-20.31
379.107	43.18
379.317	-51.03
379.528	77.99
379.738	47.27
379.948	-38.74
380.158	65.71
380.369	10.41
380.579	12.46
380.789	53.42
380.999	71.85
381.21	53.42
381.42	65.71
381.63	75.95
381.84	6.31
382.05	16.55
382.261	37.03
382.471	45.23
382.681	34.99
382.891	57.51
383.101	26.79
383.311	34.99
383.521	26.79
383.731	-3.93
383.941	34.99
384.151	39.08
384.361	-14.17
384.571	157.86
384.781	32.94
384.991	112.81
385.201	116.9
385.411	73.9
385.621	34.99
385.831	137.38
386.041	43.18
386.251	90.28
386.461	4.27
386.671	22.7
386.881	84.14
387.091	-22.36
387.301	108.71
387.511	2.22
387.72	43.18
387.93	-12.12
388.14	-63.32
388.35	43.18
388.56	28.84
388.769	108.71
388.979	69.8
389.189	20.65
389.399	20.65
389.609	65.71
389.818	-40.79
390.028	67.75
390.238	45.23
390.447	24.75
390.657	75.95
390.867	6.31
391.076	45.23
391.286	43.18
391.496	61.61
391.705	77.99
391.915	102.57
392.125	92.33
392.334	2.22
392.544	94.38
392.753	82.09
392.963	14.51
393.172	20.65
393.382	-20.31
393.591	145.58
393.801	6.31
394.01	84.14
394.22	118.95
394.429	39.08
394.639	16.55
394.848	43.18
395.058	34.99
395.267	-3.93
395.477	2.22
395.686	100.52
395.895	104.62
396.105	131.24
396.314	90.28
396.524	98.47
396.733	145.58
396.942	32.94
397.152	61.61
397.361	43.18
397.57	84.14
397.78	104.62
397.989	100.52
398.198	112.81
398.407	26.79
398.617	110.76
398.826	143.53
399.035	102.57
399.244	143.53
399.453	143.53
399.663	100.52
399.872	100.52
400.081	86.19
400.29	22.7
400.499	71.85
400.708	45.23
400.917	108.71
401.127	77.99
401.336	96.43
401.545	67.75
401.754	92.33
401.963	116.9
402.172	49.32
402.381	65.71
402.59	121
402.799	92.33
403.008	90.28
403.217	108.71
403.426	92.33
403.635	-1.88
403.844	88.23
404.053	75.95
404.262	112.81
404.471	256.17
404.68	127.14
404.888	137.38
405.097	116.9
405.306	86.19
405.515	104.62
405.724	186.54
405.933	157.86
406.142	184.49
406.35	127.14
406.559	250.02
406.768	161.96
406.977	153.77
407.185	153.77
407.394	123.05
407.603	157.86
407.812	190.63
408.02	211.11
408.229	118.95
408.438	231.59
408.646	190.63
408.855	190.63
409.064	276.65
409.272	233.64
409.481	219.3
409.69	235.69
409.898	215.21
410.107	239.78
410.315	233.64
410.524	241.83
410.733	264.36
410.941	288.93
411.15	280.74
411.358	297.13
411.567	374.95
411.775	370.85
411.984	284.84
412.192	321.7
412.401	329.89
412.609	370.85
412.818	465.06
413.026	456.87
413.234	411.81
413.443	446.63
413.651	479.4
413.86	432.29
414.068	559.27
414.276	682.14
414.485	485.54
414.693	635.04
414.901	616.61
415.11	641.18
415.318	618.66
415.526	678.05
415.734	641.18
415.943	768.16
416.151	757.92
416.359	682.14
416.567	764.06
416.776	768.16
416.984	878.75
417.192	870.56
417.4	897.18
417.608	774.3
417.817	829.6
418.025	968.86
418.233	1036.44
418.441	993.44
418.649	999.58
418.857	1093.79
419.065	1280.15
419.273	1058.97
419.481	1128.6
419.689	1284.25
419.897	1278.1
420.105	1360.02
420.313	1355.93
420.521	1337.49
420.729	1362.07
420.937	1478.8
421.145	1423.51
421.353	1618.07
421.561	1745.04
421.769	1667.22
421.977	1730.7
422.185	1708.18
422.393	1841.29
422.601	1998.99
422.809	1984.65
423.017	1935.5
423.224	2152.59
423.432	2156.68
423.64	2148.49
423.848	2365.57
424.056	2252.94
424.263	2443.4
424.471	2328.71
424.679	2500.74
424.887	2685.06
425.094	2773.12
425.302	2787.46
425.51	2830.46
425.718	2863.23
425.925	2871.42
426.133	2955.39
426.341	3186.81
426.548	3287.16
426.756	3307.64
426.964	3512.44
427.171	3467.38
427.379	3702.9
427.586	3778.67
427.794	3786.86
428.001	4112.49
428.209	4241.51
428.417	4218.99
428.624	4364.39
428.832	4311.14
429.039	4485.22
429.247	4427.88
429.454	4831.33
429.662	5224.54
429.869	4884.58
430.076	5314.65
430.284	5044.32
430.491	5202.01
430.699	5531.73
430.906	5634.13
431.114	5521.49
431.321	5945.42
431.528	5943.38
431.736	6236.24
431.943	6522.95
432.15	6492.23
432.358	6391.88
432.565	6805.57
432.772	6776.9
432.979	7112.77
433.187	7307.32
433.394	7286.84
433.601	7874.61
433.808	7776.31
434.016	7829.56
434.223	8222.77
434.43	8568.87
434.637	8407.08
434.844	8865.83
435.052	9144.35
435.259	9044
435.466	9168.93
435.673	8931.36
435.88	9693.21
436.087	10053.65
436.294	10203.15
436.501	9779.22
436.708	10067.99
436.915	10496.01
437.122	10770.44
437.329	10715.14
437.537	11139.07
437.743	11364.35
437.95	11264
438.157	11915.25
438.364	12146.67
438.571	12058.61
438.778	12357.61
438.985	13242.34
439.192	12976.1
439.399	13199.33
439.606	12881.89
439.813	13813.72
440.02	14497.74
440.227	14403.53
440.433	14118.87
440.64	14632.91
440.847	14272.46
441.054	14964.68
441.261	15714.23
441.467	15873.98
441.674	15972.28
441.881	16596.91
442.088	16463.79
442.294	16134.07
442.501	16803.75
442.708	17024.93
442.914	17682.33
443.121	18499.47
443.328	17917.85
443.534	19480.45
443.741	18722.7
443.948	18352.02
444.154	20086.65
444.361	19765.12
444.568	19861.37
444.774	19955.58
444.981	19980.15
445.187	20494.19
445.394	21559.14
445.6	21270.37
445.807	23304.01
446.013	22384.47
446.22	22581.07
446.426	23545.67
446.633	23861.05
446.839	24766.26
447.046	23490.37
447.252	24762.16
447.459	24670
447.665	24688.43
447.871	25876.26
448.078	27291.4
448.284	25585.44
448.491	26285.85
448.697	27426.57
448.903	27887.36
449.11	28100.35
449.316	27721.48
449.522	28165.88
449.728	28448.5
449.935	28993.26
450.141	29302.51
450.347	29642.47
450.553	29026.03
450.76	28989.17
450.966	30033.63
451.172	29611.75
451.378	30832.34
451.584	30021.34
451.791	30734.04
451.997	30533.34
452.203	31311.56
452.409	31332.04
452.615	31071.95
452.821	29644.52
453.027	29726.44
453.233	31139.54
453.44	29923.04
453.646	30691.03
453.852	30412.51
454.058	30879.44
454.264	30148.32
454.47	30723.8
454.676	29755.11
454.882	31049.42
455.088	28155.65
455.294	28620.53
455.5	29361.9
455.705	29712.1
455.911	28509.94
456.117	27760.39
456.323	27416.33
456.529	26242.84
456.735	27549.45
456.941	26638.1
457.147	26128.16
457.352	25515.81
457.558	25159.47
457.764	25095.98
457.97	24952.62
458.176	24094.52
458.381	24379.19
458.587	23105.35
458.793	23017.29
458.999	21800.8
459.204	23398.21
459.41	22853.45
459.616	21268.33
459.821	21170.02
460.027	21434.21
460.233	20565.87
460.438	19933.05
460.644	19773.31
460.85	18986.89
461.055	19001.22
461.261	18702.22
461.466	17194.92
461.672	16795.56
461.878	17997.72
462.083	16854.95
462.289	16531.37
462.494	16353.2
462.7	15634.36
462.905	15361.98
463.111	15871.93
463.316	15835.07
463.522	15484.86
463.727	15357.89
463.932	15421.38
464.138	15257.54
464.343	15386.56
464.549	15015.88
464.754	15364.03
464.959	15257.54
465.165	14919.62
465.37	14667.72
465.575	14104.53
465.781	14514.13
465.986	14886.86
466.191	14247.89
466.397	13977.56
466.602	13252.58
466.807	13715.42
467.012	13500.38
467.218	13940.69
467.423	13457.37
467.628	13680.6
467.833	14239.7
468.038	13584.35
468.244	13295.58
468.449	13725.66
468.654	13307.87
468.859	13158.37
469.064	13127.65
469.269	12644.33
469.474	12769.26
469.679	12830.69
469.885	12693.48
470.09	12629.99
470.295	12877.8
470.5	12396.53
470.705	12507.12
470.91	12443.63
471.115	12013.56
471.32	12333.04
471.525	12091.38
471.73	11853.81
471.935	11823.09
472.139	11634.68
472.344	11452.41
472.549	11474.94
472.754	11360.25
472.959	11210.75
473.164	10921.99
473.369	10694.66
473.574	11309.05
473.778	11044.87
473.983	11096.07
474.188	10790.92
474.393	10545.16
474.598	10530.83
474.802	10483.72
475.007	10309.65
475.212	10450.96
475.417	10106.9
475.621	10008.59
475.826	9971.73
476.031	9871.38
476.235	9709.59
476.44	9734.17
476.645	9486.36
476.849	9619.48
477.054	9564.18
477.259	9435.16
477.463	9265.18
477.668	9140.26
477.872	9236.51
478.077	9130.02
478.282	8714.28
478.486	8761.38
478.691	8566.82
478.895	8843.3
479.1	8681.51
479.304	8638.5
479.509	8312.88
479.713	8677.41
479.918	8384.55
480.122	8251.44
480.326	8386.6
480.531	8448.04
480.735	8149.04
480.94	8288.3
481.144	8538.15
481.348	8015.92
481.553	8194.09
481.757	8077.36
481.961	8136.75
482.166	8103.98
482.37	8081.46
482.574	8132.65
482.778	7999.54
482.983	8013.87
483.187	8300.59
483.391	8151.09
483.595	7882.8
483.8	7852.08
484.004	7788.6
484.208	8138.8
484.412	7972.91
484.616	7956.53
484.821	8030.26
485.025	7743.54
485.229	7866.42
485.433	7991.34
485.637	8013.87
485.841	7919.67
486.045	7997.49
486.249	7944.24
486.453	7952.43
486.657	7974.96
486.861	7911.47
487.065	7868.47
487.269	7866.42
487.473	7710.77
487.677	8001.58
487.881	8155.18
488.085	7897.14
488.289	7989.3
488.493	7964.72
488.697	7985.2
488.901	7944.24
489.105	7923.76
489.309	8120.37
489.512	7944.24
489.716	8157.23
489.92	8069.17
490.124	8009.78
490.328	8228.91
490.531	8007.73
490.735	8138.8
490.939	8249.39
491.143	8067.12
491.346	8142.89
491.55	8333.36
491.754	8327.21
491.958	8243.24
492.161	8335.4
492.365	8464.43
492.569	8415.27
492.772	8452.14
492.976	8505.38
493.18	8407.08
493.383	8814.63
493.587	8675.37
493.79	8699.94
493.994	8671.27
494.197	8691.75
494.401	8886.31
494.605	8806.44
494.808	8980.51
495.012	8943.65
495.215	8914.98
495.419	9095.2
495.622	9033.76
495.825	9242.65
496.029	9054.24
496.232	9392.16
496.436	9230.37
496.639	9721.88
496.843	9689.11
497.046	9820.18
497.249	9795.61
497.453	9955.35
497.656	9828.37
497.859	9971.73
498.063	10201.1
498.266	10340.36
498.469	10307.6
498.673	10164.24
498.876	10467.34
499.079	10678.28
499.282	10717.19
499.485	11003.91
499.689	10807.3
499.892	11079.68
500.095	11198.46
500.298	11364.35
500.501	11347.97
500.705	11745.27
500.908	11700.22
501.111	11638.78
501.314	11929.59
501.517	12083.19
501.72	12318.7
501.923	12214.26
502.126	12267.5
502.329	12404.72
502.532	12759.02
502.735	12785.64
502.938	12894.18
503.141	12937.19
503.344	13101.03
503.547	13258.72
503.75	13547.48
503.953	13729.75
504.156	13737.95
504.359	14049.24
504.562	13887.45
504.765	14481.36
504.968	14413.77
505.17	14583.76
505.373	14512.08
505.576	14897.1
505.779	15118.28
505.982	15081.41
506.185	15398.85
506.387	15466.43
506.59	15636.41
506.793	15925.18
506.996	15818.68
507.198	16244.66
507.401	16105.4
507.604	16592.81
507.807	16871.34
508.009	16826.28
508.212	17033.13
508.415	17041.32
508.617	17205.16
508.82	17344.42
509.022	17162.15
509.225	17561.5
509.428	18079.64
509.63	18216.85
509.833	18204.56
510.035	18569.1
510.238	18403.22
510.44	18655.12
510.643	19185.54
510.845	19044.23
511.048	18945.93
511.25	19582.85
511.453	19541.89
511.655	20467.57
511.858	20342.64
512.06	20363.12
512.262	20565.87
512.465	20727.66
512.667	20713.33
512.87	21161.83
513.072	21139.3
513.274	21423.97
513.477	21929.82
513.679	21751.65
513.881	22482.77
514.084	22202.2
514.286	22320.98
514.488	22599.51
514.69	23011.15
514.893	23195.46
515.095	23355.21
515.297	23533.38
515.499	23631.68
515.701	23969.6
515.904	24260.41
516.106	24127.29
516.308	24491.83
516.51	24688.43
516.712	24807.22
516.914	25073.45
517.116	25497.38
517.318	25669.41
517.52	25558.82
517.722	26134.3
517.925	26240.79
518.127	26453.78
518.329	26781.46
518.531	26574.61
518.733	26699.54
518.935	27023.12
519.136	27531.01
519.338	27574.02
519.54	27897.6
519.742	28229.37
519.944	27913.98
520.146	28743.41
520.348	28835.57
520.55	29241.07
520.752	29007.6
520.954	29568.74
521.155	29472.49
521.357	29941.47
521.559	30093.02
521.761	30297.82
521.963	30209.76
522.164	30830.29
522.366	30299.87
522.568	30916.31
522.77	31338.19
522.971	31708.87
523.173	31401.68
523.375	31891.14
523.576	31649.48
523.778	31923.91
523.98	32388.8
524.181	32712.38
524.383	32657.08
524.584	32896.69
524.786	32669.37
524.988	32605.88
525.189	33339.05
525.391	33257.14
525.592	33697.45
525.794	33861.29
525.995	33572.52
526.197	33992.36
526.398	33986.21
526.6	34215.58
526.801	34350.75
527.003	34154.15
527.204	34928.28
527.406	34915.99
527.607	34905.75
527.808	34995.86
528.01	34633.37
528.211	35315.34
528.412	35573.39
528.614	35315.34
528.815	35458.7
529.016	35821.19
529.218	35530.38
529.419	35831.43
529.62	35929.73
529.822	35438.22
530.023	35567.24
530.224	35890.82
530.425	35966.6
530.626	35610.25
530.828	35665.55
531.029	36458.11
531.23	35999.37
531.431	36077.19
531.632	36163.2
531.833	36552.32
532.035	36781.69
532.236	36312.7
532.437	36750.97
532.638	36226.69
532.839	36724.35
533.04	36427.39
533.241	36265.6
533.442	37084.79
533.643	36787.83
533.844	36564.6
534.045	37064.31
534.246	36271.75
534.447	37121.65
534.648	36693.63
534.849	37185.14
535.05	36492.93
535.251	36480.64
535.451	36644.48
535.652	36925.05
535.853	36828.79
536.054	36497.02
536.255	36927.1
536.456	36445.82
536.657	37219.95
536.857	36482.69
537.058	36069
537.259	37246.58
537.46	36920.95
537.66	36404.86
537.861	36679.29
538.062	36142.72
538.263	36742.78
538.463	36531.84
538.664	36476.54
538.865	36339.33
539.065	36900.47
539.266	36501.12
539.466	36945.53
539.667	36093.57
539.868	36902.52
540.068	36726.39
540.269	36609.66
540.469	36800.12
540.67	36597.37
540.87	36693.63
541.071	36265.6
541.271	36701.82
541.472	36765.31
541.672	36220.55
541.873	36476.54
542.073	36214.4
542.274	36570.75
542.474	36310.66
542.675	36359.81
542.875	36664.96
543.075	36312.7
543.276	36083.33
543.476	36640.38
543.676	36355.71
543.877	36494.97
544.077	36454.01
544.277	36578.94
544.478	36456.06
544.678	36230.79
544.878	36335.23
545.078	36519.55
545.279	36198.02
545.479	36112
545.679	36574.84
545.879	36347.52
546.079	36460.16
546.28	36044.42
546.48	35915.4
546.68	36284.03
546.88	36517.5
547.08	36236.93
547.28	36130.44
547.48	35638.92
547.68	36454.01
547.88	35780.23
548.081	36267.65
548.281	36124.29
548.481	35991.17
548.681	36615.8
548.881	36044.42
549.081	35747.47
549.28	35800.71
549.48	36011.65
549.68	35985.03
549.88	36505.21
550.08	36339.33
550.28	36130.44
550.48	35823.24
550.68	36259.46
550.88	35747.47
551.08	36425.34
551.279	36069
551.479	35966.6
551.679	36318.85
551.879	35651.21
552.079	36505.21
552.278	35726.99
552.478	36030.08
552.678	35849.86
552.878	36116.1
553.077	36005.51
553.277	35726.99
553.477	36480.64
553.676	35962.5
553.876	35735.18
554.076	35731.08
554.275	35726.99
554.475	35421.84
554.674	35837.58
554.874	35352.21
555.074	35595.92
555.273	35651.21
555.473	35966.6
555.672	35397.26
555.872	35329.68
556.071	35475.09
556.271	35606.16
556.47	35227.28
556.67	35196.56
556.869	35059.35
557.068	35516.04
557.268	34936.47
557.467	35309.2
557.667	35350.16
557.866	34983.57
558.065	35237.52
558.265	35319.44
558.464	34651.8
558.663	35239.57
558.863	34594.46
559.062	35307.15
559.261	34549.4
559.461	35294.86
559.66	34369.18
559.859	34700.95
560.058	34305.7
560.258	34643.61
560.457	34086.56
560.656	34690.71
560.855	34363.04
561.054	34707.1
561.253	34076.32
561.453	34369.18
561.652	34121.38
561.851	34410.14
562.05	34307.74
562.249	33726.12
562.448	34141.86
562.647	33947.3
562.846	33928.87
563.045	34145.95
563.244	33697.45
563.443	34002.6
563.642	33273.52
563.841	33644.2
564.04	33162.93
564.239	33969.83
564.438	33494.7
564.637	33740.46
564.836	33582.76
565.035	33259.18
565.234	33324.72
565.432	33220.27
565.631	33083.06
565.83	33308.33
566.029	32706.23
566.228	32784.05
566.427	32911.03
566.625	32937.65
566.824	32622.26
567.023	32937.65
567.222	32468.67
567.42	32665.27
567.619	32577.21
567.818	32286.4
568.016	32057.03
568.215	32421.56
568.414	32104.13
568.612	32323.26
568.811	31899.33
569.01	32194.24
569.208	31735.49
569.407	31817.41
569.605	31516.36
569.804	32179.9
570.002	31344.33
570.201	31788.74
570.4	31147.73
570.598	31239.89
570.797	31225.55
570.995	31334.09
571.193	30940.88
571.392	31680.2
571.59	30574.3
571.789	31305.42
571.987	30627.54
572.186	31024.85
572.384	30809.81
572.582	30777.05
572.781	30865.11
572.979	30367.45
573.177	30488.28
573.376	30879.44
573.574	30435.03
573.772	30432.99
573.971	30209.76
574.169	30211.81
574.367	29798.12
574.565	30093.02
574.763	29722.34
574.962	29865.7
575.16	29503.21
575.358	29593.32
575.556	29110
575.754	29789.92
575.952	29146.86
576.151	29482.73
576.349	29333.23
576.547	29189.87
576.745	29138.67
576.943	29196.01
577.141	29220.59
577.339	28704.5
577.537	29112.05
577.735	28563.19
577.933	28587.77
578.131	28815.09
578.329	28622.58
578.527	28389.11
578.725	28669.69
578.923	28511.99
579.121	28045.05
579.319	28079.87
579.516	28485.37
579.714	28208.89
579.912	27922.18
580.11	27973.38
580.308	27922.18
580.506	27807.49
580.704	27608.84
580.901	27662.08
581.099	27649.8
581.297	27485.96
581.495	27641.6
581.692	27594.5
581.89	27225.87
582.088	27297.55
582.285	27186.96
582.483	27256.59
582.681	27338.51
582.878	26928.91
583.076	26617.62
583.274	26920.72
583.471	26693.4
583.669	26775.31
583.866	26402.58
584.064	26433.3
584.262	26472.21
584.459	26691.35
584.657	26375.96
584.854	26588.95
585.052	25890.59
585.249	26165.02
585.447	26146.59
585.644	25745.19
585.841	25820.96
586.039	26255.13
586.236	25618.21
586.434	25356.07
586.631	25562.92
586.828	25622.31
587.026	25679.65
587.223	25444.13
587.42	25235.24
587.618	25356.07
587.815	24938.29
588.012	25171.75
588.21	24897.33
588.407	25411.37
588.604	25003.82
588.801	25114.41
588.999	25065.26
589.196	24715.06
589.393	24852.27
589.59	24377.14
589.787	24682.29
589.984	24233.78
590.182	24317.75
590.379	24352.57
590.576	24174.39
590.773	24336.18
590.97	24235.83
591.167	24012.6
591.364	23979.84
591.561	23764.8
591.758	23527.24
591.955	23549.76
592.152	23727.94
592.349	23537.48
592.546	23539.52
592.743	23621.44
592.94	23074.63
593.137	23355.21
593.334	23332.68
593.531	23136.07
593.727	23336.77
593.924	23220.04
594.121	22984.52
594.318	23099.21
594.515	22517.59
594.712	23007.05
594.908	22777.68
595.105	22861.65
595.302	22458.2
595.499	22626.13
595.696	22716.24
595.892	22368.09
596.089	22378.33
596.286	22501.2
596.482	22255.45
596.679	22021.98
596.876	22316.89
597.072	22142.81
597.269	22026.07
597.466	21649.25
597.662	21747.55
597.859	21606.24
598.055	22069.08
598.252	21397.35
598.448	21538.66
598.645	21706.59
598.841	21239.65
599.038	21380.96
599.234	21305.19
599.431	21495.65
599.627	21149.54
599.824	21143.4
600.02	21139.3
600.217	20989.8
600.413	20932.46
600.609	20961.13
600.806	21004.14
601.002	20952.94
601.198	20567.92
601.395	20512.63
601.591	20486
601.787	20606.83
601.984	20621.17
602.18	20809.58
602.376	20334.45
602.572	20266.87
602.769	20285.3
602.965	19990.39
603.161	20326.26
603.357	20025.21
603.553	19951.48
603.75	20039.54
603.946	19750.78
604.142	20141.94
604.338	19627.9
604.534	19861.37
604.73	19492.74
604.926	19521.41
605.122	19220.36
605.318	19359.62
605.514	19343.24
605.71	19394.43
605.906	19115.91
606.102	18931.59
606.298	19287.94
606.494	19081.1
606.69	19066.76
606.886	19154.82
607.082	18778
607.278	18917.26
607.474	18706.32
607.67	18997.13
607.866	18587.54
608.062	18847.63
608.257	18499.47
608.453	18745.23
608.649	18853.77
608.845	18655.12
609.041	18655.12
609.236	18513.81
609.432	18450.32
609.628	18401.17
609.824	18327.44
610.019	18096.02
610.215	18419.6
610.411	18159.51
610.606	18065.3
610.802	18188.18
610.998	18179.99
611.193	18247.57
611.389	18024.34
611.584	17805.21
611.78	17844.12
611.976	17930.14
612.171	17817.5
612.367	18202.52
612.562	17958.81
612.758	17520.54
612.953	17713.05
613.149	18151.32
613.344	17600.41
613.539	17733.53
613.735	17479.58
613.93	17518.5
614.126	17534.88
614.321	17766.3
614.517	17426.34
614.712	17209.25
614.907	17450.91
615.103	17614.75
615.298	17463.2
615.493	17344.42
615.688	17082.28
615.884	17465.25
616.079	17098.66
616.274	17264.55
616.47	17250.21
616.665	17260.45
616.86	17325.99
617.055	17188.77
617.25	17196.96
617.445	17045.41
617.641	16809.9
617.836	16983.98
618.031	16617.39
618.226	16879.53
618.421	16959.4
618.616	17033.13
618.811	16355.25
619.006	16666.54
619.201	16076.73
619.396	16512.94
619.591	16289.71
619.786	16414.64
619.981	16136.12
620.176	16162.74
620.371	16123.83
620.566	16082.87
620.761	16134.07
620.956	15863.74
621.151	15783.87
621.346	15802.3
621.541	15443.9
621.735	15687.61
621.93	15613.88
622.125	15611.84
622.32	15159.24
622.515	15134.66
622.709	14974.92
622.904	15056.84
623.099	15087.56
623.294	15103.94
623.488	15110.08
623.683	15067.08
623.878	14757.83
624.072	14612.43
624.267	14561.23
624.462	14489.55
624.656	14139.35
624.851	14524.37
625.046	14362.58
625.24	14309.33
625.435	14133.2
625.629	14163.92
625.824	13883.35
626.018	13977.56
626.213	13613.02
626.407	14006.23
626.602	13486.04
626.796	13490.14
626.991	13776.86
627.185	13604.83
627.38	13518.81
627.574	13322.21
627.768	13287.39
627.963	13051.88
628.157	13332.45
628.352	13002.72
628.546	12969.96
628.74	13000.68
628.935	12826.6
629.129	12828.65
629.323	12685.29
629.517	12699.62
629.712	12490.73
629.906	12482.54
630.1	12234.74
630.294	12388.33
630.489	12224.5
630.683	12457.96
630.877	12232.69
631.071	12040.18
631.265	12056.56
631.459	11948.02
631.653	11829.24
631.848	11819
632.042	11937.78
632.236	12093.43
632.43	11651.06
632.624	11773.94
632.818	11610.11
633.012	11466.75
633.206	11433.98
633.4	11626.49
633.594	11331.58
633.788	11327.49
633.982	11147.26
634.176	11341.82
634.369	11186.18
634.563	10956.8
634.757	11016.19
634.951	11003.91
635.145	10897.41
635.339	10965
635.533	10688.52
635.726	10797.06
635.92	10434.57
636.114	10653.7
636.308	10618.89
636.501	10563.59
636.695	10344.46
636.889	10227.73
637.083	10270.73
637.276	10082.32
637.47	10135.57
637.664	10172.43
637.857	10364.94
638.051	10082.32
638.244	9998.35
638.438	9986.07
638.632	9734.17
638.825	9775.13
639.019	9635.86
639.212	9707.54
639.406	9687.06
639.599	9779.22
639.793	9717.78
639.986	9541.66
640.18	9621.53
640.373	9476.12
640.567	9334.81
640.76	9367.58
640.954	9418.78
641.147	9193.5
641.34	9121.82
641.534	9211.93
641.727	9146.4
641.92	9025.57
642.114	9183.26
642.307	8835.11
642.5	8841.25
642.694	8767.52
642.887	8894.5
643.08	8849.44
643.273	8931.36
643.467	8779.81
643.66	8474.67
643.853	8572.97
644.046	8464.43
644.239	8497.19
644.432	8382.51
644.626	8257.58
644.819	8302.64
645.012	8511.53
645.205	8374.31
645.398	8321.07
645.591	8097.84
645.784	8243.24
645.977	8116.27
646.17	8116.27
646.363	8022.06
646.556	8011.82
646.749	7886.9
646.942	7835.7
647.135	7804.98
647.328	7723.06
647.521	7964.72
647.714	7612.47
647.907	7624.76
648.099	7729.2
648.292	7548.98
648.485	7700.53
648.678	7630.9
648.871	7454.78
649.064	7518.26
649.256	7286.84
649.449	7227.45
649.642	7223.36
649.835	7227.45
650.027	7254.08
650.22	7276.6
650.413	7241.79
650.605	7235.64
650.798	7149.63
650.991	7022.66
651.183	7077.95
651.376	7006.27
651.568	6912.07
651.761	6940.74
651.954	6869.06
652.146	6918.21
652.339	6729.8
652.531	6942.78
652.724	6694.98
652.916	6488.14
653.109	6795.33
653.301	6592.58
653.494	6492.23
653.686	6514.76
653.879	6676.55
654.071	6623.3
654.263	6404.17
654.456	6457.42
654.648	6348.87
654.84	6297.67
655.033	6115.41
655.225	6393.93
655.417	6178.89
655.61	6297.67
655.802	6299.72
655.994	5990.48
656.186	6230.09
656.379	6092.88
656.571	6166.6
656.763	6162.51
656.955	6150.22
657.148	5892.18
657.34	5957.71
657.532	5898.32
657.724	5957.71
657.916	5904.46
658.108	5834.83
658.3	5845.07
658.492	5718.1
658.684	5630.04
658.876	5859.41
659.068	5734.48
659.26	5689.43
659.452	5744.72
659.644	5748.82
659.836	5437.53
660.028	5574.74
660.22	5484.63
660.412	5591.13
660.604	5447.77
660.796	5507.16
660.988	5245.02
661.18	5531.73
661.372	5386.33
661.563	5294.17
661.755	5277.79
661.947	5267.55
662.139	5251.16
662.331	5204.06
662.522	5130.33
662.714	5199.96
662.906	5159
663.097	5208.16
663.289	5163.1
663.481	5044.32
663.673	5046.37
663.864	5056.61
664.056	4976.73
664.247	5105.76
664.439	4946.02
664.631	5001.31
664.822	4933.73
665.014	4915.3
665.205	4892.77
665.397	4798.56
665.588	4788.32
665.78	4862.05
665.971	4837.47
666.163	4722.79
666.354	4880.48
666.546	4622.44
666.737	4599.91
666.929	4698.21
667.12	4632.68
667.311	4636.77
667.503	4552.81
667.694	4644.96
667.885	4491.37
668.077	4485.22
668.268	4444.26
668.459	4501.61
668.651	4544.61
668.842	4567.14
669.033	4415.59
669.224	4384.87
669.416	4499.56
669.607	4368.49
669.798	4343.91
669.989	4395.11
670.18	4339.82
670.371	4296.81
670.563	4403.3
670.754	4350.06
670.945	4343.91
671.136	4110.44
671.327	4147.31
671.518	4253.8
671.709	4239.47
671.9	4223.08
672.091	4102.25
672.282	4208.75
672.473	4241.51
672.664	4132.97
672.855	3944.56
673.046	4143.21
673.237	4184.17
673.428	4067.44
673.619	4022.38
673.809	4147.31
674	4067.44
674.191	4020.33
674.382	4059.24
674.573	4028.53
674.764	4081.77
674.954	4092.01
675.145	3967.09
675.336	4042.86
675.527	3903.6
675.717	3930.22
675.908	3852.4
676.099	3928.17
676.289	3917.93
676.48	3942.51
676.671	3977.33
676.861	3786.86
677.052	3805.3
677.243	3969.13
677.433	3805.3
677.624	3756.15
677.814	3786.86
678.005	3860.59
678.195	3950.7
678.386	3819.63
678.576	3772.53
678.767	3684.47
678.957	3754.1
679.148	3815.54
679.338	3821.68
679.529	3811.44
679.719	3762.29
679.909	3768.43
680.1	3797.1
680.29	3766.39
680.481	3684.47
680.671	3731.57
680.861	3819.63
681.052	3754.1
681.242	3627.12
681.432	3799.15
681.622	3666.03
681.813	3606.64
682.003	3762.29
682.193	3592.31
682.383	3641.46
682.573	3643.51
682.764	3584.12
682.954	3745.91
683.144	3739.76
683.334	3625.08
683.524	3627.12
683.714	3616.88
683.904	3614.84
684.094	3457.14
684.284	3489.91
684.474	3719.28
684.664	3516.53
684.854	3528.82
685.044	3459.19
685.234	3420.28
685.424	3600.5
685.614	3496.05
685.804	3485.81
685.994	3631.22
686.184	3598.45
686.374	3571.83
686.564	3483.77
686.753	3379.32
686.943	3375.22
687.133	3385.46
687.323	3444.85
687.513	3231.87
687.702	3309.69
687.892	3190.91
688.082	3459.19
688.272	3412.09
688.461	3328.12
688.651	3401.85
688.841	3307.64
689.03	3285.11
689.22	3217.53
689.41	3254.39
689.599	3135.61
689.789	3354.74
689.979	3102.84
690.168	3166.33
690.358	3295.35
690.547	3176.57
690.737	3262.58
690.926	3074.17
691.116	3119.23
691.305	3082.36
691.495	3086.46
691.684	3068.03
691.874	3119.23
692.063	3000.44
692.252	3082.36
692.442	3180.67
692.631	2979.97
692.82	2955.39
693.01	2975.87
693.199	3051.64
693.388	2867.33
693.578	3010.68
693.767	2926.72
693.956	2979.97
694.146	3018.88
694.335	2932.86
694.524	2992.25
694.713	2928.77
694.902	2871.42
695.092	2885.76
695.281	2857.09
695.47	2799.74
695.659	2783.36
695.848	2855.04
696.037	2775.17
696.226	2904.19
696.415	2879.61
696.604	2881.66
696.793	2873.47
696.982	2891.9
697.171	2795.65
697.36	2728.07
697.549	2689.15
697.738	2721.92
697.927	2656.39
698.116	2769.02
698.305	2754.69
698.494	2754.69
698.683	2807.94
698.872	2703.49
699.061	2795.65
699.25	2756.74
699.438	2787.46
699.627	2646.15
699.816	2750.59
700.005	2713.73
700.193	2705.54
700.382	2750.59
700.571	2683.01
700.76	2756.74
700.948	2674.82
701.137	2738.3
701.326	2656.39
701.514	2644.1
701.703	2586.76
701.892	2646.15
702.08	2656.39
702.269	2627.71
702.457	2631.81
702.646	2601.09
702.834	2560.13
703.023	2635.91
703.212	2658.43
703.4	2588.8
703.589	2783.36
703.777	2640
703.965	2531.46
704.154	2594.95
704.342	2500.74
704.531	2525.32
704.719	2658.43
704.907	2683.01
705.096	2545.8
705.284	2592.9
705.472	2674.82
705.661	2508.93
705.849	2656.39
706.037	2723.97
706.226	2619.52
706.414	2566.28
706.602	2588.8
706.79	2617.47
706.979	2633.86
707.167	2599.04
707.355	2619.52
707.543	2607.23
707.731	2478.21
707.919	2545.8
708.107	2545.8
708.296	2537.6
708.484	2582.66
708.672	2601.09
708.86	2543.75
709.048	2523.27
709.236	2574.47
709.424	2541.7
709.612	2566.28
709.8	2568.32
709.988	2582.66
710.176	2476.16
710.364	2558.08
710.551	2631.81
710.739	2517.12
710.927	2672.77
711.115	2480.26
711.303	2484.36
711.491	2574.47
711.679	2447.49
711.866	2525.32
712.054	2494.6
712.242	2578.56
712.43	2467.97
712.617	2580.61
712.805	2623.62
712.993	2570.37
713.181	2531.46
713.368	2496.64
713.556	2449.54
713.744	2379.91
713.931	2648.19
714.119	2590.85
714.306	2678.91
714.494	2470.02
714.682	2488.45
714.869	2484.36
715.057	2486.4
715.244	2545.8
715.432	2445.45
715.619	2517.12
715.807	2447.49
715.994	2467.97
716.182	2549.89
716.369	2578.56
716.556	2568.32
716.744	2543.75
716.931	2513.03
717.119	2517.12
717.306	2568.32
717.493	2615.43
717.681	2631.81
717.868	2549.89
718.055	2592.9
718.242	2594.95
718.43	2560.13
718.617	2623.62
718.804	2556.04
718.991	2558.08
719.179	2525.32
719.366	2541.7
719.553	2527.36
719.74	2494.6
719.927	2568.32
720.114	2533.51
720.301	2531.46
720.488	2537.6
720.676	2580.61
720.863	2508.93
721.05	2621.57
721.237	2453.64
721.424	2549.89
721.611	2590.85
721.798	2558.08
721.985	2525.32
722.172	2461.83
722.358	2451.59
722.545	2545.8
722.732	2476.16
722.919	2541.7
723.106	2406.53
723.293	2566.28
723.48	2525.32
723.667	2476.16
723.853	2529.41
724.04	2492.55
724.227	2642.05
724.414	2582.66
724.6	2476.16
724.787	2562.18
724.974	2459.78
725.161	2513.03
725.347	2414.73
725.534	2623.62
725.72	2476.16
725.907	2521.22
726.094	2558.08
726.28	2480.26
726.467	2510.98
726.653	2433.16
726.84	2381.96
727.027	2525.32
727.213	2549.89
727.4	2531.46
727.586	2551.94
727.773	2705.54
727.959	2496.64
728.145	2562.18
728.332	2459.78
728.518	2515.08
728.705	2541.7
728.891	2537.6
729.077	2515.08
729.264	2500.74
729.45	2508.93
729.636	2488.45
729.823	2547.84
730.009	2594.95
730.195	2553.99
730.382	2619.52
730.568	2433.16
730.754	2502.79
730.94	2472.07
731.126	2635.91
731.313	2537.6
731.499	2427.01
731.685	2582.66
731.871	2476.16
732.057	2541.7
732.243	2558.08
732.429	2566.28
732.615	2515.08
732.801	2533.51
732.987	2465.93
733.173	2418.82
733.359	2510.98
733.545	2537.6
733.731	2527.36
733.917	2601.09
734.103	2338.95
734.289	2584.71
734.475	2480.26
734.661	2549.89
734.847	2533.51
735.033	2517.12
735.219	2576.52
735.404	2486.4
735.59	2609.28
735.776	2463.88
735.962	2361.48
736.148	2500.74
736.333	2472.07
736.519	2502.79
736.705	2404.49
736.89	2341
737.076	2453.64
737.262	2422.92
737.447	2396.29
737.633	2451.59
737.819	2447.49
738.004	2500.74
738.19	2539.65
738.375	2453.64
738.561	2607.23
738.747	2422.92
738.932	2414.73
739.118	2492.55
739.303	2529.41
739.489	2429.06
739.674	2341
739.859	2390.15
740.045	2338.95
740.23	2349.19
740.416	2422.92
740.601	2470.02
740.786	2369.67
740.972	2455.69
741.157	2369.67
741.342	2316.42
741.528	2381.96
741.713	2420.87
741.898	2420.87
742.084	2369.67
742.269	2338.95
742.454	2400.39
742.639	2402.44
742.824	2427.01
743.01	2316.42
743.195	2314.38
743.38	2250.89
743.565	2201.74
743.75	2445.45
743.935	2336.9
744.12	2257.03
744.305	2164.87
744.49	2164.87
744.675	2234.5
744.86	2205.83
745.045	2248.84
745.23	2205.83
745.415	2205.83
745.6	2252.94
745.785	2156.68
745.97	2185.35
746.155	2216.07
746.34	2060.43
746.525	2189.45
746.71	2205.83
746.895	2101.39
747.079	1929.36
747.264	2107.53
747.449	2150.54
747.634	1984.65
747.819	2115.72
748.003	2037.9
748.188	1986.7
748.373	2109.58
748.557	2029.71
748.742	1947.79
748.927	2023.56
749.111	1894.54
749.296	1910.93
749.481	1945.74
749.665	1910.93
749.85	1857.68
750.034	1880.21
750.219	1810.58
750.404	1912.97
750.588	1919.12
750.773	1779.86
750.957	1869.97
751.141	1822.86
751.326	1931.41
751.51	1804.43
751.695	1800.34
751.879	1775.76
752.064	1814.67
752.248	1667.22
752.432	1759.38
752.617	1796.24
752.801	1747.09
752.985	1749.14
753.17	1702.03
753.354	1716.37
753.538	1796.24
753.722	1642.64
753.907	1589.39
754.091	1689.74
754.275	1583.25
754.459	1538.2
754.643	1579.15
754.828	1519.76
755.012	1542.29
755.196	1534.1
755.38	1579.15
755.564	1579.15
755.748	1495.19
755.932	1601.68
756.116	1519.76
756.3	1476.76
756.484	1501.33
756.668	1491.09
756.852	1458.32
757.036	1384.6
757.22	1431.7
757.404	1443.99
757.588	1413.27
757.772	1495.19
757.956	1335.45
758.14	1487
758.323	1247.38
758.507	1441.94
758.691	1398.93
758.875	1355.93
759.059	1423.51
759.242	1298.58
759.426	1308.82
759.61	1288.34
759.794	1280.15
759.977	1208.47
760.161	1370.26
760.345	1319.06
760.528	1302.68
760.712	1308.82
760.895	1271.96
761.079	1323.16
761.263	1214.62
761.446	1222.81
761.63	1265.82
761.813	1282.2
761.997	1120.41
762.18	1220.76
762.364	1153.18
762.547	1108.12
762.731	1132.7
762.914	1149.08
763.098	1159.32
763.281	1155.23
763.464	1190.04
763.648	1157.27
763.831	1167.51
764.015	1087.64
764.198	1165.46
764.381	1157.27
764.564	1097.88
764.748	1181.85
764.931	1101.98
765.114	1034.39
765.297	1222.81
765.481	1108.12
765.664	1153.18
765.847	1116.31
766.03	1149.08
766.213	1009.82
766.397	1071.26
766.58	1050.78
766.763	1177.75
766.946	1087.64
767.129	1104.03
767.312	1003.68
767.495	1020.06
767.678	1104.03
767.861	1042.59
768.044	975
768.227	966.81
768.41	923.8
768.593	999.58
768.776	1067.16
768.959	1003.68
769.142	927.9
769.324	962.72
769.507	1005.72
769.69	985.24
769.873	942.24
770.056	997.53
770.239	1011.87
770.421	993.44
770.604	952.48
770.787	929.95
770.97	1001.63
771.152	936.09
771.335	983.2
771.518	905.37
771.7	962.72
771.883	960.67
772.066	888.99
772.248	903.32
772.431	837.79
772.613	962.72
772.796	895.13
772.978	837.79
773.161	915.61
773.343	856.22
773.526	897.18
773.708	837.79
773.891	888.99
774.073	905.37
774.256	850.08
774.438	833.69
774.621	811.17
774.803	780.45
774.985	774.3
775.168	854.17
775.35	725.15
775.532	823.45
775.715	813.21
775.897	768.16
776.079	759.97
776.261	800.93
776.444	784.54
776.626	731.3
776.808	745.63
776.99	741.54
777.173	862.37
777.355	727.2
777.537	665.76
777.719	659.62
777.901	733.34
778.083	784.54
778.265	700.58
778.447	733.34
778.629	727.2
778.811	725.15
778.993	686.24
779.175	694.43
779.357	735.39
779.539	643.23
779.721	725.15
779.903	698.53
780.085	637.09
780.267	587.94
780.449	684.19
780.631	657.57
780.812	630.95
780.994	641.18
781.176	575.65
781.358	577.7
781.54	671.9
781.721	589.99
781.903	673.95
782.085	567.46
782.267	608.42
782.448	561.31
782.63	585.89
782.812	628.9
782.993	604.32
783.175	604.32
783.357	563.36
783.538	501.92
783.72	551.07
783.901	604.32
784.083	493.73
784.264	561.31
784.446	454.82
784.627	473.25
784.809	594.08
784.99	442.53
785.172	510.11
785.353	436.39
785.535	528.55
785.716	444.58
785.897	444.58
786.079	510.11
786.26	452.77
786.441	436.39
786.623	379.04
786.804	403.62
786.985	436.39
787.167	438.44
787.348	534.69
787.529	489.64
787.71	489.64
787.891	501.92
788.073	411.81
788.254	290.98
788.435	506.02
788.616	338.09
788.797	358.57
788.978	422.05
789.159	440.48
789.34	366.76
789.522	372.9
789.703	413.86
789.884	415.91
790.065	424.1
790.246	469.16
790.427	397.48
790.607	428.2
790.788	403.62
790.969	317.61
791.15	354.47
791.331	325.8
791.512	370.85
791.693	315.56
791.874	409.76
792.054	383.14
792.235	422.05
792.416	338.09
792.597	305.32
792.778	407.72
792.958	264.36
793.139	338.09
793.32	319.65
793.5	338.09
793.681	420
793.862	321.7
794.042	385.19
794.223	239.78
794.404	319.65
794.584	252.07
794.765	379.04
794.945	293.03
795.126	323.75
795.306	411.81
795.487	340.13
795.667	387.24
795.848	280.74
796.028	231.59
796.209	321.7
796.389	315.56
796.57	366.76
796.75	315.56
796.93	297.13
797.111	260.26
797.291	317.61
797.471	290.98
797.652	260.26
797.832	186.54
798.012	295.08
798.192	258.21
798.373	196.78
798.553	274.6
798.733	260.26
798.913	247.97
799.093	260.26
799.274	209.06
799.454	307.37
799.634	340.13
799.814	256.17
799.994	262.31
800.174	299.17
800.354	299.17
800.534	241.83
800.714	174.25
800.894	319.65
801.074	215.21
801.254	241.83
801.434	299.17
801.614	250.02
801.794	176.3
801.974	805.02
802.154	186.54
802.334	235.69
802.514	207.02
802.693	241.83
802.873	233.64
803.053	221.35
803.233	225.45
803.413	200.87
803.592	245.93
803.772	274.6
803.952	209.06
804.131	209.06
804.311	264.36
804.491	200.87
804.67	207.02
804.85	108.71
805.03	252.07
805.209	219.3
805.389	186.54
805.568	227.5
805.748	225.45
805.928	190.63
806.107	196.78
806.287	200.87
806.466	258.21
806.646	237.74
806.825	239.78
807.004	207.02
807.184	237.74
807.363	198.82
807.543	229.54
807.722	231.59
807.901	174.25
808.081	184.49
808.26	133.29
808.439	176.3
808.619	159.91
808.798	209.06
808.977	237.74
809.156	241.83
809.336	198.82
809.515	209.06
809.694	209.06
809.873	157.86
810.052	157.86
810.231	200.87
810.411	129.19
810.59	243.88
810.769	135.34
810.948	207.02
811.127	118.95
811.306	104.62
811.485	180.39
811.664	178.34
811.843	178.34
812.022	153.77
812.201	143.53
812.38	112.81
812.559	141.48
812.737	196.78
812.916	133.29
813.095	231.59
813.274	153.77
813.453	143.53
813.632	186.54
813.811	168.1
813.989	69.8
814.168	227.5
814.347	184.49
814.526	143.53
814.704	190.63
814.883	190.63
815.062	55.47
815.24	190.63
815.419	161.96
815.598	123.05
815.776	127.14
815.955	112.81
816.133	141.48
816.312	184.49
816.49	88.23
816.669	194.73
816.847	80.04
817.026	157.86
817.204	127.14
817.383	149.67
817.561	51.37
817.74	166.06
817.918	116.9
818.097	157.86
818.275	149.67
818.453	145.58
818.632	188.58
818.81	61.61
818.988	71.85
819.167	149.67
819.345	116.9
819.523	104.62
819.701	133.29
819.879	84.14
820.058	188.58
820.236	137.38
820.414	133.29
820.592	174.25
820.77	141.48
820.948	75.95
821.127	94.38
821.305	182.44
821.483	80.04
821.661	114.86
821.839	53.42
822.017	121
822.195	39.08
822.373	186.54
822.551	92.33
822.729	116.9
822.907	116.9
823.085	186.54
823.262	96.43
823.44	159.91
823.618	112.81
823.796	147.62
823.974	106.67
824.152	153.77
824.329	84.14
824.507	100.52
824.685	127.14
824.863	141.48
825.04	151.72
825.218	116.9
825.396	77.99
825.574	86.19
825.751	84.14
825.929	129.19
826.107	37.03
826.284	123.05
826.462	100.52
826.639	116.9
826.817	92.33
826.994	108.71
827.172	65.71
827.349	145.58
827.527	108.71
827.704	137.38
827.882	125.1
828.059	133.29
828.237	55.47
828.414	161.96
828.591	84.14
828.769	100.52
828.946	53.42
829.124	121
829.301	61.61
829.478	37.03
829.655	100.52
829.833	61.61
830.01	24.75
830.187	51.37
830.364	80.04
830.542	100.52
830.719	55.47
830.896	100.52
831.073	80.04
831.25	157.86
831.427	51.37
831.604	51.37
831.782	80.04
831.959	114.86
832.136	127.14
832.313	45.23
832.49	55.47
832.667	59.56
832.844	47.27
833.021	77.99
833.198	69.8
833.374	67.75
833.551	47.27
833.728	2.22
833.905	114.86
834.082	0.17
834.259	2.22
834.436	67.75
834.612	45.23
834.789	153.77
834.966	67.75
835.143	145.58
835.319	-1.88
835.496	153.77
835.673	88.23
835.85	112.81
836.026	47.27
836.203	92.33
836.38	39.08
836.556	88.23
836.733	10.41
836.909	96.43
837.086	75.95
837.262	43.18
837.439	39.08
837.616	-20.31
837.792	86.19
837.968	37.03
838.145	18.6
838.321	34.99
838.498	96.43
838.674	4.27
838.851	59.56
839.027	34.99
839.203	108.71
839.38	86.19
839.556	55.47
839.732	55.47
839.909	26.79
840.085	-1.88
840.261	51.37
840.437	112.81
840.614	37.03
840.79	84.14
840.966	37.03
841.142	69.8
841.318	59.56
841.494	20.65
841.671	2.22
841.847	12.46
842.023	10.41
842.199	75.95
842.375	0.17
842.551	41.13
842.727	59.56
842.903	116.9
843.079	-28.5
843.255	51.37
843.431	-5.97
843.607	67.75
843.783	-46.93
843.959	2.22
844.134	45.23
844.31	59.56
844.486	39.08
844.662	10.41
844.838	75.95
845.013	63.66
845.189	49.32
845.365	-48.98
845.541	108.71
845.716	49.32
845.892	51.37
846.068	84.14
846.244	12.46
846.419	53.42
846.595	28.84
846.77	12.46
846.946	-22.36
847.122	30.89
847.297	71.85
847.473	166.06
847.648	2.22
847.824	34.99
847.999	-1.88
848.175	67.75
848.35	32.94
848.526	73.9
848.701	45.23
848.876	32.94
849.052	-8.02
849.227	34.99
849.403	34.99
849.578	112.81
849.753	30.89
849.929	92.33
850.104	30.89
850.279	59.56
850.454	59.56
850.63	12.46
850.805	100.52
850.98	-10.07
851.155	-73.56
851.33	26.79
851.505	-20.31
851.681	73.9
851.856	-5.97
852.031	18.6
852.206	39.08
852.381	-12.12
852.556	-5.97
852.731	61.61
852.906	104.62
853.081	100.52
853.256	67.75
853.431	43.18
853.606	10.41
853.781	-28.5
853.956	24.75
854.131	34.99
854.305	-55.12
854.48	43.18
854.655	37.03
854.83	2.22
855.005	108.71
855.18	43.18
855.354	-14.17
855.529	14.51
855.704	37.03
855.879	8.36
856.053	18.6
856.228	18.6
856.403	-1.88
856.577	16.55
856.752	-5.97
856.926	26.79
857.101	24.75
857.276	24.75
857.45	14.51
857.625	77.99
857.799	10.41
857.974	4.27
858.148	-20.31
858.323	55.47
858.497	34.99
858.672	-38.74
858.846	-53.08
859.02	6.31
859.195	71.85
859.369	-36.69
859.543	-3.93
859.718	112.81
859.892	51.37
860.066	-18.26
860.241	71.85
860.415	-5.97
860.589	37.03
860.763	-22.36
860.938	-28.5
861.112	67.75
861.286	4.27
861.46	34.99
861.634	47.27
861.808	10.41
861.982	10.41
862.157	-61.27
862.331	-5.97
862.505	-46.93
862.679	4.27
862.853	-16.21
863.027	6.31
863.201	37.03
863.375	-14.17
863.549	34.99
863.722	45.23
863.896	0.17
864.07	34.99
864.244	30.89
864.418	26.79
864.592	-79.7
864.766	2.22
864.939	-20.31
865.113	-34.64
865.287	14.51
865.461	-46.93
865.634	-38.74
865.808	-16.21
865.982	10.41
866.156	18.6
866.329	18.6
866.503	69.8
866.676	127.14
866.85	-55.12
867.024	47.27
867.197	-16.21
867.371	-5.97
867.544	10.41
867.718	67.75
867.891	26.79
868.065	14.51
868.238	-30.55
868.412	100.52
868.585	8.36
868.759	12.46
868.932	37.03
869.105	4.27
869.279	-24.4
869.452	12.46
869.625	10.41
869.799	2.22
869.972	-14.17
870.145	59.56
870.319	43.18
870.492	-26.45
870.665	34.99
870.838	10.41
871.011	-3.93
871.185	2.22
871.358	-10.07
871.531	45.23
871.704	-24.4
871.877	-14.17
872.05	63.66
872.223	2.22
872.396	82.09
872.569	84.14
872.742	-79.7
872.915	26.79
873.088	-36.69
873.261	-51.03
873.434	55.47
873.607	-14.17
873.78	20.65
873.953	28.84
874.126	-59.22
874.299	57.51
874.471	-16.21
874.644	8.36
874.817	-42.84
874.99	12.46
875.163	67.75
875.335	28.84
875.508	-22.36
875.681	18.6
875.853	-5.97
876.026	26.79
876.199	-14.17
876.371	18.6
876.544	-3.93
876.717	2.22
876.889	34.99
877.062	75.95
877.234	-18.26
877.407	-34.64
877.579	-14.17
877.752	22.7
877.924	-75.6
878.097	20.65
878.269	-30.55
878.442	75.95
878.614	26.79
878.786	-67.41
878.959	108.71
879.131	-20.31
879.303	2.22
879.476	2.22
879.648	-20.31
879.82	-18.26
879.993	-28.5
880.165	-1.88
880.337	-51.03
880.509	26.79
880.681	26.79
880.854	-22.36
881.026	34.99
881.198	51.37
881.37	-12.12
881.542	-1.88
881.714	-38.74
881.886	-10.07
882.058	32.94
882.23	12.46
882.402	-5.97
882.574	37.03
882.746	6.31
882.918	-5.97
883.09	49.32
883.262	-18.26
883.434	2.22
883.606	-59.22
883.778	-34.64
883.95	110.76
884.122	-38.74
884.293	26.79
884.465	-30.55
884.637	45.23
884.809	-69.46
884.98	26.79
885.152	24.75
885.324	-55.12
885.496	-18.26
885.667	34.99
885.839	-51.03
886.011	67.75
886.182	22.7
886.354	2.22
886.525	34.99
886.697	39.08
886.869	43.18
887.04	-1.88
887.212	6.31
887.383	4.27
887.555	-18.26
887.726	-12.12
887.897	-44.88
888.069	0.17
888.24	22.7
888.412	-22.36
888.583	37.03
888.754	37.03
888.926	-18.26
889.097	6.31
889.268	-81.75
889.44	22.7
889.611	-3.93
889.782	-3.93
889.953	-67.41
890.125	30.89
890.296	-20.31
890.467	-22.36
890.638	-42.84
890.809	18.6
890.98	-22.36
891.151	71.85
891.323	59.56
891.494	26.79
891.665	-77.65
891.836	26.79
892.007	8.36
892.178	-18.26
892.349	4.27
892.52	-63.32
892.691	18.6
892.862	-10.07
893.032	16.55
893.203	28.84
893.374	-38.74
893.545	45.23
893.716	-42.84
893.887	8.36
894.057	-46.93
894.228	-3.93
894.399	-69.46
894.57	10.41
894.74	8.36
894.911	22.7
895.082	-28.5
895.253	-38.74
895.423	20.65
895.594	10.41
895.764	18.6
895.935	-38.74
896.106	59.56
896.276	59.56
896.447	-61.27
896.617	-18.26
896.788	-22.36
896.958	22.7
897.129	28.84
897.299	-28.5
897.47	10.41
897.64	-16.21
897.81	2.22
897.981	-1.88
898.151	-46.93
898.322	18.6
898.492	84.14
898.662	-30.55
898.832	26.79
899.003	22.7
899.173	47.27
899.343	4.27
899.513	20.65
