Data from USB4F104151__103__14-43-41-592.txt Node

Date: Thu Mar 13 14:43:41 EDT 2025
User: louis
Spectrometer: USB4F10415
Trigger mode: 4
Integration Time (sec): 2.000000E-2
Scans to average: 1
Electric dark correction enabled: true
Nonlinearity correction enabled: false
Boxcar width: 0
XAxis mode: Wavelengths
Number of Pixels in Spectrum: 3648
>>>>>Begin Spectral Data<<<<<
178.204	-134.14
178.424	-134.14
178.644	-134.14
178.864	-171.01
179.084	-162.81
179.304	-54.27
179.524	1.02
179.744	-44.03
179.964	-3.07
180.184	27.65
180.404	-60.42
180.624	19.46
180.844	44.03
181.064	-21.5
181.283	101.37
181.503	-21.5
181.723	11.26
181.943	-31.74
182.163	95.23
182.383	23.55
182.602	13.31
182.822	66.56
183.042	3.07
183.262	1.02
183.482	-29.7
183.701	13.31
183.921	-21.5
184.141	-39.94
184.361	9.22
184.58	-35.84
184.8	-3.07
185.02	3.07
185.239	1.02
185.459	46.08
185.679	91.13
185.898	17.41
186.118	11.26
186.338	-80.89
186.557	29.7
186.777	-56.32
186.997	44.03
187.216	-33.79
187.436	15.36
187.655	3.07
187.875	1.02
188.095	-58.37
188.314	76.8
188.534	62.46
188.753	-7.17
188.973	66.56
189.192	44.03
189.412	27.65
189.631	-19.46
189.851	-44.03
190.07	54.27
190.29	-13.31
190.509	41.98
190.729	-56.32
190.948	50.18
191.168	99.33
191.387	19.46
191.607	-56.32
191.826	33.79
192.045	33.79
192.265	-87.04
192.484	-41.98
192.704	19.46
192.923	74.75
193.142	97.28
193.362	54.27
193.581	-9.22
193.8	5.12
194.02	29.7
194.239	13.31
194.458	-7.17
194.678	19.46
194.897	-39.94
195.116	33.79
195.335	17.41
195.555	-23.55
195.774	-15.36
195.993	39.94
196.212	58.37
196.432	35.84
196.651	25.6
196.87	-11.26
197.089	74.75
197.308	29.7
197.528	5.12
197.747	-15.36
197.966	25.6
198.185	84.99
198.404	29.7
198.623	99.33
198.842	62.46
199.062	64.51
199.281	72.7
199.5	19.46
199.719	9.22
199.938	25.6
200.157	125.95
200.376	66.56
200.595	3.07
200.814	72.7
201.033	23.55
201.252	31.74
201.471	-17.41
201.69	1.02
201.909	33.79
202.128	68.61
202.347	-21.5
202.566	9.22
202.785	19.46
203.004	29.7
203.223	78.85
203.442	-13.31
203.661	-13.31
203.879	103.42
204.098	78.85
204.317	-103.42
204.536	-25.6
204.755	-3.07
204.974	44.03
205.193	68.61
205.411	91.13
205.63	-13.31
205.849	68.61
206.068	33.79
206.287	119.81
206.505	5.12
206.724	5.12
206.943	-62.46
207.162	-39.94
207.381	-29.7
207.599	-21.5
207.818	-7.17
208.037	9.22
208.255	58.37
208.474	58.37
208.693	-52.22
208.911	25.6
209.13	-19.46
209.349	103.42
209.567	33.79
209.786	128
210.005	-21.5
210.223	-37.89
210.442	-13.31
210.661	117.76
210.879	-70.65
211.098	41.98
211.316	1.02
211.535	-31.74
211.753	11.26
211.972	58.37
212.191	-17.41
212.409	-29.7
212.628	46.08
212.846	3.07
213.065	1.02
213.283	41.98
213.502	-39.94
213.72	9.22
213.938	9.22
214.157	25.6
214.375	58.37
214.594	9.22
214.812	3.07
215.031	-29.7
215.249	33.79
215.467	29.7
215.686	27.65
215.904	19.46
216.122	27.65
216.341	50.18
216.559	13.31
216.778	-44.03
216.996	41.98
217.214	-27.65
217.432	-89.09
217.651	9.22
217.869	35.84
218.087	-39.94
218.306	5.12
218.524	50.18
218.742	-89.09
218.96	-7.17
219.179	-13.31
219.397	9.22
219.615	35.84
219.833	1.02
220.051	23.55
220.27	29.7
220.488	74.75
220.706	9.22
220.924	-21.5
221.142	27.65
221.36	-1.02
221.578	50.18
221.796	66.56
222.015	27.65
222.233	25.6
222.451	62.46
222.669	-93.18
222.887	82.94
223.105	-46.08
223.323	3.07
223.541	-62.46
223.759	7.17
223.977	33.79
224.195	48.13
224.413	44.03
224.631	-7.17
224.849	-13.31
225.067	9.22
225.285	-44.03
225.503	25.6
225.721	-11.26
225.939	-62.46
226.157	-25.6
226.375	87.04
226.592	-17.41
226.81	17.41
227.028	41.98
227.246	-3.07
227.464	-19.46
227.682	91.13
227.9	39.94
228.117	82.94
228.335	33.79
228.553	1.02
228.771	19.46
228.989	1.02
229.206	-58.37
229.424	44.03
229.642	21.5
229.86	1.02
230.077	17.41
230.295	78.85
230.513	3.07
230.731	9.22
230.948	113.66
231.166	58.37
231.384	3.07
231.601	-13.31
231.819	-29.7
232.037	37.89
232.254	5.12
232.472	-15.36
232.689	5.12
232.907	35.84
233.125	-27.65
233.342	33.79
233.56	-11.26
233.777	76.8
233.995	-5.12
234.213	33.79
234.43	91.13
234.648	27.65
234.865	-1.02
235.083	46.08
235.3	68.61
235.518	-37.89
235.735	62.46
235.953	48.13
236.17	19.46
236.388	-15.36
236.605	9.22
236.822	91.13
237.04	13.31
237.257	-13.31
237.475	-5.12
237.692	52.22
237.909	-82.94
238.127	-7.17
238.344	17.41
238.562	68.61
238.779	5.12
238.996	46.08
239.214	-50.18
239.431	19.46
239.648	-58.37
239.865	46.08
240.083	33.79
240.3	-13.31
240.517	-52.22
240.735	-44.03
240.952	19.46
241.169	52.22
241.386	35.84
241.603	25.6
241.821	19.46
242.038	76.8
242.255	11.26
242.472	-23.55
242.689	21.5
242.907	33.79
243.124	3.07
243.341	-21.5
243.558	-23.55
243.775	11.26
243.992	-5.12
244.209	-62.46
244.426	33.79
244.643	25.6
244.86	23.55
245.078	-15.36
245.295	-23.55
245.512	52.22
245.729	33.79
245.946	29.7
246.163	-25.6
246.38	33.79
246.597	-7.17
246.814	-39.94
247.031	23.55
247.248	-23.55
247.464	29.7
247.681	-56.32
247.898	-11.26
248.115	-11.26
248.332	1.02
248.549	27.65
248.766	54.27
248.983	3.07
249.2	-11.26
249.417	58.37
249.633	-3.07
249.85	-7.17
250.067	11.26
250.284	52.22
250.501	9.22
250.717	33.79
250.934	-23.55
251.151	-15.36
251.368	-48.13
251.585	17.41
251.801	25.6
252.018	54.27
252.235	-7.17
252.451	15.36
252.668	-7.17
252.885	50.18
253.102	-31.74
253.318	-23.55
253.535	3.07
253.752	-60.42
253.968	-19.46
254.185	7.17
254.401	33.79
254.618	25.6
254.835	-29.7
255.051	76.8
255.268	-15.36
255.484	-31.74
255.701	7.17
255.917	-21.5
256.134	-82.94
256.351	-21.5
256.567	-89.09
256.784	-3.07
257	19.46
257.217	44.03
257.433	17.41
257.65	64.51
257.866	44.03
258.082	17.41
258.299	-9.22
258.515	-23.55
258.732	1.02
258.948	-56.32
259.165	-31.74
259.381	-41.98
259.597	80.89
259.814	-11.26
260.03	19.46
260.246	66.56
260.463	70.65
260.679	46.08
260.895	21.5
261.112	11.26
261.328	50.18
261.544	-72.7
261.761	66.56
261.977	-11.26
262.193	-39.94
262.409	1.02
262.626	23.55
262.842	78.85
263.058	-39.94
263.274	50.18
263.49	52.22
263.707	3.07
263.923	-7.17
264.139	-72.7
264.355	-13.31
264.571	1.02
264.787	39.94
265.004	82.94
265.22	17.41
265.436	-19.46
265.652	25.6
265.868	-13.31
266.084	-46.08
266.3	44.03
266.516	17.41
266.732	13.31
266.948	25.6
267.164	-48.13
267.38	52.22
267.596	46.08
267.812	44.03
268.028	-58.37
268.244	-5.12
268.46	-21.5
268.676	-5.12
268.892	7.17
269.108	41.98
269.324	1.02
269.54	-9.22
269.756	-44.03
269.972	-17.41
270.188	52.22
270.403	-1.02
270.619	23.55
270.835	5.12
271.051	-29.7
271.267	-68.61
271.483	-72.7
271.698	50.18
271.914	29.7
272.13	70.65
272.346	3.07
272.562	-39.94
272.777	31.74
272.993	-11.26
273.209	1.02
273.425	19.46
273.64	-31.74
273.856	44.03
274.072	-27.65
274.287	-17.41
274.503	19.46
274.719	107.52
274.934	1.02
275.15	-54.27
275.366	35.84
275.581	-1.02
275.797	44.03
276.012	-74.75
276.228	-11.26
276.444	39.94
276.659	29.7
276.875	9.22
277.09	-7.17
277.306	-89.09
277.521	9.22
277.737	-3.07
277.952	82.94
278.168	15.36
278.383	1.02
278.599	52.22
278.814	25.6
279.03	-15.36
279.245	46.08
279.461	9.22
279.676	-39.94
279.892	-44.03
280.107	3.07
280.322	-21.5
280.538	1.02
280.753	-56.32
280.969	13.31
281.184	-15.36
281.399	37.89
281.615	17.41
281.83	87.04
282.045	-15.36
282.26	-29.7
282.476	74.75
282.691	25.6
282.906	-25.6
283.122	-23.55
283.337	-31.74
283.552	-31.74
283.767	-37.89
283.983	21.5
284.198	-1.02
284.413	70.65
284.628	-52.22
284.843	-23.55
285.058	44.03
285.274	9.22
285.489	-31.74
285.704	41.98
285.919	-5.12
286.134	-23.55
286.349	41.98
286.564	35.84
286.779	66.56
286.995	19.46
287.21	25.6
287.425	-7.17
287.64	-5.12
287.855	1.02
288.07	-7.17
288.285	84.99
288.5	99.33
288.715	50.18
288.93	17.41
289.145	9.22
289.36	21.5
289.575	-68.61
289.79	21.5
290.004	-56.32
290.219	-29.7
290.434	-11.26
290.649	15.36
290.864	-13.31
291.079	-27.65
291.294	41.98
291.509	74.75
291.724	41.98
291.938	25.6
292.153	-3.07
292.368	35.84
292.583	13.31
292.798	33.79
293.012	3.07
293.227	17.41
293.442	-80.89
293.657	27.65
293.871	99.33
294.086	9.22
294.301	25.6
294.516	9.22
294.73	23.55
294.945	50.18
295.16	11.26
295.374	-15.36
295.589	76.8
295.804	-62.46
296.018	-35.84
296.233	9.22
296.447	1.02
296.662	35.84
296.877	111.61
297.091	33.79
297.306	-13.31
297.52	-60.42
297.735	-13.31
297.949	-9.22
298.164	99.33
298.378	35.84
298.593	-3.07
298.807	-19.46
299.022	58.37
299.236	-15.36
299.451	29.7
299.665	-19.46
299.88	-39.94
300.094	-3.07
300.309	33.79
300.523	-46.08
300.737	41.98
300.952	3.07
301.166	33.79
301.381	-84.99
301.595	33.79
301.809	72.7
302.024	35.84
302.238	1.02
302.452	41.98
302.667	44.03
302.881	58.37
303.095	-46.08
303.309	3.07
303.524	9.22
303.738	46.08
303.952	35.84
304.166	66.56
304.381	-70.65
304.595	19.46
304.809	-76.8
305.023	-23.55
305.237	-15.36
305.452	27.65
305.666	17.41
305.88	-9.22
306.094	-25.6
306.308	29.7
306.522	-5.12
306.736	41.98
306.95	33.79
307.164	-17.41
307.379	-52.22
307.593	11.26
307.807	-15.36
308.021	37.89
308.235	35.84
308.449	58.37
308.663	3.07
308.877	11.26
309.091	1.02
309.305	17.41
309.519	9.22
309.733	25.6
309.947	-3.07
310.161	29.7
310.374	70.65
310.588	46.08
310.802	-3.07
311.016	-7.17
311.23	-19.46
311.444	17.41
311.658	1.02
311.872	-48.13
312.085	37.89
312.299	62.46
312.513	-7.17
312.727	52.22
312.941	9.22
313.154	-3.07
313.368	37.89
313.582	74.75
313.796	3.07
314.009	-27.65
314.223	37.89
314.437	68.61
314.651	46.08
314.864	17.41
315.078	-15.36
315.292	-15.36
315.505	41.98
315.719	-21.5
315.933	-21.5
316.146	33.79
316.36	-27.65
316.573	68.61
316.787	23.55
317.001	70.65
317.214	23.55
317.428	-7.17
317.641	19.46
317.855	-1.02
318.068	74.75
318.282	-21.5
318.495	-15.36
318.709	-5.12
318.922	-39.94
319.136	70.65
319.349	74.75
319.563	-23.55
319.776	9.22
319.99	-39.94
320.203	31.74
320.417	66.56
320.63	-3.07
320.843	70.65
321.057	-58.37
321.27	72.7
321.483	11.26
321.697	1.02
321.91	17.41
322.124	9.22
322.337	-1.02
322.55	17.41
322.763	21.5
322.977	-3.07
323.19	39.94
323.403	-5.12
323.617	21.5
323.83	13.31
324.043	68.61
324.256	17.41
324.469	-52.22
324.683	41.98
324.896	-29.7
325.109	41.98
325.322	33.79
325.535	27.65
325.748	35.84
325.962	50.18
326.175	46.08
326.388	58.37
326.601	80.89
326.814	41.98
327.027	9.22
327.24	105.47
327.453	23.55
327.666	80.89
327.879	-15.36
328.092	23.55
328.305	11.26
328.518	-7.17
328.731	-23.55
328.944	-27.65
329.157	33.79
329.37	-5.12
329.583	33.79
329.796	29.7
330.009	-37.89
330.222	27.65
330.435	-48.13
330.648	54.27
330.861	1.02
331.073	33.79
331.286	29.7
331.499	-7.17
331.712	-11.26
331.925	-29.7
332.138	60.42
332.35	64.51
332.563	52.22
332.776	-21.5
332.989	1.02
333.202	9.22
333.414	29.7
333.627	27.65
333.84	41.98
334.053	41.98
334.265	-5.12
334.478	5.12
334.691	121.85
334.903	41.98
335.116	17.41
335.329	58.37
335.541	64.51
335.754	41.98
335.966	29.7
336.179	11.26
336.392	-21.5
336.604	-15.36
336.817	76.8
337.029	19.46
337.242	5.12
337.454	46.08
337.667	5.12
337.88	148.48
338.092	74.75
338.305	-7.17
338.517	62.46
338.729	-3.07
338.942	19.46
339.154	-3.07
339.367	9.22
339.579	-9.22
339.792	-115.71
340.004	25.6
340.217	5.12
340.429	46.08
340.641	-15.36
340.854	-23.55
341.066	33.79
341.278	41.98
341.491	95.23
341.703	48.13
341.915	-82.94
342.128	25.6
342.34	50.18
342.552	58.37
342.764	9.22
342.977	-13.31
343.189	50.18
343.401	-54.27
343.613	-35.84
343.826	50.18
344.038	-27.65
344.25	35.84
344.462	17.41
344.674	33.79
344.886	9.22
345.099	82.94
345.311	-29.7
345.523	76.8
345.735	-19.46
345.947	27.65
346.159	39.94
346.371	1.02
346.583	-103.42
346.795	46.08
347.007	66.56
347.219	11.26
347.431	17.41
347.643	33.79
347.855	-1.02
348.067	13.31
348.279	-5.12
348.491	25.6
348.703	23.55
348.915	27.65
349.127	-66.56
349.339	-31.74
349.551	39.94
349.763	-13.31
349.975	-27.65
350.187	80.89
350.399	76.8
350.61	58.37
350.822	35.84
351.034	17.41
351.246	72.7
351.458	15.36
351.669	-3.07
351.881	39.94
352.093	37.89
352.305	62.46
352.517	25.6
352.728	101.37
352.94	-35.84
353.152	35.84
353.363	78.85
353.575	66.56
353.787	70.65
353.999	17.41
354.21	72.7
354.422	-54.27
354.633	-80.89
354.845	41.98
355.057	-19.46
355.268	70.65
355.48	-27.65
355.692	-23.55
355.903	91.13
356.115	-7.17
356.326	25.6
356.538	91.13
356.749	68.61
356.961	46.08
357.172	-3.07
357.384	-48.13
357.595	105.47
357.807	-13.31
358.018	13.31
358.23	-3.07
358.441	68.61
358.653	21.5
358.864	25.6
359.075	46.08
359.287	82.94
359.498	33.79
359.709	33.79
359.921	54.27
360.132	91.13
360.344	-39.94
360.555	-5.12
360.766	-56.32
360.977	5.12
361.189	103.42
361.4	23.55
361.611	9.22
361.823	89.09
362.034	37.89
362.245	-74.75
362.456	-7.17
362.667	78.85
362.879	72.7
363.09	95.23
363.301	76.8
363.512	37.89
363.723	25.6
363.935	66.56
364.146	27.65
364.357	84.99
364.568	41.98
364.779	52.22
364.99	91.13
365.201	52.22
365.412	52.22
365.623	-44.03
365.834	50.18
366.045	19.46
366.256	41.98
366.467	9.22
366.678	19.46
366.889	13.31
367.1	17.41
367.311	66.56
367.522	119.81
367.733	37.89
367.944	-31.74
368.155	3.07
368.366	50.18
368.577	89.09
368.788	-37.89
368.999	13.31
369.209	58.37
369.42	41.98
369.631	56.32
369.842	-39.94
370.053	35.84
370.264	101.37
370.474	-56.32
370.685	9.22
370.896	66.56
371.107	66.56
371.317	13.31
371.528	3.07
371.739	44.03
371.95	-19.46
372.16	19.46
372.371	58.37
372.582	27.65
372.792	41.98
373.003	46.08
373.214	58.37
373.424	76.8
373.635	-5.12
373.846	66.56
374.056	-39.94
374.267	82.94
374.477	33.79
374.688	-13.31
374.898	-21.5
375.109	58.37
375.319	-15.36
375.53	37.89
375.74	31.74
375.951	80.89
376.161	27.65
376.372	-29.7
376.582	3.07
376.793	-11.26
377.003	37.89
377.214	-27.65
377.424	-3.07
377.635	91.13
377.845	-17.41
378.055	66.56
378.266	19.46
378.476	9.22
378.686	-23.55
378.897	41.98
379.107	93.18
379.317	33.79
379.528	-13.31
379.738	60.42
379.948	-7.17
380.158	99.33
380.369	66.56
380.579	9.22
380.789	3.07
380.999	91.13
381.21	93.18
381.42	107.52
381.63	33.79
381.84	107.52
382.05	35.84
382.261	82.94
382.471	-7.17
382.681	46.08
382.891	33.79
383.101	17.41
383.311	-31.74
383.521	17.41
383.731	41.98
383.941	1.02
384.151	23.55
384.361	17.41
384.571	58.37
384.781	44.03
384.991	62.46
385.201	123.9
385.411	33.79
385.621	74.75
385.831	-7.17
386.041	62.46
386.251	44.03
386.461	27.65
386.671	-5.12
386.881	11.26
387.091	39.94
387.301	103.42
387.511	41.98
387.72	29.7
387.93	3.07
388.14	-1.02
388.35	33.79
388.56	58.37
388.769	103.42
388.979	46.08
389.189	-3.07
389.399	29.7
389.609	50.18
389.818	62.46
390.028	19.46
390.238	115.71
390.447	-23.55
390.657	82.94
390.867	-15.36
391.076	48.13
391.286	60.42
391.496	39.94
391.705	37.89
391.915	13.31
392.125	-25.6
392.334	41.98
392.544	82.94
392.753	9.22
392.963	58.37
393.172	64.51
393.382	46.08
393.591	76.8
393.801	5.12
394.01	27.65
394.22	58.37
394.429	21.5
394.639	50.18
394.848	128
395.058	91.13
395.267	115.71
395.477	111.61
395.686	31.74
395.895	62.46
396.105	97.28
396.314	54.27
396.524	103.42
396.733	91.13
396.942	68.61
397.152	156.67
397.361	91.13
397.57	103.42
397.78	33.79
397.989	46.08
398.198	52.22
398.407	44.03
398.617	93.18
398.826	101.37
399.035	52.22
399.244	99.33
399.453	113.66
399.663	78.85
399.872	74.75
400.081	41.98
400.29	140.29
400.499	27.65
400.708	119.81
400.917	41.98
401.127	134.14
401.336	99.33
401.545	35.84
401.754	80.89
401.963	91.13
402.172	21.5
402.381	41.98
402.59	-5.12
402.799	58.37
403.008	82.94
403.217	132.09
403.426	60.42
403.635	74.75
403.844	84.99
404.053	175.1
404.262	50.18
404.471	132.09
404.68	160.77
404.888	115.71
405.097	44.03
405.306	191.49
405.515	146.43
405.724	107.52
405.933	128
406.142	99.33
406.35	125.95
406.559	93.18
406.768	72.7
406.977	144.38
407.185	164.86
407.394	160.77
407.603	154.62
407.812	179.2
408.02	197.63
408.229	160.77
408.438	197.63
408.646	142.33
408.855	138.24
409.064	246.78
409.272	222.2
409.481	246.78
409.69	265.21
409.898	230.4
410.107	197.63
410.315	246.78
410.524	238.59
410.733	232.44
410.941	183.29
411.15	246.78
411.358	316.41
411.567	347.13
411.775	261.12
411.984	353.27
412.192	377.85
412.401	324.6
412.609	445.43
412.818	437.24
413.026	345.08
413.234	316.41
413.443	377.85
413.651	357.37
413.86	562.17
414.068	455.67
414.276	459.77
414.485	517.11
414.693	533.5
414.901	525.3
415.11	584.7
415.318	592.89
415.526	574.46
415.734	582.65
415.943	625.65
416.151	568.31
416.359	590.84
416.567	689.14
416.776	728.05
416.984	754.68
417.192	871.41
417.4	828.4
417.608	795.64
417.817	740.34
418.025	898.03
418.233	988.14
418.441	910.32
418.649	959.47
418.857	992.24
419.065	1098.74
419.273	1065.97
419.481	1055.73
419.689	1242.09
419.897	1297.39
420.105	1225.71
420.313	1207.28
420.521	1311.72
420.729	1276.91
420.937	1422.31
421.145	1373.16
421.353	1385.45
421.561	1557.48
421.769	1577.96
421.977	1567.72
422.185	1616.87
422.393	1700.84
422.601	1852.39
422.809	1815.52
423.017	1829.86
423.224	1803.24
423.432	1856.48
423.64	2098.14
423.848	2137.06
424.056	2032.61
424.263	2190.3
424.471	2313.18
424.679	2348
424.887	2540.51
425.094	2511.83
425.302	2581.46
425.51	2616.28
425.718	2683.86
425.925	2737.11
426.133	2786.26
426.341	2974.67
426.548	3148.75
426.756	3062.74
426.964	3122.13
427.171	3345.36
427.379	3531.72
427.586	3437.52
427.794	3468.24
428.001	3777.48
428.209	3875.78
428.417	3949.51
428.624	4150.21
428.832	4076.48
429.039	4195.26
429.247	4121.54
429.454	4520.89
429.662	4717.5
429.869	4504.51
430.076	4838.33
430.284	4674.49
430.491	4989.88
430.699	5178.29
430.906	5149.62
431.114	5075.89
431.321	5350.32
431.528	5604.27
431.736	5876.65
431.943	6206.37
432.15	5989.28
432.358	5960.61
432.565	6261.66
432.772	6194.08
432.979	6779.8
433.187	6685.59
433.394	6808.47
433.601	7320.46
433.808	7220.11
434.016	7220.11
434.223	7553.93
434.43	7902.09
434.637	7725.96
434.844	8225.67
435.052	8594.3
435.259	8432.51
435.466	8612.73
435.673	8434.56
435.88	9096.05
436.087	9659.24
436.294	9280.37
436.501	9161.59
436.708	9456.5
436.915	9632.62
437.122	9993.06
437.329	10007.4
437.537	10396.51
437.743	10589.02
437.95	10472.29
438.157	11213.65
438.364	11338.58
438.571	11494.22
438.778	11420.5
438.985	12493.63
439.192	12002.12
439.399	12282.69
439.606	12026.7
439.813	12723.01
440.02	13390.64
440.227	13355.83
440.433	13253.43
440.64	13603.63
440.847	13474.61
441.054	13847.34
441.261	14947.1
441.467	14826.27
441.674	15014.68
441.881	15483.67
442.088	15262.49
442.294	15319.83
442.501	15514.39
442.708	16042.76
442.914	16868.09
443.121	17111.8
443.328	16655.11
443.534	17783.54
443.741	17472.25
443.948	16968.45
444.154	18428.65
444.361	18473.7
444.568	18479.85
444.774	18322.15
444.981	18711.27
445.187	19270.36
445.394	19811.03
445.6	19798.74
445.807	21664.44
446.013	20695.75
446.22	21095.1
446.426	21908.15
446.633	22301.36
446.839	23210.65
447.046	22020.78
447.252	23241.37
447.459	23222.94
447.665	23227.04
447.871	24062.61
448.078	25295.49
448.284	23966.35
448.491	24650.38
448.697	25569.91
448.903	26235.5
449.11	26317.42
449.316	25664.12
449.522	26524.27
449.728	26681.96
449.935	27261.54
450.141	26946.15
450.347	28009.04
450.553	26985.06
450.76	27458.14
450.966	28310.1
451.172	27953.75
451.378	28660.3
451.584	28383.82
451.791	28465.74
451.997	28621.39
452.203	29428.29
452.409	29278.79
452.615	29266.5
452.821	28179.03
453.027	27945.56
453.233	29188.67
453.44	28244.56
453.646	28648.01
453.852	29004.36
454.058	28983.88
454.264	28467.79
454.47	29319.74
454.676	28150.35
454.882	29026.89
455.088	26749.54
455.294	27099.75
455.5	27517.53
455.705	28232.27
455.911	26868.33
456.117	26061.43
456.323	25870.97
456.529	24568.46
456.735	25604.73
456.941	24818.31
457.147	24568.46
457.352	24013.46
457.558	23726.74
457.764	23794.32
457.97	23415.45
458.176	23108.26
458.381	22907.55
458.587	21535.42
458.793	21686.97
458.999	20685.51
459.204	22225.58
459.41	21314.23
459.616	20163.28
459.821	20376.27
460.027	19886.8
460.233	19944.14
460.438	18817.76
460.644	19030.75
460.85	18068.2
461.055	17668.85
461.261	17834.74
461.466	16065.29
461.672	15854.35
461.878	17185.53
462.083	15901.45
462.289	15756.05
462.494	15467.28
462.7	14693.15
462.905	14347.05
463.111	14805.79
463.316	14807.84
463.522	14705.44
463.727	14424.87
463.932	14541.6
464.138	14451.49
464.343	14267.17
464.549	14091.05
464.754	14406.44
464.959	14250.79
465.165	14250.79
465.37	13765.42
465.575	13243.19
465.781	13904.68
465.986	14084.91
466.191	13353.78
466.397	13060.92
466.602	12487.49
466.807	12991.29
467.012	13046.58
467.218	13026.11
467.423	12776.25
467.628	13013.82
467.833	13343.54
468.038	12905.28
468.244	12596.03
468.449	12979
468.654	12714.81
468.859	12444.48
469.064	12419.91
469.269	11762.51
469.474	12051.27
469.679	12485.44
469.885	11752.27
470.09	12165.96
470.295	12108.62
470.5	11567.95
470.705	11778.89
470.91	11500.37
471.115	11502.42
471.32	11805.52
471.525	11488.08
471.73	11338.58
471.935	11271
472.139	10832.73
472.344	11039.58
472.549	10883.93
472.754	10789.72
472.959	10648.41
473.164	10376.03
473.369	10158.95
473.574	10822.49
473.778	10521.44
473.983	10488.67
474.188	10423.14
474.393	9925.48
474.598	9741.16
474.802	9765.74
475.007	9669.48
475.212	9808.75
475.417	9425.78
475.621	9530.22
475.826	9460.59
476.031	9263.99
476.235	9204.6
476.44	9159.54
476.645	8958.84
476.849	9177.97
477.054	9130.87
477.259	8778.62
477.463	8768.38
477.668	8479.61
477.872	8555.39
478.077	8618.88
478.282	8362.88
478.486	8330.11
478.691	8207.23
478.895	8297.35
479.1	8170.37
479.304	8283.01
479.509	7877.51
479.713	8139.65
479.918	8031.11
480.122	7766.92
480.326	8035.21
480.531	7811.98
480.735	7832.46
480.94	7670.67
481.144	8000.39
481.348	7562.12
481.553	7736.2
481.757	7369.62
481.961	7611.28
482.166	7639.95
482.37	7586.7
482.574	7457.68
482.778	7566.22
482.983	7783.31
483.187	7447.44
483.391	7728.01
483.595	7429.01
483.8	7459.73
484.004	7840.65
484.208	7703.43
484.412	7547.79
484.616	7439.25
484.821	7457.68
485.025	7578.51
485.229	7644.04
485.433	7480.21
485.637	7486.35
485.841	7289.74
486.045	7617.42
486.249	7472.01
486.453	7420.81
486.657	7449.49
486.861	7676.81
487.065	7254.93
487.269	7523.21
487.473	7328.66
487.677	7541.64
487.881	7742.35
488.085	7472.01
488.289	7431.05
488.493	7576.46
488.697	7642
488.901	7429.01
489.105	7449.49
489.309	7426.96
489.512	7654.28
489.716	7574.41
489.92	7605.13
490.124	7388.05
490.328	7885.7
490.531	7674.76
490.735	7674.76
490.939	7801.74
491.143	7697.29
491.346	7738.25
491.55	7906.18
491.754	7840.65
491.958	8006.53
492.161	7824.26
492.365	7932.81
492.569	7934.85
492.772	7877.51
492.976	8119.17
493.18	7906.18
493.383	8184.71
493.587	8164.23
493.79	8256.39
493.994	7986.05
494.197	8266.63
494.401	8342.4
494.605	8178.56
494.808	8348.54
495.012	8489.85
495.215	8610.68
495.419	8440.7
495.622	8426.37
495.825	8698.75
496.029	8795
496.232	8909.69
496.436	8659.84
496.639	8973.18
496.843	9040.76
497.046	9292.66
497.249	9431.92
497.453	9247.6
497.656	9393.01
497.859	9479.02
498.063	9571.18
498.266	9704.3
498.469	9888.62
498.673	9735.02
498.876	9847.66
499.079	10263.4
499.282	9980.78
499.485	10419.04
499.689	10267.49
499.892	10672.99
500.095	10472.29
500.298	10691.42
500.501	10650.46
500.705	10943.32
500.908	11125.59
501.111	11320.15
501.314	11305.81
501.517	11377.49
501.72	11570
501.923	11408.21
502.126	12028.74
502.329	11975.5
502.532	12096.33
502.735	12125
502.938	12342.08
503.141	12344.13
503.344	12540.74
503.547	12790.59
503.75	12976.95
503.953	12935.99
504.156	13009.72
504.359	13146.94
504.562	13288.25
504.765	13620.02
504.968	13724.46
505.17	13773.61
505.373	13611.82
505.576	13970.22
505.779	14355.24
505.982	14547.75
506.185	14961.44
506.387	14869.28
506.59	14740.26
506.793	15192.86
506.996	15209.24
507.198	15600.4
507.401	15493.91
507.604	15766.29
507.807	15983.37
508.009	15891.21
508.212	16206.6
508.415	16169.74
508.617	16485.12
508.82	16714.5
509.022	16554.76
509.225	17261.3
509.428	17259.26
509.63	17369.85
509.833	17015.55
510.035	17949.42
510.238	17777.39
510.44	17992.43
510.643	18232.04
510.845	18305.77
511.048	18330.34
511.25	18649.83
511.453	18737.89
511.655	19512.02
511.858	19208.92
512.06	19383
512.262	19428.06
512.465	19772.11
512.667	20161.23
512.87	20232.91
513.072	19987.15
513.274	20896.45
513.477	20798.15
513.679	21326.52
513.881	21217.98
514.084	21385.91
514.286	21248.7
514.488	21467.83
514.69	22108.85
514.893	22141.61
515.095	22074.03
515.297	22457
515.499	22692.52
515.701	23315.1
515.904	23202.46
516.106	23249.57
516.308	23491.23
516.51	23868.05
516.712	23653.02
516.914	24171.15
517.116	24384.14
517.318	24332.94
517.52	24832.65
517.722	24844.93
517.925	25459.32
518.127	25524.86
518.329	25582.2
518.531	25365.12
518.733	26030.71
518.935	26075.76
519.136	26380.91
519.338	26360.43
519.54	26634.86
519.742	26942.05
519.944	27173.47
520.146	27503.2
520.348	27556.44
520.55	27468.38
520.752	27818.58
520.954	28371.54
521.155	28181.07
521.357	28521.04
521.559	28666.44
521.761	29180.48
521.963	28852.81
522.164	29477.44
522.366	29413.95
522.568	29819.45
522.77	29788.73
522.971	29809.21
523.173	29884.98
523.375	30442.03
523.576	30534.19
523.778	30329.39
523.98	30673.45
524.181	30978.6
524.383	30988.84
524.584	31521.31
524.786	31611.42
524.988	31033.89
525.189	31740.44
525.391	31846.94
525.592	32594.45
525.794	32338.45
525.995	32238.1
526.197	32041.5
526.398	32342.55
526.6	32457.23
526.801	33108.49
527.003	33124.87
527.204	32496.14
527.406	33133.06
527.607	33176.07
527.808	33481.22
528.01	32647.69
528.211	33333.76
528.412	33812.99
528.614	33430.02
528.815	33589.76
529.016	33804.8
529.218	34085.37
529.419	33804.8
529.62	33987.07
529.822	33458.69
530.023	34118.14
530.224	34185.72
530.425	34214.39
530.626	33794.56
530.828	34144.76
531.029	34970.09
531.23	34454
531.431	34208.25
531.632	34638.32
531.833	34474.48
532.035	34314.74
532.236	34163.19
532.437	35119.59
532.638	34499.06
532.839	34726.38
533.04	34986.47
533.241	34310.64
533.442	34982.38
533.643	34765.29
533.844	34722.29
534.045	35033.58
534.246	34558.45
534.447	34959.85
534.648	34820.59
534.849	34929.13
535.05	34785.77
535.251	35023.34
535.451	34777.58
535.652	34908.65
535.853	34822.64
536.054	34576.88
536.255	34906.6
536.456	34683.37
536.657	35068.39
536.857	34765.29
537.058	34505.2
537.259	35095.02
537.46	34517.49
537.66	34521.59
537.861	35099.11
538.062	34781.68
538.263	34855.4
538.463	34410.99
538.664	34730.48
538.865	34755.05
539.065	35150.31
539.266	34626.03
539.466	34953.71
539.667	34683.37
539.868	35025.39
540.068	34779.63
540.269	34562.54
540.469	34834.92
540.67	34511.35
540.87	34732.53
541.071	34816.49
541.271	34568.69
541.472	34570.74
541.672	35054.06
541.873	34372.08
542.073	34374.13
542.274	34619.89
542.474	34599.41
542.675	34413.04
542.875	34959.85
543.075	34314.74
543.276	34367.99
543.476	35078.63
543.676	34290.16
543.877	34789.87
544.077	34945.51
544.277	34720.24
544.478	34136.57
544.678	35082.73
544.878	34378.23
545.078	34689.52
545.279	34576.88
545.479	34288.12
545.679	34650.61
545.879	34441.71
546.079	34355.7
546.28	34095.61
546.48	34241.01
546.68	34195.96
546.88	34271.73
547.08	34982.38
547.28	34177.53
547.48	33894.91
547.68	34617.84
547.88	33907.19
548.081	34415.09
548.281	34247.16
548.481	34181.62
548.681	34255.35
548.881	34200.05
549.081	34165.24
549.28	33966.59
549.48	34423.28
549.68	34437.62
549.88	34380.28
550.08	33860.09
550.28	34198.01
550.48	34222.58
550.68	34013.69
550.88	33899
551.08	34116.09
551.279	34257.4
551.479	34032.12
551.679	34148.85
551.879	33993.21
552.079	33999.35
552.278	33683.97
552.478	34189.81
552.678	33860.09
552.878	34298.36
553.077	34034.17
553.277	33540.61
553.477	34155
553.676	33907.19
553.876	33882.62
554.076	33720.83
554.275	33614.34
554.475	33430.02
554.674	34101.75
554.874	33810.94
555.074	33536.51
555.273	33882.62
555.473	33876.48
555.672	33370.63
555.872	33628.67
556.071	33651.2
556.271	33509.89
556.47	33554.94
556.67	33102.34
556.869	33073.67
557.068	33444.35
557.268	33128.97
557.467	33327.62
557.667	33301
557.866	33231.36
558.065	33278.47
558.265	33296.9
558.464	32969.22
558.663	33538.56
558.863	32586.25
559.062	33196.55
559.261	32698.89
559.461	33231.36
559.66	32702.99
559.859	33018.38
560.058	32922.12
560.258	33145.35
560.457	32639.5
560.656	32832.01
560.855	32782.86
561.054	32641.55
561.253	32485.9
561.453	32444.94
561.652	32645.65
561.851	32698.89
562.05	32246.29
562.249	32180.76
562.448	32446.99
562.647	32330.26
562.846	32182.8
563.045	32311.83
563.244	32176.66
563.443	32244.24
563.642	31527.45
563.841	31842.84
564.04	31549.98
564.239	32152.09
564.438	31324.71
564.637	31760.92
564.836	31744.54
565.035	31396.38
565.234	31713.82
565.432	31527.45
565.631	31214.12
565.83	31476.26
566.029	31308.32
566.228	31554.08
566.427	31124.01
566.625	31107.62
566.824	30978.6
567.023	30771.75
567.222	30507.57
567.42	31128.1
567.619	30800.43
567.818	30575.15
568.016	30466.61
568.215	30650.92
568.414	30730.8
568.612	30693.93
568.811	30337.59
569.01	30505.52
569.208	30235.19
569.407	30462.51
569.605	30097.97
569.804	30734.89
570.002	30321.2
570.201	30112.31
570.4	30132.79
570.598	29762.11
570.797	29692.47
570.995	29778.49
571.193	29168.19
571.392	29674.04
571.59	29262.4
571.789	29833.78
571.987	29405.76
572.186	29385.28
572.384	29270.59
572.582	29643.32
572.781	29459.01
572.979	29188.67
573.177	28906.05
573.376	29147.72
573.574	28764.75
573.772	29125.19
573.971	28531.28
574.169	28516.94
574.367	28361.3
574.565	28555.85
574.763	28574.28
574.962	28279.38
575.16	28199.51
575.358	28158.55
575.556	28166.74
575.754	28488.27
575.952	28154.45
576.151	28176.98
576.349	27898.45
576.547	27822.68
576.745	27781.72
576.943	27624.03
577.141	27843.16
577.339	27683.42
577.537	27365.98
577.735	27572.83
577.933	27054.69
578.131	27408.99
578.329	27206.24
578.527	26915.43
578.725	27064.93
578.923	27196
579.121	27085.41
579.319	26915.43
579.516	27300.45
579.714	27202.14
579.912	26950.24
580.11	26966.63
580.308	26970.72
580.506	26729.06
580.704	26335.85
580.901	26604.14
581.099	26927.72
581.297	26292.85
581.495	26296.94
581.692	26522.22
581.89	26053.23
582.088	26255.98
582.285	26030.71
582.483	26229.36
582.681	26094.19
582.878	25813.62
583.076	25721.46
583.274	25948.79
583.471	25299.58
583.669	25459.32
583.866	25526.91
584.064	25516.67
584.262	25156.22
584.459	25483.9
584.657	25381.5
584.854	25328.25
585.052	24984.19
585.249	25266.81
585.447	25225.86
585.644	24795.78
585.841	25037.44
586.039	24826.5
586.236	24584.84
586.434	24699.53
586.631	24582.79
586.828	24439.44
587.026	24691.34
587.223	24294.03
587.42	24455.82
587.618	24742.53
587.815	24015.51
588.012	23958.16
588.21	23857.81
588.407	24109.71
588.604	23773.85
588.801	23515.8
588.999	23728.79
589.196	23751.32
589.393	23736.98
589.59	23554.71
589.787	23546.52
589.984	23337.63
590.182	23362.2
590.379	23163.55
590.576	23288.48
590.773	22979.23
590.97	22917.79
591.167	23204.51
591.364	23050.91
591.561	23175.84
591.758	22620.84
591.955	22792.87
592.152	22751.91
592.349	22590.12
592.546	22774.44
592.743	22737.57
592.94	22139.57
593.137	22596.26
593.334	22715.05
593.531	21990.06
593.727	22086.32
593.924	22332.08
594.121	21844.66
594.318	22045.36
594.515	21619.38
594.712	22352.55
594.908	22086.32
595.105	22086.32
595.302	21660.34
595.499	21717.68
595.696	21674.68
595.892	21623.48
596.089	21621.43
596.286	21631.67
596.482	21283.52
596.679	21598.9
596.876	21213.88
597.072	21119.68
597.269	21193.4
597.466	20824.77
597.662	20912.83
597.859	21105.34
598.055	20894.4
598.252	20816.58
598.448	20738.76
598.645	20634.31
598.841	20673.22
599.038	20294.35
599.234	20624.07
599.431	20300.49
599.627	20368.07
599.824	20386.5
600.02	20126.41
600.217	20075.21
600.413	20220.62
600.609	19987.15
600.806	19876.56
601.002	20040.4
601.198	19856.08
601.395	19843.79
601.591	19964.62
601.787	19788.5
601.984	19444.44
602.18	19985.1
602.376	19581.65
602.572	19481.3
602.769	19395.29
602.965	19149.53
603.161	19374.81
603.357	19008.22
603.553	19221.21
603.75	19344.09
603.946	19024.61
604.142	19167.96
604.338	18815.71
604.534	18866.91
604.73	18643.68
604.926	18496.23
605.122	18694.88
605.318	18567.91
605.514	18389.74
605.71	18672.36
605.906	18359.02
606.102	18604.77
606.298	18555.62
606.494	18238.19
606.69	18318.06
606.886	18213.61
607.082	17904.37
607.278	18408.17
607.474	17808.11
607.67	18041.58
607.866	17552.12
608.062	18232.04
608.257	18133.74
608.453	18252.52
608.649	17998.57
608.845	17808.11
609.041	17666.8
609.236	17752.82
609.432	17951.47
609.628	17662.71
609.824	17685.23
610.019	17670.9
610.215	17599.22
610.411	17638.13
610.606	17335.03
610.802	17533.68
610.998	17373.94
611.193	17629.94
611.389	17416.95
611.584	17224.44
611.78	17265.4
611.976	17484.53
612.171	17375.99
612.367	17087.23
612.562	16894.72
612.758	17023.74
612.953	16919.29
613.149	17081.08
613.344	16921.34
613.539	17140.47
613.735	16904.96
613.93	16931.58
614.126	16651.01
614.321	17113.85
614.517	16984.83
614.712	16597.76
614.907	16677.63
615.103	16966.4
615.298	16628.48
615.493	16784.13
615.688	16519.94
615.884	16780.03
616.079	16399.11
616.274	16712.45
616.47	16597.76
616.665	16245.51
616.86	16429.83
617.055	16208.65
617.25	16202.5
617.445	16225.03
617.641	16042.76
617.836	16427.78
618.031	16163.59
618.226	16233.22
618.421	16159.5
618.616	15932.17
618.811	15649.55
619.006	15786.77
619.201	15543.06
619.396	15776.53
619.591	15665.94
619.786	15764.24
619.981	15524.63
620.176	15551.25
620.371	15500.05
620.566	15352.6
620.761	15180.57
620.956	15745.81
621.151	15049.5
621.346	15315.73
621.541	14734.11
621.735	14943
621.93	14856.99
622.125	14748.45
622.32	14734.11
622.515	14922.52
622.709	14598.95
622.904	14623.52
623.099	14609.19
623.294	14398.24
623.488	14396.2
623.683	14201.64
623.878	13992.75
624.072	14392.1
624.267	14074.67
624.462	14111.53
624.656	13773.61
624.851	13615.92
625.046	13708.08
625.24	13482.8
625.435	13755.18
625.629	13435.7
625.824	13570.86
626.018	13396.79
626.213	13122.36
626.407	13304.63
626.602	12972.86
626.796	13019.96
626.991	13085.5
627.185	13028.15
627.38	12864.32
627.574	12694.33
627.768	12528.45
627.963	12759.87
628.157	12739.39
628.352	12622.66
628.546	12372.8
628.74	12430.15
628.935	12254.02
629.129	12464.96
629.323	12337.99
629.517	11961.16
629.712	11840.33
629.906	12235.59
630.1	11971.4
630.294	11862.86
630.489	11584.34
630.683	11887.43
630.877	11547.47
631.071	11461.46
631.265	11592.53
631.459	11586.38
631.653	11557.71
631.848	11576.14
632.042	11227.99
632.236	11219.8
632.43	10978.14
632.624	11060.06
632.818	11070.3
633.012	10967.9
633.206	10924.89
633.4	10937.18
633.594	10709.85
633.788	10894.17
633.982	11002.71
634.176	10572.64
634.369	10693.47
634.563	10699.61
634.757	10498.91
634.951	10380.13
635.145	10521.44
635.339	10511.2
635.533	10416.99
635.726	10421.09
635.92	10158.95
636.114	10216.29
636.308	10232.68
636.501	10060.65
636.695	10255.2
636.889	9810.79
637.083	9730.92
637.276	10044.26
637.47	9800.55
637.664	9651.05
637.857	9495.41
638.051	9710.44
638.244	9571.18
638.438	9341.81
638.632	9454.45
638.825	9511.79
639.019	9417.58
639.212	9266.03
639.406	9454.45
639.599	9331.57
639.793	9202.55
639.986	9188.21
640.18	9036.66
640.373	8934.26
640.567	8946.55
640.76	9044.85
640.954	8913.78
641.147	8737.66
641.34	8766.33
641.534	9055.09
641.727	8823.67
641.92	8805.24
642.114	8524.67
642.307	8436.61
642.5	8358.78
642.694	8559.49
642.887	8250.24
643.08	8491.9
643.273	8323.97
643.467	8287.11
643.66	8209.28
643.853	8102.79
644.046	8180.61
644.239	8104.84
644.432	7955.33
644.626	7828.36
644.819	7879.56
645.012	7764.87
645.205	7883.66
645.398	8049.54
645.591	7830.41
645.784	7795.59
645.977	7465.87
646.17	7762.83
646.363	7576.46
646.556	7474.06
646.749	7451.53
646.942	7609.23
647.135	7396.24
647.328	7383.95
647.521	7422.86
647.714	7283.6
647.907	7265.17
648.099	7340.94
648.292	7349.14
648.485	7324.56
648.678	6968.21
648.871	7144.34
649.064	7089.04
649.256	7248.79
649.449	7072.66
649.642	6984.6
649.835	6869.91
650.027	7115.67
650.22	6898.58
650.413	6767.51
650.605	6767.51
650.798	6734.75
650.991	6478.75
651.183	6632.35
651.376	6714.27
651.568	6499.23
651.761	6622.11
651.954	6601.63
652.146	6632.35
652.339	6388.64
652.531	6521.76
652.724	6349.73
652.916	6480.8
653.109	6349.73
653.301	6321.06
653.494	6218.66
653.686	6247.33
653.879	6488.99
654.071	6063.01
654.263	6187.94
654.456	6300.58
654.648	6267.81
654.84	5995.43
655.033	6093.73
655.225	5993.38
655.417	5858.21
655.61	5925.8
655.802	5962.66
655.994	5788.58
656.186	6003.62
656.379	5628.84
656.571	5796.78
656.763	5858.21
656.955	5708.71
657.148	5749.67
657.34	5577.64
657.532	5600.17
657.724	5454.76
657.916	5538.73
658.108	5477.29
658.3	5413.81
658.492	5467.05
658.684	5358.51
658.876	5428.14
659.068	5333.93
659.26	5227.44
659.452	5407.66
659.644	5407.66
659.836	5170.1
660.028	5243.82
660.22	5155.76
660.412	5157.81
660.604	5139.38
660.796	5059.51
660.988	5196.72
661.18	5096.37
661.372	4955.06
661.563	5063.6
661.755	5014.45
661.947	4944.82
662.139	4883.38
662.331	4852.66
662.522	4762.55
662.714	4801.46
662.906	4838.33
663.097	4637.63
663.289	4688.82
663.481	4742.07
663.673	4639.67
663.864	4596.67
664.056	4635.58
664.247	4744.12
664.439	4447.16
664.631	4541.37
664.822	4461.5
665.014	4514.75
665.205	4490.17
665.397	4451.26
665.588	4432.83
665.78	4471.74
665.971	4481.98
666.163	4355.01
666.354	4412.35
666.546	4346.81
666.737	4404.16
666.929	4443.07
667.12	4187.07
667.311	4197.31
667.503	4195.26
667.694	4187.07
667.885	4139.97
668.077	4191.17
668.268	4121.54
668.459	4084.67
668.651	4123.59
668.842	4086.72
669.033	3990.47
669.224	3953.6
669.416	4117.44
669.607	3978.18
669.798	4027.33
669.989	3900.36
670.18	3937.22
670.371	3916.74
670.563	3818.44
670.754	3982.28
670.945	3849.16
671.136	3865.54
671.327	3808.2
671.518	3949.51
671.709	3797.96
671.9	3902.4
672.091	3787.72
672.282	3900.36
672.473	3828.68
672.664	3736.52
672.855	3759.05
673.046	3703.75
673.237	3761.09
673.428	3675.08
673.619	3699.66
673.809	3640.26
674	3613.64
674.191	3648.46
674.382	3603.4
674.573	3650.5
674.764	3572.68
674.954	3777.48
675.145	3509.19
675.336	3556.3
675.527	3517.39
675.717	3503.05
675.908	3572.68
676.099	3566.54
676.289	3466.19
676.48	3488.71
676.671	3433.42
676.861	3462.09
677.052	3455.95
677.243	3421.13
677.433	3392.46
677.624	3443.66
677.814	3468.24
678.005	3478.47
678.195	3433.42
678.386	3398.6
678.576	3285.97
678.767	3425.23
678.957	3468.24
679.148	3410.89
679.338	3505.1
679.529	3353.55
679.719	3199.95
679.909	3406.8
680.1	3345.36
680.29	3359.69
680.481	3232.72
680.671	3253.2
680.861	3163.09
681.052	3236.81
681.242	3232.72
681.432	3296.21
681.622	3212.24
681.813	3083.22
682.003	3261.39
682.193	3222.48
682.383	3187.66
682.573	3126.22
682.764	3204.05
682.954	3206.1
683.144	3216.33
683.334	3171.28
683.524	3099.6
683.714	3120.08
683.904	3191.76
684.094	3220.43
684.284	3138.51
684.474	3146.7
684.664	3050.45
684.854	3183.57
685.044	3089.36
685.234	3072.98
685.424	3095.5
685.614	2968.53
685.804	3138.51
685.994	3007.44
686.184	3032.02
686.374	3007.44
686.564	3015.63
686.753	2999.25
686.943	2999.25
687.133	2851.8
687.323	2941.91
687.513	2968.53
687.702	2968.53
687.892	2896.85
688.082	2958.29
688.272	3009.49
688.461	2991.06
688.651	2843.6
688.841	2903
689.03	2778.07
689.22	2798.55
689.41	2825.17
689.599	2708.44
689.789	2810.84
689.979	2933.72
690.168	2882.52
690.358	2810.84
690.547	2796.5
690.737	2747.35
690.926	2696.15
691.116	2728.92
691.305	2733.01
691.495	2690.01
691.684	2647
691.874	2737.11
692.063	2626.52
692.252	2634.71
692.442	2567.13
692.631	2565.08
692.82	2657.24
693.01	2589.66
693.199	2577.37
693.388	2577.37
693.578	2524.12
693.767	2515.93
693.956	2556.89
694.146	2509.79
694.335	2372.57
694.524	2530.27
694.713	2403.29
694.902	2438.11
695.092	2501.59
695.281	2286.56
695.47	2358.24
695.659	2395.1
695.848	2348
696.037	2440.15
696.226	2450.39
696.415	2368.48
696.604	2321.37
696.793	2360.28
696.982	2395.1
697.171	2380.76
697.36	2393.05
697.549	2341.85
697.738	2331.61
697.927	2327.52
698.116	2345.95
698.305	2270.17
698.494	2335.71
698.683	2339.8
698.872	2264.03
699.061	2245.6
699.25	2196.45
699.438	2370.52
699.627	2302.94
699.816	2286.56
700.005	2255.84
700.193	2380.76
700.382	2294.75
700.571	2298.84
700.76	2286.56
700.948	2313.18
701.137	2161.63
701.326	2335.71
701.514	2239.45
701.703	2229.21
701.892	2261.98
702.08	2188.25
702.269	2229.21
702.457	2098.14
702.646	2237.41
702.834	2241.5
703.023	2233.31
703.212	2264.03
703.4	2216.93
703.589	2141.15
703.777	2149.34
703.965	2081.76
704.154	2190.3
704.342	2122.72
704.531	2108.38
704.719	2157.54
704.907	2225.12
705.096	2069.47
705.284	2171.87
705.472	2106.34
705.661	2149.34
705.849	2278.37
706.037	2163.68
706.226	2075.62
706.414	2151.39
706.602	2130.91
706.79	2155.49
706.979	2040.8
707.167	2135.01
707.355	2055.14
707.543	2149.34
707.731	2153.44
707.919	2118.62
708.107	2040.8
708.296	2102.24
708.484	2106.34
708.672	2139.1
708.86	2098.14
709.048	2010.08
709.236	2061.28
709.424	2016.23
709.612	2065.38
709.8	2032.61
709.988	2075.62
710.176	2008.03
710.364	2063.33
710.551	2075.62
710.739	1981.41
710.927	2010.08
711.115	1983.46
711.303	2100.19
711.491	2040.8
711.679	2089.95
711.866	2139.1
712.054	2092
712.242	2034.66
712.43	2114.53
712.617	2089.95
712.805	2071.52
712.993	2057.18
713.181	1860.58
713.368	1993.7
713.556	2114.53
713.744	2022.37
713.931	2104.29
714.119	2116.58
714.306	2135.01
714.494	1913.83
714.682	2030.56
714.869	1940.45
715.057	2040.8
715.244	2016.23
715.432	2053.09
715.619	2018.27
715.807	2051.04
715.994	1954.79
716.182	2020.32
716.369	2116.58
716.556	2048.99
716.744	2077.66
716.931	1958.88
717.119	2178.01
717.306	2030.56
717.493	1967.07
717.681	2077.66
717.868	2110.43
718.055	1983.46
718.242	1960.93
718.43	2005.99
718.617	1977.31
718.804	2106.34
718.991	2020.32
719.179	2075.62
719.366	2026.47
719.553	1975.27
719.74	2118.62
719.927	2012.13
720.114	1962.98
720.301	2028.51
720.488	1993.7
720.676	2001.89
720.863	2096.1
721.05	1981.41
721.237	2089.95
721.424	1977.31
721.611	2149.34
721.798	1958.88
721.985	2018.27
722.172	2012.13
722.358	2067.42
722.545	2092
722.732	2048.99
722.919	2024.42
723.106	1977.31
723.293	2143.2
723.48	2038.75
723.667	1956.83
723.853	2024.42
724.04	1967.07
724.227	1967.07
724.414	2020.32
724.6	1979.36
724.787	1946.59
724.974	1989.6
725.161	1942.5
725.347	2014.18
725.534	2028.51
725.72	2018.27
725.907	2106.34
726.094	2151.39
726.28	1934.31
726.467	1960.93
726.653	1915.87
726.84	1981.41
727.027	2139.1
727.213	1922.02
727.4	2085.86
727.586	2026.47
727.773	2116.58
727.959	2069.47
728.145	2075.62
728.332	2028.51
728.518	2089.95
728.705	2024.42
728.891	2040.8
729.077	2032.61
729.264	2077.66
729.45	2026.47
729.636	2001.89
729.823	2028.51
730.009	2065.38
730.195	2083.81
730.382	2089.95
730.568	2126.82
730.754	2003.94
730.94	1958.88
731.126	2079.71
731.313	2069.47
731.499	2092
731.685	2032.61
731.871	2182.11
732.057	2036.7
732.243	2067.42
732.429	2057.18
732.615	2010.08
732.801	2106.34
732.987	2016.23
733.173	2036.7
733.359	1969.12
733.545	1868.77
733.731	2042.85
733.917	2024.42
734.103	2032.61
734.289	2048.99
734.475	1983.46
734.661	2075.62
734.847	2175.97
735.033	2048.99
735.219	2008.03
735.404	2048.99
735.59	2073.57
735.776	2042.85
735.962	1952.74
736.148	1991.65
736.333	2106.34
736.519	2012.13
736.705	2081.76
736.89	1965.03
737.076	2073.57
737.262	1893.35
737.447	1938.4
737.633	1901.54
737.819	2051.04
738.004	2012.13
738.19	2010.08
738.375	1962.98
738.561	2032.61
738.747	2016.23
738.932	2001.89
739.118	1985.51
739.303	1979.36
739.489	2001.89
739.674	1811.43
739.859	1967.07
740.045	1946.59
740.23	1864.68
740.416	1922.02
740.601	1991.65
740.786	1934.31
740.972	2010.08
741.157	1936.35
741.342	1889.25
741.528	1872.87
741.713	1913.83
741.898	1842.15
742.084	1879.01
742.269	1899.49
742.454	1872.87
742.639	1879.01
742.824	1868.77
743.01	1995.75
743.195	1938.4
743.38	1831.91
743.565	1926.11
743.75	1850.34
743.935	1803.24
744.12	1942.5
744.305	1819.62
744.49	1844.2
744.675	1803.24
744.86	1788.9
745.045	1752.04
745.23	1680.36
745.415	1823.72
745.6	1768.42
745.785	1672.17
745.97	1778.66
746.155	1754.09
746.34	1825.76
746.525	1645.54
746.71	1713.13
746.895	1752.04
747.079	1838.05
747.264	1723.37
747.449	1731.56
747.634	1788.9
747.819	1631.21
748.003	1606.63
748.188	1594.34
748.373	1598.44
748.557	1598.44
748.742	1657.83
748.927	1639.4
749.111	1590.25
749.296	1643.49
749.481	1655.78
749.665	1680.36
749.85	1616.87
750.034	1723.37
750.219	1614.82
750.404	1584.1
750.588	1565.67
750.773	1496.04
750.957	1541.1
751.141	1461.23
751.326	1514.47
751.51	1364.97
751.695	1520.62
751.879	1453.03
752.064	1502.19
752.248	1508.33
752.432	1487.85
752.617	1459.18
752.801	1493.99
752.985	1446.89
753.17	1498.09
753.354	1387.5
753.538	1457.13
753.722	1311.72
753.907	1287.15
754.091	1379.31
754.275	1430.51
754.459	1307.63
754.643	1295.34
754.828	1319.92
755.012	1295.34
755.196	1338.35
755.38	1295.34
755.564	1246.19
755.748	1258.48
755.932	1326.06
756.116	1227.76
756.3	1258.48
756.484	1246.19
756.668	1278.96
756.852	1197.04
757.036	1256.43
757.22	1156.08
757.404	1281
757.588	1178.61
757.772	1201.13
757.956	1164.27
758.14	1242.09
758.323	1111.02
758.507	1149.93
758.691	1166.32
758.875	1197.04
759.059	1131.5
759.242	1192.94
759.426	1213.42
759.61	1111.02
759.794	1147.89
759.977	1065.97
760.161	1149.93
760.345	1082.35
760.528	1106.93
760.712	1094.64
760.895	1145.84
761.079	1098.74
761.263	1078.26
761.446	1049.58
761.63	1035.25
761.813	1100.78
761.997	893.94
762.18	1076.21
762.364	1033.2
762.547	992.24
762.731	1016.82
762.914	982
763.098	965.62
763.281	986.1
763.464	994.29
763.648	955.38
763.831	984.05
764.015	1002.48
764.198	916.47
764.381	936.95
764.564	934.9
764.748	984.05
764.931	984.05
765.114	902.13
765.297	963.57
765.481	887.79
765.664	992.24
765.847	912.37
766.03	975.86
766.213	840.69
766.397	885.75
766.58	877.55
766.763	994.29
766.946	852.98
767.129	920.56
767.312	834.55
767.495	943.09
767.678	801.78
767.861	820.21
768.044	922.61
768.227	871.41
768.41	838.64
768.593	904.18
768.776	926.71
768.959	844.79
769.142	812.02
769.324	816.12
769.507	881.65
769.69	836.6
769.873	791.54
770.056	881.65
770.239	816.12
770.421	920.56
770.604	793.59
770.787	803.83
770.97	877.55
771.152	787.44
771.335	830.45
771.518	799.73
771.7	824.31
771.883	852.98
772.066	797.68
772.248	881.65
772.431	838.64
772.613	781.3
772.796	789.49
772.978	756.72
773.161	859.12
773.343	685.05
773.526	762.87
773.708	771.06
773.891	683
774.073	764.92
774.256	685.05
774.438	787.44
774.621	766.96
774.803	699.38
774.985	685.05
775.168	658.42
775.35	746.48
775.532	738.29
775.715	734.2
775.897	687.09
776.079	660.47
776.261	685.05
776.444	674.81
776.626	668.66
776.808	603.13
776.99	572.41
777.173	699.38
777.355	707.57
777.537	572.41
777.719	566.26
777.901	599.03
778.083	576.5
778.265	617.46
778.447	627.7
778.629	531.45
778.811	652.28
778.993	633.85
779.175	648.18
779.357	500.73
779.539	541.69
779.721	562.17
779.903	642.04
780.085	574.46
780.267	525.3
780.449	525.3
780.631	556.02
780.812	615.41
780.994	594.93
781.176	527.35
781.358	525.3
781.54	547.83
781.721	525.3
781.903	533.5
782.085	566.26
782.267	549.88
782.448	429.05
782.63	504.82
782.812	463.86
782.993	480.25
783.175	492.54
783.357	472.06
783.538	492.54
783.72	527.35
783.901	465.91
784.083	498.68
784.264	441.34
784.446	461.82
784.627	338.94
784.809	386.04
784.99	447.48
785.172	480.25
785.353	422.91
785.535	447.48
785.716	418.81
785.897	338.94
786.079	361.47
786.26	445.43
786.441	418.81
786.623	340.99
786.804	371.71
786.985	416.76
787.167	443.39
787.348	314.36
787.529	451.58
787.71	465.91
787.891	410.62
788.073	320.51
788.254	369.66
788.435	443.39
788.616	371.71
788.797	283.64
788.978	363.51
789.159	390.14
789.34	414.71
789.522	369.66
789.703	357.37
789.884	414.71
790.065	390.14
790.246	396.28
790.427	287.74
790.607	357.37
790.788	388.09
790.969	312.32
791.15	322.56
791.331	318.46
791.512	304.12
791.693	312.32
791.874	373.75
792.054	476.15
792.235	371.71
792.416	306.17
792.597	306.17
792.778	365.56
792.958	383.99
793.139	275.45
793.32	275.45
793.5	281.6
793.681	349.18
793.862	295.93
794.042	291.84
794.223	314.36
794.404	324.6
794.584	238.59
794.765	314.36
794.945	279.55
795.126	295.93
795.306	306.17
795.487	291.84
795.667	216.06
795.848	205.82
796.028	316.41
796.209	240.64
796.389	338.94
796.57	283.64
796.75	295.93
796.93	308.22
797.111	246.78
797.291	228.35
797.471	312.32
797.652	320.51
797.832	291.84
798.012	318.46
798.192	238.59
798.373	195.58
798.553	293.88
798.733	273.4
798.913	211.96
799.093	238.59
799.274	222.2
799.454	246.78
799.634	211.96
799.814	300.03
799.994	343.03
800.174	234.49
800.354	277.5
800.534	281.6
800.714	109.57
800.894	257.02
801.074	234.49
801.254	185.34
801.434	254.97
801.614	250.88
801.794	177.15
801.974	863.22
802.154	150.53
802.334	257.02
802.514	146.43
802.693	148.48
802.873	175.1
803.053	132.09
803.233	295.93
803.413	220.16
803.592	181.25
803.772	205.82
803.952	220.16
804.131	265.21
804.311	197.63
804.491	287.74
804.67	123.9
804.85	191.49
805.03	171.01
805.209	199.68
805.389	197.63
805.568	158.72
805.748	271.36
805.928	144.38
806.107	142.33
806.287	238.59
806.466	130.05
806.646	218.11
806.825	150.53
807.004	148.48
807.184	197.63
807.363	109.57
807.543	211.96
807.722	150.53
807.901	193.53
808.081	173.05
808.26	103.42
808.439	132.09
808.619	185.34
808.798	125.95
808.977	171.01
809.156	148.48
809.336	115.71
809.515	193.53
809.694	91.13
809.873	168.96
810.052	130.05
810.231	209.92
810.411	171.01
810.59	87.04
810.769	111.61
810.948	281.6
811.127	33.79
811.306	183.29
811.485	132.09
811.664	121.85
811.843	158.72
812.022	173.05
812.201	156.67
812.38	195.58
812.559	140.29
812.737	171.01
812.916	146.43
813.095	140.29
813.274	140.29
813.453	91.13
813.632	132.09
813.811	193.53
813.989	82.94
814.168	84.99
814.347	78.85
814.526	158.72
814.704	171.01
814.883	164.86
815.062	148.48
815.24	132.09
815.419	105.47
815.598	123.9
815.776	52.22
815.955	123.9
816.133	101.37
816.312	148.48
816.49	134.14
816.669	74.75
816.847	37.89
817.026	115.71
817.204	125.95
817.383	144.38
817.561	9.22
817.74	115.71
817.918	109.57
818.097	70.65
818.275	105.47
818.453	107.52
818.632	103.42
818.81	52.22
818.988	107.52
819.167	99.33
819.345	68.61
819.523	84.99
819.701	99.33
819.879	189.44
820.058	148.48
820.236	27.65
820.414	46.08
820.592	115.71
820.77	84.99
820.948	44.03
821.127	101.37
821.305	136.19
821.483	82.94
821.661	148.48
821.839	56.32
822.017	46.08
822.195	58.37
822.373	113.66
822.551	99.33
822.729	95.23
822.907	111.61
823.085	128
823.262	105.47
823.44	103.42
823.618	93.18
823.796	117.76
823.974	70.65
824.152	41.98
824.329	66.56
824.507	33.79
824.685	82.94
824.863	99.33
825.04	93.18
825.218	130.05
825.396	89.09
825.574	91.13
825.751	82.94
825.929	115.71
826.107	97.28
826.284	150.53
826.462	91.13
826.639	21.5
826.817	132.09
826.994	132.09
827.172	62.46
827.349	134.14
827.527	1.02
827.704	93.18
827.882	115.71
828.059	76.8
828.237	140.29
828.414	156.67
828.591	-58.37
828.769	54.27
828.946	-7.17
829.124	82.94
829.301	62.46
829.478	99.33
829.655	37.89
829.833	58.37
830.01	91.13
830.187	166.91
830.364	91.13
830.542	76.8
830.719	76.8
830.896	82.94
831.073	9.22
831.25	17.41
831.427	-35.84
831.604	41.98
831.782	9.22
831.959	152.57
832.136	3.07
832.313	99.33
832.49	9.22
832.667	64.51
832.844	33.79
833.021	17.41
833.198	37.89
833.374	115.71
833.551	82.94
833.728	-37.89
833.905	74.75
834.082	19.46
834.259	60.42
834.436	50.18
834.612	-5.12
834.789	60.42
834.966	70.65
835.143	109.57
835.319	50.18
835.496	72.7
835.673	54.27
835.85	107.52
836.026	62.46
836.203	21.5
836.38	46.08
836.556	25.6
836.733	-3.07
836.909	99.33
837.086	74.75
837.262	-54.27
837.439	44.03
837.616	58.37
837.792	78.85
837.968	128
838.145	-7.17
838.321	99.33
838.498	78.85
838.674	13.31
838.851	58.37
839.027	54.27
839.203	58.37
839.38	41.98
839.556	13.31
839.732	17.41
839.909	-11.26
840.085	68.61
840.261	-5.12
840.437	1.02
840.614	33.79
840.79	68.61
840.966	105.47
841.142	58.37
841.318	66.56
841.494	117.76
841.671	87.04
841.847	-3.07
842.023	-13.31
842.199	35.84
842.375	60.42
842.551	44.03
842.727	25.6
842.903	41.98
843.079	37.89
843.255	37.89
843.431	111.61
843.607	74.75
843.783	-93.18
843.959	-3.07
844.134	-5.12
844.31	119.81
844.486	5.12
844.662	25.6
844.838	-9.22
845.013	-23.55
845.189	52.22
845.365	66.56
845.541	39.94
845.716	35.84
845.892	54.27
846.068	33.79
846.244	23.55
846.419	140.29
846.595	-21.5
846.77	33.79
846.946	-5.12
847.122	13.31
847.297	33.79
847.473	123.9
847.648	-80.89
847.824	-15.36
847.999	-78.85
848.175	1.02
848.35	33.79
848.526	21.5
848.701	95.23
848.876	27.65
849.052	99.33
849.227	52.22
849.403	-31.74
849.578	91.13
849.753	31.74
849.929	-27.65
850.104	9.22
850.279	68.61
850.454	-23.55
850.63	21.5
850.805	9.22
850.98	35.84
851.155	9.22
851.33	50.18
851.505	25.6
851.681	41.98
851.856	9.22
852.031	80.89
852.206	44.03
852.381	-21.5
852.556	-48.13
852.731	44.03
852.906	-19.46
853.081	-5.12
853.256	121.85
853.431	5.12
853.606	21.5
853.781	-3.07
853.956	7.17
854.131	21.5
854.305	-7.17
854.48	-39.94
854.655	41.98
854.83	9.22
855.005	25.6
855.18	109.57
855.354	58.37
855.529	74.75
855.704	64.51
855.879	54.27
856.053	48.13
856.228	52.22
856.403	15.36
856.577	-39.94
856.752	35.84
856.926	-15.36
857.101	37.89
857.276	-21.5
857.45	76.8
857.625	27.65
857.799	3.07
857.974	35.84
858.148	-48.13
858.323	44.03
858.497	41.98
858.672	-9.22
858.846	15.36
859.02	-23.55
859.195	-13.31
859.369	-56.32
859.543	107.52
859.718	27.65
859.892	70.65
860.066	37.89
860.241	-64.51
860.415	35.84
860.589	21.5
860.763	37.89
860.938	-5.12
861.112	21.5
861.286	25.6
861.46	17.41
861.634	-19.46
861.808	60.42
861.982	5.12
862.157	-7.17
862.331	-54.27
862.505	44.03
862.679	19.46
862.853	3.07
863.027	29.7
863.201	50.18
863.375	-54.27
863.549	-13.31
863.722	9.22
863.896	25.6
864.07	-15.36
864.244	-15.36
864.418	89.09
864.592	1.02
864.766	-19.46
864.939	5.12
865.113	-23.55
865.287	41.98
865.461	-101.37
865.634	-54.27
865.808	-60.42
865.982	-13.31
866.156	58.37
866.329	46.08
866.503	-48.13
866.676	-19.46
866.85	11.26
867.024	-19.46
867.197	9.22
867.371	1.02
867.544	15.36
867.718	-60.42
867.891	25.6
868.065	-21.5
868.238	50.18
868.412	-25.6
868.585	3.07
868.759	-33.79
868.932	82.94
869.105	-5.12
869.279	5.12
869.452	-39.94
869.625	-31.74
869.799	5.12
869.972	-56.32
870.145	-37.89
870.319	1.02
870.492	25.6
870.665	1.02
870.838	-9.22
871.011	-3.07
871.185	-3.07
871.358	62.46
871.531	15.36
871.704	-56.32
871.877	-5.12
872.05	-23.55
872.223	-58.37
872.396	-11.26
872.569	17.41
872.742	27.65
872.915	-11.26
873.088	44.03
873.261	1.02
873.434	-37.89
873.607	21.5
873.78	21.5
873.953	-27.65
874.126	33.79
874.299	-31.74
874.471	-11.26
874.644	9.22
874.817	-1.02
874.99	41.98
875.163	-64.51
875.335	-29.7
875.508	-27.65
875.681	17.41
875.853	-52.22
876.026	46.08
876.199	-5.12
876.371	3.07
876.544	9.22
876.717	1.02
876.889	1.02
877.062	11.26
877.234	-80.89
877.407	-44.03
877.579	-23.55
877.752	9.22
877.924	-50.18
878.097	-31.74
878.269	-3.07
878.442	3.07
878.614	13.31
878.786	27.65
878.959	9.22
879.131	29.7
879.303	-105.47
879.476	-13.31
879.648	-29.7
879.82	19.46
879.993	-56.32
880.165	11.26
880.337	-72.7
880.509	58.37
880.681	-46.08
880.854	27.65
881.026	-3.07
881.198	29.7
881.37	3.07
881.542	17.41
881.714	21.5
881.886	44.03
882.058	15.36
882.23	-54.27
882.402	-46.08
882.574	13.31
882.746	27.65
882.918	-62.46
883.09	-39.94
883.262	1.02
883.434	-39.94
883.606	-50.18
883.778	3.07
883.95	41.98
884.122	-5.12
884.293	21.5
884.465	1.02
884.637	-7.17
884.809	-33.79
884.98	19.46
885.152	-7.17
885.324	-7.17
885.496	-27.65
885.667	-15.36
885.839	-33.79
886.011	58.37
886.182	-19.46
886.354	-52.22
886.525	-25.6
886.697	35.84
886.869	19.46
887.04	-60.42
887.212	23.55
887.383	87.04
887.555	-78.85
887.726	-15.36
887.897	-62.46
888.069	-54.27
888.24	-23.55
888.412	-31.74
888.583	-23.55
888.754	-5.12
888.926	-44.03
889.097	-7.17
889.268	-3.07
889.44	44.03
889.611	-62.46
889.782	-7.17
889.953	-111.61
890.125	31.74
890.296	-23.55
890.467	17.41
890.638	-39.94
890.809	9.22
890.98	-56.32
891.151	-39.94
891.323	-56.32
891.494	35.84
891.665	-44.03
891.836	-54.27
892.007	-1.02
892.178	41.98
892.349	-5.12
892.52	17.41
892.691	-5.12
892.862	-89.09
893.032	-56.32
893.203	-68.61
893.374	-48.13
893.545	58.37
893.716	-56.32
893.887	62.46
894.057	-7.17
894.228	29.7
894.399	-21.5
894.57	-13.31
894.74	13.31
894.911	27.65
895.082	-11.26
895.253	-56.32
895.423	13.31
895.594	-21.5
895.764	-48.13
895.935	-76.8
896.106	-41.98
896.276	-13.31
896.447	-29.7
896.617	-48.13
896.788	-31.74
896.958	-21.5
897.129	-21.5
897.299	-11.26
897.47	15.36
897.64	-29.7
897.81	-56.32
897.981	-17.41
898.151	17.41
898.322	-31.74
898.492	-5.12
898.662	-56.32
898.832	-35.84
899.003	9.22
899.173	33.79
899.343	-9.22
899.513	-35.84
