Data from USB4F104151__246__14-45-50-962.txt Node

Date: Thu Mar 13 14:45:50 EDT 2025
User: louis
Spectrometer: USB4F10415
Trigger mode: 4
Integration Time (sec): 2.000000E-2
Scans to average: 1
Electric dark correction enabled: true
Nonlinearity correction enabled: false
Boxcar width: 0
XAxis mode: Wavelengths
Number of Pixels in Spectrum: 3648
>>>>>Begin Spectral Data<<<<<
178.204	-123.39
178.424	-123.39
178.644	-123.39
178.864	-90.62
179.084	-131.58
179.304	-16.9
179.524	1.54
179.744	32.26
179.964	-6.66
180.184	-25.09
180.404	22.02
180.624	-55.81
180.844	-31.23
181.064	1.54
181.283	3.58
181.503	19.97
181.723	54.78
181.943	-41.47
182.163	89.6
182.383	32.26
182.602	34.3
182.822	32.26
183.042	-20.99
183.262	28.16
183.482	-16.9
183.701	3.58
183.921	50.69
184.141	-0.51
184.361	40.45
184.58	58.88
184.8	89.6
185.02	-45.57
185.239	56.83
185.459	91.65
185.679	69.12
185.898	-41.47
186.118	77.31
186.338	87.55
186.557	34.3
186.777	-2.56
186.997	-8.7
187.216	3.58
187.436	42.5
187.655	77.31
187.875	34.3
188.095	-23.04
188.314	11.78
188.534	36.35
188.753	50.69
188.973	19.97
189.192	17.92
189.412	17.92
189.631	-8.7
189.851	48.64
190.07	60.93
190.29	3.58
190.509	52.74
190.729	7.68
190.948	91.65
191.168	165.37
191.387	67.07
191.607	7.68
191.826	81.41
192.045	73.21
192.265	73.21
192.484	-12.8
192.704	65.02
192.923	-45.57
193.142	103.93
193.362	40.45
193.581	-6.66
193.8	81.41
194.02	91.65
194.239	-20.99
194.458	-6.66
194.678	1.54
194.897	38.4
195.116	85.5
195.335	48.64
195.555	44.54
195.774	48.64
195.993	-0.51
196.212	50.69
196.432	-10.75
196.651	44.54
196.87	-14.85
197.089	122.37
197.308	32.26
197.528	67.07
197.747	11.78
197.966	1.54
198.185	89.6
198.404	19.97
198.623	11.78
198.842	118.27
199.062	67.07
199.281	1.54
199.5	24.06
199.719	40.45
199.938	15.87
200.157	40.45
200.376	40.45
200.595	9.73
200.814	56.83
201.033	15.87
201.252	91.65
201.471	15.87
201.69	50.69
201.909	40.45
202.128	89.6
202.347	91.65
202.566	15.87
202.785	-23.04
203.004	15.87
203.223	56.83
203.442	48.64
203.661	7.68
203.879	-18.94
204.098	67.07
204.317	19.97
204.536	148.99
204.755	54.78
204.974	24.06
205.193	56.83
205.411	44.54
205.63	7.68
205.849	34.3
206.068	50.69
206.287	75.26
206.505	44.54
206.724	11.78
206.943	1.54
207.162	58.88
207.381	36.35
207.599	87.55
207.818	-78.33
208.037	3.58
208.255	-29.18
208.474	52.74
208.693	81.41
208.911	65.02
209.13	15.87
209.349	56.83
209.567	24.06
209.786	95.74
210.005	24.06
210.223	48.64
210.442	-49.66
210.661	38.4
210.879	-2.56
211.098	-16.9
211.316	81.41
211.535	48.64
211.753	-23.04
211.972	81.41
212.191	52.74
212.409	-23.04
212.628	17.92
212.846	-20.99
213.065	77.31
213.283	-16.9
213.502	42.5
213.72	-47.62
213.938	42.5
214.157	3.58
214.375	50.69
214.594	114.17
214.812	40.45
215.031	-16.9
215.249	-6.66
215.467	24.06
215.686	-10.75
215.904	130.56
216.122	-0.51
216.341	54.78
216.559	-8.7
216.778	26.11
216.996	11.78
217.214	-6.66
217.432	-29.18
217.651	69.12
217.869	42.5
218.087	-12.8
218.306	-14.85
218.524	7.68
218.742	26.11
218.96	114.17
219.179	-23.04
219.397	-0.51
219.615	75.26
219.833	26.11
220.051	65.02
220.27	56.83
220.488	44.54
220.706	48.64
220.924	17.92
221.142	28.16
221.36	1.54
221.578	75.26
221.796	81.41
222.015	56.83
222.233	69.12
222.451	48.64
222.669	22.02
222.887	40.45
223.105	7.68
223.323	44.54
223.541	15.87
223.759	40.45
223.977	52.74
224.195	79.36
224.413	15.87
224.631	65.02
224.849	-16.9
225.067	67.07
225.285	38.4
225.503	73.21
225.721	-2.56
225.939	67.07
226.157	36.35
226.375	105.98
226.592	22.02
226.81	163.33
227.028	62.98
227.246	138.75
227.464	42.5
227.682	60.93
227.9	56.83
228.117	-20.99
228.335	56.83
228.553	19.97
228.771	52.74
228.989	65.02
229.206	103.93
229.424	73.21
229.642	13.82
229.86	151.04
230.077	5.63
230.295	32.26
230.513	7.68
230.731	24.06
230.948	1.54
231.166	71.17
231.384	17.92
231.601	32.26
231.819	62.98
232.037	60.93
232.254	-43.52
232.472	97.79
232.689	62.98
232.907	62.98
233.125	67.07
233.342	34.3
233.56	22.02
233.777	-29.18
233.995	-14.85
234.213	120.32
234.43	81.41
234.648	73.21
234.865	73.21
235.083	32.26
235.3	28.16
235.518	34.3
235.735	140.8
235.953	58.88
236.17	73.21
236.388	85.5
236.605	50.69
236.822	15.87
237.04	-20.99
237.257	-8.7
237.475	75.26
237.692	32.26
237.909	48.64
238.127	56.83
238.344	71.17
238.562	81.41
238.779	56.83
238.996	15.87
239.214	40.45
239.431	32.26
239.648	48.64
239.865	7.68
240.083	42.5
240.3	32.26
240.517	-31.23
240.735	73.21
240.952	36.35
241.169	34.3
241.386	34.3
241.603	28.16
241.821	44.54
242.038	50.69
242.255	48.64
242.472	30.21
242.689	83.45
242.907	34.3
243.124	60.93
243.341	36.35
243.558	1.54
243.775	42.5
243.992	44.54
244.209	15.87
244.426	65.02
244.643	-4.61
244.86	-8.7
245.078	95.74
245.295	-12.8
245.512	73.21
245.729	15.87
245.946	3.58
246.163	32.26
246.38	34.3
246.597	15.87
246.814	67.07
247.031	11.78
247.248	7.68
247.464	32.26
247.681	28.16
247.898	42.5
248.115	-0.51
248.332	7.68
248.549	89.6
248.766	81.41
248.983	114.17
249.2	9.73
249.417	99.84
249.633	-33.28
249.85	56.83
250.067	24.06
250.284	65.02
250.501	60.93
250.717	24.06
250.934	52.74
251.151	-0.51
251.368	36.35
251.585	24.06
251.801	7.68
252.018	19.97
252.235	-16.9
252.451	19.97
252.668	-20.99
252.885	44.54
253.102	-6.66
253.318	52.74
253.535	30.21
253.752	9.73
253.968	32.26
254.185	-0.51
254.401	75.26
254.618	79.36
254.835	85.5
255.051	110.08
255.268	65.02
255.484	3.58
255.701	40.45
255.917	36.35
256.134	24.06
256.351	73.21
256.567	9.73
256.784	34.3
257	24.06
257.217	79.36
257.433	42.5
257.65	75.26
257.866	24.06
258.082	-8.7
258.299	-61.95
258.515	30.21
258.732	-6.66
258.948	15.87
259.165	85.5
259.381	-35.33
259.597	103.93
259.814	-2.56
260.03	38.4
260.246	-16.9
260.463	101.89
260.679	116.22
260.895	73.21
261.112	81.41
261.328	13.82
261.544	56.83
261.761	97.79
261.977	13.82
262.193	56.83
262.409	40.45
262.626	75.26
262.842	9.73
263.058	9.73
263.274	48.64
263.49	42.5
263.707	15.87
263.923	9.73
264.139	-41.47
264.355	83.45
264.571	105.98
264.787	40.45
265.004	15.87
265.22	7.68
265.436	32.26
265.652	-33.28
265.868	24.06
266.084	-6.66
266.3	28.16
266.516	134.65
266.732	30.21
266.948	71.17
267.164	69.12
267.38	-0.51
267.596	126.46
267.812	73.21
268.028	65.02
268.244	-14.85
268.46	40.45
268.676	40.45
268.892	17.92
269.108	-0.51
269.324	36.35
269.54	36.35
269.756	69.12
269.972	50.69
270.188	28.16
270.403	-43.52
270.619	58.88
270.835	1.54
271.051	40.45
271.267	-14.85
271.483	1.54
271.698	42.5
271.914	17.92
272.13	30.21
272.346	101.89
272.562	81.41
272.777	44.54
272.993	11.78
273.209	-29.18
273.425	22.02
273.64	54.78
273.856	-43.52
274.072	-10.75
274.287	65.02
274.503	22.02
274.719	24.06
274.934	-0.51
275.15	34.3
275.366	3.58
275.581	44.54
275.797	97.79
276.012	108.03
276.228	32.26
276.444	15.87
276.659	99.84
276.875	36.35
277.09	-25.09
277.306	93.69
277.521	48.64
277.737	19.97
277.952	38.4
278.168	9.73
278.383	9.73
278.599	40.45
278.814	85.5
279.03	95.74
279.245	56.83
279.461	-37.38
279.676	77.31
279.892	67.07
280.107	-8.7
280.322	-20.99
280.538	30.21
280.753	42.5
280.969	58.88
281.184	75.26
281.399	-25.09
281.615	-4.61
281.83	-16.9
282.045	36.35
282.26	-29.18
282.476	56.83
282.691	183.81
282.906	69.12
283.122	9.73
283.337	7.68
283.552	114.17
283.767	34.3
283.983	24.06
284.198	9.73
284.413	83.45
284.628	48.64
284.843	-41.47
285.058	48.64
285.274	1.54
285.489	7.68
285.704	120.32
285.919	79.36
286.134	97.79
286.349	73.21
286.564	67.07
286.779	26.11
286.995	34.3
287.21	-53.76
287.425	60.93
287.64	15.87
287.855	-55.81
288.07	-23.04
288.285	58.88
288.5	69.12
288.715	26.11
288.93	38.4
289.145	56.83
289.36	81.41
289.575	48.64
289.79	71.17
290.004	58.88
290.219	83.45
290.434	1.54
290.649	9.73
290.864	40.45
291.079	42.5
291.294	24.06
291.509	3.58
291.724	36.35
291.938	118.27
292.153	148.99
292.368	3.58
292.583	38.4
292.798	11.78
293.012	15.87
293.227	19.97
293.442	69.12
293.657	126.46
293.871	11.78
294.086	81.41
294.301	89.6
294.516	32.26
294.73	15.87
294.945	-20.99
295.16	93.69
295.374	69.12
295.589	24.06
295.804	60.93
296.018	15.87
296.233	36.35
296.447	42.5
296.662	44.54
296.877	26.11
297.091	71.17
297.306	19.97
297.52	34.3
297.735	103.93
297.949	73.21
298.164	50.69
298.378	56.83
298.593	-31.23
298.807	32.26
299.022	48.64
299.236	89.6
299.451	19.97
299.665	52.74
299.88	48.64
300.094	-0.51
300.309	-8.7
300.523	67.07
300.737	-6.66
300.952	36.35
301.166	44.54
301.381	32.26
301.595	15.87
301.809	-8.7
302.024	26.11
302.238	-4.61
302.452	101.89
302.667	28.16
302.881	93.69
303.095	-20.99
303.309	146.94
303.524	36.35
303.738	24.06
303.952	17.92
304.166	91.65
304.381	15.87
304.595	101.89
304.809	3.58
305.023	101.89
305.237	24.06
305.452	-2.56
305.666	71.17
305.88	22.02
306.094	65.02
306.308	32.26
306.522	46.59
306.736	7.68
306.95	67.07
307.164	40.45
307.379	34.3
307.593	60.93
307.807	36.35
308.021	67.07
308.235	85.5
308.449	-25.09
308.663	-8.7
308.877	142.85
309.091	-37.38
309.305	87.55
309.519	-12.8
309.733	52.74
309.947	15.87
310.161	110.08
310.374	26.11
310.588	81.41
310.802	91.65
311.016	52.74
311.23	75.26
311.444	60.93
311.658	36.35
311.872	89.6
312.085	40.45
312.299	69.12
312.513	83.45
312.727	36.35
312.941	56.83
313.154	56.83
313.368	5.63
313.582	58.88
313.796	1.54
314.009	91.65
314.223	58.88
314.437	81.41
314.651	48.64
314.864	32.26
315.078	97.79
315.292	17.92
315.505	67.07
315.719	-53.76
315.933	26.11
316.146	151.04
316.36	-49.66
316.573	132.61
316.787	85.5
317.001	73.21
317.214	15.87
317.428	42.5
317.641	-59.9
317.855	48.64
318.068	9.73
318.282	60.93
318.495	56.83
318.709	32.26
318.922	73.21
319.136	40.45
319.349	15.87
319.563	17.92
319.776	-6.66
319.99	22.02
320.203	19.97
320.417	48.64
320.63	159.23
320.843	108.03
321.057	85.5
321.27	24.06
321.483	-39.42
321.697	101.89
321.91	24.06
322.124	40.45
322.337	58.88
322.55	56.83
322.763	85.5
322.977	32.26
323.19	15.87
323.403	15.87
323.617	50.69
323.83	105.98
324.043	56.83
324.256	99.84
324.469	46.59
324.683	114.17
324.896	7.68
325.109	128.51
325.322	19.97
325.535	11.78
325.748	97.79
325.962	7.68
326.175	44.54
326.388	136.7
326.601	32.26
326.814	3.58
327.027	15.87
327.24	87.55
327.453	5.63
327.666	71.17
327.879	1.54
328.092	-20.99
328.305	40.45
328.518	32.26
328.731	7.68
328.944	-2.56
329.157	73.21
329.37	42.5
329.583	116.22
329.796	44.54
330.009	-29.18
330.222	89.6
330.435	83.45
330.648	65.02
330.861	13.82
331.073	101.89
331.286	67.07
331.499	52.74
331.712	-45.57
331.925	48.64
332.138	28.16
332.35	122.37
332.563	97.79
332.776	30.21
332.989	75.26
333.202	75.26
333.414	124.41
333.627	1.54
333.84	95.74
334.053	28.16
334.265	24.06
334.478	40.45
334.691	73.21
334.903	17.92
335.116	28.16
335.329	-8.7
335.541	42.5
335.754	83.45
335.966	42.5
336.179	32.26
336.392	36.35
336.604	58.88
336.817	83.45
337.029	56.83
337.242	56.83
337.454	91.65
337.667	19.97
337.88	48.64
338.092	24.06
338.305	128.51
338.517	-70.14
338.729	75.26
338.942	46.59
339.154	24.06
339.367	-16.9
339.579	22.02
339.792	7.68
340.004	36.35
340.217	65.02
340.429	54.78
340.641	36.35
340.854	73.21
341.066	46.59
341.278	105.98
341.491	146.94
341.703	42.5
341.915	69.12
342.128	99.84
342.34	36.35
342.552	40.45
342.764	32.26
342.977	7.68
343.189	-14.85
343.401	22.02
343.613	48.64
343.826	-18.94
344.038	40.45
344.25	32.26
344.462	50.69
344.674	34.3
344.886	54.78
345.099	91.65
345.311	-8.7
345.523	36.35
345.735	42.5
345.947	134.65
346.159	-8.7
346.371	26.11
346.583	48.64
346.795	167.42
347.007	120.32
347.219	89.6
347.431	36.35
347.643	75.26
347.855	-49.66
348.067	89.6
348.279	-23.04
348.491	42.5
348.703	97.79
348.915	-57.86
349.127	11.78
349.339	89.6
349.551	15.87
349.763	9.73
349.975	24.06
350.187	77.31
350.399	75.26
350.61	36.35
350.822	-31.23
351.034	93.69
351.246	73.21
351.458	108.03
351.669	40.45
351.881	114.17
352.093	30.21
352.305	101.89
352.517	56.83
352.728	97.79
352.94	24.06
353.152	73.21
353.363	56.83
353.575	32.26
353.787	77.31
353.999	24.06
354.21	87.55
354.422	24.06
354.633	48.64
354.845	134.65
355.057	40.45
355.268	36.35
355.48	83.45
355.692	-0.51
355.903	81.41
356.115	42.5
356.326	-20.99
356.538	108.03
356.749	97.79
356.961	97.79
357.172	77.31
357.384	11.78
357.595	99.84
357.807	22.02
358.018	77.31
358.23	89.6
358.441	138.75
358.653	48.64
358.864	9.73
359.075	69.12
359.287	28.16
359.498	26.11
359.709	48.64
359.921	9.73
360.132	93.69
360.344	99.84
360.555	89.6
360.766	116.22
360.977	9.73
361.189	36.35
361.4	67.07
361.611	124.41
361.823	69.12
362.034	81.41
362.245	32.26
362.456	97.79
362.667	91.65
362.879	3.58
363.09	24.06
363.301	62.98
363.512	48.64
363.723	67.07
363.935	42.5
364.146	124.41
364.357	89.6
364.568	36.35
364.779	42.5
364.99	40.45
365.201	32.26
365.412	48.64
365.623	-39.42
365.834	128.51
366.045	105.98
366.256	83.45
366.467	7.68
366.678	75.26
366.889	99.84
367.1	67.07
367.311	58.88
367.522	9.73
367.733	114.17
367.944	62.98
368.155	69.12
368.366	122.37
368.577	79.36
368.788	99.84
368.999	77.31
369.209	103.93
369.42	132.61
369.631	42.5
369.842	120.32
370.053	101.89
370.264	56.83
370.474	13.82
370.685	9.73
370.896	67.07
371.107	114.17
371.317	118.27
371.528	28.16
371.739	77.31
371.95	60.93
372.16	85.5
372.371	9.73
372.582	77.31
372.792	67.07
373.003	65.02
373.214	122.37
373.424	69.12
373.635	34.3
373.846	42.5
374.056	73.21
374.267	34.3
374.477	34.3
374.688	65.02
374.898	48.64
375.109	81.41
375.319	32.26
375.53	79.36
375.74	108.03
375.951	32.26
376.161	140.8
376.372	48.64
376.582	-14.85
376.793	50.69
377.003	5.63
377.214	40.45
377.424	142.85
377.635	126.46
377.845	32.26
378.055	81.41
378.266	65.02
378.476	93.69
378.686	7.68
378.897	85.5
379.107	52.74
379.317	69.12
379.528	19.97
379.738	26.11
379.948	-12.8
380.158	130.56
380.369	146.94
380.579	73.21
380.789	56.83
380.999	83.45
381.21	69.12
381.42	69.12
381.63	-8.7
381.84	56.83
382.05	3.58
382.261	130.56
382.471	85.5
382.681	1.54
382.891	112.13
383.101	52.74
383.311	3.58
383.521	89.6
383.731	65.02
383.941	118.27
384.151	40.45
384.361	105.98
384.571	58.88
384.781	132.61
384.991	189.95
385.201	110.08
385.411	99.84
385.621	177.66
385.831	75.26
386.041	58.88
386.251	120.32
386.461	101.89
386.671	-14.85
386.881	32.26
387.091	128.51
387.301	148.99
387.511	58.88
387.72	52.74
387.93	120.32
388.14	24.06
388.35	56.83
388.56	97.79
388.769	134.65
388.979	146.94
389.189	103.93
389.399	24.06
389.609	122.37
389.818	155.13
390.028	81.41
390.238	36.35
390.447	114.17
390.657	99.84
390.867	105.98
391.076	69.12
391.286	26.11
391.496	126.46
391.705	208.38
391.915	101.89
392.125	73.21
392.334	85.5
392.544	108.03
392.753	97.79
392.963	130.56
393.172	83.45
393.382	144.89
393.591	108.03
393.801	108.03
394.01	212.48
394.22	132.61
394.429	65.02
394.639	105.98
394.848	155.13
395.058	77.31
395.267	40.45
395.477	69.12
395.686	52.74
395.895	179.71
396.105	208.38
396.314	71.17
396.524	108.03
396.733	112.13
396.942	118.27
397.152	130.56
397.361	81.41
397.57	116.22
397.78	120.32
397.989	122.37
398.198	155.13
398.407	103.93
398.617	91.65
398.826	116.22
399.035	155.13
399.244	196.09
399.453	155.13
399.663	157.18
399.872	77.31
400.081	118.27
400.29	120.32
400.499	67.07
400.708	212.48
400.917	56.83
401.127	159.23
401.336	122.37
401.545	155.13
401.754	189.95
401.963	110.08
402.172	114.17
402.381	75.26
402.59	216.57
402.799	146.94
403.008	189.95
403.217	97.79
403.426	187.9
403.635	171.52
403.844	165.37
404.053	206.33
404.262	194.05
404.471	130.56
404.68	142.85
404.888	151.04
405.097	132.61
405.306	179.71
405.515	196.09
405.724	171.52
405.933	202.24
406.142	185.85
406.35	196.09
406.559	151.04
406.768	181.76
406.977	241.15
407.185	220.67
407.394	288.25
407.603	177.66
407.812	259.58
408.02	302.59
408.229	222.72
408.438	237.05
408.646	263.68
408.855	353.79
409.064	343.55
409.272	329.21
409.481	318.97
409.69	392.7
409.898	337.4
410.107	292.35
410.315	359.93
410.524	417.27
410.733	382.46
410.941	376.31
411.15	366.07
411.358	450.04
411.567	458.23
411.775	407.03
411.984	482.81
412.192	579.06
412.401	474.62
412.609	591.35
412.818	507.38
413.026	491
413.234	593.4
413.443	638.45
413.651	570.87
413.86	628.21
414.068	673.27
414.276	665.08
414.485	636.41
414.693	785.91
414.901	851.44
415.11	763.38
415.318	773.62
415.526	878.07
415.734	876.02
415.943	902.64
416.151	957.94
416.359	949.75
416.567	1099.25
416.776	968.18
416.984	1172.97
417.192	1152.49
417.4	1246.7
417.608	1170.93
417.817	1246.7
418.025	1324.52
418.233	1295.85
418.441	1302
418.649	1369.58
418.857	1482.22
419.065	1500.65
419.273	1498.6
419.481	1500.65
419.689	1617.38
419.897	1709.54
420.105	1680.87
420.313	1818.08
420.521	2004.45
420.729	1832.42
420.937	1902.05
421.145	2051.55
421.353	2080.22
421.561	2203.1
421.769	2217.44
421.977	2467.29
422.185	2317.79
422.393	2508.25
422.601	2694.61
422.809	2663.9
423.017	2751.96
423.224	2825.68
423.432	3048.91
423.64	2729.43
423.848	3063.25
424.056	3184.08
424.263	3231.18
424.471	3296.72
424.679	3440.08
424.887	3456.46
425.094	3755.46
425.302	3571.15
425.51	3759.56
425.718	3968.45
425.925	3999.17
426.133	4038.08
426.341	4459.96
426.548	4523.45
426.756	4531.64
426.964	4644.28
427.171	4773.3
427.379	4933.04
427.586	4998.58
427.794	5279.15
428.001	5529
428.209	5760.42
428.417	5594.54
428.624	6032.8
428.832	6071.72
429.039	5944.74
429.247	6104.48
429.454	6409.63
429.662	6882.71
429.869	6559.13
430.076	7079.32
430.284	6757.78
430.491	7222.67
430.699	7521.68
430.906	7609.74
431.114	7749
431.321	7832.97
431.528	8101.25
431.736	8543.61
431.943	8899.96
432.15	8856.95
432.358	8875.38
432.565	9276.79
432.772	9194.87
432.979	9872.75
433.187	9854.31
433.394	9987.43
433.601	10655.07
433.808	10741.08
434.016	10745.18
434.223	11199.83
434.43	11830.6
434.637	11492.69
434.844	12377.41
435.052	12385.6
435.259	12438.85
435.466	12440.9
435.673	12393.79
435.88	13264.18
436.087	13919.53
436.294	13983.02
436.501	13794.61
436.708	13868.33
436.915	14390.56
437.122	14957.85
437.329	15056.15
437.537	15469.84
437.743	15592.72
437.95	15525.14
438.157	16448.77
438.364	17241.34
438.571	17059.07
438.778	17097.98
438.985	18605.28
439.192	17771.76
439.399	18500.84
439.606	17988.85
439.813	19088.6
440.02	20362.44
440.227	19801.3
440.433	19778.77
440.64	20364.49
440.847	20413.64
441.054	20577.48
441.261	22019.25
441.467	21654.71
441.674	22213.81
441.881	23145.63
442.088	23041.18
442.294	22865.06
442.501	23395.48
442.708	23968.91
442.914	24835.21
443.121	25967.73
443.328	25271.42
443.534	26946.66
443.741	26070.13
443.948	26020.98
444.154	27874.39
444.361	27991.12
444.568	27757.66
444.774	27974.74
444.981	28077.14
445.187	28703.82
445.394	30266.42
445.6	29684.8
445.807	32992.26
446.013	31063.08
446.22	32195.6
446.426	33207.3
446.633	33229.83
446.839	34470.9
447.046	33311.75
447.252	35140.58
447.459	34989.03
447.665	34851.82
447.871	36215.77
448.078	37653.44
448.284	36178.9
448.491	37393.35
448.697	38661.04
448.903	39136.17
449.11	39822.24
449.316	39027.63
449.522	39621.54
449.728	40747.92
449.935	40967.05
450.141	41042.83
450.347	42201.98
450.553	40856.46
450.76	41816.96
450.966	42750.84
451.172	42247.04
451.378	43619.17
451.584	42525.56
451.791	43928.42
451.997	43264.88
452.203	44114.78
452.409	44096.35
452.615	44299.1
452.821	42769.27
453.027	42541.94
453.233	44700.5
453.44	43027.31
453.646	43299.69
453.852	43348.84
454.058	44069.73
454.264	42732.4
454.47	43942.75
454.676	43172.72
454.882	44182.37
455.088	40684.44
455.294	41245.58
455.5	41814.91
455.705	42271.61
455.911	40334.23
456.117	39885.73
456.323	39461.8
456.529	37329.86
456.735	39205.8
456.941	38253.5
457.147	37770.18
457.352	36613.07
457.558	36166.62
457.764	36518.87
457.97	35578.85
458.176	35091.43
458.381	35070.95
458.587	33309.7
458.793	33354.76
458.999	31450.14
459.204	33844.22
459.41	32689.17
459.616	30592.05
459.821	30848.04
460.027	30659.63
460.233	29948.98
460.438	28869.7
460.644	28789.83
460.85	27862.1
461.055	27106.4
461.261	27360.35
461.466	25519.23
461.672	24669.32
461.878	26530.92
462.083	24583.3
462.289	24282.25
462.494	23780.5
462.7	22736.04
462.905	22334.64
463.111	23217.31
463.316	23010.46
463.522	22500.52
463.727	22592.68
463.932	22811.81
464.138	22228.14
464.343	22525.1
464.549	21984.43
464.754	22473.9
464.959	22330.54
465.165	22103.21
465.37	21576.89
465.575	20802.75
465.781	21871.79
465.986	21775.54
466.191	21048.51
466.397	20262.09
466.602	19545.3
466.807	20436.17
467.012	20354.25
467.218	20237.52
467.423	20237.52
467.628	20106.45
467.833	20982.98
468.038	20131.02
468.244	19559.64
468.449	20391.11
468.654	19666.13
468.859	19455.19
469.064	19487.96
469.269	18662.63
469.474	18994.4
469.679	19326.17
469.885	18973.92
470.09	18894.05
470.295	19070.17
470.5	18453.73
470.705	18476.26
470.91	18210.03
471.115	18101.48
471.32	18339.05
471.525	18259.18
471.73	17685.75
471.935	17745.14
472.139	17136.89
472.344	17159.42
472.549	17366.26
472.754	16917.76
472.959	16669.95
473.164	16309.51
473.369	15959.31
473.574	16600.32
473.778	16637.19
473.983	16327.94
474.188	16598.27
474.393	15609.11
474.598	15639.83
474.802	15351.06
475.007	15781.14
475.212	15482.13
475.417	14703.9
475.621	14863.65
475.826	15219.99
476.031	14693.66
476.235	14378.28
476.44	14615.84
476.645	14318.89
476.849	14466.34
477.054	14271.78
477.259	13997.35
477.463	13974.83
477.668	13360.44
477.872	13954.35
478.077	13739.31
478.282	13163.83
478.486	13380.92
478.691	13051.19
478.895	13126.97
479.1	12922.17
479.304	13098.3
479.509	12678.46
479.713	12766.53
479.918	12410.18
480.122	12354.88
480.326	12496.19
480.531	12641.6
480.735	12320.07
480.94	12053.83
481.144	12752.19
481.348	11844.94
481.553	12182.85
481.757	12033.35
481.961	11949.39
482.166	12346.69
482.37	12170.57
482.574	11853.13
482.778	11705.68
482.983	12338.5
483.187	11887.95
483.391	11898.19
483.595	11857.23
483.8	11969.87
484.004	11971.91
484.208	12129.61
484.412	11930.95
484.616	12111.18
484.821	11775.31
485.025	11869.51
485.229	11914.57
485.433	11812.17
485.637	11980.11
485.841	11879.75
486.045	12053.83
486.249	12086.6
486.453	11887.95
486.657	11992.39
486.861	11992.39
487.065	11724.11
487.269	11795.79
487.473	11691.34
487.677	12047.69
487.881	12160.33
488.085	11947.34
488.289	11904.33
488.493	12008.78
488.697	11912.52
488.901	12299.59
489.105	12215.62
489.309	12016.97
489.512	12025.16
489.716	12270.92
489.92	12252.49
490.124	12088.65
490.328	12404.03
490.531	12381.51
490.735	12191.05
490.939	12508.48
491.143	12401.99
491.346	12279.11
491.55	12721.47
491.754	12698.94
491.958	12889.4
492.161	12533.06
492.365	12813.63
492.569	12830.01
492.772	12821.82
492.976	12979.51
493.18	13008.19
493.383	13198.65
493.587	13278.52
493.79	13552.95
493.994	13348.15
494.197	13489.46
494.401	13401.4
494.605	13819.18
494.808	13796.65
495.012	13784.37
495.215	13890.86
495.419	13917.48
495.622	13923.63
495.825	14308.65
496.029	14337.32
496.232	14626.08
496.436	14501.15
496.639	14953.76
496.843	14822.69
497.046	15211.8
497.249	15361.3
497.453	15086.87
497.656	15422.74
497.859	15662.35
498.063	15670.54
498.266	16067.85
498.469	15963.4
498.673	16252.17
498.876	16766.21
499.079	16801.02
499.282	16491.78
499.485	17190.14
499.689	17347.83
499.892	17286.39
500.095	17351.93
500.298	17749.23
500.501	17800.43
500.705	18324.71
500.908	18623.72
501.111	18613.48
501.314	18879.71
501.517	18908.38
501.72	19436.76
501.923	19328.22
502.126	19834.07
502.329	19821.78
502.532	19866.83
502.735	20002
502.938	20573.38
503.141	20960.45
503.344	21089.47
503.547	21150.91
503.75	21351.61
503.953	21824.69
504.156	22078.64
504.359	22443.18
504.562	22641.83
504.765	23172.25
504.968	22914.21
505.17	23536.79
505.373	23452.83
505.576	23819.41
505.779	24341.64
505.982	24245.39
506.185	24874.12
506.387	24982.66
506.59	25212.03
506.793	25582.71
506.996	25592.95
507.198	26307.69
507.401	26098.8
507.604	26500.2
507.807	27126.88
508.009	27589.72
508.212	27165.79
508.415	27581.53
508.617	27972.69
508.82	28355.66
509.022	27956.31
509.225	29129.8
509.428	29508.67
509.63	29871.16
509.833	29580.35
510.035	30512.17
510.238	30176.31
510.44	30624.81
510.643	31417.38
510.845	31421.47
511.048	31450.14
511.25	32035.86
511.453	32300.05
511.655	33137.67
511.858	32818.19
512.06	32959.5
512.262	33745.92
512.465	33426.43
512.667	34307.06
512.87	34524.15
513.072	34845.68
513.274	35017.71
513.477	35419.11
513.679	35906.52
513.881	36656.08
514.084	36336.6
514.286	36420.56
514.488	37080.01
514.69	38597.56
514.893	38003.64
515.095	38065.08
515.297	38634.42
515.499	38624.18
515.701	39383.98
515.904	39476.13
516.106	39918.49
516.308	40254.36
516.51	40711.06
516.712	40881.04
516.914	41157.52
517.116	41855.87
517.318	42126.21
517.52	42359.67
517.722	42363.77
517.925	43070.32
518.127	43592.55
518.329	43864.93
518.531	43438.95
518.733	44469.08
518.935	44917.59
519.136	44823.38
519.338	45544.27
519.54	45759.3
519.742	46232.38
519.944	46191.42
520.146	46844.73
520.348	47014.71
520.55	47475.5
520.752	47696.68
520.954	48257.82
521.155	48067.36
521.357	48984.85
521.559	49212.18
521.761	49785.61
521.963	49695.5
522.164	50023.17
522.366	50096.9
522.568	51022.58
522.77	51100.4
522.971	51579.63
523.173	51270.39
523.375	51935.98
523.576	51716.84
523.778	52228.84
523.98	52806.36
524.181	52959.96
524.383	52712.16
524.584	53449.42
524.786	53752.52
524.988	52970.2
525.189	54285
525.391	54153.93
525.592	55052.98
525.794	54999.74
525.995	55030.46
526.197	55067.32
526.398	55333.56
526.6	55593.65
526.801	55741.1
527.003	55622.32
527.204	55718.57
527.406	56138.41
527.607	56134.31
527.808	56494.75
528.01	55794.35
528.211	56470.18
528.412	57453.2
528.614	57307.8
528.815	56804
529.016	57705.1
529.218	57107.1
529.419	57297.56
529.62	57633.42
529.822	57246.36
530.023	57842.32
530.224	57580.18
530.425	57494.16
530.626	57488.02
530.828	57651.86
531.029	58753.66
531.23	58012.3
531.431	58143.37
531.632	58528.39
531.833	58673.79
532.035	58419.84
532.236	58839.68
532.437	58952.32
532.638	58176.14
532.839	58634.88
533.04	58845.82
533.241	58471.04
533.442	59368.05
533.643	58290.82
533.844	58686.08
534.045	58993.28
534.246	58610.31
534.447	59200.12
534.648	58600.07
534.849	59216.5
535.05	58626.69
535.251	58786.43
535.451	58626.69
535.652	58933.88
535.853	58985.08
536.054	59183.74
536.255	59347.57
536.456	58692.22
536.657	59650.67
536.857	58526.34
537.058	58739.33
537.259	59390.58
537.46	59222.65
537.66	58862.21
537.861	59122.3
538.062	58591.87
538.263	59372.15
538.463	58962.56
538.664	59171.45
538.865	59114.11
539.065	59632.24
539.266	58831.49
539.466	59550.32
539.667	58559.11
539.868	59296.38
540.068	59329.14
540.269	58571.39
540.469	58964.6
540.67	58698.37
540.87	59032.19
541.071	59142.78
541.271	59318.9
541.472	59032.19
541.672	58968.7
541.873	58763.9
542.073	58552.96
542.274	59300.47
542.474	59036.28
542.675	58630.79
542.875	59314.81
543.075	59241.08
543.276	58364.55
543.476	59126.39
543.676	58851.97
543.877	59376.25
544.077	58751.62
544.277	58757.76
544.478	58724.99
544.678	58610.31
544.878	58911.36
545.078	58892.93
545.279	58487.43
545.479	58720.9
545.679	59013.76
545.879	58702.46
546.079	58681.98
546.28	58428.04
546.48	58167.94
546.68	59198.07
546.88	58673.79
547.08	58952.32
547.28	58634.88
547.48	58526.34
547.68	58862.21
547.88	58354.31
548.081	58782.34
548.281	58716.8
548.481	58315.4
548.681	59163.26
548.881	58927.74
549.081	58995.32
549.28	57858.7
549.48	58970.75
549.68	58544.77
549.88	58815.1
550.08	58299.01
550.28	58354.31
550.48	58643.07
550.68	58870.4
550.88	57741.97
551.08	58444.42
551.279	58600.07
551.479	58489.48
551.679	58137.22
551.879	57825.93
552.079	58706.56
552.278	58198.66
552.478	58284.68
552.678	58206.86
552.878	58509.96
553.077	58256.01
553.277	58278.53
553.477	59038.33
553.676	58264.2
553.876	58366.6
554.076	57827.98
554.275	58151.56
554.475	57889.42
554.674	57983.63
554.874	58141.32
555.074	57705.1
555.273	57856.65
555.473	58251.91
555.672	57422.48
555.872	57957
556.071	57799.31
556.271	57932.43
556.47	57870.99
556.67	57338.52
556.869	57692.82
557.068	57758.35
557.268	57025.18
557.467	57315.99
557.667	57522.83
557.866	57275.03
558.065	57225.88
558.265	57256.6
558.464	57023.13
558.663	57840.27
558.863	56283.81
559.062	57803.41
559.261	56779.42
559.461	57254.55
559.66	56324.77
559.859	56625.82
560.058	56586.91
560.258	57266.84
560.457	56410.79
560.656	56677.02
560.855	56464.03
561.054	56955.55
561.253	56611.49
561.453	56494.75
561.652	56570.53
561.851	56658.59
562.05	56038.06
562.249	55978.67
562.448	56595.1
562.647	56175.27
562.846	56314.53
563.045	55921.32
563.244	55886.51
563.443	56353.44
563.642	55055.03
563.841	55921.32
564.04	55415.47
564.239	56066.73
564.438	55560.88
564.637	55663.28
564.836	55702.19
565.035	55194.29
565.234	55472.82
565.432	55255.73
565.631	55001.78
565.83	55603.89
566.029	55374.52
566.228	54852.28
566.427	54889.15
566.625	54774.46
566.824	54469.31
567.023	54913.72
567.222	54131.4
567.42	54713.02
567.619	54502.08
567.818	53938.89
568.016	54385.35
568.215	54584
568.414	54260.42
568.612	54180.55
568.811	54299.33
569.01	54037.19
569.208	53224.15
569.407	54178.5
569.605	53177.04
569.804	53617.36
570.002	53070.55
570.201	53519.06
570.4	53105.37
570.598	52900.57
570.797	52880.09
570.995	53129.94
571.193	52194.02
571.392	53007.06
571.59	52581.09
571.789	52415.2
571.987	52335.33
572.186	52433.63
572.384	52169.44
572.582	52527.84
572.781	52527.84
572.979	51409.65
573.177	52019.94
573.376	52585.18
573.574	51585.77
573.772	51340.02
573.971	51213.04
574.169	51225.33
574.367	51239.67
574.565	51892.97
574.763	51067.64
574.962	50723.58
575.16	50907.9
575.358	51000.05
575.556	50041.6
575.754	50789.11
575.952	50238.21
576.151	50721.53
576.349	49941.25
576.547	49998.6
576.745	49996.55
576.943	50131.72
577.141	49888.01
577.339	49953.54
577.537	49502.99
577.735	49304.34
577.933	49343.25
578.131	49392.4
578.329	49181.46
578.527	49015.57
578.725	49005.33
578.923	49275.66
579.121	48657.18
579.319	48597.79
579.516	48876.31
579.714	48249.63
579.912	47780.65
580.11	48096.03
580.308	47729.45
580.506	47758.12
580.704	47246.13
580.901	48180
581.099	48016.16
581.297	47264.56
581.495	47704.87
581.692	47385.39
581.89	47135.54
582.088	47559.47
582.285	46965.56
582.483	47512.36
582.681	46983.99
582.878	46330.69
583.076	46404.41
583.274	46668.6
583.471	46097.22
583.669	46338.88
583.866	45931.33
584.064	46140.22
584.262	45476.68
584.459	46074.69
584.657	45740.87
584.854	46203.71
585.052	45151.06
585.249	45650.76
585.447	45454.15
585.644	44929.87
585.841	45331.28
586.039	45175.63
586.236	44512.09
586.434	44583.77
586.631	44430.17
586.828	44227.42
587.026	44249.95
587.223	44295
587.42	43826.02
587.618	44153.69
587.815	43885.41
588.012	44014.43
588.21	43441
588.407	43973.47
588.604	43275.12
588.801	43289.45
588.999	43086.7
589.196	43225.96
589.393	43035.5
589.59	42668.92
589.787	42722.16
589.984	42511.22
590.182	42558.33
590.379	42257.28
590.576	42109.82
590.773	42042.24
590.97	41880.45
591.167	42568.57
591.364	41350.03
591.561	42191.74
591.758	41038.73
591.955	41190.28
592.152	41636.74
592.349	41366.41
592.546	41636.74
592.743	41249.67
592.94	40727.44
593.137	41087.89
593.334	40844.18
593.531	40303.51
593.727	40596.37
593.924	40645.52
594.121	40129.44
594.318	40268.7
594.515	39842.72
594.712	39785.38
594.908	39926.69
595.105	39773.09
595.302	39482.28
595.499	39345.06
595.696	39771.04
595.892	39326.63
596.089	39269.29
596.286	39340.97
596.482	38921.13
596.679	39105.45
596.876	39017.39
597.072	38575.03
597.269	38308.79
597.466	37999.55
597.662	38255.54
597.859	38122.43
598.055	38329.27
598.252	37827.52
598.448	38007.74
598.645	38052.8
598.841	37659.59
599.038	37643.2
599.234	37538.76
599.431	37899.2
599.627	37366.73
599.824	37249.99
600.02	36738
600.217	36811.73
600.413	36678.61
600.609	36801.49
600.806	36725.71
601.002	36664.27
601.198	36166.62
601.395	36371.41
601.591	36090.84
601.787	36232.15
601.984	36082.65
602.18	36303.83
602.376	35720.16
602.572	35296.23
602.769	35347.43
602.965	35673.06
603.161	35570.66
603.357	35187.69
603.553	35091.43
603.75	35091.43
603.946	34986.99
604.142	35269.61
604.338	34372.6
604.534	34857.96
604.73	34538.48
604.926	34081.78
605.122	34509.81
605.318	34135.03
605.514	34313.2
605.71	33725.44
605.906	33598.46
606.102	33856.51
606.298	34046.97
606.494	33850.36
606.69	33569.79
606.886	33522.69
607.082	32955.4
607.278	33428.48
607.474	32887.82
607.67	33272.84
607.866	33020.94
608.062	33295.36
608.257	32758.8
608.453	32885.77
608.649	32779.28
608.845	32498.7
609.041	32549.9
609.236	32863.24
609.432	32355.35
609.628	32584.72
609.824	32062.49
610.019	32302.1
610.215	32246.8
610.411	32343.06
610.606	31808.54
610.802	32076.82
610.998	31964.18
611.193	31927.32
611.389	31620.13
611.584	31400.99
611.78	31538.21
611.976	31394.85
612.171	31540.25
612.367	31269.92
612.562	31171.62
612.758	30845.99
612.953	30899.24
613.149	31151.14
613.344	30858.28
613.539	31441.95
613.735	31235.11
613.93	31190.05
614.126	30671.92
614.321	31149.09
614.517	30331.95
614.712	30958.63
614.907	30696.49
615.103	30845.99
615.298	30331.95
615.493	30827.56
615.688	30030.9
615.884	30590
616.079	30286.9
616.274	30407.73
616.47	30329.91
616.665	30204.98
616.86	29901.88
617.055	29633.6
617.25	29883.45
617.445	29961.27
617.641	29400.13
617.836	29643.84
618.031	29166.66
618.226	29514.81
618.421	29457.47
618.616	29512.77
618.811	29103.17
619.006	29740.09
619.201	28435.53
619.396	28707.91
619.591	28234.83
619.786	28456.01
619.981	28337.23
620.176	28646.47
620.371	28056.66
620.566	28167.25
620.761	28169.3
620.956	28136.53
621.151	27776.09
621.346	27909.21
621.541	27305.06
621.735	27575.39
621.93	27100.26
622.125	27141.22
622.32	26688.62
622.515	27024.48
622.709	26616.94
622.904	26604.65
623.099	26526.83
623.294	26295.41
623.488	26127.47
623.683	26074.23
623.878	25752.7
624.072	25877.62
624.267	25592.95
624.462	25480.32
624.656	25171.07
624.851	25418.88
625.046	25066.63
625.24	24861.83
625.435	24767.62
625.629	24702.09
625.824	24437.9
626.018	24790.15
626.213	24038.55
626.407	23921.81
626.602	23813.27
626.796	24241.29
626.991	24446.09
627.185	23772.31
627.38	23434.39
627.574	23403.67
627.768	23344.28
627.963	22768.8
628.157	22922.4
628.352	22748.32
628.546	22721.7
628.74	23055.52
628.935	22324.4
629.129	22672.55
629.323	22160.56
629.517	22199.47
629.712	22103.21
629.906	22072.5
630.1	21849.27
630.294	21742.77
630.489	21533.88
630.683	21769.4
630.877	21114.05
631.071	21261.5
631.265	21167.29
631.459	21271.74
631.653	21185.72
631.848	20468.94
632.042	20876.48
632.236	20745.41
632.43	20620.49
632.624	20540.61
632.818	20141.26
633.012	20040.91
633.206	20149.45
633.4	19952.85
633.594	19690.71
633.788	19729.62
633.982	19557.59
634.176	19664.08
634.369	19526.87
634.563	19352.79
634.757	19184.86
634.951	19291.35
635.145	19137.76
635.339	19178.72
635.533	18826.46
635.726	18920.67
635.92	18549.99
636.114	18820.32
636.308	18463.97
636.501	18541.8
636.695	18466.02
636.889	18236.65
637.083	17904.88
637.276	18031.85
637.47	18058.48
637.664	17906.93
637.857	17945.84
638.051	17775.86
638.244	17288.44
638.438	17378.55
638.632	17528.05
638.825	17368.31
639.019	17394.93
639.212	17116.41
639.406	17165.56
639.599	16809.22
639.793	16813.31
639.986	16567.56
640.18	16712.96
640.373	16407.81
640.567	16319.75
640.76	16590.08
640.954	16160.01
641.147	16313.61
641.34	16139.53
641.534	15983.88
641.727	16112.91
641.92	15863.05
642.114	15748.37
642.307	15670.54
642.5	15541.52
642.694	15437.08
642.887	15432.98
643.08	15635.73
643.273	15260.95
643.467	15097.11
643.66	15240.47
643.853	15033.63
644.046	14830.88
644.239	14681.38
644.432	14591.27
644.626	14589.22
644.819	14531.87
645.012	14544.16
645.205	14398.76
645.398	14245.16
645.591	14269.73
645.784	14060.84
645.977	13790.51
646.17	13972.78
646.363	13675.82
646.556	13743.41
646.749	13688.11
646.942	13565.23
647.135	13624.62
647.328	13364.53
647.521	13583.66
647.714	13366.58
647.907	13210.93
648.099	13051.19
648.292	13116.73
648.485	12729.66
648.678	12852.54
648.871	12764.48
649.064	12891.45
649.256	12723.52
649.449	12614.98
649.642	12602.69
649.835	12381.51
650.027	12537.15
650.22	12385.6
650.413	12240.2
650.605	12393.79
650.798	12094.79
650.991	12215.62
651.183	12076.36
651.376	11920.71
651.568	12029.26
651.761	11840.84
651.954	11742.54
652.146	11832.65
652.339	11574.61
652.531	11824.46
652.724	11169.11
652.916	11365.71
653.109	11582.8
653.301	11402.58
653.494	11357.52
653.686	11255.12
653.879	11232.6
654.071	11248.98
654.263	11011.42
654.456	11019.61
654.648	11103.57
654.84	10743.13
655.033	10833.24
655.225	10657.12
655.417	10542.43
655.61	10429.79
655.802	10472.8
655.994	10378.59
656.186	10386.79
656.379	10186.08
656.571	10472.8
656.763	10339.68
656.955	10110.31
657.148	10263.91
657.34	9952.62
657.532	9889.13
657.724	10061.16
657.916	10003.82
658.108	9825.64
658.3	9620.85
658.492	9594.22
658.684	9446.77
658.876	9741.68
659.068	9518.45
659.26	9330.03
659.452	9397.62
659.644	9467.25
659.836	9237.88
660.028	9354.61
660.22	9241.97
660.412	8951.16
660.604	9047.41
660.796	8998.26
660.988	8996.21
661.18	8947.06
661.372	8846.71
661.563	8996.21
661.755	8580.48
661.947	8652.16
662.139	8617.34
662.331	8590.72
662.522	8637.82
662.714	8473.98
662.906	8414.59
663.097	8402.3
663.289	8248.71
663.481	8263.04
663.673	8299.91
663.864	8174.98
664.056	7894.41
664.247	8156.55
664.439	7955.85
664.631	8078.72
664.822	8095.11
665.014	7873.93
665.205	7781.77
665.397	7773.58
665.588	7851.4
665.78	7628.17
665.971	7628.17
666.163	7665.04
666.354	7521.68
666.546	7544.2
666.737	7396.75
666.929	7515.53
667.12	7259.54
667.311	7302.54
667.503	7183.76
667.694	7249.3
667.885	7286.16
668.077	7187.86
668.268	6925.72
668.459	7105.94
668.651	7032.21
668.842	6933.91
669.033	6929.81
669.224	6884.76
669.416	6888.85
669.607	6921.62
669.798	6729.11
669.989	6845.85
670.18	6749.59
670.371	6806.94
670.563	6561.18
670.754	6600.09
670.945	6571.42
671.136	6471.07
671.327	6512.03
671.518	6299.04
671.709	6462.88
671.9	6462.88
672.091	6426.01
672.282	6569.37
672.473	6180.26
672.664	6270.37
672.855	6129.06
673.046	6294.94
673.237	6317.47
673.428	6073.76
673.619	6129.06
673.809	6036.9
674	5916.07
674.191	6022.56
674.382	5963.17
674.573	6108.58
674.764	5942.69
674.954	5854.63
675.145	5907.88
675.336	5801.38
675.527	5844.39
675.717	5858.73
675.908	5758.38
676.099	5750.18
676.289	5627.31
676.48	5676.46
676.671	5610.92
676.861	5686.7
677.052	5488.04
677.243	5703.08
677.433	5492.14
677.624	5557.68
677.814	5504.43
678.005	5461.42
678.195	5449.13
678.386	5506.48
678.576	5432.75
678.767	5318.06
678.957	5324.21
679.148	5291.44
679.338	5410.22
679.529	5172.66
679.719	5395.89
679.909	5246.38
680.1	5252.53
680.29	5332.4
680.481	5193.14
680.671	5186.99
680.861	5133.75
681.052	5148.08
681.242	5080.5
681.432	5195.18
681.622	5002.68
681.813	5008.82
682.003	5047.73
682.193	5096.88
682.383	5092.79
682.573	5055.92
682.764	4965.81
682.954	4955.57
683.144	5017.01
683.334	4924.85
683.524	4752.82
683.714	4849.08
683.904	4885.94
684.094	4971.96
684.284	4892.09
684.474	4943.28
684.664	4883.89
684.854	4824.5
685.044	4801.97
685.234	4750.78
685.424	4818.36
685.614	4728.25
685.804	4900.28
685.994	4691.38
686.184	4808.12
686.374	4697.53
686.564	4687.29
686.753	4736.44
686.943	4689.34
687.133	4631.99
687.323	4668.86
687.513	4713.91
687.702	4599.23
687.892	4718.01
688.082	4347.33
688.272	4535.74
688.461	4537.79
688.651	4484.54
688.841	4550.07
689.03	4472.25
689.22	4423.1
689.41	4523.45
689.599	4445.63
689.789	4539.83
689.979	4476.35
690.168	4537.79
690.358	4378.05
690.547	4482.49
690.737	4398.52
690.926	4400.57
691.116	4259.26
691.305	4365.76
691.495	4398.52
691.684	4308.41
691.874	4216.26
692.063	4173.25
692.252	4269.5
692.442	4263.36
692.631	4187.58
692.82	4255.17
693.01	4238.78
693.199	4128.19
693.388	4160.96
693.578	4197.82
693.767	4212.16
693.956	4275.65
694.146	4177.34
694.335	4046.27
694.524	4197.82
694.713	4136.38
694.902	4052.42
695.092	4130.24
695.281	4038.08
695.47	4062.66
695.659	4122.05
695.848	3935.68
696.037	3911.11
696.226	4054.47
696.415	3966.4
696.604	4005.31
696.793	3911.11
696.982	4042.18
697.171	3966.4
697.36	3956.16
697.549	3925.44
697.738	3937.73
697.927	3907.01
698.116	3777.99
698.305	3890.63
698.494	3925.44
698.683	3792.33
698.872	3941.83
699.061	3743.17
699.25	3763.65
699.438	3608.01
699.627	3829.19
699.816	3747.27
700.005	3767.75
700.193	3745.22
700.382	3728.84
700.571	3648.97
700.76	3671.5
700.948	3792.33
701.137	3710.41
701.326	3763.65
701.514	3636.68
701.703	3579.34
701.892	3608.01
702.08	3581.39
702.269	3565
702.457	3624.39
702.646	3622.34
702.834	3511.75
703.023	3579.34
703.212	3526.09
703.4	3556.81
703.589	3562.95
703.777	3575.24
703.965	3403.21
704.154	3521.99
704.342	3339.73
704.531	3489.23
704.719	3296.72
704.907	3446.22
705.096	3354.06
705.284	3472.84
705.472	3499.47
705.661	3339.73
705.849	3306.96
706.037	3450.32
706.226	3382.73
706.414	3327.44
706.602	3249.61
706.79	3290.57
706.979	3155.41
707.167	3245.52
707.355	3237.33
707.543	3321.29
707.731	3311.05
707.919	3257.81
708.107	3214.8
708.296	3106.26
708.484	3100.11
708.672	3112.4
708.86	3153.36
709.048	3120.59
709.236	3134.93
709.424	3145.17
709.612	3165.65
709.8	3040.72
709.988	3194.32
710.176	3186.13
710.364	3145.17
710.551	3014.1
710.739	3022.29
710.927	3030.48
711.115	3059.15
711.303	3032.53
711.491	2983.38
711.679	2999.76
711.866	3005.91
712.054	3020.24
712.242	2985.43
712.43	3087.82
712.617	2944.47
712.805	2878.93
712.993	2887.12
713.181	2821.59
713.368	2813.4
713.556	2926.04
713.744	2743.77
713.931	2903.51
714.119	2891.22
714.306	2936.28
714.494	2760.15
714.682	2909.65
714.869	2794.97
715.057	2821.59
715.244	2727.38
715.432	2803.16
715.619	2786.77
715.807	2813.4
715.994	2782.68
716.182	2833.88
716.369	2811.35
716.556	2688.47
716.744	2721.24
716.931	2737.62
717.119	2809.3
717.306	2678.23
717.493	2762.2
717.681	2786.77
717.868	2770.39
718.055	2684.38
718.242	2667.99
718.43	2608.6
718.617	2622.94
718.804	2614.74
718.991	2616.79
719.179	2616.79
719.366	2434.52
719.553	2588.12
719.74	2598.36
719.927	2514.39
720.114	2649.56
720.301	2606.55
720.488	2553.31
720.676	2448.86
720.863	2436.57
721.05	2559.45
721.237	2362.84
721.424	2348.51
721.611	2532.83
721.798	2426.33
721.985	2368.99
722.172	2399.71
722.358	2409.95
722.545	2504.15
722.732	2366.94
722.919	2395.61
723.106	2444.76
723.293	2348.51
723.48	2407.9
723.667	2317.79
723.853	2317.79
724.04	2377.18
724.227	2416.09
724.414	2260.45
724.6	2299.36
724.787	2344.41
724.974	2301.4
725.161	2387.42
725.347	2199.01
725.534	2203.1
725.72	2276.83
725.907	2280.93
726.094	2244.06
726.28	2291.17
726.467	2244.06
726.653	2133.47
726.84	2190.81
727.027	2352.6
727.213	2133.47
727.4	2131.42
727.586	2100.7
727.773	2186.72
727.959	2178.53
728.145	2239.97
728.332	2229.73
728.518	2203.1
728.705	1998.31
728.891	2108.9
729.077	2121.18
729.264	2123.23
729.45	2094.56
729.636	2199.01
729.823	2094.56
730.009	2047.46
730.195	2074.08
730.382	2047.46
730.568	2039.26
730.754	2072.03
730.94	2115.04
731.126	2080.22
731.313	2072.03
731.499	1973.73
731.685	2008.55
731.871	2129.38
732.057	1990.11
732.243	2049.5
732.429	1986.02
732.615	1945.06
732.801	1949.15
732.987	1998.31
733.173	1928.67
733.359	2024.93
733.545	1883.62
733.731	2004.45
733.917	1926.63
734.103	2016.74
734.289	1908.19
734.475	1895.91
734.661	1951.2
734.847	1904.1
735.033	1869.28
735.219	1918.43
735.404	1822.18
735.59	1887.72
735.776	1813.99
735.962	1842.66
736.148	1760.74
736.333	1869.28
736.519	1859.04
736.705	1828.32
736.89	1797.6
737.076	1715.69
737.262	1867.24
737.447	1805.8
737.633	1846.76
737.819	1826.28
738.004	1748.45
738.19	1736.17
738.375	1818.08
738.561	1777.12
738.747	1699.3
738.932	1736.17
739.118	1711.59
739.303	1777.12
739.489	1762.79
739.674	1736.17
739.859	1662.44
740.045	1656.29
740.23	1727.97
740.416	1656.29
740.601	1670.63
740.786	1664.49
740.972	1711.59
741.157	1607.14
741.342	1644.01
741.528	1588.71
741.713	1588.71
741.898	1652.2
742.084	1664.49
742.269	1666.53
742.454	1695.21
742.639	1592.81
742.824	1613.29
743.01	1637.86
743.195	1582.57
743.38	1596.9
743.565	1451.5
743.75	1584.62
743.935	1525.22
744.12	1615.34
744.305	1455.59
744.49	1570.28
744.675	1465.83
744.86	1428.97
745.045	1514.98
745.23	1592.81
745.415	1400.3
745.6	1519.08
745.785	1457.64
745.97	1590.76
746.155	1506.79
746.34	1418.73
746.525	1443.31
746.71	1500.65
746.895	1414.63
747.079	1355.24
747.264	1379.82
747.449	1408.49
747.634	1392.11
747.819	1457.64
748.003	1312.24
748.188	1351.15
748.373	1385.96
748.557	1379.82
748.742	1347.05
748.927	1338.86
749.111	1269.23
749.296	1295.85
749.481	1369.58
749.665	1248.75
749.85	1277.42
750.034	1254.89
750.219	1369.58
750.404	1181.17
750.588	1310.19
750.773	1156.59
750.957	1199.6
751.141	1203.69
751.326	1146.35
751.51	1105.39
751.695	1140.21
751.879	1129.97
752.064	1148.4
752.248	1166.83
752.432	1263.08
752.617	1132.01
752.801	1168.88
752.985	1101.3
753.17	1154.54
753.354	1166.83
753.538	1179.12
753.722	1117.68
753.907	1146.35
754.091	1021.42
754.275	1179.12
754.459	1062.38
754.643	955.89
754.828	1064.43
755.012	1035.76
755.196	1017.33
755.38	1113.58
755.564	1048.05
755.748	1000.94
755.932	1000.94
756.116	1029.62
756.3	1066.48
756.484	1037.81
756.668	1064.43
756.852	968.18
757.036	1035.76
757.22	964.08
757.404	886.26
757.588	957.94
757.772	949.75
757.956	1009.14
758.14	949.75
758.323	927.22
758.507	916.98
758.691	974.32
758.875	841.2
759.059	937.46
759.242	898.55
759.426	826.87
759.61	896.5
759.794	1031.66
759.977	914.93
760.161	962.03
760.345	855.54
760.528	943.6
760.712	929.27
760.895	861.68
761.079	876.02
761.263	845.3
761.446	806.39
761.63	785.91
761.813	839.16
761.997	808.44
762.18	833.01
762.364	808.44
762.547	781.81
762.731	728.56
762.914	839.16
763.098	810.48
763.281	843.25
763.464	775.67
763.648	771.57
763.831	796.15
764.015	796.15
764.198	837.11
764.381	837.11
764.564	775.67
764.748	851.44
764.931	830.96
765.114	765.43
765.297	794.1
765.481	773.62
765.664	833.01
765.847	720.37
766.03	826.87
766.213	728.56
766.397	781.81
766.58	800.24
766.763	726.52
766.946	685.56
767.129	747
767.312	712.18
767.495	687.61
767.678	757.24
767.861	683.51
768.044	679.41
768.227	732.66
768.41	724.47
768.593	732.66
768.776	730.61
768.959	747
769.142	779.76
769.324	681.46
769.507	771.57
769.69	648.69
769.873	777.72
770.056	747
770.239	658.93
770.421	722.42
770.604	701.94
770.787	683.51
770.97	757.24
771.152	706.04
771.335	593.4
771.518	638.45
771.7	783.86
771.883	669.17
772.066	632.31
772.248	617.97
772.431	708.09
772.613	542.2
772.796	579.06
772.978	691.7
773.161	626.17
773.343	560.63
773.526	695.8
773.708	605.69
773.891	675.32
774.073	595.45
774.256	642.55
774.438	742.9
774.621	622.07
774.803	579.06
774.985	552.44
775.168	605.69
775.35	587.26
775.532	546.3
775.715	564.73
775.897	642.55
776.079	597.49
776.261	564.73
776.444	540.15
776.626	597.49
776.808	556.54
776.99	595.45
777.173	581.11
777.355	607.73
777.537	556.54
777.719	574.97
777.901	601.59
778.083	577.02
778.265	482.81
778.447	529.91
778.629	564.73
778.811	540.15
778.993	597.49
779.175	501.24
779.357	478.71
779.539	540.15
779.721	466.42
779.903	507.38
780.085	507.38
780.267	507.38
780.449	441.85
780.631	507.38
780.812	548.34
780.994	466.42
781.176	529.91
781.358	435.71
781.54	482.81
781.721	474.62
781.903	470.52
782.085	427.51
782.267	466.42
782.448	388.6
782.63	372.22
782.812	429.56
782.993	376.31
783.175	372.22
783.357	474.62
783.538	402.94
783.72	392.7
783.901	525.82
784.083	431.61
784.264	480.76
784.446	437.75
784.627	384.51
784.809	460.28
784.99	458.23
785.172	339.45
785.353	347.64
785.535	384.51
785.716	384.51
785.897	345.59
786.079	384.51
786.26	355.83
786.441	409.08
786.623	247.29
786.804	359.93
786.985	368.12
787.167	304.64
787.348	372.22
787.529	321.02
787.71	384.51
787.891	357.88
788.073	294.4
788.254	278.01
788.435	359.93
788.616	441.85
788.797	392.7
788.978	327.16
789.159	339.45
789.34	390.65
789.522	251.39
789.703	278.01
789.884	310.78
790.065	388.6
790.246	380.41
790.427	343.55
790.607	368.12
790.788	364.03
790.969	278.01
791.15	278.01
791.331	294.4
791.512	376.31
791.693	278.01
791.874	296.44
792.054	443.9
792.235	376.31
792.416	269.82
792.597	323.07
792.778	278.01
792.958	331.26
793.139	304.64
793.32	269.82
793.5	155.13
793.681	245.24
793.862	282.11
794.042	261.63
794.223	216.57
794.404	232.96
794.584	228.86
794.765	237.05
794.945	204.28
795.126	284.16
795.306	304.64
795.487	237.05
795.667	230.91
795.848	304.64
796.028	286.2
796.209	220.67
796.389	224.76
796.57	284.16
796.75	255.48
796.93	302.59
797.111	249.34
797.291	198.14
797.471	253.44
797.652	173.57
797.832	206.33
798.012	271.87
798.192	228.86
798.373	253.44
798.553	179.71
798.733	204.28
798.913	198.14
799.093	265.72
799.274	232.96
799.454	290.3
799.634	228.86
799.814	257.53
799.994	122.37
800.174	241.15
800.354	130.56
800.534	155.13
800.714	220.67
800.894	224.76
801.074	208.38
801.254	146.94
801.434	204.28
801.614	165.37
801.794	167.42
801.974	785.91
802.154	148.99
802.334	245.24
802.514	204.28
802.693	134.65
802.873	187.9
803.053	265.72
803.233	216.57
803.413	155.13
803.592	89.6
803.772	245.24
803.952	208.38
804.131	267.77
804.311	187.9
804.491	189.95
804.67	126.46
804.85	204.28
805.03	159.23
805.209	220.67
805.389	122.37
805.568	179.71
805.748	204.28
805.928	183.81
806.107	204.28
806.287	169.47
806.466	189.95
806.646	110.08
806.825	128.51
807.004	179.71
807.184	132.61
807.363	212.48
807.543	136.7
807.722	134.65
807.901	140.8
808.081	167.42
808.26	114.17
808.439	179.71
808.619	177.66
808.798	159.23
808.977	167.42
809.156	228.86
809.336	138.75
809.515	138.75
809.694	157.18
809.873	132.61
810.052	161.28
810.231	105.98
810.411	146.94
810.59	177.66
810.769	101.89
810.948	142.85
811.127	73.21
811.306	187.9
811.485	77.31
811.664	212.48
811.843	171.52
812.022	255.48
812.201	108.03
812.38	101.89
812.559	77.31
812.737	163.33
812.916	73.21
813.095	155.13
813.274	140.8
813.453	146.94
813.632	183.81
813.811	187.9
813.989	77.31
814.168	181.76
814.347	93.69
814.526	122.37
814.704	99.84
814.883	108.03
815.062	101.89
815.24	105.98
815.419	140.8
815.598	161.28
815.776	114.17
815.955	192
816.133	36.35
816.312	116.22
816.49	48.64
816.669	105.98
816.847	108.03
817.026	192
817.204	138.75
817.383	122.37
817.561	114.17
817.74	105.98
817.918	112.13
818.097	93.69
818.275	60.93
818.453	130.56
818.632	97.79
818.81	118.27
818.988	95.74
819.167	114.17
819.345	118.27
819.523	73.21
819.701	54.78
819.879	112.13
820.058	124.41
820.236	97.79
820.414	134.65
820.592	138.75
820.77	128.51
820.948	56.83
821.127	89.6
821.305	153.09
821.483	110.08
821.661	81.41
821.839	89.6
822.017	60.93
822.195	69.12
822.373	173.57
822.551	48.64
822.729	155.13
822.907	24.06
823.085	91.65
823.262	67.07
823.44	44.54
823.618	62.98
823.796	91.65
823.974	-10.75
824.152	69.12
824.329	114.17
824.507	114.17
824.685	91.65
824.863	52.74
825.04	17.92
825.218	77.31
825.396	136.7
825.574	165.37
825.751	73.21
825.929	187.9
826.107	83.45
826.284	114.17
826.462	151.04
826.639	97.79
826.817	120.32
826.994	142.85
827.172	34.3
827.349	138.75
827.527	81.41
827.704	77.31
827.882	116.22
828.059	32.26
828.237	130.56
828.414	122.37
828.591	7.68
828.769	67.07
828.946	52.74
829.124	181.76
829.301	73.21
829.478	19.97
829.655	101.89
829.833	91.65
830.01	42.5
830.187	40.45
830.364	69.12
830.542	58.88
830.719	130.56
830.896	134.65
831.073	34.3
831.25	65.02
831.427	91.65
831.604	101.89
831.782	60.93
831.959	65.02
832.136	56.83
832.313	67.07
832.49	120.32
832.667	116.22
832.844	73.21
833.021	105.98
833.198	89.6
833.374	36.35
833.551	3.58
833.728	40.45
833.905	15.87
834.082	89.6
834.259	122.37
834.436	48.64
834.612	50.69
834.789	97.79
834.966	60.93
835.143	60.93
835.319	24.06
835.496	67.07
835.673	42.5
835.85	110.08
836.026	38.4
836.203	40.45
836.38	65.02
836.556	1.54
836.733	1.54
836.909	85.5
837.086	28.16
837.262	93.69
837.439	77.31
837.616	48.64
837.792	81.41
837.968	48.64
838.145	50.69
838.321	5.63
838.498	85.5
838.674	108.03
838.851	50.69
839.027	77.31
839.203	52.74
839.38	73.21
839.556	48.64
839.732	81.41
839.909	65.02
840.085	54.78
840.261	7.68
840.437	32.26
840.614	42.5
840.79	83.45
840.966	67.07
841.142	58.88
841.318	11.78
841.494	87.55
841.671	19.97
841.847	42.5
842.023	26.11
842.199	67.07
842.375	-0.51
842.551	110.08
842.727	28.16
842.903	138.75
843.079	40.45
843.255	65.02
843.431	62.98
843.607	142.85
843.783	-29.18
843.959	-0.51
844.134	3.58
844.31	83.45
844.486	-27.14
844.662	56.83
844.838	19.97
845.013	116.22
845.189	77.31
845.365	65.02
845.541	7.68
845.716	44.54
845.892	157.18
846.068	-0.51
846.244	7.68
846.419	89.6
846.595	-39.42
846.77	-0.51
846.946	26.11
847.122	-0.51
847.297	44.54
847.473	69.12
847.648	95.74
847.824	-14.85
847.999	15.87
848.175	32.26
848.35	67.07
848.526	118.27
848.701	58.88
848.876	36.35
849.052	24.06
849.227	44.54
849.403	7.68
849.578	34.3
849.753	19.97
849.929	134.65
850.104	28.16
850.279	15.87
850.454	15.87
850.63	89.6
850.805	30.21
850.98	73.21
851.155	75.26
851.33	110.08
851.505	-25.09
851.681	24.06
851.856	65.02
852.031	146.94
852.206	42.5
852.381	50.69
852.556	44.54
852.731	89.6
852.906	19.97
853.081	-0.51
853.256	50.69
853.431	36.35
853.606	73.21
853.781	22.02
853.956	-0.51
854.131	26.11
854.305	-4.61
854.48	17.92
854.655	-2.56
854.83	-31.23
855.005	71.17
855.18	89.6
855.354	28.16
855.529	83.45
855.704	69.12
855.879	79.36
856.053	15.87
856.228	-8.7
856.403	11.78
856.577	11.78
856.752	38.4
856.926	60.93
857.101	32.26
857.276	-8.7
857.45	73.21
857.625	-25.09
857.799	69.12
857.974	73.21
858.148	-25.09
858.323	114.17
858.497	-16.9
858.672	52.74
858.846	-0.51
859.02	28.16
859.195	-8.7
859.369	15.87
859.543	28.16
859.718	17.92
859.892	67.07
860.066	-14.85
860.241	79.36
860.415	-33.28
860.589	56.83
860.763	7.68
860.938	-4.61
861.112	62.98
861.286	-14.85
861.46	3.58
861.634	36.35
861.808	97.79
861.982	56.83
862.157	-0.51
862.331	65.02
862.505	-72.19
862.679	-35.33
862.853	-6.66
863.027	11.78
863.201	101.89
863.375	19.97
863.549	3.58
863.722	9.73
863.896	69.12
864.07	32.26
864.244	142.85
864.418	38.4
864.592	97.79
864.766	36.35
864.939	52.74
865.113	36.35
865.287	5.63
865.461	-14.85
865.634	-39.42
865.808	7.68
865.982	40.45
866.156	-57.86
866.329	28.16
866.503	19.97
866.676	60.93
866.85	-0.51
867.024	81.41
867.197	122.37
867.371	116.22
867.544	-23.04
867.718	-45.57
867.891	69.12
868.065	-10.75
868.238	42.5
868.412	42.5
868.585	32.26
868.759	77.31
868.932	-0.51
869.105	48.64
869.279	75.26
869.452	7.68
869.625	15.87
869.799	52.74
869.972	11.78
870.145	-41.47
870.319	60.93
870.492	-31.23
870.665	40.45
870.838	-14.85
871.011	-45.57
871.185	30.21
871.358	17.92
871.531	48.64
871.704	7.68
871.877	-29.18
872.05	-49.66
872.223	-84.48
872.396	32.26
872.569	28.16
872.742	28.16
872.915	3.58
873.088	22.02
873.261	-27.14
873.434	-57.86
873.607	-33.28
873.78	48.64
873.953	42.5
874.126	-20.99
874.299	-12.8
874.471	22.02
874.644	48.64
874.817	11.78
874.99	60.93
875.163	32.26
875.335	-14.85
875.508	-39.42
875.681	58.88
875.853	-51.71
876.026	-6.66
876.199	-45.57
876.371	89.6
876.544	-49.66
876.717	-20.99
876.889	-20.99
877.062	56.83
877.234	7.68
877.407	91.65
877.579	28.16
877.752	1.54
877.924	73.21
878.097	75.26
878.269	-25.09
878.442	11.78
878.614	-49.66
878.786	114.17
878.959	40.45
879.131	75.26
879.303	-6.66
879.476	-29.18
879.648	17.92
879.82	65.02
879.993	44.54
880.165	32.26
880.337	-86.53
880.509	42.5
880.681	-31.23
880.854	-37.38
881.026	-29.18
881.198	-18.94
881.37	32.26
881.542	-6.66
881.714	-4.61
881.886	36.35
882.058	-4.61
882.23	-4.61
882.402	-12.8
882.574	26.11
882.746	-31.23
882.918	15.87
883.09	32.26
883.262	32.26
883.434	19.97
883.606	-39.42
883.778	9.73
883.95	24.06
884.122	48.64
884.293	52.74
884.465	-6.66
884.637	44.54
884.809	-16.9
884.98	81.41
885.152	-35.33
885.324	15.87
885.496	9.73
885.667	40.45
885.839	3.58
886.011	24.06
886.182	-23.04
886.354	24.06
886.525	-55.81
886.697	-0.51
886.869	-55.81
887.04	-8.7
887.212	3.58
887.383	85.5
887.555	42.5
887.726	24.06
887.897	-55.81
888.069	-10.75
888.24	-39.42
888.412	89.6
888.583	-51.71
888.754	-37.38
888.926	44.54
889.097	42.5
889.268	-37.38
889.44	15.87
889.611	-20.99
889.782	-16.9
889.953	11.78
890.125	67.07
890.296	11.78
890.467	-31.23
890.638	-29.18
890.809	1.54
890.98	40.45
891.151	26.11
891.323	3.58
891.494	9.73
891.665	7.68
891.836	-0.51
892.007	69.12
892.178	-29.18
892.349	7.68
892.52	36.35
892.691	-14.85
892.862	36.35
893.032	3.58
893.203	44.54
893.374	-18.94
893.545	9.73
893.716	-115.2
893.887	-0.51
894.057	-8.7
894.228	26.11
894.399	-0.51
894.57	24.06
894.74	36.35
894.911	24.06
895.082	24.06
895.253	9.73
895.423	-0.51
895.594	50.69
895.764	24.06
895.935	-18.94
896.106	-18.94
896.276	-6.66
896.447	54.78
896.617	5.63
896.788	-4.61
896.958	75.26
897.129	-29.18
897.299	-23.04
897.47	36.35
897.64	50.69
897.81	-8.7
897.981	-39.42
898.151	28.16
898.322	-0.51
898.492	-16.9
898.662	40.45
898.832	-45.57
899.003	-23.04
899.173	28.16
899.343	-29.18
899.513	-20.99
