Data from USB4F104151__27__14-42-46-166.txt Node

Date: Thu Mar 13 14:42:46 EDT 2025
User: louis
Spectrometer: USB4F10415
Trigger mode: 4
Integration Time (sec): 2.000000E-2
Scans to average: 1
Electric dark correction enabled: true
Nonlinearity correction enabled: false
Boxcar width: 0
XAxis mode: Wavelengths
Number of Pixels in Spectrum: 3648
>>>>>Begin Spectral Data<<<<<
178.204	-54.61
178.424	-54.61
178.644	-54.61
178.864	-157.01
179.084	-85.33
179.304	6.83
179.524	-58.71
179.744	21.16
179.964	27.31
180.184	-15.7
180.404	37.55
180.624	-5.46
180.844	-38.23
181.064	-15.7
181.283	23.21
181.503	-25.94
181.723	43.69
181.943	-30.04
182.163	68.27
182.383	27.31
182.602	76.46
182.822	78.51
183.042	66.22
183.262	43.69
183.482	-3.41
183.701	4.78
183.921	21.16
184.141	4.78
184.361	60.07
184.58	12.97
184.8	76.46
185.02	43.69
185.239	107.18
185.459	88.75
185.679	12.97
185.898	-1.37
186.118	113.32
186.338	80.55
186.557	-1.37
186.777	62.12
186.997	10.92
187.216	68.27
187.436	-3.41
187.655	62.12
187.875	39.59
188.095	2.73
188.314	60.07
188.534	37.55
188.753	53.93
188.973	10.92
189.192	105.13
189.412	17.07
189.631	19.11
189.851	76.46
190.07	78.51
190.29	-27.99
190.509	62.12
190.729	53.93
190.948	92.84
191.168	137.9
191.387	6.83
191.607	8.87
191.826	27.31
192.045	10.92
192.265	6.83
192.484	-17.75
192.704	43.69
192.923	-85.33
193.142	103.08
193.362	103.08
193.581	68.27
193.8	64.17
194.02	10.92
194.239	-9.56
194.458	2.73
194.678	43.69
194.897	-38.23
195.116	37.55
195.335	21.16
195.555	103.08
195.774	76.46
195.993	82.6
196.212	6.83
196.432	39.59
196.651	-44.37
196.87	0.68
197.089	139.94
197.308	43.69
197.528	76.46
197.747	-58.71
197.966	43.69
198.185	105.13
198.404	70.31
198.623	12.97
198.842	105.13
199.062	43.69
199.281	148.14
199.5	-36.18
199.719	68.27
199.938	25.26
200.157	80.55
200.376	64.17
200.595	105.13
200.814	2.73
201.033	84.65
201.252	60.07
201.471	-11.61
201.69	12.97
201.909	27.31
202.128	29.35
202.347	0.68
202.566	43.69
202.785	86.7
203.004	-13.65
203.223	76.46
203.442	35.5
203.661	129.7
203.879	17.07
204.098	2.73
204.317	45.74
204.536	43.69
204.755	19.11
204.974	2.73
205.193	-25.94
205.411	125.61
205.63	115.37
205.849	68.27
206.068	-36.18
206.287	51.88
206.505	94.89
206.724	-11.61
206.943	51.88
207.162	43.69
207.381	27.31
207.599	12.97
207.818	101.03
208.037	12.97
208.255	60.07
208.474	47.79
208.693	31.4
208.911	35.5
209.13	2.73
209.349	43.69
209.567	105.13
209.786	37.55
210.005	35.5
210.223	60.07
210.442	10.92
210.661	94.89
210.879	12.97
211.098	-5.46
211.316	31.4
211.535	62.12
211.753	51.88
211.972	4.78
212.191	82.6
212.409	-9.56
212.628	53.93
212.846	53.93
213.065	78.51
213.283	76.46
213.502	21.16
213.72	29.35
213.938	47.79
214.157	-21.85
214.375	6.83
214.594	0.68
214.812	84.65
215.031	10.92
215.249	35.5
215.467	29.35
215.686	74.41
215.904	125.61
216.122	-44.37
216.341	51.88
216.559	94.89
216.778	98.99
216.996	47.79
217.214	-15.7
217.432	6.83
217.651	27.31
217.869	23.21
218.087	72.36
218.306	49.83
218.524	47.79
218.742	-5.46
218.96	23.21
219.179	10.92
219.397	10.92
219.615	94.89
219.833	78.51
220.051	47.79
220.27	72.36
220.488	-1.37
220.706	101.03
220.924	-44.37
221.142	-5.46
221.36	8.87
221.578	80.55
221.796	64.17
222.015	4.78
222.233	29.35
222.451	45.74
222.669	-3.41
222.887	80.55
223.105	-30.04
223.323	66.22
223.541	64.17
223.759	62.12
223.977	68.27
224.195	-30.04
224.413	92.84
224.631	86.7
224.849	45.74
225.067	80.55
225.285	72.36
225.503	76.46
225.721	43.69
225.939	80.55
226.157	21.16
226.375	119.46
226.592	31.4
226.81	-13.65
227.028	-19.8
227.246	39.59
227.464	72.36
227.682	33.45
227.9	53.93
228.117	45.74
228.335	-3.41
228.553	29.35
228.771	-7.51
228.989	51.88
229.206	129.7
229.424	-34.13
229.642	53.93
229.86	45.74
230.077	10.92
230.295	-5.46
230.513	31.4
230.731	133.8
230.948	-19.8
231.166	103.08
231.384	35.5
231.601	25.26
231.819	92.84
232.037	4.78
232.254	-3.41
232.472	29.35
232.689	4.78
232.907	117.42
233.125	27.31
233.342	64.17
233.56	-21.85
233.777	-44.37
233.995	43.69
234.213	29.35
234.43	47.79
234.648	60.07
234.865	45.74
235.083	53.93
235.3	58.03
235.518	60.07
235.735	90.79
235.953	86.7
236.17	29.35
236.388	-19.8
236.605	21.16
236.822	35.5
237.04	78.51
237.257	35.5
237.475	-36.18
237.692	58.03
237.909	19.11
238.127	-13.65
238.344	-38.23
238.562	64.17
238.779	25.26
238.996	4.78
239.214	12.97
239.431	-17.75
239.648	27.31
239.865	2.73
240.083	29.35
240.3	51.88
240.517	-30.04
240.735	-5.46
240.952	60.07
241.169	62.12
241.386	107.18
241.603	27.31
241.821	2.73
242.038	66.22
242.255	-11.61
242.472	88.75
242.689	78.51
242.907	-27.99
243.124	12.97
243.341	-34.13
243.558	21.16
243.775	-3.41
243.992	-3.41
244.209	39.59
244.426	62.12
244.643	70.31
244.86	4.78
245.078	74.41
245.295	6.83
245.512	31.4
245.729	-5.46
245.946	29.35
246.163	47.79
246.38	15.02
246.597	23.21
246.814	-27.99
247.031	29.35
247.248	60.07
247.464	21.16
247.681	-36.18
247.898	111.27
248.115	29.35
248.332	-54.61
248.549	78.51
248.766	21.16
248.983	53.93
249.2	51.88
249.417	76.46
249.633	17.07
249.85	-3.41
250.067	-56.66
250.284	76.46
250.501	60.07
250.717	103.08
250.934	-30.04
251.151	6.83
251.368	96.94
251.585	62.12
251.801	4.78
252.018	62.12
252.235	111.27
252.451	37.55
252.668	84.65
252.885	39.59
253.102	96.94
253.318	68.27
253.535	-56.66
253.752	23.21
253.968	37.55
254.185	51.88
254.401	-3.41
254.618	37.55
254.835	-21.85
255.051	19.11
255.268	10.92
255.484	72.36
255.701	41.64
255.917	45.74
256.134	-46.42
256.351	68.27
256.567	60.07
256.784	21.16
257	-52.56
257.217	47.79
257.433	39.59
257.65	43.69
257.866	17.07
258.082	-30.04
258.299	35.5
258.515	19.11
258.732	68.27
258.948	35.5
259.165	82.6
259.381	51.88
259.597	76.46
259.814	51.88
260.03	111.27
260.246	2.73
260.463	6.83
260.679	78.51
260.895	51.88
261.112	60.07
261.328	113.32
261.544	-50.52
261.761	27.31
261.977	109.22
262.193	47.79
262.409	-9.56
262.626	-1.37
262.842	80.55
263.058	-5.46
263.274	45.74
263.49	60.07
263.707	78.51
263.923	4.78
264.139	25.26
264.355	19.11
264.571	117.42
264.787	49.83
265.004	101.03
265.22	0.68
265.436	4.78
265.652	8.87
265.868	62.12
266.084	53.93
266.3	27.31
266.516	-3.41
266.732	19.11
266.948	70.31
267.164	60.07
267.38	-3.41
267.596	86.7
267.812	76.46
268.028	45.74
268.244	-27.99
268.46	64.17
268.676	58.03
268.892	68.27
269.108	-17.75
269.324	-17.75
269.54	92.84
269.756	117.42
269.972	12.97
270.188	60.07
270.403	37.55
270.619	21.16
270.835	39.59
271.051	51.88
271.267	19.11
271.483	43.69
271.698	74.41
271.914	72.36
272.13	-17.75
272.346	60.07
272.562	23.21
272.777	141.99
272.993	25.26
273.209	62.12
273.425	76.46
273.64	-5.46
273.856	29.35
274.072	68.27
274.287	-13.65
274.503	53.93
274.719	37.55
274.934	-58.71
275.15	-27.99
275.366	27.31
275.581	-3.41
275.797	94.89
276.012	39.59
276.228	2.73
276.444	84.65
276.659	76.46
276.875	-40.28
277.09	35.5
277.306	17.07
277.521	68.27
277.737	27.31
277.952	101.03
278.168	90.79
278.383	119.46
278.599	49.83
278.814	74.41
279.03	45.74
279.245	27.31
279.461	-27.99
279.676	133.8
279.892	4.78
280.107	86.7
280.322	-3.41
280.538	51.88
280.753	-13.65
280.969	19.11
281.184	55.98
281.399	96.94
281.615	-1.37
281.83	15.02
282.045	-17.75
282.26	-44.37
282.476	39.59
282.691	-1.37
282.906	-62.8
283.122	78.51
283.337	19.11
283.552	78.51
283.767	47.79
283.983	58.03
284.198	70.31
284.413	10.92
284.628	-36.18
284.843	27.31
285.058	74.41
285.274	35.5
285.489	19.11
285.704	51.88
285.919	-5.46
286.134	19.11
286.349	39.59
286.564	-17.75
286.779	-9.56
286.995	12.97
287.21	-60.76
287.425	-62.8
287.64	6.83
287.855	23.21
288.07	0.68
288.285	64.17
288.5	84.65
288.715	92.84
288.93	29.35
289.145	2.73
289.36	51.88
289.575	62.12
289.79	55.98
290.004	29.35
290.219	88.75
290.434	4.78
290.649	21.16
290.864	35.5
291.079	4.78
291.294	2.73
291.509	27.31
291.724	43.69
291.938	27.31
292.153	84.65
292.368	-5.46
292.583	137.9
292.798	101.03
293.012	62.12
293.227	43.69
293.442	78.51
293.657	51.88
293.871	35.5
294.086	-27.99
294.301	53.93
294.516	62.12
294.73	47.79
294.945	-9.56
295.16	-1.37
295.374	94.89
295.589	129.7
295.804	51.88
296.018	-34.13
296.233	185
296.447	60.07
296.662	10.92
296.877	78.51
297.091	101.03
297.306	129.7
297.52	51.88
297.735	55.98
297.949	-21.85
298.164	39.59
298.378	84.65
298.593	94.89
298.807	6.83
299.022	60.07
299.236	-5.46
299.451	76.46
299.665	86.7
299.88	37.55
300.094	94.89
300.309	-19.8
300.523	43.69
300.737	29.35
300.952	70.31
301.166	31.4
301.381	-50.52
301.595	68.27
301.809	70.31
302.024	23.21
302.238	68.27
302.452	76.46
302.667	-7.51
302.881	55.98
303.095	88.75
303.309	33.45
303.524	84.65
303.738	43.69
303.952	-1.37
304.166	68.27
304.381	-38.23
304.595	60.07
304.809	23.21
305.023	123.56
305.237	35.5
305.452	31.4
305.666	-3.41
305.88	70.31
306.094	68.27
306.308	21.16
306.522	27.31
306.736	51.88
306.95	86.7
307.164	-54.61
307.379	111.27
307.593	68.27
307.807	105.13
308.021	86.7
308.235	27.31
308.449	-1.37
308.663	-9.56
308.877	105.13
309.091	51.88
309.305	84.65
309.519	-13.65
309.733	117.42
309.947	-34.13
310.161	86.7
310.374	92.84
310.588	74.41
310.802	25.26
311.016	31.4
311.23	101.03
311.444	45.74
311.658	35.5
311.872	70.31
312.085	43.69
312.299	117.42
312.513	60.07
312.727	27.31
312.941	-13.65
313.154	41.64
313.368	90.79
313.582	31.4
313.796	51.88
314.009	35.5
314.223	29.35
314.437	101.03
314.651	43.69
314.864	-36.18
315.078	-30.04
315.292	27.31
315.505	17.07
315.719	31.4
315.933	60.07
316.146	84.65
316.36	-13.65
316.573	43.69
316.787	23.21
317.001	144.04
317.214	43.69
317.428	62.12
317.641	-11.61
317.855	23.21
318.068	53.93
318.282	101.03
318.495	41.64
318.709	98.99
318.922	60.07
319.136	101.03
319.349	51.88
319.563	23.21
319.776	31.4
319.99	-3.41
320.203	84.65
320.417	35.5
320.63	80.55
320.843	60.07
321.057	35.5
321.27	41.64
321.483	72.36
321.697	68.27
321.91	47.79
322.124	-23.89
322.337	55.98
322.55	113.32
322.763	45.74
322.977	92.84
323.19	39.59
323.403	27.31
323.617	29.35
323.83	76.46
324.043	66.22
324.256	174.76
324.469	94.89
324.683	39.59
324.896	53.93
325.109	92.84
325.322	-11.61
325.535	74.41
325.748	84.65
325.962	68.27
326.175	92.84
326.388	35.5
326.601	25.26
326.814	-25.94
327.027	60.07
327.24	45.74
327.453	-15.7
327.666	78.51
327.879	45.74
328.092	-71
328.305	2.73
328.518	29.35
328.731	4.78
328.944	23.21
329.157	45.74
329.37	68.27
329.583	21.16
329.796	92.84
330.009	-23.89
330.222	76.46
330.435	45.74
330.648	35.5
330.861	68.27
331.073	21.16
331.286	27.31
331.499	62.12
331.712	78.51
331.925	51.88
332.138	10.92
332.35	27.31
332.563	35.5
332.776	76.46
332.989	-3.41
333.202	92.84
333.414	39.59
333.627	37.55
333.84	90.79
334.053	72.36
334.265	103.08
334.478	60.07
334.691	-40.28
334.903	-34.13
335.116	19.11
335.329	-9.56
335.541	86.7
335.754	84.65
335.966	47.79
336.179	2.73
336.392	-5.46
336.604	15.02
336.817	45.74
337.029	117.42
337.242	27.31
337.454	66.22
337.667	47.79
337.88	127.66
338.092	62.12
338.305	60.07
338.517	68.27
338.729	60.07
338.942	119.46
339.154	10.92
339.367	60.07
339.579	68.27
339.792	0.68
340.004	53.93
340.217	19.11
340.429	39.59
340.641	-5.46
340.854	37.55
341.066	51.88
341.278	-5.46
341.491	31.4
341.703	72.36
341.915	68.27
342.128	35.5
342.34	86.7
342.552	92.84
342.764	-30.04
342.977	35.5
343.189	31.4
343.401	78.51
343.613	27.31
343.826	80.55
344.038	88.75
344.25	43.69
344.462	53.93
344.674	60.07
344.886	4.78
345.099	21.16
345.311	105.13
345.523	45.74
345.735	-38.23
345.947	70.31
346.159	68.27
346.371	39.59
346.583	27.31
346.795	84.65
347.007	64.17
347.219	6.83
347.431	55.98
347.643	94.89
347.855	43.69
348.067	27.31
348.279	15.02
348.491	25.26
348.703	-27.99
348.915	17.07
349.127	60.07
349.339	127.66
349.551	-15.7
349.763	19.11
349.975	-13.65
350.187	53.93
350.399	51.88
350.61	105.13
350.822	47.79
351.034	-5.46
351.246	-5.46
351.458	53.93
351.669	-25.94
351.881	43.69
352.093	15.02
352.305	131.75
352.517	51.88
352.728	76.46
352.94	74.41
353.152	-30.04
353.363	-23.89
353.575	70.31
353.787	68.27
353.999	2.73
354.21	51.88
354.422	-1.37
354.633	-21.85
354.845	70.31
355.057	-11.61
355.268	43.69
355.48	70.31
355.692	31.4
355.903	23.21
356.115	31.4
356.326	15.02
356.538	137.9
356.749	49.83
356.961	98.99
357.172	2.73
357.384	-36.18
357.595	53.93
357.807	19.11
358.018	19.11
358.23	62.12
358.441	117.42
358.653	64.17
358.864	62.12
359.075	35.5
359.287	166.57
359.498	158.38
359.709	17.07
359.921	78.51
360.132	-60.76
360.344	43.69
360.555	10.92
360.766	109.22
360.977	-3.41
361.189	55.98
361.4	-9.56
361.611	105.13
361.823	92.84
362.034	78.51
362.245	-17.75
362.456	43.69
362.667	109.22
362.879	-58.71
363.09	39.59
363.301	109.22
363.512	43.69
363.723	8.87
363.935	4.78
364.146	86.7
364.357	80.55
364.568	174.76
364.779	-25.94
364.99	96.94
365.201	19.11
365.412	107.18
365.623	-36.18
365.834	107.18
366.045	51.88
366.256	84.65
366.467	70.31
366.678	45.74
366.889	86.7
367.1	51.88
367.311	43.69
367.522	53.93
367.733	-3.41
367.944	21.16
368.155	68.27
368.366	101.03
368.577	133.8
368.788	117.42
368.999	78.51
369.209	115.37
369.42	176.81
369.631	137.9
369.842	72.36
370.053	25.26
370.264	96.94
370.474	51.88
370.685	19.11
370.896	84.65
371.107	25.26
371.317	27.31
371.528	19.11
371.739	29.35
371.95	94.89
372.16	43.69
372.371	47.79
372.582	76.46
372.792	-36.18
373.003	31.4
373.214	35.5
373.424	88.75
373.635	60.07
373.846	127.66
374.056	92.84
374.267	88.75
374.477	29.35
374.688	19.11
374.898	-3.41
375.109	10.92
375.319	58.03
375.53	43.69
375.74	29.35
375.951	107.18
376.161	117.42
376.372	86.7
376.582	86.7
376.793	62.12
377.003	-9.56
377.214	84.65
377.424	-5.46
377.635	12.97
377.845	51.88
378.055	62.12
378.266	-30.04
378.476	45.74
378.686	72.36
378.897	51.88
379.107	109.22
379.317	12.97
379.528	144.04
379.738	43.69
379.948	43.69
380.158	39.59
380.369	60.07
380.579	76.46
380.789	103.08
380.999	55.98
381.21	123.56
381.42	19.11
381.63	-15.7
381.84	53.93
382.05	60.07
382.261	166.57
382.471	31.4
382.681	12.97
382.891	84.65
383.101	53.93
383.311	78.51
383.521	6.83
383.731	55.98
383.941	160.42
384.151	129.7
384.361	105.13
384.571	86.7
384.781	-1.37
384.991	64.17
385.201	53.93
385.411	47.79
385.621	76.46
385.831	78.51
386.041	105.13
386.251	-13.65
386.461	121.51
386.671	-1.37
386.881	88.75
387.091	74.41
387.301	27.31
387.511	39.59
387.72	78.51
387.93	21.16
388.14	60.07
388.35	76.46
388.56	80.55
388.769	84.65
388.979	96.94
389.189	27.31
389.399	68.27
389.609	68.27
389.818	160.42
390.028	127.66
390.238	70.31
390.447	55.98
390.657	168.62
390.867	45.74
391.076	35.5
391.286	29.35
391.496	60.07
391.705	45.74
391.915	62.12
392.125	217.77
392.334	62.12
392.544	101.03
392.753	2.73
392.963	111.27
393.172	21.16
393.382	60.07
393.591	207.53
393.801	45.74
394.01	19.11
394.22	23.21
394.429	80.55
394.639	-1.37
394.848	78.51
395.058	139.94
395.267	37.55
395.477	84.65
395.686	76.46
395.895	129.7
396.105	178.86
396.314	105.13
396.524	109.22
396.733	113.32
396.942	88.75
397.152	150.18
397.361	166.57
397.57	68.27
397.78	64.17
397.989	160.42
398.198	70.31
398.407	160.42
398.617	111.27
398.826	76.46
399.035	21.16
399.244	70.31
399.453	84.65
399.663	60.07
399.872	76.46
400.081	101.03
400.29	96.94
400.499	2.73
400.708	76.46
400.917	43.69
401.127	92.84
401.336	98.99
401.545	109.22
401.754	107.18
401.963	119.46
402.172	125.61
402.381	101.03
402.59	150.18
402.799	96.94
403.008	160.42
403.217	72.36
403.426	182.95
403.635	90.79
403.844	109.22
404.053	150.18
404.262	78.51
404.471	141.99
404.68	119.46
404.888	68.27
405.097	109.22
405.306	88.75
405.515	172.71
405.724	92.84
405.933	191.14
406.142	199.34
406.35	176.81
406.559	193.19
406.768	86.7
406.977	154.28
407.185	119.46
407.394	152.23
407.603	146.09
407.812	176.81
408.02	146.09
408.229	219.82
408.438	127.66
408.646	168.62
408.855	168.62
409.064	166.57
409.272	154.28
409.481	260.77
409.69	166.57
409.898	211.62
410.107	324.26
410.315	232.1
410.524	225.96
410.733	223.91
410.941	240.3
411.15	299.69
411.358	264.87
411.567	316.07
411.775	314.02
411.984	264.87
412.192	314.02
412.401	248.49
412.609	340.65
412.818	371.36
413.026	346.79
413.234	338.6
413.443	371.36
413.651	314.02
413.86	496.29
414.068	471.72
414.276	481.96
414.485	486.05
414.693	449.19
414.901	567.97
415.11	416.42
415.318	518.82
415.526	455.33
415.734	535.2
415.943	527.01
416.151	570.02
416.359	592.55
416.567	578.21
416.776	717.47
416.984	641.7
417.192	723.62
417.4	699.04
417.608	613.03
417.817	740
418.025	750.24
418.233	920.22
418.441	725.66
418.649	899.74
418.857	920.22
419.065	965.28
419.273	989.85
419.481	936.6
419.689	987.8
419.897	955.04
420.105	1065.63
420.313	1108.63
420.521	1114.78
420.729	1100.44
420.937	1149.59
421.145	1182.36
421.353	1280.66
421.561	1452.69
421.769	1344.15
421.977	1358.49
422.185	1436.31
422.393	1553.04
422.601	1594
422.809	1563.28
423.017	1649.3
423.224	1610.39
423.432	1700.5
423.64	1649.3
423.848	1962.64
424.056	1780.37
424.263	2001.55
424.471	1864.33
424.679	2034.32
424.887	2058.89
425.094	2189.96
425.302	2257.54
425.51	2292.36
425.718	2353.8
425.925	2198.15
426.133	2427.53
426.341	2562.69
426.548	2783.87
426.756	2777.73
426.964	2622.08
427.171	2863.74
427.379	3000.96
427.586	2964.09
427.794	2957.95
428.001	3193.47
428.209	3500.66
428.417	3279.48
428.624	3488.37
428.832	3365.5
429.039	3541.62
429.247	3424.89
429.454	3828.34
429.662	4043.37
429.869	3857.01
430.076	4129.39
430.284	3975.79
430.491	4192.87
430.699	4475.49
430.906	4379.24
431.114	4424.3
431.321	4727.39
431.528	4696.68
431.736	4938.34
431.943	5202.52
432.15	5157.47
432.358	5204.57
432.565	5548.63
432.772	5485.14
432.979	5659.22
433.187	5884.5
433.394	5732.95
433.601	6339.15
433.808	6132.3
434.016	6220.36
434.223	6400.59
434.43	6621.77
434.637	6732.36
434.844	7103.04
435.052	7080.51
435.259	7076.41
435.466	7178.81
435.673	7119.42
435.88	7688.76
436.087	8043.06
436.294	8028.72
436.501	7797.3
436.708	7852.59
436.915	8188.46
437.122	8682.02
437.329	8778.28
437.537	8802.85
437.743	9077.28
437.95	8907.3
438.157	9546.26
438.364	9650.71
438.571	9796.12
438.778	9753.11
438.985	10689.03
439.192	10166.8
439.399	10570.25
439.606	10230.29
439.813	10979.84
440.02	11450.88
440.227	11371.01
440.433	11395.58
440.64	11803.13
440.847	11594.23
441.054	11874.81
441.261	12511.72
441.467	12626.41
441.674	12726.76
441.881	13251.04
442.088	13216.22
442.294	13101.54
442.501	13414.88
442.708	13820.38
442.914	14371.28
443.121	14559.69
443.328	14176.72
443.534	15444.41
443.741	14666.19
443.948	14862.79
444.154	15862.2
444.361	15888.82
444.568	15964.6
444.774	15661.5
444.981	15999.41
445.187	16673.2
445.394	17244.58
445.6	16794.03
445.807	18581.9
446.013	17658.27
446.22	18164.12
446.426	18729.36
446.633	19110.28
446.839	19595.65
447.046	18889.1
447.252	19892.6
447.459	19974.52
447.665	19939.71
447.871	20605.3
448.078	21578.08
448.284	20506.99
448.491	21172.58
448.697	21883.23
448.903	22276.44
449.11	22362.45
449.316	22208.86
449.522	22581.59
449.728	23202.12
449.935	23243.08
450.141	23304.52
450.347	23939.39
450.553	23355.72
450.76	23462.21
450.966	24361.27
451.172	23843.13
451.378	24658.23
451.584	24078.65
451.791	24721.71
451.997	24842.54
452.203	25016.62
452.409	25223.47
452.615	24873.26
452.821	23998.78
453.027	23566.66
453.233	25168.17
453.44	23841.09
453.646	24267.06
453.852	24592.69
454.058	24990
454.264	24203.58
454.47	24549.68
454.676	23808.32
454.882	25192.75
455.088	22579.54
455.294	23277.9
455.5	23638.34
455.705	23707.97
455.911	22806.86
456.117	22464.85
456.323	22223.19
456.529	20894.06
456.735	21885.28
456.941	21350.76
457.147	21234.02
457.352	20244.85
457.558	20310.39
457.764	20185.46
457.97	19872.12
458.176	19270.02
458.381	19573.12
458.587	18534.8
458.793	18446.74
458.999	17279.39
459.204	18518.42
459.41	18164.12
459.616	17140.13
459.821	17230.24
460.027	17205.67
460.233	16755.11
460.438	15937.98
460.644	16138.68
460.85	15473.09
461.055	14954.95
461.261	15090.12
461.466	13978.07
461.672	13445.6
461.878	14571.98
462.083	13644.25
462.289	13466.08
462.494	13042.15
462.7	12511.72
462.905	12130.8
463.111	12906.98
463.316	12376.56
463.522	12521.96
463.727	12415.47
463.932	12524.01
464.138	12134.9
464.343	12376.56
464.549	12091.89
464.754	12386.8
464.959	12306.93
465.165	12063.22
465.37	11633.15
465.575	11643.39
465.781	11883
465.986	12016.12
466.191	11653.62
466.397	11276.8
466.602	10672.65
466.807	11405.82
467.012	11127.3
467.218	10963.46
467.423	10742.28
467.628	11151.87
467.833	11545.08
468.038	10842.63
468.244	10852.87
468.449	11057.67
468.654	10625.54
468.859	10695.18
469.064	10639.88
469.269	10072.59
469.474	10435.08
469.679	10631.69
469.885	10246.67
470.09	10334.73
470.295	10185.23
470.5	10099.22
470.705	10297.87
470.91	9878.04
471.115	9767.45
471.32	10015.25
471.525	9826.84
471.73	9714.2
471.935	9742.87
472.139	9421.34
472.344	9474.59
472.549	9366.04
472.754	9335.32
472.959	9032.22
473.164	9171.49
473.369	8823.33
473.574	9101.86
473.778	8974.88
473.983	8770.08
474.188	9161.25
474.393	8522.28
474.598	8604.2
474.802	8464.94
475.007	8276.52
475.212	8397.35
475.417	8049.2
475.621	8178.22
475.826	8184.37
476.031	7911.99
476.235	7871.03
476.44	8030.77
476.645	7823.92
476.849	7719.48
477.054	7463.48
477.259	7555.64
477.463	7635.51
477.668	7514.68
477.872	7438.91
478.077	7297.6
478.282	7268.92
478.486	7260.73
478.691	7139.9
478.895	7154.24
479.1	7010.88
479.304	7264.83
479.509	6904.39
479.713	7156.29
479.918	6898.24
480.122	6580.81
480.326	6771.27
480.531	6752.84
480.735	6801.99
480.94	6797.89
481.144	6920.77
481.348	6511.18
481.553	6582.85
481.757	6507.08
481.961	6705.73
482.166	6679.11
482.37	6619.72
482.574	6464.07
482.778	6607.43
482.983	6718.02
483.187	6597.19
483.391	6648.39
483.595	6523.46
483.8	6359.63
484.004	6556.23
484.208	6666.82
484.412	6429.26
484.616	6466.12
484.821	6623.81
485.025	6337.1
485.229	6464.07
485.433	6525.51
485.637	6664.77
485.841	6318.67
486.045	6476.36
486.249	6548.04
486.453	6416.97
486.657	6431.3
486.861	6433.35
487.065	6345.29
487.269	6459.98
487.473	6337.1
487.677	6558.28
487.881	6814.27
488.085	6502.98
488.289	6816.32
488.493	6586.95
488.697	6525.51
488.901	6533.7
489.105	6638.15
489.309	6574.66
489.512	6720.07
489.716	6654.53
489.92	6605.38
490.124	6558.28
490.328	6732.36
490.531	6666.82
490.735	6591.05
490.939	6838.85
491.143	6699.59
491.346	6797.89
491.55	6679.11
491.754	6945.34
491.958	6867.52
492.161	6775.36
492.365	6713.92
492.569	6818.37
492.772	6744.64
492.976	7055.93
493.18	7162.43
493.383	7144
493.587	7086.65
493.79	7207.48
493.994	7086.65
494.197	7260.73
494.401	7250.49
494.605	7189.05
494.808	7510.58
495.012	7412.28
495.215	7438.91
495.419	7582.26
495.622	7412.28
495.825	7746.1
496.029	7672.37
496.232	7813.68
496.436	7739.96
496.639	7901.75
496.843	7965.23
497.046	8018.48
497.249	8215.09
497.453	8245.8
497.656	8376.87
497.859	8219.18
498.063	8593.96
498.266	8536.62
498.469	8579.62
498.673	8686.12
498.876	8989.22
499.079	8747.56
499.282	9081.38
499.485	9265.69
499.689	9349.66
499.892	9353.76
500.095	9411.1
500.298	9259.55
500.501	9581.08
500.705	9802.26
500.908	9796.12
501.111	9828.88
501.314	10070.55
501.517	10070.55
501.72	10297.87
501.923	10088.98
502.126	10320.4
502.329	10576.39
502.532	10562.06
502.735	10719.75
502.938	10934.79
503.141	11000.32
503.344	11254.27
503.547	11006.47
503.75	11489.79
503.953	11620.86
504.156	11610.62
504.359	11837.94
504.562	11973.11
504.765	12098.03
504.968	12384.75
505.17	12302.83
505.373	12241.39
505.576	12612.07
505.779	12581.35
505.982	12753.38
506.185	13132.26
506.387	13232.61
506.59	13437.41
506.793	13400.54
506.996	13662.68
507.198	13738.46
507.401	13529.56
507.604	13783.51
507.807	14256.59
508.009	14404.05
508.212	14422.48
508.415	14666.19
508.617	14764.49
508.82	14987.72
509.022	15047.11
509.225	15446.46
509.428	15067.59
509.63	15571.39
509.833	15608.25
510.035	16001.46
510.238	16067
510.44	16177.59
510.643	16294.32
510.845	16542.13
511.048	16718.25
511.25	17009.06
511.453	17150.37
511.655	17508.77
511.858	17279.39
512.06	17476
512.262	17752.48
512.465	17457.57
512.667	18006.42
512.87	18377.11
513.072	18147.73
513.274	18782.6
513.477	18708.88
513.679	18993.54
513.881	19177.86
514.084	19231.11
514.286	19046.79
514.488	19315.08
514.69	20031.86
514.893	19982.71
515.095	20316.53
515.297	20308.34
515.499	20457.84
515.701	20576.62
515.904	20775.28
516.106	21086.57
516.308	21231.97
516.51	21719.39
516.712	21553.51
516.914	21657.95
517.116	22331.73
517.318	22153.56
517.52	22452.56
517.722	22651.22
517.925	22862.16
518.127	22970.7
518.329	23247.18
518.531	23183.69
518.733	23761.22
518.935	23863.61
519.136	23513.41
519.338	23972.16
519.54	24314.17
519.742	24535.35
519.944	24631.6
520.146	25123.12
520.348	25305.38
520.55	25350.44
520.752	25489.7
520.954	25684.26
521.155	25440.55
521.357	26239.26
521.559	26120.48
521.761	26599.7
521.963	26937.62
522.164	26906.9
522.366	27277.58
522.568	27339.02
522.77	27181.32
522.971	27717.89
523.173	27611.4
523.375	27646.21
523.576	27930.88
523.778	27918.59
523.98	28360.95
524.181	28473.59
524.383	28524.79
524.584	28963.06
524.786	29141.23
524.988	28844.27
525.189	29456.62
525.391	29069.55
525.592	29575.4
525.794	29622.5
525.995	29612.26
526.197	29776.1
526.398	29696.23
526.6	29747.43
526.801	30120.16
527.003	30316.76
527.204	30179.55
527.406	30554.33
527.607	30597.34
527.808	30896.34
528.01	30343.39
528.211	30996.69
528.412	30949.59
528.614	30953.68
528.815	30839
529.016	31529.16
529.218	30888.15
529.419	31168.72
529.62	31238.35
529.822	31406.28
530.023	31459.53
530.224	31168.72
530.425	31381.71
530.626	31299.79
530.828	31443.15
531.029	32037.06
531.23	31539.4
531.431	31551.69
531.632	31785.16
531.833	31627.46
532.035	31985.86
532.236	32071.87
532.437	32350.4
532.638	32061.63
532.839	32098.5
533.04	31762.63
533.241	31822.02
533.442	32501.95
533.643	31994.05
533.844	31826.12
534.045	32256.19
534.246	31789.25
534.447	32637.11
534.648	32248
534.849	32383.16
535.05	31656.14
535.251	32313.53
535.451	32164.03
535.652	32512.19
535.853	32057.54
536.054	32270.53
536.255	32512.19
536.456	32098.5
536.657	32759.99
536.857	32370.88
537.058	32258.24
537.259	32516.28
537.46	32098.5
537.66	32192.7
537.861	32331.97
538.062	32331.97
538.263	32286.91
538.463	32155.84
538.664	32254.14
538.865	32116.93
539.065	32438.46
539.266	31916.23
539.466	32608.44
539.667	31672.52
539.868	32420.03
540.068	32368.83
540.269	32395.45
540.469	32268.48
540.67	32229.57
540.87	32254.14
541.071	32366.78
541.271	32198.85
541.472	32067.78
541.672	32198.85
541.873	31660.23
542.073	31662.28
542.274	32241.85
542.474	32030.91
542.675	32030.91
542.875	31905.99
543.075	32260.29
543.276	32106.69
543.476	32262.33
543.676	31801.54
543.877	32053.44
544.077	32155.84
544.277	31875.27
544.478	31793.35
544.678	31953.09
544.878	32194.75
545.078	32211.14
545.279	31867.08
545.479	31834.31
545.679	32125.12
545.879	32125.12
546.079	32059.59
546.28	31873.22
546.48	31553.74
546.68	31918.28
546.88	31932.61
547.08	31981.76
547.28	31905.99
547.48	31580.36
547.68	32151.74
547.88	31324.36
548.081	31916.23
548.281	31971.52
548.481	31408.33
548.681	32078.02
548.881	31901.89
549.081	31637.7
549.28	31598.79
549.48	31832.26
549.68	32202.94
549.88	32184.51
550.08	31580.36
550.28	31596.74
550.48	31447.24
550.68	32026.82
550.88	31674.57
551.08	31645.9
551.279	31647.94
551.479	31381.71
551.679	31592.65
551.879	31693
552.079	31883.46
552.278	31600.84
552.478	31834.31
552.678	31678.66
552.878	31566.02
553.077	31551.69
553.277	31158.48
553.477	31635.66
553.676	31631.56
553.876	31447.24
554.076	30791.89
554.275	31520.97
554.475	31203.53
554.674	31447.24
554.874	31115.47
555.074	31537.35
555.273	31586.5
555.473	31385.8
555.672	31107.28
555.872	31131.86
556.071	31070.42
556.271	31586.5
556.47	30988.5
556.67	30640.34
556.869	31299.79
557.068	31420.62
557.268	30859.48
557.467	30869.72
557.667	30935.25
557.866	30945.49
558.065	30859.48
558.265	30818.52
558.464	30789.84
558.663	31068.37
558.863	30322.91
559.062	31097.04
559.261	30462.17
559.461	31074.51
559.66	30261.47
559.859	30943.44
560.058	30306.52
560.258	30757.08
560.457	30101.73
560.656	30290.14
560.855	30558.42
561.054	30673.11
561.253	30277.85
561.453	30228.7
561.652	30099.68
561.851	30195.93
562.05	30365.92
562.249	29812.96
562.448	29956.32
562.647	29825.25
562.846	29944.03
563.045	30132.45
563.244	29509.86
563.443	29815.01
563.642	29636.84
563.841	29710.57
564.04	29305.07
564.239	29798.63
564.438	29438.19
564.637	29548.78
564.836	29333.74
565.035	29352.17
565.234	29573.35
565.432	29167.85
565.631	29044.98
565.83	29554.92
566.029	29298.92
566.228	29124.85
566.427	28758.26
566.625	29059.31
566.824	28784.88
567.023	28940.53
567.222	28160.25
567.42	28872.95
567.619	28707.06
567.818	28678.39
568.016	28436.73
568.215	28590.33
568.414	28416.25
568.612	28377.34
568.811	28344.57
569.01	28553.46
569.208	28047.61
569.407	28426.49
569.605	27988.22
569.804	28098.81
570.002	27435.27
570.201	28096.77
570.4	27504.9
570.598	27662.6
570.797	27404.55
570.995	27373.83
571.193	27375.88
571.392	27545.86
571.59	27478.28
571.789	27175.18
571.987	27382.02
572.186	27250.95
572.384	27193.61
572.582	27097.36
572.781	27021.58
572.979	26646.8
573.177	27099.41
573.376	26878.22
573.574	26521.88
573.772	26751.25
573.971	26611.99
574.169	26632.47
574.367	26243.35
574.565	26489.11
574.763	26368.28
574.962	26212.63
575.16	26044.7
575.358	25958.69
575.556	25872.67
575.754	26403.1
575.952	25669.92
576.151	25946.4
576.349	25794.85
576.547	25794.85
576.745	25872.67
576.943	25794.85
577.141	25596.2
577.339	25463.08
577.537	25438.5
577.735	25346.34
577.933	25497.89
578.131	25512.23
578.329	25049.39
578.527	25164.07
578.725	24856.88
578.923	25162.03
579.121	25088.3
579.319	24631.6
579.516	25127.21
579.714	25387.3
579.912	24596.79
580.11	24551.73
580.308	24600.88
580.506	24418.61
580.704	24088.89
580.901	24578.36
581.099	24291.64
581.297	24234.3
581.495	24045.88
581.692	24244.54
581.89	24226.1
582.088	24320.31
582.285	23941.44
582.483	23830.85
582.681	23906.62
582.878	23796.03
583.076	23490.88
583.274	23963.96
583.471	23669.06
583.669	23380.29
583.866	23488.84
584.064	23337.29
584.262	23181.64
584.459	23585.09
584.657	23292.23
584.854	23462.21
585.052	22964.56
585.249	23304.52
585.447	22659.41
585.644	22901.07
585.841	22614.35
586.039	23136.59
586.236	22602.07
586.434	22610.26
586.631	22497.62
586.828	22692.18
587.026	22622.55
587.223	22464.85
587.42	22362.45
587.618	22634.83
587.815	22489.43
588.012	22282.58
588.21	22012.25
588.407	22268.25
588.604	21854.56
588.801	21844.32
588.999	21664.1
589.196	21291.37
589.393	21838.17
589.59	21506.4
589.787	21354.85
589.984	21463.4
590.182	21260.65
590.379	21578.08
590.576	20877.68
590.773	21420.39
590.97	20914.54
591.167	21352.8
591.364	20875.63
591.561	21422.44
591.758	20771.18
591.955	20695.41
592.152	21129.58
592.349	20588.91
592.546	20746.61
592.743	20566.38
592.94	20449.65
593.137	20304.24
593.334	20394.36
593.531	20543.86
593.727	20433.27
593.924	20384.12
594.121	20367.73
594.318	20105.59
594.515	20046.2
594.712	20109.69
594.908	20117.88
595.105	19853.69
595.302	19679.61
595.499	20050.3
595.696	19790.2
595.892	19640.7
596.089	19929.47
596.286	19698.05
596.482	19806.59
596.679	19417.47
596.876	19462.53
597.072	19347.84
597.269	19446.15
597.466	19300.74
597.662	18973.07
597.859	18905.48
598.055	19052.94
598.252	18887.05
598.448	18973.07
598.645	18788.75
598.841	18577.81
599.038	18928.01
599.234	18819.47
599.431	18647.44
599.627	18901.39
599.824	18786.7
600.02	18303.38
600.217	18696.59
600.413	18561.42
600.609	18729.36
600.806	18401.68
601.002	18434.45
601.198	18266.52
601.395	18098.58
601.591	18018.71
601.787	18080.15
601.984	18010.52
602.18	18100.63
602.376	18010.52
602.572	17717.66
602.769	17623.45
602.965	17701.28
603.161	17467.81
603.357	17330.59
603.553	17457.57
603.75	17627.55
603.946	17371.55
604.142	17559.97
604.338	17271.2
604.534	17187.24
604.73	17275.3
604.926	17070.5
605.122	17064.36
605.318	17031.59
605.514	16947.62
605.71	16683.44
605.906	16863.66
606.102	16896.42
606.298	17072.55
606.494	16841.13
606.69	16763.31
606.886	16771.5
607.082	16615.85
607.278	16583.09
607.474	16681.39
607.67	16763.31
607.866	16241.07
608.062	16578.99
608.257	16452.02
608.453	16267.7
608.649	16243.12
608.845	16222.64
609.041	16071.09
609.236	16155.06
609.432	16107.96
609.628	16263.6
609.824	16241.07
610.019	16017.85
610.215	15964.6
610.411	16153.01
610.606	15655.36
610.802	15948.22
610.998	15770.04
611.193	15839.67
611.389	15866.3
611.584	15714.75
611.78	15548.86
611.976	15628.73
612.171	15630.78
612.367	15704.51
612.562	15598.01
612.758	15446.46
612.953	15419.84
613.149	15448.51
613.344	15430.08
613.539	15538.62
613.735	15438.27
613.93	15253.95
614.126	15335.87
614.321	15339.97
614.517	15356.35
614.712	15212.99
614.907	15321.54
615.103	15145.41
615.298	15102.4
615.493	15329.73
615.688	14807.5
615.884	15444.41
616.079	14848.46
616.274	14969.29
616.47	15004.1
616.665	15004.1
616.86	14862.79
617.055	14897.61
617.25	14870.98
617.445	14942.66
617.641	14684.62
617.836	14913.99
618.031	14453.2
618.226	14725.58
618.421	14567.88
618.616	14567.88
618.811	14174.67
619.006	14676.43
619.201	14139.86
619.396	14453.2
619.591	14289.36
619.786	14512.59
619.981	14006.74
620.176	14082.52
620.371	13808.09
620.566	13953.49
620.761	13908.44
620.956	14186.96
621.151	13752.79
621.346	13828.57
621.541	13351.39
621.735	13912.53
621.93	13521.37
622.125	13470.17
622.32	13285.86
622.515	13402.59
622.709	13087.2
622.904	13365.73
623.099	13169.12
623.294	13324.77
623.488	13072.87
623.683	13003.24
623.878	12650.99
624.072	12835.3
624.267	12743.14
624.462	12585.45
624.656	12392.94
624.851	12610.03
625.046	12511.72
625.24	12399.09
625.435	12245.49
625.629	12173.81
625.824	12257.78
626.018	12138.99
626.213	12200.43
626.407	11889.14
626.602	11739.64
626.796	11891.19
626.991	11760.12
627.185	11739.64
627.38	11667.96
627.574	11616.76
627.768	11520.51
627.963	11516.41
628.157	11319.81
628.352	11520.51
628.546	11307.52
628.74	11280.89
628.935	11217.41
629.129	11287.04
629.323	10883.59
629.517	10981.89
629.712	10981.89
629.906	10922.5
630.1	10766.85
630.294	10809.86
630.489	10646.02
630.683	10562.06
630.877	10652.17
631.071	10488.33
631.265	10519.05
631.459	10410.51
631.653	10332.68
631.848	10236.43
632.042	10334.73
632.236	10283.53
632.43	10037.78
632.624	10111.5
632.818	10091.02
633.012	9986.58
633.206	9869.84
633.4	9919
633.594	9767.45
633.788	9882.13
633.982	9843.22
634.176	9660.95
634.369	9544.22
634.563	9570.84
634.757	9515.55
634.951	9615.9
635.145	9456.15
635.339	9384.48
635.533	9402.91
635.726	9456.15
635.92	9222.69
636.114	9101.86
636.308	9146.91
636.501	9134.62
636.695	9204.25
636.889	8985.12
637.083	8981.03
637.276	8886.82
637.47	8866.34
637.664	8921.63
637.857	8868.39
638.051	8809
638.244	8854.05
638.438	8604.2
638.632	8516.14
638.825	8340.01
639.019	8616.49
639.212	8530.47
639.406	8518.18
639.599	8278.57
639.793	8417.83
639.986	8200.75
640.18	8237.61
640.373	8202.8
640.567	8006.19
640.76	8137.26
640.954	7963.19
641.147	7899.7
641.34	8000.05
641.534	8157.74
641.727	7785.01
641.92	7787.06
642.114	7707.19
642.307	7705.14
642.5	7703.09
642.694	7533.11
642.887	7641.65
643.08	7658.04
643.273	7522.87
643.467	7402.04
643.66	7389.75
643.853	7453.24
644.046	7254.59
644.239	7293.5
644.432	7146.05
644.626	7277.12
644.819	7332.41
645.012	7176.77
645.205	7096.89
645.398	7119.42
645.591	7156.29
645.784	6924.86
645.977	6982.21
646.17	6814.27
646.363	6795.84
646.556	6992.45
646.749	6842.95
646.942	6896.19
647.135	6744.64
647.328	6607.43
647.521	6699.59
647.714	6490.7
647.907	6539.85
648.099	6437.45
648.292	6582.85
648.485	6736.45
648.678	6521.42
648.871	6398.54
649.064	6427.21
649.256	6453.83
649.449	6273.61
649.642	6212.17
649.835	6281.8
650.027	6144.59
650.22	6257.23
650.413	6191.69
650.605	6195.79
650.798	5935.7
650.991	6074.96
651.183	6150.73
651.376	6066.77
651.568	5900.88
651.761	5841.49
651.954	5931.6
652.146	5851.73
652.339	5921.36
652.531	5894.74
652.724	5843.54
652.916	5665.36
653.109	5786.19
653.301	5657.17
653.494	5550.68
653.686	5614.16
653.879	5517.91
654.071	5573.21
654.263	5532.25
654.456	5429.85
654.648	5601.88
654.84	5407.32
655.033	5491.29
655.225	5368.41
655.417	5315.16
655.61	5315.16
655.802	5306.97
655.994	5278.3
656.186	5304.92
656.379	5198.43
656.571	5184.09
656.763	4991.58
656.955	5173.85
657.148	5007.97
657.34	5173.85
657.532	4954.72
657.724	5053.02
657.916	4987.49
658.108	5053.02
658.3	4917.86
658.492	4837.98
658.684	4932.19
658.876	5018.21
659.068	4856.42
659.26	4778.59
659.452	4880.99
659.644	4768.35
659.836	4887.14
660.028	4698.72
660.22	4516.45
660.412	4461.16
660.604	4526.69
660.796	4524.65
660.988	4592.23
661.18	4504.17
661.372	4344.42
661.563	4387.43
661.755	4393.58
661.947	4330.09
662.139	4414.06
662.331	4350.57
662.522	4336.23
662.714	4303.47
662.906	4178.54
663.097	4254.31
663.289	4233.83
663.481	4203.11
663.673	4168.3
663.864	4094.57
664.056	4117.1
664.247	4024.94
664.439	4102.76
664.631	3912.3
664.822	4194.92
665.014	4065.9
665.205	3938.93
665.397	3881.58
665.588	3961.45
665.78	3906.16
665.971	3893.87
666.163	3961.45
666.354	3793.52
666.546	3846.77
666.737	3844.72
666.929	3820.14
667.12	3764.85
667.311	3816.05
667.503	3854.96
667.694	3682.93
667.885	3623.54
668.077	3687.03
668.268	3603.06
668.459	3617.4
668.651	3756.66
668.842	3689.07
669.033	3555.96
669.224	3519.09
669.416	3660.4
669.607	3639.92
669.798	3502.71
669.989	3584.63
670.18	3603.06
670.371	3512.95
670.563	3478.13
670.754	3437.17
670.945	3453.56
671.136	3369.59
671.327	3349.11
671.518	3381.88
671.709	3443.32
671.9	3420.79
672.091	3316.34
672.282	3379.83
672.473	3330.68
672.664	3377.78
672.855	3220.09
673.046	3375.74
673.237	3402.36
673.428	3240.57
673.619	3213.95
673.809	3353.21
674	3328.63
674.191	3254.9
674.382	3222.14
674.573	3226.23
674.764	3089.02
674.954	3156.6
675.145	3148.41
675.336	3031.68
675.527	3025.53
675.717	3148.41
675.908	3125.88
676.099	3115.64
676.289	3062.4
676.48	2994.81
676.671	2968.19
676.861	3041.92
677.052	2984.57
677.243	2861.69
677.433	3066.49
677.624	3101.31
677.814	2978.43
678.005	2986.62
678.195	2951.81
678.386	2978.43
678.576	3027.58
678.767	2980.48
678.957	2888.32
679.148	2953.85
679.338	3078.78
679.529	2845.31
679.719	2738.82
679.909	2951.81
680.1	2880.13
680.29	3005.05
680.481	2902.65
680.671	2841.22
680.861	2880.13
681.052	2867.84
681.242	2771.58
681.432	2910.85
681.622	2904.7
681.813	2886.27
682.003	2824.83
682.193	2837.12
682.383	2878.08
682.573	2640.51
682.764	2804.35
682.954	2845.31
683.144	2867.84
683.334	2626.18
683.524	2804.35
683.714	2689.67
683.904	2683.52
684.094	2749.06
684.284	2796.16
684.474	2923.13
684.664	2736.77
684.854	2656.9
685.044	2667.14
685.234	2736.77
685.424	2755.2
685.614	2697.86
685.804	2716.29
685.994	2740.86
686.184	2656.9
686.374	2636.42
686.564	2660.99
686.753	2697.86
686.943	2519.68
687.133	2648.71
687.323	2615.94
687.513	2605.7
687.702	2589.32
687.892	2558.6
688.082	2472.58
688.272	2607.75
688.461	2620.03
688.651	2650.75
688.841	2636.42
689.03	2503.3
689.22	2474.63
689.41	2615.94
689.599	2499.2
689.789	2615.94
689.979	2407.05
690.168	2380.42
690.358	2517.64
690.547	2501.25
690.737	2341.51
690.926	2353.8
691.116	2443.91
691.305	2468.48
691.495	2411.14
691.684	2388.61
691.874	2361.99
692.063	2470.53
692.252	2288.26
692.442	2347.65
692.631	2273.93
692.82	2372.23
693.01	2241.16
693.199	2402.95
693.388	2280.07
693.578	2347.65
693.767	2380.42
693.956	2263.69
694.146	2290.31
694.335	2189.96
694.524	2316.94
694.713	2308.74
694.902	2259.59
695.092	2247.3
695.281	2200.2
695.47	2230.92
695.659	2222.73
695.848	2159.24
696.037	2200.2
696.226	2339.46
696.415	2210.44
696.604	2216.58
696.793	2071.18
696.982	2187.91
697.171	2273.93
697.36	2183.82
697.549	2103.95
697.738	2108.04
697.927	2110.09
698.116	2126.47
698.305	2159.24
698.494	2116.23
698.683	2130.57
698.872	2179.72
699.061	2138.76
699.25	2099.85
699.438	2093.71
699.627	2153.1
699.816	2062.99
700.005	2149
700.193	2228.87
700.382	2144.91
700.571	2149
700.76	2124.43
700.948	2052.75
701.137	2003.6
701.326	2034.32
701.514	2079.37
701.703	1995.4
701.892	2122.38
702.08	2138.76
702.269	2022.03
702.457	2048.65
702.646	2087.56
702.834	1995.4
703.023	2017.93
703.212	2001.55
703.4	2022.03
703.589	2026.12
703.777	2022.03
703.965	2017.93
704.154	2085.51
704.342	1987.21
704.531	1993.36
704.719	2030.22
704.907	2038.41
705.096	2062.99
705.284	2124.43
705.472	1972.88
705.661	2079.37
705.849	2038.41
706.037	2089.61
706.226	2060.94
706.414	2013.84
706.602	2071.18
706.79	2009.74
706.979	2005.64
707.167	1964.68
707.355	1872.53
707.543	1976.97
707.731	2003.6
707.919	2022.03
708.107	1940.11
708.296	1956.49
708.484	1995.4
708.672	1929.87
708.86	2103.95
709.048	1960.59
709.236	1952.4
709.424	1895.05
709.612	1962.64
709.8	1931.92
709.988	1970.83
710.176	1936.01
710.364	2030.22
710.551	2044.56
710.739	1905.29
710.927	1976.97
711.115	1944.2
711.303	1888.91
711.491	2042.51
711.679	1852.05
711.866	2003.6
712.054	1993.36
712.242	1962.64
712.43	1925.77
712.617	1929.87
712.805	1952.4
712.993	1923.73
713.181	1847.95
713.368	1944.2
713.556	1927.82
713.744	1925.77
713.931	1997.45
714.119	2022.03
714.306	1948.3
714.494	2034.32
714.682	1905.29
714.869	1903.25
715.057	2011.79
715.244	1839.76
715.432	1970.83
715.619	1952.4
715.807	1946.25
715.994	1950.35
716.182	1962.64
716.369	1942.16
716.556	1899.15
716.744	1766.03
716.931	1979.02
717.119	1964.68
717.306	1899.15
717.493	1837.71
717.681	1897.1
717.868	1923.73
718.055	1854.09
718.242	2009.74
718.43	1886.86
718.617	1952.4
718.804	1987.21
718.991	1946.25
719.179	2009.74
719.366	1905.29
719.553	1938.06
719.74	1886.86
719.927	1833.61
720.114	1962.64
720.301	1944.2
720.488	1929.87
720.676	1905.29
720.863	1911.44
721.05	2042.51
721.237	1847.95
721.424	1864.33
721.611	1905.29
721.798	1788.56
721.985	1870.48
722.172	1847.95
722.358	1911.44
722.545	1917.58
722.732	1964.68
722.919	1944.2
723.106	1890.96
723.293	1843.85
723.48	1864.33
723.667	1907.34
723.853	1823.37
724.04	1841.81
724.227	1968.78
724.414	1952.4
724.6	1944.2
724.787	1841.81
724.974	1860.24
725.161	1997.45
725.347	1839.76
725.534	1886.86
725.72	1931.92
725.907	1954.44
726.094	1876.62
726.28	1915.53
726.467	1931.92
726.653	1825.42
726.84	2009.74
727.027	1854.09
727.213	1907.34
727.4	1942.16
727.586	1964.68
727.773	1903.25
727.959	1794.7
728.145	1833.61
728.332	1886.86
728.518	1796.75
728.705	1933.97
728.891	1938.06
729.077	1882.77
729.264	1831.57
729.45	1936.01
729.636	1962.64
729.823	1829.52
730.009	1968.78
730.195	1860.24
730.382	1843.85
730.568	1866.38
730.754	1911.44
730.94	1770.13
731.126	1911.44
731.313	1841.81
731.499	1919.63
731.685	1925.77
731.871	1936.01
732.057	1882.77
732.243	1895.05
732.429	1884.81
732.615	1956.49
732.801	1872.53
732.987	1874.57
733.173	1962.64
733.359	1831.57
733.545	1913.49
733.731	1850
733.917	1897.1
734.103	1903.25
734.289	1976.97
734.475	1778.32
734.661	1845.9
734.847	1899.15
735.033	1862.29
735.219	1905.29
735.404	1774.22
735.59	1780.37
735.776	1870.48
735.962	1993.36
736.148	1968.78
736.333	1850
736.519	1895.05
736.705	1948.3
736.89	1936.01
737.076	1841.81
737.262	1835.66
737.447	1847.95
737.633	1786.51
737.819	1823.37
738.004	1796.75
738.19	1831.57
738.375	1768.08
738.561	1815.18
738.747	1739.41
738.932	1825.42
739.118	1823.37
739.303	1784.46
739.489	1821.33
739.674	1854.09
739.859	1825.42
740.045	1745.55
740.23	1825.42
740.416	1688.21
740.601	1723.02
740.786	1829.52
740.972	1796.75
741.157	1766.03
741.342	1723.02
741.528	1665.68
741.713	1788.56
741.898	1594
742.084	1686.16
742.269	1823.37
742.454	1708.69
742.639	1692.3
742.824	1596.05
743.01	1755.79
743.195	1731.22
743.38	1659.54
743.565	1718.93
743.75	1714.83
743.935	1694.35
744.12	1665.68
744.305	1643.15
744.49	1553.04
744.675	1649.3
744.86	1571.47
745.045	1696.4
745.23	1602.19
745.415	1567.38
745.6	1641.11
745.785	1512.08
745.97	1522.32
746.155	1649.3
746.34	1530.52
746.525	1510.04
746.71	1659.54
746.895	1559.19
747.079	1493.65
747.264	1528.47
747.449	1618.58
747.634	1501.84
747.819	1559.19
748.003	1469.08
748.188	1501.84
748.373	1596.05
748.557	1454.74
748.742	1493.65
748.927	1526.42
749.111	1462.93
749.296	1421.97
749.481	1516.18
749.665	1405.59
749.85	1432.21
750.034	1460.88
750.219	1438.36
750.404	1403.54
750.588	1415.83
750.773	1276.57
750.957	1415.83
751.141	1368.73
751.326	1346.2
751.51	1340.05
751.695	1383.06
751.879	1311.38
752.064	1391.25
752.248	1346.2
752.432	1378.97
752.617	1358.49
752.801	1295
752.985	1247.9
753.17	1303.19
753.354	1282.71
753.538	1288.86
753.722	1231.51
753.907	1231.51
754.091	1266.33
754.275	1319.57
754.459	1206.94
754.643	1241.75
754.828	1235.61
755.012	1108.63
755.196	1202.84
755.38	1251.99
755.564	1223.32
755.748	1073.82
755.932	1256.09
756.116	1075.87
756.3	1133.21
756.484	1129.11
756.668	1084.06
756.852	1055.39
757.036	1120.92
757.22	1112.73
757.404	1020.57
757.588	1059.48
757.772	1110.68
757.956	1067.67
758.14	1114.78
758.323	1092.25
758.507	1067.67
758.691	1125.02
758.875	1014.43
759.059	993.95
759.242	985.76
759.426	1053.34
759.61	1004.19
759.794	1018.52
759.977	985.76
760.161	1020.57
760.345	985.76
760.528	979.61
760.712	905.88
760.895	985.76
761.079	1008.28
761.263	938.65
761.446	926.36
761.63	920.22
761.813	1030.81
761.997	912.03
762.18	969.37
762.364	1004.19
762.547	899.74
762.731	928.41
762.914	981.66
763.098	965.28
763.281	905.88
763.464	930.46
763.648	905.88
763.831	901.79
764.015	899.74
764.198	873.12
764.381	985.76
764.564	838.3
764.748	877.21
764.931	916.12
765.114	871.07
765.297	889.5
765.481	889.5
765.664	838.3
765.847	866.97
766.03	871.07
766.213	723.62
766.397	844.45
766.58	768.67
766.763	834.21
766.946	813.73
767.129	834.21
767.312	871.07
767.495	760.48
767.678	772.77
767.861	789.15
768.044	750.24
768.227	862.88
768.41	776.86
768.593	823.97
768.776	848.54
768.959	821.92
769.142	854.69
769.324	799.39
769.507	719.52
769.69	789.15
769.873	742.05
770.056	791.2
770.239	838.3
770.421	772.77
770.604	780.96
770.787	776.86
770.97	756.38
771.152	799.39
771.335	701.09
771.518	707.23
771.7	748.19
771.883	774.81
772.066	754.34
772.248	758.43
772.431	733.86
772.613	674.46
772.796	803.49
772.978	692.9
773.161	780.96
773.343	772.77
773.526	707.23
773.708	623.27
773.891	694.94
774.073	727.71
774.256	625.31
774.438	740
774.621	725.66
774.803	711.33
774.985	678.56
775.168	690.85
775.35	600.74
775.532	645.79
775.715	631.46
775.897	658.08
776.079	633.51
776.261	711.33
776.444	678.56
776.626	555.68
776.808	635.55
776.99	592.55
777.173	504.48
777.355	629.41
777.537	686.75
777.719	610.98
777.901	576.16
778.083	510.63
778.265	643.74
778.447	600.74
778.629	635.55
778.811	580.26
778.993	510.63
779.175	664.22
779.357	596.64
779.539	547.49
779.721	623.27
779.903	543.39
780.085	570.02
780.267	492.2
780.449	563.87
780.631	592.55
780.812	608.93
780.994	518.82
781.176	543.39
781.358	496.29
781.54	578.21
781.721	477.86
781.903	518.82
782.085	451.24
782.267	543.39
782.448	533.15
782.63	420.52
782.812	473.76
782.993	430.76
783.175	555.68
783.357	463.52
783.538	430.76
783.72	441
783.901	477.86
784.083	494.24
784.264	426.66
784.446	412.32
784.627	412.32
784.809	455.33
784.99	406.18
785.172	387.75
785.353	428.71
785.535	428.71
785.716	395.94
785.897	371.36
786.079	479.91
786.26	412.32
786.441	387.75
786.623	352.93
786.804	322.21
786.985	502.43
787.167	338.6
787.348	363.17
787.529	465.57
787.71	412.32
787.891	283.3
788.073	297.64
788.254	367.27
788.435	379.56
788.616	445.09
788.797	340.65
788.978	344.74
789.159	371.36
789.34	445.09
789.522	391.84
789.703	348.84
789.884	307.88
790.065	422.56
790.246	365.22
790.427	314.02
790.607	346.79
790.788	381.6
790.969	191.14
791.15	334.5
791.331	295.59
791.512	350.89
791.693	344.74
791.874	314.02
792.054	354.98
792.235	277.16
792.416	318.12
792.597	350.89
792.778	307.88
792.958	397.99
793.139	332.45
793.32	354.98
793.5	334.5
793.681	281.25
793.862	250.53
794.042	252.58
794.223	187.05
794.404	266.92
794.584	297.64
794.765	201.38
794.945	301.73
795.126	299.69
795.306	264.87
795.487	213.67
795.667	305.83
795.848	281.25
796.028	250.53
796.209	281.25
796.389	264.87
796.57	264.87
796.75	193.19
796.93	252.58
797.111	262.82
797.291	217.77
797.471	305.83
797.652	234.15
797.832	240.3
798.012	273.06
798.192	236.2
798.373	185
798.553	238.25
798.733	281.25
798.913	254.63
799.093	307.88
799.274	305.83
799.454	334.5
799.634	299.69
799.814	314.02
799.994	242.34
800.174	203.43
800.354	268.97
800.534	209.58
800.714	252.58
800.894	154.28
801.074	66.22
801.254	150.18
801.434	258.73
801.614	180.9
801.794	195.24
801.974	701.09
802.154	273.06
802.334	223.91
802.514	211.62
802.693	207.53
802.873	191.14
803.053	240.3
803.233	223.91
803.413	201.38
803.592	160.42
803.772	133.8
803.952	264.87
804.131	201.38
804.311	228.01
804.491	234.15
804.67	156.33
804.85	189.1
805.03	164.52
805.209	242.34
805.389	146.09
805.568	225.96
805.748	174.76
805.928	170.66
806.107	213.67
806.287	113.32
806.466	275.11
806.646	158.38
806.825	160.42
807.004	146.09
807.184	148.14
807.363	160.42
807.543	185
807.722	199.34
807.901	191.14
808.081	121.51
808.26	230.06
808.439	158.38
808.619	240.3
808.798	191.14
808.977	141.99
809.156	160.42
809.336	166.57
809.515	215.72
809.694	131.75
809.873	146.09
810.052	150.18
810.231	113.32
810.411	133.8
810.59	195.24
810.769	45.74
810.948	203.43
811.127	113.32
811.306	223.91
811.485	131.75
811.664	133.8
811.843	117.42
812.022	199.34
812.201	115.37
812.38	117.42
812.559	158.38
812.737	141.99
812.916	137.9
813.095	150.18
813.274	125.61
813.453	117.42
813.632	111.27
813.811	178.86
813.989	125.61
814.168	182.95
814.347	101.03
814.526	178.86
814.704	174.76
814.883	131.75
815.062	125.61
815.24	185
815.419	117.42
815.598	109.22
815.776	84.65
815.955	228.01
816.133	176.81
816.312	174.76
816.49	170.66
816.669	174.76
816.847	80.55
817.026	199.34
817.204	84.65
817.383	152.23
817.561	72.36
817.74	92.84
817.918	74.41
818.097	88.75
818.275	84.65
818.453	133.8
818.632	170.66
818.81	96.94
818.988	86.7
819.167	113.32
819.345	111.27
819.523	96.94
819.701	101.03
819.879	133.8
820.058	121.51
820.236	150.18
820.414	101.03
820.592	82.6
820.77	76.46
820.948	88.75
821.127	117.42
821.305	96.94
821.483	129.7
821.661	146.09
821.839	80.55
822.017	90.79
822.195	92.84
822.373	187.05
822.551	103.08
822.729	121.51
822.907	60.07
823.085	84.65
823.262	76.46
823.44	94.89
823.618	133.8
823.796	70.31
823.974	103.08
824.152	64.17
824.329	150.18
824.507	129.7
824.685	117.42
824.863	121.51
825.04	84.65
825.218	170.66
825.396	55.98
825.574	133.8
825.751	70.31
825.929	109.22
826.107	41.64
826.284	115.37
826.462	84.65
826.639	111.27
826.817	-5.46
826.994	84.65
827.172	68.27
827.349	211.62
827.527	84.65
827.704	150.18
827.882	78.51
828.059	94.89
828.237	76.46
828.414	111.27
828.591	39.59
828.769	123.56
828.946	82.6
829.124	133.8
829.301	162.47
829.478	141.99
829.655	107.18
829.833	94.89
830.01	27.31
830.187	64.17
830.364	101.03
830.542	101.03
830.719	64.17
830.896	139.94
831.073	92.84
831.25	66.22
831.427	76.46
831.604	23.21
831.782	98.99
831.959	127.66
832.136	92.84
832.313	68.27
832.49	84.65
832.667	144.04
832.844	86.7
833.021	92.84
833.198	72.36
833.374	41.64
833.551	78.51
833.728	-27.99
833.905	123.56
834.082	62.12
834.259	60.07
834.436	88.75
834.612	10.92
834.789	72.36
834.966	78.51
835.143	92.84
835.319	35.5
835.496	62.12
835.673	68.27
835.85	35.5
836.026	125.61
836.203	76.46
836.38	74.41
836.556	51.88
836.733	17.07
836.909	60.07
837.086	43.69
837.262	45.74
837.439	101.03
837.616	86.7
837.792	62.12
837.968	12.97
838.145	10.92
838.321	37.55
838.498	109.22
838.674	45.74
838.851	92.84
839.027	-19.8
839.203	117.42
839.38	72.36
839.556	43.69
839.732	103.08
839.909	-5.46
840.085	92.84
840.261	43.69
840.437	76.46
840.614	51.88
840.79	133.8
840.966	117.42
841.142	96.94
841.318	82.6
841.494	117.42
841.671	60.07
841.847	10.92
842.023	101.03
842.199	60.07
842.375	160.42
842.551	60.07
842.727	2.73
842.903	109.22
843.079	60.07
843.255	60.07
843.431	60.07
843.607	86.7
843.783	39.59
843.959	76.46
844.134	64.17
844.31	117.42
844.486	64.17
844.662	-23.89
844.838	4.78
845.013	35.5
845.189	49.83
845.365	2.73
845.541	2.73
845.716	43.69
845.892	60.07
846.068	2.73
846.244	64.17
846.419	96.94
846.595	96.94
846.77	55.98
846.946	101.03
847.122	86.7
847.297	68.27
847.473	92.84
847.648	19.11
847.824	47.79
847.999	37.55
848.175	76.46
848.35	51.88
848.526	133.8
848.701	62.12
848.876	119.46
849.052	60.07
849.227	64.17
849.403	41.64
849.578	113.32
849.753	-11.61
849.929	6.83
850.104	27.31
850.279	68.27
850.454	51.88
850.63	109.22
850.805	62.12
850.98	27.31
851.155	19.11
851.33	29.35
851.505	39.59
851.681	109.22
851.856	-19.8
852.031	68.27
852.206	76.46
852.381	70.31
852.556	60.07
852.731	43.69
852.906	51.88
853.081	113.32
853.256	23.21
853.431	45.74
853.606	-11.61
853.781	72.36
853.956	-66.9
854.131	35.5
854.305	12.97
854.48	76.46
854.655	-52.56
854.83	35.5
855.005	43.69
855.18	62.12
855.354	-3.41
855.529	60.07
855.704	-19.8
855.879	174.76
856.053	43.69
856.228	88.75
856.403	27.31
856.577	-27.99
856.752	45.74
856.926	96.94
857.101	33.45
857.276	8.87
857.45	23.21
857.625	144.04
857.799	12.97
857.974	84.65
858.148	-38.23
858.323	60.07
858.497	-13.65
858.672	-101.72
858.846	68.27
859.02	4.78
859.195	-17.75
859.369	27.31
859.543	-1.37
859.718	-1.37
859.892	31.4
860.066	86.7
860.241	2.73
860.415	68.27
860.589	10.92
860.763	6.83
860.938	-15.7
861.112	2.73
861.286	-9.56
861.46	51.88
861.634	-3.41
861.808	60.07
861.982	-21.85
862.157	-1.37
862.331	-30.04
862.505	10.92
862.679	23.21
862.853	31.4
863.027	39.59
863.201	8.87
863.375	-13.65
863.549	148.14
863.722	60.07
863.896	68.27
864.07	21.16
864.244	37.55
864.418	-25.94
864.592	6.83
864.766	29.35
864.939	-30.04
865.113	113.32
865.287	70.31
865.461	41.64
865.634	-30.04
865.808	2.73
865.982	21.16
866.156	-42.32
866.329	92.84
866.503	-27.99
866.676	35.5
866.85	35.5
867.024	29.35
867.197	31.4
867.371	4.78
867.544	27.31
867.718	84.65
867.891	41.64
868.065	23.21
868.238	-91.48
868.412	43.69
868.585	33.45
868.759	45.74
868.932	-30.04
869.105	2.73
869.279	4.78
869.452	10.92
869.625	64.17
869.799	92.84
869.972	-48.47
870.145	49.83
870.319	35.5
870.492	-27.99
870.665	35.5
870.838	15.02
871.011	-21.85
871.185	111.27
871.358	76.46
871.531	117.42
871.704	-27.99
871.877	15.02
872.05	6.83
872.223	60.07
872.396	-3.41
872.569	37.55
872.742	-17.75
872.915	47.79
873.088	15.02
873.261	-13.65
873.434	-1.37
873.607	-21.85
873.78	23.21
873.953	12.97
874.126	4.78
874.299	43.69
874.471	43.69
874.644	10.92
874.817	25.26
874.99	60.07
875.163	-3.41
875.335	-5.46
875.508	47.79
875.681	45.74
875.853	29.35
876.026	37.55
876.199	115.37
876.371	60.07
876.544	60.07
876.717	-9.56
876.889	10.92
877.062	2.73
877.234	-1.37
877.407	60.07
877.579	35.5
877.752	51.88
877.924	103.08
878.097	29.35
878.269	47.79
878.442	31.4
878.614	19.11
878.786	10.92
878.959	117.42
879.131	-7.51
879.303	-38.23
879.476	21.16
879.648	78.51
879.82	12.97
879.993	-5.46
880.165	80.55
880.337	55.98
880.509	-13.65
880.681	31.4
880.854	80.55
881.026	68.27
881.198	43.69
881.37	-17.75
881.542	19.11
881.714	37.55
881.886	6.83
882.058	23.21
882.23	88.75
882.402	2.73
882.574	-27.99
882.746	70.31
882.918	88.75
883.09	-11.61
883.262	-68.95
883.434	-5.46
883.606	-11.61
883.778	-30.04
883.95	72.36
884.122	-11.61
884.293	72.36
884.465	31.4
884.637	4.78
884.809	-25.94
884.98	101.03
885.152	27.31
885.324	2.73
885.496	-75.09
885.667	29.35
885.839	-34.13
886.011	74.41
886.182	60.07
886.354	35.5
886.525	31.4
886.697	8.87
886.869	-30.04
887.04	15.02
887.212	23.21
887.383	92.84
887.555	-9.56
887.726	-9.56
887.897	29.35
888.069	66.22
888.24	21.16
888.412	21.16
888.583	19.11
888.754	41.64
888.926	43.69
889.097	-7.51
889.268	-34.13
889.44	-5.46
889.611	15.02
889.782	17.07
889.953	55.98
890.125	92.84
890.296	-5.46
890.467	15.02
890.638	10.92
890.809	-44.37
890.98	-36.18
891.151	-36.18
891.323	-21.85
891.494	45.74
891.665	37.55
891.836	-17.75
892.007	31.4
892.178	55.98
892.349	2.73
892.52	78.51
892.691	-5.46
892.862	19.11
893.032	19.11
893.203	64.17
893.374	4.78
893.545	35.5
893.716	-46.42
893.887	94.89
894.057	19.11
894.228	-38.23
894.399	-30.04
894.57	62.12
894.74	37.55
894.911	29.35
895.082	6.83
895.253	10.92
895.423	17.07
895.594	39.59
895.764	6.83
895.935	-17.75
896.106	-21.85
896.276	-27.99
896.447	23.21
896.617	68.27
896.788	49.83
896.958	-5.46
897.129	-11.61
897.299	21.16
897.47	47.79
897.64	96.94
897.81	23.21
897.981	-5.46
898.151	35.5
898.322	68.27
898.492	-62.8
898.662	17.07
898.832	17.07
899.003	-13.65
899.173	86.7
899.343	96.94
899.513	-5.46
