Data from USB4F104151__292__14-46-28-893.txt Node

Date: Thu Mar 13 14:46:28 EDT 2025
User: louis
Spectrometer: USB4F10415
Trigger mode: 4
Integration Time (sec): 2.000000E-2
Scans to average: 1
Electric dark correction enabled: true
Nonlinearity correction enabled: false
Boxcar width: 0
XAxis mode: Wavelengths
Number of Pixels in Spectrum: 3648
>>>>>Begin Spectral Data<<<<<
178.204	-165.54
178.424	-165.54
178.644	-165.54
178.864	-97.96
179.084	-165.54
179.304	8.53
179.524	8.53
179.744	-73.39
179.964	43.35
180.184	24.92
180.404	-36.52
180.624	-20.14
180.844	6.49
181.064	-26.28
181.283	14.68
181.503	-36.52
181.723	86.36
181.943	18.77
182.163	41.3
182.383	26.96
182.602	-3.75
182.822	26.96
183.042	-81.58
183.262	43.35
183.482	45.4
183.701	-5.8
183.921	26.96
184.141	-22.19
184.361	112.98
184.58	10.58
184.8	-1.71
185.02	8.53
185.239	22.87
185.459	-1.71
185.679	14.68
185.898	-20.14
186.118	-30.38
186.338	49.49
186.557	10.58
186.777	-34.47
186.997	65.88
187.216	-16.04
187.436	8.53
187.655	-5.8
187.875	65.88
188.095	72.02
188.314	41.3
188.534	47.44
188.753	53.59
188.973	18.77
189.192	18.77
189.412	39.25
189.631	55.64
189.851	24.92
190.07	43.35
190.29	-32.43
190.509	18.77
190.729	-11.95
190.948	-1.71
191.168	82.26
191.387	69.97
191.607	0.34
191.826	-87.72
192.045	0.34
192.265	-16.04
192.484	-5.8
192.704	-7.85
192.923	-22.19
193.142	16.73
193.362	33.11
193.581	76.12
193.8	57.68
194.02	10.58
194.239	74.07
194.458	-3.75
194.678	-65.19
194.897	26.96
195.116	22.87
195.335	-9.9
195.555	43.35
195.774	-26.28
195.993	35.16
196.212	14.68
196.432	-5.8
196.651	37.2
196.87	-22.19
197.089	39.25
197.308	47.44
197.528	43.35
197.747	2.39
197.966	-34.47
198.185	14.68
198.404	18.77
198.623	-30.38
198.842	10.58
199.062	29.01
199.281	35.16
199.5	-38.57
199.719	108.88
199.938	-42.67
200.157	-1.71
200.376	2.39
200.595	55.64
200.814	43.35
201.033	-7.85
201.252	39.25
201.471	2.39
201.69	57.68
201.909	-24.23
202.128	63.83
202.347	14.68
202.566	-1.71
202.785	-26.28
203.004	18.77
203.223	61.78
203.442	35.16
203.661	26.96
203.879	57.68
204.098	41.3
204.317	67.92
204.536	63.83
204.755	57.68
204.974	-44.71
205.193	55.64
205.411	141.65
205.63	-34.47
205.849	63.83
206.068	-16.04
206.287	-16.04
206.505	43.35
206.724	-32.43
206.943	-5.8
207.162	14.68
207.381	74.07
207.599	33.11
207.818	96.6
208.037	-9.9
208.255	55.64
208.474	31.06
208.693	49.49
208.911	14.68
209.13	31.06
209.349	63.83
209.567	-18.09
209.786	-1.71
210.005	41.3
210.223	61.78
210.442	14.68
210.661	110.93
210.879	-89.77
211.098	72.02
211.316	14.68
211.535	51.54
211.753	-22.19
211.972	57.68
212.191	-42.67
212.409	63.83
212.628	14.68
212.846	24.92
213.065	61.78
213.283	57.68
213.502	-36.52
213.72	-1.71
213.938	10.58
214.157	24.92
214.375	86.36
214.594	-18.09
214.812	16.73
215.031	35.16
215.249	-34.47
215.467	45.4
215.686	-46.76
215.904	-13.99
216.122	63.83
216.341	10.58
216.559	43.35
216.778	72.02
216.996	51.54
217.214	57.68
217.432	-1.71
217.651	-9.9
217.869	47.44
218.087	-26.28
218.306	-34.47
218.524	26.96
218.742	26.96
218.96	0.34
219.179	22.87
219.397	22.87
219.615	-1.71
219.833	86.36
220.051	-34.47
220.27	53.59
220.488	-1.71
220.706	39.25
220.924	-34.47
221.142	-40.62
221.36	51.54
221.578	92.5
221.796	22.87
222.015	-1.71
222.233	26.96
222.451	51.54
222.669	-28.33
222.887	-1.71
223.105	-13.99
223.323	26.96
223.541	-59.05
223.759	47.44
223.977	-1.71
224.195	20.82
224.413	88.4
224.631	8.53
224.849	-1.71
225.067	10.58
225.285	31.06
225.503	67.92
225.721	-9.9
225.939	96.6
226.157	-65.19
226.375	129.36
226.592	18.77
226.81	63.83
227.028	102.74
227.246	2.39
227.464	39.25
227.682	14.68
227.9	-22.19
228.117	55.64
228.335	2.39
228.553	67.92
228.771	-7.85
228.989	-26.28
229.206	59.73
229.424	6.49
229.642	-11.95
229.86	-13.99
230.077	72.02
230.295	16.73
230.513	12.63
230.731	94.55
230.948	49.49
231.166	22.87
231.384	-26.28
231.601	-57
231.819	-7.85
232.037	49.49
232.254	-95.91
232.472	16.73
232.689	-34.47
232.907	31.06
233.125	2.39
233.342	96.6
233.56	-46.76
233.777	18.77
233.995	22.87
234.213	80.21
234.43	14.68
234.648	16.73
234.865	72.02
235.083	-24.23
235.3	57.68
235.518	24.92
235.735	57.68
235.953	63.83
236.17	-48.81
236.388	-34.47
236.605	41.3
236.822	-30.38
237.04	-46.76
237.257	47.44
237.475	6.49
237.692	63.83
237.909	10.58
238.127	26.96
238.344	0.34
238.562	49.49
238.779	-1.71
238.996	-5.8
239.214	-24.23
239.431	115.03
239.648	-22.19
239.865	22.87
240.083	31.06
240.3	8.53
240.517	6.49
240.735	6.49
240.952	94.55
241.169	31.06
241.386	22.87
241.603	49.49
241.821	10.58
242.038	43.35
242.255	104.79
242.472	14.68
242.689	80.21
242.907	-3.75
243.124	47.44
243.341	37.2
243.558	47.44
243.775	-7.85
243.992	-36.52
244.209	69.97
244.426	49.49
244.643	-54.95
244.86	31.06
245.078	24.92
245.295	-18.09
245.512	57.68
245.729	24.92
245.946	-5.8
246.163	55.64
246.38	18.77
246.597	-26.28
246.814	39.25
247.031	-26.28
247.248	16.73
247.464	72.02
247.681	24.92
247.898	74.07
248.115	39.25
248.332	-59.05
248.549	49.49
248.766	59.73
248.983	63.83
249.2	88.4
249.417	49.49
249.633	-36.52
249.85	-24.23
250.067	-57
250.284	24.92
250.501	-34.47
250.717	2.39
250.934	-16.04
251.151	8.53
251.368	29.01
251.585	6.49
251.801	33.11
252.018	-71.34
252.235	-24.23
252.451	-42.67
252.668	31.06
252.885	59.73
253.102	-54.95
253.318	-7.85
253.535	22.87
253.752	4.44
253.968	49.49
254.185	-24.23
254.401	10.58
254.618	63.83
254.835	2.39
255.051	16.73
255.268	-9.9
255.484	14.68
255.701	24.92
255.917	55.64
256.134	-24.23
256.351	55.64
256.567	-67.24
256.784	31.06
257	-50.86
257.217	14.68
257.433	14.68
257.65	-42.67
257.866	6.49
258.082	14.68
258.299	-13.99
258.515	51.54
258.732	22.87
258.948	18.77
259.165	16.73
259.381	-20.14
259.597	26.96
259.814	39.25
260.03	-18.09
260.246	-52.91
260.463	8.53
260.679	-20.14
260.895	16.73
261.112	33.11
261.328	24.92
261.544	10.58
261.761	14.68
261.977	-50.86
262.193	-75.43
262.409	14.68
262.626	31.06
262.842	-1.71
263.058	-22.19
263.274	49.49
263.49	39.25
263.707	69.97
263.923	57.68
264.139	-65.19
264.355	-16.04
264.571	102.74
264.787	8.53
265.004	-1.71
265.22	57.68
265.436	26.96
265.652	8.53
265.868	22.87
266.084	-38.57
266.3	8.53
266.516	6.49
266.732	22.87
266.948	-3.75
267.164	90.45
267.38	8.53
267.596	41.3
267.812	90.45
268.028	-18.09
268.244	108.88
268.46	63.83
268.676	31.06
268.892	39.25
269.108	-9.9
269.324	-30.38
269.54	43.35
269.756	31.06
269.972	-106.15
270.188	-42.67
270.403	39.25
270.619	55.64
270.835	63.83
271.051	22.87
271.267	2.39
271.483	-65.19
271.698	76.12
271.914	-18.09
272.13	-20.14
272.346	6.49
272.562	-54.95
272.777	-7.85
272.993	26.96
273.209	16.73
273.425	41.3
273.64	47.44
273.856	59.73
274.072	37.2
274.287	41.3
274.503	6.49
274.719	-22.19
274.934	-22.19
275.15	-24.23
275.366	41.3
275.581	-42.67
275.797	55.64
276.012	10.58
276.228	31.06
276.444	35.16
276.659	14.68
276.875	-57
277.09	55.64
277.306	29.01
277.521	43.35
277.737	49.49
277.952	76.12
278.168	-34.47
278.383	-46.76
278.599	88.4
278.814	18.77
279.03	57.68
279.245	88.4
279.461	-11.95
279.676	-5.8
279.892	-48.81
280.107	-32.43
280.322	22.87
280.538	106.84
280.753	-18.09
280.969	31.06
281.184	-9.9
281.399	-42.67
281.615	33.11
281.83	-11.95
282.045	8.53
282.26	6.49
282.476	-32.43
282.691	33.11
282.906	-13.99
283.122	82.26
283.337	14.68
283.552	10.58
283.767	-13.99
283.983	72.02
284.198	-73.39
284.413	-40.62
284.628	-16.04
284.843	6.49
285.058	16.73
285.274	61.78
285.489	6.49
285.704	121.17
285.919	-1.71
286.134	-54.95
286.349	6.49
286.564	24.92
286.779	33.11
286.995	31.06
287.21	-18.09
287.425	33.11
287.64	8.53
287.855	-9.9
288.07	-93.87
288.285	-32.43
288.5	43.35
288.715	43.35
288.93	-18.09
289.145	35.16
289.36	45.4
289.575	-32.43
289.79	-9.9
290.004	4.44
290.219	72.02
290.434	33.11
290.649	-5.8
290.864	-75.43
291.079	-59.05
291.294	-34.47
291.509	2.39
291.724	18.77
291.938	-1.71
292.153	-34.47
292.368	-32.43
292.583	-1.71
292.798	22.87
293.012	20.82
293.227	31.06
293.442	22.87
293.657	55.64
293.871	2.39
294.086	61.78
294.301	67.92
294.516	67.92
294.73	8.53
294.945	-48.81
295.16	-28.33
295.374	14.68
295.589	4.44
295.804	80.21
296.018	-16.04
296.233	104.79
296.447	-20.14
296.662	-18.09
296.877	24.92
297.091	-1.71
297.306	-7.85
297.52	-1.71
297.735	14.68
297.949	63.83
298.164	39.25
298.378	18.77
298.593	20.82
298.807	69.97
299.022	57.68
299.236	80.21
299.451	-16.04
299.665	22.87
299.88	-65.19
300.094	-30.38
300.309	-7.85
300.523	-32.43
300.737	-24.23
300.952	4.44
301.166	-1.71
301.381	2.39
301.595	-9.9
301.809	8.53
302.024	-30.38
302.238	-16.04
302.452	26.96
302.667	-7.85
302.881	16.73
303.095	10.58
303.309	-54.95
303.524	20.82
303.738	31.06
303.952	-11.95
304.166	22.87
304.381	-63.15
304.595	82.26
304.809	55.64
305.023	55.64
305.237	0.34
305.452	35.16
305.666	104.79
305.88	98.64
306.094	-67.24
306.308	47.44
306.522	29.01
306.736	41.3
306.95	-40.62
307.164	-9.9
307.379	22.87
307.593	-1.71
307.807	43.35
308.021	47.44
308.235	-30.38
308.449	-50.86
308.663	45.4
308.877	74.07
309.091	-50.86
309.305	2.39
309.519	-1.71
309.733	33.11
309.947	-50.86
310.161	-71.34
310.374	39.25
310.588	4.44
310.802	0.34
311.016	22.87
311.23	-34.47
311.444	-9.9
311.658	14.68
311.872	74.07
312.085	74.07
312.299	24.92
312.513	88.4
312.727	67.92
312.941	-13.99
313.154	49.49
313.368	10.58
313.582	-22.19
313.796	0.34
314.009	14.68
314.223	26.96
314.437	-34.47
314.651	10.58
314.864	-42.67
315.078	-50.86
315.292	-1.71
315.505	41.3
315.719	14.68
315.933	55.64
316.146	55.64
316.36	-18.09
316.573	84.31
316.787	84.31
317.001	39.25
317.214	-11.95
317.428	72.02
317.641	69.97
317.855	31.06
318.068	59.73
318.282	24.92
318.495	94.55
318.709	0.34
318.922	-5.8
319.136	39.25
319.349	-5.8
319.563	57.68
319.776	31.06
319.99	-7.85
320.203	-1.71
320.417	-18.09
320.63	96.6
320.843	90.45
321.057	33.11
321.27	-9.9
321.483	-18.09
321.697	22.87
321.91	6.49
322.124	72.02
322.337	39.25
322.55	10.58
322.763	10.58
322.977	-5.8
323.19	-75.43
323.403	-7.85
323.617	10.58
323.83	47.44
324.043	22.87
324.256	14.68
324.469	-67.24
324.683	106.84
324.896	0.34
325.109	-1.71
325.322	-71.34
325.535	4.44
325.748	33.11
325.962	-22.19
326.175	43.35
326.388	-16.04
326.601	67.92
326.814	31.06
327.027	57.68
327.24	63.83
327.453	22.87
327.666	-1.71
327.879	-1.71
328.092	43.35
328.305	-24.23
328.518	14.68
328.731	31.06
328.944	55.64
329.157	24.92
329.37	14.68
329.583	67.92
329.796	76.12
330.009	-18.09
330.222	39.25
330.435	74.07
330.648	-30.38
330.861	-24.23
331.073	80.21
331.286	57.68
331.499	6.49
331.712	22.87
331.925	78.16
332.138	82.26
332.35	72.02
332.563	-73.39
332.776	0.34
332.989	55.64
333.202	69.97
333.414	-11.95
333.627	-26.28
333.84	-36.52
334.053	-18.09
334.265	35.16
334.478	22.87
334.691	10.58
334.903	35.16
335.116	-22.19
335.329	37.2
335.541	104.79
335.754	6.49
335.966	39.25
336.179	26.96
336.392	-40.62
336.604	-20.14
336.817	94.55
337.029	-9.9
337.242	63.83
337.454	37.2
337.667	20.82
337.88	72.02
338.092	24.92
338.305	29.01
338.517	6.49
338.729	43.35
338.942	-13.99
339.154	31.06
339.367	2.39
339.579	112.98
339.792	-46.76
340.004	55.64
340.217	-34.47
340.429	80.21
340.641	-44.71
340.854	14.68
341.066	-22.19
341.278	53.59
341.491	31.06
341.703	65.88
341.915	-24.23
342.128	41.3
342.34	-9.9
342.552	57.68
342.764	33.11
342.977	45.4
343.189	-44.71
343.401	31.06
343.613	14.68
343.826	-1.71
344.038	-13.99
344.25	22.87
344.462	22.87
344.674	26.96
344.886	41.3
345.099	61.78
345.311	24.92
345.523	-5.8
345.735	43.35
345.947	67.92
346.159	-5.8
346.371	29.01
346.583	-9.9
346.795	72.02
347.007	18.77
347.219	18.77
347.431	51.54
347.643	35.16
347.855	6.49
348.067	31.06
348.279	-46.76
348.491	33.11
348.703	72.02
348.915	-26.28
349.127	6.49
349.339	-16.04
349.551	-40.62
349.763	0.34
349.975	51.54
350.187	55.64
350.399	49.49
350.61	129.36
350.822	33.11
351.034	80.21
351.246	8.53
351.458	24.92
351.669	35.16
351.881	121.17
352.093	22.87
352.305	35.16
352.517	20.82
352.728	39.25
352.94	-97.96
353.152	43.35
353.363	-110.25
353.575	6.49
353.787	82.26
353.999	33.11
354.21	8.53
354.422	10.58
354.633	-1.71
354.845	72.02
355.057	-26.28
355.268	31.06
355.48	63.83
355.692	43.35
355.903	-9.9
356.115	24.92
356.326	-7.85
356.538	104.79
356.749	24.92
356.961	-5.8
357.172	-18.09
357.384	22.87
357.595	51.54
357.807	39.25
358.018	18.77
358.23	33.11
358.441	106.84
358.653	33.11
358.864	20.82
359.075	39.25
359.287	-18.09
359.498	-5.8
359.709	6.49
359.921	41.3
360.132	-16.04
360.344	65.88
360.555	-46.76
360.766	47.44
360.977	33.11
361.189	16.73
361.4	51.54
361.611	-3.75
361.823	22.87
362.034	72.02
362.245	10.58
362.456	43.35
362.667	10.58
362.879	72.02
363.09	63.83
363.301	65.88
363.512	16.73
363.723	-46.76
363.935	-30.38
364.146	0.34
364.357	74.07
364.568	117.08
364.779	-5.8
364.99	53.59
365.201	10.58
365.412	14.68
365.623	14.68
365.834	35.16
366.045	-13.99
366.256	108.88
366.467	41.3
366.678	26.96
366.889	-30.38
367.1	43.35
367.311	18.77
367.522	31.06
367.733	65.88
367.944	63.83
368.155	8.53
368.366	57.68
368.577	16.73
368.788	110.93
368.999	-40.62
369.209	0.34
369.42	98.64
369.631	22.87
369.842	47.44
370.053	-67.24
370.264	29.01
370.474	-34.47
370.685	-26.28
370.896	39.25
371.107	51.54
371.317	49.49
371.528	35.16
371.739	26.96
371.95	67.92
372.16	51.54
372.371	18.77
372.582	55.64
372.792	117.08
373.003	78.16
373.214	39.25
373.424	2.39
373.635	6.49
373.846	0.34
374.056	6.49
374.267	18.77
374.477	100.69
374.688	6.49
374.898	6.49
375.109	18.77
375.319	24.92
375.53	-28.33
375.74	51.54
375.951	-9.9
376.161	55.64
376.372	141.65
376.582	-1.71
376.793	41.3
377.003	14.68
377.214	-5.8
377.424	14.68
377.635	47.44
377.845	12.63
378.055	39.25
378.266	0.34
378.476	2.39
378.686	39.25
378.897	84.31
379.107	2.39
379.317	0.34
379.528	-13.99
379.738	43.35
379.948	22.87
380.158	39.25
380.369	14.68
380.579	-24.23
380.789	49.49
380.999	6.49
381.21	72.02
381.42	117.08
381.63	-9.9
381.84	31.06
382.05	22.87
382.261	39.25
382.471	31.06
382.681	14.68
382.891	63.83
383.101	39.25
383.311	-16.04
383.521	-7.85
383.731	43.35
383.941	57.68
384.151	2.39
384.361	12.63
384.571	14.68
384.781	61.78
384.991	43.35
385.201	117.08
385.411	-20.14
385.621	88.4
385.831	8.53
386.041	55.64
386.251	-71.34
386.461	22.87
386.671	41.3
386.881	74.07
387.091	8.53
387.301	51.54
387.511	-16.04
387.72	35.16
387.93	57.68
388.14	8.53
388.35	-1.71
388.56	35.16
388.769	-34.47
388.979	59.73
389.189	-16.04
389.399	39.25
389.609	26.96
389.818	96.6
390.028	14.68
390.238	20.82
390.447	-1.71
390.657	-7.85
390.867	22.87
391.076	10.58
391.286	10.58
391.496	65.88
391.705	59.73
391.915	57.68
392.125	74.07
392.334	74.07
392.544	65.88
392.753	-18.09
392.963	33.11
393.172	63.83
393.382	-34.47
393.591	76.12
393.801	14.68
394.01	82.26
394.22	59.73
394.429	47.44
394.639	-63.15
394.848	90.45
395.058	8.53
395.267	61.78
395.477	100.69
395.686	33.11
395.895	65.88
396.105	16.73
396.314	-9.9
396.524	14.68
396.733	-18.09
396.942	67.92
397.152	26.96
397.361	78.16
397.57	2.39
397.78	20.82
397.989	41.3
398.198	121.17
398.407	8.53
398.617	84.31
398.826	41.3
399.035	88.4
399.244	72.02
399.453	31.06
399.663	65.88
399.872	121.17
400.081	57.68
400.29	76.12
400.499	-1.71
400.708	88.4
400.917	-1.71
401.127	90.45
401.336	-7.85
401.545	55.64
401.754	84.31
401.963	106.84
402.172	100.69
402.381	26.96
402.59	74.07
402.799	41.3
403.008	98.64
403.217	129.36
403.426	129.36
403.635	35.16
403.844	129.36
404.053	35.16
404.262	14.68
404.471	168.27
404.68	72.02
404.888	6.49
405.097	31.06
405.306	86.36
405.515	67.92
405.724	80.21
405.933	121.17
406.142	125.27
406.35	121.17
406.559	24.92
406.768	104.79
406.977	198.99
407.185	123.22
407.394	117.08
407.603	67.92
407.812	53.59
408.02	139.6
408.229	186.71
408.438	82.26
408.646	96.6
408.855	166.23
409.064	76.12
409.272	121.17
409.481	147.8
409.69	104.79
409.898	188.75
410.107	166.23
410.315	166.23
410.524	129.36
410.733	198.99
410.941	244.05
411.15	153.94
411.358	178.51
411.567	211.28
411.775	180.56
411.984	219.47
412.192	260.43
412.401	237.91
412.609	276.82
412.818	301.39
413.026	285.01
413.234	246.1
413.443	309.58
413.651	235.86
413.86	237.91
414.068	295.25
414.276	336.21
414.485	282.96
414.693	295.25
414.901	323.92
415.11	325.97
415.318	393.55
415.526	366.93
415.734	424.27
415.943	346.45
416.151	399.7
416.359	342.35
416.567	393.55
416.776	467.28
416.984	508.24
417.192	475.47
417.4	522.57
417.608	516.43
417.817	500.05
418.025	573.77
418.233	641.36
418.441	473.42
418.649	538.96
418.857	596.3
419.065	653.64
419.273	631.12
419.481	645.45
419.689	756.04
419.897	827.72
420.105	747.85
420.313	729.42
420.521	729.42
420.729	794.95
420.937	860.49
421.145	876.87
421.353	975.17
421.561	1026.37
421.769	1038.66
421.977	938.31
422.185	950.6
422.393	1030.47
422.601	1161.54
422.809	1063.24
423.017	1169.73
423.224	1177.92
423.432	1161.54
423.64	1182.02
423.848	1392.96
424.056	1374.53
424.263	1515.84
424.471	1327.43
424.679	1440.06
424.887	1605.95
425.094	1630.52
425.302	1556.8
425.51	1622.33
425.718	1524.03
425.925	1694.01
426.133	1761.59
426.341	1859.9
426.548	1886.52
426.756	1917.24
426.964	1972.54
427.171	1970.49
427.379	2122.04
427.586	2222.39
427.794	2191.67
428.001	2167.09
428.209	2570.54
428.417	2433.33
428.624	2568.49
428.832	2511.15
429.039	2431.28
429.247	2535.73
429.454	2750.76
429.662	2894.12
429.869	2750.76
430.076	2801.96
430.284	2873.64
430.491	2969.9
430.699	3184.93
430.906	3266.85
431.114	3141.93
431.321	3397.92
431.528	3258.66
431.736	3447.07
431.943	3840.28
432.15	3664.16
432.358	3721.5
432.565	3817.76
432.772	3827.99
432.979	3940.63
433.187	4184.34
433.394	3981.59
433.601	4495.63
433.808	4442.39
434.016	4358.42
434.223	4528.4
434.43	4872.46
434.637	4708.62
434.844	5122.31
435.052	5175.56
435.259	5118.22
435.466	5370.12
435.673	5169.41
435.88	5523.71
436.087	5775.61
436.294	5765.37
436.501	5601.54
436.708	5789.95
436.915	6031.61
437.122	6287.61
437.329	6338.8
437.537	6416.63
437.743	6461.68
437.95	6299.89
438.157	6748.4
438.364	6891.76
438.571	6887.66
438.778	6949.1
438.985	7756
439.192	7323.88
439.399	7629.02
439.606	7395.56
439.813	7882.97
440.02	8202.46
440.227	8075.48
440.433	7999.71
440.64	8145.11
440.847	8290.52
441.054	8394.97
441.261	8870.09
441.467	8986.83
441.674	9029.84
441.881	9554.12
442.088	9556.16
442.294	9511.11
442.501	9545.92
442.708	9744.58
442.914	9976
443.121	10330.3
443.328	10303.67
443.534	11057.32
443.741	10614.96
443.948	10496.18
444.154	11278.51
444.361	11077.8
444.568	11253.93
444.774	11210.92
444.981	11294.89
445.187	11696.29
445.394	12396.7
445.6	11970.72
445.807	13236.36
446.013	12660.88
446.22	13041.81
446.426	13545.61
446.633	13518.98
446.839	14004.35
447.046	13494.41
447.252	14157.95
447.459	14289.02
447.665	14071.93
447.871	14704.76
448.078	15251.56
448.284	14723.19
448.491	15190.13
448.697	15636.58
448.903	15812.71
449.11	16103.52
449.316	15902.82
449.522	15812.71
449.728	16601.18
449.935	16754.77
450.141	16844.88
450.347	17217.61
450.553	16402.52
450.76	16693.33
450.966	17311.82
451.172	17057.87
451.378	17301.58
451.584	17225.81
451.791	17752.13
451.997	17567.82
452.203	18034.75
452.409	17655.88
452.615	17784.9
452.821	17037.39
453.027	16961.62
453.233	18071.62
453.44	17336.4
453.646	17184.85
453.852	17438.8
454.058	17825.86
454.264	17279.05
454.47	17528.91
454.676	16910.42
454.882	17848.39
455.088	16091.23
455.294	16406.62
455.5	16787.54
455.705	16961.62
455.911	16224.35
456.117	16099.42
456.323	15775.84
456.529	14747.76
456.735	15874.15
456.941	15304.81
457.147	14989.42
457.352	14846.07
457.558	14450.81
457.764	14334.07
457.97	14278.78
458.176	13920.38
458.381	13969.54
458.587	13228.17
458.793	13197.45
458.999	12468.38
459.204	13518.98
459.41	13097.1
459.616	12191.9
459.821	12355.74
460.027	11999.39
460.233	12052.64
460.438	11495.59
460.644	11659.43
460.85	10926.25
461.055	10850.48
461.261	10590.39
461.466	10027.2
461.672	9597.12
461.878	10266.81
462.083	9748.67
462.289	9482.44
462.494	9408.71
462.7	8999.12
462.905	8782.03
463.111	9025.74
463.316	9105.61
463.522	9050.32
463.727	8906.96
463.932	8886.48
464.138	8880.33
464.343	8927.44
464.549	8583.38
464.754	8939.72
464.959	8861.9
465.165	8657.11
465.37	8382.68
465.575	8251.61
465.781	8573.14
465.986	8454.36
466.191	8272.09
466.397	7964.89
466.602	7706.85
466.807	7971.04
467.012	8067.29
467.218	7676.13
467.423	7739.62
467.628	7661.79
467.833	8147.16
468.038	7913.69
468.244	7743.71
468.449	8098.01
468.654	7751.9
468.859	7700.7
469.064	7667.94
469.269	7350.5
469.474	7457
469.679	7399.65
469.885	7342.31
470.09	7223.53
470.295	7434.47
470.5	7106.79
470.705	7293.16
470.91	6912.24
471.115	7121.13
471.32	7155.94
471.525	7123.18
471.73	7016.68
471.935	6938.86
472.139	6797.55
472.344	6748.4
472.549	6662.38
472.754	6625.52
472.959	6484.21
473.164	6322.42
473.369	6248.69
473.574	6428.92
473.778	6215.93
473.983	6400.24
474.188	6383.86
474.393	5966.07
474.598	6082.81
474.802	6031.61
475.007	5959.93
475.212	6158.58
475.417	5710.08
475.621	5753.09
475.826	5853.44
476.031	5658.88
476.235	5609.73
476.44	5644.54
476.645	5581.06
476.849	5724.41
477.054	5400.83
477.259	5562.62
477.463	5368.07
477.668	5286.15
477.872	5497.09
478.077	5292.29
478.282	5155.08
478.486	5046.54
478.691	5062.92
478.895	4987.15
479.1	4972.81
479.304	5087.5
479.509	4833.55
479.713	5126.41
479.918	4866.32
480.122	4798.73
480.326	4892.94
480.531	4802.83
480.735	4702.48
480.94	4655.37
481.144	4921.61
481.348	4790.54
481.553	4784.4
481.757	4618.51
481.961	4677.9
482.166	4858.12
482.37	4626.7
482.574	4626.7
482.778	4729.1
482.983	4739.34
483.187	4653.33
483.391	4774.16
483.595	4739.34
483.8	4645.13
484.004	4636.94
484.208	4610.32
484.412	4462.87
484.616	4776.2
484.821	4790.54
485.025	4524.3
485.229	4727.05
485.433	4577.55
485.637	4669.71
485.841	4593.94
486.045	4657.42
486.249	4661.52
486.453	4569.36
486.657	4641.04
486.861	4741.39
487.065	4542.74
487.269	4638.99
487.473	4630.8
487.677	4555.02
487.881	4755.72
488.085	4559.12
488.289	4663.57
488.493	4661.52
488.697	4700.43
488.901	4716.81
489.105	4671.76
489.309	4714.77
489.512	4585.74
489.716	4684.05
489.92	4712.72
490.124	4835.6
490.328	4702.48
490.531	4649.23
490.735	4727.05
490.939	4800.78
491.143	4743.44
491.346	4770.06
491.55	5077.26
491.754	4862.22
491.958	4999.43
492.161	4776.2
492.365	5052.68
492.569	4841.74
492.772	4833.55
492.976	4950.28
493.18	4888.84
493.383	5138.69
493.587	5060.87
493.79	5140.74
493.994	5136.65
494.197	4999.43
494.401	5146.89
494.605	5298.44
494.808	5349.64
495.012	5271.81
495.215	5376.26
495.419	5300.48
495.622	5368.07
495.825	5454.08
496.029	5331.2
496.232	5654.78
496.436	5552.38
496.639	5634.3
496.843	5597.44
497.046	5740.8
497.249	5769.47
497.453	5865.72
497.656	5732.61
497.859	5933.31
498.063	6035.71
498.266	6054.14
498.469	6103.29
498.673	6097.14
498.876	6181.11
499.079	6344.95
499.282	6285.56
499.485	6471.92
499.689	6465.78
499.892	6473.97
500.095	6723.82
500.298	6799.6
500.501	6815.98
500.705	6715.63
500.908	6865.13
501.111	6838.51
501.314	7014.63
501.517	7053.55
501.72	7354.6
501.923	7112.94
502.126	7446.76
502.329	7545.06
502.532	7715.04
502.735	7588.07
502.938	7872.73
503.141	7610.59
503.344	7854.3
503.547	7831.77
503.75	8030.43
503.953	8161.5
504.156	8315.09
504.359	8169.69
504.562	8308.95
504.765	8440.02
504.968	8599.76
505.17	8642.77
505.373	8483.03
505.576	9038.03
505.779	9033.93
505.982	8960.2
506.185	9218.25
506.387	9384.13
506.59	9232.58
506.793	9652.42
506.996	9595.07
507.198	9754.82
507.401	9754.82
507.604	9865.41
507.807	10160.31
508.009	10010.81
508.212	10307.77
508.415	10358.97
508.617	10330.3
508.82	10717.36
509.022	10551.48
509.225	10617.01
509.428	10877.1
509.63	10997.93
509.833	11053.23
510.035	11319.46
510.238	11253.93
510.44	11311.27
510.643	11499.69
510.845	11634.85
511.048	11491.49
511.25	11913.38
511.453	11770.02
511.655	12183.71
511.858	12210.33
512.06	12368.02
512.262	12480.66
512.465	12337.31
512.667	12617.88
512.87	12796.05
513.072	12986.51
513.274	13162.64
513.477	13117.58
513.679	13297.8
513.881	13564.04
514.084	13709.44
514.286	13637.77
514.488	13820.03
514.69	14418.04
514.893	14194.81
515.095	14311.55
515.297	14733.43
515.499	14440.57
515.701	14649.46
515.904	15073.39
516.106	14868.59
516.308	15278.19
516.51	15482.99
516.712	15356.01
516.914	15669.35
517.116	15632.49
517.318	15784.04
517.52	15898.72
517.722	15956.07
517.925	16353.37
518.127	16699.48
518.329	16599.13
518.531	16588.89
518.733	16803.92
518.935	17131.6
519.136	17068.11
519.338	17438.8
519.54	17422.41
519.742	17651.78
519.944	17729.61
520.146	17977.41
520.348	18071.62
520.55	18325.57
520.752	18253.89
520.954	18534.46
521.155	18546.75
521.357	18806.84
521.559	19200.05
521.761	19574.83
521.963	19302.45
522.164	19423.28
522.366	19763.24
522.568	19611.69
522.77	19775.53
522.971	20019.24
523.173	19859.49
523.375	20217.89
523.576	20113.44
523.778	20326.43
523.98	20643.87
524.181	20756.5
524.383	21055.51
524.584	20985.88
524.786	20928.53
524.988	21069.84
525.189	21370.9
525.391	21772.3
525.592	21585.93
525.794	21964.81
525.995	21886.98
526.197	21839.88
526.398	22145.03
526.6	22065.16
526.801	22427.65
527.003	22673.4
527.204	22460.41
527.406	22849.53
527.607	22675.45
527.808	22734.84
528.01	22611.96
528.211	22642.68
528.412	23259.12
528.614	23230.45
528.815	22943.74
529.016	23396.34
529.218	23130.1
529.419	23244.79
529.62	23259.12
529.822	23029.75
530.023	23140.34
530.224	23269.36
530.425	23531.5
530.626	23457.78
530.828	23291.89
531.029	23881.7
531.23	23572.46
531.431	23570.41
531.632	23820.27
531.833	23990.25
532.035	23787.5
532.236	23934.95
532.437	23699.44
532.638	23721.96
532.839	23947.24
533.04	24190.95
533.241	24291.3
533.442	24281.06
533.643	23947.24
533.844	24293.35
534.045	24176.61
534.246	23893.99
534.447	24432.61
534.648	24002.54
534.849	24143.84
535.05	23916.52
535.251	24248.29
535.451	24242.15
535.652	24205.28
535.853	24072.17
536.054	24102.89
536.255	24219.62
536.456	24115.17
536.657	24780.76
536.857	24444.9
537.058	24242.15
537.259	24686.56
537.46	24336.35
537.66	24141.8
537.861	24461.28
538.062	24397.79
538.263	24315.87
538.463	24129.51
538.664	24506.34
538.865	24539.1
539.065	24510.43
539.266	23986.15
539.466	24653.79
539.667	24285.15
539.868	24547.29
540.068	24066.02
540.269	24186.85
540.469	24438.75
540.67	24242.15
540.87	24326.11
541.071	24279.01
541.271	24737.76
541.472	24268.77
541.672	24375.27
541.873	24176.61
542.073	24020.97
542.274	24227.81
542.474	24258.53
542.675	24045.54
542.875	24473.57
543.075	24027.11
543.276	23963.62
543.476	24365.03
543.676	23998.44
543.877	24287.2
544.077	24444.9
544.277	24231.91
544.478	23955.43
544.678	24326.11
544.878	24160.23
545.078	24279.01
545.279	24371.17
545.479	24254.44
545.679	23984.1
545.879	24256.48
546.079	24156.13
546.28	24119.27
546.48	24090.6
546.68	24209.38
546.88	24016.87
547.08	24059.88
547.28	24176.61
547.48	23842.79
547.68	24451.04
547.88	24076.26
548.081	24403.94
548.281	24102.89
548.481	23902.18
548.681	24442.85
548.881	23896.04
549.081	24121.32
549.28	24190.95
549.48	24573.92
549.68	24082.41
549.88	24313.83
550.08	23951.34
550.28	24346.59
550.48	24180.71
550.68	24168.42
550.88	23988.2
551.08	23945.19
551.279	24276.96
551.479	23898.09
551.679	24133.61
551.879	23832.55
552.079	24008.68
552.278	24164.32
552.478	23963.62
552.678	23998.44
552.878	24393.7
553.077	23883.75
553.277	23810.03
553.477	24180.71
553.676	24041.45
553.876	24059.88
554.076	23848.94
554.275	23850.99
554.475	23611.37
554.674	24168.42
554.874	23937
555.074	23574.51
555.273	23902.18
555.473	23834.6
555.672	23711.72
555.872	23627.76
556.071	23459.82
556.271	23943.14
556.47	23478.26
556.67	23488.49
556.869	23701.48
557.068	23375.86
557.268	23812.07
557.467	23638
557.667	23556.08
557.866	23566.32
558.065	23250.93
558.265	23181.3
558.464	23392.24
558.663	23670.76
558.863	23029.75
559.062	23457.78
559.261	23105.52
559.461	23463.92
559.66	22824.95
559.859	23025.65
560.058	23148.53
560.258	22689.79
560.457	22933.5
560.656	22814.71
560.855	22816.76
561.054	22874.1
561.253	22642.68
561.453	22972.41
561.652	23039.99
561.851	22829.05
562.05	22532.09
562.249	22593.53
562.448	22925.3
562.647	22564.86
562.846	22917.11
563.045	22831.1
563.244	22575.1
563.443	22525.95
563.642	22118.4
563.841	22562.81
564.04	22323.2
564.239	22448.13
564.438	22200.32
564.637	21909.51
564.836	22118.4
565.035	21846.02
565.234	22194.18
565.432	21874.7
565.631	21893.13
565.83	21729.29
566.029	21790.73
566.228	21487.63
566.427	21934.09
566.625	21510.16
566.824	21078.04
567.023	21651.47
567.222	21467.15
567.42	21747.72
567.619	21475.34
567.818	21262.35
568.016	21377.04
568.215	21411.85
568.414	21174.29
568.612	21051.41
568.811	21104.66
569.01	21094.42
569.208	20678.68
569.407	21026.84
569.605	20647.96
569.804	20901.91
570.002	20705.31
570.201	20740.12
570.4	20559.9
570.598	20447.26
570.797	20238.37
570.995	20455.45
571.193	20170.79
571.392	20275.23
571.59	20090.91
571.789	20459.55
571.987	20006.95
572.186	20033.57
572.384	19888.17
572.582	20289.57
572.781	20109.35
572.979	19533.87
573.177	19796.01
573.376	19830.82
573.574	19675.18
573.772	19970.08
573.971	19486.76
574.169	19519.53
574.367	19413.04
574.565	19445.8
574.763	19294.25
574.962	19394.61
575.16	18892.85
575.358	19126.32
575.556	19079.22
575.754	19277.87
575.952	19062.83
576.151	19052.59
576.349	18729.02
576.547	18784.31
576.745	18767.93
576.943	18731.06
577.141	18726.97
577.339	18524.22
577.537	18493.5
577.735	18331.71
577.933	18120.77
578.131	18358.33
578.329	18327.61
578.527	18153.54
578.725	18227.26
578.923	18458.68
579.121	18151.49
579.319	18169.92
579.516	18085.95
579.714	17911.88
579.912	17811.53
580.11	17821.77
580.308	17979.46
580.506	17598.54
580.704	17489.99
580.901	17627.21
581.099	17832.01
581.297	17438.8
581.495	17365.07
581.692	17612.87
581.89	17381.45
582.088	17535.05
582.285	17092.69
582.483	17313.87
582.681	17180.75
582.878	17141.84
583.076	16857.17
583.274	17240.14
583.471	16932.95
583.669	16691.29
583.866	16869.46
584.064	17170.51
584.262	16765.01
584.459	16668.76
584.657	16922.71
584.854	16828.5
585.052	16392.28
585.249	16910.42
585.447	16683.09
585.644	16408.67
585.841	16500.83
586.039	16697.43
586.236	16343.13
586.434	16451.67
586.631	16048.22
586.828	16124
587.026	16119.9
587.223	15923.3
587.42	15980.64
587.618	15911.01
587.815	16046.18
588.012	15751.27
588.21	15913.06
588.407	15951.97
588.604	15786.08
588.801	15693.93
588.999	15652.97
589.196	15374.44
589.393	15442.03
589.59	15628.39
589.787	15726.69
589.984	15245.42
590.182	15415.4
590.379	15413.35
590.576	15218.8
590.773	15274.09
590.97	15206.51
591.167	15525.99
591.364	14866.55
591.561	14893.17
591.758	14950.51
591.955	15054.96
592.152	15014
592.349	14676.09
592.546	14710.9
592.743	14841.97
592.94	14618.74
593.137	14743.67
593.334	14809.2
593.531	14653.56
593.727	14991.47
593.924	14348.41
594.121	14639.22
594.318	14590.07
594.515	14372.99
594.712	14561.4
594.908	14403.71
595.105	14356.6
595.302	14418.04
595.499	13918.34
595.696	14061.69
595.892	13965.44
596.089	13936.77
596.286	14231.68
596.482	14102.65
596.679	13901.95
596.876	13871.23
597.072	14006.4
597.269	13828.23
597.466	13891.71
597.662	13559.94
597.859	13850.75
598.055	13738.12
598.252	13656.2
598.448	13557.89
598.645	13478.02
598.841	13408.39
599.038	13457.54
599.234	13324.43
599.431	13211.79
599.627	13232.27
599.824	13283.47
600.02	13174.92
600.217	13338.76
600.413	13072.53
600.609	12859.54
600.806	13039.76
601.002	13006.99
601.198	12968.08
601.395	13015.18
601.591	13015.18
601.787	12794
601.984	12730.52
602.18	13017.23
602.376	12855.44
602.572	12480.66
602.769	12718.23
602.965	12660.88
603.161	12630.16
603.357	12531.86
603.553	12574.87
603.75	12501.14
603.946	12464.28
604.142	12515.48
604.338	12345.5
604.534	12296.35
604.73	12089.5
604.926	11966.62
605.122	12232.86
605.318	12189.85
605.514	11995.29
605.71	12081.31
605.906	11878.56
606.102	12001.44
606.298	11853.98
606.494	11917.47
606.69	11813.03
606.886	11868.32
607.082	11681.96
607.278	11839.65
607.474	11755.68
607.67	11888.8
607.866	11643.04
608.062	11729.06
608.257	11688.1
608.453	11540.65
608.649	11614.37
608.845	11417.77
609.041	11552.93
609.236	11421.86
609.432	11583.65
609.628	11395.24
609.824	11686.05
610.019	11354.28
610.215	11126.96
610.411	11403.43
610.606	11315.37
610.802	11311.27
610.998	11086
611.193	11182.25
611.389	11045.04
611.584	11061.42
611.78	11188.39
611.976	11098.28
612.171	11196.59
612.367	11133.1
612.562	10973.36
612.758	10723.51
612.953	11012.27
613.149	11008.17
613.344	10737.84
613.539	11165.87
613.735	10698.93
613.93	10784.94
614.126	10553.52
614.321	10838.19
614.517	10830
614.712	10737.84
614.907	10617.01
615.103	10827.95
615.298	10631.35
615.493	10926.25
615.688	10526.9
615.884	10797.23
616.079	10559.67
616.274	10842.29
616.47	10647.73
616.665	10649.78
616.86	10490.04
617.055	10555.57
617.25	10428.6
617.445	10586.29
617.641	10365.11
617.836	10217.66
618.031	10209.47
618.226	10426.55
618.421	10152.12
618.616	10344.63
618.811	10213.56
619.006	10176.7
619.201	9935.04
619.396	10092.73
619.591	9636.03
619.786	9990.33
619.981	9806.02
620.176	9965.76
620.371	9883.84
620.566	9728.19
620.761	9803.97
620.956	9670.85
621.151	9568.45
621.346	9720
621.541	9631.94
621.735	9763.01
621.93	9412.81
622.125	9347.27
622.32	9402.57
622.515	9328.84
622.709	9263.3
622.904	9148.62
623.099	9279.69
623.294	9132.23
623.488	9107.66
623.683	9033.93
623.878	9119.95
624.072	8898.77
624.267	8933.58
624.462	8800.46
624.656	8726.74
624.851	8861.9
625.046	8605.91
625.24	8681.68
625.435	8681.68
625.629	8577.23
625.824	8689.87
626.018	8485.08
626.213	8472.79
626.407	8419.54
626.602	8143.07
626.796	8308.95
626.991	8386.77
627.185	8263.9
627.38	8274.14
627.574	8241.37
627.768	8032.47
627.963	8026.33
628.157	7856.35
628.352	7891.16
628.546	7874.78
628.74	7956.7
628.935	7837.92
629.129	7878.88
629.323	7745.76
629.517	7694.56
629.712	7764.19
629.906	7477.48
630.1	7553.25
630.294	7583.97
630.489	7538.91
630.683	7538.91
630.877	7313.64
631.071	7375.08
631.265	7110.89
631.459	7319.78
631.653	7252.2
631.848	7184.62
632.042	7239.91
632.236	7248.1
632.43	7141.61
632.624	7190.76
632.818	6990.06
633.012	6879.47
633.206	7012.59
633.4	6971.63
633.594	6994.15
633.788	6981.87
633.982	6953.2
634.176	6746.35
634.369	6754.54
634.563	6662.38
634.757	6758.64
634.951	6758.64
635.145	6670.58
635.339	6641.9
635.533	6574.32
635.726	6369.52
635.92	6457.59
636.114	6369.52
636.308	6424.82
636.501	6404.34
636.695	6349.04
636.889	6363.38
637.083	6250.74
637.276	6140.15
637.47	6084.86
637.664	6183.16
637.857	6172.92
638.051	6109.43
638.244	5947.64
638.438	6066.42
638.632	6103.29
638.825	6011.13
639.019	5998.84
639.212	5839.1
639.406	5708.03
639.599	5822.72
639.793	5765.37
639.986	5701.89
640.18	5839.1
640.373	5540.1
640.567	5585.15
640.76	5638.4
640.954	5560.58
641.147	5478.66
641.34	5597.44
641.534	5544.19
641.727	5566.72
641.92	5431.55
642.114	5398.79
642.307	5394.69
642.5	5351.68
642.694	5341.44
642.887	5335.3
643.08	5413.12
643.273	5114.12
643.467	5267.72
643.66	5050.63
643.853	5161.22
644.046	5052.68
644.239	5089.54
644.432	5064.97
644.626	4985.1
644.819	4849.93
645.012	5087.5
645.205	4966.67
645.398	4970.76
645.591	4872.46
645.784	4811.02
645.977	4735.25
646.17	4772.11
646.363	4796.68
646.556	4716.81
646.749	4694.29
646.942	4800.78
647.135	4499.73
647.328	4620.56
647.521	4483.34
647.714	4522.26
647.907	4739.34
648.099	4583.7
648.292	4569.36
648.485	4512.02
648.678	4487.44
648.871	4430.1
649.064	4495.63
649.256	4536.59
649.449	4432.15
649.642	4317.46
649.835	4454.67
650.027	4366.61
650.22	4344.08
650.413	4217.11
650.605	4315.41
650.798	4108.57
650.991	4143.38
651.183	4149.53
651.376	4225.3
651.568	4045.08
651.761	4233.49
651.954	3938.59
652.146	4073.75
652.339	4133.14
652.531	4049.18
652.724	3946.78
652.916	4043.03
653.109	3799.32
653.301	4137.24
653.494	3952.92
653.686	3709.21
653.879	4008.22
654.071	3895.58
654.263	3803.42
654.456	3991.83
654.648	3842.33
654.84	3807.52
655.033	3586.33
655.225	3737.88
655.417	3725.6
655.61	3594.53
655.802	3703.07
655.994	3592.48
656.186	3668.25
656.379	3629.34
656.571	3598.62
656.763	3553.57
656.955	3465.5
657.148	3563.81
657.34	3627.29
657.532	3356.96
657.724	3361.06
657.916	3424.55
658.108	3356.96
658.3	3430.69
658.492	3356.96
658.684	3307.81
658.876	3318.05
659.068	3365.15
659.26	3176.74
659.452	3285.28
659.644	3279.14
659.836	3080.49
660.028	3318.05
660.22	3080.49
660.412	3160.36
660.604	3195.17
660.796	3273
660.988	3068.2
661.18	3180.84
661.372	3160.36
661.563	3227.94
661.755	3094.82
661.947	2998.57
662.139	3029.29
662.331	2984.23
662.522	2994.47
662.714	3057.96
662.906	2963.75
663.097	3035.43
663.289	2857.26
663.481	2879.79
663.673	2939.18
663.864	2883.88
664.056	2898.22
664.247	2844.97
664.439	2834.73
664.631	2939.18
664.822	2867.5
665.014	2914.6
665.205	2718
665.397	2744.62
665.588	2758.96
665.78	2711.85
665.971	2859.31
666.163	2685.23
666.354	2734.38
666.546	2746.67
666.737	2685.23
666.929	2693.42
667.12	2566.45
667.311	2609.45
667.503	2664.75
667.694	2597.17
667.885	2722.09
668.077	2611.5
668.268	2687.28
668.459	2638.13
668.651	2595.12
668.842	2627.89
669.033	2640.17
669.224	2545.97
669.416	2627.89
669.607	2660.65
669.798	2537.77
669.989	2578.73
670.18	2541.87
670.371	2476.34
670.563	2494.77
670.754	2597.17
670.945	2423.09
671.136	2423.09
671.327	2472.24
671.518	2464.05
671.709	2480.43
671.9	2316.59
672.091	2396.46
672.282	2449.71
672.473	2357.55
672.664	2394.42
672.855	2296.11
673.046	2365.75
673.237	2380.08
673.428	2294.07
673.619	2365.75
673.809	2318.64
674	2423.09
674.191	2189.62
674.382	2152.76
674.573	2310.45
674.764	2283.83
674.954	2320.69
675.145	2246.96
675.336	2199.86
675.527	2251.06
675.717	2220.34
675.908	2210.1
676.099	2171.19
676.289	2173.24
676.48	2087.22
676.671	2261.3
676.861	2310.45
677.052	2210.1
677.243	2185.52
677.433	2279.73
677.624	2144.56
677.814	2177.33
678.005	2150.71
678.195	2244.92
678.386	2171.19
678.576	2099.51
678.767	2060.6
678.957	2165.04
679.148	2103.61
679.338	2187.57
679.529	2177.33
679.719	2099.51
679.909	2156.85
680.1	2136.37
680.29	2130.23
680.481	2105.65
680.671	2060.6
680.861	2074.93
681.052	2066.74
681.242	2093.37
681.432	2079.03
681.622	2046.26
681.813	2070.84
682.003	1960.25
682.193	2111.8
682.383	2083.13
682.573	2031.93
682.764	2083.13
682.954	2136.37
683.144	2062.65
683.334	2156.85
683.524	1980.73
683.714	2001.21
683.904	2103.61
684.094	2087.22
684.284	1929.53
684.474	2163
684.664	2064.69
684.854	1988.92
685.044	1947.96
685.234	2031.93
685.424	2091.32
685.614	1919.29
685.804	2058.55
685.994	2038.07
686.184	1974.58
686.374	1999.16
686.564	1898.81
686.753	1890.62
686.943	1919.29
687.133	1923.38
687.323	1874.23
687.513	1927.48
687.702	1997.11
687.892	2007.35
688.082	1939.77
688.272	1941.82
688.461	1833.27
688.651	2003.25
688.841	1876.28
689.03	1874.23
689.22	1833.27
689.41	1866.04
689.599	1800.51
689.789	1882.42
689.979	1855.8
690.168	1810.75
690.358	1841.47
690.547	1808.7
690.737	1775.93
690.926	1827.13
691.116	1784.12
691.305	1759.55
691.495	1857.85
691.684	1724.73
691.874	1720.64
692.063	1810.75
692.252	1800.51
692.442	1874.23
692.631	1726.78
692.82	1739.07
693.01	1734.97
693.199	1814.84
693.388	1685.82
693.578	1743.16
693.767	1784.12
693.956	1644.86
694.146	1698.11
694.335	1669.44
694.524	1724.73
694.713	1765.69
694.902	1655.1
695.092	1753.4
695.281	1741.11
695.47	1657.15
695.659	1677.63
695.848	1644.86
696.037	1663.29
696.226	1671.48
696.415	1605.95
696.604	1624.38
696.793	1734.97
696.982	1538.37
697.171	1661.24
697.36	1659.2
697.549	1710.4
697.738	1661.24
697.927	1640.76
698.116	1669.44
698.305	1567.04
698.494	1540.41
698.683	1679.68
698.872	1605.95
699.061	1614.14
699.25	1581.37
699.438	1595.71
699.627	1513.79
699.816	1636.67
700.005	1640.76
700.193	1706.3
700.382	1694.01
700.571	1677.63
700.76	1683.77
700.948	1777.98
701.137	1696.06
701.326	1612.09
701.514	1632.57
701.703	1694.01
701.892	1679.68
702.08	1761.59
702.269	1702.2
702.457	1704.25
702.646	1661.24
702.834	1634.62
703.023	1759.55
703.212	1720.64
703.4	1630.52
703.589	1614.14
703.777	1673.53
703.965	1562.94
704.154	1573.18
704.342	1605.95
704.531	1681.72
704.719	1726.78
704.907	1679.68
705.096	1513.79
705.284	1608
705.472	1687.87
705.661	1589.57
705.849	1671.48
706.037	1657.15
706.226	1747.26
706.414	1761.59
706.602	1653.05
706.79	1663.29
706.979	1671.48
707.167	1624.38
707.355	1663.29
707.543	1710.4
707.731	1712.44
707.919	1542.46
708.107	1663.29
708.296	1608
708.484	1728.83
708.672	1661.24
708.86	1608
709.048	1675.58
709.236	1642.81
709.424	1644.86
709.612	1665.34
709.8	1771.83
709.988	1718.59
710.176	1722.68
710.364	1800.51
710.551	1562.94
710.739	1741.11
710.927	1630.52
711.115	1763.64
711.303	1706.3
711.491	1663.29
711.679	1679.68
711.866	1718.59
712.054	1626.43
712.242	1679.68
712.43	1710.4
712.617	1624.38
712.805	1665.34
712.993	1661.24
713.181	1585.47
713.368	1716.54
713.556	1653.05
713.744	1562.94
713.931	1700.16
714.119	1714.49
714.306	1689.92
714.494	1739.07
714.682	1556.8
714.869	1677.63
715.057	1712.44
715.244	1669.44
715.432	1683.77
715.619	1751.35
715.807	1685.82
715.994	1661.24
716.182	1669.44
716.369	1710.4
716.556	1608
716.744	1651
716.931	1605.95
717.119	1651
717.306	1562.94
717.493	1665.34
717.681	1653.05
717.868	1685.82
718.055	1603.9
718.242	1747.26
718.43	1751.35
718.617	1743.16
718.804	1784.12
718.991	1620.28
719.179	1726.78
719.366	1655.1
719.553	1730.87
719.74	1759.55
719.927	1771.83
720.114	1636.67
720.301	1519.93
720.488	1687.87
720.676	1661.24
720.863	1696.06
721.05	1737.02
721.237	1712.44
721.424	1775.93
721.611	1814.84
721.798	1646.91
721.985	1775.93
722.172	1589.57
722.358	1661.24
722.545	1646.91
722.732	1646.91
722.919	1732.92
723.106	1753.4
723.293	1675.58
723.48	1696.06
723.667	1702.2
723.853	1696.06
724.04	1718.59
724.227	1646.91
724.414	1743.16
724.6	1665.34
724.787	1608
724.974	1593.66
725.161	1648.96
725.347	1618.24
725.534	1677.63
725.72	1765.69
725.907	1706.3
726.094	1722.68
726.28	1702.2
726.467	1694.01
726.653	1685.82
726.84	1712.44
727.027	1767.74
727.213	1628.48
727.4	1585.47
727.586	1653.05
727.773	1628.48
727.959	1669.44
728.145	1753.4
728.332	1575.23
728.518	1687.87
728.705	1681.72
728.891	1655.1
729.077	1704.25
729.264	1646.91
729.45	1636.67
729.636	1708.35
729.823	1663.29
730.009	1585.47
730.195	1624.38
730.382	1644.86
730.568	1718.59
730.754	1694.01
730.94	1681.72
731.126	1669.44
731.313	1636.67
731.499	1689.92
731.685	1632.57
731.871	1708.35
732.057	1823.03
732.243	1720.64
732.429	1630.52
732.615	1610.04
732.801	1702.2
732.987	1620.28
733.173	1677.63
733.359	1546.56
733.545	1622.33
733.731	1706.3
733.917	1737.02
734.103	1784.12
734.289	1702.2
734.475	1708.35
734.661	1642.81
734.847	1653.05
735.033	1712.44
735.219	1599.8
735.404	1626.43
735.59	1562.94
735.776	1646.91
735.962	1661.24
736.148	1671.48
736.333	1558.85
736.519	1579.33
736.705	1571.13
736.89	1640.76
737.076	1616.19
737.262	1526.08
737.447	1605.95
737.633	1673.53
737.819	1632.57
738.004	1612.09
738.19	1550.65
738.375	1605.95
738.561	1579.33
738.747	1548.61
738.932	1571.13
739.118	1595.71
739.303	1567.04
739.489	1571.13
739.674	1448.26
739.859	1464.64
740.045	1546.56
740.23	1521.98
740.416	1407.3
740.601	1575.23
740.786	1534.27
740.972	1382.72
741.157	1481.02
741.342	1407.3
741.528	1497.41
741.713	1538.37
741.898	1530.17
742.084	1472.83
742.269	1554.75
742.454	1454.4
742.639	1483.07
742.824	1481.02
743.01	1407.3
743.195	1542.46
743.38	1456.45
743.565	1411.39
743.75	1493.31
743.935	1429.82
744.12	1415.49
744.305	1530.17
744.49	1370.43
744.675	1403.2
744.86	1427.78
745.045	1325.38
745.23	1395.01
745.415	1331.52
745.6	1356.1
745.785	1423.68
745.97	1345.86
746.155	1337.66
746.34	1243.46
746.525	1329.47
746.71	1397.06
746.895	1308.99
747.079	1315.14
747.264	1319.23
747.449	1323.33
747.634	1317.19
747.819	1304.9
748.003	1296.71
748.188	1331.52
748.373	1304.9
748.557	1302.85
748.742	1202.5
748.927	1288.51
749.111	1298.75
749.296	1231.17
749.481	1276.23
749.665	1169.73
749.85	1200.45
750.034	1265.99
750.219	1276.23
750.404	1136.96
750.588	1194.31
750.773	1177.92
750.957	1120.58
751.141	1263.94
751.326	1151.3
751.51	1151.3
751.695	1108.29
751.879	1061.19
752.064	1257.79
752.248	1204.55
752.432	1237.31
752.617	1079.62
752.801	1159.49
752.985	1083.72
753.17	1210.69
753.354	1098.05
753.538	1155.4
753.722	1069.38
753.907	956.74
754.091	1030.47
754.275	991.56
754.459	1038.66
754.643	1079.62
754.828	1059.14
755.012	985.41
755.196	942.41
755.38	975.17
755.564	895.3
755.748	964.93
755.932	1050.95
756.116	1046.85
756.3	997.7
756.484	926.02
756.668	954.69
756.852	985.41
757.036	915.78
757.22	966.98
757.404	835.91
757.588	895.3
757.772	850.25
757.956	977.22
758.14	844.1
758.323	878.92
758.507	868.68
758.691	878.92
758.875	948.55
759.059	870.73
759.242	837.96
759.426	821.58
759.61	883.02
759.794	729.42
759.977	817.48
760.161	876.87
760.345	909.64
760.528	801.1
760.712	780.62
760.895	813.38
761.079	780.62
761.263	719.18
761.446	776.52
761.63	868.68
761.813	952.65
761.997	770.38
762.18	786.76
762.364	803.15
762.547	657.74
762.731	799.05
762.914	794.95
763.098	817.48
763.281	801.1
763.464	680.27
763.648	719.18
763.831	733.51
764.015	731.47
764.198	702.79
764.381	706.89
764.564	702.79
764.748	713.03
764.931	741.71
765.114	678.22
765.297	719.18
765.481	713.03
765.664	713.03
765.847	719.18
766.03	751.95
766.213	667.98
766.397	688.46
766.58	649.55
766.763	725.32
766.946	694.6
767.129	694.6
767.312	684.36
767.495	571.72
767.678	694.6
767.861	706.89
768.044	661.84
768.227	698.7
768.41	590.16
768.593	674.12
768.776	702.79
768.959	678.22
769.142	633.16
769.324	631.12
769.507	590.16
769.69	645.45
769.873	612.68
770.056	713.03
770.239	633.16
770.421	686.41
770.604	694.6
770.787	614.73
770.97	674.12
771.152	579.92
771.335	678.22
771.518	575.82
771.7	641.36
771.883	672.08
772.066	631.12
772.248	661.84
772.431	565.58
772.613	641.36
772.796	579.92
772.978	670.03
773.161	676.17
773.343	581.96
773.526	573.77
773.708	641.36
773.891	592.2
774.073	590.16
774.256	579.92
774.438	633.16
774.621	571.72
774.803	600.4
774.985	567.63
775.168	514.38
775.35	498
775.532	604.49
775.715	508.24
775.897	469.33
776.079	561.48
776.261	543.05
776.444	467.28
776.626	543.05
776.808	555.34
776.99	426.32
777.173	575.82
777.355	522.57
777.537	563.53
777.719	538.96
777.901	469.33
778.083	448.85
778.265	506.19
778.447	485.71
778.629	465.23
778.811	489.81
778.993	549.2
779.175	524.62
779.357	516.43
779.539	426.32
779.721	395.6
779.903	543.05
780.085	424.27
780.267	442.7
780.449	393.55
780.631	428.37
780.812	440.65
780.994	432.46
781.176	432.46
781.358	477.52
781.54	416.08
781.721	420.17
781.903	432.46
782.085	444.75
782.267	403.79
782.448	373.07
782.63	280.91
782.812	407.89
782.993	313.68
783.175	448.85
783.357	330.06
783.538	358.74
783.72	358.74
783.901	352.59
784.083	358.74
784.264	448.85
784.446	352.59
784.627	317.78
784.809	342.35
784.99	377.17
785.172	375.12
785.353	346.45
785.535	328.02
785.716	336.21
785.897	352.59
786.079	319.82
786.26	328.02
786.441	362.83
786.623	299.34
786.804	309.58
786.985	328.02
787.167	278.87
787.348	280.91
787.529	260.43
787.71	454.99
787.891	303.44
788.073	207.19
788.254	293.2
788.435	368.98
788.616	364.88
788.797	295.25
788.978	233.81
789.159	328.02
789.34	278.87
789.522	268.63
789.703	233.81
789.884	287.06
790.065	368.98
790.246	325.97
790.427	260.43
790.607	317.78
790.788	299.34
790.969	252.24
791.15	229.71
791.331	266.58
791.512	268.63
791.693	235.86
791.874	235.86
792.054	297.3
792.235	280.91
792.416	276.82
792.597	215.38
792.778	295.25
792.958	362.83
793.139	231.76
793.32	205.14
793.5	268.63
793.681	237.91
793.862	213.33
794.042	194.9
794.223	186.71
794.404	291.15
794.584	227.67
794.765	145.75
794.945	219.47
795.126	182.61
795.306	285.01
795.487	301.39
795.667	164.18
795.848	235.86
796.028	194.9
796.209	196.95
796.389	186.71
796.57	268.63
796.75	221.52
796.93	194.9
797.111	158.03
797.291	194.9
797.471	252.24
797.652	125.27
797.832	186.71
798.012	188.75
798.192	194.9
798.373	129.36
798.553	219.47
798.733	252.24
798.913	123.22
799.093	190.8
799.274	264.53
799.454	180.56
799.634	190.8
799.814	278.87
799.994	145.75
800.174	186.71
800.354	239.95
800.534	98.64
800.714	209.23
800.894	127.32
801.074	125.27
801.254	155.99
801.434	168.27
801.614	168.27
801.794	158.03
801.974	688.46
802.154	135.51
802.334	153.94
802.514	121.17
802.693	149.84
802.873	184.66
803.053	160.08
803.233	76.12
803.413	149.84
803.592	147.8
803.772	166.23
803.952	145.75
804.131	129.36
804.311	164.18
804.491	188.75
804.67	182.61
804.85	92.5
805.03	149.84
805.209	203.09
805.389	67.92
805.568	170.32
805.748	88.4
805.928	72.02
806.107	198.99
806.287	121.17
806.466	162.13
806.646	74.07
806.825	125.27
807.004	145.75
807.184	155.99
807.363	135.51
807.543	112.98
807.722	86.36
807.901	162.13
808.081	119.12
808.26	-3.75
808.439	80.21
808.619	100.69
808.798	164.18
808.977	110.93
809.156	106.84
809.336	104.79
809.515	121.17
809.694	55.64
809.873	104.79
810.052	104.79
810.231	76.12
810.411	41.3
810.59	98.64
810.769	108.88
810.948	121.17
811.127	80.21
811.306	67.92
811.485	63.83
811.664	96.6
811.843	88.4
812.022	115.03
812.201	57.68
812.38	90.45
812.559	137.56
812.737	145.75
812.916	80.21
813.095	104.79
813.274	127.32
813.453	131.41
813.632	112.98
813.811	186.71
813.989	96.6
814.168	129.36
814.347	137.56
814.526	145.75
814.704	104.79
814.883	55.64
815.062	57.68
815.24	131.41
815.419	67.92
815.598	139.6
815.776	57.68
815.955	84.31
816.133	26.96
816.312	153.94
816.49	8.53
816.669	131.41
816.847	51.54
817.026	82.26
817.204	98.64
817.383	96.6
817.561	78.16
817.74	131.41
817.918	135.51
818.097	72.02
818.275	61.78
818.453	8.53
818.632	90.45
818.81	96.6
818.988	108.88
819.167	43.35
819.345	170.32
819.523	80.21
819.701	121.17
819.879	37.2
820.058	117.08
820.236	61.78
820.414	92.5
820.592	162.13
820.77	80.21
820.948	108.88
821.127	22.87
821.305	80.21
821.483	65.88
821.661	178.51
821.839	102.74
822.017	72.02
822.195	139.6
822.373	78.16
822.551	76.12
822.729	74.07
822.907	110.93
823.085	121.17
823.262	72.02
823.44	72.02
823.618	47.44
823.796	39.25
823.974	10.58
824.152	33.11
824.329	59.73
824.507	57.68
824.685	106.84
824.863	10.58
825.04	72.02
825.218	155.99
825.396	49.49
825.574	26.96
825.751	141.65
825.929	69.97
826.107	84.31
826.284	47.44
826.462	86.36
826.639	20.82
826.817	14.68
826.994	47.44
827.172	39.25
827.349	78.16
827.527	78.16
827.704	78.16
827.882	67.92
828.059	49.49
828.237	-9.9
828.414	137.56
828.591	22.87
828.769	162.13
828.946	57.68
829.124	96.6
829.301	53.59
829.478	8.53
829.655	90.45
829.833	82.26
830.01	4.44
830.187	63.83
830.364	8.53
830.542	8.53
830.719	112.98
830.896	67.92
831.073	33.11
831.25	80.21
831.427	137.56
831.604	49.49
831.782	49.49
831.959	47.44
832.136	45.4
832.313	47.44
832.49	20.82
832.667	106.84
832.844	61.78
833.021	72.02
833.198	-28.33
833.374	31.06
833.551	55.64
833.728	-26.28
833.905	55.64
834.082	-34.47
834.259	59.73
834.436	22.87
834.612	-11.95
834.789	80.21
834.966	6.49
835.143	82.26
835.319	-11.95
835.496	63.83
835.673	20.82
835.85	80.21
836.026	72.02
836.203	49.49
836.38	-30.38
836.556	12.63
836.733	43.35
836.909	72.02
837.086	55.64
837.262	49.49
837.439	55.64
837.616	47.44
837.792	4.44
837.968	18.77
838.145	-42.67
838.321	8.53
838.498	-18.09
838.674	6.49
838.851	-16.04
839.027	65.88
839.203	12.63
839.38	35.16
839.556	63.83
839.732	49.49
839.909	35.16
840.085	39.25
840.261	-9.9
840.437	39.25
840.614	63.83
840.79	12.63
840.966	59.73
841.142	49.49
841.318	47.44
841.494	29.01
841.671	10.58
841.847	16.73
842.023	26.96
842.199	98.64
842.375	35.16
842.551	41.3
842.727	0.34
842.903	31.06
843.079	47.44
843.255	39.25
843.431	72.02
843.607	26.96
843.783	47.44
843.959	26.96
844.134	-42.67
844.31	6.49
844.486	-18.09
844.662	24.92
844.838	18.77
845.013	8.53
845.189	31.06
845.365	14.68
845.541	-22.19
845.716	-9.9
845.892	-18.09
846.068	31.06
846.244	-61.1
846.419	39.25
846.595	22.87
846.77	43.35
846.946	18.77
847.122	2.39
847.297	-48.81
847.473	55.64
847.648	49.49
847.824	67.92
847.999	59.73
848.175	76.12
848.35	-9.9
848.526	-7.85
848.701	74.07
848.876	51.54
849.052	10.58
849.227	72.02
849.403	63.83
849.578	16.73
849.753	-13.99
849.929	0.34
850.104	18.77
850.279	41.3
850.454	16.73
850.63	72.02
850.805	41.3
850.98	90.45
851.155	-46.76
851.33	106.84
851.505	55.64
851.681	31.06
851.856	-69.29
852.031	-13.99
852.206	-32.43
852.381	43.35
852.556	47.44
852.731	117.08
852.906	-13.99
853.081	26.96
853.256	41.3
853.431	-34.47
853.606	22.87
853.781	-30.38
853.956	-34.47
854.131	65.88
854.305	-16.04
854.48	14.68
854.655	-16.04
854.83	24.92
855.005	53.59
855.18	-32.43
855.354	33.11
855.529	57.68
855.704	-42.67
855.879	24.92
856.053	-20.14
856.228	31.06
856.403	6.49
856.577	12.63
856.752	-61.1
856.926	24.92
857.101	55.64
857.276	0.34
857.45	37.2
857.625	39.25
857.799	22.87
857.974	22.87
858.148	18.77
858.323	16.73
858.497	-48.81
858.672	14.68
858.846	-13.99
859.02	22.87
859.195	-26.28
859.369	-65.19
859.543	61.78
859.718	43.35
859.892	26.96
860.066	18.77
860.241	6.49
860.415	-1.71
860.589	-83.63
860.763	24.92
860.938	51.54
861.112	96.6
861.286	10.58
861.46	-42.67
861.634	-16.04
861.808	63.83
861.982	26.96
862.157	-38.57
862.331	-13.99
862.505	57.68
862.679	-1.71
862.853	14.68
863.027	6.49
863.201	98.64
863.375	-30.38
863.549	29.01
863.722	-44.71
863.896	100.69
864.07	14.68
864.244	-24.23
864.418	55.64
864.592	55.64
864.766	10.58
864.939	-83.63
865.113	-7.85
865.287	49.49
865.461	-18.09
865.634	14.68
865.808	2.39
865.982	-42.67
866.156	-34.47
866.329	2.39
866.503	74.07
866.676	31.06
866.85	22.87
867.024	-3.75
867.197	31.06
867.371	39.25
867.544	20.82
867.718	-7.85
867.891	16.73
868.065	57.68
868.238	18.77
868.412	14.68
868.585	-30.38
868.759	-61.1
868.932	-73.39
869.105	-18.09
869.279	-20.14
869.452	-38.57
869.625	72.02
869.799	10.58
869.972	-83.63
870.145	29.01
870.319	51.54
870.492	10.58
870.665	6.49
870.838	0.34
871.011	-108.2
871.185	24.92
871.358	-16.04
871.531	59.73
871.704	-30.38
871.877	37.2
872.05	37.2
872.223	-7.85
872.396	31.06
872.569	0.34
872.742	-16.04
872.915	-18.09
873.088	24.92
873.261	-46.76
873.434	-22.19
873.607	43.35
873.78	35.16
873.953	-13.99
874.126	2.39
874.299	65.88
874.471	-40.62
874.644	-7.85
874.817	-34.47
874.99	80.21
875.163	-75.43
875.335	6.49
875.508	14.68
875.681	94.55
875.853	-20.14
876.026	22.87
876.199	14.68
876.371	-26.28
876.544	-50.86
876.717	-32.43
876.889	37.2
877.062	47.44
877.234	14.68
877.407	-18.09
877.579	39.25
877.752	72.02
877.924	-46.76
878.097	57.68
878.269	-104.11
878.442	-32.43
878.614	12.63
878.786	-5.8
878.959	-40.62
879.131	10.58
879.303	-1.71
879.476	-34.47
879.648	39.25
879.82	8.53
879.993	24.92
880.165	-7.85
880.337	-5.8
880.509	55.64
880.681	-1.71
880.854	33.11
881.026	-38.57
881.198	0.34
881.37	-30.38
881.542	6.49
881.714	31.06
881.886	57.68
882.058	26.96
882.23	-13.99
882.402	-65.19
882.574	-7.85
882.746	16.73
882.918	22.87
883.09	-24.23
883.262	72.02
883.434	55.64
883.606	8.53
883.778	-3.75
883.95	37.2
884.122	24.92
884.293	39.25
884.465	-18.09
884.637	39.25
884.809	-42.67
884.98	-5.8
885.152	20.82
885.324	82.26
885.496	-11.95
885.667	-1.71
885.839	-83.63
886.011	-24.23
886.182	16.73
886.354	-1.71
886.525	-9.9
886.697	31.06
886.869	-28.33
887.04	-61.1
887.212	12.63
887.383	88.4
887.555	-63.15
887.726	-9.9
887.897	-42.67
888.069	63.83
888.24	55.64
888.412	22.87
888.583	22.87
888.754	18.77
888.926	2.39
889.097	-91.82
889.268	-1.71
889.44	-24.23
889.611	-13.99
889.782	-46.76
889.953	43.35
890.125	37.2
890.296	26.96
890.467	-89.77
890.638	-34.47
890.809	-65.19
890.98	4.44
891.151	39.25
891.323	39.25
891.494	-7.85
891.665	45.4
891.836	55.64
892.007	14.68
892.178	39.25
892.349	22.87
892.52	6.49
892.691	41.3
892.862	-40.62
893.032	-30.38
893.203	-65.19
893.374	-28.33
893.545	6.49
893.716	-24.23
893.887	-16.04
894.057	-40.62
894.228	-7.85
894.399	-1.71
894.57	22.87
894.74	33.11
894.911	39.25
895.082	47.44
895.253	-106.15
895.423	-11.95
895.594	-18.09
895.764	51.54
895.935	-54.95
896.106	10.58
896.276	-63.15
896.447	-26.28
896.617	-34.47
896.788	-50.86
896.958	-52.91
897.129	-3.75
897.299	-38.57
897.47	65.88
897.64	22.87
897.81	26.96
897.981	8.53
898.151	18.77
898.322	31.06
898.492	-13.99
898.662	8.53
898.832	16.73
899.003	24.92
899.173	16.73
899.343	-7.85
899.513	-26.28
