Data from USB4F104151__85__14-43-30-515.txt Node

Date: Thu Mar 13 14:43:30 EDT 2025
User: louis
Spectrometer: USB4F10415
Trigger mode: 4
Integration Time (sec): 2.000000E-2
Scans to average: 1
Electric dark correction enabled: true
Nonlinearity correction enabled: false
Boxcar width: 0
XAxis mode: Wavelengths
Number of Pixels in Spectrum: 3648
>>>>>Begin Spectral Data<<<<<
178.204	-127.66
178.424	-127.66
178.644	-127.66
178.864	-101.03
179.084	-121.51
179.304	34.13
179.524	-55.98
179.744	-27.31
179.964	-23.21
180.184	-27.31
180.404	15.7
180.624	-10.92
180.844	23.89
181.064	-60.07
181.283	-15.02
181.503	118.1
181.723	27.99
181.943	-29.35
182.163	-12.97
182.383	77.14
182.602	132.44
182.822	46.42
183.042	-29.35
183.262	-19.11
183.482	36.18
183.701	23.89
183.921	-21.16
184.141	52.56
184.361	-39.59
184.58	5.46
184.8	25.94
185.02	44.37
185.239	75.09
185.459	62.8
185.679	126.29
185.898	-6.83
186.118	13.65
186.338	48.47
186.557	60.76
186.777	3.41
186.997	-6.83
187.216	52.56
187.436	120.15
187.655	38.23
187.875	71
188.095	11.61
188.314	34.13
188.534	11.61
188.753	13.65
188.973	-6.83
189.192	116.05
189.412	9.56
189.631	-55.98
189.851	91.48
190.07	54.61
190.29	-15.02
190.509	44.37
190.729	-15.02
190.948	5.46
191.168	83.28
191.387	83.28
191.607	-60.07
191.826	75.09
192.045	25.94
192.265	-31.4
192.484	77.14
192.704	99.67
192.923	-29.35
193.142	42.32
193.362	-6.83
193.581	44.37
193.8	17.75
194.02	120.15
194.239	-29.35
194.458	75.09
194.678	9.56
194.897	32.08
195.116	17.75
195.335	42.32
195.555	34.13
195.774	25.94
195.993	-10.92
196.212	66.9
196.432	9.56
196.651	19.8
196.87	-23.21
197.089	68.95
197.308	-6.83
197.528	73.04
197.747	42.32
197.966	-37.55
198.185	54.61
198.404	5.46
198.623	11.61
198.842	27.99
199.062	87.38
199.281	60.76
199.5	-21.16
199.719	-47.79
199.938	-8.87
200.157	-25.26
200.376	25.94
200.595	62.8
200.814	-0.68
201.033	1.37
201.252	58.71
201.471	99.67
201.69	19.8
201.909	25.94
202.128	25.94
202.347	-6.83
202.566	11.61
202.785	1.37
203.004	-53.93
203.223	1.37
203.442	13.65
203.661	-4.78
203.879	9.56
204.098	-12.97
204.317	15.7
204.536	-49.83
204.755	95.57
204.974	83.28
205.193	9.56
205.411	85.33
205.63	99.67
205.849	13.65
206.068	54.61
206.287	46.42
206.505	36.18
206.724	25.94
206.943	25.94
207.162	36.18
207.381	38.23
207.599	68.95
207.818	75.09
208.037	25.94
208.255	36.18
208.474	58.71
208.693	81.24
208.911	66.9
209.13	-6.83
209.349	-2.73
209.567	-33.45
209.786	75.09
210.005	11.61
210.223	38.23
210.442	40.28
210.661	-49.83
210.879	85.33
211.098	68.95
211.316	34.13
211.535	17.75
211.753	95.57
211.972	-6.83
212.191	13.65
212.409	-6.83
212.628	79.19
212.846	19.8
213.065	68.95
213.283	1.37
213.502	17.75
213.72	25.94
213.938	34.13
214.157	60.76
214.375	30.04
214.594	30.04
214.812	21.84
215.031	-2.73
215.249	25.94
215.467	36.18
215.686	-2.73
215.904	46.42
216.122	19.8
216.341	101.72
216.559	38.23
216.778	91.48
216.996	-23.21
217.214	60.76
217.432	21.84
217.651	-47.79
217.869	-17.07
218.087	19.8
218.306	81.24
218.524	60.76
218.742	32.08
218.96	81.24
219.179	-0.68
219.397	9.56
219.615	38.23
219.833	75.09
220.051	5.46
220.27	85.33
220.488	-23.21
220.706	107.86
220.924	66.9
221.142	40.28
221.36	83.28
221.578	-80.55
221.796	11.61
222.015	75.09
222.233	30.04
222.451	148.82
222.669	-17.07
222.887	15.7
223.105	-10.92
223.323	71
223.541	40.28
223.759	77.14
223.977	9.56
224.195	25.94
224.413	54.61
224.631	93.52
224.849	-12.97
225.067	83.28
225.285	17.75
225.503	-23.21
225.721	9.56
225.939	54.61
226.157	-10.92
226.375	101.72
226.592	-17.07
226.81	1.37
227.028	-45.74
227.246	71
227.464	50.52
227.682	60.76
227.9	-15.02
228.117	62.8
228.335	95.57
228.553	64.85
228.771	38.23
228.989	36.18
229.206	103.76
229.424	111.96
229.642	-6.83
229.86	60.76
230.077	3.41
230.295	81.24
230.513	77.14
230.731	27.99
230.948	42.32
231.166	34.13
231.384	-15.02
231.601	21.84
231.819	58.71
232.037	46.42
232.254	58.71
232.472	25.94
232.689	40.28
232.907	34.13
233.125	-0.68
233.342	50.52
233.56	23.89
233.777	-45.74
233.995	27.99
234.213	-10.92
234.43	62.8
234.648	-23.21
234.865	30.04
235.083	-4.78
235.3	25.94
235.518	66.9
235.735	120.15
235.953	99.67
236.17	1.37
236.388	-2.73
236.605	-25.26
236.822	87.38
237.04	105.81
237.257	46.42
237.475	-33.45
237.692	38.23
237.909	-62.12
238.127	17.75
238.344	-2.73
238.562	93.52
238.779	42.32
238.996	44.37
239.214	30.04
239.431	95.57
239.648	36.18
239.865	42.32
240.083	54.61
240.3	27.99
240.517	34.13
240.735	44.37
240.952	13.65
241.169	87.38
241.386	-15.02
241.603	-21.16
241.821	25.94
242.038	99.67
242.255	5.46
242.472	66.9
242.689	50.52
242.907	40.28
243.124	42.32
243.341	34.13
243.558	3.41
243.775	-72.36
243.992	-29.35
244.209	17.75
244.426	66.9
244.643	11.61
244.86	-12.97
245.078	58.71
245.295	-12.97
245.512	34.13
245.729	25.94
245.946	91.48
246.163	-23.21
246.38	52.56
246.597	25.94
246.814	-70.31
247.031	23.89
247.248	3.41
247.464	109.91
247.681	48.47
247.898	30.04
248.115	42.32
248.332	7.51
248.549	58.71
248.766	54.61
248.983	36.18
249.2	50.52
249.417	17.75
249.633	-4.78
249.85	11.61
250.067	44.37
250.284	27.99
250.501	13.65
250.717	-23.21
250.934	5.46
251.151	3.41
251.368	1.37
251.585	38.23
251.801	77.14
252.018	-37.55
252.235	21.84
252.451	-53.93
252.668	17.75
252.885	42.32
253.102	52.56
253.318	25.94
253.535	56.66
253.752	75.09
253.968	54.61
254.185	17.75
254.401	58.71
254.618	62.8
254.835	-10.92
255.051	107.86
255.268	60.76
255.484	71
255.701	17.75
255.917	71
256.134	-31.4
256.351	19.8
256.567	7.51
256.784	-23.21
257	-23.21
257.217	120.15
257.433	11.61
257.65	44.37
257.866	73.04
258.082	25.94
258.299	15.7
258.515	-0.68
258.732	58.71
258.948	-39.59
259.165	58.71
259.381	19.8
259.597	91.48
259.814	71
260.03	30.04
260.246	-23.21
260.463	36.18
260.679	-17.07
260.895	42.32
261.112	46.42
261.328	38.23
261.544	3.41
261.761	116.05
261.977	-8.87
262.193	-35.5
262.409	-2.73
262.626	99.67
262.842	85.33
263.058	-6.83
263.274	34.13
263.49	-2.73
263.707	85.33
263.923	66.9
264.139	58.71
264.355	38.23
264.571	107.86
264.787	71
265.004	27.99
265.22	3.41
265.436	34.13
265.652	-47.79
265.868	83.28
266.084	7.51
266.3	-2.73
266.516	13.65
266.732	34.13
266.948	83.28
267.164	-23.21
267.38	66.9
267.596	13.65
267.812	66.9
268.028	75.09
268.244	9.56
268.46	60.76
268.676	1.37
268.892	83.28
269.108	-17.07
269.324	42.32
269.54	-15.02
269.756	62.8
269.972	44.37
270.188	13.65
270.403	5.46
270.619	-19.11
270.835	1.37
271.051	50.52
271.267	42.32
271.483	19.8
271.698	111.96
271.914	85.33
272.13	-31.4
272.346	50.52
272.562	-39.59
272.777	58.71
272.993	-47.79
273.209	44.37
273.425	32.08
273.64	-15.02
273.856	85.33
274.072	-2.73
274.287	-35.5
274.503	71
274.719	99.67
274.934	34.13
275.15	27.99
275.366	-19.11
275.581	-4.78
275.797	34.13
276.012	42.32
276.228	-6.83
276.444	17.75
276.659	114
276.875	-17.07
277.09	38.23
277.306	-27.31
277.521	30.04
277.737	30.04
277.952	77.14
278.168	58.71
278.383	25.94
278.599	-6.83
278.814	40.28
279.03	23.89
279.245	-6.83
279.461	-6.83
279.676	93.52
279.892	11.61
280.107	-15.02
280.322	-27.31
280.538	-6.83
280.753	-31.4
280.969	32.08
281.184	23.89
281.399	66.9
281.615	23.89
281.83	75.09
282.045	-62.12
282.26	-21.16
282.476	25.94
282.691	93.52
282.906	136.53
283.122	27.99
283.337	36.18
283.552	77.14
283.767	38.23
283.983	34.13
284.198	5.46
284.413	3.41
284.628	42.32
284.843	9.56
285.058	50.52
285.274	17.75
285.489	9.56
285.704	52.56
285.919	-62.12
286.134	60.76
286.349	60.76
286.564	21.84
286.779	-35.5
286.995	11.61
287.21	-39.59
287.425	44.37
287.64	-47.79
287.855	-19.11
288.07	9.56
288.285	-29.35
288.5	54.61
288.715	46.42
288.93	-51.88
289.145	19.8
289.36	79.19
289.575	34.13
289.79	103.76
290.004	46.42
290.219	42.32
290.434	3.41
290.649	9.56
290.864	48.47
291.079	58.71
291.294	-80.55
291.509	17.75
291.724	38.23
291.938	17.75
292.153	25.94
292.368	11.61
292.583	66.9
292.798	91.48
293.012	58.71
293.227	11.61
293.442	50.52
293.657	66.9
293.871	79.19
294.086	1.37
294.301	93.52
294.516	-4.78
294.73	50.52
294.945	-45.74
295.16	15.7
295.374	95.57
295.589	54.61
295.804	1.37
296.018	66.9
296.233	30.04
296.447	46.42
296.662	83.28
296.877	64.85
297.091	-29.35
297.306	52.56
297.52	-6.83
297.735	75.09
297.949	105.81
298.164	-15.02
298.378	-47.79
298.593	9.56
298.807	13.65
299.022	-31.4
299.236	101.72
299.451	60.76
299.665	19.8
299.88	-15.02
300.094	83.28
300.309	87.38
300.523	17.75
300.737	42.32
300.952	66.9
301.166	91.48
301.381	11.61
301.595	1.37
301.809	52.56
302.024	13.65
302.238	19.8
302.452	46.42
302.667	3.41
302.881	116.05
303.095	42.32
303.309	46.42
303.524	-6.83
303.738	3.41
303.952	13.65
304.166	-15.02
304.381	-6.83
304.595	-19.11
304.809	-6.83
305.023	66.9
305.237	-33.45
305.452	-10.92
305.666	11.61
305.88	34.13
306.094	-2.73
306.308	42.32
306.522	66.9
306.736	58.71
306.95	38.23
307.164	120.15
307.379	15.7
307.593	66.9
307.807	83.28
308.021	25.94
308.235	58.71
308.449	-31.4
308.663	11.61
308.877	93.52
309.091	-10.92
309.305	60.76
309.519	9.56
309.733	83.28
309.947	-47.79
310.161	52.56
310.374	17.75
310.588	93.52
310.802	-64.17
311.016	17.75
311.23	13.65
311.444	3.41
311.658	21.84
311.872	50.52
312.085	42.32
312.299	91.48
312.513	25.94
312.727	79.19
312.941	3.41
313.154	42.32
313.368	21.84
313.582	73.04
313.796	11.61
314.009	46.42
314.223	9.56
314.437	58.71
314.651	83.28
314.864	25.94
315.078	11.61
315.292	9.56
315.505	17.75
315.719	23.89
315.933	25.94
316.146	42.32
316.36	-4.78
316.573	-6.83
316.787	66.9
317.001	66.9
317.214	15.7
317.428	13.65
317.641	27.99
317.855	42.32
318.068	58.71
318.282	58.71
318.495	109.91
318.709	48.47
318.922	19.8
319.136	118.1
319.349	27.99
319.563	19.8
319.776	19.8
319.99	1.37
320.203	62.8
320.417	-2.73
320.63	58.71
320.843	52.56
321.057	-64.17
321.27	11.61
321.483	23.89
321.697	42.32
321.91	118.1
322.124	-23.21
322.337	46.42
322.55	-6.83
322.763	-8.87
322.977	5.46
323.19	42.32
323.403	58.71
323.617	-15.02
323.83	9.56
324.043	44.37
324.256	52.56
324.469	15.7
324.683	79.19
324.896	58.71
325.109	-2.73
325.322	32.08
325.535	68.95
325.748	136.53
325.962	25.94
326.175	-51.88
326.388	11.61
326.601	68.95
326.814	89.43
327.027	38.23
327.24	93.52
327.453	27.99
327.666	60.76
327.879	58.71
328.092	107.86
328.305	25.94
328.518	13.65
328.731	1.37
328.944	68.95
329.157	85.33
329.37	-15.02
329.583	-27.31
329.796	101.72
330.009	-15.02
330.222	79.19
330.435	25.94
330.648	34.13
330.861	38.23
331.073	124.24
331.286	32.08
331.499	93.52
331.712	54.61
331.925	50.52
332.138	11.61
332.35	27.99
332.563	17.75
332.776	114
332.989	-15.02
333.202	116.05
333.414	36.18
333.627	75.09
333.84	99.67
334.053	85.33
334.265	-17.07
334.478	58.71
334.691	-29.35
334.903	50.52
335.116	-6.83
335.329	3.41
335.541	95.57
335.754	66.9
335.966	52.56
336.179	75.09
336.392	91.48
336.604	13.65
336.817	50.52
337.029	17.75
337.242	77.14
337.454	5.46
337.667	-23.21
337.88	17.75
338.092	50.52
338.305	13.65
338.517	-31.4
338.729	38.23
338.942	66.9
339.154	25.94
339.367	25.94
339.579	75.09
339.792	5.46
340.004	58.71
340.217	-17.07
340.429	42.32
340.641	15.7
340.854	11.61
341.066	19.8
341.278	19.8
341.491	105.81
341.703	-6.83
341.915	-10.92
342.128	91.48
342.34	38.23
342.552	58.71
342.764	83.28
342.977	66.9
343.189	75.09
343.401	17.75
343.613	17.75
343.826	25.94
344.038	-10.92
344.25	25.94
344.462	107.86
344.674	34.13
344.886	30.04
345.099	32.08
345.311	17.75
345.523	-53.93
345.735	30.04
345.947	89.43
346.159	46.42
346.371	44.37
346.583	42.32
346.795	50.52
347.007	11.61
347.219	50.52
347.431	50.52
347.643	50.52
347.855	5.46
348.067	73.04
348.279	34.13
348.491	85.33
348.703	58.71
348.915	50.52
349.127	30.04
349.339	81.24
349.551	-6.83
349.763	134.48
349.975	-51.88
350.187	11.61
350.399	64.85
350.61	-8.87
350.822	60.76
351.034	68.95
351.246	9.56
351.458	124.24
351.669	-8.87
351.881	34.13
352.093	62.8
352.305	118.1
352.517	-23.21
352.728	99.67
352.94	52.56
353.152	120.15
353.363	34.13
353.575	118.1
353.787	36.18
353.999	50.52
354.21	132.44
354.422	17.75
354.633	62.8
354.845	32.08
355.057	85.33
355.268	58.71
355.48	5.46
355.692	-31.4
355.903	71
356.115	95.57
356.326	-6.83
356.538	17.75
356.749	5.46
356.961	27.99
357.172	66.9
357.384	-15.02
357.595	140.63
357.807	25.94
358.018	60.76
358.23	-23.21
358.441	75.09
358.653	66.9
358.864	83.28
359.075	5.46
359.287	34.13
359.498	124.24
359.709	34.13
359.921	21.84
360.132	46.42
360.344	62.8
360.555	56.66
360.766	38.23
360.977	91.48
361.189	-23.21
361.4	105.81
361.611	48.47
361.823	109.91
362.034	91.48
362.245	19.8
362.456	11.61
362.667	101.72
362.879	50.52
363.09	89.43
363.301	54.61
363.512	66.9
363.723	9.56
363.935	66.9
364.146	83.28
364.357	3.41
364.568	73.04
364.779	-23.21
364.99	118.1
365.201	54.61
365.412	107.86
365.623	3.41
365.834	44.37
366.045	81.24
366.256	68.95
366.467	13.65
366.678	17.75
366.889	54.61
367.1	13.65
367.311	107.86
367.522	58.71
367.733	25.94
367.944	38.23
368.155	118.1
368.366	42.32
368.577	34.13
368.788	79.19
368.999	34.13
369.209	36.18
369.42	118.1
369.631	68.95
369.842	93.52
370.053	66.9
370.264	107.86
370.474	25.94
370.685	23.89
370.896	42.32
371.107	25.94
371.317	132.44
371.528	19.8
371.739	66.9
371.95	91.48
372.16	116.05
372.371	17.75
372.582	58.71
372.792	116.05
373.003	38.23
373.214	122.2
373.424	91.48
373.635	58.71
373.846	52.56
374.056	-31.4
374.267	107.86
374.477	107.86
374.688	97.62
374.898	34.13
375.109	48.47
375.319	50.52
375.53	77.14
375.74	36.18
375.951	46.42
376.161	42.32
376.372	68.95
376.582	-6.83
376.793	66.9
377.003	105.81
377.214	66.9
377.424	21.84
377.635	46.42
377.845	81.24
378.055	58.71
378.266	-19.11
378.476	99.67
378.686	89.43
378.897	130.39
379.107	75.09
379.317	19.8
379.528	62.8
379.738	118.1
379.948	91.48
380.158	124.24
380.369	62.8
380.579	36.18
380.789	46.42
380.999	11.61
381.21	103.76
381.42	68.95
381.63	81.24
381.84	30.04
382.05	140.63
382.261	148.82
382.471	71
382.681	5.46
382.891	75.09
383.101	52.56
383.311	-15.02
383.521	-27.31
383.731	-8.87
383.941	60.76
384.151	66.9
384.361	23.89
384.571	23.89
384.781	66.9
384.991	116.05
385.201	167.25
385.411	85.33
385.621	58.71
385.831	50.52
386.041	79.19
386.251	-15.02
386.461	46.42
386.671	95.57
386.881	58.71
387.091	54.61
387.301	148.82
387.511	-4.78
387.72	93.52
387.93	46.42
388.14	62.8
388.35	163.15
388.56	101.72
388.769	91.48
388.979	165.2
389.189	101.72
389.399	126.29
389.609	5.46
389.818	58.71
390.028	1.37
390.238	83.28
390.447	5.46
390.657	85.33
390.867	46.42
391.076	-39.59
391.286	56.66
391.496	118.1
391.705	101.72
391.915	185.68
392.125	159.06
392.334	99.67
392.544	81.24
392.753	75.09
392.963	21.84
393.172	114
393.382	122.2
393.591	159.06
393.801	120.15
394.01	79.19
394.22	134.48
394.429	116.05
394.639	77.14
394.848	75.09
395.058	87.38
395.267	36.18
395.477	161.11
395.686	50.52
395.895	83.28
396.105	165.2
396.314	71
396.524	50.52
396.733	66.9
396.942	107.86
397.152	111.96
397.361	165.2
397.57	48.47
397.78	157.01
397.989	128.34
398.198	148.82
398.407	75.09
398.617	91.48
398.826	44.37
399.035	79.19
399.244	91.48
399.453	13.65
399.663	152.91
399.872	181.59
400.081	122.2
400.29	177.49
400.499	75.09
400.708	116.05
400.917	103.76
401.127	91.48
401.336	161.11
401.545	165.2
401.754	58.71
401.963	134.48
402.172	118.1
402.381	150.87
402.59	91.48
402.799	101.72
403.008	140.63
403.217	167.25
403.426	124.24
403.635	128.34
403.844	126.29
404.053	103.76
404.262	150.87
404.471	148.82
404.68	183.63
404.888	202.07
405.097	126.29
405.306	95.57
405.515	210.26
405.724	140.63
405.933	183.63
406.142	183.63
406.35	159.06
406.559	230.74
406.768	185.68
406.977	243.03
407.185	247.12
407.394	167.25
407.603	150.87
407.812	197.97
408.02	238.93
408.229	312.66
408.438	247.12
408.646	273.75
408.855	232.79
409.064	296.27
409.272	247.12
409.481	304.46
409.69	271.7
409.898	304.46
410.107	273.75
410.315	304.46
410.524	314.7
410.733	312.66
410.941	320.85
411.15	402.77
411.358	357.71
411.567	451.92
411.775	370
411.984	353.62
412.192	396.62
412.401	413.01
412.609	476.49
412.818	466.25
413.026	544.08
413.234	494.93
413.443	521.55
413.651	517.45
413.86	548.17
414.068	679.24
414.276	664.91
414.485	578.89
414.693	699.72
414.901	595.28
415.11	650.57
415.318	642.38
415.526	738.63
415.734	685.39
415.943	810.31
416.151	773.45
416.359	816.46
416.567	816.46
416.776	912.71
416.984	961.86
417.192	982.34
417.4	1080.64
417.608	961.86
417.817	1021.25
418.025	1037.64
418.233	1181
418.441	1060.17
418.649	1107.27
418.857	1398.08
419.065	1291.59
419.273	1312.07
419.481	1336.64
419.689	1420.61
419.897	1523.01
420.105	1520.96
420.313	1574.21
420.521	1518.91
420.729	1664.32
420.937	1705.28
421.145	1729.85
421.353	1795.39
421.561	1920.31
421.769	1887.54
421.977	2073.91
422.185	2059.57
422.393	2090.29
422.601	2147.64
422.809	2204.98
423.017	2340.15
423.224	2401.58
423.432	2450.74
423.64	2471.22
423.848	2680.11
424.056	2567.47
424.263	2835.75
424.471	2839.85
424.679	2735.4
424.887	2979.11
425.094	3097.89
425.302	3188
425.51	3263.78
425.718	3409.19
425.925	3409.19
426.133	3519.78
426.341	3777.82
426.548	3884.31
426.756	3716.38
426.964	3976.47
427.171	4046.1
427.379	4211.99
427.586	4289.81
427.794	4496.66
428.001	4642.06
428.209	4867.34
428.417	4508.94
428.624	5135.62
428.832	5055.75
429.039	4930.83
429.247	4957.45
429.454	5696.77
429.662	6022.39
429.869	5395.71
430.076	5846.27
430.284	5694.72
430.491	5879.04
430.699	6276.34
430.906	6315.25
431.114	6372.6
431.321	6620.4
431.528	6845.68
431.736	7281.89
431.943	7554.27
432.15	7283.94
432.358	7417.06
432.565	7742.69
432.772	7666.91
432.979	8103.13
433.187	8238.3
433.394	8248.54
433.601	8944.84
433.808	8778.96
434.016	8955.08
434.223	9303.24
434.43	9706.69
434.637	9546.95
434.844	10005.69
435.052	10233.02
435.259	10222.78
435.466	10413.24
435.673	10224.83
435.88	10972.33
436.087	11414.7
436.294	11439.27
436.501	11326.63
436.708	11404.46
436.915	11871.39
437.122	12375.19
437.329	12328.09
437.537	12573.85
437.743	12715.16
437.95	12858.51
438.157	13700.23
438.364	14101.63
438.571	13864.07
438.778	13794.43
438.985	15168.62
439.192	14728.31
439.399	15271.02
439.606	14695.54
439.813	15451.24
440.02	16528.47
440.227	16217.18
440.433	16106.59
440.64	16899.16
440.847	16532.57
441.054	16839.76
441.261	18170.94
441.467	17892.42
441.674	18388.03
441.881	18934.84
442.088	18926.64
442.294	18619.45
442.501	19104.82
442.708	19469.36
442.914	20231.2
443.121	21013.52
443.328	20640.79
443.534	21892.1
443.741	21314.58
443.948	21079.06
444.154	22543.36
444.361	22397.95
444.568	22623.23
444.774	22735.87
444.981	22899.7
445.187	23528.43
445.394	24454.11
445.6	24431.58
445.807	26069.96
446.013	25238.48
446.22	25717.71
446.426	26713.02
446.633	26803.13
446.839	27941.8
447.046	26946.49
447.252	28292.01
447.459	28726.17
447.665	28359.59
447.871	29543.31
448.078	30579.59
448.284	29356.95
448.491	30229.38
448.697	31157.11
448.903	31781.74
449.11	31845.23
449.316	31351.67
449.522	31953.77
449.728	32988
449.935	32938.85
450.141	32873.31
450.347	33569.62
450.553	32996.19
450.76	33192.79
450.966	34241.35
451.172	33868.62
451.378	34954.05
451.584	34079.57
451.791	35091.26
451.997	34861.89
452.203	35345.21
452.409	35537.72
452.615	35214.14
452.821	33674.07
453.027	33835.86
453.233	35279.68
453.44	34087.76
453.646	34526.02
453.852	34847.55
454.058	35277.63
454.264	34061.13
454.47	35345.21
454.676	34136.91
454.882	35251
455.088	32430.95
455.294	32828.26
455.5	33338.2
455.705	33684.31
455.911	32385.9
456.117	31800.18
456.323	31437.69
456.529	29834.13
456.735	31179.64
456.941	30253.96
457.147	30022.54
457.352	28973.98
457.558	28652.45
457.764	28756.89
457.97	28500.9
458.176	27706.29
458.381	27763.63
458.587	26553.28
458.793	26188.74
458.999	25045.98
459.204	26606.53
459.41	26000.33
459.616	24091.62
459.821	24591.33
460.027	24335.33
460.233	23536.62
460.438	22703.1
460.644	22719.48
460.85	21675.02
461.055	21468.17
461.261	21548.04
461.466	19655.72
461.672	18988.08
461.878	20608.03
462.083	19524.65
462.289	18895.92
462.494	18674.74
462.7	17859.65
462.905	17374.28
463.111	17919.04
463.316	18074.69
463.522	17501.26
463.727	17712.2
463.932	17878.08
464.138	17417.29
464.343	17646.66
464.549	17044.56
464.754	17368.14
464.959	17638.47
465.165	17259.6
465.37	16507.99
465.575	15914.08
465.781	17138.77
465.986	16723.03
466.191	16114.78
466.397	15932.51
466.602	15225.97
466.807	15647.85
467.012	15492.2
467.218	15686.76
467.423	15447.15
467.628	15697
467.833	16149.6
468.038	15606.89
468.244	14914.67
468.449	15946.85
468.654	15238.25
468.859	15080.56
469.064	15211.63
469.269	14480.5
469.474	14621.81
469.679	14693.49
469.885	14429.31
470.09	14771.32
470.295	14435.45
470.5	14165.12
470.705	14115.97
470.91	13706.37
471.115	13915.26
471.32	14173.31
471.525	13771.91
471.73	13698.18
471.935	13538.44
472.139	13323.4
472.344	13347.98
472.549	13366.41
472.754	12909.71
472.959	12663.96
473.164	12680.34
473.369	12524.69
473.574	12612.76
473.778	12739.73
473.983	12577.94
474.188	12670.1
474.393	11975.84
474.598	11930.78
474.802	12043.42
475.007	11932.83
475.212	11887.78
475.417	11412.65
475.621	11535.53
475.826	11404.46
476.031	11095.21
476.235	11068.59
476.44	11211.95
476.645	10908.85
476.849	10863.79
477.054	10740.91
477.259	10646.71
477.463	10577.08
477.668	10413.24
477.872	10554.55
478.077	10427.57
478.282	9940.16
478.486	10128.57
478.691	9919.68
478.895	9866.43
479.1	9870.53
479.304	9768.13
479.509	9514.18
479.713	9696.45
479.918	9655.49
480.122	9223.37
480.326	9675.97
480.531	9698.5
480.735	9436.36
480.94	9403.59
481.144	9606.34
481.348	9204.94
481.553	9299.14
481.757	9037
481.961	9473.22
482.166	9432.26
482.37	9249.99
482.574	8862.93
482.778	9030.86
482.983	9561.28
483.187	9114.83
483.391	9202.89
483.595	9055.44
483.8	9061.58
484.004	9260.23
484.208	9331.91
484.412	9172.17
484.616	9049.29
484.821	9217.22
485.025	9135.31
485.229	9174.22
485.433	8981.71
485.637	9131.21
485.841	8926.41
486.045	9063.63
486.249	9022.67
486.453	8873.17
486.657	9004.24
486.861	9221.32
487.065	8799.44
487.269	8994
487.473	8981.71
487.677	9280.71
487.881	9221.32
488.085	9184.46
488.289	9127.11
488.493	9229.51
488.697	9139.4
488.901	9108.68
489.105	9268.42
489.309	9270.47
489.512	9286.86
489.716	9151.69
489.92	9178.31
490.124	9227.46
490.328	9340.1
490.531	9090.25
490.735	9331.91
490.939	9282.76
491.143	9057.48
491.346	9233.61
491.55	9426.12
491.754	9430.21
491.958	9579.72
492.161	9538.76
492.365	9442.5
492.569	9630.91
492.772	9512.13
492.976	9530.56
493.18	9577.67
493.383	9831.62
493.587	9907.39
493.79	10009.79
493.994	9864.38
494.197	9942.21
494.401	10110.14
494.605	10155.19
494.808	10339.51
495.012	10181.82
495.215	10194.11
495.419	10329.27
495.622	10359.99
495.825	10427.57
496.029	10478.77
496.232	10777.78
496.436	10720.43
496.639	11134.12
496.843	10978.48
497.046	11003.05
497.249	11015.34
497.453	11273.39
497.656	11617.44
497.859	11424.93
498.063	11504.81
498.266	11705.51
498.469	11465.89
498.673	11601.06
498.876	12018.85
499.079	12043.42
499.282	12166.3
499.485	12418.2
499.689	12694.68
499.892	12573.85
500.095	12649.62
500.298	12840.08
500.501	12696.72
500.705	13118.61
500.908	13272.2
501.111	13251.72
501.314	13462.66
501.517	13796.48
501.72	13956.22
501.923	13911.17
502.126	14019.71
502.329	14328.95
502.532	14548.09
502.735	14296.19
502.938	14976.11
503.141	14931.06
503.344	15135.85
503.547	15252.59
503.75	15430.76
503.953	15512.68
504.156	15838.31
504.359	15916.13
504.562	15778.92
504.765	16202.85
504.968	16065.63
505.17	16473.18
505.373	16409.69
505.576	16931.92
505.779	17095.76
505.982	17165.39
506.185	17458.25
506.387	17644.62
506.59	17722.44
506.793	17949.76
506.996	17908.8
507.198	18338.88
507.401	18269.25
507.604	18811.96
507.807	18957.36
508.009	18951.22
508.212	18938.93
508.415	19571.75
508.617	19487.79
508.82	19571.75
509.022	20046.88
509.225	20128.8
509.428	20040.74
509.63	20726.81
509.833	20509.72
510.035	21226.51
510.238	20980.76
510.44	21287.95
510.643	21412.88
510.845	21816.33
511.048	21832.71
511.25	22111.24
511.453	22377.47
511.655	22985.72
511.858	22627.32
512.06	22991.86
512.262	22967.29
512.465	22975.48
512.667	23641.07
512.87	24003.56
513.072	23708.65
513.274	24222.69
513.477	24513.5
513.679	24544.22
513.881	24921.05
514.084	25025.5
514.286	24896.47
514.488	25422.8
514.69	26108.87
514.893	26123.21
515.095	25924.55
515.297	26348.48
515.499	26860.48
515.701	26608.58
515.904	27005.88
516.106	27483.06
516.308	27513.78
516.51	27663.28
516.712	27767.73
516.914	28220.33
517.116	28380.07
517.318	28736.41
517.52	28855.2
517.722	29090.71
517.925	29248.41
518.127	29649.81
518.329	29868.94
518.531	30081.93
518.733	30008.2
518.935	30735.23
519.136	30686.08
519.338	31222.65
519.54	31153.02
519.742	31462.26
519.944	31531.89
520.146	32023.4
520.348	32142.19
520.55	32283.5
520.752	32275.3
520.954	32727.91
521.155	32725.86
521.357	33479.51
521.559	33684.31
521.761	33694.55
521.963	33848.14
522.164	33846.1
522.366	34253.64
522.568	34331.47
522.77	34550.6
522.971	35322.68
523.173	34919.23
523.375	35244.86
523.576	35156.8
523.778	35308.35
523.98	35851.06
524.181	36021.04
524.383	36070.19
524.584	36145.97
524.786	36258.6
524.988	36340.52
525.189	36840.23
525.391	36795.17
525.592	37059.36
525.794	37481.24
525.995	37579.54
526.197	37489.43
526.398	37575.45
526.6	37763.86
526.801	38124.3
527.003	38109.97
527.204	37853.97
527.406	38363.92
527.607	38462.22
527.808	38681.35
528.01	38122.26
528.211	38654.73
528.412	39693.05
528.614	38822.66
528.815	39299.84
529.016	39222.01
529.218	38703.88
529.419	39176.96
529.62	39381.76
529.822	39117.57
530.023	39611.13
530.224	39152.38
530.425	39465.72
530.626	39332.61
530.828	39314.17
531.029	40057.59
531.23	39330.56
531.431	39488.25
531.632	39736.06
531.833	39996.15
532.035	39801.59
532.236	39981.81
532.437	40084.21
532.638	40024.82
532.839	40303.34
533.04	40372.97
533.241	39922.42
533.442	40657.64
533.643	40364.78
533.844	40344.3
534.045	40366.83
534.246	40100.59
534.447	40332.01
534.648	40002.29
534.849	40362.73
535.05	39953.14
535.251	40133.36
535.451	40221.42
535.652	40184.56
535.853	40162.03
536.054	39990
536.255	40202.99
536.456	39940.85
536.657	40657.64
536.857	39934.71
537.058	40344.3
537.259	40413.93
537.46	39983.86
537.66	39992.05
537.861	40319.73
538.062	39805.69
538.263	40368.88
538.463	40243.95
538.664	40262.38
538.865	40547.05
539.065	40364.78
539.266	39871.22
539.466	40448.75
539.667	39549.69
539.868	40495.85
540.068	39975.67
540.269	40035.06
540.469	40489.71
540.67	39957.24
540.87	39977.72
541.071	40315.63
541.271	39983.86
541.472	40135.41
541.672	39934.71
541.873	39656.18
542.073	39348.99
542.274	40008.43
542.474	39981.81
542.675	39867.12
542.875	40184.56
543.075	40082.16
543.276	39416.57
543.476	40235.76
543.676	39789.3
543.877	40094.45
544.077	39553.79
544.277	40110.83
544.478	39539.45
544.678	39901.94
544.878	39740.15
545.078	39666.42
545.279	39672.57
545.479	39537.4
545.679	39592.7
545.879	39879.41
546.079	39586.55
546.28	39795.45
546.48	39457.53
546.68	39774.97
546.88	39721.72
547.08	39777.01
547.28	39475.96
547.48	39439.1
547.68	39592.7
547.88	39103.23
548.081	39656.18
548.281	39441.15
548.481	39295.74
548.681	39756.53
548.881	39236.35
549.081	39131.9
549.28	39162.62
549.48	39658.23
549.68	39387.9
549.88	40178.42
550.08	39181.06
550.28	39457.53
550.48	39553.79
550.68	39736.06
550.88	38884.1
551.08	39084.8
551.279	39617.27
551.479	39191.3
551.679	39246.59
551.879	38959.87
552.079	39660.28
552.278	39293.69
552.478	39422.72
552.678	39185.15
552.878	39310.08
553.077	39068.42
553.277	38935.3
553.477	39254.78
553.676	39052.03
553.876	39039.75
554.076	39422.72
554.275	38673.16
554.475	38937.35
554.674	38986.5
554.874	39217.92
555.074	38804.23
555.273	39164.67
555.473	39103.23
555.672	38390.54
555.872	38718.21
556.071	38800.13
556.271	38937.35
556.47	38761.22
556.67	37931.79
556.869	38570.76
557.068	38503.18
557.268	38304.52
557.467	38347.53
557.667	38347.53
557.866	38279.95
558.065	38664.97
558.265	38015.76
558.464	38169.36
558.663	38357.77
558.863	37847.83
559.062	38515.47
559.261	37851.92
559.461	38535.95
559.66	37944.08
559.859	37782.29
560.058	37589.78
560.258	37798.68
560.457	37280.54
560.656	38011.67
560.855	37448.47
561.054	37833.49
561.253	37292.83
561.453	37849.88
561.652	37741.33
561.851	37884.69
562.05	37174.05
562.249	37335.84
562.448	37620.5
562.647	37141.28
562.846	37051.17
563.045	37485.34
563.244	36770.6
563.443	37683.99
563.642	36766.5
563.841	36807.46
564.04	36887.33
564.239	37272.35
564.438	36500.26
564.637	36829.99
564.836	36913.95
565.035	36377.39
565.234	36668.2
565.432	36342.57
565.631	36588.33
565.83	36819.75
566.029	36508.46
566.228	36283.18
566.427	36191.02
566.625	36301.61
566.824	35560.25
567.023	36324.14
567.222	35457.85
567.42	36184.88
567.619	35982.13
567.818	35820.34
568.016	35404.6
568.215	35756.85
568.414	35779.38
568.612	35908.4
568.811	35590.97
569.01	35535.67
569.208	35029.82
569.407	35599.16
569.605	34851.65
569.804	35543.86
570.002	34671.43
570.201	35044.16
570.4	34970.43
570.598	34421.58
570.797	34345.8
570.995	34706.24
571.193	34468.68
571.392	34962.24
571.59	34288.46
571.789	34251.59
571.987	34265.93
572.186	34237.26
572.384	34085.71
572.582	34413.38
572.781	34323.27
572.979	33674.07
573.177	34161.48
573.376	33960.78
573.574	33594.2
573.772	33870.67
573.971	33362.78
574.169	33319.77
574.367	33207.13
574.565	33342.3
574.763	33274.71
574.962	32820.06
575.16	32932.7
575.358	33237.85
575.556	32975.71
575.754	33135.45
575.952	32918.37
576.151	32856.93
576.349	32392.04
576.547	32469.86
576.745	32639.84
576.943	32273.26
577.141	32258.92
577.339	32521.06
577.537	32361.32
577.735	31931.25
577.933	31871.85
578.131	32090.99
578.329	31871.85
578.527	31587.19
578.725	31650.67
578.923	31490.93
579.121	31662.96
579.319	31349.62
579.516	31890.29
579.714	31503.22
579.912	31202.17
580.11	31126.39
580.308	31292.28
580.506	30989.18
580.704	30700.42
580.901	30997.37
581.099	31046.52
581.297	30856.06
581.495	30561.15
581.692	31007.61
581.89	30419.85
582.088	30733.18
582.285	30233.48
582.483	30411.65
582.681	30462.85
582.878	30196.62
583.076	29991.82
583.274	30174.09
583.471	29600.66
583.669	29721.49
583.866	29502.36
584.064	29694.86
584.262	29176.73
584.459	29965.2
584.657	29571.99
584.854	29883.28
585.052	29465.49
585.249	29471.64
585.447	29389.72
585.644	29236.12
585.841	29297.56
586.039	28935.07
586.236	28947.36
586.434	28877.72
586.631	28525.47
586.828	28455.84
587.026	28699.55
587.223	28695.46
587.42	28595.1
587.618	28484.51
587.815	28083.11
588.012	28136.36
588.21	28132.26
588.407	28496.8
588.604	27962.28
588.801	27876.27
588.999	27726.77
589.196	27661.23
589.393	28079.02
589.59	27939.75
589.787	27401.14
589.984	27481.01
590.182	27247.54
590.379	27524.02
590.576	27413.43
590.773	27306.93
590.97	27073.46
591.167	27024.31
591.364	26911.67
591.561	26858.43
591.758	26733.5
591.955	26719.17
592.152	26760.12
592.349	26592.19
592.546	26600.38
592.743	26504.13
592.94	26201.03
593.137	26448.83
593.334	26418.11
593.531	25758.67
593.727	26201.03
593.924	26180.55
594.121	25824.2
594.318	26088.39
594.515	25639.89
594.712	25881.55
594.908	25517.01
595.105	25383.89
595.302	25408.47
595.499	25418.71
595.696	25414.61
595.892	25123.8
596.089	25275.35
596.286	25420.75
596.482	25232.34
596.679	25050.07
596.876	25009.11
597.072	24832.99
597.269	24832.99
597.466	24626.14
597.662	24486.88
597.859	24538.08
598.055	24626.14
598.252	24316.9
598.448	24380.39
598.645	24519.65
598.841	24218.6
599.038	24175.59
599.234	23870.44
599.431	23835.63
599.627	24028.13
599.824	23714.8
600.02	23675.88
600.217	23931.88
600.413	23784.43
600.609	23456.75
600.806	23401.46
601.002	23700.46
601.198	23389.17
601.395	23061.49
601.591	23286.77
601.787	23307.25
601.984	22789.11
602.18	23016.44
602.376	22594.56
602.572	22848.5
602.769	22983.67
602.965	22596.6
603.161	22868.98
603.357	22586.36
603.553	22641.66
603.75	22688.76
603.946	22078.47
604.142	22416.38
604.338	22225.92
604.534	22246.4
604.73	22234.11
604.926	21820.42
605.122	22217.73
605.318	21939.21
605.514	21988.36
605.71	21650.44
605.906	22162.44
606.102	21505.04
606.298	21658.63
606.494	21523.47
606.69	21658.63
606.886	21623.82
607.082	21632.01
607.278	21660.68
607.474	21062.68
607.67	21787.66
607.866	20847.64
608.062	21263.38
608.257	21132.31
608.453	21130.26
608.649	20962.33
608.845	20988.95
609.041	20806.68
609.236	21089.3
609.432	20800.54
609.628	20556.83
609.824	20655.13
610.019	20630.55
610.215	20679.71
610.411	20644.89
610.606	20679.71
610.802	20716.57
610.998	20462.62
611.193	20415.52
611.389	20204.58
611.584	20440.09
611.78	20106.27
611.976	20065.32
612.171	20499.48
612.367	20419.61
612.562	19936.29
612.758	19842.09
612.953	19964.96
613.149	20132.9
613.344	20007.97
613.539	20259.87
613.735	19852.33
613.93	20010.02
614.126	19844.13
614.321	20032.55
614.517	19983.4
614.712	19854.37
614.907	19655.72
615.103	19995.68
615.298	19749.93
615.493	19831.85
615.688	19369.01
615.884	19686.44
616.079	19489.84
616.274	19784.74
616.47	19432.49
616.665	19371.05
616.86	19280.94
617.055	19395.63
617.25	19049.52
617.445	19242.03
617.641	18869.3
617.836	19262.51
618.031	18775.09
618.226	19250.22
618.421	19008.56
618.616	18971.7
618.811	18916.4
619.006	19049.52
619.201	18351.17
619.396	18912.31
619.591	18113.6
619.786	18330.69
619.981	18340.93
620.176	18566.2
620.371	18099.27
620.566	18273.34
620.761	18371.64
620.956	18140.22
621.151	17824.84
621.346	17902.66
621.541	17896.52
621.735	17857.6
621.93	17523.79
622.125	17509.45
622.32	17220.69
622.515	17165.39
622.709	17228.88
622.904	17271.89
623.099	17073.23
623.294	17140.82
623.488	16858.2
623.683	16858.2
623.878	16755.8
624.072	16815.19
624.267	16913.49
624.462	16469.08
624.656	16643.16
624.851	16360.54
625.046	16301.15
625.24	16172.13
625.435	16032.86
625.629	16184.41
625.824	16034.91
626.018	15860.84
626.213	15633.51
626.407	15578.22
626.602	15197.29
626.796	15477.87
626.991	15459.43
627.185	15311.98
627.38	15426.67
627.574	15254.64
627.768	15041.65
627.963	14826.61
628.157	15015.02
628.352	15012.98
628.546	14627.96
628.74	14785.65
628.935	14636.15
629.129	14425.21
629.323	14437.5
629.517	14474.36
629.712	14451.83
629.906	14292.09
630.1	14115.97
630.294	14197.88
630.489	14206.08
630.683	14048.38
630.877	13857.92
631.071	13671.56
631.265	14023.81
631.459	13456.52
631.653	13337.74
631.848	13485.19
632.042	13388.94
632.236	13208.72
632.43	13186.19
632.624	13175.95
632.818	13053.07
633.012	13028.49
633.206	12833.94
633.4	13020.3
633.594	13145.23
633.788	12956.82
633.982	12690.58
634.176	12772.5
634.369	12702.87
634.563	12412.06
634.757	12608.66
634.951	12397.72
635.145	12444.82
635.339	12401.82
635.533	12235.93
635.726	12379.29
635.92	12002.46
636.114	11961.5
636.308	11943.07
636.501	11998.37
636.695	11863.2
636.889	11848.86
637.083	11826.34
637.276	11510.95
637.47	11488.42
637.664	11506.85
637.857	11453.61
638.051	11445.41
638.244	11562.15
638.438	11365.54
638.632	11191.47
638.825	11207.85
639.019	11156.65
639.212	11216.04
639.406	11089.07
639.599	10806.45
639.793	11046.06
639.986	10695.86
640.18	10833.07
640.373	10798.26
640.567	10714.29
640.76	10478.77
640.954	10519.73
641.147	10689.71
641.34	10302.65
641.534	10415.29
641.727	10489.01
641.92	10271.93
642.114	10276.02
642.307	10060.99
642.5	10392.76
642.694	9979.07
642.887	10038.46
643.08	10122.43
643.273	9995.45
643.467	9868.48
643.66	9737.41
643.853	9692.35
644.046	9829.57
644.239	9561.28
644.432	9596.1
644.626	9438.41
644.819	9415.88
645.012	9585.86
645.205	9434.31
645.398	9495.75
645.591	9258.18
645.784	9213.13
645.977	9037
646.17	9135.31
646.363	8944.84
646.556	8946.89
646.749	8950.99
646.942	9051.34
647.135	9077.96
647.328	8795.34
647.521	8834.25
647.714	8840.4
647.907	8643.79
648.099	8688.85
648.292	8625.36
648.485	8611.03
648.678	8455.38
648.871	8529.11
649.064	8340.69
649.256	8439
649.449	8422.61
649.642	8324.31
649.835	8287.45
650.027	8129.75
650.22	8295.64
650.413	8187.1
650.605	8096.99
650.798	8074.46
650.991	7992.54
651.183	7982.3
651.376	8006.88
651.568	8064.22
651.761	7777.5
651.954	7795.93
652.146	7802.08
652.339	7744.74
652.531	7757.02
652.724	7619.81
652.916	7390.44
653.109	7513.31
653.301	7431.4
653.494	7451.88
653.686	7390.44
653.879	7378.15
654.071	7335.14
654.263	7316.71
654.456	7367.91
654.648	7337.19
654.84	7277.8
655.033	7294.18
655.225	6966.51
655.417	6943.98
655.61	7036.14
655.802	7103.72
655.994	6874.35
656.186	6845.68
656.379	6644.98
656.571	6792.43
656.763	6776.05
656.955	6784.24
657.148	6747.37
657.34	6898.92
657.532	6620.4
657.724	6518
657.916	6692.08
658.108	6620.4
658.3	6524.15
658.492	6434.04
658.684	6505.71
658.876	6401.27
659.068	6423.8
659.26	6366.45
659.452	6327.54
659.644	6302.97
659.836	6219
660.028	6362.36
660.22	6190.33
660.412	6182.13
660.604	6132.98
660.796	6186.23
660.988	6169.85
661.18	5891.32
661.372	5778.69
661.563	6089.98
661.755	5901.56
661.947	5893.37
662.139	5944.57
662.331	5711.1
662.522	5743.87
662.714	5725.44
662.906	5643.52
663.097	5928.19
663.289	5594.37
663.481	5686.53
663.673	5664
663.864	5528.83
664.056	5506.31
664.247	5608.7
664.439	5334.28
664.631	5641.47
664.822	5721.34
665.014	5436.67
665.205	5309.7
665.397	5358.85
665.588	5467.39
665.78	5350.66
665.971	5307.65
666.163	5262.6
666.354	5350.66
666.546	5141.77
666.737	4957.45
666.929	5219.59
667.12	5180.68
667.311	5235.97
667.503	5219.59
667.694	5070.09
667.885	5145.86
668.077	5121.29
668.268	4828.43
668.459	4902.15
668.651	4908.3
668.842	4963.59
669.033	4818.19
669.224	4754.7
669.416	4932.87
669.607	4963.59
669.798	4738.32
669.989	4773.13
670.18	4752.65
670.371	4621.58
670.563	4531.47
670.754	4703.5
670.945	4633.87
671.136	4582.67
671.327	4699.41
671.518	4437.27
671.709	4736.27
671.9	4519.18
672.091	4371.73
672.282	4525.33
672.473	4519.18
672.664	4410.64
672.855	4359.44
673.046	4404.5
673.237	4484.37
673.428	4285.72
673.619	4216.08
673.809	4289.81
674	4089.11
674.191	4371.73
674.382	4246.8
674.573	4261.14
674.764	4064.54
674.954	4173.08
675.145	4168.98
675.336	4138.26
675.527	4175.13
675.717	4125.97
675.908	4095.25
676.099	4142.36
676.289	4044.06
676.48	4289.81
676.671	4035.86
676.861	4101.4
677.052	4003.1
677.243	3966.23
677.433	4037.91
677.624	3906.84
677.814	3958.04
678.005	3843.35
678.195	4015.38
678.386	3984.66
678.576	3822.87
678.767	3915.03
678.957	3779.87
679.148	3790.11
679.338	3808.54
679.529	3769.63
679.719	3945.75
679.909	3720.48
680.1	3704.09
680.29	3714.33
680.481	3673.37
680.671	3763.48
680.861	3726.62
681.052	3706.14
681.242	3585.31
681.432	3702.04
681.622	3669.28
681.813	3540.26
682.003	3550.5
682.193	3503.39
682.383	3601.69
682.573	3534.11
682.764	3519.78
682.954	3683.61
683.144	3532.06
683.334	3458.34
683.524	3503.39
683.714	3470.62
683.904	3523.87
684.094	3482.91
684.284	3482.91
684.474	3489.06
684.664	3425.57
684.854	3304.74
685.044	3357.99
685.234	3370.27
685.424	3335.46
685.614	3360.03
685.804	3355.94
685.994	3396.9
686.184	3271.97
686.374	3425.57
686.564	3310.88
686.753	3343.65
686.943	3188
687.133	3319.07
687.323	3298.59
687.513	3278.12
687.702	3253.54
687.892	3280.16
688.082	3296.55
688.272	3214.63
688.461	3106.09
688.651	3073.32
688.841	2977.06
689.03	3108.13
689.22	3024.17
689.41	3130.66
689.599	2983.21
689.789	3097.89
689.979	2999.59
690.168	3028.26
690.358	3011.88
690.547	2938.15
690.737	3046.69
690.926	2991.4
691.116	2927.91
691.305	3089.7
691.495	2979.11
691.684	2788.65
691.874	2952.49
692.063	2921.77
692.252	2919.72
692.442	2915.62
692.631	2843.95
692.82	2829.61
693.01	2762.03
693.199	2805.03
693.388	2671.92
693.578	2680.11
693.767	2786.6
693.956	2794.79
694.146	2893.1
694.335	2796.84
694.524	2757.93
694.713	2753.84
694.902	2706.73
695.092	2757.93
695.281	2690.35
695.47	2696.49
695.659	2725.16
695.848	2659.63
696.037	2745.64
696.226	2635.05
696.415	2553.13
696.604	2600.24
696.793	2665.77
696.982	2630.96
697.171	2647.34
697.36	2522.41
697.549	2596.14
697.738	2614.57
697.927	2549.04
698.116	2379.06
698.305	2585.9
698.494	2467.12
698.683	2559.28
698.872	2598.19
699.061	2456.88
699.25	2475.31
699.438	2540.85
699.627	2544.94
699.816	2477.36
700.005	2508.08
700.193	2549.04
700.382	2424.11
700.571	2348.34
700.76	2432.3
700.948	2452.78
701.137	2434.35
701.326	2422.06
701.514	2370.87
701.703	2471.22
701.892	2366.77
702.08	2469.17
702.269	2452.78
702.457	2389.3
702.646	2426.16
702.834	2370.87
703.023	2358.58
703.212	2364.72
703.4	2501.94
703.589	2176.31
703.777	2360.63
703.965	2436.4
704.154	2334
704.342	2336.05
704.531	2381.1
704.719	2346.29
704.907	2196.79
705.096	2340.15
705.284	2317.62
705.472	2327.86
705.661	2403.63
705.849	2338.1
706.037	2319.67
706.226	2313.52
706.414	2327.86
706.602	2303.28
706.79	2295.09
706.979	2207.03
707.167	2254.13
707.355	2247.99
707.543	2213.17
707.731	2422.06
707.919	2303.28
708.107	2319.67
708.296	2262.32
708.484	2252.08
708.672	2266.42
708.86	2164.02
709.048	2196.79
709.236	2272.56
709.424	2305.33
709.612	2213.17
709.8	2342.19
709.988	2161.97
710.176	2233.65
710.364	2286.9
710.551	2284.85
710.739	2262.32
710.927	2198.84
711.115	2145.59
711.303	2149.68
711.491	2131.25
711.679	2198.84
711.866	2135.35
712.054	2151.73
712.242	2166.07
712.43	2194.74
712.617	2153.78
712.805	2207.03
712.993	2121.01
713.181	2180.4
713.368	2229.56
713.556	2297.14
713.744	2192.69
713.931	2243.89
714.119	2204.98
714.306	2200.88
714.494	2164.02
714.682	2290.99
714.869	2078.01
715.057	2114.87
715.244	2118.96
715.432	2272.56
715.619	2149.68
715.807	2096.44
715.994	2184.5
716.182	2094.39
716.369	2188.6
716.556	2204.98
716.744	2131.25
716.931	2166.07
717.119	2227.51
717.306	2190.64
717.493	2229.56
717.681	2114.87
717.868	2123.06
718.055	2194.74
718.242	2116.92
718.43	2129.2
718.617	2157.88
718.804	2215.22
718.991	2094.39
719.179	2264.37
719.366	2184.5
719.553	2180.4
719.74	2147.64
719.927	2082.1
720.114	2127.16
720.301	2123.06
720.488	2157.88
720.676	2030.9
720.863	2084.15
721.05	2153.78
721.237	2182.45
721.424	2082.1
721.611	2139.44
721.798	2112.82
721.985	2000.18
722.172	2037.05
722.358	2192.69
722.545	2129.2
722.732	2141.49
722.919	2098.49
723.106	2092.34
723.293	2057.53
723.48	2129.2
723.667	1996.09
723.853	2174.26
724.04	2106.68
724.227	2166.07
724.414	2112.82
724.6	2106.68
724.787	2135.35
724.974	2182.45
725.161	2168.12
725.347	2051.38
725.534	2297.14
725.72	2164.02
725.907	2078.01
726.094	2059.57
726.28	2213.17
726.467	2051.38
726.653	2231.6
726.84	2139.44
727.027	2188.6
727.213	2010.42
727.4	2032.95
727.586	2002.23
727.773	2028.85
727.959	2041.14
728.145	2049.33
728.332	2069.81
728.518	2006.33
728.705	2057.53
728.891	2008.37
729.077	2110.77
729.264	2151.73
729.45	2012.47
729.636	2192.69
729.823	2061.62
730.009	2250.03
730.195	2041.14
730.382	2184.5
730.568	2057.53
730.754	2057.53
730.94	2092.34
731.126	2164.02
731.313	2016.57
731.499	2067.77
731.685	2030.9
731.871	2069.81
732.057	2065.72
732.243	1924.41
732.429	2116.92
732.615	2065.72
732.801	2004.28
732.987	2055.48
733.173	2078.01
733.359	1938.74
733.545	2090.29
733.731	2026.81
733.917	2024.76
734.103	1965.37
734.289	2098.49
734.475	2045.24
734.661	2075.96
734.847	1994.04
735.033	2020.66
735.219	1955.13
735.404	2032.95
735.59	2061.62
735.776	2000.18
735.962	2067.77
736.148	1922.36
736.333	2049.33
736.519	2049.33
736.705	2069.81
736.89	2043.19
737.076	2030.9
737.262	1922.36
737.447	1928.5
737.633	1963.32
737.819	2024.76
738.004	1983.8
738.19	1901.88
738.375	2043.19
738.561	1967.42
738.747	1871.16
738.932	1910.07
739.118	1869.11
739.303	1865.02
739.489	2018.61
739.674	1834.3
739.859	1828.15
740.045	1928.5
740.23	1946.94
740.416	1895.74
740.601	1932.6
740.786	1914.17
740.972	1983.8
741.157	1918.26
741.342	1918.26
741.528	1918.26
741.713	1895.74
741.898	1842.49
742.084	1967.42
742.269	1865.02
742.454	1822.01
742.639	1799.48
742.824	2000.18
743.01	1959.22
743.195	1893.69
743.38	1787.19
743.565	1840.44
743.75	1842.49
743.935	1797.43
744.12	1844.54
744.305	1881.4
744.49	1754.43
744.675	1897.78
744.86	1770.81
745.045	1819.96
745.23	1772.86
745.415	1662.27
745.6	1748.28
745.785	1658.17
745.97	1738.04
746.155	1770.81
746.34	1738.04
746.525	1721.66
746.71	1721.66
746.895	1705.28
747.079	1639.74
747.264	1721.66
747.449	1690.94
747.634	1762.62
747.819	1529.15
748.003	1606.97
748.188	1508.67
748.373	1633.6
748.557	1588.54
748.742	1629.5
748.927	1639.74
749.111	1512.77
749.296	1391.94
749.481	1625.4
749.665	1586.49
749.85	1557.82
750.034	1516.86
750.219	1494.33
750.404	1467.71
750.588	1553.73
750.773	1475.9
750.957	1467.71
751.141	1385.79
751.326	1598.78
751.51	1385.79
751.695	1502.53
751.879	1477.95
752.064	1426.75
752.248	1418.56
752.432	1447.23
752.617	1473.85
752.801	1365.31
752.985	1279.3
753.17	1271.11
753.354	1402.18
753.538	1443.14
753.722	1346.88
753.907	1303.87
754.091	1275.2
754.275	1346.88
754.459	1228.1
754.643	1295.68
754.828	1336.64
755.012	1297.73
755.196	1181
755.38	1207.62
755.564	1303.87
755.748	1201.47
755.932	1271.11
756.116	1144.13
756.3	1242.43
756.484	1246.53
756.668	1232.19
756.852	1209.67
757.036	1256.77
757.22	1146.18
757.404	1121.6
757.588	1131.84
757.772	1262.91
757.956	1156.42
758.14	1183.04
758.323	1154.37
758.507	1164.61
758.691	1207.62
758.875	1133.89
759.059	1150.28
759.242	1068.36
759.426	1107.27
759.61	1068.36
759.794	1078.6
759.977	1076.55
760.161	1197.38
760.345	1131.84
760.528	1068.36
760.712	1101.12
760.895	1043.78
761.079	1041.73
761.263	1152.32
761.446	929.1
761.63	1033.54
761.813	1035.59
761.997	984.39
762.18	1019.21
762.364	1035.59
762.547	1019.21
762.731	951.62
762.914	953.67
763.098	992.58
763.281	976.2
763.464	968.01
763.648	896.33
763.831	957.77
764.015	945.48
764.198	937.29
764.381	871.75
764.564	976.2
764.748	955.72
764.931	968.01
765.114	1000.77
765.297	1049.93
765.481	951.62
765.664	853.32
765.847	845.13
766.03	1017.16
766.213	892.23
766.397	935.24
766.58	910.66
766.763	959.81
766.946	945.48
767.129	945.48
767.312	925
767.495	838.98
767.678	1008.97
767.861	968.01
768.044	812.36
768.227	881.99
768.41	845.13
768.593	841.03
768.776	916.81
768.959	851.27
769.142	955.72
769.324	861.51
769.507	851.27
769.69	814.41
769.873	845.13
770.056	863.56
770.239	851.27
770.421	871.75
770.604	877.9
770.787	806.22
770.97	865.61
771.152	763.21
771.335	804.17
771.518	849.22
771.7	841.03
771.883	828.74
772.066	820.55
772.248	787.79
772.431	804.17
772.613	847.18
772.796	750.92
772.978	816.46
773.161	869.7
773.343	800.07
773.526	738.63
773.708	820.55
773.891	693.58
774.073	791.88
774.256	763.21
774.438	804.17
774.621	730.44
774.803	673.1
774.985	724.3
775.168	707.91
775.35	714.06
775.532	767.31
775.715	722.25
775.897	724.3
776.079	752.97
776.261	746.83
776.444	709.96
776.626	732.49
776.808	707.91
776.99	746.83
777.173	615.76
777.355	755.02
777.537	685.39
777.719	705.87
777.901	623.95
778.083	558.41
778.265	705.87
778.447	697.67
778.629	679.24
778.811	664.91
778.993	566.6
779.175	654.67
779.357	527.69
779.539	601.42
779.721	640.33
779.903	599.37
780.085	591.18
780.267	626
780.449	640.33
780.631	607.56
780.812	652.62
780.994	673.1
781.176	652.62
781.358	566.6
781.54	562.51
781.721	626
781.903	429.39
782.085	593.23
782.267	585.04
782.448	456.01
782.63	505.17
782.812	535.89
782.993	564.56
783.175	484.69
783.357	515.41
783.538	566.6
783.72	542.03
783.901	509.26
784.083	564.56
784.264	494.93
784.446	423.25
784.627	392.53
784.809	492.88
784.99	468.3
785.172	365.9
785.353	433.49
785.535	535.89
785.716	408.91
785.897	456.01
786.079	392.53
786.26	435.53
786.441	406.86
786.623	402.77
786.804	443.73
786.985	437.58
787.167	365.9
787.348	406.86
787.529	468.3
787.71	353.62
787.891	460.11
788.073	374.1
788.254	431.44
788.435	427.34
788.616	460.11
788.797	351.57
788.978	419.15
789.159	400.72
789.34	431.44
789.522	329.04
789.703	370
789.884	345.42
790.065	429.39
790.246	374.1
790.427	392.53
790.607	376.14
790.788	488.78
790.969	345.42
791.15	370
791.331	337.23
791.512	370
791.693	300.37
791.874	427.34
792.054	394.58
792.235	370
792.416	359.76
792.597	261.46
792.778	329.04
792.958	388.43
793.139	292.18
793.32	318.8
793.5	265.55
793.681	298.32
793.862	308.56
794.042	279.89
794.223	294.22
794.404	341.33
794.584	283.98
794.765	298.32
794.945	300.37
795.126	322.9
795.306	312.66
795.487	306.51
795.667	247.12
795.848	222.55
796.028	267.6
796.209	275.79
796.389	283.98
796.57	298.32
796.75	240.98
796.93	277.84
797.111	261.46
797.291	304.46
797.471	300.37
797.652	238.93
797.832	206.16
798.012	197.97
798.192	290.13
798.373	214.35
798.553	253.27
798.733	279.89
798.913	275.79
799.093	288.08
799.274	218.45
799.454	200.02
799.634	288.08
799.814	255.31
799.994	322.9
800.174	177.49
800.354	247.12
800.534	247.12
800.714	312.66
800.894	288.08
801.074	191.83
801.254	173.39
801.434	277.84
801.614	234.83
801.794	167.25
801.974	791.88
802.154	173.39
802.334	208.21
802.514	193.87
802.693	189.78
802.873	206.16
803.053	312.66
803.233	210.26
803.413	255.31
803.592	200.02
803.772	257.36
803.952	234.83
804.131	116.05
804.311	245.07
804.491	159.06
804.67	185.68
804.85	165.2
805.03	279.89
805.209	312.66
805.389	212.31
805.568	222.55
805.748	226.64
805.928	197.97
806.107	148.82
806.287	200.02
806.466	173.39
806.646	208.21
806.825	195.92
807.004	134.48
807.184	204.11
807.363	177.49
807.543	191.83
807.722	142.68
807.901	255.31
808.081	202.07
808.26	116.05
808.439	134.48
808.619	200.02
808.798	165.2
808.977	224.59
809.156	197.97
809.336	206.16
809.515	238.93
809.694	230.74
809.873	175.44
810.052	161.11
810.231	232.79
810.411	111.96
810.59	230.74
810.769	167.25
810.948	181.59
811.127	159.06
811.306	210.26
811.485	111.96
811.664	138.58
811.843	218.45
812.022	183.63
812.201	132.44
812.38	157.01
812.559	120.15
812.737	124.24
812.916	85.33
813.095	148.82
813.274	183.63
813.453	224.59
813.632	157.01
813.811	142.68
813.989	138.58
814.168	181.59
814.347	150.87
814.526	216.4
814.704	165.2
814.883	234.83
815.062	124.24
815.24	148.82
815.419	77.14
815.598	193.87
815.776	116.05
815.955	157.01
816.133	95.57
816.312	142.68
816.49	148.82
816.669	183.63
816.847	58.71
817.026	163.15
817.204	140.63
817.383	107.86
817.561	122.2
817.74	165.2
817.918	105.81
818.097	171.35
818.275	157.01
818.453	132.44
818.632	120.15
818.81	105.81
818.988	124.24
819.167	124.24
819.345	83.28
819.523	111.96
819.701	120.15
819.879	150.87
820.058	165.2
820.236	111.96
820.414	148.82
820.592	124.24
820.77	159.06
820.948	83.28
821.127	71
821.305	118.1
821.483	159.06
821.661	148.82
821.839	132.44
822.017	161.11
822.195	118.1
822.373	144.72
822.551	27.99
822.729	148.82
822.907	95.57
823.085	126.29
823.262	140.63
823.44	126.29
823.618	124.24
823.796	132.44
823.974	87.38
824.152	50.52
824.329	91.48
824.507	85.33
824.685	124.24
824.863	50.52
825.04	79.19
825.218	25.94
825.396	95.57
825.574	116.05
825.751	99.67
825.929	132.44
826.107	99.67
826.284	85.33
826.462	93.52
826.639	99.67
826.817	71
826.994	99.67
827.172	1.37
827.349	189.78
827.527	87.38
827.704	60.76
827.882	136.53
828.059	114
828.237	103.76
828.414	197.97
828.591	17.75
828.769	111.96
828.946	64.85
829.124	50.52
829.301	109.91
829.478	103.76
829.655	62.8
829.833	42.32
830.01	58.71
830.187	118.1
830.364	58.71
830.542	27.99
830.719	124.24
830.896	58.71
831.073	42.32
831.25	99.67
831.427	50.52
831.604	75.09
831.782	52.56
831.959	87.38
832.136	46.42
832.313	81.24
832.49	150.87
832.667	124.24
832.844	118.1
833.021	62.8
833.198	154.96
833.374	124.24
833.551	30.04
833.728	144.72
833.905	75.09
834.082	9.56
834.259	87.38
834.436	50.52
834.612	75.09
834.789	52.56
834.966	71
835.143	130.39
835.319	-6.83
835.496	56.66
835.673	58.71
835.85	109.91
836.026	109.91
836.203	93.52
836.38	46.42
836.556	17.75
836.733	9.56
836.909	144.72
837.086	25.94
837.262	27.99
837.439	5.46
837.616	148.82
837.792	38.23
837.968	50.52
838.145	15.7
838.321	34.13
838.498	38.23
838.674	132.44
838.851	75.09
839.027	56.66
839.203	19.8
839.38	75.09
839.556	34.13
839.732	17.75
839.909	42.32
840.085	97.62
840.261	3.41
840.437	-4.78
840.614	54.61
840.79	91.48
840.966	34.13
841.142	-37.55
841.318	38.23
841.494	17.75
841.671	101.72
841.847	32.08
842.023	54.61
842.199	75.09
842.375	62.8
842.551	56.66
842.727	3.41
842.903	134.48
843.079	-2.73
843.255	58.71
843.431	34.13
843.607	9.56
843.783	-25.26
843.959	77.14
844.134	103.76
844.31	93.52
844.486	-10.92
844.662	79.19
844.838	-19.11
845.013	58.71
845.189	34.13
845.365	34.13
845.541	30.04
845.716	75.09
845.892	19.8
846.068	89.43
846.244	36.18
846.419	107.86
846.595	71
846.77	3.41
846.946	71
847.122	85.33
847.297	1.37
847.473	103.76
847.648	23.89
847.824	46.42
847.999	30.04
848.175	-15.02
848.35	83.28
848.526	36.18
848.701	71
848.876	83.28
849.052	17.75
849.227	50.52
849.403	46.42
849.578	-2.73
849.753	27.99
849.929	128.34
850.104	42.32
850.279	58.71
850.454	48.47
850.63	116.05
850.805	-2.73
850.98	-27.31
851.155	58.71
851.33	75.09
851.505	27.99
851.681	83.28
851.856	-6.83
852.031	5.46
852.206	52.56
852.381	-72.36
852.556	27.99
852.731	5.46
852.906	58.71
853.081	36.18
853.256	13.65
853.431	1.37
853.606	15.7
853.781	79.19
853.956	46.42
854.131	25.94
854.305	-25.26
854.48	42.32
854.655	25.94
854.83	52.56
855.005	13.65
855.18	30.04
855.354	68.95
855.529	-31.4
855.704	38.23
855.879	83.28
856.053	-23.21
856.228	95.57
856.403	1.37
856.577	60.76
856.752	-27.31
856.926	105.81
857.101	44.37
857.276	-6.83
857.45	21.84
857.625	77.14
857.799	-0.68
857.974	79.19
858.148	19.8
858.323	3.41
858.497	-43.69
858.672	50.52
858.846	50.52
859.02	66.9
859.195	-17.07
859.369	-19.11
859.543	68.95
859.718	101.72
859.892	-12.97
860.066	83.28
860.241	17.75
860.415	-39.59
860.589	-51.88
860.763	3.41
860.938	38.23
861.112	-8.87
861.286	-6.83
861.46	46.42
861.634	13.65
861.808	42.32
861.982	13.65
862.157	83.28
862.331	-0.68
862.505	-10.92
862.679	46.42
862.853	7.51
863.027	34.13
863.201	-8.87
863.375	1.37
863.549	116.05
863.722	-0.68
863.896	17.75
864.07	27.99
864.244	5.46
864.418	-4.78
864.592	-15.02
864.766	66.9
864.939	42.32
865.113	48.47
865.287	-6.83
865.461	9.56
865.634	36.18
865.808	-62.12
865.982	11.61
866.156	-4.78
866.329	7.51
866.503	3.41
866.676	60.76
866.85	30.04
867.024	83.28
867.197	62.8
867.371	36.18
867.544	-55.98
867.718	68.95
867.891	-31.4
868.065	3.41
868.238	9.56
868.412	11.61
868.585	-17.07
868.759	9.56
868.932	15.7
869.105	19.8
869.279	50.52
869.452	-39.59
869.625	-19.11
869.799	54.61
869.972	-35.5
870.145	91.48
870.319	30.04
870.492	-23.21
870.665	-12.97
870.838	27.99
871.011	-33.45
871.185	-2.73
871.358	25.94
871.531	83.28
871.704	-31.4
871.877	-4.78
872.05	62.8
872.223	-27.31
872.396	-6.83
872.569	52.56
872.742	-31.4
872.915	-4.78
873.088	91.48
873.261	-23.21
873.434	27.99
873.607	27.99
873.78	79.19
873.953	1.37
874.126	-15.02
874.299	-62.12
874.471	-72.36
874.644	17.75
874.817	79.19
874.99	138.58
875.163	-6.83
875.335	1.37
875.508	75.09
875.681	9.56
875.853	-23.21
876.026	93.52
876.199	15.7
876.371	66.9
876.544	-2.73
876.717	50.52
876.889	-19.11
877.062	1.37
877.234	-19.11
877.407	40.28
877.579	50.52
877.752	9.56
877.924	-70.31
878.097	17.75
878.269	-45.74
878.442	15.7
878.614	30.04
878.786	34.13
878.959	-17.07
879.131	-6.83
879.303	19.8
879.476	58.71
879.648	25.94
879.82	54.61
879.993	11.61
880.165	-49.83
880.337	50.52
880.509	17.75
880.681	-29.35
880.854	23.89
881.026	30.04
881.198	13.65
881.37	3.41
881.542	36.18
881.714	-12.97
881.886	34.13
882.058	7.51
882.23	79.19
882.402	46.42
882.574	-68.27
882.746	15.7
882.918	17.75
883.09	44.37
883.262	77.14
883.434	-0.68
883.606	15.7
883.778	-53.93
883.95	-27.31
884.122	-19.11
884.293	101.72
884.465	25.94
884.637	85.33
884.809	-55.98
884.98	17.75
885.152	9.56
885.324	36.18
885.496	-21.16
885.667	-23.21
885.839	62.8
886.011	46.42
886.182	56.66
886.354	-2.73
886.525	15.7
886.697	-49.83
886.869	50.52
887.04	3.41
887.212	-41.64
887.383	132.44
887.555	-45.74
887.726	17.75
887.897	-23.21
888.069	-19.11
888.24	-10.92
888.412	-15.02
888.583	19.8
888.754	83.28
888.926	-55.98
889.097	-23.21
889.268	-2.73
889.44	1.37
889.611	-55.98
889.782	-8.87
889.953	11.61
890.125	93.52
890.296	-10.92
890.467	-53.93
890.638	-10.92
890.809	-8.87
890.98	-23.21
891.151	-10.92
891.323	52.56
891.494	5.46
891.665	-60.07
891.836	23.89
892.007	34.13
892.178	48.47
892.349	5.46
892.52	-2.73
892.691	-17.07
892.862	-6.83
893.032	-60.07
893.203	25.94
893.374	95.57
893.545	27.99
893.716	-41.64
893.887	71
894.057	17.75
894.228	27.99
894.399	-53.93
894.57	36.18
894.74	-21.16
894.911	-15.02
895.082	17.75
895.253	9.56
895.423	50.52
895.594	-12.97
895.764	30.04
895.935	-37.55
896.106	-62.12
896.276	-39.59
896.447	-29.35
896.617	-72.36
896.788	13.65
896.958	85.33
897.129	-37.55
897.299	19.8
897.47	-35.5
897.64	-19.11
897.81	13.65
897.981	40.28
898.151	-76.46
898.322	-6.83
898.492	42.32
898.662	50.52
898.832	-2.73
899.003	75.09
899.173	9.56
899.343	-12.97
899.513	5.46
