Data from USB4F104151__39__14-42-55-464.txt Node

Date: Thu Mar 13 14:42:55 EDT 2025
User: louis
Spectrometer: USB4F10415
Trigger mode: 4
Integration Time (sec): 2.000000E-2
Scans to average: 1
Electric dark correction enabled: true
Nonlinearity correction enabled: false
Boxcar width: 0
XAxis mode: Wavelengths
Number of Pixels in Spectrum: 3648
>>>>>Begin Spectral Data<<<<<
178.204	-98.47
178.424	-98.47
178.644	-98.47
178.864	-155.82
179.084	-98.47
179.304	5.97
179.524	-12.46
179.744	5.97
179.964	10.07
180.184	40.79
180.404	-49.32
180.624	-14.51
180.844	14.17
181.064	46.93
181.283	-0.17
181.503	-14.51
181.723	-32.94
181.943	-10.41
182.163	79.7
182.383	3.93
182.602	46.93
182.822	69.46
183.042	63.32
183.262	36.69
183.482	44.88
183.701	12.12
183.921	28.5
184.141	12.12
184.361	20.31
184.58	65.36
184.8	-2.22
185.02	28.5
185.239	61.27
185.459	12.12
185.679	14.17
185.898	-4.27
186.118	36.69
186.338	81.75
186.557	22.36
186.777	28.5
186.997	12.12
187.216	3.93
187.436	98.13
187.655	22.36
187.875	98.13
188.095	55.12
188.314	18.26
188.534	114.52
188.753	36.69
188.973	22.36
189.192	3.93
189.412	69.46
189.631	-4.27
189.851	44.88
190.07	135
190.29	12.12
190.509	-4.27
190.729	65.36
190.948	44.88
191.168	155.47
191.387	24.4
191.607	28.5
191.826	-4.27
192.045	71.51
192.265	53.08
192.484	75.6
192.704	-28.84
192.923	-34.99
193.142	122.71
193.362	85.84
193.581	55.12
193.8	79.7
194.02	44.88
194.239	-10.41
194.458	30.55
194.678	-0.17
194.897	46.93
195.116	77.65
195.335	104.28
195.555	-18.6
195.774	48.98
195.993	87.89
196.212	8.02
196.432	-4.27
196.651	-37.03
196.87	3.93
197.089	30.55
197.308	30.55
197.528	3.93
197.747	12.12
197.966	-32.94
198.185	71.51
198.404	1.88
198.623	5.97
198.842	44.88
199.062	38.74
199.281	83.8
199.5	44.88
199.719	44.88
199.938	24.4
200.157	32.6
200.376	98.13
200.595	12.12
200.814	44.88
201.033	-34.99
201.252	44.88
201.471	61.27
201.69	77.65
201.909	73.56
202.128	51.03
202.347	48.98
202.566	36.69
202.785	22.36
203.004	20.31
203.223	53.08
203.442	75.6
203.661	63.32
203.879	69.46
204.098	120.66
204.317	-16.55
204.536	-8.36
204.755	24.4
204.974	79.7
205.193	14.17
205.411	85.84
205.63	130.9
205.849	77.65
206.068	40.79
206.287	40.79
206.505	-32.94
206.724	20.31
206.943	32.6
207.162	61.27
207.381	114.52
207.599	-20.65
207.818	44.88
208.037	10.07
208.255	12.12
208.474	-28.84
208.693	-20.65
208.911	57.17
209.13	55.12
209.349	22.36
209.567	87.89
209.786	-0.17
210.005	5.97
210.223	1.88
210.442	-8.36
210.661	28.5
210.879	20.31
211.098	14.17
211.316	8.02
211.535	85.84
211.753	46.93
211.972	57.17
212.191	38.74
212.409	3.93
212.628	36.69
212.846	63.32
213.065	3.93
213.283	135
213.502	53.08
213.72	36.69
213.938	10.07
214.157	-30.89
214.375	55.12
214.594	-2.22
214.812	57.17
215.031	87.89
215.249	69.46
215.467	108.37
215.686	8.02
215.904	36.69
216.122	38.74
216.341	38.74
216.559	-2.22
216.778	3.93
216.996	1.88
217.214	73.56
217.432	-28.84
217.651	-2.22
217.869	-2.22
218.087	28.5
218.306	94.04
218.524	22.36
218.742	14.17
218.96	122.71
219.179	53.08
219.397	69.46
219.615	114.52
219.833	53.08
220.051	40.79
220.27	71.51
220.488	94.04
220.706	8.02
220.924	-28.84
221.142	30.55
221.36	34.64
221.578	38.74
221.796	-2.22
222.015	94.04
222.233	44.88
222.451	36.69
222.669	75.6
222.887	67.41
223.105	-92.33
223.323	87.89
223.541	87.89
223.759	38.74
223.977	48.98
224.195	106.32
224.413	-0.17
224.631	61.27
224.849	79.7
225.067	110.42
225.285	12.12
225.503	24.4
225.721	8.02
225.939	94.04
226.157	55.12
226.375	96.08
226.592	-49.32
226.81	96.08
227.028	12.12
227.246	94.04
227.464	44.88
227.682	18.26
227.9	16.21
228.117	-32.94
228.335	61.27
228.553	30.55
228.771	16.21
228.989	102.23
229.206	-0.17
229.424	-10.41
229.642	46.93
229.86	-20.65
230.077	20.31
230.295	12.12
230.513	57.17
230.731	112.47
230.948	36.69
231.166	73.56
231.384	8.02
231.601	85.84
231.819	102.23
232.037	53.08
232.254	38.74
232.472	40.79
232.689	55.12
232.907	-30.89
233.125	69.46
233.342	-2.22
233.56	-34.99
233.777	12.12
233.995	16.21
234.213	77.65
234.43	28.5
234.648	-37.03
234.865	44.88
235.083	12.12
235.3	79.7
235.518	61.27
235.735	63.32
235.953	40.79
236.17	36.69
236.388	-12.46
236.605	3.93
236.822	55.12
237.04	118.61
237.257	16.21
237.475	85.84
237.692	28.5
237.909	-18.6
238.127	-53.42
238.344	102.23
238.562	96.08
238.779	16.21
238.996	-26.79
239.214	96.08
239.431	116.56
239.648	8.02
239.865	51.03
240.083	20.31
240.3	8.02
240.517	108.37
240.735	85.84
240.952	44.88
241.169	94.04
241.386	5.97
241.603	20.31
241.821	57.17
242.038	24.4
242.255	5.97
242.472	-0.17
242.689	61.27
242.907	-4.27
243.124	-4.27
243.341	118.61
243.558	36.69
243.775	57.17
243.992	-43.18
244.209	73.56
244.426	143.19
244.643	34.64
244.86	10.07
245.078	71.51
245.295	30.55
245.512	85.84
245.729	-18.6
245.946	20.31
246.163	53.08
246.38	-0.17
246.597	-61.61
246.814	63.32
247.031	48.98
247.248	-4.27
247.464	75.6
247.681	-0.17
247.898	79.7
248.115	12.12
248.332	-18.6
248.549	71.51
248.766	44.88
248.983	100.18
249.2	16.21
249.417	69.46
249.633	-18.6
249.85	28.5
250.067	94.04
250.284	53.08
250.501	16.21
250.717	69.46
250.934	63.32
251.151	-34.99
251.368	12.12
251.585	106.32
251.801	20.31
252.018	44.88
252.235	87.89
252.451	-43.18
252.668	77.65
252.885	-28.84
253.102	89.94
253.318	126.8
253.535	-2.22
253.752	3.93
253.968	3.93
254.185	5.97
254.401	63.32
254.618	24.4
254.835	1.88
255.051	91.99
255.268	14.17
255.484	77.65
255.701	63.32
255.917	61.27
256.134	10.07
256.351	-18.6
256.567	-26.79
256.784	22.36
257	8.02
257.217	83.8
257.433	24.4
257.65	-0.17
257.866	118.61
258.082	30.55
258.299	-39.08
258.515	30.55
258.732	-16.55
258.948	-0.17
259.165	89.94
259.381	14.17
259.597	-20.65
259.814	46.93
260.03	-39.08
260.246	14.17
260.463	42.84
260.679	102.23
260.895	32.6
261.112	69.46
261.328	12.12
261.544	-2.22
261.761	102.23
261.977	53.08
262.193	-0.17
262.409	51.03
262.626	46.93
262.842	36.69
263.058	34.64
263.274	63.32
263.49	36.69
263.707	28.5
263.923	48.98
264.139	-32.94
264.355	-39.08
264.571	73.56
264.787	81.75
265.004	79.7
265.22	20.31
265.436	71.51
265.652	-77.99
265.868	44.88
266.084	61.27
266.3	71.51
266.516	53.08
266.732	122.71
266.948	16.21
267.164	14.17
267.38	57.17
267.596	55.12
267.812	67.41
268.028	110.42
268.244	36.69
268.46	-4.27
268.676	-61.61
268.892	85.84
269.108	55.12
269.324	-14.51
269.54	40.79
269.756	112.47
269.972	20.31
270.188	81.75
270.403	1.88
270.619	-0.17
270.835	5.97
271.051	77.65
271.267	81.75
271.483	-2.22
271.698	87.89
271.914	73.56
272.13	46.93
272.346	73.56
272.562	-2.22
272.777	79.7
272.993	-16.55
273.209	12.12
273.425	-10.41
273.64	-69.8
273.856	-28.84
274.072	46.93
274.287	-51.37
274.503	-2.22
274.719	28.5
274.934	12.12
275.15	3.93
275.366	20.31
275.581	3.93
275.797	-18.6
276.012	46.93
276.228	44.88
276.444	22.36
276.659	81.75
276.875	18.26
277.09	22.36
277.306	77.65
277.521	102.23
277.737	12.12
277.952	57.17
278.168	102.23
278.383	46.93
278.599	-4.27
278.814	30.55
279.03	36.69
279.245	98.13
279.461	102.23
279.676	61.27
279.892	-4.27
280.107	36.69
280.322	12.12
280.538	38.74
280.753	40.79
280.969	38.74
281.184	71.51
281.399	63.32
281.615	28.5
281.83	32.6
282.045	-37.03
282.26	-4.27
282.476	-4.27
282.691	38.74
282.906	77.65
283.122	53.08
283.337	69.46
283.552	135
283.767	8.02
283.983	145.24
284.198	34.64
284.413	118.61
284.628	53.08
284.843	-6.31
285.058	-4.27
285.274	96.08
285.489	-69.8
285.704	61.27
285.919	46.93
286.134	87.89
286.349	53.08
286.564	-12.46
286.779	44.88
286.995	30.55
287.21	30.55
287.425	-2.22
287.64	3.93
287.855	28.5
288.07	-20.65
288.285	46.93
288.5	77.65
288.715	112.47
288.93	-51.37
289.145	55.12
289.36	14.17
289.575	-2.22
289.79	55.12
290.004	28.5
290.219	61.27
290.434	36.69
290.649	-2.22
290.864	-41.13
291.079	24.4
291.294	44.88
291.509	26.45
291.724	48.98
291.938	-2.22
292.153	102.23
292.368	-2.22
292.583	32.6
292.798	81.75
293.012	55.12
293.227	46.93
293.442	44.88
293.657	89.94
293.871	22.36
294.086	40.79
294.301	69.46
294.516	69.46
294.73	85.84
294.945	38.74
295.16	28.5
295.374	16.21
295.589	12.12
295.804	-37.03
296.018	12.12
296.233	46.93
296.447	69.46
296.662	-49.32
296.877	96.08
297.091	108.37
297.306	44.88
297.52	46.93
297.735	32.6
297.949	69.46
298.164	32.6
298.378	28.5
298.593	65.36
298.807	48.98
299.022	12.12
299.236	63.32
299.451	28.5
299.665	96.08
299.88	-28.84
300.094	-8.36
300.309	110.42
300.523	96.08
300.737	32.6
300.952	79.7
301.166	61.27
301.381	-12.46
301.595	96.08
301.809	106.32
302.024	5.97
302.238	79.7
302.452	85.84
302.667	22.36
302.881	94.04
303.095	71.51
303.309	26.45
303.524	44.88
303.738	30.55
303.952	3.93
304.166	8.02
304.381	12.12
304.595	69.46
304.809	57.17
305.023	81.75
305.237	-20.65
305.452	32.6
305.666	20.31
305.88	10.07
306.094	46.93
306.308	57.17
306.522	3.93
306.736	143.19
306.95	38.74
307.164	44.88
307.379	44.88
307.593	28.5
307.807	46.93
308.021	69.46
308.235	20.31
308.449	20.31
308.663	55.12
308.877	89.94
309.091	14.17
309.305	87.89
309.519	36.69
309.733	112.47
309.947	30.55
310.161	5.97
310.374	20.31
310.588	53.08
310.802	-37.03
311.016	30.55
311.23	-8.36
311.444	26.45
311.658	10.07
311.872	61.27
312.085	69.46
312.299	63.32
312.513	167.76
312.727	46.93
312.941	28.5
313.154	44.88
313.368	30.55
313.582	32.6
313.796	28.5
314.009	32.6
314.223	24.4
314.437	53.08
314.651	16.21
314.864	61.27
315.078	85.84
315.292	79.7
315.505	73.56
315.719	71.51
315.933	22.36
316.146	53.08
316.36	20.31
316.573	73.56
316.787	73.56
317.001	24.4
317.214	53.08
317.428	59.22
317.641	5.97
317.855	79.7
318.068	48.98
318.282	69.46
318.495	12.12
318.709	28.5
318.922	18.26
319.136	94.04
319.349	36.69
319.563	-18.6
319.776	77.65
319.99	-37.03
320.203	110.42
320.417	-10.41
320.63	16.21
320.843	71.51
321.057	108.37
321.27	91.99
321.483	38.74
321.697	89.94
321.91	65.36
322.124	85.84
322.337	28.5
322.55	-2.22
322.763	46.93
322.977	53.08
323.19	77.65
323.403	20.31
323.617	-8.36
323.83	89.94
324.043	8.02
324.256	5.97
324.469	12.12
324.683	69.46
324.896	69.46
325.109	40.79
325.322	-20.65
325.535	143.19
325.748	-12.46
325.962	81.75
326.175	20.31
326.388	-0.17
326.601	32.6
326.814	46.93
327.027	28.5
327.24	69.46
327.453	-37.03
327.666	143.19
327.879	102.23
328.092	14.17
328.305	40.79
328.518	53.08
328.731	53.08
328.944	8.02
329.157	55.12
329.37	96.08
329.583	59.22
329.796	145.24
330.009	16.21
330.222	73.56
330.435	85.84
330.648	36.69
330.861	20.31
331.073	57.17
331.286	51.03
331.499	137.04
331.712	91.99
331.925	46.93
332.138	-4.27
332.35	83.8
332.563	-18.6
332.776	79.7
332.989	36.69
333.202	53.08
333.414	-34.99
333.627	28.5
333.84	20.31
334.053	38.74
334.265	81.75
334.478	69.46
334.691	-12.46
334.903	96.08
335.116	24.4
335.329	36.69
335.541	16.21
335.754	77.65
335.966	30.55
336.179	44.88
336.392	3.93
336.604	3.93
336.817	51.03
337.029	53.08
337.242	85.84
337.454	98.13
337.667	36.69
337.88	147.28
338.092	3.93
338.305	122.71
338.517	48.98
338.729	73.56
338.942	12.12
339.154	-20.65
339.367	-10.41
339.579	8.02
339.792	73.56
340.004	81.75
340.217	96.08
340.429	55.12
340.641	57.17
340.854	53.08
341.066	3.93
341.278	73.56
341.491	159.57
341.703	16.21
341.915	-53.42
342.128	110.42
342.34	63.32
342.552	38.74
342.764	-4.27
342.977	16.21
343.189	53.08
343.401	98.13
343.613	3.93
343.826	-16.55
344.038	-37.03
344.25	48.98
344.462	14.17
344.674	12.12
344.886	8.02
345.099	12.12
345.311	94.04
345.523	12.12
345.735	65.36
345.947	36.69
346.159	26.45
346.371	44.88
346.583	30.55
346.795	94.04
347.007	40.79
347.219	98.13
347.431	46.93
347.643	53.08
347.855	143.19
348.067	-6.31
348.279	89.94
348.491	36.69
348.703	-4.27
348.915	12.12
349.127	46.93
349.339	3.93
349.551	-28.84
349.763	46.93
349.975	28.5
350.187	102.23
350.399	98.13
350.61	57.17
350.822	44.88
351.034	36.69
351.246	81.75
351.458	44.88
351.669	110.42
351.881	30.55
352.093	57.17
352.305	110.42
352.517	94.04
352.728	118.61
352.94	-4.27
353.152	14.17
353.363	16.21
353.575	69.46
353.787	51.03
353.999	85.84
354.21	87.89
354.422	48.98
354.633	22.36
354.845	44.88
355.057	94.04
355.268	69.46
355.48	73.56
355.692	20.31
355.903	53.08
356.115	46.93
356.326	55.12
356.538	53.08
356.749	8.02
356.961	118.61
357.172	53.08
357.384	104.28
357.595	130.9
357.807	57.17
358.018	89.94
358.23	106.32
358.441	94.04
358.653	65.36
358.864	94.04
359.075	77.65
359.287	-18.6
359.498	75.6
359.709	28.5
359.921	79.7
360.132	55.12
360.344	48.98
360.555	32.6
360.766	102.23
360.977	118.61
361.189	87.89
361.4	18.26
361.611	3.93
361.823	48.98
362.034	16.21
362.245	14.17
362.456	-4.27
362.667	22.36
362.879	77.65
363.09	75.6
363.301	69.46
363.512	73.56
363.723	55.12
363.935	69.46
364.146	10.07
364.357	-41.13
364.568	61.27
364.779	-12.46
364.99	81.75
365.201	61.27
365.412	57.17
365.623	-34.99
365.834	42.84
366.045	69.46
366.256	96.08
366.467	-53.42
366.678	114.52
366.889	18.26
367.1	22.36
367.311	87.89
367.522	40.79
367.733	73.56
367.944	102.23
368.155	36.69
368.366	89.94
368.577	67.41
368.788	55.12
368.999	3.93
369.209	36.69
369.42	112.47
369.631	98.13
369.842	89.94
370.053	55.12
370.264	69.46
370.474	65.36
370.685	69.46
370.896	38.74
371.107	104.28
371.317	128.85
371.528	30.55
371.739	36.69
371.95	69.46
372.16	85.84
372.371	3.93
372.582	20.31
372.792	91.99
373.003	30.55
373.214	46.93
373.424	55.12
373.635	79.7
373.846	126.8
374.056	44.88
374.267	3.93
374.477	61.27
374.688	94.04
374.898	42.84
375.109	53.08
375.319	71.51
375.53	77.65
375.74	59.22
375.951	53.08
376.161	110.42
376.372	36.69
376.582	1.88
376.793	94.04
377.003	-28.84
377.214	87.89
377.424	69.46
377.635	73.56
377.845	48.98
378.055	110.42
378.266	-10.41
378.476	57.17
378.686	96.08
378.897	-4.27
379.107	61.27
379.317	79.7
379.528	67.41
379.738	48.98
379.948	96.08
380.158	77.65
380.369	44.88
380.579	32.6
380.789	79.7
380.999	20.31
381.21	59.22
381.42	126.8
381.63	8.02
381.84	40.79
382.05	63.32
382.261	59.22
382.471	135
382.681	18.26
382.891	46.93
383.101	145.24
383.311	12.12
383.521	63.32
383.731	-16.55
383.941	106.32
384.151	46.93
384.361	46.93
384.571	122.71
384.781	104.28
384.991	110.42
385.201	139.09
385.411	61.27
385.621	167.76
385.831	69.46
386.041	32.6
386.251	106.32
386.461	126.8
386.671	77.65
386.881	69.46
387.091	28.5
387.301	28.5
387.511	53.08
387.72	114.52
387.93	71.51
388.14	10.07
388.35	147.28
388.56	96.08
388.769	100.18
388.979	26.45
389.189	83.8
389.399	8.02
389.609	110.42
389.818	16.21
390.028	114.52
390.238	75.6
390.447	34.64
390.657	57.17
390.867	-37.03
391.076	85.84
391.286	110.42
391.496	61.27
391.705	67.41
391.915	32.6
392.125	118.61
392.334	118.61
392.544	53.08
392.753	85.84
392.963	169.81
393.172	73.56
393.382	65.36
393.591	202.58
393.801	77.65
394.01	128.85
394.22	63.32
394.429	65.36
394.639	1.88
394.848	55.12
395.058	57.17
395.267	106.32
395.477	130.9
395.686	143.19
395.895	126.8
396.105	126.8
396.314	28.5
396.524	147.28
396.733	46.93
396.942	126.8
397.152	46.93
397.361	98.13
397.57	151.38
397.78	102.23
397.989	147.28
398.198	132.95
398.407	55.12
398.617	159.57
398.826	61.27
399.035	36.69
399.244	147.28
399.453	44.88
399.663	155.47
399.872	135
400.081	77.65
400.29	167.76
400.499	130.9
400.708	77.65
400.917	32.6
401.127	110.42
401.336	85.84
401.545	196.43
401.754	184.15
401.963	159.57
402.172	135
402.381	77.65
402.59	79.7
402.799	85.84
403.008	137.04
403.217	69.46
403.426	106.32
403.635	151.38
403.844	145.24
404.053	108.37
404.262	178
404.471	210.77
404.68	210.77
404.888	180.05
405.097	167.76
405.306	167.76
405.515	159.57
405.724	159.57
405.933	208.72
406.142	231.25
406.35	216.91
406.559	251.73
406.768	210.77
406.977	233.3
407.185	173.91
407.394	227.15
407.603	264.02
407.812	202.58
408.02	284.5
408.229	272.21
408.438	284.5
408.646	180.05
408.855	276.31
409.064	274.26
409.272	257.87
409.481	245.59
409.69	274.26
409.898	284.5
410.107	276.31
410.315	364.37
410.524	366.42
410.733	405.33
410.941	290.64
411.15	366.42
411.358	354.13
411.567	468.81
411.775	454.48
411.984	438.09
412.192	495.44
412.401	481.1
412.609	505.68
412.818	560.97
413.026	468.81
413.234	601.93
413.443	522.06
413.651	560.97
413.86	583.5
414.068	646.99
414.276	675.66
414.485	532.3
414.693	743.24
414.901	700.23
415.11	718.67
415.318	802.63
415.526	759.63
415.734	790.35
415.943	806.73
416.151	857.93
416.359	823.11
416.567	884.55
416.776	890.7
416.984	1017.67
417.192	1062.73
417.4	956.23
417.608	995.14
417.817	1111.88
418.025	1013.57
418.233	1177.41
418.441	1101.64
418.649	1269.57
418.857	1312.58
419.065	1390.4
419.273	1349.44
419.481	1380.16
419.689	1445.7
419.897	1529.66
420.105	1574.72
420.313	1568.57
420.521	1650.49
420.729	1593.15
420.937	1707.84
421.145	1750.84
421.353	1890.1
421.561	2055.99
421.769	2027.32
421.977	2135.86
422.185	2131.76
422.393	2281.27
422.601	2420.53
422.809	2266.93
423.017	2332.47
423.224	2322.23
423.432	2518.83
423.64	2529.07
423.848	2746.16
424.056	2582.32
424.263	2920.23
424.471	2930.47
424.679	2969.38
424.887	3047.21
425.094	3252
425.302	3131.17
425.51	3323.68
425.718	3462.94
425.925	3503.9
426.133	3600.16
426.341	3798.81
426.548	3960.6
426.756	3985.18
426.964	4140.82
427.171	4230.93
427.379	4495.12
427.586	4386.58
427.794	4513.55
428.001	4892.43
428.209	5023.5
428.417	5009.16
428.624	5267.2
428.832	5316.36
429.039	5207.81
429.247	5314.31
429.454	5852.92
429.662	6031.1
429.869	5744.38
430.076	6029.05
430.284	5959.42
430.491	6405.88
430.699	6565.62
430.906	6520.56
431.114	6721.26
431.321	6917.87
431.528	7020.27
431.736	7581.41
431.943	7810.78
432.15	7440.1
432.358	7802.59
432.565	8191.7
432.772	8117.98
432.979	8494.8
433.187	8662.74
433.394	8730.32
433.601	9250.5
433.808	9318.09
434.016	9375.43
434.223	9727.68
434.43	10237.63
434.637	10047.16
434.844	10501.81
435.052	11042.48
435.259	10794.67
435.466	10825.39
435.673	10835.63
435.88	11523.75
436.087	12248.73
436.294	12154.52
436.501	11730.59
436.708	12080.8
436.915	12730
437.122	13004.43
437.329	12967.57
437.537	13371.02
437.743	13475.46
437.95	13596.29
438.157	14147.2
438.364	14755.44
438.571	14452.34
438.778	14726.77
438.985	16328.28
439.192	15523.43
439.399	16119.39
439.606	15453.8
439.813	16678.49
440.02	17727.05
440.227	17446.48
440.433	17104.46
440.64	17641.03
440.847	17282.64
441.054	17788.49
441.261	19105.33
441.467	18853.43
441.674	19437.1
441.881	19928.61
442.088	19887.65
442.294	19689
442.501	20356.64
442.708	20538.91
442.914	21284.37
443.121	22494.72
443.328	21722.63
443.534	23365.1
443.741	22719.99
443.948	22246.91
444.154	24133.09
444.361	23815.66
444.568	23975.4
444.774	24071.65
444.981	24241.64
445.187	25017.82
445.394	26017.22
445.6	25869.77
445.807	27995.56
446.013	26955.19
446.22	27600.3
446.426	28878.24
446.633	29175.19
446.839	29775.25
447.046	28849.57
447.252	30254.47
447.459	30309.77
447.665	29906.32
447.871	31507.83
448.078	32767.33
448.284	31120.76
448.491	32189.8
448.697	33512.79
448.903	34133.32
449.11	34116.94
449.316	33375.58
449.522	34155.85
449.728	35007.81
449.935	35251.52
450.141	35433.78
450.347	36609.32
450.553	35310.91
450.76	35783.99
450.966	36955.43
451.172	36631.85
451.378	37516.57
451.584	37145.89
451.791	37815.57
451.997	37496.09
452.203	38020.37
452.409	38262.03
452.615	37905.68
452.821	36807.97
453.027	36472.1
453.233	38130.96
453.44	36721.96
453.646	37291.29
453.852	37178.65
454.058	38044.94
454.264	36857.12
454.47	37627.16
454.676	37098.78
454.882	38178.06
455.088	34772.29
455.294	35358.01
455.5	35870
455.705	36646.18
455.911	34913.6
456.117	34221.39
456.323	33918.29
456.529	32134.51
456.735	33303.9
456.941	32435.56
457.147	32306.54
457.352	31323.51
457.558	30895.49
457.764	30686.59
457.97	30393.73
458.176	29781.39
458.381	29654.42
458.587	28376.48
458.793	28261.8
458.999	27131.32
459.204	29044.12
459.41	28272.04
459.616	26402.24
459.821	26312.13
460.027	26281.41
460.233	25822.67
460.438	24509.92
460.644	24661.47
460.85	23694.83
461.055	23092.72
461.261	23375.34
461.466	21708.3
461.672	20672.03
461.878	22251.01
462.083	21007.89
462.289	20612.63
462.494	20475.42
462.7	19559.98
462.905	18927.16
463.111	19627.56
463.316	19783.21
463.522	19027.51
463.727	19250.74
463.932	19281.46
464.138	19242.54
464.343	18884.15
464.549	18427.45
464.754	19308.08
464.959	19109.43
465.165	18984.5
465.37	18054.72
465.575	17735.24
465.781	18363.97
465.986	18224.7
466.191	17808.97
466.397	17458.76
466.602	16574.04
466.807	17444.43
467.012	17180.24
467.218	17184.34
467.423	16875.09
467.628	17083.98
467.833	17763.91
468.038	16850.52
468.244	16784.98
468.449	17374.8
468.654	16571.99
468.859	16701.01
469.064	16633.43
469.269	15863.4
469.474	16150.11
469.679	16768.6
469.885	16039.52
470.09	16055.9
470.295	16193.12
470.5	15767.14
470.705	15814.24
470.91	15429.23
471.115	15068.78
471.32	15521.38
471.525	15461.99
471.73	15265.39
471.935	15142.51
472.139	14329.47
472.344	14765.68
472.549	14491.26
472.754	14380.67
472.959	13979.26
473.164	13893.25
473.369	13737.6
473.574	14354.04
473.778	14071.42
473.983	13817.47
474.188	13696.64
474.393	13250.19
474.598	13454.98
474.802	13368.97
475.007	12983.95
475.212	13225.61
475.417	12811.92
475.621	12781.2
475.826	12836.5
476.031	12414.62
476.235	12177.05
476.44	12377.75
476.645	12097.18
476.849	12144.28
477.054	11845.28
477.259	11925.15
477.463	11824.8
477.668	11632.29
477.872	11775.65
478.077	11495.08
478.282	11122.35
478.486	11277.99
478.691	11120.3
478.895	11013.81
479.1	10942.13
479.304	10870.45
479.509	10612.4
479.713	10970.8
479.918	10464.95
480.122	10391.22
480.326	10624.69
480.531	10739.38
480.735	10456.76
480.94	10442.42
481.144	10849.97
481.348	10129.08
481.553	10448.57
481.757	10106.56
481.961	10137.27
482.166	10333.88
482.37	10303.16
482.574	10145.47
482.778	10102.46
482.983	10444.47
483.187	10229.43
483.391	10245.82
483.595	10096.32
483.8	10104.51
484.004	10139.32
484.208	10340.02
484.412	10038.97
484.616	10229.43
484.821	10262.2
485.025	10145.47
485.229	10211
485.433	10155.71
485.637	10186.43
485.841	9993.92
486.045	10297.02
486.249	10202.81
486.453	10112.7
486.657	10200.76
486.861	10270.39
487.065	9985.72
487.269	10337.98
487.473	10038.97
487.677	10170.04
487.881	10317.5
488.085	10129.08
488.289	10481.33
488.493	10243.77
488.697	10268.34
488.901	10229.43
489.105	10428.09
489.309	10428.09
489.512	10342.07
489.716	10313.4
489.92	10489.53
490.124	10495.67
490.328	10567.35
490.531	10421.94
490.735	10456.76
490.939	10647.22
491.143	10565.3
491.346	10596.02
491.55	10745.52
491.754	10786.48
491.958	10882.74
492.161	10825.39
492.365	10964.65
492.569	10735.28
492.772	10911.41
492.976	11048.62
493.18	10792.62
493.383	10995.37
493.587	11368.1
493.79	11294.38
493.994	11167.4
494.197	11425.45
494.401	11687.59
494.605	11574.95
494.808	11789.99
495.012	11771.55
495.215	11579.04
495.419	12140.19
495.622	11966.11
495.825	12054.17
496.029	12318.36
496.232	12463.77
496.436	12324.51
496.639	12648.08
496.843	12662.42
497.046	12822.16
497.249	12953.23
497.453	12887.7
497.656	13237.9
497.859	13291.15
498.063	13381.26
498.266	13753.99
498.469	13964.93
498.673	13799.04
498.876	13938.3
499.079	13969.02
499.282	14319.23
499.485	14468.73
499.689	14438.01
499.892	15076.98
500.095	14831.22
500.298	15269.48
500.501	15257.2
500.705	15578.73
500.908	15636.07
501.111	15885.92
501.314	16008.8
501.517	16305.76
501.72	16354.91
501.923	16309.85
502.126	16936.53
502.329	17135.18
502.532	16899.67
502.735	17223.25
502.938	17421.9
503.141	17786.44
503.344	17991.23
503.547	17903.17
503.75	18210.37
503.953	18716.22
504.156	18826.81
504.359	18972.21
504.562	19256.88
504.765	19451.44
504.968	19707.43
505.17	19988
505.373	19940.9
505.576	20352.54
505.779	20411.93
505.982	20839.96
506.185	20987.41
506.387	21181.97
506.59	21401.1
506.793	21669.39
506.996	21724.68
507.198	22435.33
507.401	22187.52
507.604	22550.01
507.807	22980.09
508.009	23154.16
508.212	23381.49
508.415	23705.07
508.617	24090.09
508.82	24149.48
509.022	23944.68
509.225	24937.94
509.428	25114.07
509.63	25308.63
509.833	25464.27
510.035	25949.64
510.238	25718.22
510.44	25892.3
510.643	26553.79
510.845	26709.44
511.048	26666.43
511.25	27035.06
511.453	27590.06
511.655	28128.68
511.858	27917.74
512.06	28112.3
512.262	28673.44
512.465	28521.89
512.667	29136.28
512.87	29617.55
513.072	29564.31
513.274	30242.18
513.477	30625.15
513.679	30977.4
513.881	31069.56
514.084	31346.04
514.286	31307.13
514.488	31583.6
514.69	32857.44
514.893	32482.66
515.095	32912.74
515.297	33465.69
515.499	33318.23
515.701	33899.86
515.904	34024.78
516.106	34248.01
516.308	34690.37
516.51	34936.13
516.712	34946.37
516.914	35519.8
517.116	36117.81
517.318	35962.16
517.52	36054.32
517.722	36119.85
517.925	36629.8
518.127	37213.47
518.329	37676.31
518.531	37668.12
518.733	38106.38
518.935	38894.85
519.136	38542.6
519.338	39189.76
519.54	39169.28
519.742	39558.39
519.944	40017.14
520.146	40459.5
520.348	40531.18
520.55	40881.38
520.752	41147.62
520.954	41436.38
521.155	41333.98
521.357	42048.72
521.559	42394.83
521.761	42595.53
521.963	42867.91
522.164	43005.13
522.366	43197.63
522.568	43596.99
522.77	43437.25
522.971	44467.37
523.173	44250.29
523.375	44852.39
523.576	44827.82
523.778	44696.75
523.98	45249.7
524.181	45696.16
524.383	45685.92
524.584	46089.37
524.786	46154.9
524.988	46322.83
525.189	46574.73
525.391	46859.4
525.592	46822.54
525.794	47244.42
525.995	47033.48
526.197	47582.34
526.398	48157.81
526.6	48104.57
526.801	48108.66
527.003	48360.56
527.204	48510.07
527.406	48602.22
527.607	48905.32
527.808	49151.08
528.01	48462.96
528.211	48882.8
528.412	49615.97
528.614	49677.41
528.815	49355.88
529.016	50035.8
529.218	48913.51
529.419	49521.76
529.62	49890.4
529.822	50021.47
530.023	49988.7
530.224	49841.24
530.425	50246.74
530.626	49824.86
530.828	49759.33
531.029	51043.4
531.23	49738.85
531.431	49839.2
531.632	50472.02
531.833	51121.23
532.035	50756.69
532.236	50558.03
532.437	50889.8
532.638	50754.64
532.839	50990.16
533.04	51037.26
533.241	50420.82
533.442	51424.32
533.643	50928.72
533.844	50959.44
534.045	50861.13
534.246	50725.97
534.447	51358.79
534.648	50846.8
534.849	50814.03
535.05	50832.46
535.251	51631.17
535.451	50816.08
535.652	51041.35
535.853	51268.68
536.054	51110.99
536.255	51338.31
536.456	50811.98
536.657	51426.37
536.857	51379.27
537.058	50957.39
537.259	51586.11
537.46	51463.24
537.66	51305.54
537.861	51248.2
538.062	51463.24
538.263	51428.42
538.463	50961.48
538.664	51125.32
538.865	51174.47
539.065	51620.93
539.266	51074.12
539.466	51844.16
539.667	50762.83
539.868	51477.57
540.068	51649.6
540.269	51352.65
540.469	51674.18
540.67	51207.24
540.87	51153.99
541.071	51463.24
541.271	51233.86
541.472	50805.84
541.672	51217.48
541.873	51225.67
542.073	50691.15
542.274	51350.6
542.474	51108.94
542.675	50685.01
542.875	51356.74
543.075	50705.49
543.276	50691.15
543.476	51493.96
543.676	50838.61
543.877	51190.86
544.077	51119.18
544.277	50871.37
544.478	50941
544.678	51098.7
544.878	51010.63
545.078	50840.65
545.279	50525.27
545.479	50658.38
545.679	50986.06
545.879	51012.68
546.079	50898
546.28	51151.94
546.48	50611.28
546.68	50707.54
546.88	50783.31
547.08	50623.57
547.28	50519.12
547.48	50502.74
547.68	50762.83
547.88	50248.79
548.081	50744.4
548.281	50748.49
548.481	50660.43
548.681	51053.64
548.881	50674.77
549.081	50857.04
549.28	50175.06
549.48	50854.99
549.68	50678.86
549.88	51037.26
550.08	50267.22
550.28	50672.72
550.48	50963.53
550.68	50959.44
550.88	50701.39
551.08	50691.15
551.279	50545.75
551.479	50177.11
551.679	50668.62
551.879	50029.66
552.079	50594.9
552.278	50390.1
552.478	50596.95
552.678	50373.72
552.878	50898
553.077	50216.02
553.277	49636.45
553.477	50877.52
553.676	50132.06
553.876	50527.31
554.076	50250.84
554.275	50230.36
554.475	49601.63
554.674	50037.85
554.874	50271.32
555.074	49804.38
555.273	50166.87
555.473	50451.54
555.672	49882.2
555.872	50312.28
556.071	50168.92
556.271	50287.7
556.47	49669.22
556.67	49716.32
556.869	49564.77
557.068	49908.83
557.268	49540.19
557.467	49429.6
557.667	49800.29
557.866	49978.46
558.065	49243.24
558.265	49585.25
558.464	49175.65
558.663	49880.16
558.863	49402.98
559.062	49818.72
559.261	48698.48
559.461	49874.01
559.66	48731.25
559.859	48981.1
560.058	48532.59
560.258	49267.81
560.457	48569.46
560.656	48338.04
560.855	48579.7
561.054	48958.57
561.253	48350.32
561.453	48870.51
561.652	48508.02
561.851	48518.26
562.05	48399.47
562.249	48243.83
562.448	48589.94
562.647	48551.02
562.846	47977.59
563.045	48317.56
563.244	47944.83
563.443	48258.16
563.642	47926.39
563.841	48065.66
564.04	47848.57
564.239	47922.3
564.438	47533.18
564.637	47502.46
564.836	47731.84
565.035	47269
565.234	47737.98
565.432	47404.16
565.631	47135.88
565.83	47529.09
566.029	47060.1
566.228	47232.13
566.427	46859.4
566.625	46824.59
566.824	46496.91
567.023	47105.16
567.222	46449.81
567.42	47373.44
567.619	46744.72
567.818	46486.67
568.016	46843.02
568.215	46826.63
568.414	46118.04
568.612	46761.1
568.811	46394.51
569.01	46509.2
569.208	45735.07
569.407	46208.15
569.605	45386.91
569.804	46308.5
570.002	45491.36
570.201	46036.12
570.4	45171.88
570.598	45126.82
570.797	45270.18
570.995	45352.1
571.193	44950.7
571.392	45057.19
571.59	44545.2
571.789	44844.2
571.987	44852.39
572.186	44815.53
572.384	44606.64
572.582	44526.77
572.781	44569.77
572.979	43982.01
573.177	44450.99
573.376	44055.73
573.574	44041.4
573.772	44190.9
573.971	43920.57
574.169	43850.94
574.367	43609.28
574.565	43738.3
574.763	43480.25
574.962	43586.75
575.16	43035.84
575.358	43367.62
575.556	42949.83
575.754	43418.81
575.952	42978.5
576.151	42364.11
576.349	42347.73
576.547	42712.27
576.745	42460.37
576.943	42697.93
577.141	42634.44
577.339	42665.16
577.537	42034.39
577.735	42110.16
577.933	42022.1
578.131	42298.58
578.329	41839.83
578.527	41258.21
578.725	41864.41
578.923	41661.66
579.121	41108.71
579.319	41733.34
579.516	41454.81
579.714	41305.31
579.912	41166.05
580.11	41262.3
580.308	40522.99
580.506	40439.02
580.704	40039.67
580.901	40502.51
581.099	40522.99
581.297	40262.89
581.495	40303.85
581.692	40606.95
581.89	39810.29
582.088	40252.66
582.285	39615.74
582.483	40027.38
582.681	39701.75
582.878	40019.19
583.076	39179.52
583.274	39941.36
583.471	39050.5
583.669	39462.14
583.866	39081.22
584.064	39288.06
584.262	38784.26
584.459	39431.42
584.657	38403.34
584.854	38765.83
585.052	38264.08
585.249	38855.94
585.447	38542.6
585.644	38014.23
585.841	37983.51
586.039	38556.94
586.236	37752.09
586.434	37803.28
586.631	37754.13
586.828	38110.48
587.026	37815.57
587.223	37764.37
587.42	37324.06
587.618	37287.2
587.815	37258.52
588.012	37037.34
588.21	36775.2
588.407	37315.87
588.604	36963.62
588.801	36734.24
588.999	36523.3
589.196	36312.36
589.393	36668.71
589.59	36390.19
589.787	36259.12
589.984	36185.39
590.182	35675.44
590.379	35945.78
590.576	35980.59
590.773	36095.28
590.97	35712.31
591.167	35798.32
591.364	35108.16
591.561	35405.11
591.758	34837.83
591.955	35013.95
592.152	35274.04
592.349	35050.81
592.546	35423.54
592.743	34876.74
592.94	34469.19
593.137	34671.94
593.334	34688.32
593.531	34112.84
593.727	34440.52
593.924	34440.52
594.121	33981.77
594.318	34215.24
594.515	33557.85
594.712	34092.37
594.908	33764.69
595.105	33756.5
595.302	33117.53
595.499	33662.29
595.696	33475.93
595.892	32961.89
596.089	33484.12
596.286	33459.54
596.482	32783.71
596.679	33008.99
596.876	33119.58
597.072	32865.63
597.269	32812.38
597.466	32273.77
597.662	32343.4
597.859	32130.41
598.055	32220.52
598.252	31860.08
598.448	32177.51
598.645	31829.36
598.841	31851.89
599.038	32236.91
599.234	31675.76
599.431	31399.29
599.627	31112.57
599.824	31552.88
600.02	31210.87
600.217	31214.97
600.413	31010.17
600.609	31214.97
600.806	30940.54
601.002	31133.05
601.198	30893.44
601.395	30928.25
601.591	30377.35
601.787	30561.67
601.984	30485.89
602.18	30569.86
602.376	30164.36
602.572	30475.65
602.769	29902.22
602.965	29824.4
603.161	29867.41
603.357	29924.75
603.553	29418.9
603.75	29762.96
603.946	29021.59
604.142	29441.43
604.338	29193.62
604.534	29396.37
604.73	29011.35
604.926	29156.76
605.122	29070.75
605.318	28816.8
605.514	28362.15
605.71	28667.3
605.906	28622.24
606.102	28571.04
606.298	28575.14
606.494	28259.75
606.69	28564.9
606.886	28315.05
607.082	27803.05
607.278	28226.98
607.474	27964.84
607.67	28462.5
607.866	28050.86
608.062	27860.4
608.257	27612.59
608.453	27874.73
608.649	27606.45
608.845	27463.09
609.041	27561.39
609.236	27557.3
609.432	27626.93
609.628	27327.92
609.824	27289.01
610.019	27125.18
610.215	27366.84
610.411	27061.69
610.606	26813.88
610.802	27229.62
610.998	26650.05
611.193	27243.96
611.389	26924.47
611.584	26645.95
611.78	26379.71
611.976	26715.58
612.171	26691.01
612.367	26574.27
612.562	26447.3
612.758	26131.91
612.953	26301.89
613.149	26545.6
613.344	26127.81
613.539	26424.77
613.735	26265.03
613.93	26203.59
614.126	26049.99
614.321	26463.68
614.517	26105.29
614.712	25959.88
614.907	25771.47
615.103	26189.25
615.298	25681.36
615.493	25714.12
615.688	25443.79
615.884	25912.78
616.079	25220.56
616.274	25611.73
616.47	25621.97
616.665	25492.94
616.86	25255.38
617.055	24997.34
617.25	24942.04
617.445	25048.54
617.641	25028.06
617.836	25343.44
618.031	24583.65
618.226	24753.63
618.421	24475.1
618.616	24999.38
618.811	24540.64
619.006	24999.38
619.201	23918.06
619.396	24235.49
619.591	24245.73
619.786	24014.31
619.981	24014.31
620.176	24307.17
620.371	23897.58
620.566	23586.29
620.761	23799.27
620.956	23688.68
621.151	23119.35
621.346	23385.58
621.541	22875.64
621.735	23107.06
621.93	22797.82
622.125	22943.22
622.32	22414.85
622.515	22523.39
622.709	22519.29
622.904	22371.84
623.099	22267.39
623.294	22234.63
623.488	21988.87
623.683	21888.52
623.878	21728.78
624.072	21833.22
624.267	21440.01
624.462	21669.39
624.656	21292.56
624.851	21259.79
625.046	21014.04
625.24	20936.21
625.435	21026.32
625.629	20680.22
625.824	20559.39
626.018	20772.38
626.213	20254.24
626.407	20391.45
626.602	20237.86
626.796	20287.01
626.991	20162.08
627.185	19918.37
627.38	19772.97
627.574	19539.5
627.768	19334.7
627.963	19258.93
628.157	19095.09
628.352	19568.17
628.546	19299.89
628.74	19136.05
628.935	19140.15
629.129	19246.64
629.323	18789.94
629.517	18839.09
629.712	18617.91
629.906	18632.25
630.1	18198.08
630.294	18439.74
630.489	18443.84
630.683	18263.61
630.877	17870.4
631.071	17856.07
631.265	17886.79
631.459	17841.73
631.653	17571.4
631.848	17595.98
632.042	17430.09
632.236	17411.66
632.43	17362.51
632.624	17370.7
632.818	17045.07
633.012	17155.66
633.206	16954.96
633.4	16838.23
633.594	16490.07
633.788	16918.1
633.982	17073.74
634.176	16625.24
634.369	16709.21
634.563	16170.59
634.757	16131.68
634.951	16313.95
635.145	16189.02
635.339	16117.34
635.533	15873.64
635.726	15814.24
635.92	15724.13
636.114	15668.84
636.308	15769.19
636.501	15834.72
636.695	15392.36
636.889	15257.2
637.083	15408.75
637.276	15197.81
637.47	14872.18
637.664	15249
637.857	14855.79
638.051	14786.16
638.244	14462.58
638.438	14863.99
638.632	14630.52
638.825	14403.19
639.019	14515.83
639.212	14122.62
639.406	14401.15
639.599	14235.26
639.793	13948.54
639.986	14052.99
640.18	13942.4
640.373	13989.5
640.567	13643.4
640.76	13799.04
640.954	13762.18
641.147	13463.18
641.34	13508.23
641.534	13291.15
641.727	13473.42
641.92	13442.7
642.114	13381.26
642.307	13188.75
642.5	13088.4
642.694	12805.78
642.887	12865.17
643.08	13016.72
643.273	12529.3
643.467	12738.19
643.66	12582.55
643.853	12451.48
644.046	12406.42
644.239	12584.6
644.432	12218.01
644.626	12414.62
644.819	12175
645.012	12064.41
645.205	12009.12
645.398	11959.97
645.591	12048.03
645.784	11933.34
645.977	11720.35
646.17	11976.35
646.363	11751.07
646.556	11357.86
646.749	11550.37
646.942	11519.65
647.135	11574.95
647.328	11251.37
647.521	11472.55
647.714	10981.04
647.907	11210.41
648.099	11243.18
648.292	11218.6
648.485	11124.4
648.678	10950.32
648.871	10915.5
649.064	10829.49
649.256	10802.86
649.449	10679.99
649.642	10866.35
649.835	10309.3
650.027	10587.83
650.22	10495.67
650.413	10397.37
650.605	10325.69
650.798	10147.51
650.991	10268.34
651.183	10135.23
651.376	10086.08
651.568	10047.16
651.761	9989.82
651.954	9916.09
652.146	9893.57
652.339	9862.85
652.531	9770.69
652.724	9682.63
652.916	9686.72
653.109	9436.87
653.301	9572.04
653.494	9701.06
653.686	9178.83
653.879	9483.97
654.071	9344.71
654.263	9354.95
654.456	9184.97
654.648	9217.74
654.84	9184.97
655.033	9008.84
655.225	8974.03
655.417	9033.42
655.61	9008.84
655.802	8818.38
655.994	8795.86
656.186	8869.58
656.379	8842.96
656.571	8494.8
656.763	8664.79
656.955	8500.95
657.148	8382.17
657.34	8683.22
657.532	8345.3
657.724	8396.5
657.916	8335.06
658.108	8212.18
658.3	8318.68
658.492	8148.7
658.684	7868.13
658.876	8050.39
659.068	8038.11
659.26	7907.04
659.452	7921.37
659.644	8007.39
659.836	7941.85
660.028	7919.32
660.22	7685.86
660.412	7702.24
660.604	7548.64
660.796	7605.99
660.988	7651.04
661.18	7532.26
661.372	7405.28
661.563	7515.87
661.755	7343.85
661.947	7270.12
662.139	7323.37
662.331	7132.9
662.522	7212.78
662.714	7145.19
662.906	7214.82
663.097	6983.4
663.289	7081.71
663.481	6926.06
663.673	6993.64
663.864	6987.5
664.056	6819.57
664.247	6844.14
664.439	6690.54
664.631	6821.61
664.822	6762.22
665.014	6592.24
665.205	6549.23
665.397	6733.55
665.588	6633.2
665.78	6516.47
665.971	6452.98
666.163	6393.59
666.354	6364.92
666.546	6393.59
666.737	6274.81
666.929	6274.81
667.12	6229.75
667.311	6137.59
667.503	6106.87
667.694	6164.22
667.885	6020.86
668.077	6184.69
668.268	6252.28
668.459	6084.34
668.651	5983.99
668.842	5981.95
669.033	5715.71
669.224	5707.52
669.416	5951.23
669.607	5797.63
669.798	5697.28
669.989	5691.13
670.18	5758.72
670.371	5789.44
670.563	5615.36
670.754	5500.67
670.945	5598.98
671.136	5504.77
671.327	5617.41
671.518	5445.38
671.709	5390.08
671.9	5494.53
672.091	5365.51
672.282	5347.08
672.473	5324.55
672.664	5519.11
672.855	5330.69
673.046	5289.73
673.237	5365.51
673.428	5211.91
673.619	5203.72
673.809	5222.15
674	5173
674.191	5291.78
674.382	5046.02
674.573	5105.42
674.764	5175.05
674.954	5060.36
675.145	5091.08
675.336	5009.16
675.527	4884.23
675.717	5050.12
675.908	4787.98
676.099	4931.34
676.289	4869.9
676.48	4730.64
676.671	4988.68
676.861	4869.9
677.052	4736.78
677.243	4646.67
677.433	4656.91
677.624	4650.77
677.814	4718.35
678.005	4747.02
678.195	4525.84
678.386	4773.64
678.576	4671.25
678.767	4519.7
678.957	4556.56
679.148	4601.62
679.338	4529.94
679.529	4574.99
679.719	4599.57
679.909	4556.56
680.1	4503.31
680.29	4525.84
680.481	4529.94
680.671	4511.5
680.861	4523.79
681.052	4476.69
681.242	4294.42
681.432	4468.5
681.622	4345.62
681.813	4337.43
682.003	4232.98
682.193	4372.24
682.383	4333.33
682.573	4413.2
682.764	4273.94
682.954	4241.17
683.144	4314.9
683.334	4357.91
683.524	4247.32
683.714	4175.64
683.904	4175.64
684.094	4255.51
684.284	4261.65
684.474	4359.95
684.664	4259.6
684.854	4263.7
685.044	4157.21
685.234	3981.08
685.424	4173.59
685.614	3976.98
685.804	4157.21
685.994	4118.29
686.184	4198.17
686.374	4050.71
686.564	3997.46
686.753	3958.55
686.943	4011.8
687.133	3942.17
687.323	4003.61
687.513	4034.33
687.702	3987.22
687.892	3884.83
688.082	3927.83
688.272	4007.7
688.461	3979.03
688.651	3927.83
688.841	3829.53
689.03	3790.62
689.22	3860.25
689.41	3850.01
689.599	3788.57
689.789	3829.53
689.979	3794.72
690.168	3794.72
690.358	3854.11
690.547	3784.48
690.737	3788.57
690.926	3903.26
691.116	3639.07
691.305	3804.96
691.495	3686.17
691.684	3772.19
691.874	3649.31
692.063	3634.97
692.252	3604.25
692.442	3655.45
692.631	3692.32
692.82	3659.55
693.01	3532.58
693.199	3587.87
693.388	3596.06
693.578	3485.47
693.767	3534.62
693.956	3510.05
694.146	3567.39
694.335	3600.16
694.524	3508
694.713	3512.1
694.902	3585.82
695.092	3434.27
695.281	3301.15
695.47	3405.6
695.659	3362.59
695.848	3411.75
696.037	3448.61
696.226	3428.13
696.415	3329.83
696.604	3421.99
696.793	3407.65
696.982	3421.99
697.171	3436.32
697.36	3362.59
697.549	3354.4
697.738	3276.58
697.927	3280.68
698.116	3419.94
698.305	3348.26
698.494	3231.52
698.683	3313.44
698.872	3292.96
699.061	3202.85
699.25	3151.65
699.438	3389.22
699.627	3264.29
699.816	3194.66
700.005	3165.99
700.193	3151.65
700.382	3219.24
700.571	3231.52
700.76	3151.65
700.948	3122.98
701.137	3102.5
701.326	3219.24
701.514	3125.03
701.703	2905.9
701.892	3122.98
702.08	3137.32
702.269	3168.04
702.457	3053.35
702.646	2993.96
702.834	2848.55
703.023	2993.96
703.212	3018.54
703.4	2887.47
703.589	3006.25
703.777	3022.63
703.965	2928.42
704.154	2907.94
704.342	3075.88
704.531	2834.22
704.719	2942.76
704.907	2996.01
705.096	2948.9
705.284	3063.59
705.472	2864.94
705.661	2920.23
705.849	3065.64
706.037	2967.34
706.226	2973.48
706.414	2961.19
706.602	2748.2
706.79	2955.05
706.979	2821.93
707.167	2875.18
707.355	2780.97
707.543	2731.82
707.731	2881.32
707.919	2840.36
708.107	2823.98
708.296	2660.14
708.484	2830.12
708.672	2772.78
708.86	2670.38
709.048	2690.86
709.236	2799.4
709.424	2879.27
709.612	2690.86
709.8	2821.93
709.988	2783.02
710.176	2672.43
710.364	2668.33
710.551	2701.1
710.739	2740.01
710.927	2682.67
711.115	2709.29
711.303	2785.07
711.491	2690.86
711.679	2692.91
711.866	2580.27
712.054	2627.37
712.242	2692.91
712.43	2797.35
712.617	2627.37
712.805	2668.33
712.993	2635.57
713.181	2606.89
713.368	2727.72
713.556	2561.84
713.744	2522.93
713.931	2647.85
714.119	2527.02
714.306	2428.72
714.494	2565.93
714.682	2543.41
714.869	2537.26
715.057	2453.3
715.244	2465.58
715.432	2486.06
715.619	2537.26
715.807	2613.04
715.994	2547.5
716.182	2555.69
716.369	2494.26
716.556	2514.73
716.744	2445.1
716.931	2432.82
717.119	2522.93
717.306	2389.81
717.493	2412.34
717.681	2395.95
717.868	2445.1
718.055	2436.91
718.242	2334.51
718.43	2354.99
718.617	2340.66
718.804	2432.82
718.991	2275.12
719.179	2348.85
719.366	2334.51
719.553	2330.42
719.74	2387.76
719.927	2375.47
720.114	2391.86
720.301	2350.9
720.488	2307.89
720.676	2297.65
720.863	2383.66
721.05	2342.71
721.237	2240.31
721.424	2203.44
721.611	2395.95
721.798	2305.84
721.985	2297.65
722.172	2277.17
722.358	2223.92
722.545	2244.4
722.732	2201.4
722.919	2398
723.106	2232.12
723.293	2258.74
723.48	2281.27
723.667	2217.78
723.853	2207.54
724.04	2225.97
724.227	2191.16
724.414	2144.05
724.6	2236.21
724.787	2129.72
724.974	2242.36
725.161	2168.63
725.347	2092.85
725.534	2053.94
725.72	2135.86
725.907	2170.68
726.094	2201.4
726.28	2174.77
726.467	2146.1
726.653	2019.13
726.84	2060.09
727.027	2137.91
727.213	2099
727.4	2043.7
727.586	2121.52
727.773	2035.51
727.959	2088.76
728.145	2070.33
728.332	2031.41
728.518	2027.32
728.705	2092.85
728.891	2010.93
729.077	2135.86
729.264	2115.38
729.45	1990.45
729.636	2072.37
729.823	1957.69
730.009	2078.52
730.195	2006.84
730.382	2027.32
730.568	1998.65
730.754	1947.45
730.94	1922.87
731.126	1924.92
731.313	1986.36
731.499	1994.55
731.685	2027.32
731.871	1937.21
732.057	1978.17
732.243	2035.51
732.429	2004.79
732.615	1982.26
732.801	1834.81
732.987	1894.2
733.173	1978.17
733.359	1937.21
733.545	1883.96
733.731	1877.82
733.917	2004.79
734.103	1822.52
734.289	1822.52
734.475	1806.14
734.661	1902.39
734.847	1830.71
735.033	1984.31
735.219	1941.3
735.404	1863.48
735.59	1894.2
735.776	1902.39
735.962	1832.76
736.148	1888.06
736.333	1931.06
736.519	1797.95
736.705	1861.43
736.89	1806.14
737.076	1797.95
737.262	1724.22
737.447	1871.67
737.633	1797.95
737.819	1699.64
738.004	1699.64
738.19	1718.08
738.375	1728.31
738.561	1865.53
738.747	1691.45
738.932	1806.14
739.118	1734.46
739.303	1724.22
739.489	1728.31
739.674	1689.4
739.859	1691.45
740.045	1826.62
740.23	1781.56
740.416	1611.58
740.601	1634.11
740.786	1783.61
740.972	1584.96
741.157	1683.26
741.342	1679.16
741.528	1650.49
741.713	1654.59
741.898	1681.21
742.084	1574.72
742.269	1650.49
742.454	1523.52
742.639	1658.68
742.824	1539.9
743.01	1576.77
743.195	1675.07
743.38	1529.66
743.565	1654.59
743.75	1601.34
743.935	1533.76
744.12	1627.96
744.305	1544
744.49	1478.46
744.675	1666.88
744.86	1560.38
745.045	1513.28
745.23	1498.94
745.415	1517.37
745.6	1523.52
745.785	1462.08
745.97	1548.09
746.155	1482.56
746.34	1496.89
746.525	1494.85
746.71	1478.46
746.895	1498.94
747.079	1396.54
747.264	1412.93
747.449	1462.08
747.634	1511.23
747.819	1359.68
748.003	1339.2
748.188	1414.98
748.373	1388.35
748.557	1355.58
748.742	1331.01
748.927	1314.63
749.111	1355.58
749.296	1343.3
749.481	1224.51
749.665	1300.29
749.85	1294.15
750.034	1259.33
750.219	1263.43
750.404	1267.52
750.588	1281.86
750.773	1189.7
750.957	1273.67
751.141	1212.23
751.326	1281.86
751.51	1183.56
751.695	1191.75
751.879	1191.75
752.064	1271.62
752.248	1183.56
752.432	1216.32
752.617	1335.1
752.801	1195.84
752.985	1179.46
753.17	1204.03
753.354	1111.88
753.538	1079.11
753.722	1046.34
753.907	1167.17
754.091	1134.4
754.275	1097.54
754.459	1134.4
754.643	1099.59
754.828	1130.31
755.012	1070.92
755.196	1103.68
755.38	1068.87
755.564	1154.88
755.748	1044.29
755.932	1087.3
756.116	991.05
756.3	1007.43
756.484	1075.01
756.668	958.28
756.852	954.18
757.036	1027.91
757.22	1077.06
757.404	1015.62
757.588	1085.25
757.772	1083.2
757.956	1058.63
758.14	995.14
758.323	997.19
758.507	948.04
758.691	882.5
758.875	915.27
759.059	991.05
759.242	962.37
759.426	915.27
759.61	956.23
759.794	929.61
759.977	915.27
760.161	974.66
760.345	945.99
760.528	905.03
760.712	872.26
760.895	962.37
761.079	882.5
761.263	943.94
761.446	925.51
761.63	907.08
761.813	878.41
761.997	767.82
762.18	790.35
762.364	819.02
762.547	765.77
762.731	765.77
762.914	917.32
763.098	843.59
763.281	780.11
763.464	806.73
763.648	874.31
763.831	870.22
764.015	778.06
764.198	796.49
764.381	798.54
764.564	851.78
764.748	839.5
764.931	851.78
765.114	806.73
765.297	814.92
765.481	851.78
765.664	839.5
765.847	790.35
766.03	798.54
766.213	675.66
766.397	823.11
766.58	757.58
766.763	821.06
766.946	776.01
767.129	751.43
767.312	728.91
767.495	827.21
767.678	700.23
767.861	741.19
768.044	798.54
768.227	784.2
768.41	755.53
768.593	800.59
768.776	685.9
768.959	790.35
769.142	823.11
769.324	730.95
769.507	776.01
769.69	757.58
769.873	616.27
770.056	761.67
770.239	741.19
770.421	714.57
770.604	757.58
770.787	669.52
770.97	667.47
771.152	753.48
771.335	806.73
771.518	677.71
771.7	773.96
771.883	751.43
772.066	692.04
772.248	653.13
772.431	653.13
772.613	702.28
772.796	667.47
772.978	675.66
773.161	716.62
773.343	677.71
773.526	692.04
773.708	616.27
773.891	624.46
774.073	638.8
774.256	634.7
774.438	724.81
774.621	661.32
774.803	761.67
774.985	581.45
775.168	675.66
775.35	618.32
775.532	636.75
775.715	528.21
775.897	638.8
776.079	626.51
776.261	575.31
776.444	520.01
776.626	724.81
776.808	593.74
776.99	614.22
777.173	620.36
777.355	618.32
777.537	524.11
777.719	612.17
777.901	614.22
778.083	593.74
778.265	554.83
778.447	657.23
778.629	556.88
778.811	601.93
778.993	536.4
779.175	563.02
779.357	554.83
779.539	548.68
779.721	593.74
779.903	554.83
780.085	554.83
780.267	534.35
780.449	552.78
780.631	532.3
780.812	581.45
780.994	429.9
781.176	536.4
781.358	503.63
781.54	497.49
781.721	544.59
781.903	505.68
782.085	505.68
782.267	413.52
782.448	407.38
782.63	436.05
782.812	501.58
782.993	489.29
783.175	491.34
783.357	446.29
783.538	470.86
783.72	522.06
783.901	354.13
784.083	552.78
784.264	466.77
784.446	413.52
784.627	405.33
784.809	372.56
784.99	421.71
785.172	382.8
785.353	431.95
785.535	386.9
785.716	341.84
785.897	397.14
786.079	429.9
786.26	339.79
786.441	347.98
786.623	315.22
786.804	311.12
786.985	393.04
787.167	335.7
787.348	405.33
787.529	454.48
787.71	421.71
787.891	427.85
788.073	417.61
788.254	421.71
788.435	470.86
788.616	397.14
788.797	323.41
788.978	309.07
789.159	319.31
789.34	376.66
789.522	298.83
789.703	421.71
789.884	380.75
790.065	378.7
790.246	311.12
790.427	309.07
790.607	325.46
790.788	300.88
790.969	282.45
791.15	274.26
791.331	249.68
791.512	370.51
791.693	225.11
791.874	237.39
792.054	345.94
792.235	339.79
792.416	245.59
792.597	270.16
792.778	276.31
792.958	341.84
793.139	317.26
793.32	335.7
793.5	294.74
793.681	343.89
793.862	321.36
794.042	333.65
794.223	216.91
794.404	231.25
794.584	218.96
794.765	321.36
794.945	288.59
795.126	259.92
795.306	290.64
795.487	212.82
795.667	292.69
795.848	225.11
796.028	323.41
796.209	282.45
796.389	329.55
796.57	290.64
796.75	266.07
796.93	192.34
797.111	233.3
797.291	237.39
797.471	290.64
797.652	302.93
797.832	173.91
798.012	241.49
798.192	196.43
798.373	245.59
798.553	225.11
798.733	282.45
798.913	302.93
799.093	208.72
799.274	290.64
799.454	233.3
799.634	292.69
799.814	245.59
799.994	290.64
800.174	259.92
800.354	245.59
800.534	171.86
800.714	218.96
800.894	233.3
801.074	221.01
801.254	194.39
801.434	300.88
801.614	216.91
801.794	249.68
801.974	773.96
802.154	237.39
802.334	249.68
802.514	161.62
802.693	208.72
802.873	173.91
803.053	227.15
803.233	175.95
803.413	208.72
803.592	163.67
803.772	210.77
803.952	163.67
804.131	196.43
804.311	270.16
804.491	237.39
804.67	241.49
804.85	200.53
805.03	231.25
805.209	286.54
805.389	169.81
805.568	208.72
805.748	112.47
805.928	178
806.107	221.01
806.287	102.23
806.466	155.47
806.646	178
806.825	126.8
807.004	245.59
807.184	167.76
807.363	204.63
807.543	227.15
807.722	163.67
807.901	227.15
808.081	218.96
808.26	128.85
808.439	126.8
808.619	237.39
808.798	135
808.977	167.76
809.156	182.1
809.336	182.1
809.515	167.76
809.694	128.85
809.873	202.58
810.052	186.19
810.231	145.24
810.411	173.91
810.59	112.47
810.769	104.28
810.948	200.53
811.127	126.8
811.306	106.32
811.485	51.03
811.664	151.38
811.843	200.53
812.022	175.95
812.201	143.19
812.38	139.09
812.559	67.41
812.737	196.43
812.916	126.8
813.095	163.67
813.274	112.47
813.453	175.95
813.632	135
813.811	169.81
813.989	137.04
814.168	135
814.347	218.96
814.526	145.24
814.704	63.32
814.883	235.35
815.062	151.38
815.24	210.77
815.419	126.8
815.598	135
815.776	153.43
815.955	139.09
816.133	106.32
816.312	102.23
816.49	71.51
816.669	85.84
816.847	106.32
817.026	79.7
817.204	143.19
817.383	48.98
817.561	87.89
817.74	130.9
817.918	94.04
818.097	130.9
818.275	69.46
818.453	155.47
818.632	161.62
818.81	65.36
818.988	145.24
819.167	81.75
819.345	126.8
819.523	81.75
819.701	85.84
819.879	98.13
820.058	81.75
820.236	61.27
820.414	102.23
820.592	128.85
820.77	120.66
820.948	118.61
821.127	73.56
821.305	85.84
821.483	77.65
821.661	163.67
821.839	163.67
822.017	104.28
822.195	132.95
822.373	73.56
822.551	104.28
822.729	184.15
822.907	69.46
823.085	55.12
823.262	145.24
823.44	40.79
823.618	77.65
823.796	106.32
823.974	63.32
824.152	110.42
824.329	91.99
824.507	120.66
824.685	124.76
824.863	55.12
825.04	118.61
825.218	110.42
825.396	63.32
825.574	143.19
825.751	12.12
825.929	130.9
826.107	44.88
826.284	77.65
826.462	149.33
826.639	137.04
826.817	40.79
826.994	102.23
827.172	42.84
827.349	137.04
827.527	20.31
827.704	147.28
827.882	61.27
828.059	28.5
828.237	14.17
828.414	44.88
828.591	48.98
828.769	61.27
828.946	69.46
829.124	69.46
829.301	79.7
829.478	85.84
829.655	128.85
829.833	44.88
830.01	28.5
830.187	98.13
830.364	118.61
830.542	104.28
830.719	102.23
830.896	69.46
831.073	98.13
831.25	85.84
831.427	122.71
831.604	38.74
831.782	20.31
831.959	110.42
832.136	102.23
832.313	61.27
832.49	55.12
832.667	14.17
832.844	85.84
833.021	114.52
833.198	63.32
833.374	128.85
833.551	122.71
833.728	89.94
833.905	110.42
834.082	-16.55
834.259	34.64
834.436	102.23
834.612	87.89
834.789	46.93
834.966	124.76
835.143	147.28
835.319	69.46
835.496	69.46
835.673	69.46
835.85	40.79
836.026	44.88
836.203	38.74
836.38	-4.27
836.556	85.84
836.733	-10.41
836.909	94.04
837.086	77.65
837.262	-18.6
837.439	24.4
837.616	61.27
837.792	75.6
837.968	53.08
838.145	81.75
838.321	110.42
838.498	110.42
838.674	53.08
838.851	114.52
839.027	102.23
839.203	24.4
839.38	120.66
839.556	59.22
839.732	145.24
839.909	-2.22
840.085	122.71
840.261	46.93
840.437	16.21
840.614	5.97
840.79	102.23
840.966	79.7
841.142	114.52
841.318	55.12
841.494	22.36
841.671	48.98
841.847	44.88
842.023	44.88
842.199	-2.22
842.375	87.89
842.551	1.88
842.727	40.79
842.903	53.08
843.079	55.12
843.255	163.67
843.431	14.17
843.607	-12.46
843.783	53.08
843.959	61.27
844.134	-26.79
844.31	83.8
844.486	12.12
844.662	61.27
844.838	-16.55
845.013	69.46
845.189	79.7
845.365	59.22
845.541	38.74
845.716	77.65
845.892	59.22
846.068	96.08
846.244	-2.22
846.419	44.88
846.595	61.27
846.77	46.93
846.946	22.36
847.122	85.84
847.297	28.5
847.473	102.23
847.648	14.17
847.824	61.27
847.999	65.36
848.175	87.89
848.35	24.4
848.526	69.46
848.701	102.23
848.876	118.61
849.052	38.74
849.227	16.21
849.403	73.56
849.578	85.84
849.753	59.22
849.929	20.31
850.104	-37.03
850.279	46.93
850.454	28.5
850.63	91.99
850.805	3.93
850.98	28.5
851.155	5.97
851.33	53.08
851.505	-24.75
851.681	132.95
851.856	-37.03
852.031	104.28
852.206	36.69
852.381	10.07
852.556	36.69
852.731	126.8
852.906	-49.32
853.081	65.36
853.256	5.97
853.431	120.66
853.606	-14.51
853.781	-2.22
853.956	8.02
854.131	46.93
854.305	16.21
854.48	-0.17
854.655	-67.75
854.83	20.31
855.005	36.69
855.18	-6.31
855.354	26.45
855.529	3.93
855.704	42.84
855.879	5.97
856.053	-8.36
856.228	-24.75
856.403	14.17
856.577	137.04
856.752	1.88
856.926	38.74
857.101	48.98
857.276	-4.27
857.45	20.31
857.625	110.42
857.799	98.13
857.974	44.88
858.148	-75.95
858.323	94.04
858.497	-8.36
858.672	106.32
858.846	44.88
859.02	79.7
859.195	53.08
859.369	63.32
859.543	81.75
859.718	28.5
859.892	53.08
860.066	73.56
860.241	20.31
860.415	3.93
860.589	-28.84
860.763	57.17
860.938	8.02
861.112	36.69
861.286	-26.79
861.46	12.12
861.634	-26.79
861.808	73.56
861.982	55.12
862.157	-63.66
862.331	-28.84
862.505	1.88
862.679	-37.03
862.853	14.17
863.027	-43.18
863.201	46.93
863.375	55.12
863.549	57.17
863.722	16.21
863.896	85.84
864.07	-4.27
864.244	8.02
864.418	28.5
864.592	61.27
864.766	61.27
864.939	112.47
865.113	12.12
865.287	40.79
865.461	61.27
865.634	53.08
865.808	16.21
865.982	14.17
866.156	32.6
866.329	12.12
866.503	32.6
866.676	-26.79
866.85	44.88
867.024	36.69
867.197	85.84
867.371	61.27
867.544	14.17
867.718	-20.65
867.891	36.69
868.065	28.5
868.238	-37.03
868.412	53.08
868.585	79.7
868.759	-0.17
868.932	36.69
869.105	5.97
869.279	-53.42
869.452	-12.46
869.625	69.46
869.799	16.21
869.972	-12.46
870.145	32.6
870.319	30.55
870.492	28.5
870.665	-20.65
870.838	22.36
871.011	-12.46
871.185	53.08
871.358	-59.56
871.531	85.84
871.704	-0.17
871.877	-0.17
872.05	-0.17
872.223	-12.46
872.396	26.45
872.569	71.51
872.742	55.12
872.915	30.55
873.088	-20.65
873.261	36.69
873.434	57.17
873.607	3.93
873.78	118.61
873.953	3.93
874.126	-16.55
874.299	44.88
874.471	-32.94
874.644	24.4
874.817	51.03
874.99	69.46
875.163	-6.31
875.335	61.27
875.508	22.36
875.681	-28.84
875.853	63.32
876.026	20.31
876.199	32.6
876.371	-18.6
876.544	3.93
876.717	46.93
876.889	44.88
877.062	3.93
877.234	51.03
877.407	14.17
877.579	12.12
877.752	44.88
877.924	-0.17
878.097	-4.27
878.269	-4.27
878.442	-18.6
878.614	53.08
878.786	32.6
878.959	53.08
879.131	22.36
879.303	8.02
879.476	44.88
879.648	-51.37
879.82	3.93
879.993	18.26
880.165	-10.41
880.337	48.98
880.509	-20.65
880.681	-26.79
880.854	-37.03
881.026	10.07
881.198	85.84
881.37	24.4
881.542	-14.51
881.714	28.5
881.886	20.31
882.058	12.12
882.23	20.31
882.402	-34.99
882.574	3.93
882.746	36.69
882.918	-22.7
883.09	-12.46
883.262	118.61
883.434	-32.94
883.606	-34.99
883.778	63.32
883.95	61.27
884.122	3.93
884.293	61.27
884.465	1.88
884.637	65.36
884.809	71.51
884.98	-0.17
885.152	100.18
885.324	28.5
885.496	16.21
885.667	8.02
885.839	-6.31
886.011	79.7
886.182	20.31
886.354	69.46
886.525	16.21
886.697	18.26
886.869	36.69
887.04	-32.94
887.212	100.18
887.383	32.6
887.555	48.98
887.726	-12.46
887.897	-61.61
888.069	14.17
888.24	-16.55
888.412	94.04
888.583	12.12
888.754	79.7
888.926	-71.85
889.097	48.98
889.268	-43.18
889.44	30.55
889.611	44.88
889.782	73.56
889.953	-84.14
890.125	81.75
890.296	-8.36
890.467	-12.46
890.638	44.88
890.809	-28.84
890.98	1.88
891.151	5.97
891.323	79.7
891.494	34.64
891.665	12.12
891.836	20.31
892.007	1.88
892.178	46.93
892.349	20.31
892.52	-4.27
892.691	-16.55
892.862	46.93
893.032	30.55
893.203	-14.51
893.374	-28.84
893.545	137.04
893.716	89.94
893.887	73.56
894.057	-12.46
894.228	94.04
894.399	-20.65
894.57	-4.27
894.74	36.69
894.911	48.98
895.082	-45.23
895.253	14.17
895.423	3.93
895.594	-18.6
895.764	40.79
895.935	57.17
896.106	-18.6
896.276	3.93
896.447	73.56
896.617	79.7
896.788	61.27
896.958	71.51
897.129	12.12
897.299	63.32
897.47	104.28
897.64	112.47
897.81	16.21
897.981	40.79
898.151	38.74
898.322	71.51
898.492	-37.03
898.662	-4.27
898.832	-16.55
899.003	32.6
899.173	14.17
899.343	-10.41
899.513	-2.22
