Data from USB4F104151__194__14-45-13-931.txt Node

Date: Thu Mar 13 14:45:13 EDT 2025
User: louis
Spectrometer: USB4F10415
Trigger mode: 4
Integration Time (sec): 2.000000E-2
Scans to average: 1
Electric dark correction enabled: true
Nonlinearity correction enabled: false
Boxcar width: 0
XAxis mode: Wavelengths
Number of Pixels in Spectrum: 3648
>>>>>Begin Spectral Data<<<<<
178.204	-82.26
178.424	-82.26
178.644	-82.26
178.864	-221.52
179.084	-84.31
179.304	-10.58
179.524	13.99
179.744	7.85
179.964	13.99
180.184	-63.83
180.404	13.99
180.624	-24.92
180.844	-43.35
181.064	34.47
181.283	11.95
181.503	-8.53
181.723	54.95
181.943	-35.16
182.163	-16.73
182.383	-51.54
182.602	1.71
182.822	38.57
183.042	50.86
183.262	1.71
183.482	22.19
183.701	54.95
183.921	-18.77
184.141	18.09
184.361	22.19
184.58	-16.73
184.8	38.57
185.02	-16.73
185.239	24.23
185.459	9.9
185.679	38.57
185.898	38.57
186.118	54.95
186.338	5.8
186.557	57
186.777	-22.87
186.997	40.62
187.216	71.34
187.436	87.72
187.655	-8.53
187.875	24.23
188.095	46.76
188.314	54.95
188.534	95.91
188.753	9.9
188.973	54.95
189.192	65.19
189.412	-49.49
189.631	-47.44
189.851	7.85
190.07	71.34
190.29	-47.44
190.509	40.62
190.729	54.95
190.948	5.8
191.168	149.16
191.387	71.34
191.607	22.19
191.826	22.19
192.045	-63.83
192.265	50.86
192.484	3.75
192.704	77.48
192.923	-67.92
193.142	11.95
193.362	20.14
193.581	69.29
193.8	-6.49
194.02	16.04
194.239	40.62
194.458	1.71
194.678	-31.06
194.897	63.15
195.116	59.05
195.335	32.43
195.555	34.47
195.774	-10.58
195.993	20.14
196.212	-76.12
196.432	-18.77
196.651	46.76
196.87	11.95
197.089	110.25
197.308	-18.77
197.528	104.11
197.747	-2.39
197.966	-92.5
198.185	124.58
198.404	13.99
198.623	42.67
198.842	42.67
199.062	81.58
199.281	87.72
199.5	-12.63
199.719	32.43
199.938	28.33
200.157	81.58
200.376	24.23
200.595	13.99
200.814	-10.58
201.033	5.8
201.252	97.96
201.471	-8.53
201.69	-26.96
201.909	40.62
202.128	-12.63
202.347	63.15
202.566	13.99
202.785	46.76
203.004	-2.39
203.223	-18.77
203.442	-0.34
203.661	24.23
203.879	-51.54
204.098	38.57
204.317	-2.39
204.536	36.52
204.755	54.95
204.974	59.05
205.193	57
205.411	83.63
205.63	18.09
205.849	1.71
206.068	30.38
206.287	40.62
206.505	-59.73
206.724	-2.39
206.943	16.04
207.162	9.9
207.381	-82.26
207.599	11.95
207.818	-24.92
208.037	-37.2
208.255	63.15
208.474	-59.73
208.693	63.15
208.911	95.91
209.13	63.15
209.349	22.19
209.567	13.99
209.786	46.76
210.005	26.28
210.223	30.38
210.442	-24.92
210.661	30.38
210.879	-31.06
211.098	38.57
211.316	50.86
211.535	1.71
211.753	63.15
211.972	61.1
212.191	38.57
212.409	16.04
212.628	38.57
212.846	22.19
213.065	-22.87
213.283	24.23
213.502	-22.87
213.72	22.19
213.938	54.95
214.157	30.38
214.375	40.62
214.594	46.76
214.812	79.53
215.031	63.15
215.249	-59.73
215.467	-14.68
215.686	-20.82
215.904	79.53
216.122	16.04
216.341	22.19
216.559	-18.77
216.778	34.47
216.996	-0.34
217.214	-18.77
217.432	42.67
217.651	16.04
217.869	16.04
218.087	-6.49
218.306	-2.39
218.524	63.15
218.742	22.19
218.96	-16.73
219.179	46.76
219.397	-10.58
219.615	63.15
219.833	26.28
220.051	-55.64
220.27	40.62
220.488	75.43
220.706	30.38
220.924	-0.34
221.142	-10.58
221.36	26.28
221.578	-10.58
221.796	44.71
222.015	30.38
222.233	-31.06
222.451	65.19
222.669	-14.68
222.887	57
223.105	-117.08
223.323	-2.39
223.541	9.9
223.759	-16.73
223.977	5.8
224.195	87.72
224.413	83.63
224.631	7.85
224.849	-98.64
225.067	22.19
225.285	-61.78
225.503	-18.77
225.721	1.71
225.939	-10.58
226.157	7.85
226.375	132.78
226.592	-26.96
226.81	-51.54
227.028	40.62
227.246	38.57
227.464	46.76
227.682	71.34
227.9	-24.92
228.117	-63.83
228.335	-76.12
228.553	-4.44
228.771	-2.39
228.989	24.23
229.206	46.76
229.424	24.23
229.642	7.85
229.86	57
230.077	13.99
230.295	-20.82
230.513	-33.11
230.731	22.19
230.948	95.91
231.166	18.09
231.384	-2.39
231.601	-22.87
231.819	40.62
232.037	34.47
232.254	-22.87
232.472	63.15
232.689	-22.87
232.907	24.23
233.125	-65.88
233.342	-10.58
233.56	-31.06
233.777	-10.58
233.995	-18.77
234.213	97.96
234.43	11.95
234.648	-8.53
234.865	16.04
235.083	26.28
235.3	44.71
235.518	-10.58
235.735	108.2
235.953	38.57
236.17	87.72
236.388	-10.58
236.605	-76.12
236.822	149.16
237.04	30.38
237.257	-2.39
237.475	9.9
237.692	18.09
237.909	71.34
238.127	20.14
238.344	-33.11
238.562	38.57
238.779	32.43
238.996	-33.11
239.214	-10.58
239.431	50.86
239.648	-26.96
239.865	16.04
240.083	5.8
240.3	26.28
240.517	46.76
240.735	-22.87
240.952	-8.53
241.169	81.58
241.386	-4.44
241.603	-8.53
241.821	7.85
242.038	104.11
242.255	5.8
242.472	22.19
242.689	89.77
242.907	48.81
243.124	36.52
243.341	-112.98
243.558	9.9
243.775	18.09
243.992	13.99
244.209	40.62
244.426	34.47
244.643	-4.44
244.86	42.67
245.078	34.47
245.295	-41.3
245.512	73.39
245.729	5.8
245.946	40.62
246.163	-0.34
246.38	-10.58
246.597	-10.58
246.814	7.85
247.031	32.43
247.248	-12.63
247.464	3.75
247.681	16.04
247.898	26.28
248.115	11.95
248.332	42.67
248.549	114.34
248.766	34.47
248.983	42.67
249.2	-35.16
249.417	26.28
249.633	-10.58
249.85	22.19
250.067	-67.92
250.284	16.04
250.501	59.05
250.717	1.71
250.934	-8.53
251.151	13.99
251.368	-16.73
251.585	32.43
251.801	-2.39
252.018	-2.39
252.235	16.04
252.451	63.15
252.668	18.09
252.885	87.72
253.102	18.09
253.318	16.04
253.535	-92.5
253.752	-22.87
253.968	1.71
254.185	-35.16
254.401	-51.54
254.618	-2.39
254.835	26.28
255.051	61.1
255.268	5.8
255.484	40.62
255.701	44.71
255.917	-6.49
256.134	-6.49
256.351	71.34
256.567	-26.96
256.784	63.15
257	32.43
257.217	46.76
257.433	77.48
257.65	42.67
257.866	112.3
258.082	-61.78
258.299	-2.39
258.515	16.04
258.732	24.23
258.948	40.62
259.165	-10.58
259.381	-14.68
259.597	-0.34
259.814	97.96
260.03	-29.01
260.246	1.71
260.463	-49.49
260.679	-67.92
260.895	9.9
261.112	38.57
261.328	11.95
261.544	-16.73
261.761	112.3
261.977	18.09
262.193	-2.39
262.409	18.09
262.626	97.96
262.842	-26.96
263.058	-39.25
263.274	18.09
263.49	38.57
263.707	32.43
263.923	44.71
264.139	-14.68
264.355	26.28
264.571	46.76
264.787	9.9
265.004	-22.87
265.22	-8.53
265.436	-12.63
265.652	54.95
265.868	-0.34
266.084	-76.12
266.3	-39.25
266.516	-67.92
266.732	91.82
266.948	-10.58
267.164	13.99
267.38	30.38
267.596	63.15
267.812	30.38
268.028	73.39
268.244	-22.87
268.46	54.95
268.676	-35.16
268.892	-59.73
269.108	-45.4
269.324	-29.01
269.54	-45.4
269.756	13.99
269.972	30.38
270.188	75.43
270.403	-84.31
270.619	38.57
270.835	-2.39
271.051	-80.21
271.267	1.71
271.483	-22.87
271.698	54.95
271.914	54.95
272.13	-2.39
272.346	20.14
272.562	-6.49
272.777	89.77
272.993	71.34
273.209	-10.58
273.425	16.04
273.64	-0.34
273.856	24.23
274.072	50.86
274.287	5.8
274.503	-2.39
274.719	-10.58
274.934	46.76
275.15	-26.96
275.366	-57.68
275.581	-8.53
275.797	-26.96
276.012	59.05
276.228	13.99
276.444	-12.63
276.659	104.11
276.875	-76.12
277.09	-24.92
277.306	-35.16
277.521	32.43
277.737	57
277.952	22.19
278.168	97.96
278.383	50.86
278.599	18.09
278.814	73.39
279.03	26.28
279.245	57
279.461	32.43
279.676	85.67
279.892	40.62
280.107	-20.82
280.322	-49.49
280.538	63.15
280.753	-59.73
280.969	46.76
281.184	-26.96
281.399	-24.92
281.615	-67.92
281.83	46.76
282.045	-39.25
282.26	16.04
282.476	-45.4
282.691	38.57
282.906	59.05
283.122	75.43
283.337	34.47
283.552	40.62
283.767	-14.68
283.983	46.76
284.198	-33.11
284.413	11.95
284.628	-26.96
284.843	46.76
285.058	38.57
285.274	67.24
285.489	3.75
285.704	22.19
285.919	-59.73
286.134	1.71
286.349	24.23
286.564	18.09
286.779	63.15
286.995	38.57
287.21	-2.39
287.425	65.19
287.64	7.85
287.855	61.1
288.07	-88.4
288.285	93.87
288.5	11.95
288.715	67.24
288.93	44.71
289.145	-10.58
289.36	40.62
289.575	122.54
289.79	130.73
290.004	-26.96
290.219	108.2
290.434	22.19
290.649	-24.92
290.864	-0.34
291.079	-10.58
291.294	42.67
291.509	71.34
291.724	-26.96
291.938	-67.92
292.153	26.28
292.368	44.71
292.583	18.09
292.798	54.95
293.012	30.38
293.227	57
293.442	-14.68
293.657	57
293.871	9.9
294.086	18.09
294.301	42.67
294.516	38.57
294.73	40.62
294.945	-67.92
295.16	-16.73
295.374	22.19
295.589	-18.77
295.804	-41.3
296.018	69.29
296.233	81.58
296.447	-24.92
296.662	7.85
296.877	-2.39
297.091	44.71
297.306	22.19
297.52	38.57
297.735	13.99
297.949	5.8
298.164	46.76
298.378	-45.4
298.593	59.05
298.807	9.9
299.022	-4.44
299.236	38.57
299.451	71.34
299.665	81.58
299.88	81.58
300.094	69.29
300.309	40.62
300.523	34.47
300.737	22.19
300.952	-18.77
301.166	-10.58
301.381	-14.68
301.595	-45.4
301.809	57
302.024	81.58
302.238	-100.69
302.452	48.81
302.667	48.81
302.881	38.57
303.095	-18.77
303.309	75.43
303.524	-20.82
303.738	-22.87
303.952	-43.35
304.166	-18.77
304.381	-51.54
304.595	30.38
304.809	-8.53
305.023	5.8
305.237	48.81
305.452	-2.39
305.666	122.54
305.88	38.57
306.094	100.01
306.308	22.19
306.522	-16.73
306.736	38.57
306.95	-0.34
307.164	26.28
307.379	-26.96
307.593	63.15
307.807	83.63
308.021	59.05
308.235	40.62
308.449	13.99
308.663	22.19
308.877	40.62
309.091	-24.92
309.305	89.77
309.519	-51.54
309.733	79.53
309.947	-49.49
310.161	46.76
310.374	52.91
310.588	73.39
310.802	26.28
311.016	48.81
311.23	-63.83
311.444	-18.77
311.658	-20.82
311.872	-4.44
312.085	73.39
312.299	22.19
312.513	32.43
312.727	26.28
312.941	-4.44
313.154	57
313.368	-2.39
313.582	36.52
313.796	73.39
314.009	-6.49
314.223	16.04
314.437	26.28
314.651	-72.02
314.864	32.43
315.078	-10.58
315.292	89.77
315.505	-6.49
315.719	13.99
315.933	69.29
316.146	26.28
316.36	-35.16
316.573	118.44
316.787	5.8
317.001	-35.16
317.214	5.8
317.428	-51.54
317.641	71.34
317.855	50.86
318.068	63.15
318.282	71.34
318.495	46.76
318.709	-14.68
318.922	-45.4
319.136	46.76
319.349	63.15
319.563	-26.96
319.776	13.99
319.99	-8.53
320.203	26.28
320.417	7.85
320.63	67.24
320.843	75.43
321.057	13.99
321.27	11.95
321.483	-82.26
321.697	79.53
321.91	63.15
322.124	59.05
322.337	-35.16
322.55	-0.34
322.763	13.99
322.977	30.38
323.19	28.33
323.403	5.8
323.617	104.11
323.83	136.87
324.043	-10.58
324.256	-0.34
324.469	22.19
324.683	79.53
324.896	87.72
325.109	48.81
325.322	34.47
325.535	65.19
325.748	59.05
325.962	-26.96
326.175	-26.96
326.388	-10.58
326.601	116.39
326.814	-4.44
327.027	18.09
327.24	46.76
327.453	-63.83
327.666	16.04
327.879	63.15
328.092	24.23
328.305	-4.44
328.518	16.04
328.731	-65.88
328.944	71.34
329.157	59.05
329.37	-10.58
329.583	97.96
329.796	97.96
330.009	-47.44
330.222	87.72
330.435	59.05
330.648	54.95
330.861	-18.77
331.073	-2.39
331.286	44.71
331.499	42.67
331.712	28.33
331.925	-10.58
332.138	30.38
332.35	87.72
332.563	57
332.776	50.86
332.989	30.38
333.202	50.86
333.414	40.62
333.627	-8.53
333.84	63.15
334.053	9.9
334.265	-0.34
334.478	-8.53
334.691	16.04
334.903	57
335.116	-8.53
335.329	24.23
335.541	-14.68
335.754	95.91
335.966	46.76
336.179	54.95
336.392	-0.34
336.604	36.52
336.817	42.67
337.029	89.77
337.242	46.76
337.454	46.76
337.667	67.24
337.88	50.86
338.092	-10.58
338.305	46.76
338.517	-74.07
338.729	-18.77
338.942	42.67
339.154	-16.73
339.367	-14.68
339.579	16.04
339.792	54.95
340.004	67.24
340.217	97.96
340.429	22.19
340.641	-14.68
340.854	30.38
341.066	-18.77
341.278	-43.35
341.491	100.01
341.703	79.53
341.915	-76.12
342.128	106.15
342.34	57
342.552	-72.02
342.764	-8.53
342.977	20.14
343.189	30.38
343.401	52.91
343.613	-0.34
343.826	30.38
344.038	-33.11
344.25	9.9
344.462	30.38
344.674	-26.96
344.886	63.15
345.099	77.48
345.311	9.9
345.523	-39.25
345.735	-22.87
345.947	42.67
346.159	-43.35
346.371	81.58
346.583	42.67
346.795	34.47
347.007	61.1
347.219	71.34
347.431	54.95
347.643	114.34
347.855	30.38
348.067	63.15
348.279	9.9
348.491	34.47
348.703	89.77
348.915	32.43
349.127	22.19
349.339	22.19
349.551	50.86
349.763	22.19
349.975	87.72
350.187	48.81
350.399	63.15
350.61	7.85
350.822	7.85
351.034	16.04
351.246	16.04
351.458	38.57
351.669	-6.49
351.881	32.43
352.093	-16.73
352.305	63.15
352.517	26.28
352.728	71.34
352.94	-10.58
353.152	-16.73
353.363	40.62
353.575	83.63
353.787	30.38
353.999	-33.11
354.21	5.8
354.422	-67.92
354.633	81.58
354.845	-18.77
355.057	65.19
355.268	54.95
355.48	50.86
355.692	-43.35
355.903	-35.16
356.115	22.19
356.326	-72.02
356.538	112.3
356.749	42.67
356.961	95.91
357.172	-8.53
357.384	-2.39
357.595	124.58
357.807	32.43
358.018	73.39
358.23	1.71
358.441	-18.77
358.653	20.14
358.864	5.8
359.075	-35.16
359.287	18.09
359.498	46.76
359.709	65.19
359.921	-65.88
360.132	-29.01
360.344	48.81
360.555	46.76
360.766	40.62
360.977	-6.49
361.189	95.91
361.4	54.95
361.611	1.71
361.823	87.72
362.034	54.95
362.245	-39.25
362.456	5.8
362.667	63.15
362.879	5.8
363.09	-22.87
363.301	69.29
363.512	59.05
363.723	1.71
363.935	22.19
364.146	-10.58
364.357	-8.53
364.568	16.04
364.779	48.81
364.99	54.95
365.201	-37.2
365.412	46.76
365.623	-0.34
365.834	124.58
366.045	91.82
366.256	54.95
366.467	71.34
366.678	65.19
366.889	-29.01
367.1	30.38
367.311	71.34
367.522	-8.53
367.733	13.99
367.944	46.76
368.155	71.34
368.366	-8.53
368.577	36.52
368.788	50.86
368.999	63.15
369.209	40.62
369.42	81.58
369.631	128.68
369.842	38.57
370.053	13.99
370.264	-0.34
370.474	-0.34
370.685	79.53
370.896	13.99
371.107	54.95
371.317	34.47
371.528	5.8
371.739	120.49
371.95	26.28
372.16	75.43
372.371	-0.34
372.582	16.04
372.792	44.71
373.003	48.81
373.214	-16.73
373.424	32.43
373.635	-2.39
373.846	-16.73
374.056	40.62
374.267	7.85
374.477	-6.49
374.688	38.57
374.898	-31.06
375.109	114.34
375.319	-2.39
375.53	50.86
375.74	-26.96
375.951	46.76
376.161	-24.92
376.372	104.11
376.582	26.28
376.793	69.29
377.003	32.43
377.214	65.19
377.424	81.58
377.635	75.43
377.845	-31.06
378.055	7.85
378.266	38.57
378.476	5.8
378.686	-16.73
378.897	61.1
379.107	71.34
379.317	71.34
379.528	-2.39
379.738	71.34
379.948	65.19
380.158	57
380.369	-12.63
380.579	83.63
380.789	-4.44
380.999	48.81
381.21	57
381.42	48.81
381.63	-6.49
381.84	-2.39
382.05	11.95
382.261	38.57
382.471	106.15
382.681	7.85
382.891	30.38
383.101	67.24
383.311	30.38
383.521	-10.58
383.731	13.99
383.941	71.34
384.151	13.99
384.361	20.14
384.571	54.95
384.781	114.34
384.991	169.64
385.201	95.91
385.411	75.43
385.621	46.76
385.831	42.67
386.041	48.81
386.251	-10.58
386.461	104.11
386.671	30.38
386.881	54.95
387.091	52.91
387.301	112.3
387.511	-35.16
387.72	71.34
387.93	106.15
388.14	3.75
388.35	3.75
388.56	-43.35
388.769	71.34
388.979	91.82
389.189	-2.39
389.399	63.15
389.609	71.34
389.818	89.77
390.028	34.47
390.238	128.68
390.447	22.19
390.657	87.72
390.867	71.34
391.076	-33.11
391.286	-10.58
391.496	85.67
391.705	54.95
391.915	100.01
392.125	38.57
392.334	71.34
392.544	81.58
392.753	44.71
392.963	22.19
393.172	26.28
393.382	1.71
393.591	65.19
393.801	-16.73
394.01	114.34
394.22	104.11
394.429	20.14
394.639	59.05
394.848	95.91
395.058	16.04
395.267	83.63
395.477	120.49
395.686	65.19
395.895	136.87
396.105	169.64
396.314	79.53
396.524	75.43
396.733	5.8
396.942	5.8
397.152	108.2
397.361	63.15
397.57	97.96
397.78	46.76
397.989	75.43
398.198	91.82
398.407	22.19
398.617	87.72
398.826	69.29
399.035	16.04
399.244	54.95
399.453	71.34
399.663	75.43
399.872	104.11
400.081	50.86
400.29	149.16
400.499	-16.73
400.708	116.39
400.917	79.53
401.127	67.24
401.336	54.95
401.545	116.39
401.754	32.43
401.963	59.05
402.172	71.34
402.381	67.24
402.59	110.25
402.799	30.38
403.008	102.06
403.217	87.72
403.426	114.34
403.635	34.47
403.844	46.76
404.053	136.87
404.262	120.49
404.471	169.64
404.68	95.91
404.888	116.39
405.097	59.05
405.306	120.49
405.515	91.82
405.724	145.06
405.933	169.64
406.142	155.3
406.35	128.68
406.559	71.34
406.768	173.74
406.977	169.64
407.185	216.74
407.394	136.87
407.603	69.29
407.812	149.16
408.02	95.91
408.229	153.26
408.438	155.3
408.646	132.78
408.855	149.16
409.064	157.35
409.272	224.94
409.481	280.23
409.69	136.87
409.898	194.22
410.107	226.98
410.315	214.7
410.524	169.64
410.733	186.02
410.941	267.94
411.15	269.99
411.358	183.98
411.567	345.77
411.775	263.85
411.984	335.53
412.192	325.29
412.401	263.85
412.609	304.81
412.818	390.82
413.026	319.14
413.234	327.33
413.443	286.37
413.651	345.77
413.86	362.15
414.068	356.01
414.276	466.6
414.485	399.01
414.693	407.2
414.901	480.93
415.11	460.45
415.318	515.75
415.526	558.75
415.734	607.91
415.943	593.57
416.151	603.81
416.359	612
416.567	552.61
416.776	712.35
416.984	695.97
417.192	718.5
417.4	640.67
417.608	730.78
417.817	728.74
418.025	689.82
418.233	892.57
418.441	796.32
418.649	810.65
418.857	884.38
419.065	966.3
419.273	898.72
419.481	923.29
419.689	984.73
419.897	1070.75
420.105	1072.79
420.313	1078.94
420.521	1218.2
420.729	1144.47
420.937	1160.86
421.145	1189.53
421.353	1263.26
421.561	1334.93
421.769	1412.76
421.977	1466
422.185	1371.8
422.393	1488.53
422.601	1717.9
422.809	1574.55
423.017	1652.37
423.224	1685.14
423.432	1867.41
423.64	1791.63
423.848	2018.96
424.056	1889.93
424.263	1984.14
424.471	2127.5
424.679	2096.78
424.887	2100.87
425.094	2279.05
425.302	2225.8
425.51	2356.87
425.718	2627.2
425.925	2406.02
426.133	2555.52
426.341	2745.98
426.548	2899.58
426.756	2760.32
426.964	2768.51
427.171	2877.05
427.379	3184.25
427.586	3063.42
427.794	3151.48
428.001	3323.51
428.209	3389.05
428.417	3438.2
428.624	3614.32
428.832	3630.71
429.039	3702.39
429.247	3563.12
429.454	3999.34
429.662	4359.78
429.869	3954.29
430.076	4220.52
430.284	4208.23
430.491	4349.54
430.699	4408.94
430.906	4621.92
431.114	4640.36
431.321	4734.56
431.528	4845.15
431.736	5062.24
431.943	5293.66
432.15	5219.93
432.358	5264.99
432.565	5594.71
432.772	5598.81
432.979	5813.84
433.187	5793.36
433.394	6018.64
433.601	6428.23
433.808	6370.89
434.016	6329.93
434.223	6575.69
434.43	7132.73
434.637	6749.76
434.844	7292.48
435.052	7347.77
435.259	7517.75
435.466	7554.62
435.673	7505.46
435.88	7896.63
436.087	8379.95
436.294	8197.68
436.501	8019.5
436.708	8357.42
436.915	8627.75
437.122	8855.08
437.329	8685.09
437.537	9127.46
437.743	9242.14
437.95	9469.47
438.157	9850.39
438.364	9983.51
438.571	9979.41
438.778	10114.58
438.985	10937.86
439.192	10593.8
439.399	10814.98
439.606	10690.06
439.813	11382.27
440.02	12002.8
440.227	11732.47
440.433	11529.72
440.64	12168.69
440.847	11978.23
441.054	12090.87
441.261	12883.43
441.467	12785.13
441.674	13190.63
441.881	13772.25
442.088	13446.62
442.294	13401.57
442.501	13802.97
442.708	14104.02
442.914	14675.4
443.121	15203.78
443.328	14761.42
443.534	15779.26
443.741	15373.76
443.948	15062.47
444.154	16496.05
444.361	16141.75
444.568	16285.11
444.774	16358.83
444.981	16274.87
445.187	16895.4
445.394	17665.44
445.6	17675.68
445.807	19101.06
446.013	18165.14
446.22	18787.72
446.426	19051.91
446.633	19463.55
446.839	19932.54
447.046	19297.67
447.252	20311.41
447.459	20462.96
447.665	20350.32
447.871	21173.61
448.078	22449.49
448.284	21030.25
448.491	21994.84
448.697	22566.23
448.903	22863.18
449.11	22932.81
449.316	22707.54
449.522	23170.38
449.728	23690.56
449.935	23975.23
450.141	23747.9
450.347	24438.07
450.553	23592.26
450.76	24065.34
450.966	24978.73
451.172	24560.95
451.378	24986.93
451.584	24573.24
451.791	25296.17
451.997	25453.86
452.203	25482.53
452.409	25828.64
452.615	25488.68
452.821	24503.6
453.027	24511.8
453.233	25548.07
453.44	24802.61
453.646	24929.58
453.852	24986.93
454.058	25378.09
454.264	25005.36
454.47	25400.62
454.676	24513.84
454.882	25476.39
455.088	23240.01
455.294	23668.03
455.5	24255.8
455.705	24028.48
455.911	23514.44
456.117	22893.9
456.323	22601.04
456.529	21304.68
456.735	22656.34
456.941	21937.5
457.147	21620.06
457.352	20878.7
457.558	20465.01
457.764	20829.55
457.97	20274.55
458.176	19774.84
458.381	19733.89
458.587	18828.68
458.793	18709.9
458.999	17708.44
459.204	19185.03
459.41	18773.39
459.616	17468.83
459.821	17429.92
460.027	17085.86
460.233	16944.55
460.438	16293.3
460.644	16541.1
460.85	15832.51
461.055	15332.8
461.261	15752.63
461.466	14124.5
461.672	13850.07
461.878	14773.71
462.083	13675.99
462.289	13716.95
462.494	13563.36
462.7	13030.88
462.905	12396.01
463.111	13120.99
463.316	13186.53
463.522	12678.63
463.727	12508.65
463.932	12750.31
464.138	12508.65
464.343	12410.35
464.549	12219.89
464.754	12658.15
464.959	12705.26
465.165	12383.73
465.37	11802.1
465.575	11589.11
465.781	12006.9
465.986	12129.78
466.191	11568.63
466.397	11468.28
466.602	10905.09
466.807	11066.88
467.012	11357.69
467.218	11369.98
467.423	10884.61
467.628	11179.52
467.833	11513.34
468.038	11161.09
468.244	10974.72
468.449	11128.32
468.654	10960.39
468.859	10892.8
469.064	10749.45
469.269	10356.24
469.474	10462.73
469.679	10688.01
469.885	10384.91
470.09	10440.2
470.295	10606.09
470.5	9987.6
470.705	10157.58
470.91	10180.11
471.115	10024.47
471.32	10024.47
471.525	9995.79
471.73	9754.13
471.935	9688.6
472.139	9518.62
472.344	9616.92
472.549	9418.27
472.754	9410.08
472.959	9250.33
473.164	8832.55
473.369	8969.76
473.574	9229.85
473.778	9043.49
473.983	9086.5
474.188	9023.01
474.393	8586.79
474.598	8535.59
474.802	8517.16
475.007	8445.48
475.212	8422.95
475.417	8050.22
475.621	8273.45
475.826	8224.3
476.031	8132.14
476.235	7845.43
476.44	7951.92
476.645	7904.82
476.849	8027.7
477.054	7867.95
477.259	7689.78
477.463	7642.68
477.668	7372.35
477.872	7398.97
478.077	7374.39
478.282	7327.29
478.486	7159.36
478.691	7224.89
478.895	7302.72
479.1	7042.62
479.304	7134.78
479.509	6975.04
479.713	7118.4
479.918	6874.69
480.122	6708.8
480.326	6858.31
480.531	6995.52
480.735	6635.08
480.94	6583.88
481.144	6940.22
481.348	6444.62
481.553	6747.72
481.757	6641.22
481.961	6469.19
482.166	6661.7
482.37	6524.49
482.574	6731.33
482.778	6600.26
482.983	6786.63
483.187	6678.08
483.391	6571.59
483.595	6430.28
483.8	6432.33
484.004	6583.88
484.208	6682.18
484.412	6710.85
484.616	6424.14
484.821	6581.83
485.025	6323.79
485.229	6499.91
485.433	6714.95
485.637	6485.58
485.841	6540.87
486.045	6411.85
486.249	6389.32
486.453	6420.04
486.657	6501.96
486.861	6649.41
487.065	6299.21
487.269	6643.27
487.473	6372.94
487.677	6567.49
487.881	6876.74
488.085	6477.38
488.289	6635.08
488.493	6288.97
488.697	6526.54
488.901	6600.26
489.105	6555.21
489.309	6518.34
489.512	6456.9
489.716	6792.77
489.92	6606.41
490.124	6559.3
490.328	7030.34
490.531	6616.65
490.735	6800.96
490.939	6684.23
491.143	6723.14
491.346	6708.8
491.55	6856.26
491.754	6815.3
491.958	6710.85
492.161	6987.33
492.365	6972.99
492.569	6901.31
492.772	6870.59
492.976	7116.35
493.18	7030.34
493.383	7224.89
493.587	7038.53
493.79	7259.71
493.994	7063.1
494.197	7241.28
494.401	7251.52
494.605	7216.7
494.808	7317.05
495.012	7173.69
495.215	7259.71
495.419	7579.19
495.622	7538.23
495.825	7433.79
496.029	7706.17
496.232	7939.63
496.436	7702.07
496.639	7960.11
496.843	7745.08
497.046	7972.4
497.249	8234.54
497.453	8267.31
497.656	8144.43
497.859	8039.98
498.063	8353.32
498.266	8375.85
498.469	8410.67
498.673	8429.1
498.876	8707.62
499.079	8867.36
499.282	8855.08
499.485	8980
499.689	9084.45
499.892	9002.53
500.095	9166.37
500.298	9172.51
500.501	9438.75
500.705	9350.68
500.908	9410.08
501.111	9657.88
501.314	9698.84
501.517	9852.44
501.72	10042.9
501.923	9993.75
502.126	10204.69
502.329	10434.06
502.532	10386.96
502.735	10212.88
502.938	10610.18
503.141	10888.71
503.344	10892.8
503.547	10831.37
503.75	11030.02
503.953	11130.37
504.156	11337.21
504.359	11492.86
504.562	11527.67
504.765	11884.02
504.968	11830.77
505.17	12148.21
505.373	12162.55
505.576	12424.69
505.779	12457.45
505.982	12412.4
506.185	12715.5
506.387	12770.79
506.59	13172.19
506.793	13006.31
506.996	13284.83
507.198	13391.33
507.401	13501.92
507.604	13467.1
507.807	13866.46
508.009	13962.71
508.212	14093.78
508.415	14183.89
508.617	14106.07
508.82	14280.14
509.022	14427.6
509.225	14781.9
509.428	14820.81
509.63	14882.25
509.833	14859.72
510.035	15553.98
510.238	15228.35
510.44	15455.68
510.643	15709.63
510.845	15863.22
511.048	15998.39
511.25	16065.97
511.453	16125.36
511.655	16965.03
511.858	16543.15
512.06	16653.74
512.262	16737.71
512.465	16879.02
512.667	17192.36
512.87	17284.51
513.072	17550.75
513.274	17702.3
513.477	17761.69
513.679	18085.27
513.881	18331.03
514.084	18369.94
514.286	18349.46
514.488	18658.7
514.69	19088.78
514.893	18824.59
515.095	19209.61
515.297	19553.66
515.499	19367.3
515.701	19574.14
515.904	19811.71
516.106	19815.8
516.308	20151.67
516.51	20469.11
516.712	20657.52
516.914	20714.86
517.116	21052.78
517.318	20712.81
517.52	21103.98
517.722	21337.45
517.925	21683.55
518.127	21671.26
518.329	22025.56
518.531	22091.1
518.733	22500.69
518.935	22336.85
519.136	22318.42
519.338	22828.37
519.54	22848.85
519.742	23342.41
519.944	23223.62
520.146	23715.14
520.348	23938.37
520.55	23387.46
520.752	23960.89
520.954	24417.59
521.155	24071.48
521.357	24724.79
521.559	24560.95
521.761	24794.42
521.963	25025.84
522.164	25292.07
522.366	25539.88
522.568	25738.53
522.77	25779.49
522.971	26248.47
523.173	25488.68
523.375	26334.49
523.576	26055.97
523.778	26072.35
523.98	26559.77
524.181	26746.13
524.383	26905.87
524.584	27170.06
524.786	27102.48
524.988	27022.61
525.189	27376.9
525.391	27378.95
525.592	27735.3
525.794	27716.87
525.995	27747.59
526.197	27860.23
526.398	28130.56
526.6	28169.47
526.801	28392.7
527.003	28458.23
527.204	28607.73
527.406	28607.73
527.607	28706.04
527.808	28939.51
528.01	28689.65
528.211	28740.85
528.412	29375.72
528.614	29310.19
528.815	29447.4
529.016	29320.43
529.218	29328.62
529.419	29379.82
529.62	29670.63
529.822	29428.97
530.023	29437.16
530.224	29054.19
530.425	29639.91
530.626	29428.97
530.828	29691.11
531.029	30291.16
531.23	29385.96
531.431	29938.91
531.632	29594.86
531.833	30082.27
532.035	30151.9
532.236	29840.61
532.437	30174.43
532.638	29879.52
532.839	30029.02
533.04	30102.75
533.241	29959.39
533.442	30321.88
533.643	29924.58
533.844	30100.7
534.045	30489.82
534.246	30133.47
534.447	30348.51
534.648	30137.57
534.849	30457.05
535.05	29527.27
535.251	29930.72
535.451	30115.04
535.652	30600.41
535.853	30203.1
536.054	30430.43
536.255	30594.26
536.456	29873.38
536.657	30289.12
536.857	30289.12
537.058	29957.35
537.259	30432.47
537.46	29971.68
537.66	30133.47
537.861	29983.97
538.062	30147.81
538.263	30178.53
538.463	30299.36
538.664	30188.77
538.865	30160.09
539.065	30416.09
539.266	30078.18
539.466	30143.71
539.667	29791.46
539.868	30649.56
540.068	30311.64
540.269	30432.47
540.469	30319.84
540.67	29830.37
540.87	30137.57
541.071	30514.39
541.271	30600.41
541.472	30254.3
541.672	30192.86
541.873	30153.95
542.073	29682.92
542.274	30149.85
542.474	29930.72
542.675	29732.07
542.875	29836.52
543.075	29828.32
543.276	30018.78
543.476	30172.38
543.676	30141.66
543.877	29932.77
544.077	30076.13
544.277	30008.54
544.478	30106.85
544.678	30174.43
544.878	29953.25
545.078	30059.74
545.279	29986.02
545.479	30172.38
545.679	30045.41
545.879	29719.78
546.079	29637.86
546.28	29811.94
546.48	29842.66
546.68	29760.74
546.88	29994.21
547.08	30315.74
547.28	29777.12
547.48	29238.51
547.68	29840.61
547.88	29768.93
548.081	29768.93
548.281	29877.47
548.481	29502.7
548.681	30082.27
548.881	29754.6
549.081	29654.25
549.28	29545.7
549.48	29846.76
549.68	29881.57
549.88	30016.74
550.08	29596.9
550.28	29850.85
550.48	29482.22
550.68	30092.51
550.88	29705.45
551.08	29549.8
551.279	29758.69
551.479	29803.75
551.679	29666.53
551.879	29498.6
552.079	29680.87
552.278	29492.46
552.478	29881.57
552.678	29572.33
552.878	29736.16
553.077	29629.67
553.277	29428.97
553.477	29598.95
553.676	29289.71
553.876	29469.93
554.076	29326.57
554.275	29150.45
554.475	29129.97
554.674	29314.28
554.874	29459.69
555.074	29258.99
555.273	29320.43
555.473	29383.91
555.672	29056.24
555.872	28996.85
556.071	29308.14
556.271	29381.87
556.47	29115.63
556.67	28749.04
556.869	28624.12
557.068	29072.62
557.268	29086.96
557.467	28751.09
557.667	29152.49
557.866	29011.18
558.065	28740.85
558.265	28593.4
558.464	28734.71
558.663	28941.55
558.863	28486.9
559.062	28939.51
559.261	28300.54
559.461	28468.47
559.66	28566.77
559.859	28493.05
560.058	28427.51
560.258	28456.18
560.457	28196.09
560.656	28345.59
560.855	28007.68
561.054	28148.99
561.253	28013.82
561.453	28075.26
561.652	27909.38
561.851	28335.35
562.05	27892.99
562.249	28040.45
562.448	28351.74
562.647	28001.54
562.846	27802.88
563.045	27788.55
563.244	27813.12
563.443	28142.85
563.642	27510.02
563.841	27489.54
564.04	27731.2
564.239	27917.57
564.438	27372.81
564.637	27497.74
564.836	27481.35
565.035	27145.48
565.234	27198.73
565.432	27292.94
565.631	26952.98
565.83	27419.91
566.029	27086.09
566.228	26756.37
566.427	27075.85
566.625	27196.68
566.824	26471.7
567.023	27075.85
567.222	26750.23
567.42	27043.09
567.619	26932.5
567.818	26649.88
568.016	26393.88
568.215	26621.2
568.414	26053.92
568.612	26787.09
568.811	26324.25
569.01	26369.3
569.208	25965.85
569.407	26266.91
569.605	25832.74
569.804	26215.71
570.002	26006.81
570.201	25767.2
570.4	25609.51
570.598	25531.69
570.797	25281.83
570.995	26012.96
571.193	25353.51
571.392	25881.89
571.59	25322.79
571.789	25343.27
571.987	25216.3
572.186	25716
572.384	25101.61
572.582	25218.35
572.781	25292.07
572.979	24843.57
573.177	24864.05
573.376	25193.77
573.574	24692.02
573.772	24798.51
573.971	24778.03
574.169	24560.95
574.367	24464.69
574.565	24833.33
574.763	24657.2
574.962	24468.79
575.16	24245.56
575.358	24405.3
575.556	24380.73
575.754	24503.6
575.952	23979.32
576.151	24251.7
576.349	24233.27
576.547	24087.87
576.745	23942.46
576.943	24067.39
577.141	23637.31
577.339	23858.49
577.537	24053.05
577.735	23838.01
577.933	23418.18
578.131	23485.76
578.329	23078.22
578.527	23526.72
578.725	23477.57
578.923	23401.8
579.121	23024.97
579.319	23317.83
579.516	23455.04
579.714	23000.4
579.912	23252.3
580.11	22934.86
580.308	22852.94
580.506	22877.52
580.704	22543.7
580.901	22693.2
581.099	22893.9
581.297	22332.76
581.495	22365.53
581.692	22609.23
581.89	22222.17
582.088	22531.41
582.285	22314.33
582.483	22478.16
582.681	22142.3
582.878	22185.3
583.076	21757.28
583.274	22242.65
583.471	21976.41
583.669	22211.93
583.866	21693.79
584.064	21820.77
584.262	21730.66
584.459	21749.09
584.657	21673.31
584.854	21665.12
585.052	21323.11
585.249	21607.78
585.447	21542.24
585.644	21452.13
585.841	21333.35
586.039	21187.94
586.236	21032.3
586.434	21134.7
586.631	20786.54
586.828	20878.7
587.026	20942.19
587.223	21011.82
587.42	20594.03
587.618	21073.26
587.815	20311.41
588.012	20694.38
588.21	20397.43
588.407	20604.27
588.604	20540.79
588.801	20487.54
588.999	20628.85
589.196	20297.08
589.393	20348.28
589.59	20073.85
589.787	20161.91
589.984	20108.66
590.182	19715.45
590.379	20075.9
590.576	19899.77
590.773	20260.21
590.97	19660.16
591.167	19778.94
591.364	19584.38
591.561	19830.14
591.758	19176.84
591.955	19543.42
592.152	19420.55
592.349	19383.68
592.546	19289.48
592.743	19469.7
592.94	18781.58
593.137	19307.91
593.334	19213.7
593.531	18908.55
593.727	19144.07
593.924	18980.23
594.121	18816.4
594.318	18832.78
594.515	18548.11
594.712	18832.78
594.908	18419.09
595.105	18668.94
595.302	18148.76
595.499	18384.27
595.696	18466.19
595.892	18388.37
596.089	18224.53
596.286	18214.29
596.482	18093.46
596.679	18113.94
596.876	18412.95
597.072	18173.33
597.269	17997.21
597.466	18195.86
597.662	17857.95
597.859	17958.3
598.055	17976.73
598.252	17726.88
598.448	17847.71
598.645	17393.06
598.841	17352.1
599.038	17421.73
599.234	17288.61
599.431	17409.44
599.627	17339.81
599.824	17429.92
600.02	17175.97
600.217	17309.09
600.413	17057.19
600.609	16948.65
600.806	17241.51
601.002	17204.64
601.198	16895.4
601.395	16815.53
601.591	16797.1
601.787	16819.63
601.984	16723.37
602.18	16854.44
602.376	16598.45
602.572	16539.05
602.769	16799.15
602.965	16281.01
603.161	16725.42
603.357	16487.86
603.553	16428.46
603.75	16238
603.946	16258.48
604.142	16068.02
604.338	16121.27
604.534	16319.92
604.73	16033.21
604.926	15832.51
605.122	16039.35
605.318	15818.17
605.514	16022.97
605.71	15705.53
605.906	15553.98
606.102	15889.85
606.298	15592.89
606.494	15941.05
606.69	15744.44
606.886	15732.15
607.082	15295.94
607.278	15496.64
607.474	15316.42
607.67	15324.61
607.866	15087.04
608.062	15513.02
608.257	15046.09
608.453	15060.42
608.649	15529.41
608.845	15076.8
609.041	14966.21
609.236	15349.18
609.432	15121.86
609.628	15072.71
609.824	14933.45
610.019	14947.78
610.215	14912.97
610.411	14976.45
610.606	14742.99
610.802	15062.47
610.998	14910.92
611.193	15054.28
611.389	14900.68
611.584	14652.88
611.78	14509.52
611.976	14642.64
612.171	14855.62
612.367	14509.52
612.562	14550.48
612.758	14357.97
612.953	14433.74
613.149	14693.83
613.344	14345.68
613.539	14757.32
613.735	14353.87
613.93	14413.26
614.126	13921.75
614.321	14296.53
614.517	14411.21
614.712	14593.48
614.907	13925.85
615.103	14437.84
615.298	14104.02
615.493	14310.86
615.688	13856.22
615.884	14499.28
616.079	13968.85
616.274	14138.83
616.47	14204.37
616.665	13968.85
616.86	13952.47
617.055	13981.14
617.25	13991.38
617.445	13886.93
617.641	13714.91
617.836	13931.99
618.031	13596.12
618.226	13534.68
618.421	13747.67
618.616	13813.21
618.811	13563.36
619.006	13667.8
619.201	13254.11
619.396	13286.88
619.591	13303.26
619.786	13278.69
619.981	13133.28
620.176	13190.63
620.371	13055.46
620.566	12901.86
620.761	12879.33
620.956	13145.57
621.151	12850.66
621.346	12770.79
621.541	12676.59
621.735	12840.42
621.93	12664.3
622.125	12858.85
622.32	12416.49
622.515	12391.92
622.709	12623.34
622.904	12389.87
623.099	12353.01
623.294	12260.85
623.488	11990.52
623.683	12209.65
623.878	11826.68
624.072	12006.9
624.267	11900.41
624.462	11908.6
624.656	11732.47
624.851	11671.03
625.046	11714.04
625.24	11511.29
625.435	11374.08
625.629	11470.33
625.824	11634.17
626.018	11265.53
626.213	11175.42
626.407	11423.23
626.602	11283.97
626.796	10958.34
626.991	11140.61
627.185	11021.83
627.38	10720.78
627.574	10647.05
627.768	10974.72
627.963	10802.69
628.157	10688.01
628.352	10681.86
628.546	10423.82
628.74	10552.84
628.935	10481.16
629.129	10460.68
629.323	10278.41
629.517	10284.56
629.712	10468.87
629.906	10233.36
630.1	10141.2
630.294	10100.24
630.489	10049.04
630.683	9911.83
630.877	9870.87
631.071	9803.29
631.265	9764.37
631.459	9762.33
631.653	9852.44
631.848	9672.22
632.042	9635.35
632.236	9512.47
632.43	9389.6
632.624	9549.34
632.818	9559.58
633.012	9438.75
633.206	9467.42
633.4	9250.33
633.594	9246.24
633.788	9180.7
633.982	9070.11
634.176	9238.05
634.369	9166.37
634.563	9063.97
634.757	8914.47
634.951	9096.74
635.145	8898.08
635.339	8904.23
635.533	8693.29
635.726	8615.46
635.92	8672.81
636.114	8707.62
636.308	8683.05
636.501	8633.89
636.695	8511.02
636.889	8609.32
637.083	8345.13
637.276	8420.91
637.47	8398.38
637.664	8099.38
637.857	8298.03
638.051	8205.87
638.244	8181.29
638.438	7956.02
638.632	8062.51
638.825	7984.69
639.019	7949.87
639.212	7923.25
639.406	8019.5
639.599	7665.21
639.793	7845.43
639.986	7908.91
640.18	7808.56
640.373	7812.66
640.567	7808.56
640.76	7669.3
640.954	7620.15
641.147	7517.75
641.34	7646.77
641.534	7497.27
641.727	7595.57
641.92	7265.85
642.114	7312.96
642.307	7321.15
642.5	7411.26
642.694	7222.84
642.887	7106.11
643.08	7087.68
643.273	7173.69
643.467	6991.42
643.66	7028.29
643.853	6940.22
644.046	6854.21
644.239	7009.86
644.432	7044.67
644.626	6905.41
644.819	6792.77
645.012	6719.04
645.205	6692.42
645.398	6780.48
645.591	6796.87
645.784	6710.85
645.977	6583.88
646.17	6528.58
646.363	6520.39
646.556	6162
646.749	6489.67
646.942	6524.49
647.135	6417.99
647.328	6342.22
647.521	6182.48
647.714	6239.82
647.907	6282.83
648.099	6182.48
648.292	6075.98
648.485	6288.97
648.678	6014.54
648.871	6067.79
649.064	6104.65
649.256	6012.49
649.449	6084.17
649.642	5817.94
649.835	5957.2
650.027	5955.15
650.22	5854.8
650.413	5875.28
650.605	5871.19
650.798	5621.33
650.991	5533.27
651.183	5867.09
651.376	5629.52
651.568	5660.24
651.761	5824.08
651.954	5680.72
652.146	5693.01
652.339	5443.16
652.531	5598.81
652.724	5525.08
652.916	5420.63
653.109	5453.4
653.301	5342.81
653.494	5477.98
653.686	5488.21
653.879	5252.7
654.071	5281.37
654.263	5312.09
654.456	5215.84
654.648	5092.96
654.84	5072.48
655.033	5043.81
655.225	5183.07
655.417	5064.29
655.61	4982.37
655.802	4972.13
655.994	5031.52
656.186	4863.58
656.379	4939.36
656.571	4986.46
656.763	4896.35
656.955	4740.71
657.148	4855.39
657.34	4892.26
657.532	4898.4
657.724	4804.19
657.916	4765.28
658.108	4738.66
658.3	4732.51
658.492	4832.86
658.684	4458.09
658.876	4578.92
659.068	4636.26
659.26	4552.29
659.452	4576.87
659.644	4542.05
659.836	4488.81
660.028	4570.72
660.22	4335.21
660.412	4453.99
660.604	4339.3
660.796	4302.44
660.988	4451.94
661.18	4214.38
661.372	4509.29
661.563	4300.39
661.755	4249.19
661.947	4355.69
662.139	4300.39
662.331	4324.97
662.522	4134.51
662.714	4187.75
662.906	4048.49
663.097	4142.7
663.289	4075.12
663.481	4015.73
663.673	3987.05
663.864	3847.79
664.056	3774.07
664.247	3956.33
664.439	3974.77
664.631	3966.57
664.822	3886.7
665.014	3898.99
665.205	3864.18
665.397	3851.89
665.588	3937.9
665.78	3849.84
665.971	3794.54
666.163	3913.33
666.354	3905.14
666.546	3853.94
666.737	3747.44
666.929	3747.44
667.12	3677.81
667.311	3655.28
667.503	3671.67
667.694	3540.6
667.885	3630.71
668.077	3765.87
668.268	3593.84
668.459	3499.64
668.651	3528.31
668.842	3528.31
669.033	3430.01
669.224	3421.81
669.416	3491.45
669.607	3440.25
669.798	3372.66
669.989	3493.49
670.18	3528.31
670.371	3335.8
670.563	3382.9
670.754	3368.57
670.945	3407.48
671.136	3405.43
671.327	3221.11
671.518	3350.14
671.709	3358.33
671.9	3421.81
672.091	3231.35
672.282	3430.01
672.473	3284.6
672.664	3126.91
672.855	3200.63
673.046	3233.4
673.237	3196.54
673.428	3208.83
673.619	3233.4
673.809	3143.29
674	3221.11
674.191	3106.43
674.382	3200.63
674.573	3182.2
674.764	3094.14
674.954	3182.2
675.145	3126.91
675.336	3151.48
675.527	2952.83
675.717	3069.56
675.908	3028.6
676.099	3102.33
676.289	3137.15
676.48	3024.51
676.671	3141.24
676.861	2956.93
677.052	2885.25
677.243	2905.73
677.433	3034.75
677.624	2948.73
677.814	3030.65
678.005	2997.88
678.195	2922.11
678.386	2958.97
678.576	2805.38
678.767	2791.04
678.957	2856.58
679.148	2975.36
679.338	2938.49
679.529	3012.22
679.719	2813.57
679.909	2950.78
680.1	2823.81
680.29	2864.77
680.481	2750.08
680.671	2829.95
680.861	2811.52
681.052	2840.19
681.242	2745.98
681.432	2885.25
681.622	2852.48
681.813	2774.66
682.003	2743.94
682.193	2799.23
682.383	2819.71
682.573	2805.38
682.764	2711.17
682.954	2719.36
683.144	2784.9
683.334	2764.42
683.524	2774.66
683.714	2791.04
683.904	2627.2
684.094	2823.81
684.284	2725.51
684.474	2743.94
684.664	2729.6
684.854	2686.59
685.044	2760.32
685.234	2627.2
685.424	2713.22
685.614	2639.49
685.804	2705.03
685.994	2614.91
686.184	2553.48
686.374	2608.77
686.564	2522.76
686.753	2602.63
686.943	2408.07
687.133	2528.9
687.323	2422.41
687.513	2555.52
687.702	2465.41
687.892	2492.04
688.082	2514.56
688.272	2702.98
688.461	2451.08
688.651	2520.71
688.841	2381.45
689.03	2514.56
689.22	2408.07
689.41	2389.64
689.599	2365.06
689.789	2442.89
689.979	2291.34
690.168	2363.01
690.358	2408.07
690.547	2283.14
690.737	2393.73
690.926	2266.76
691.116	2338.44
691.305	2299.53
691.495	2266.76
691.684	2246.28
691.874	2266.76
692.063	2356.87
692.252	2250.38
692.442	2334.34
692.631	2102.92
692.82	2186.89
693.01	2104.97
693.199	2135.69
693.388	2133.64
693.578	2094.73
693.767	2064.01
693.956	2061.96
694.146	2053.77
694.335	2094.73
694.524	2186.89
694.713	1955.47
694.902	2033.29
695.092	2104.97
695.281	2107.02
695.47	2090.63
695.659	2094.73
695.848	1998.48
696.037	2158.22
696.226	2004.62
696.415	2059.92
696.604	2135.69
696.793	1971.85
696.982	2107.02
697.171	2102.92
697.36	2031.24
697.549	1941.13
697.738	1971.85
697.927	2049.68
698.116	2033.29
698.305	1928.85
698.494	2010.76
698.683	1955.47
698.872	1982.09
699.061	1924.75
699.25	1986.19
699.438	1824.4
699.627	1996.43
699.816	1914.51
700.005	1963.66
700.193	1865.36
700.382	1891.98
700.571	1953.42
700.76	1869.45
700.948	2053.77
701.137	2037.39
701.326	1914.51
701.514	1910.41
701.703	1957.52
701.892	1873.55
702.08	1916.56
702.269	1885.84
702.457	1906.32
702.646	1988.24
702.834	1869.45
703.023	1912.46
703.212	1867.41
703.4	1959.56
703.589	1873.55
703.777	1795.73
703.965	1826.45
704.154	1853.07
704.342	1889.93
704.531	1894.03
704.719	1889.93
704.907	1934.99
705.096	1857.17
705.284	1830.54
705.472	1924.75
705.661	1908.37
705.849	1840.78
706.037	1851.02
706.226	1857.17
706.414	1857.17
706.602	1832.59
706.79	1963.66
706.979	1848.97
707.167	1904.27
707.355	1724.05
707.543	1857.17
707.731	1775.25
707.919	1851.02
708.107	1865.36
708.296	1879.69
708.484	1777.3
708.672	1824.4
708.86	1871.5
709.048	1750.67
709.236	1851.02
709.424	1898.13
709.612	1848.97
709.8	1789.58
709.988	1910.41
710.176	1808.02
710.364	1861.26
710.551	1799.82
710.739	1758.86
710.927	1844.88
711.115	1799.82
711.303	1824.4
711.491	1787.54
711.679	1765.01
711.866	1760.91
712.054	1808.02
712.242	1836.69
712.43	1830.54
712.617	1877.65
712.805	1851.02
712.993	1826.45
713.181	1801.87
713.368	1889.93
713.556	1967.76
713.744	1914.51
713.931	1941.13
714.119	1801.87
714.306	1808.02
714.494	1963.66
714.682	1765.01
714.869	1848.97
715.057	1820.3
715.244	1816.21
715.432	1873.55
715.619	1881.74
715.807	1869.45
715.994	1848.97
716.182	1795.73
716.369	1785.49
716.556	1914.51
716.744	1857.17
716.931	1799.82
717.119	1902.22
717.306	1840.78
717.493	1871.5
717.681	1889.93
717.868	1814.16
718.055	1816.21
718.242	1785.49
718.43	1918.61
718.617	1926.8
718.804	1867.41
718.991	1824.4
719.179	1844.88
719.366	1836.69
719.553	1857.17
719.74	1830.54
719.927	1840.78
720.114	1785.49
720.301	1765.01
720.488	1832.59
720.676	1793.68
720.863	1844.88
721.05	1846.93
721.237	1728.14
721.424	1861.26
721.611	1848.97
721.798	1805.97
721.985	1808.02
722.172	1758.86
722.358	1883.79
722.545	1871.5
722.732	1777.3
722.919	1889.93
723.106	1818.25
723.293	1816.21
723.48	1857.17
723.667	1803.92
723.853	1816.21
724.04	1879.69
724.227	1934.99
724.414	1830.54
724.6	1838.73
724.787	1900.17
724.974	1969.8
725.161	1842.83
725.347	1818.25
725.534	1840.78
725.72	1859.21
725.907	1894.03
726.094	1941.13
726.28	1791.63
726.467	1848.97
726.653	1783.44
726.84	1877.65
727.027	1959.56
727.213	1853.07
727.4	1869.45
727.586	1996.43
727.773	1914.51
727.959	1873.55
728.145	1842.83
728.332	1861.26
728.518	1840.78
728.705	1857.17
728.891	1873.55
729.077	1750.67
729.264	1861.26
729.45	1859.21
729.636	1791.63
729.823	1932.94
730.009	2002.57
730.195	1916.56
730.382	1906.32
730.568	1908.37
730.754	1824.4
730.94	1717.9
731.126	1904.27
731.313	1828.49
731.499	1873.55
731.685	1898.13
731.871	1836.69
732.057	1922.7
732.243	1932.94
732.429	1844.88
732.615	2037.39
732.801	1861.26
732.987	1943.18
733.173	1881.74
733.359	1846.93
733.545	1865.36
733.731	1830.54
733.917	1881.74
734.103	1910.41
734.289	1939.09
734.475	1891.98
734.661	1898.13
734.847	1808.02
735.033	1924.75
735.219	1867.41
735.404	1752.72
735.59	1812.11
735.776	1808.02
735.962	1816.21
736.148	1787.54
736.333	1963.66
736.519	1857.17
736.705	1830.54
736.89	1914.51
737.076	1869.45
737.262	1799.82
737.447	1824.4
737.633	1840.78
737.819	1816.21
738.004	1894.03
738.19	1816.21
738.375	1853.07
738.561	1844.88
738.747	1891.98
738.932	1719.95
739.118	1947.28
739.303	1848.97
739.489	1801.87
739.674	1894.03
739.859	1818.25
740.045	1771.15
740.23	1924.75
740.416	1736.34
740.601	1814.16
740.786	1861.26
740.972	1797.78
741.157	1775.25
741.342	1832.59
741.528	1765.01
741.713	1775.25
741.898	1848.97
742.084	1697.42
742.269	1801.87
742.454	1752.72
742.639	1865.36
742.824	1754.77
743.01	1687.18
743.195	1808.02
743.38	1740.43
743.565	1635.99
743.75	1644.18
743.935	1758.86
744.12	1674.9
744.305	1623.7
744.49	1605.27
744.675	1676.95
744.86	1748.62
745.045	1693.33
745.23	1742.48
745.415	1660.56
745.6	1668.75
745.785	1681.04
745.97	1545.88
746.155	1592.98
746.34	1654.42
746.525	1664.66
746.71	1570.45
746.895	1635.99
747.079	1521.3
747.264	1455.76
747.449	1560.21
747.634	1535.64
747.819	1564.31
748.003	1545.88
748.188	1463.96
748.373	1414.81
748.557	1570.45
748.742	1490.58
748.927	1474.2
749.111	1529.49
749.296	1414.81
749.481	1513.11
749.665	1511.06
749.85	1496.72
750.034	1414.81
750.219	1486.48
750.404	1369.75
750.588	1433.24
750.773	1355.41
750.957	1306.26
751.141	1431.19
751.326	1377.94
751.51	1250.97
751.695	1287.83
751.879	1349.27
752.064	1312.41
752.248	1349.27
752.432	1306.26
752.617	1371.8
752.801	1267.35
752.985	1373.85
753.17	1334.93
753.354	1361.56
753.538	1283.74
753.722	1244.82
753.907	1240.73
754.091	1162.9
754.275	1203.86
754.459	1152.67
754.643	1164.95
754.828	1300.12
755.012	1244.82
755.196	1201.82
755.38	1130.14
755.564	1236.63
755.748	1310.36
755.932	1123.99
756.116	1183.38
756.3	1191.58
756.484	1031.83
756.668	1123.99
756.852	1173.14
757.036	1128.09
757.22	1119.9
757.404	1134.23
757.588	1042.07
757.772	1117.85
757.956	1115.8
758.14	1136.28
758.323	1056.41
758.507	1097.37
758.691	1087.13
758.875	976.54
759.059	1031.83
759.242	966.3
759.426	1056.41
759.61	1064.6
759.794	949.92
759.977	1017.5
760.161	1107.61
760.345	1033.88
760.528	1027.74
760.712	974.49
760.895	960.16
761.079	1048.22
761.263	1042.07
761.446	968.35
761.63	960.16
761.813	958.11
761.997	923.29
762.18	997.02
762.364	868
762.547	943.77
762.731	900.76
762.914	898.72
763.098	962.2
763.281	937.63
763.464	861.85
763.648	853.66
763.831	861.85
764.015	943.77
764.198	892.57
764.381	896.67
764.564	925.34
764.748	868
764.931	861.85
765.114	882.33
765.297	941.72
765.481	800.41
765.664	894.62
765.847	851.61
766.03	915.1
766.213	911
766.397	808.61
766.58	906.91
766.763	927.39
766.946	736.93
767.129	773.79
767.312	761.5
767.495	816.8
767.678	804.51
767.861	888.48
768.044	788.13
768.227	820.89
768.41	710.3
768.593	861.85
768.776	900.76
768.959	841.37
769.142	894.62
769.324	734.88
769.507	804.51
769.69	794.27
769.873	818.85
770.056	796.32
770.239	820.89
770.421	734.88
770.604	833.18
770.787	738.98
770.97	786.08
771.152	714.4
771.335	874.14
771.518	779.93
771.7	818.85
771.883	745.12
772.066	775.84
772.248	775.84
772.431	812.7
772.613	710.3
772.796	769.69
772.978	716.45
773.161	734.88
773.343	718.5
773.526	702.11
773.708	712.35
773.891	718.5
774.073	751.26
774.256	681.63
774.438	769.69
774.621	671.39
774.803	640.67
774.985	706.21
775.168	665.25
775.35	626.34
775.532	671.39
775.715	681.63
775.897	597.67
776.079	679.58
776.261	632.48
776.444	591.52
776.626	630.43
776.808	581.28
776.99	573.09
777.173	618.15
777.355	566.95
777.537	695.97
777.719	624.29
777.901	607.91
778.083	558.75
778.265	614.05
778.447	579.23
778.629	571.04
778.811	612
778.993	650.91
779.175	620.19
779.357	595.62
779.539	517.79
779.721	583.33
779.903	562.85
780.085	583.33
780.267	560.8
780.449	546.47
780.631	585.38
780.812	505.51
780.994	474.79
781.176	482.98
781.358	435.88
781.54	499.36
781.721	538.27
781.903	517.79
782.085	456.36
782.267	513.7
782.448	409.25
782.63	530.08
782.812	505.51
782.993	523.94
783.175	460.45
783.357	493.22
783.538	425.64
783.72	425.64
783.901	458.4
784.083	433.83
784.264	439.97
784.446	390.82
784.627	448.16
784.809	509.6
784.99	415.4
785.172	433.83
785.353	407.2
785.535	489.12
785.716	384.68
785.897	358.05
786.079	427.68
786.26	468.64
786.441	362.15
786.623	298.66
786.804	384.68
786.985	374.44
787.167	423.59
787.348	442.02
787.529	296.61
787.71	423.59
787.891	366.25
788.073	278.18
788.254	351.91
788.435	335.53
788.616	341.67
788.797	353.96
788.978	376.48
789.159	386.72
789.34	372.39
789.522	317.09
789.703	321.19
789.884	341.67
790.065	372.39
790.246	380.58
790.427	288.42
790.607	413.35
790.788	294.57
790.969	259.75
791.15	376.48
791.331	239.27
791.512	278.18
791.693	245.41
791.874	278.18
792.054	292.52
792.235	304.81
792.416	292.52
792.597	231.08
792.778	325.29
792.958	321.19
793.139	267.94
793.32	308.9
793.5	296.61
793.681	310.95
793.862	317.09
794.042	296.61
794.223	255.65
794.404	233.13
794.584	220.84
794.765	298.66
794.945	374.44
795.126	394.92
795.306	308.9
795.487	304.81
795.667	194.22
795.848	263.85
796.028	214.7
796.209	239.27
796.389	194.22
796.57	239.27
796.75	153.26
796.93	267.94
797.111	186.02
797.291	259.75
797.471	245.41
797.652	255.65
797.832	140.97
798.012	237.22
798.192	267.94
798.373	212.65
798.553	212.65
798.733	243.37
798.913	235.18
799.093	198.31
799.274	214.7
799.454	269.99
799.634	235.18
799.814	226.98
799.994	265.89
800.174	210.6
800.354	226.98
800.534	190.12
800.714	292.52
800.894	210.6
801.074	165.54
801.254	243.37
801.434	173.74
801.614	247.46
801.794	255.65
801.974	808.61
802.154	145.06
802.334	288.42
802.514	202.41
802.693	196.26
802.873	112.3
803.053	220.84
803.233	272.04
803.413	161.45
803.592	190.12
803.772	167.59
803.952	226.98
804.131	200.36
804.311	177.83
804.491	147.11
804.67	171.69
804.85	136.87
805.03	212.65
805.209	149.16
805.389	188.07
805.568	198.31
805.748	136.87
805.928	126.63
806.107	229.03
806.287	218.79
806.466	177.83
806.646	130.73
806.825	210.6
807.004	210.6
807.184	224.94
807.363	136.87
807.543	173.74
807.722	177.83
807.901	155.3
808.081	190.12
808.26	100.01
808.439	138.92
808.619	106.15
808.798	122.54
808.977	202.41
809.156	183.98
809.336	179.88
809.515	167.59
809.694	126.63
809.873	177.83
810.052	149.16
810.231	245.41
810.411	134.82
810.59	122.54
810.769	147.11
810.948	132.78
811.127	57
811.306	138.92
811.485	93.87
811.664	122.54
811.843	120.49
812.022	169.64
812.201	212.65
812.38	116.39
812.559	87.72
812.737	153.26
812.916	114.34
813.095	120.49
813.274	161.45
813.453	130.73
813.632	46.76
813.811	161.45
813.989	79.53
814.168	114.34
814.347	95.91
814.526	157.35
814.704	138.92
814.883	194.22
815.062	143.02
815.24	161.45
815.419	112.3
815.598	89.77
815.776	120.49
815.955	87.72
816.133	18.09
816.312	87.72
816.49	136.87
816.669	116.39
816.847	106.15
817.026	112.3
817.204	81.58
817.383	104.11
817.561	136.87
817.74	145.06
817.918	120.49
818.097	52.91
818.275	91.82
818.453	79.53
818.632	147.11
818.81	114.34
818.988	159.4
819.167	112.3
819.345	91.82
819.523	157.35
819.701	153.26
819.879	95.91
820.058	79.53
820.236	81.58
820.414	122.54
820.592	22.19
820.77	48.81
820.948	108.2
821.127	57
821.305	40.62
821.483	40.62
821.661	63.15
821.839	91.82
822.017	54.95
822.195	63.15
822.373	181.93
822.551	79.53
822.729	89.77
822.907	85.67
823.085	179.88
823.262	100.01
823.44	120.49
823.618	89.77
823.796	91.82
823.974	59.05
824.152	42.67
824.329	77.48
824.507	106.15
824.685	161.45
824.863	89.77
825.04	102.06
825.218	114.34
825.396	91.82
825.574	167.59
825.751	79.53
825.929	108.2
826.107	87.72
826.284	34.47
826.462	38.57
826.639	44.71
826.817	7.85
826.994	81.58
827.172	63.15
827.349	95.91
827.527	112.3
827.704	104.11
827.882	83.63
828.059	100.01
828.237	18.09
828.414	81.58
828.591	54.95
828.769	106.15
828.946	77.48
829.124	79.53
829.301	95.91
829.478	30.38
829.655	95.91
829.833	145.06
830.01	5.8
830.187	-0.34
830.364	38.57
830.542	50.86
830.719	79.53
830.896	50.86
831.073	59.05
831.25	104.11
831.427	73.39
831.604	71.34
831.782	63.15
831.959	79.53
832.136	63.15
832.313	59.05
832.49	75.43
832.667	130.73
832.844	63.15
833.021	134.82
833.198	97.96
833.374	54.95
833.551	-10.58
833.728	91.82
833.905	-2.39
834.082	24.23
834.259	-14.68
834.436	91.82
834.612	38.57
834.789	69.29
834.966	1.71
835.143	40.62
835.319	65.19
835.496	-10.58
835.673	13.99
835.85	81.58
836.026	114.34
836.203	54.95
836.38	73.39
836.556	13.99
836.733	18.09
836.909	57
837.086	-37.2
837.262	46.76
837.439	5.8
837.616	1.71
837.792	46.76
837.968	63.15
838.145	24.23
838.321	122.54
838.498	40.62
838.674	112.3
838.851	106.15
839.027	26.28
839.203	102.06
839.38	108.2
839.556	30.38
839.732	30.38
839.909	42.67
840.085	63.15
840.261	75.43
840.437	38.57
840.614	116.39
840.79	106.15
840.966	28.33
841.142	-22.87
841.318	57
841.494	114.34
841.671	104.11
841.847	18.09
842.023	52.91
842.199	93.87
842.375	16.04
842.551	-76.12
842.727	7.85
842.903	44.71
843.079	44.71
843.255	106.15
843.431	-84.31
843.607	18.09
843.783	-26.96
843.959	75.43
844.134	67.24
844.31	54.95
844.486	-4.44
844.662	-35.16
844.838	61.1
845.013	32.43
845.189	38.57
845.365	54.95
845.541	71.34
845.716	54.95
845.892	30.38
846.068	79.53
846.244	-18.77
846.419	-35.16
846.595	-22.87
846.77	22.19
846.946	1.71
847.122	54.95
847.297	22.19
847.473	20.14
847.648	63.15
847.824	7.85
847.999	-35.16
848.175	100.01
848.35	71.34
848.526	16.04
848.701	-0.34
848.876	1.71
849.052	79.53
849.227	54.95
849.403	63.15
849.578	13.99
849.753	67.24
849.929	104.11
850.104	-37.2
850.279	-14.68
850.454	75.43
850.63	52.91
850.805	-26.96
850.98	57
851.155	-6.49
851.33	18.09
851.505	-2.39
851.681	5.8
851.856	42.67
852.031	87.72
852.206	24.23
852.381	-76.12
852.556	5.8
852.731	71.34
852.906	63.15
853.081	57
853.256	30.38
853.431	81.58
853.606	-35.16
853.781	-6.49
853.956	-53.59
854.131	73.39
854.305	30.38
854.48	54.95
854.655	1.71
854.83	-26.96
855.005	44.71
855.18	44.71
855.354	-14.68
855.529	5.8
855.704	-12.63
855.879	46.76
856.053	16.04
856.228	-2.39
856.403	-22.87
856.577	46.76
856.752	26.28
856.926	46.76
857.101	22.19
857.276	46.76
857.45	-35.16
857.625	46.76
857.799	16.04
857.974	-8.53
858.148	-14.68
858.323	97.96
858.497	42.67
858.672	-39.25
858.846	13.99
859.02	9.9
859.195	-74.07
859.369	-18.77
859.543	-26.96
859.718	5.8
859.892	11.95
860.066	34.47
860.241	-33.11
860.415	-0.34
860.589	-22.87
860.763	-10.58
860.938	-51.54
861.112	-57.68
861.286	-10.58
861.46	38.57
861.634	-8.53
861.808	48.81
861.982	-61.78
862.157	-47.44
862.331	20.14
862.505	-59.73
862.679	-43.35
862.853	-24.92
863.027	-18.77
863.201	28.33
863.375	5.8
863.549	63.15
863.722	34.47
863.896	34.47
864.07	28.33
864.244	87.72
864.418	44.71
864.592	112.3
864.766	38.57
864.939	-14.68
865.113	16.04
865.287	11.95
865.461	83.63
865.634	-47.44
865.808	-4.44
865.982	32.43
866.156	-63.83
866.329	-35.16
866.503	-14.68
866.676	-0.34
866.85	24.23
867.024	38.57
867.197	22.19
867.371	7.85
867.544	22.19
867.718	-16.73
867.891	22.19
868.065	-92.5
868.238	7.85
868.412	30.38
868.585	54.95
868.759	-18.77
868.932	-67.92
869.105	28.33
869.279	67.24
869.452	61.1
869.625	65.19
869.799	83.63
869.972	26.28
870.145	-53.59
870.319	22.19
870.492	30.38
870.665	-47.44
870.838	-76.12
871.011	-51.54
871.185	71.34
871.358	-33.11
871.531	13.99
871.704	-31.06
871.877	-10.58
872.05	-33.11
872.223	-24.92
872.396	34.47
872.569	59.05
872.742	-63.83
872.915	38.57
873.088	-20.82
873.261	-39.25
873.434	44.71
873.607	77.48
873.78	-18.77
873.953	-106.84
874.126	-8.53
874.299	-10.58
874.471	46.76
874.644	30.38
874.817	34.47
874.99	63.15
875.163	-26.96
875.335	40.62
875.508	-43.35
875.681	50.86
875.853	-57.68
876.026	30.38
876.199	69.29
876.371	71.34
876.544	3.75
876.717	-16.73
876.889	-43.35
877.062	-10.58
877.234	-47.44
877.407	54.95
877.579	16.04
877.752	24.23
877.924	-26.96
878.097	9.9
878.269	-8.53
878.442	-0.34
878.614	-20.82
878.786	46.76
878.959	-6.49
879.131	-10.58
879.303	13.99
879.476	30.38
879.648	-8.53
879.82	-65.88
879.993	3.75
880.165	-0.34
880.337	-31.06
880.509	-14.68
880.681	-26.96
880.854	13.99
881.026	-22.87
881.198	120.49
881.37	-24.92
881.542	16.04
881.714	-6.49
881.886	-24.92
882.058	9.9
882.23	38.57
882.402	5.8
882.574	18.09
882.746	18.09
882.918	79.53
883.09	18.09
883.262	-51.54
883.434	-31.06
883.606	-43.35
883.778	-57.68
883.95	71.34
884.122	7.85
884.293	-2.39
884.465	-4.44
884.637	57
884.809	-67.92
884.98	-8.53
885.152	-47.44
885.324	50.86
885.496	-53.59
885.667	24.23
885.839	-35.16
886.011	-2.39
886.182	-29.01
886.354	87.72
886.525	13.99
886.697	13.99
886.869	-39.25
887.04	-20.82
887.212	-10.58
887.383	83.63
887.555	-37.2
887.726	-49.49
887.897	-51.54
888.069	9.9
888.24	-49.49
888.412	18.09
888.583	13.99
888.754	30.38
888.926	-4.44
889.097	-4.44
889.268	22.19
889.44	-8.53
889.611	-39.25
889.782	-88.4
889.953	-35.16
890.125	46.76
890.296	-43.35
890.467	34.47
890.638	-6.49
890.809	16.04
890.98	-57.68
891.151	42.67
891.323	112.3
891.494	-39.25
891.665	7.85
891.836	46.76
892.007	-16.73
892.178	9.9
892.349	16.04
892.52	-45.4
892.691	9.9
892.862	11.95
893.032	-4.44
893.203	-117.08
893.374	73.39
893.545	22.19
893.716	26.28
893.887	24.23
894.057	34.47
894.228	-18.77
894.399	-39.25
894.57	61.1
894.74	-24.92
894.911	13.99
895.082	-22.87
895.253	-39.25
895.423	-16.73
895.594	46.76
895.764	-14.68
895.935	-18.77
896.106	13.99
896.276	-10.58
896.447	-43.35
896.617	-18.77
896.788	1.71
896.958	-43.35
897.129	-10.58
897.299	-16.73
897.47	7.85
897.64	32.43
897.81	-26.96
897.981	75.43
898.151	46.76
898.322	-14.68
898.492	-10.58
898.662	-61.78
898.832	-82.26
899.003	13.99
899.173	-18.77
899.343	-10.58
899.513	-74.07
