Data from USB4F104151__269__14-46-06-519.txt Node

Date: Thu Mar 13 14:46:06 EDT 2025
User: louis
Spectrometer: USB4F10415
Trigger mode: 4
Integration Time (sec): 2.000000E-2
Scans to average: 1
Electric dark correction enabled: true
Nonlinearity correction enabled: false
Boxcar width: 0
XAxis mode: Wavelengths
Number of Pixels in Spectrum: 3648
>>>>>Begin Spectral Data<<<<<
178.204	-206.33
178.424	-206.33
178.644	-206.33
178.864	-140.8
179.084	-105.98
179.304	0.51
179.524	-1.54
179.744	-36.35
179.964	12.8
180.184	61.95
180.404	47.62
180.624	14.85
180.844	-26.11
181.064	0.51
181.283	-30.21
181.503	-44.54
181.723	0.51
181.943	-62.98
182.163	49.66
182.383	-44.54
182.602	45.57
182.822	53.76
183.042	12.8
183.262	16.9
183.482	49.66
183.701	-11.78
183.921	66.05
184.141	119.29
184.361	107.01
184.58	4.61
184.8	29.18
185.02	59.9
185.239	-17.92
185.459	0.51
185.679	76.29
185.898	0.51
186.118	-62.98
186.338	20.99
186.557	72.19
186.777	-44.54
186.997	-7.68
187.216	-22.02
187.436	125.44
187.655	4.61
187.875	111.1
188.095	51.71
188.314	57.86
188.534	41.47
188.753	33.28
188.973	33.28
189.192	6.66
189.412	92.67
189.631	8.7
189.851	37.38
190.07	10.75
190.29	45.57
190.509	-65.02
190.729	39.42
190.948	115.2
191.168	86.53
191.387	94.72
191.607	-48.64
191.826	59.9
192.045	10.75
192.265	25.09
192.484	57.86
192.704	78.33
192.923	-79.36
193.142	139.77
193.362	-1.54
193.581	20.99
193.8	12.8
194.02	102.91
194.239	12.8
194.458	-3.58
194.678	78.33
194.897	4.61
195.116	33.28
195.335	53.76
195.555	-19.97
195.774	-1.54
195.993	55.81
196.212	43.52
196.432	0.51
196.651	23.04
196.87	41.47
197.089	72.19
197.308	61.95
197.528	20.99
197.747	-46.59
197.966	41.47
198.185	4.61
198.404	-19.97
198.623	70.14
198.842	33.28
199.062	43.52
199.281	131.58
199.5	41.47
199.719	41.47
199.938	35.33
200.157	80.38
200.376	-11.78
200.595	31.23
200.814	27.14
201.033	-19.97
201.252	0.51
201.471	-34.3
201.69	53.76
201.909	74.24
202.128	0.51
202.347	-11.78
202.566	-3.58
202.785	47.62
203.004	-17.92
203.223	-13.82
203.442	6.66
203.661	16.9
203.879	16.9
204.098	-28.16
204.317	-5.63
204.536	78.33
204.755	37.38
204.974	72.19
205.193	6.66
205.411	-1.54
205.63	53.76
205.849	-50.69
206.068	-7.68
206.287	-26.11
206.505	70.14
206.724	39.42
206.943	29.18
207.162	57.86
207.381	31.23
207.599	25.09
207.818	-9.73
208.037	31.23
208.255	6.66
208.474	-3.58
208.693	33.28
208.911	8.7
209.13	47.62
209.349	37.38
209.567	74.24
209.786	4.61
210.005	109.05
210.223	70.14
210.442	-42.5
210.661	37.38
210.879	-67.07
211.098	-40.45
211.316	35.33
211.535	82.43
211.753	14.85
211.972	29.18
212.191	119.29
212.409	78.33
212.628	23.04
212.846	57.86
213.065	0.51
213.283	39.42
213.502	-13.82
213.72	6.66
213.938	41.47
214.157	94.72
214.375	94.72
214.594	61.95
214.812	4.61
215.031	-24.06
215.249	80.38
215.467	49.66
215.686	-11.78
215.904	25.09
216.122	33.28
216.341	37.38
216.559	59.9
216.778	27.14
216.996	37.38
217.214	12.8
217.432	12.8
217.651	37.38
217.869	25.09
218.087	33.28
218.306	-22.02
218.524	31.23
218.742	29.18
218.96	59.9
219.179	37.38
219.397	-7.68
219.615	10.75
219.833	66.05
220.051	29.18
220.27	39.42
220.488	78.33
220.706	82.43
220.924	-60.93
221.142	94.72
221.36	49.66
221.578	41.47
221.796	53.76
222.015	16.9
222.233	-46.59
222.451	53.76
222.669	-60.93
222.887	43.52
223.105	-36.35
223.323	27.14
223.541	39.42
223.759	31.23
223.977	25.09
224.195	80.38
224.413	51.71
224.631	-15.87
224.849	-1.54
225.067	49.66
225.285	-19.97
225.503	-42.5
225.721	12.8
225.939	-9.73
226.157	45.57
226.375	70.14
226.592	-19.97
226.81	35.33
227.028	29.18
227.246	70.14
227.464	-11.78
227.682	37.38
227.9	8.7
228.117	-7.68
228.335	20.99
228.553	23.04
228.771	-3.58
228.989	96.77
229.206	61.95
229.424	-36.35
229.642	51.71
229.86	41.47
230.077	53.76
230.295	-1.54
230.513	14.85
230.731	86.53
230.948	53.76
231.166	96.77
231.384	2.56
231.601	12.8
231.819	23.04
232.037	33.28
232.254	41.47
232.472	12.8
232.689	14.85
232.907	90.62
233.125	39.42
233.342	27.14
233.56	78.33
233.777	12.8
233.995	-11.78
234.213	59.9
234.43	43.52
234.648	-44.54
234.865	117.25
235.083	53.76
235.3	12.8
235.518	4.61
235.735	14.85
235.953	61.95
236.17	12.8
236.388	8.7
236.605	39.42
236.822	72.19
237.04	64
237.257	45.57
237.475	-17.92
237.692	72.19
237.909	88.57
238.127	-15.87
238.344	12.8
238.562	18.94
238.779	29.18
238.996	33.28
239.214	64
239.431	61.95
239.648	-52.74
239.865	20.99
240.083	8.7
240.3	-11.78
240.517	25.09
240.735	4.61
240.952	-3.58
241.169	115.2
241.386	-44.54
241.603	-7.68
241.821	4.61
242.038	-1.54
242.255	70.14
242.472	74.24
242.689	8.7
242.907	-19.97
243.124	61.95
243.341	-3.58
243.558	-60.93
243.775	49.66
243.992	43.52
244.209	37.38
244.426	25.09
244.643	25.09
244.86	39.42
245.078	2.56
245.295	8.7
245.512	39.42
245.729	18.94
245.946	6.66
246.163	-13.82
246.38	-32.26
246.597	37.38
246.814	20.99
247.031	-7.68
247.248	104.96
247.464	37.38
247.681	37.38
247.898	4.61
248.115	12.8
248.332	-30.21
248.549	35.33
248.766	90.62
248.983	59.9
249.2	20.99
249.417	61.95
249.633	12.8
249.85	14.85
250.067	-44.54
250.284	23.04
250.501	6.66
250.717	53.76
250.934	45.57
251.151	86.53
251.368	-60.93
251.585	-1.54
251.801	4.61
252.018	-75.26
252.235	47.62
252.451	-44.54
252.668	-38.4
252.885	14.85
253.102	6.66
253.318	-36.35
253.535	-77.31
253.752	-24.06
253.968	-19.97
254.185	61.95
254.401	55.81
254.618	25.09
254.835	10.75
255.051	74.24
255.268	-38.4
255.484	53.76
255.701	33.28
255.917	31.23
256.134	18.94
256.351	-19.97
256.567	-28.16
256.784	37.38
257	6.66
257.217	-48.64
257.433	29.18
257.65	31.23
257.866	31.23
258.082	31.23
258.299	-67.07
258.515	-28.16
258.732	14.85
258.948	-26.11
259.165	33.28
259.381	64
259.597	78.33
259.814	107.01
260.03	25.09
260.246	20.99
260.463	64
260.679	14.85
260.895	0.51
261.112	6.66
261.328	6.66
261.544	-26.11
261.761	88.57
261.977	14.85
262.193	-11.78
262.409	-7.68
262.626	61.95
262.842	14.85
263.058	6.66
263.274	49.66
263.49	-11.78
263.707	61.95
263.923	78.33
264.139	4.61
264.355	49.66
264.571	23.04
264.787	37.38
265.004	49.66
265.22	-11.78
265.436	8.7
265.652	-11.78
265.868	41.47
266.084	68.09
266.3	-1.54
266.516	12.8
266.732	41.47
266.948	-7.68
267.164	16.9
267.38	20.99
267.596	-1.54
267.812	47.62
268.028	12.8
268.244	45.57
268.46	16.9
268.676	-28.16
268.892	47.62
269.108	-19.97
269.324	8.7
269.54	-38.4
269.756	61.95
269.972	8.7
270.188	80.38
270.403	-19.97
270.619	12.8
270.835	27.14
271.051	-7.68
271.267	-38.4
271.483	4.61
271.698	-42.5
271.914	80.38
272.13	74.24
272.346	-26.11
272.562	74.24
272.777	61.95
272.993	0.51
273.209	41.47
273.425	23.04
273.64	12.8
273.856	72.19
274.072	33.28
274.287	16.9
274.503	12.8
274.719	61.95
274.934	-19.97
275.15	-17.92
275.366	-17.92
275.581	-3.58
275.797	-3.58
276.012	61.95
276.228	-7.68
276.444	14.85
276.659	29.18
276.875	-40.45
277.09	6.66
277.306	4.61
277.521	29.18
277.737	-58.88
277.952	74.24
278.168	20.99
278.383	74.24
278.599	20.99
278.814	53.76
279.03	-11.78
279.245	45.57
279.461	23.04
279.676	-15.87
279.892	-19.97
280.107	57.86
280.322	-50.69
280.538	-56.83
280.753	80.38
280.969	23.04
281.184	-9.73
281.399	16.9
281.615	6.66
281.83	98.81
282.045	-1.54
282.26	-89.6
282.476	37.38
282.691	129.53
282.906	-7.68
283.122	-26.11
283.337	-34.3
283.552	64
283.767	20.99
283.983	98.81
284.198	-19.97
284.413	70.14
284.628	-11.78
284.843	10.75
285.058	14.85
285.274	-38.4
285.489	29.18
285.704	47.62
285.919	-73.21
286.134	6.66
286.349	6.66
286.564	84.48
286.779	61.95
286.995	23.04
287.21	-65.02
287.425	111.1
287.64	29.18
287.855	49.66
288.07	-48.64
288.285	31.23
288.5	-3.58
288.715	6.66
288.93	47.62
289.145	86.53
289.36	72.19
289.575	12.8
289.79	0.51
290.004	82.43
290.219	43.52
290.434	-3.58
290.649	20.99
290.864	-42.5
291.079	37.38
291.294	49.66
291.509	53.76
291.724	53.76
291.938	-58.88
292.153	107.01
292.368	-22.02
292.583	70.14
292.798	47.62
293.012	31.23
293.227	-44.54
293.442	-19.97
293.657	29.18
293.871	78.33
294.086	-11.78
294.301	86.53
294.516	53.76
294.73	-19.97
294.945	-50.69
295.16	20.99
295.374	29.18
295.589	78.33
295.804	-28.16
296.018	4.61
296.233	102.91
296.447	45.57
296.662	29.18
296.877	53.76
297.091	37.38
297.306	43.52
297.52	25.09
297.735	8.7
297.949	78.33
298.164	37.38
298.378	-11.78
298.593	35.33
298.807	-34.3
299.022	45.57
299.236	86.53
299.451	12.8
299.665	-17.92
299.88	29.18
300.094	-28.16
300.309	45.57
300.523	70.14
300.737	4.61
300.952	-17.92
301.166	47.62
301.381	-3.58
301.595	12.8
301.809	14.85
302.024	-24.06
302.238	57.86
302.452	-32.26
302.667	4.61
302.881	47.62
303.095	41.47
303.309	53.76
303.524	-32.26
303.738	96.77
303.952	-32.26
304.166	-26.11
304.381	29.18
304.595	133.63
304.809	-26.11
305.023	-24.06
305.237	12.8
305.452	-11.78
305.666	47.62
305.88	57.86
306.094	66.05
306.308	14.85
306.522	57.86
306.736	-11.78
306.95	-3.58
307.164	0.51
307.379	8.7
307.593	57.86
307.807	25.09
308.021	20.99
308.235	-11.78
308.449	37.38
308.663	74.24
308.877	94.72
309.091	57.86
309.305	33.28
309.519	-17.92
309.733	25.09
309.947	-24.06
310.161	2.56
310.374	66.05
310.588	64
310.802	-3.58
311.016	-5.63
311.23	55.81
311.444	4.61
311.658	45.57
311.872	33.28
312.085	37.38
312.299	107.01
312.513	68.09
312.727	-3.58
312.941	-60.93
313.154	53.76
313.368	23.04
313.582	-32.26
313.796	4.61
314.009	-3.58
314.223	123.39
314.437	14.85
314.651	33.28
314.864	29.18
315.078	-3.58
315.292	-19.97
315.505	-77.31
315.719	43.52
315.933	2.56
316.146	-7.68
316.36	37.38
316.573	86.53
316.787	20.99
317.001	78.33
317.214	23.04
317.428	-5.63
317.641	16.9
317.855	23.04
318.068	2.56
318.282	41.47
318.495	12.8
318.709	82.43
318.922	53.76
319.136	72.19
319.349	39.42
319.563	-3.58
319.776	45.57
319.99	64
320.203	-32.26
320.417	23.04
320.63	41.47
320.843	53.76
321.057	0.51
321.27	68.09
321.483	12.8
321.697	64
321.91	57.86
322.124	23.04
322.337	25.09
322.55	-48.64
322.763	25.09
322.977	-58.88
323.19	12.8
323.403	55.81
323.617	33.28
323.83	45.57
324.043	12.8
324.256	-11.78
324.469	55.81
324.683	70.14
324.896	-30.21
325.109	20.99
325.322	-19.97
325.535	33.28
325.748	-19.97
325.962	-60.93
326.175	-28.16
326.388	29.18
326.601	-7.68
326.814	-5.63
327.027	20.99
327.24	102.91
327.453	-95.74
327.666	29.18
327.879	-15.87
328.092	-17.92
328.305	31.23
328.518	-11.78
328.731	-7.68
328.944	-42.5
329.157	27.14
329.37	92.67
329.583	45.57
329.796	72.19
330.009	-89.6
330.222	6.66
330.435	0.51
330.648	57.86
330.861	-1.54
331.073	66.05
331.286	82.43
331.499	37.38
331.712	16.9
331.925	53.76
332.138	-26.11
332.35	80.38
332.563	16.9
332.776	45.57
332.989	23.04
333.202	41.47
333.414	25.09
333.627	-40.45
333.84	64
334.053	18.94
334.265	12.8
334.478	23.04
334.691	-38.4
334.903	-58.88
335.116	47.62
335.329	37.38
335.541	12.8
335.754	61.95
335.966	4.61
336.179	94.72
336.392	55.81
336.604	88.57
336.817	61.95
337.029	23.04
337.242	-42.5
337.454	66.05
337.667	16.9
337.88	61.95
338.092	51.71
338.305	82.43
338.517	-1.54
338.729	33.28
338.942	104.96
339.154	10.75
339.367	-40.45
339.579	74.24
339.792	61.95
340.004	-1.54
340.217	25.09
340.429	29.18
340.641	39.42
340.854	6.66
341.066	27.14
341.278	31.23
341.491	76.29
341.703	16.9
341.915	-44.54
342.128	100.86
342.34	20.99
342.552	-32.26
342.764	-26.11
342.977	-32.26
343.189	98.81
343.401	-13.82
343.613	-15.87
343.826	53.76
344.038	0.51
344.25	59.9
344.462	-19.97
344.674	6.66
344.886	47.62
345.099	59.9
345.311	-15.87
345.523	-36.35
345.735	-26.11
345.947	29.18
346.159	-7.68
346.371	12.8
346.583	23.04
346.795	61.95
347.007	-22.02
347.219	-19.97
347.431	-19.97
347.643	-5.63
347.855	-7.68
348.067	64
348.279	-42.5
348.491	-40.45
348.703	-11.78
348.915	20.99
349.127	-52.74
349.339	12.8
349.551	45.57
349.763	4.61
349.975	-7.68
350.187	-17.92
350.399	35.33
350.61	113.15
350.822	23.04
351.034	-7.68
351.246	-36.35
351.458	98.81
351.669	41.47
351.881	20.99
352.093	35.33
352.305	94.72
352.517	-7.68
352.728	6.66
352.94	80.38
353.152	70.14
353.363	96.77
353.575	84.48
353.787	55.81
353.999	53.76
354.21	123.39
354.422	-11.78
354.633	-1.54
354.845	80.38
355.057	16.9
355.268	-11.78
355.48	86.53
355.692	-19.97
355.903	4.61
356.115	-3.58
356.326	10.75
356.538	80.38
356.749	43.52
356.961	100.86
357.172	23.04
357.384	-9.73
357.595	76.29
357.807	-77.31
358.018	-26.11
358.23	39.42
358.441	115.2
358.653	31.23
358.864	-3.58
359.075	45.57
359.287	33.28
359.498	80.38
359.709	90.62
359.921	37.38
360.132	76.29
360.344	86.53
360.555	-3.58
360.766	27.14
360.977	-19.97
361.189	35.33
361.4	-5.63
361.611	8.7
361.823	4.61
362.034	-7.68
362.245	29.18
362.456	111.1
362.667	33.28
362.879	61.95
363.09	12.8
363.301	6.66
363.512	-15.87
363.723	20.99
363.935	16.9
364.146	78.33
364.357	20.99
364.568	-11.78
364.779	-36.35
364.99	70.14
365.201	0.51
365.412	86.53
365.623	-7.68
365.834	115.2
366.045	-5.63
366.256	121.34
366.467	70.14
366.678	-9.73
366.889	-11.78
367.1	-19.97
367.311	45.57
367.522	-50.69
367.733	37.38
367.944	57.86
368.155	55.81
368.366	64
368.577	53.76
368.788	25.09
368.999	6.66
369.209	6.66
369.42	25.09
369.631	107.01
369.842	43.52
370.053	-7.68
370.264	43.52
370.474	14.85
370.685	29.18
370.896	31.23
371.107	29.18
371.317	94.72
371.528	-28.16
371.739	119.29
371.95	29.18
372.16	66.05
372.371	29.18
372.582	37.38
372.792	98.81
373.003	37.38
373.214	45.57
373.424	33.28
373.635	31.23
373.846	45.57
374.056	-11.78
374.267	8.7
374.477	31.23
374.688	-48.64
374.898	59.9
375.109	68.09
375.319	72.19
375.53	86.53
375.74	-1.54
375.951	-11.78
376.161	33.28
376.372	39.42
376.582	96.77
376.793	49.66
377.003	-17.92
377.214	-26.11
377.424	27.14
377.635	82.43
377.845	-19.97
378.055	84.48
378.266	98.81
378.476	92.67
378.686	100.86
378.897	64
379.107	18.94
379.317	53.76
379.528	43.52
379.738	49.66
379.948	14.85
380.158	23.04
380.369	14.85
380.579	-1.54
380.789	29.18
380.999	47.62
381.21	39.42
381.42	111.1
381.63	76.29
381.84	4.61
382.05	-9.73
382.261	78.33
382.471	104.96
382.681	88.57
382.891	131.58
383.101	-9.73
383.311	35.33
383.521	12.8
383.731	53.76
383.941	94.72
384.151	45.57
384.361	57.86
384.571	8.7
384.781	119.29
384.991	158.21
385.201	70.14
385.411	84.48
385.621	4.61
385.831	53.76
386.041	64
386.251	53.76
386.461	25.09
386.671	94.72
386.881	68.09
387.091	-75.26
387.301	76.29
387.511	20.99
387.72	47.62
387.93	-7.68
388.14	29.18
388.35	-19.97
388.56	64
388.769	119.29
388.979	53.76
389.189	72.19
389.399	20.99
389.609	102.91
389.818	70.14
390.028	37.38
390.238	25.09
390.447	-17.92
390.657	49.66
390.867	37.38
391.076	-3.58
391.286	14.85
391.496	57.86
391.705	-34.3
391.915	64
392.125	-7.68
392.334	47.62
392.544	23.04
392.753	68.09
392.963	37.38
393.172	88.57
393.382	20.99
393.591	152.06
393.801	23.04
394.01	37.38
394.22	59.9
394.429	53.76
394.639	33.28
394.848	64
395.058	-26.11
395.267	66.05
395.477	90.62
395.686	61.95
395.895	133.63
396.105	111.1
396.314	55.81
396.524	78.33
396.733	37.38
396.942	174.59
397.152	59.9
397.361	72.19
397.57	61.95
397.78	-36.35
397.989	98.81
398.198	135.68
398.407	33.28
398.617	104.96
398.826	0.51
399.035	45.57
399.244	43.52
399.453	61.95
399.663	143.87
399.872	61.95
400.081	64
400.29	98.81
400.499	61.95
400.708	104.96
400.917	98.81
401.127	-15.87
401.336	23.04
401.545	115.2
401.754	117.25
401.963	186.88
402.172	96.77
402.381	78.33
402.59	78.33
402.799	150.01
403.008	160.25
403.217	162.3
403.426	129.53
403.635	16.9
403.844	70.14
404.053	12.8
404.262	86.53
404.471	201.21
404.68	133.63
404.888	104.96
405.097	78.33
405.306	111.1
405.515	152.06
405.724	168.45
405.933	82.43
406.142	147.97
406.35	147.97
406.559	113.15
406.768	190.97
406.977	176.64
407.185	131.58
407.394	201.21
407.603	131.58
407.812	152.06
408.02	215.55
408.229	143.87
408.438	233.98
408.646	154.11
408.855	195.07
409.064	170.49
409.272	156.16
409.481	258.56
409.69	164.35
409.898	217.6
410.107	217.6
410.315	270.84
410.524	215.55
410.733	266.75
410.941	186.88
411.15	266.75
411.358	256.51
411.567	387.58
411.775	324.09
411.984	334.33
412.192	328.19
412.401	346.62
412.609	420.35
412.818	397.82
413.026	457.21
413.234	408.06
413.443	473.59
413.651	373.24
413.86	406.01
414.068	483.83
414.276	455.16
414.485	471.54
414.693	561.66
414.901	524.79
415.11	549.37
415.318	625.14
415.526	565.75
415.734	545.27
415.943	559.61
416.151	731.64
416.359	676.34
416.567	627.19
416.776	610.81
416.984	719.35
417.192	721.4
417.4	829.94
417.608	727.54
417.817	881.14
418.025	821.75
418.233	864.75
418.441	860.66
418.649	897.52
418.857	932.34
419.065	1090.03
419.273	934.39
419.481	999.92
419.689	1071.6
419.897	1079.79
420.105	1217.01
420.313	1204.72
420.521	1243.63
420.729	1257.96
420.937	1366.51
421.145	1327.6
421.353	1434.09
421.561	1528.3
421.769	1462.76
421.977	1546.73
422.185	1604.07
422.393	1632.74
422.601	1835.49
422.809	1726.95
423.017	1726.95
423.224	1831.4
423.432	1987.04
423.64	1835.49
423.848	2218.46
424.056	1987.04
424.263	2068.96
424.471	2167.26
424.679	2269.66
424.887	2331.1
425.094	2380.25
425.302	2439.64
425.51	2544.09
425.718	2568.66
425.925	2693.59
426.133	2597.34
426.341	2927.06
426.548	3051.99
426.756	3101.14
426.964	3043.79
427.171	3293.65
427.379	3250.64
427.586	3244.49
427.794	3273.17
428.001	3518.92
428.209	3727.82
428.417	3539.4
428.624	4047.3
428.832	3932.61
429.039	3897.8
429.247	3844.55
429.454	4243.9
429.662	4583.87
429.869	4166.08
430.076	4518.33
430.284	4487.61
430.491	4680.12
430.699	4827.57
430.906	4792.76
431.114	5065.14
431.321	5222.83
431.528	5241.26
431.736	5632.43
431.943	5779.88
432.15	5575.08
432.358	5609.9
432.565	5951.91
432.772	5915.05
432.979	6099.36
433.187	6418.85
433.394	6242.72
433.601	6685.08
433.808	6930.84
434.016	6926.74
434.223	7219.6
434.43	7473.55
434.637	7371.15
434.844	7999.88
435.052	7868.81
435.259	8051.08
435.466	8124.8
435.673	8083.84
435.88	8446.34
436.087	8860.02
436.294	8960.38
436.501	8524.16
436.708	8896.89
436.915	9322.87
437.122	9613.68
437.329	9542
437.537	9849.19
437.743	10105.19
437.95	10008.94
438.157	10400.1
438.364	10824.03
438.571	10826.07
438.778	10705.24
438.985	11899.21
439.192	11391.31
439.399	11749.71
439.606	11657.55
439.813	12032.33
440.02	12917.05
440.227	12552.51
440.433	12441.92
440.64	12777.79
440.847	12853.56
441.054	13127.99
441.261	13902.12
441.467	13969.71
441.674	14078.25
441.881	14561.57
442.088	14377.25
442.294	14356.77
442.501	14866.72
442.708	15057.18
442.914	15626.51
443.121	16277.77
443.328	15999.24
443.534	17109.24
443.741	16580.87
443.948	16113.93
444.154	17707.25
444.361	17314.04
444.568	17801.46
444.774	17395.96
444.981	17885.42
445.187	18325.74
445.394	18933.98
445.6	18872.54
445.807	20441.29
446.013	19656.92
446.22	20224.2
446.426	20719.81
446.633	20834.5
446.839	21735.6
447.046	20994.24
447.252	22143.15
447.459	22198.45
447.665	22061.23
447.871	22984.87
448.078	23931.03
448.284	22935.71
448.491	23394.46
448.697	24451.21
448.903	24891.52
449.11	24875.14
449.316	24729.73
449.522	25274.49
449.728	25849.97
449.935	25780.34
450.141	25856.12
450.347	26390.64
450.553	25827.45
450.76	25919.6
450.966	27121.76
451.172	26607.72
451.378	27496.54
451.584	26726.5
451.791	27758.68
451.997	27277.41
452.203	27799.64
452.409	27893.85
452.615	27908.18
452.821	26724.46
453.027	26611.82
453.233	28104.79
453.44	26892.39
453.646	27265.12
453.852	27359.33
454.058	27775.06
454.264	27013.22
454.47	27469.92
454.676	26802.28
454.882	28112.98
455.088	25120.9
455.294	25731.19
455.5	26402.93
455.705	26773.61
455.911	25309.31
456.117	25333.89
456.323	24971.39
456.529	23042.21
456.735	24522.89
456.941	23824.53
457.147	23392.41
457.352	22870.18
457.558	22610.09
457.764	22522.02
457.97	22024.37
458.176	21901.49
458.381	21668.02
458.587	20480.2
458.793	20730.05
458.999	19476.69
459.204	21233.85
459.41	20558.02
459.616	19319
459.821	19290.33
460.027	19206.36
460.233	18608.36
460.438	18004.21
460.644	18073.84
460.85	17252.6
461.055	17002.75
461.261	17213.69
461.466	15640.85
461.672	15008.03
461.878	16529.67
462.083	15427.86
462.289	14922.01
462.494	14852.38
462.7	13957.42
462.905	13685.04
463.111	14235.94
463.316	14090.54
463.522	13932.84
463.727	14108.97
463.932	14119.21
464.138	13642.03
464.343	13861.16
464.549	13635.89
464.754	13922.6
464.959	13748.53
465.165	13685.04
465.37	13103.42
465.575	12884.28
465.781	13297.97
465.986	13361.46
466.191	12822.84
466.397	12640.58
466.602	11958.6
466.807	12460.35
467.012	12400.96
467.218	12460.35
467.423	12362.05
467.628	12525.89
467.833	12851.52
468.038	12263.75
468.244	12208.45
468.449	12605.76
468.654	12122.44
468.859	12022.09
469.064	12075.34
469.269	11477.33
469.474	11698.51
469.679	12124.49
469.885	11604.3
470.09	11600.21
470.295	11358.55
470.5	11497.81
470.705	11514.19
470.91	11030.87
471.115	11231.57
471.32	11319.64
471.525	11196.76
471.73	10731.87
471.935	11039.06
472.139	10504.54
472.344	10762.59
472.549	10443.1
472.754	10561.89
472.959	10226.02
473.164	10049.89
473.369	9894.25
473.574	10264.93
473.778	10217.83
473.983	10172.77
474.188	10000.74
474.393	9453.94
474.598	9810.28
474.802	9652.59
475.007	9605.49
475.212	9634.16
475.417	9073.01
475.621	9230.71
475.826	9034.1
476.031	8913.27
476.235	8794.49
476.44	9253.23
476.645	8671.61
476.849	8821.11
477.054	8604.03
477.259	8493.44
477.463	8497.53
477.668	8550.78
477.872	8446.34
478.077	8098.18
478.282	8161.67
478.486	8040.84
478.691	7958.92
478.895	7934.34
479.1	7784.84
479.304	8059.27
479.509	7602.57
479.713	7889.29
479.918	7565.71
480.122	7442.83
480.326	7496.08
480.531	7516.56
480.735	7532.94
480.94	7508.37
481.144	7942.53
481.348	7410.06
481.553	7557.52
481.757	7389.58
481.961	7418.25
482.166	7381.39
482.37	7512.46
482.574	7319.95
482.778	7336.34
482.983	7680.39
483.187	7344.53
483.391	7428.49
483.595	7469.45
483.8	7315.86
484.004	7332.24
484.208	7373.2
484.412	7360.91
484.616	7422.35
484.821	7278.99
485.025	7174.55
485.229	7313.81
485.433	7307.66
485.637	7387.54
485.841	7274.9
486.045	7303.57
486.249	7315.86
486.453	7328.14
486.657	7238.03
486.861	7276.94
487.065	7133.59
487.269	7180.69
487.473	7035.28
487.677	7311.76
487.881	7518.61
488.085	7158.16
488.289	7442.83
488.493	7354.77
488.697	7510.41
488.901	7510.41
489.105	7426.45
489.309	7330.19
489.512	7524.75
489.716	7360.91
489.92	7539.08
490.124	7526.8
490.328	7534.99
490.531	7365.01
490.735	7709.07
490.939	7539.08
491.143	7446.93
491.346	7713.16
491.55	7557.52
491.754	7627.15
491.958	7700.87
492.161	7567.76
492.365	7772.55
492.569	7756.17
492.772	7590.28
492.976	7926.15
493.18	8069.51
493.383	7885.19
493.587	8012.17
493.79	8028.55
493.994	7899.53
494.197	8120.71
494.401	8114.56
494.605	8262.02
494.808	8442.24
495.012	8343.94
495.215	8425.86
495.419	8364.42
495.622	8294.79
495.825	8565.12
496.029	8556.93
496.232	8622.46
496.436	8733.05
496.639	8892.79
496.843	8790.39
497.046	9165.17
497.249	9073.01
497.453	9197.94
497.656	9408.88
497.859	9294.19
498.063	9453.94
498.266	9531.76
498.469	9691.5
498.673	9654.64
498.876	9877.87
499.079	9802.09
499.282	9826.67
499.485	10193.25
499.689	10041.7
499.892	10185.06
500.095	10379.62
500.298	10645.85
500.501	10641.76
500.705	10920.28
500.908	10981.72
501.111	11141.46
501.314	11061.59
501.517	11073.88
501.72	11469.14
501.923	11469.14
502.126	11632.97
502.329	12185.93
502.532	11862.35
502.735	12007.75
502.938	12267.84
503.141	12489.03
503.344	12562.75
503.547	12636.48
503.75	12652.86
503.953	13023.55
504.156	13005.11
504.359	13521.2
504.562	13310.26
504.765	13459.76
504.968	13689.14
505.17	13879.6
505.373	13924.65
505.576	14217.51
505.779	14151.98
505.982	14498.08
506.185	14645.54
506.387	14700.83
506.59	14897.44
506.793	15024.41
506.996	15388.95
507.198	15522.07
507.401	15458.58
507.604	15683.86
507.807	15935.76
508.009	15997.2
508.212	16171.27
508.415	16220.42
508.617	16494.85
508.82	16328.97
509.022	16738.56
509.225	17019.13
509.428	17019.13
509.63	17395.96
509.833	17340.66
510.035	18075.88
510.238	17680.63
510.44	17901.81
510.643	18362.6
510.845	18481.38
511.048	18542.82
511.25	18843.87
511.453	18995.42
511.655	19491.03
511.858	19239.13
512.06	19630.29
512.262	19830.99
512.465	19714.26
512.667	20256.97
512.87	20379.85
513.072	20484.3
513.274	20848.83
513.477	20951.23
513.679	21027.01
513.881	21457.08
514.084	21534.9
514.286	21631.16
514.488	21639.35
514.69	22354.09
514.893	22194.35
515.095	22575.27
515.297	22644.9
515.499	22673.57
515.701	22816.93
515.904	23490.71
516.106	23685.27
516.308	23572.63
516.51	23920.79
516.712	24205.45
516.914	24187.02
517.116	24860.8
517.318	24932.48
517.52	25045.12
517.722	25079.94
517.925	25399.42
518.127	25579.64
518.329	26007.67
518.531	25800.82
518.733	26378.35
518.935	26636.39
519.136	26622.06
519.338	27134.05
519.54	27052.13
519.742	27275.36
519.944	27361.37
520.146	27725.91
520.348	27867.22
520.55	28303.44
520.752	28242
520.954	28592.2
521.155	28473.42
521.357	29108.29
521.559	28921.93
521.761	29505.6
521.963	29710.39
522.164	29902.9
522.366	29835.32
522.568	30378.03
522.77	30242.87
522.971	30767.15
523.173	30693.42
523.375	31107.11
523.576	30650.41
523.778	30902.31
523.98	31698.97
524.181	31309.86
524.383	31563.81
524.584	32311.31
524.786	31977.5
524.988	31995.93
525.189	32479.25
525.391	32442.38
525.592	32974.86
525.794	32897.03
525.995	32901.13
526.197	32704.52
526.398	33009.67
526.6	33189.89
526.801	33656.83
527.003	33431.55
527.204	33439.75
527.406	33955.83
527.607	33986.55
527.808	34293.75
528.01	33572.86
528.211	34054.14
528.412	34512.88
528.614	34312.18
528.815	34404.34
529.016	34764.78
529.218	34586.61
529.419	34875.37
529.62	34695.15
529.822	34715.63
530.023	34582.51
530.224	34899.95
530.425	34957.29
530.626	34674.67
530.828	34525.17
531.029	35407.84
531.23	35002.35
531.431	34957.29
531.632	35344.36
531.833	35444.71
532.035	34916.33
532.236	35497.95
532.437	35577.83
532.638	34899.95
532.839	35719.13
533.04	35637.22
533.241	35225.57
533.442	35850.2
533.643	35479.52
533.844	35411.94
534.045	35749.85
534.246	35309.54
534.447	35850.2
534.648	35567.59
534.849	35815.39
535.05	35323.88
535.251	35471.33
535.451	35561.44
535.652	35686.37
535.853	35682.27
536.054	35680.22
536.255	35874.78
536.456	35516.39
536.657	36087.77
536.857	35772.38
537.058	35645.41
537.259	35997.66
537.46	35696.61
537.66	35588.06
537.861	36005.85
538.062	35837.92
538.263	35692.51
538.463	35846.11
538.664	35598.3
538.865	35524.58
539.065	36063.19
539.266	35766.24
539.466	36216.79
539.667	35405.8
539.868	35842.01
540.068	36044.76
540.269	35383.27
540.469	35749.85
540.67	35766.24
540.87	35889.12
541.071	35674.08
541.271	35870.68
541.472	35864.54
541.672	35661.79
541.873	35536.87
542.073	35426.28
542.274	35897.31
542.474	35370.98
542.675	35465.19
542.875	35917.79
543.075	35491.81
543.276	35227.62
543.476	36081.63
543.676	35362.79
543.877	35583.97
544.077	35561.44
544.277	35712.99
544.478	35520.48
544.678	35495.91
544.878	35500
545.078	35622.88
545.279	35577.83
545.479	35528.67
545.679	35456.99
545.879	35776.48
546.079	35350.5
546.28	35489.76
546.48	35325.92
546.68	35555.3
546.88	35672.03
547.08	35432.42
547.28	35076.07
547.48	34856.94
547.68	35473.38
547.88	35086.31
548.081	35321.83
548.281	35495.91
548.481	35440.61
548.681	35741.66
548.881	35549.15
549.081	35678.18
549.28	35332.07
549.48	35659.74
549.68	35059.69
549.88	36014.04
550.08	35041.26
550.28	35614.69
550.48	35436.52
550.68	35418.08
550.88	35076.07
551.08	35078.12
551.279	35461.09
551.479	34858.99
551.679	35131.37
551.879	35420.13
552.079	35344.36
552.278	35166.18
552.478	35035.11
552.678	35114.98
552.878	35364.84
553.077	35043.31
553.277	35094.5
553.477	35334.12
553.676	34856.94
553.876	34940.91
554.076	34977.77
554.275	34942.95
554.475	34586.61
554.674	34992.11
554.874	34830.32
555.074	34740.21
555.273	34770.93
555.473	34893.8
555.672	34547.7
555.872	34740.21
556.071	34934.76
556.271	34369.52
556.47	34281.46
556.67	34736.11
556.869	34646
557.068	34725.87
557.268	34207.73
557.467	34420.72
557.667	34443.25
557.866	34410.48
558.065	34705.39
558.265	33884.15
558.464	34209.78
558.663	34559.98
558.863	33880.06
559.062	34488.31
559.261	33593.34
559.461	34408.43
559.66	33665.02
559.859	34058.23
560.058	34035.7
560.258	33970.17
560.457	33673.21
560.656	33925.11
560.855	33810.43
561.054	34105.34
561.253	33671.17
561.453	33855.48
561.652	33748.99
561.851	33941.5
562.05	33490.94
562.249	33378.31
562.448	33564.67
562.647	33175.56
562.846	33392.64
563.045	33284.1
563.244	32755.72
563.443	33716.22
563.642	33148.93
563.841	33017.86
564.04	32901.13
564.239	33232.9
564.438	32714.76
564.637	32948.23
564.836	33107.97
565.035	32352.27
565.234	32915.47
565.432	32466.96
565.631	32636.94
565.83	32700.43
566.029	32270.36
566.228	32057.37
566.427	32469.01
566.625	32043.03
566.824	32043.03
567.023	32157.72
567.222	31680.54
567.42	32149.53
567.619	31957.02
567.818	32061.46
568.016	31967.26
568.215	31957.02
568.414	31653.92
568.612	31850.52
568.811	31705.12
569.01	31387.68
569.208	31084.58
569.407	31594.53
569.605	31211.56
569.804	31674.4
570.002	31123.49
570.201	31129.64
570.4	30877.74
570.598	30881.83
570.797	30900.26
570.995	30851.11
571.193	30453.81
571.392	31010.85
571.59	30378.03
571.789	30562.35
571.987	30380.08
572.186	30380.08
572.384	30337.07
572.582	30408.75
572.781	30515.25
572.979	29859.9
573.177	30220.34
573.376	30404.66
573.574	29880.38
573.772	30089.27
573.971	29808.7
574.169	29554.75
574.367	29483.07
574.565	29894.71
574.763	29554.75
574.962	29538.37
575.16	29126.72
575.358	29159.49
575.556	28975.17
575.754	29319.23
575.952	28887.11
576.151	29366.34
576.349	28944.45
576.547	28454.99
576.745	28971.08
576.943	29311.04
577.141	28559.44
577.339	28389.45
577.537	28848.2
577.735	28674.12
577.933	28155.99
578.131	28500.05
578.329	28280.91
578.527	28076.12
578.725	28252.24
578.923	28196.95
579.121	27963.48
579.319	28174.42
579.516	28262.48
579.714	28022.87
579.912	27707.48
580.11	27842.65
580.308	27576.41
580.506	27682.91
580.704	27195.49
580.901	27570.27
581.099	27560.03
581.297	27115.62
581.495	27117.67
581.692	27447.39
581.89	27166.82
582.088	27324.51
582.285	26984.55
582.483	27363.42
582.681	26812.52
582.878	26794.09
583.076	26654.83
583.274	26744.94
583.471	26636.39
583.669	26583.15
583.866	26136.69
584.064	26490.99
584.262	26011.76
584.459	26194.03
584.657	26120.31
584.854	26316.91
585.052	25665.66
585.249	26470.51
585.447	26046.58
585.644	25624.7
585.841	25837.69
586.039	26155.12
586.236	25491.58
586.434	25352.32
586.631	25487.48
586.828	25309.31
587.026	25090.18
587.223	25309.31
587.42	25122.94
587.618	25272.45
587.815	25278.59
588.012	24825.99
588.21	24907.91
588.407	25020.55
588.604	24696.97
588.801	24723.59
588.999	24793.22
589.196	24647.82
589.393	24477.83
589.59	24187.02
589.787	24320.14
589.984	24674.44
590.182	24078.48
590.379	24258.7
590.576	24158.35
590.773	24330.38
590.97	23736.47
591.167	23955.6
591.364	23431.32
591.561	23763.09
591.758	23617.69
591.955	23646.36
592.152	23744.66
592.349	23265.44
592.546	23519.39
592.743	23533.72
592.94	23113.89
593.137	23290.01
593.334	23570.58
593.531	22915.23
593.727	23132.32
593.924	23197.85
594.121	23009.44
594.318	22904.99
594.515	22821.03
594.712	22925.47
594.908	22755.49
595.105	22554.79
595.302	22730.92
595.499	22558.89
595.696	22161.58
595.892	22036.66
596.089	22352.04
596.286	22421.67
596.482	21905.59
596.679	22163.63
596.876	22208.69
597.072	21844.15
597.269	21786.8
597.466	21676.21
597.662	21434.55
597.859	21518.52
598.055	21657.78
598.252	21668.02
598.448	21614.77
598.645	21326.01
598.841	21045.44
599.038	21330.11
599.234	21475.51
599.431	21399.74
599.627	21072.06
599.824	20951.23
600.02	20869.31
600.217	20953.28
600.413	20654.28
600.609	20742.34
600.806	20521.16
601.002	20672.71
601.198	20713.67
601.395	20369.61
601.591	20541.64
601.787	20734.15
601.984	20201.68
602.18	20566.21
602.376	19978.45
602.572	20156.62
602.769	20142.28
602.965	19927.25
603.161	19806.42
603.357	20054.22
603.553	19904.72
603.75	19810.51
603.946	19550.42
604.142	19861.71
604.338	19468.5
604.534	19593.43
604.73	19337.43
604.926	19646.68
605.122	19273.95
605.318	19222.75
605.514	18888.93
605.71	19212.51
605.906	19177.69
606.102	19065.05
606.298	19122.4
606.494	19130.59
606.69	18890.98
606.886	19165.4
607.082	18639.08
607.278	18909.41
607.474	18485.48
607.67	18872.54
607.866	18512.1
608.062	18872.54
608.257	18493.67
608.453	18735.33
608.649	18585.83
608.845	18403.56
609.041	18329.83
609.236	18501.86
609.432	18436.33
609.628	18436.33
609.824	18186.47
610.019	18245.87
610.215	18364.65
610.411	18389.22
610.606	17987.82
610.802	18112.75
610.998	17989.87
611.193	18159.85
611.389	17830.13
611.584	17590.52
611.78	17877.23
611.976	17862.9
612.171	17875.18
612.367	17750.26
612.562	17764.59
612.758	17557.75
612.953	17578.23
613.149	17932.53
613.344	17291.51
613.539	17731.83
613.735	17461.49
613.93	17654
614.126	17230.07
614.321	17563.89
614.517	17185.02
614.712	17365.24
614.907	17109.24
615.103	17514.74
615.298	17144.06
615.493	17252.6
615.688	17168.63
615.884	17262.84
616.079	16888.06
616.274	17213.69
616.47	17238.26
616.665	17109.24
616.86	16996.6
617.055	16716.03
617.25	16896.25
617.445	16990.46
617.641	16556.29
617.836	16625.92
618.031	16371.97
618.226	16693.51
618.421	16617.73
618.616	16589.06
618.811	16285.96
619.006	16509.19
619.201	16232.71
619.396	16433.41
619.591	15997.2
619.786	16075.02
619.981	15991.05
620.176	16027.92
620.371	15835.41
620.566	15833.36
620.761	15980.81
620.956	15800.59
621.151	15479.06
621.346	15687.95
621.541	15335.7
621.735	15829.26
621.93	15141.14
622.125	15364.37
622.32	15069.47
622.515	15245.59
622.709	15145.24
622.904	14989.6
623.099	14866.72
623.294	14819.61
623.488	14692.64
623.683	14686.5
623.878	14434.6
624.072	14582.05
624.267	14788.89
624.462	14459.17
624.656	14324.01
624.851	14485.79
625.046	14299.43
625.24	14149.93
625.435	14088.49
625.629	14020.91
625.824	13850.92
626.018	13873.45
626.213	13738.29
626.407	13635.89
626.602	13443.38
626.796	13605.17
626.991	13668.66
627.185	13238.58
627.38	13076.79
627.574	13154.62
627.768	13021.5
627.963	12949.82
628.157	12994.87
628.352	12943.67
628.546	12833.08
628.74	12792.12
628.935	12607.81
629.129	12693.82
629.323	12486.98
629.517	12349.76
629.712	12314.95
629.906	12652.86
630.1	12233.03
630.294	12120.39
630.489	12128.58
630.683	12214.6
630.877	12097.86
631.071	12089.67
631.265	12097.86
631.459	11936.07
631.653	11774.28
631.848	11696.46
632.042	11600.21
632.236	11639.12
632.43	11651.41
632.624	11501.9
632.818	11481.42
633.012	11303.25
633.206	11368.79
633.4	11333.97
633.594	11010.39
633.788	11000.15
633.982	11145.56
634.176	11133.27
634.369	10996.06
634.563	10758.49
634.757	10809.69
634.951	10873.18
635.145	10719.58
635.339	10840.41
635.533	10514.78
635.726	10611.04
635.92	10432.86
636.114	10588.51
636.308	10309.99
636.501	10377.57
636.695	10346.85
636.889	10101.09
637.083	10154.34
637.276	10254.69
637.47	10170.72
637.664	9990.5
637.857	10047.85
638.051	9920.87
638.244	9939.3
638.438	9902.44
638.632	9927.02
638.825	9822.57
639.019	9763.18
639.212	9623.92
639.406	9476.46
639.599	9435.5
639.793	9720.17
639.986	9232.76
640.18	9445.74
640.373	9374.06
640.567	9204.08
640.76	9193.84
640.954	9130.36
641.147	9148.79
641.34	9062.77
641.534	9105.78
641.727	8987
641.92	9128.31
642.114	8884.6
642.307	8855.93
642.5	8868.22
642.694	8683.9
642.887	8593.79
643.08	8794.49
643.273	8735.1
643.467	8432
643.66	8591.74
643.853	8472.96
644.046	8397.18
644.239	8515.97
644.432	8460.67
644.626	8370.56
644.819	8300.93
645.012	8237.44
645.205	8221.06
645.398	8241.54
645.591	7944.58
645.784	7977.35
645.977	7831.94
646.17	7827.85
646.363	7950.73
646.556	7750.03
646.749	7797.13
646.942	7870.86
647.135	7639.44
647.328	7704.97
647.521	7594.38
647.714	7639.44
647.907	7627.15
648.099	7590.28
648.292	7545.23
648.485	7510.41
648.678	7307.66
648.871	7250.32
649.064	7375.25
649.256	7248.27
649.449	6984.09
649.642	7084.44
649.835	7168.4
650.027	6881.69
650.22	6947.22
650.413	6975.89
650.605	7033.24
650.798	6992.28
650.991	6853.02
651.183	6996.37
651.376	6902.17
651.568	6830.49
651.761	6666.65
651.954	6705.56
652.146	6736.28
652.339	6658.46
652.531	6480.29
652.724	6762.9
652.916	6535.58
653.109	6513.05
653.301	6336.93
653.494	6427.04
653.686	6400.41
653.879	6357.41
654.071	6361.5
654.263	6320.54
654.456	6390.17
654.648	6439.33
654.84	6255.01
655.033	6209.95
655.225	6298.02
655.417	6044.07
655.61	5945.77
655.802	6220.19
655.994	5956.01
656.186	5915.05
656.379	5982.63
656.571	6037.92
656.763	5806.5
656.955	5783.98
657.148	5847.46
657.34	5726.63
657.532	5616.04
657.724	5669.29
657.916	5740.97
658.108	5595.56
658.3	5650.86
658.492	5665.19
658.684	5521.84
658.876	5585.32
659.068	5554.6
659.26	5276.08
659.452	5433.77
659.644	5429.68
659.836	5460.4
660.028	5335.47
660.22	5198.26
660.412	5208.5
660.604	5157.3
660.796	5257.65
660.988	5147.06
661.18	5210.54
661.372	5124.53
661.563	5110.19
661.755	4936.12
661.947	4950.45
662.139	4968.88
662.331	5163.44
662.522	4903.35
662.714	4897.21
662.906	4755.9
663.097	4860.34
663.289	4725.18
663.481	4602.3
663.673	4843.96
663.864	4647.35
664.056	4719.03
664.247	4583.87
664.439	4596.15
664.631	4643.26
664.822	4506.04
665.014	4661.69
665.205	4628.92
665.397	4399.55
665.588	4422.08
665.78	4381.12
665.971	4534.71
666.163	4465.08
666.354	4362.69
666.546	4350.4
666.737	4411.84
666.929	4395.45
667.12	4174.27
667.311	4338.11
667.503	4358.59
667.694	4377.02
667.885	4192.7
668.077	4280.77
668.268	4096.45
668.459	4174.27
668.651	4047.3
668.842	4055.49
669.033	4164.03
669.224	3969.48
669.416	4004.29
669.607	3965.38
669.798	3979.72
669.989	4182.46
670.18	4022.72
670.371	4084.16
670.563	3979.72
670.754	3844.55
670.945	3822.02
671.136	3811.78
671.327	3912.13
671.518	3834.31
671.709	3862.98
671.9	3729.86
672.091	3801.54
672.282	3668.42
672.473	3695.05
672.664	3819.97
672.855	3676.62
673.046	3678.66
673.237	3617.22
673.428	3654.09
673.619	3658.18
673.809	3723.72
674	3635.66
674.191	3672.52
674.382	3690.95
674.573	3670.47
674.764	3512.78
674.954	3596.75
675.145	3453.39
675.336	3535.31
675.527	3668.42
675.717	3555.79
675.908	3576.27
676.099	3461.58
676.289	3363.28
676.48	3516.87
676.671	3363.28
676.861	3287.5
677.052	3396.04
677.243	3461.58
677.433	3514.83
677.624	3398.09
677.814	3453.39
678.005	3406.28
678.195	3281.36
678.386	3273.17
678.576	3226.06
678.767	3289.55
678.957	3187.15
679.148	3285.45
679.338	3326.41
679.529	3291.6
679.719	3287.5
679.909	3185.1
680.1	3178.96
680.29	3305.93
680.481	3183.06
680.671	3293.65
680.861	3240.4
681.052	3219.92
681.242	3174.86
681.432	3174.86
681.622	3250.64
681.813	2998.74
682.003	3068.37
682.193	3150.29
682.383	3099.09
682.573	3088.85
682.764	3228.11
682.954	3078.61
683.144	3203.54
683.334	3062.23
683.524	3099.09
683.714	3035.6
683.904	3054.03
684.094	3084.75
684.284	3031.51
684.474	3043.79
684.664	3004.88
684.854	3064.27
685.044	2974.16
685.234	3013.07
685.424	3080.66
685.614	3027.41
685.804	2843.09
685.994	2961.87
686.184	2922.96
686.374	2931.16
686.564	2994.64
686.753	3027.41
686.943	2896.34
687.133	2920.92
687.323	2767.32
687.513	2777.56
687.702	2918.87
687.892	2904.53
688.082	2785.75
688.272	2853.33
688.461	2785.75
688.651	2929.11
688.841	2734.55
689.03	2767.32
689.22	2740.69
689.41	2697.69
689.599	2841.04
689.789	2683.35
689.979	2822.61
690.168	2767.32
690.358	2601.43
690.547	2617.82
690.737	2675.16
690.926	2716.12
691.116	2679.26
691.305	2599.38
691.495	2626.01
691.684	2671.06
691.874	2701.78
692.063	2603.48
692.252	2611.67
692.442	2542.04
692.631	2578.9
692.82	2490.84
693.01	2578.9
693.199	2601.43
693.388	2443.74
693.578	2544.09
693.767	2462.17
693.956	2509.27
694.146	2462.17
694.335	2564.57
694.524	2462.17
694.713	2552.28
694.902	2404.83
695.092	2499.03
695.281	2433.5
695.47	2472.41
695.659	2453.98
695.848	2427.35
696.037	2300.38
696.226	2544.09
696.415	2394.59
696.604	2447.83
696.793	2300.38
696.982	2384.35
697.171	2478.55
697.36	2331.1
697.549	2347.48
697.738	2294.24
697.927	2472.41
698.116	2398.68
698.305	2298.33
698.494	2294.24
698.683	2243.04
698.872	2355.68
699.061	2331.1
699.25	2296.28
699.438	2275.81
699.627	2294.24
699.816	2415.07
700.005	2331.1
700.193	2271.71
700.382	2232.8
700.571	2212.32
700.76	2294.24
700.948	2275.81
701.137	2265.57
701.326	2314.72
701.514	2228.7
701.703	2269.66
701.892	2253.28
702.08	2341.34
702.269	2195.93
702.457	2251.23
702.646	2390.49
702.834	2101.73
703.023	2365.92
703.212	2292.19
703.4	2204.13
703.589	2109.92
703.777	2089.44
703.965	2265.57
704.154	2232.8
704.342	2220.51
704.531	2116.06
704.719	2138.59
704.907	2193.89
705.096	2081.25
705.284	2066.91
705.472	2224.61
705.661	2040.29
705.849	2159.07
706.037	2144.74
706.226	2161.12
706.414	2111.97
706.602	2077.15
706.79	2251.23
706.979	2171.36
707.167	2052.58
707.355	2173.41
707.543	2148.83
707.731	2091.49
707.919	2163.17
708.107	2085.34
708.296	2159.07
708.484	2058.72
708.672	2046.43
708.86	2126.3
709.048	2034.14
709.236	2126.3
709.424	2204.13
709.612	2101.73
709.8	2079.2
709.988	1972.71
710.176	2134.5
710.364	2105.82
710.551	2025.95
710.739	2025.95
710.927	2017.76
711.115	2093.54
711.303	2136.54
711.491	2068.96
711.679	2030.05
711.866	2114.02
712.054	2087.39
712.242	2013.67
712.43	2097.63
712.617	2130.4
712.805	2023.91
712.993	2011.62
713.181	2036.19
713.368	2023.91
713.556	2071.01
713.744	2017.76
713.931	2056.67
714.119	1976.8
714.306	2013.67
714.494	1987.04
714.682	2073.06
714.869	2023.91
715.057	2089.44
715.244	2085.34
715.432	1978.85
715.619	1939.94
715.807	2028
715.994	2021.86
716.182	1964.51
716.369	2028
716.556	1999.33
716.744	2011.62
716.931	1954.27
717.119	2017.76
717.306	1944.03
717.493	2095.58
717.681	1966.56
717.868	1995.23
718.055	2132.45
718.242	2052.58
718.43	1919.46
718.617	1929.7
718.804	2019.81
718.991	1962.47
719.179	2030.05
719.366	1905.12
719.553	1980.9
719.74	1923.55
719.927	1948.13
720.114	1976.8
720.301	2019.81
720.488	1898.98
720.676	2032.1
720.863	2017.76
721.05	1909.22
721.237	1978.85
721.424	1941.99
721.611	1886.69
721.798	1888.74
721.985	1915.36
722.172	1876.45
722.358	1913.31
722.545	1923.55
722.732	1898.98
722.919	2030.05
723.106	1907.17
723.293	1954.27
723.48	1970.66
723.667	1911.27
723.853	1921.51
724.04	1782.24
724.227	1905.12
724.414	1884.64
724.6	1847.78
724.787	1989.09
724.974	1884.64
725.161	2044.38
725.347	1823.2
725.534	1960.42
725.72	1937.89
725.907	1974.75
726.094	1929.7
726.28	1989.09
726.467	1874.4
726.653	1907.17
726.84	1864.16
727.027	1991.14
727.213	1890.79
727.4	1896.93
727.586	1970.66
727.773	1872.36
727.959	1843.68
728.145	1802.72
728.332	1815.01
728.518	1894.88
728.705	1833.44
728.891	1974.75
729.077	1907.17
729.264	1782.24
729.45	1997.28
729.636	1872.36
729.823	1855.97
730.009	1954.27
730.195	1939.94
730.382	1874.4
730.568	1939.94
730.754	1907.17
730.94	1987.04
731.126	1880.55
731.313	1946.08
731.499	1917.41
731.685	1952.23
731.871	1939.94
732.057	1894.88
732.243	1876.45
732.429	1962.47
732.615	1872.36
732.801	1917.41
732.987	1757.67
733.173	1815.01
733.359	1890.79
733.545	1958.37
733.731	1812.96
733.917	1851.88
734.103	1864.16
734.289	1913.31
734.475	1741.29
734.661	1929.7
734.847	1884.64
735.033	1872.36
735.219	1882.6
735.404	1837.54
735.59	1817.06
735.776	1704.42
735.962	1853.92
736.148	1849.83
736.333	1886.69
736.519	1792.48
736.705	1821.16
736.89	1823.2
737.076	1757.67
737.262	1831.4
737.447	1909.22
737.633	1835.49
737.819	1767.91
738.004	1761.77
738.19	1815.01
738.375	1753.57
738.561	1866.21
738.747	1825.25
738.932	1782.24
739.118	1929.7
739.303	1808.87
739.489	1800.68
739.674	1829.35
739.859	1718.76
740.045	1708.52
740.23	1831.4
740.416	1645.03
740.601	1724.9
740.786	1604.07
740.972	1753.57
741.157	1655.27
741.342	1749.48
741.528	1737.19
741.713	1712.61
741.898	1692.13
742.084	1622.5
742.269	1638.89
742.454	1688.04
742.639	1667.56
742.824	1546.73
743.01	1616.36
743.195	1645.03
743.38	1548.78
743.565	1667.56
743.75	1692.13
743.935	1595.88
744.12	1647.08
744.305	1612.26
744.49	1651.17
744.675	1593.83
744.86	1683.94
745.045	1694.18
745.23	1495.53
745.415	1577.45
745.6	1513.96
745.785	1585.64
745.97	1700.33
746.155	1544.68
746.34	1624.55
746.525	1479.15
746.71	1548.78
746.895	1513.96
747.079	1522.15
747.264	1432.04
747.449	1595.88
747.634	1542.63
747.819	1448.43
748.003	1427.95
748.188	1382.89
748.373	1440.23
748.557	1485.29
748.742	1434.09
748.927	1409.51
749.111	1421.8
749.296	1368.56
749.481	1462.76
749.665	1442.28
749.85	1405.42
750.034	1380.84
750.219	1282.54
750.404	1378.79
750.588	1364.46
750.773	1317.36
750.957	1300.97
751.141	1233.39
751.326	1413.61
751.51	1212.91
751.695	1333.74
751.879	1229.29
752.064	1284.59
752.248	1290.73
752.432	1307.12
752.617	1237.49
752.801	1249.77
752.985	1262.06
753.17	1219.05
753.354	1171.95
753.538	1243.63
753.722	1229.29
753.907	1159.66
754.091	1073.65
754.275	1237.49
754.459	1147.37
754.643	1167.85
754.828	1217.01
755.012	1180.14
755.196	1112.56
755.38	1102.32
755.564	1153.52
755.748	1073.65
755.932	1135.09
756.116	1044.98
756.3	1102.32
756.484	1085.94
756.668	1171.95
756.852	956.91
757.036	1063.41
757.22	1001.97
757.404	1053.17
757.588	1063.41
757.772	1053.17
757.956	1049.07
758.14	985.58
758.323	1018.35
758.507	1008.11
758.691	1036.78
758.875	1032.69
759.059	965.11
759.242	983.54
759.426	1026.54
759.61	977.39
759.794	965.11
759.977	977.39
760.161	1102.32
760.345	950.77
760.528	918
760.712	899.57
760.895	965.11
761.079	985.58
761.263	967.15
761.446	864.75
761.63	842.23
761.813	1006.06
761.997	909.81
762.18	831.99
762.364	899.57
762.547	879.09
762.731	889.33
762.914	782.84
763.098	930.29
763.281	866.8
763.464	901.62
763.648	911.86
763.831	838.13
764.015	766.45
764.198	809.46
764.381	936.43
764.564	864.75
764.748	811.51
764.931	774.64
765.114	842.23
765.297	899.57
765.481	774.64
765.664	866.8
765.847	850.42
766.03	834.04
766.213	842.23
766.397	774.64
766.58	733.68
766.763	762.36
766.946	858.61
767.129	811.51
767.312	852.47
767.495	795.12
767.678	811.51
767.861	737.78
768.044	834.04
768.227	842.23
768.41	709.11
768.593	741.88
768.776	694.77
768.959	782.84
769.142	823.8
769.324	752.12
769.507	774.64
769.69	754.16
769.873	743.92
770.056	848.37
770.239	676.34
770.421	729.59
770.604	741.88
770.787	762.36
770.97	692.73
771.152	801.27
771.335	709.11
771.518	684.53
771.7	756.21
771.883	721.4
772.066	750.07
772.248	676.34
772.431	762.36
772.613	735.73
772.796	674.29
772.978	629.24
773.161	831.99
773.343	680.44
773.526	696.82
773.708	731.64
773.891	682.49
774.073	653.81
774.256	686.58
774.438	688.63
774.621	676.34
774.803	639.48
774.985	606.71
775.168	592.37
775.35	606.71
775.532	680.44
775.715	649.72
775.897	621.05
776.079	565.75
776.261	668.15
776.444	674.29
776.626	625.14
776.808	604.66
776.99	455.16
777.173	621.05
777.355	580.09
777.537	547.32
777.719	602.61
777.901	528.89
778.083	543.22
778.265	619
778.447	602.61
778.629	651.77
778.811	555.51
778.993	561.66
779.175	563.7
779.357	578.04
779.539	512.5
779.721	520.7
779.903	582.14
780.085	612.85
780.267	408.06
780.449	500.22
780.631	496.12
780.812	500.22
780.994	518.65
781.176	518.65
781.358	537.08
781.54	483.83
781.721	539.13
781.903	532.98
782.085	483.83
782.267	494.07
782.448	504.31
782.63	410.11
782.812	469.5
782.993	455.16
783.175	455.16
783.357	430.59
783.538	430.59
783.72	438.78
783.901	492.02
784.083	465.4
784.264	524.79
784.446	438.78
784.627	410.11
784.809	471.54
784.99	430.59
785.172	340.47
785.353	416.25
785.535	397.82
785.716	418.3
785.897	424.44
786.079	434.68
786.26	352.76
786.441	446.97
786.623	307.71
786.804	367.1
786.985	422.39
787.167	352.76
787.348	342.52
787.529	385.53
787.71	432.63
787.891	391.67
788.073	332.28
788.254	311.8
788.435	457.21
788.616	324.09
788.797	326.14
788.978	383.48
789.159	334.33
789.34	324.09
789.522	242.17
789.703	250.36
789.884	272.89
790.065	348.67
790.246	348.67
790.427	365.05
790.607	375.29
790.788	250.36
790.969	338.43
791.15	311.8
791.331	254.46
791.512	276.99
791.693	307.71
791.874	266.75
792.054	391.67
792.235	338.43
792.416	295.42
792.597	344.57
792.778	332.28
792.958	322.04
793.139	311.8
793.32	313.85
793.5	258.56
793.681	258.56
793.862	221.69
794.042	293.37
794.223	217.6
794.404	250.36
794.584	186.88
794.765	285.18
794.945	246.27
795.126	240.12
795.306	317.95
795.487	287.23
795.667	279.04
795.848	178.69
796.028	225.79
796.209	242.17
796.389	213.5
796.57	236.03
796.75	246.27
796.93	320
797.111	195.07
797.291	201.21
797.471	246.27
797.652	260.6
797.832	172.54
798.012	268.8
798.192	152.06
798.373	270.84
798.553	221.69
798.733	164.35
798.913	236.03
799.093	203.26
799.274	221.69
799.454	229.88
799.634	252.41
799.814	248.32
799.994	274.94
800.174	188.93
800.354	176.64
800.534	209.4
800.714	178.69
800.894	170.49
801.074	135.68
801.254	229.88
801.434	215.55
801.614	180.73
801.794	164.35
801.974	819.7
802.154	158.21
802.334	225.79
802.514	145.92
802.693	94.72
802.873	203.26
803.053	209.4
803.233	186.88
803.413	221.69
803.592	141.82
803.772	143.87
803.952	207.36
804.131	55.81
804.311	197.12
804.491	201.21
804.67	168.45
804.85	147.97
805.03	266.75
805.209	180.73
805.389	74.24
805.568	217.6
805.748	184.83
805.928	193.02
806.107	209.4
806.287	203.26
806.466	252.41
806.646	160.25
806.825	109.05
807.004	143.87
807.184	225.79
807.363	143.87
807.543	162.3
807.722	121.34
807.901	184.83
808.081	227.84
808.26	143.87
808.439	168.45
808.619	127.49
808.798	86.53
808.977	176.64
809.156	170.49
809.336	203.26
809.515	209.4
809.694	150.01
809.873	135.68
810.052	121.34
810.231	268.8
810.411	176.64
810.59	127.49
810.769	119.29
810.948	225.79
811.127	94.72
811.306	74.24
811.485	178.69
811.664	154.11
811.843	201.21
812.022	98.81
812.201	141.82
812.38	137.73
812.559	123.39
812.737	123.39
812.916	61.95
813.095	88.57
813.274	131.58
813.453	170.49
813.632	135.68
813.811	143.87
813.989	37.38
814.168	147.97
814.347	80.38
814.526	113.15
814.704	154.11
814.883	119.29
815.062	53.76
815.24	225.79
815.419	139.77
815.598	78.33
815.776	33.28
815.955	111.1
816.133	82.43
816.312	64
816.49	78.33
816.669	86.53
816.847	113.15
817.026	164.35
817.204	147.97
817.383	131.58
817.561	195.07
817.74	127.49
817.918	111.1
818.097	139.77
818.275	127.49
818.453	131.58
818.632	143.87
818.81	180.73
818.988	84.48
819.167	137.73
819.345	90.62
819.523	147.97
819.701	88.57
819.879	209.4
820.058	92.67
820.236	53.76
820.414	70.14
820.592	80.38
820.77	111.1
820.948	80.38
821.127	104.96
821.305	72.19
821.483	102.91
821.661	80.38
821.839	137.73
822.017	104.96
822.195	78.33
822.373	20.99
822.551	152.06
822.729	70.14
822.907	123.39
823.085	127.49
823.262	80.38
823.44	96.77
823.618	113.15
823.796	94.72
823.974	57.86
824.152	113.15
824.329	94.72
824.507	53.76
824.685	125.44
824.863	127.49
825.04	111.1
825.218	78.33
825.396	86.53
825.574	94.72
825.751	-22.02
825.929	94.72
826.107	47.62
826.284	25.09
826.462	104.96
826.639	57.86
826.817	68.09
826.994	14.85
827.172	-34.3
827.349	119.29
827.527	70.14
827.704	45.57
827.882	98.81
828.059	164.35
828.237	111.1
828.414	131.58
828.591	61.95
828.769	176.64
828.946	39.42
829.124	20.99
829.301	72.19
829.478	104.96
829.655	-11.78
829.833	104.96
830.01	-11.78
830.187	113.15
830.364	139.77
830.542	33.28
830.719	96.77
830.896	57.86
831.073	37.38
831.25	102.91
831.427	25.09
831.604	49.66
831.782	113.15
831.959	20.99
832.136	111.1
832.313	90.62
832.49	20.99
832.667	135.68
832.844	29.18
833.021	94.72
833.198	94.72
833.374	57.86
833.551	14.85
833.728	90.62
833.905	119.29
834.082	70.14
834.259	-15.87
834.436	51.71
834.612	61.95
834.789	104.96
834.966	6.66
835.143	-3.58
835.319	78.33
835.496	37.38
835.673	12.8
835.85	4.61
836.026	152.06
836.203	66.05
836.38	94.72
836.556	57.86
836.733	39.42
836.909	78.33
837.086	49.66
837.262	31.23
837.439	57.86
837.616	12.8
837.792	88.57
837.968	37.38
838.145	-52.74
838.321	-9.73
838.498	90.62
838.674	70.14
838.851	70.14
839.027	2.56
839.203	70.14
839.38	90.62
839.556	29.18
839.732	16.9
839.909	-28.16
840.085	55.81
840.261	-11.78
840.437	25.09
840.614	8.7
840.79	102.91
840.966	55.81
841.142	45.57
841.318	-15.87
841.494	74.24
841.671	96.77
841.847	4.61
842.023	-22.02
842.199	4.61
842.375	82.43
842.551	-15.87
842.727	23.04
842.903	94.72
843.079	59.9
843.255	70.14
843.431	-28.16
843.607	88.57
843.783	-38.4
843.959	82.43
844.134	47.62
844.31	-5.63
844.486	25.09
844.662	12.8
844.838	70.14
845.013	80.38
845.189	6.66
845.365	47.62
845.541	72.19
845.716	47.62
845.892	12.8
846.068	80.38
846.244	6.66
846.419	88.57
846.595	-15.87
846.77	8.7
846.946	41.47
847.122	72.19
847.297	88.57
847.473	49.66
847.648	-17.92
847.824	14.85
847.999	14.85
848.175	49.66
848.35	74.24
848.526	70.14
848.701	20.99
848.876	84.48
849.052	86.53
849.227	23.04
849.403	78.33
849.578	49.66
849.753	61.95
849.929	-9.73
850.104	41.47
850.279	25.09
850.454	20.99
850.63	10.75
850.805	8.7
850.98	-44.54
851.155	80.38
851.33	84.48
851.505	78.33
851.681	137.73
851.856	-30.21
852.031	86.53
852.206	20.99
852.381	14.85
852.556	16.9
852.731	70.14
852.906	20.99
853.081	74.24
853.256	74.24
853.431	-9.73
853.606	57.86
853.781	-26.11
853.956	12.8
854.131	12.8
854.305	-26.11
854.48	-1.54
854.655	33.28
854.83	80.38
855.005	39.42
855.18	111.1
855.354	14.85
855.529	64
855.704	29.18
855.879	33.28
856.053	-36.35
856.228	20.99
856.403	-26.11
856.577	-40.45
856.752	-30.21
856.926	-3.58
857.101	-48.64
857.276	-44.54
857.45	-26.11
857.625	37.38
857.799	70.14
857.974	61.95
858.148	20.99
858.323	68.09
858.497	25.09
858.672	39.42
858.846	31.23
859.02	37.38
859.195	-46.59
859.369	-26.11
859.543	47.62
859.718	-9.73
859.892	53.76
860.066	53.76
860.241	-9.73
860.415	-19.97
860.589	-34.3
860.763	14.85
860.938	-28.16
861.112	53.76
861.286	25.09
861.46	18.94
861.634	107.01
861.808	64
861.982	12.8
862.157	37.38
862.331	-60.93
862.505	-26.11
862.679	-15.87
862.853	6.66
863.027	-30.21
863.201	8.7
863.375	8.7
863.549	53.76
863.722	8.7
863.896	86.53
864.07	-30.21
864.244	12.8
864.418	-11.78
864.592	55.81
864.766	31.23
864.939	57.86
865.113	-19.97
865.287	-48.64
865.461	-36.35
865.634	31.23
865.808	39.42
865.982	27.14
866.156	6.66
866.329	-3.58
866.503	-11.78
866.676	-1.54
866.85	-11.78
867.024	59.9
867.197	20.99
867.371	80.38
867.544	-7.68
867.718	-60.93
867.891	-58.88
868.065	16.9
868.238	-11.78
868.412	23.04
868.585	-7.68
868.759	25.09
868.932	8.7
869.105	-26.11
869.279	53.76
869.452	-32.26
869.625	74.24
869.799	10.75
869.972	-44.54
870.145	10.75
870.319	-3.58
870.492	-65.02
870.665	-3.58
870.838	-34.3
871.011	-3.58
871.185	-19.97
871.358	64
871.531	-38.4
871.704	-22.02
871.877	-52.74
872.05	53.76
872.223	23.04
872.396	29.18
872.569	-15.87
872.742	35.33
872.915	66.05
873.088	8.7
873.261	-28.16
873.434	2.56
873.607	55.81
873.78	-50.69
873.953	-11.78
874.126	16.9
874.299	45.57
874.471	-50.69
874.644	20.99
874.817	12.8
874.99	4.61
875.163	0.51
875.335	20.99
875.508	0.51
875.681	68.09
875.853	-1.54
876.026	-50.69
876.199	35.33
876.371	72.19
876.544	8.7
876.717	74.24
876.889	31.23
877.062	78.33
877.234	-7.68
877.407	12.8
877.579	10.75
877.752	4.61
877.924	12.8
878.097	-19.97
878.269	-28.16
878.442	68.09
878.614	-7.68
878.786	18.94
878.959	-19.97
879.131	-26.11
879.303	-69.12
879.476	-9.73
879.648	-19.97
879.82	37.38
879.993	-11.78
880.165	-52.74
880.337	12.8
880.509	23.04
880.681	-101.89
880.854	61.95
881.026	20.99
881.198	68.09
881.37	-28.16
881.542	-9.73
881.714	55.81
881.886	64
882.058	-36.35
882.23	12.8
882.402	-30.21
882.574	-7.68
882.746	20.99
882.918	94.72
883.09	-52.74
883.262	-32.26
883.434	-79.36
883.606	-28.16
883.778	-7.68
883.95	-7.68
884.122	-38.4
884.293	-15.87
884.465	-17.92
884.637	-34.3
884.809	23.04
884.98	10.75
885.152	72.19
885.324	-28.16
885.496	20.99
885.667	61.95
885.839	-9.73
886.011	49.66
886.182	-34.3
886.354	20.99
886.525	-46.59
886.697	72.19
886.869	-7.68
887.04	70.14
887.212	-15.87
887.383	35.33
887.555	-67.07
887.726	-13.82
887.897	-40.45
888.069	45.57
888.24	-15.87
888.412	25.09
888.583	-19.97
888.754	-52.74
888.926	12.8
889.097	-44.54
889.268	-69.12
889.44	57.86
889.611	-36.35
889.782	-40.45
889.953	-28.16
890.125	90.62
890.296	-26.11
890.467	-17.92
890.638	-7.68
890.809	49.66
890.98	-52.74
891.151	80.38
891.323	25.09
891.494	-17.92
891.665	-28.16
891.836	-3.58
892.007	-17.92
892.178	-11.78
892.349	4.61
892.52	-28.16
892.691	-44.54
892.862	39.42
893.032	-28.16
893.203	47.62
893.374	-22.02
893.545	45.57
893.716	47.62
893.887	12.8
894.057	-13.82
894.228	31.23
894.399	-54.78
894.57	18.94
894.74	-36.35
894.911	31.23
895.082	-44.54
895.253	-30.21
895.423	-13.82
895.594	-26.11
895.764	-15.87
895.935	-11.78
896.106	4.61
896.276	8.7
896.447	-26.11
896.617	-3.58
896.788	-30.21
896.958	-52.74
897.129	-11.78
897.299	0.51
897.47	6.66
897.64	104.96
897.81	-19.97
897.981	-67.07
898.151	-85.5
898.322	-15.87
898.492	4.61
898.662	86.53
898.832	-22.02
899.003	20.99
899.173	47.62
899.343	4.61
899.513	-19.97
