Data from USB4F104151__57__14-43-10-860.txt Node

Date: Thu Mar 13 14:43:10 EDT 2025
User: louis
Spectrometer: USB4F10415
Trigger mode: 4
Integration Time (sec): 2.000000E-2
Scans to average: 1
Electric dark correction enabled: true
Nonlinearity correction enabled: false
Boxcar width: 0
XAxis mode: Wavelengths
Number of Pixels in Spectrum: 3648
>>>>>Begin Spectral Data<<<<<
178.204	-76.8
178.424	-76.8
178.644	-76.8
178.864	-93.18
179.084	-78.85
179.304	-56.32
179.524	-29.7
179.744	46.08
179.964	9.22
180.184	-23.55
180.404	25.6
180.624	50.18
180.844	-52.22
181.064	9.22
181.283	37.89
181.503	-39.94
181.723	23.55
181.943	-23.55
182.163	33.79
182.383	50.18
182.602	11.26
182.822	84.99
183.042	46.08
183.262	60.42
183.482	11.26
183.701	-5.12
183.921	37.89
184.141	11.26
184.361	21.5
184.58	19.46
184.8	109.57
185.02	13.31
185.239	74.75
185.459	60.42
185.679	5.12
185.898	-50.18
186.118	21.5
186.338	44.03
186.557	15.36
186.777	-11.26
186.997	-7.17
187.216	25.6
187.436	84.99
187.655	3.07
187.875	13.31
188.095	19.46
188.314	113.66
188.534	37.89
188.753	58.37
188.973	70.65
189.192	105.47
189.412	58.37
189.631	13.31
189.851	62.46
190.07	41.98
190.29	50.18
190.509	107.52
190.729	35.84
190.948	99.33
191.168	132.09
191.387	31.74
191.607	-7.17
191.826	66.56
192.045	29.7
192.265	68.61
192.484	91.13
192.704	58.37
192.923	3.07
193.142	76.8
193.362	44.03
193.581	-23.55
193.8	17.41
194.02	70.65
194.239	33.79
194.458	-7.17
194.678	-29.7
194.897	134.14
195.116	23.55
195.335	60.42
195.555	72.7
195.774	23.55
195.993	-27.65
196.212	9.22
196.432	82.94
196.651	41.98
196.87	-31.74
197.089	76.8
197.308	52.22
197.528	84.99
197.747	15.36
197.966	-37.89
198.185	58.37
198.404	62.46
198.623	7.17
198.842	74.75
199.062	74.75
199.281	109.57
199.5	62.46
199.719	31.74
199.938	58.37
200.157	25.6
200.376	99.33
200.595	101.37
200.814	50.18
201.033	35.84
201.252	121.85
201.471	56.32
201.69	91.13
201.909	7.17
202.128	66.56
202.347	103.42
202.566	54.27
202.785	50.18
203.004	1.02
203.223	87.04
203.442	-15.36
203.661	62.46
203.879	60.42
204.098	82.94
204.317	-7.17
204.536	78.85
204.755	15.36
204.974	119.81
205.193	41.98
205.411	136.19
205.63	119.81
205.849	-21.5
206.068	54.27
206.287	27.65
206.505	25.6
206.724	68.61
206.943	29.7
207.162	27.65
207.381	74.75
207.599	17.41
207.818	23.55
208.037	46.08
208.255	82.94
208.474	109.57
208.693	19.46
208.911	93.18
209.13	60.42
209.349	23.55
209.567	91.13
209.786	33.79
210.005	60.42
210.223	25.6
210.442	19.46
210.661	91.13
210.879	93.18
211.098	46.08
211.316	87.04
211.535	66.56
211.753	74.75
211.972	87.04
212.191	39.94
212.409	58.37
212.628	60.42
212.846	9.22
213.065	-5.12
213.283	146.43
213.502	9.22
213.72	121.85
213.938	7.17
214.157	19.46
214.375	87.04
214.594	76.8
214.812	84.99
215.031	93.18
215.249	52.22
215.467	62.46
215.686	68.61
215.904	150.53
216.122	93.18
216.341	19.46
216.559	84.99
216.778	89.09
216.996	80.89
217.214	21.5
217.432	5.12
217.651	70.65
217.869	52.22
218.087	60.42
218.306	25.6
218.524	105.47
218.742	35.84
218.96	41.98
219.179	13.31
219.397	99.33
219.615	87.04
219.833	82.94
220.051	37.89
220.27	46.08
220.488	50.18
220.706	44.03
220.924	19.46
221.142	52.22
221.36	62.46
221.578	68.61
221.796	117.76
222.015	-5.12
222.233	17.41
222.451	58.37
222.669	74.75
222.887	115.71
223.105	5.12
223.323	17.41
223.541	25.6
223.759	66.56
223.977	111.61
224.195	-1.02
224.413	66.56
224.631	58.37
224.849	13.31
225.067	134.14
225.285	-15.36
225.503	93.18
225.721	11.26
225.939	9.22
226.157	58.37
226.375	99.33
226.592	33.79
226.81	-3.07
227.028	74.75
227.246	74.75
227.464	9.22
227.682	21.5
227.9	91.13
228.117	117.76
228.335	-39.94
228.553	41.98
228.771	78.85
228.989	58.37
229.206	54.27
229.424	91.13
229.642	54.27
229.86	11.26
230.077	109.57
230.295	31.74
230.513	13.31
230.731	70.65
230.948	142.33
231.166	136.19
231.384	1.02
231.601	60.42
231.819	99.33
232.037	-21.5
232.254	52.22
232.472	46.08
232.689	66.56
232.907	3.07
233.125	1.02
233.342	91.13
233.56	84.99
233.777	-23.55
233.995	35.84
234.213	111.61
234.43	58.37
234.648	-39.94
234.865	29.7
235.083	17.41
235.3	41.98
235.518	35.84
235.735	70.65
235.953	62.46
236.17	62.46
236.388	52.22
236.605	115.71
236.822	25.6
237.04	99.33
237.257	25.6
237.475	1.02
237.692	-7.17
237.909	17.41
238.127	29.7
238.344	35.84
238.562	72.7
238.779	52.22
238.996	82.94
239.214	1.02
239.431	41.98
239.648	41.98
239.865	33.79
240.083	17.41
240.3	132.09
240.517	64.51
240.735	109.57
240.952	35.84
241.169	84.99
241.386	60.42
241.603	91.13
241.821	9.22
242.038	13.31
242.255	-39.94
242.472	-19.46
242.689	-5.12
242.907	82.94
243.124	7.17
243.341	33.79
243.558	-13.31
243.775	21.5
243.992	-80.89
244.209	48.13
244.426	109.57
244.643	46.08
244.86	1.02
245.078	84.99
245.295	101.37
245.512	84.99
245.729	87.04
245.946	21.5
246.163	80.89
246.38	50.18
246.597	66.56
246.814	54.27
247.031	91.13
247.248	3.07
247.464	21.5
247.681	48.13
247.898	21.5
248.115	-7.17
248.332	-17.41
248.549	99.33
248.766	76.8
248.983	44.03
249.2	17.41
249.417	66.56
249.633	87.04
249.85	62.46
250.067	35.84
250.284	39.94
250.501	82.94
250.717	82.94
250.934	27.65
251.151	21.5
251.368	5.12
251.585	91.13
251.801	9.22
252.018	-27.65
252.235	74.75
252.451	58.37
252.668	-19.46
252.885	56.32
253.102	-21.5
253.318	99.33
253.535	-17.41
253.752	23.55
253.968	21.5
254.185	41.98
254.401	60.42
254.618	82.94
254.835	78.85
255.051	119.81
255.268	-7.17
255.484	117.76
255.701	111.61
255.917	68.61
256.134	62.46
256.351	29.7
256.567	-31.74
256.784	3.07
257	21.5
257.217	89.09
257.433	93.18
257.65	9.22
257.866	84.99
258.082	17.41
258.299	82.94
258.515	107.52
258.732	66.56
258.948	39.94
259.165	-48.13
259.381	78.85
259.597	84.99
259.814	60.42
260.03	64.51
260.246	-76.8
260.463	21.5
260.679	68.61
260.895	115.71
261.112	74.75
261.328	58.37
261.544	74.75
261.761	66.56
261.977	-13.31
262.193	62.46
262.409	107.52
262.626	78.85
262.842	44.03
263.058	-19.46
263.274	52.22
263.49	33.79
263.707	35.84
263.923	66.56
264.139	-15.36
264.355	56.32
264.571	76.8
264.787	101.37
265.004	64.51
265.22	41.98
265.436	-29.7
265.652	-13.31
265.868	48.13
266.084	76.8
266.3	17.41
266.516	27.65
266.732	13.31
266.948	25.6
267.164	-48.13
267.38	21.5
267.596	140.29
267.812	-9.22
268.028	35.84
268.244	50.18
268.46	70.65
268.676	115.71
268.892	64.51
269.108	58.37
269.324	52.22
269.54	82.94
269.756	35.84
269.972	5.12
270.188	19.46
270.403	-23.55
270.619	21.5
270.835	84.99
271.051	17.41
271.267	58.37
271.483	39.94
271.698	78.85
271.914	103.42
272.13	19.46
272.346	119.81
272.562	33.79
272.777	115.71
272.993	15.36
273.209	-13.31
273.425	37.89
273.64	29.7
273.856	31.74
274.072	66.56
274.287	11.26
274.503	56.32
274.719	74.75
274.934	44.03
275.15	37.89
275.366	66.56
275.581	41.98
275.797	17.41
276.012	-78.85
276.228	52.22
276.444	68.61
276.659	46.08
276.875	-56.32
277.09	52.22
277.306	68.61
277.521	-19.46
277.737	50.18
277.952	5.12
278.168	64.51
278.383	35.84
278.599	46.08
278.814	150.53
279.03	23.55
279.245	50.18
279.461	58.37
279.676	21.5
279.892	19.46
280.107	39.94
280.322	-17.41
280.538	177.15
280.753	46.08
280.969	76.8
281.184	140.29
281.399	52.22
281.615	13.31
281.83	109.57
282.045	21.5
282.26	5.12
282.476	25.6
282.691	84.99
282.906	115.71
283.122	87.04
283.337	35.84
283.552	154.62
283.767	35.84
283.983	107.52
284.198	46.08
284.413	60.42
284.628	68.61
284.843	70.65
285.058	91.13
285.274	58.37
285.489	1.02
285.704	54.27
285.919	60.42
286.134	93.18
286.349	50.18
286.564	74.75
286.779	142.33
286.995	33.79
287.21	-3.07
287.425	68.61
287.64	44.03
287.855	78.85
288.07	5.12
288.285	25.6
288.5	15.36
288.715	66.56
288.93	35.84
289.145	35.84
289.36	115.71
289.575	37.89
289.79	17.41
290.004	46.08
290.219	58.37
290.434	60.42
290.649	99.33
290.864	58.37
291.079	13.31
291.294	76.8
291.509	41.98
291.724	-35.84
291.938	64.51
292.153	54.27
292.368	27.65
292.583	19.46
292.798	33.79
293.012	-19.46
293.227	31.74
293.442	-23.55
293.657	84.99
293.871	21.5
294.086	44.03
294.301	156.67
294.516	87.04
294.73	-3.07
294.945	66.56
295.16	68.61
295.374	66.56
295.589	9.22
295.804	64.51
296.018	74.75
296.233	33.79
296.447	5.12
296.662	31.74
296.877	84.99
297.091	156.67
297.306	21.5
297.52	19.46
297.735	48.13
297.949	46.08
298.164	44.03
298.378	64.51
298.593	17.41
298.807	97.28
299.022	54.27
299.236	21.5
299.451	-5.12
299.665	-9.22
299.88	35.84
300.094	19.46
300.309	50.18
300.523	66.56
300.737	74.75
300.952	37.89
301.166	27.65
301.381	33.79
301.595	-48.13
301.809	44.03
302.024	72.7
302.238	60.42
302.452	33.79
302.667	54.27
302.881	33.79
303.095	64.51
303.309	72.7
303.524	37.89
303.738	52.22
303.952	9.22
304.166	166.91
304.381	58.37
304.595	17.41
304.809	87.04
305.023	54.27
305.237	-19.46
305.452	107.52
305.666	128
305.88	111.61
306.094	115.71
306.308	76.8
306.522	103.42
306.736	46.08
306.95	44.03
307.164	-11.26
307.379	13.31
307.593	50.18
307.807	142.33
308.021	11.26
308.235	-21.5
308.449	5.12
308.663	33.79
308.877	105.47
309.091	54.27
309.305	60.42
309.519	54.27
309.733	33.79
309.947	58.37
310.161	50.18
310.374	17.41
310.588	82.94
310.802	-7.17
311.016	140.29
311.23	52.22
311.444	-21.5
311.658	33.79
311.872	144.38
312.085	111.61
312.299	54.27
312.513	115.71
312.727	87.04
312.941	31.74
313.154	-13.31
313.368	93.18
313.582	11.26
313.796	-17.41
314.009	62.46
314.223	68.61
314.437	21.5
314.651	74.75
314.864	-21.5
315.078	60.42
315.292	3.07
315.505	-82.94
315.719	27.65
315.933	95.23
316.146	41.98
316.36	3.07
316.573	25.6
316.787	58.37
317.001	84.99
317.214	39.94
317.428	-23.55
317.641	105.47
317.855	35.84
318.068	46.08
318.282	74.75
318.495	101.37
318.709	23.55
318.922	1.02
319.136	66.56
319.349	48.13
319.563	11.26
319.776	19.46
319.99	1.02
320.203	48.13
320.417	50.18
320.63	54.27
320.843	109.57
321.057	74.75
321.27	66.56
321.483	9.22
321.697	13.31
321.91	62.46
322.124	52.22
322.337	109.57
322.55	64.51
322.763	123.9
322.977	117.76
323.19	66.56
323.403	35.84
323.617	37.89
323.83	66.56
324.043	48.13
324.256	46.08
324.469	19.46
324.683	39.94
324.896	60.42
325.109	74.75
325.322	13.31
325.535	93.18
325.748	97.28
325.962	58.37
326.175	27.65
326.388	58.37
326.601	35.84
326.814	35.84
327.027	46.08
327.24	62.46
327.453	5.12
327.666	93.18
327.879	103.42
328.092	117.76
328.305	91.13
328.518	25.6
328.731	82.94
328.944	109.57
329.157	46.08
329.37	91.13
329.583	107.52
329.796	52.22
330.009	44.03
330.222	80.89
330.435	89.09
330.648	70.65
330.861	60.42
331.073	60.42
331.286	46.08
331.499	70.65
331.712	54.27
331.925	66.56
332.138	58.37
332.35	82.94
332.563	101.37
332.776	95.23
332.989	-11.26
333.202	52.22
333.414	56.32
333.627	1.02
333.84	31.74
334.053	140.29
334.265	25.6
334.478	78.85
334.691	25.6
334.903	66.56
335.116	41.98
335.329	66.56
335.541	109.57
335.754	68.61
335.966	46.08
336.179	-15.36
336.392	46.08
336.604	107.52
336.817	89.09
337.029	41.98
337.242	82.94
337.454	52.22
337.667	37.89
337.88	140.29
338.092	41.98
338.305	58.37
338.517	-13.31
338.729	76.8
338.942	31.74
339.154	50.18
339.367	25.6
339.579	80.89
339.792	-58.37
340.004	78.85
340.217	44.03
340.429	25.6
340.641	5.12
340.854	44.03
341.066	7.17
341.278	50.18
341.491	123.9
341.703	9.22
341.915	19.46
342.128	101.37
342.34	52.22
342.552	78.85
342.764	50.18
342.977	33.79
343.189	62.46
343.401	41.98
343.613	23.55
343.826	146.43
344.038	19.46
344.25	123.9
344.462	-3.07
344.674	82.94
344.886	66.56
345.099	15.36
345.311	99.33
345.523	-23.55
345.735	-35.84
345.947	82.94
346.159	93.18
346.371	74.75
346.583	66.56
346.795	111.61
347.007	50.18
347.219	-15.36
347.431	19.46
347.643	56.32
347.855	91.13
348.067	103.42
348.279	60.42
348.491	58.37
348.703	82.94
348.915	93.18
349.127	27.65
349.339	29.7
349.551	58.37
349.763	66.56
349.975	-27.65
350.187	99.33
350.399	109.57
350.61	68.61
350.822	-31.74
351.034	23.55
351.246	58.37
351.458	58.37
351.669	31.74
351.881	117.76
352.093	123.9
352.305	177.15
352.517	62.46
352.728	117.76
352.94	50.18
353.152	74.75
353.363	33.79
353.575	78.85
353.787	9.22
353.999	82.94
354.21	99.33
354.422	31.74
354.633	82.94
354.845	60.42
355.057	89.09
355.268	66.56
355.48	41.98
355.692	41.98
355.903	21.5
356.115	41.98
356.326	-3.07
356.538	91.13
356.749	44.03
356.961	39.94
357.172	54.27
357.384	9.22
357.595	140.29
357.807	48.13
358.018	-11.26
358.23	33.79
358.441	39.94
358.653	19.46
358.864	33.79
359.075	1.02
359.287	91.13
359.498	82.94
359.709	140.29
359.921	44.03
360.132	17.41
360.344	72.7
360.555	33.79
360.766	-15.36
360.977	1.02
361.189	132.09
361.4	74.75
361.611	95.23
361.823	-5.12
362.034	97.28
362.245	21.5
362.456	91.13
362.667	44.03
362.879	62.46
363.09	91.13
363.301	41.98
363.512	103.42
363.723	82.94
363.935	-13.31
364.146	17.41
364.357	68.61
364.568	21.5
364.779	1.02
364.99	103.42
365.201	72.7
365.412	130.05
365.623	31.74
365.834	62.46
366.045	52.22
366.256	134.14
366.467	111.61
366.678	156.67
366.889	64.51
367.1	17.41
367.311	152.57
367.522	54.27
367.733	17.41
367.944	119.81
368.155	95.23
368.366	123.9
368.577	25.6
368.788	115.71
368.999	-15.36
369.209	107.52
369.42	162.81
369.631	150.53
369.842	123.9
370.053	58.37
370.264	27.65
370.474	72.7
370.685	76.8
370.896	142.33
371.107	76.8
371.317	95.23
371.528	64.51
371.739	148.48
371.95	9.22
372.16	50.18
372.371	19.46
372.582	44.03
372.792	80.89
373.003	80.89
373.214	82.94
373.424	76.8
373.635	41.98
373.846	76.8
374.056	89.09
374.267	76.8
374.477	25.6
374.688	117.76
374.898	87.04
375.109	50.18
375.319	66.56
375.53	183.29
375.74	33.79
375.951	58.37
376.161	99.33
376.372	134.14
376.582	27.65
376.793	78.85
377.003	9.22
377.214	33.79
377.424	50.18
377.635	93.18
377.845	97.28
378.055	140.29
378.266	-7.17
378.476	39.94
378.686	33.79
378.897	33.79
379.107	64.51
379.317	78.85
379.528	156.67
379.738	60.42
379.948	58.37
380.158	101.37
380.369	60.42
380.579	91.13
380.789	66.56
380.999	58.37
381.21	-1.02
381.42	60.42
381.63	50.18
381.84	84.99
382.05	117.76
382.261	140.29
382.471	93.18
382.681	44.03
382.891	25.6
383.101	99.33
383.311	-7.17
383.521	52.22
383.731	68.61
383.941	58.37
384.151	70.65
384.361	50.18
384.571	29.7
384.781	52.22
384.991	99.33
385.201	154.62
385.411	109.57
385.621	97.28
385.831	84.99
386.041	95.23
386.251	39.94
386.461	62.46
386.671	70.65
386.881	33.79
387.091	87.04
387.301	82.94
387.511	148.48
387.72	46.08
387.93	115.71
388.14	25.6
388.35	101.37
388.56	142.33
388.769	41.98
388.979	78.85
389.189	123.9
389.399	41.98
389.609	13.31
389.818	134.14
390.028	84.99
390.238	68.61
390.447	101.37
390.657	21.5
390.867	56.32
391.076	50.18
391.286	62.46
391.496	130.05
391.705	48.13
391.915	144.38
392.125	115.71
392.334	41.98
392.544	84.99
392.753	91.13
392.963	17.41
393.172	111.61
393.382	21.5
393.591	115.71
393.801	35.84
394.01	117.76
394.22	15.36
394.429	119.81
394.639	58.37
394.848	101.37
395.058	27.65
395.267	158.72
395.477	117.76
395.686	101.37
395.895	117.76
396.105	189.44
396.314	154.62
396.524	101.37
396.733	93.18
396.942	164.86
397.152	41.98
397.361	78.85
397.57	103.42
397.78	142.33
397.989	74.75
398.198	109.57
398.407	91.13
398.617	123.9
398.826	136.19
399.035	60.42
399.244	148.48
399.453	46.08
399.663	123.9
399.872	183.29
400.081	101.37
400.29	119.81
400.499	91.13
400.708	181.25
400.917	17.41
401.127	136.19
401.336	154.62
401.545	218.11
401.754	-1.02
401.963	128
402.172	123.9
402.381	66.56
402.59	91.13
402.799	58.37
403.008	191.49
403.217	181.25
403.426	189.44
403.635	119.81
403.844	128
404.053	173.05
404.262	185.34
404.471	175.1
404.68	109.57
404.888	109.57
405.097	89.09
405.306	177.15
405.515	115.71
405.724	117.76
405.933	136.19
406.142	150.53
406.35	234.49
406.559	175.1
406.768	191.49
406.977	246.78
407.185	150.53
407.394	222.2
407.603	156.67
407.812	156.67
408.02	246.78
408.229	230.4
408.438	214.01
408.646	175.1
408.855	152.57
409.064	263.16
409.272	289.79
409.481	328.7
409.69	347.13
409.898	214.01
410.107	351.23
410.315	232.44
410.524	234.49
410.733	316.41
410.941	295.93
411.15	410.62
411.358	373.75
411.567	433.15
411.775	365.56
411.984	457.72
412.192	404.47
412.401	455.67
412.609	480.25
412.818	502.78
413.026	494.58
413.234	470.01
413.443	498.68
413.651	537.59
413.86	508.92
414.068	525.3
414.276	691.19
414.485	527.35
414.693	515.06
414.901	623.61
415.11	709.62
415.318	719.86
415.526	721.91
415.734	683
415.943	705.53
416.151	834.55
416.359	865.27
416.567	871.41
416.776	943.09
416.984	902.13
417.192	922.61
417.4	869.36
417.608	885.75
417.817	920.56
418.025	1016.82
418.233	1043.44
418.441	1041.39
418.649	1002.48
418.857	1115.12
419.065	1260.52
419.273	1172.46
419.481	1233.9
419.689	1346.54
419.897	1313.77
420.105	1401.83
420.313	1360.88
420.521	1504.23
420.729	1510.38
420.937	1600.49
421.145	1659.88
421.353	1731.56
421.561	1858.53
421.769	1895.4
421.977	1844.2
422.185	1897.44
422.393	1893.35
422.601	2034.66
422.809	2051.04
423.017	2157.54
423.224	2155.49
423.432	2255.84
423.64	2245.6
423.848	2532.31
424.056	2474.97
424.263	2505.69
424.471	2524.12
424.679	2657.24
424.887	2896.85
425.094	2888.66
425.302	2876.37
425.51	2978.77
425.718	3083.22
425.925	3134.42
426.133	3130.32
426.341	3328.97
426.548	3501
426.756	3468.24
426.964	3650.5
427.171	3695.56
427.379	3953.6
427.586	3976.13
427.794	4000.71
428.001	4238.27
428.209	4582.33
428.417	4518.84
428.624	4746.17
428.832	4662.2
429.039	4772.79
429.247	4703.16
429.454	5137.33
429.662	5540.78
429.869	4850.61
430.076	5415.85
430.284	5186.48
430.491	5505.96
430.699	5878.69
430.906	5813.16
431.114	5956.52
431.321	6116.26
431.528	6239.14
431.736	6603.68
431.943	6919.06
432.15	6828.95
432.358	7021.46
432.565	7287.7
432.772	7048.08
432.979	7545.74
433.187	7603.08
433.394	7752.59
433.601	8172.42
433.808	8348.54
434.016	8272.77
434.223	8399.74
434.43	9003.89
434.637	9020.28
434.844	9519.98
435.052	9638.76
435.259	9603.95
435.466	9548.65
435.673	9374.58
435.88	9991.02
436.087	10601.31
436.294	10621.79
436.501	10333.03
436.708	10537.82
436.915	10814.3
437.122	11397.97
437.329	11338.58
437.537	11821.9
437.743	11789.13
437.95	11690.83
438.157	12550.98
438.364	12991.29
438.571	12790.59
438.778	12915.51
438.985	14156.58
439.192	13607.73
439.399	13923.12
439.606	13701.93
439.813	14289.7
440.02	15082.27
440.227	14881.56
440.433	15020.83
440.64	15461.14
440.847	15377.17
441.054	15622.93
441.261	16614.15
441.467	16753.41
441.674	16868.09
441.881	17349.37
442.088	17335.03
442.294	17451.77
442.501	17484.53
442.708	18066.16
442.914	18580.2
443.121	19477.21
443.328	18887.39
443.534	20308.68
443.741	19720.92
443.948	19423.96
444.154	20914.88
444.361	20830.91
444.568	21037.76
444.774	20712.13
444.981	21080.77
445.187	21592.76
445.394	22393.51
445.6	22409.9
445.807	24500.87
446.013	23278.24
446.22	23796.37
446.426	24722.05
446.633	25033.35
446.839	26174.06
447.046	24740.49
447.252	26053.23
447.459	26212.98
447.665	26231.41
447.871	27552.35
448.078	28265.04
448.284	27105.89
448.491	27845.21
448.697	28779.08
448.903	29391.42
449.11	29512.25
449.316	29016.65
449.522	29485.63
449.728	30466.61
449.935	30495.28
450.141	30519.85
450.347	31164.96
450.553	30194.23
450.76	30650.92
450.966	32074.26
451.172	31496.74
451.378	32254.48
451.584	31277.6
451.791	32027.16
451.997	32287.25
452.203	32750.09
452.409	32590.35
452.615	32559.63
452.821	31310.37
453.027	31339.04
453.233	32950.79
453.44	31513.12
453.646	31633.95
453.852	32320.02
454.058	32549.39
454.264	31789.59
454.47	32483.86
454.676	31050.28
454.882	32666.13
455.088	29948.47
455.294	30399.02
455.5	30945.83
455.705	31486.5
455.911	29616.7
456.117	29014.6
456.323	28924.49
456.529	27206.24
456.735	28852.81
456.941	27904.6
457.147	27292.26
457.352	26710.63
457.558	26493.55
457.764	26319.47
457.97	26313.33
458.176	25537.15
458.381	25496.19
458.587	24124.05
458.793	24392.33
458.999	22958.75
459.204	24703.62
459.41	23954.07
459.616	22426.28
459.821	22457
460.027	22129.33
460.233	21920.43
460.438	20859.59
460.644	20839.11
460.85	20007.63
461.055	19761.87
461.261	19849.94
461.466	18416.36
461.672	17982.19
461.878	18885.34
462.083	17560.31
462.289	17586.93
462.494	17105.66
462.7	16427.78
462.905	15989.52
463.111	16638.72
463.316	16468.74
463.522	16251.66
463.727	16360.2
463.932	16073.48
464.138	15948.56
464.343	16028.43
464.549	15647.51
464.754	16139.02
464.959	15885.07
465.165	15563.54
465.37	15450.9
465.575	14844.7
465.781	15426.32
465.986	15473.43
466.191	14967.58
466.397	14678.82
466.602	14056.23
466.807	14615.33
467.012	14365.48
467.218	14453.54
467.423	14097.19
467.628	14291.75
467.833	15084.31
468.038	14398.24
468.244	14041.9
468.449	14269.22
468.654	14224.17
468.859	13914.92
469.064	13732.65
469.269	13206.33
469.474	13464.37
469.679	13601.58
469.885	13173.56
470.09	13519.67
470.295	13515.57
470.5	12833.6
470.705	13013.82
470.91	12792.64
471.115	12647.23
471.32	12841.79
471.525	12946.23
471.73	12510.02
471.935	12436.29
472.139	12088.14
472.344	12346.18
472.549	12012.36
472.754	12157.77
472.959	11522.9
473.164	11541.33
473.369	11498.32
473.574	11920.2
473.778	11488.08
473.983	11682.64
474.188	11365.2
474.393	10994.52
474.598	10928.99
474.802	10980.18
475.007	10888.03
475.212	10847.07
475.417	10601.31
475.621	10486.62
475.826	10554.21
476.031	10376.03
476.235	10023.78
476.44	10390.37
476.645	10156.9
476.849	10148.71
477.054	10056.55
477.259	9857.9
477.463	9857.9
477.668	9577.33
477.872	9775.98
478.077	9671.53
478.282	9220.98
478.486	9382.77
478.691	9040.76
478.895	9282.42
479.1	9104.25
479.304	9257.84
479.509	8676.22
479.713	9044.85
479.918	8915.83
480.122	8692.6
480.326	8919.93
480.531	8909.69
480.735	8635.26
480.94	8659.84
481.144	8840.06
481.348	8446.85
481.553	8692.6
481.757	8405.89
481.961	8463.23
482.166	8557.44
482.37	8508.29
482.574	8280.96
482.778	8424.32
482.983	8520.57
483.187	8473.47
483.391	8465.28
483.595	8403.84
483.8	8235.91
484.004	8528.77
484.208	8463.23
484.412	8422.27
484.616	8510.33
484.821	8391.55
485.025	8254.34
485.229	8506.24
485.433	8428.42
485.637	8360.83
485.841	8323.97
486.045	8373.12
486.249	8424.32
486.453	8358.78
486.657	8401.79
486.861	8377.22
487.065	8063.88
487.269	8317.83
487.473	8283.01
487.677	8483.71
487.881	8455.04
488.085	8409.98
488.289	8467.33
488.493	8278.91
488.697	8516.48
488.901	8313.73
489.105	8184.71
489.309	8661.88
489.512	8395.65
489.716	8422.27
489.92	8479.61
490.124	8455.04
490.328	8737.66
490.531	8629.12
490.735	8627.07
490.939	8496
491.143	8379.26
491.346	8702.84
491.55	8815.48
491.754	8641.4
491.958	8799.1
492.161	8725.37
492.365	8817.53
492.569	8858.49
492.772	8817.53
492.976	8924.02
493.18	9018.23
493.383	9067.38
493.587	9165.68
493.79	9098.1
493.994	9128.82
494.197	9102.2
494.401	9454.45
494.605	9259.89
494.808	9417.58
495.012	9528.17
495.215	9550.7
495.419	9618.29
495.622	9313.14
495.825	9708.4
496.029	9595.76
496.232	9816.94
496.436	9814.89
496.639	9980.78
496.843	9913.19
497.046	10161
497.249	10435.42
497.453	10306.4
497.656	10435.42
497.859	10470.24
498.063	10597.21
498.266	10767.2
498.469	10740.57
498.673	10924.89
498.876	11150.17
499.079	11076.44
499.282	11080.53
499.485	11449.17
499.689	11391.83
499.892	11668.3
500.095	11791.18
500.298	11912.01
500.501	11518.8
500.705	12337.99
500.908	12329.8
501.111	12536.64
501.314	12546.88
501.517	12682.05
501.72	12989.24
501.923	12686.14
502.126	13108.02
502.329	13345.59
502.532	13151.03
502.735	13445.94
502.938	13640.5
503.141	13697.84
503.344	13984.55
503.547	13720.37
503.75	14117.67
503.953	14363.43
504.156	14304.04
504.359	14586.66
504.562	14682.91
504.765	15045.4
504.968	15395.61
505.17	15342.36
505.373	15078.17
505.576	15573.78
505.779	15684.37
505.982	15987.47
506.185	15960.84
506.387	16225.03
506.59	16233.22
506.793	16569.09
506.996	16558.85
507.198	17167.1
507.401	17107.71
507.604	17099.52
507.807	17541.88
508.009	17711.86
508.212	17525.49
508.415	17971.95
508.617	18197.23
508.82	18342.63
509.022	18266.86
509.225	18670.31
509.428	18914.02
509.63	19167.96
509.833	19231.45
510.035	19571.41
510.238	19784.4
510.44	19372.76
510.643	19686.1
510.845	20421.32
511.048	20116.17
511.25	20591.3
511.453	20622.02
511.655	21107.39
511.858	21029.57
512.06	21244.6
512.262	21209.79
512.465	21365.43
512.667	22022.83
512.87	22028.98
513.072	22194.86
513.274	22366.89
513.477	22463.15
513.679	23005.86
513.881	22968.99
514.084	23343.77
514.286	23333.53
514.488	23478.94
514.69	24064.66
514.893	24144.53
515.095	23997.07
515.297	24486.54
515.499	24552.07
515.701	25033.35
515.904	24941.19
516.106	25188.99
516.308	25490.04
516.51	25670.26
516.712	25721.46
516.914	26180.21
517.116	26407.53
517.318	26595.95
517.52	26919.53
517.722	26849.89
517.925	27101.79
518.127	27609.69
518.329	27687.51
518.531	27826.78
518.733	28031.57
518.935	28377.68
519.136	28435.02
519.338	28861
519.54	29043.27
519.742	29241.92
519.944	29315.65
520.146	29829.69
520.348	29925.94
520.55	30267.95
520.752	30282.29
520.954	30763.56
521.155	30247.47
521.357	31083.05
521.559	31185.44
521.761	31627.81
521.963	31679
522.164	31707.68
522.366	31676.96
522.568	32145.94
522.77	32133.65
522.971	32723.47
523.173	32721.42
523.375	32633.36
523.576	33305.09
523.778	33092.1
523.98	33714.69
524.181	33681.92
524.383	33669.63
524.584	34036.22
524.786	33925.63
524.988	33845.76
525.189	34714.09
525.391	34595.31
525.592	34845.16
525.794	34679.28
525.995	35281.38
526.197	34812.4
526.398	34898.41
526.6	35418.6
526.801	35289.57
527.003	36084.19
527.204	35686.88
527.406	35842.53
527.607	36092.38
527.808	36432.34
528.01	35922.4
528.211	36037.08
528.412	36788.69
528.614	36561.36
528.815	36497.88
529.016	37181.9
529.218	36764.11
529.419	36620.75
529.62	36671.95
529.822	36983.24
530.023	36981.2
530.224	36807.12
530.425	37005.77
530.626	36676.05
530.828	36831.69
531.029	37820.86
531.23	36819.41
531.431	37276.1
531.632	37155.27
531.833	37093.83
532.035	37247.43
532.236	37362.12
532.437	37505.48
532.638	37188.04
532.839	37773.76
533.04	37900.73
533.241	37462.47
533.442	37992.89
533.643	37427.65
533.844	37425.6
534.045	38130.11
534.246	37575.11
534.447	37837.25
534.648	37468.61
534.849	37550.53
535.05	37581.25
535.251	37622.21
535.451	37556.67
535.652	38203.83
535.853	38056.38
536.054	37951.93
536.255	38005.18
536.456	37677.51
536.657	38287.8
536.857	37777.86
537.058	37827.01
537.259	37947.84
537.46	38040
537.66	37579.2
537.861	37796.29
538.062	37650.88
538.263	38091.19
538.463	37460.42
538.664	37863.87
538.865	37779.9
539.065	37974.46
539.266	37523.91
539.466	38119.87
539.667	37575.11
539.868	37919.17
540.068	37853.63
540.269	37812.67
540.469	37792.19
540.67	37757.38
540.87	37880.25
541.071	37683.65
541.271	37992.89
541.472	37632.45
541.672	37720.51
541.873	37411.27
542.073	37222.86
542.274	37919.17
542.474	37630.4
542.675	37183.94
542.875	37630.4
543.075	37661.12
543.276	37290.44
543.476	37767.62
543.676	37089.74
543.877	37607.87
544.077	37743.04
544.277	37038.54
544.478	37505.48
544.678	37693.89
544.878	37267.91
545.078	37499.33
545.279	37509.57
545.479	37226.95
545.679	37564.87
545.879	37585.35
546.079	37958.08
546.28	37411.27
546.48	37071.31
546.68	37327.3
546.88	37605.83
547.08	37562.82
547.28	37229
547.48	37075.4
547.68	37585.35
547.88	37218.76
548.081	37681.6
548.281	37392.84
548.481	37016.01
548.681	37386.69
548.881	37151.18
549.081	37052.87
549.28	37095.88
549.48	37515.72
549.68	37286.34
549.88	37317.06
550.08	37081.55
550.28	37050.83
550.48	37116.36
550.68	37450.18
550.88	36930
551.08	37335.49
551.279	37517.76
551.479	37026.25
551.679	37206.47
551.879	37056.97
552.079	37134.79
552.278	37112.27
552.478	37018.06
552.678	36862.41
552.878	37335.49
553.077	36884.94
553.277	36731.34
553.477	37315.01
553.676	36704.72
553.876	37241.29
554.076	36786.64
554.275	36794.83
554.475	36184.54
554.674	36450.77
554.874	36977.1
555.074	36676.05
555.273	36721.1
555.473	36655.57
555.672	36528.59
555.872	36596.18
556.071	36430.29
556.271	37001.68
556.47	36612.56
556.67	36147.67
556.869	36520.4
557.068	36434.39
557.268	35942.88
557.467	36227.54
557.667	36096.47
557.866	36053.47
558.065	36305.37
558.265	36039.13
558.464	35865.05
558.663	36143.58
558.863	35486.18
559.062	36258.26
559.261	35547.62
559.461	36266.45
559.66	35840.48
559.859	35795.42
560.058	35879.39
560.258	35697.12
560.457	35500.51
560.656	35465.7
560.855	35531.23
561.054	35592.67
561.253	35230.18
561.453	35092.97
561.652	34994.67
561.851	35285.48
562.05	35072.49
562.249	34882.03
562.448	35674.59
562.647	35373.54
562.846	35437.03
563.045	35086.82
563.244	35000.81
563.443	35543.52
563.642	34720.24
563.841	34710
564.04	34812.4
564.239	35068.39
564.438	34331.12
564.637	34580.98
564.836	34716.14
565.035	34163.19
565.234	34288.12
565.432	34404.85
565.631	34396.66
565.83	34734.57
566.029	34126.33
566.228	33944.06
566.427	33896.95
566.625	33628.67
566.824	33643.01
567.023	33880.57
567.222	33251.84
567.42	33616.38
567.619	33632.77
567.818	33430.02
568.016	33761.79
568.215	33593.86
568.414	33094.15
568.612	33632.77
568.811	33415.68
569.01	33501.7
569.208	32832.01
569.407	32969.22
569.605	32631.31
569.804	33561.09
570.002	32987.66
570.201	32946.7
570.4	32653.84
570.598	32461.33
570.797	32586.25
570.995	32373.27
571.193	32107.03
571.392	32512.53
571.59	32162.33
571.789	32221.72
571.987	31740.44
572.186	32164.37
572.384	32023.06
572.582	32041.5
572.781	32244.24
572.979	31511.07
573.177	31881.75
573.376	31611.42
573.574	31361.57
573.772	31795.74
573.971	31259.17
574.169	31060.52
574.367	31035.94
574.565	31324.71
574.763	30972.46
574.962	31093.29
575.16	30448.18
575.358	30812.71
575.556	30265.91
575.754	30904.87
575.952	30659.12
576.151	30904.87
576.349	30362.16
576.547	30558.77
576.745	30704.17
576.943	30464.56
577.141	30390.83
577.339	30394.93
577.537	30163.51
577.735	29762.11
577.933	29827.64
578.131	29874.74
578.329	29823.54
578.527	29424.19
578.725	29704.76
578.923	29788.73
579.121	29557.31
579.319	29280.83
579.516	29540.93
579.714	29149.76
579.912	28996.17
580.11	28883.53
580.308	28781.13
580.506	29061.7
580.704	28641.87
580.901	28947.01
581.099	28889.67
581.297	28213.84
581.495	28861
581.692	28760.65
581.89	28320.34
582.088	28799.56
582.285	28224.08
582.483	28400.21
582.681	27945.56
582.878	27841.11
583.076	27912.79
583.274	28428.88
583.471	27875.93
583.669	27851.35
583.866	27687.51
584.064	28082.77
584.262	27527.77
584.459	27751
584.657	27476.57
584.854	27441.76
585.052	27236.96
585.249	27345.5
585.447	27435.61
585.644	26989.16
585.841	27179.62
586.039	27171.43
586.236	27054.69
586.434	26964.58
586.631	26755.69
586.828	26677.86
587.026	26532.46
587.223	26765.93
587.42	26245.74
587.618	26139.25
587.815	26116.72
588.012	26206.83
588.21	25799.29
588.407	26440.3
588.604	25989.75
588.801	25805.43
588.999	25995.89
589.196	25770.61
589.393	25563.77
589.59	25924.21
589.787	25590.39
589.984	25418.36
590.182	25531
590.379	25600.63
590.576	25481.85
590.773	25219.71
590.97	25135.74
591.167	25006.72
591.364	24736.39
591.561	24863.36
591.758	24767.11
591.955	24701.58
592.152	24808.07
592.349	24572.55
592.546	24857.22
592.743	24654.47
592.94	24455.82
593.137	24285.84
593.334	24674.95
593.531	23941.78
593.727	24560.27
593.924	24367.76
594.121	24054.42
594.318	23958.16
594.515	23954.07
594.712	23947.92
594.908	23825.04
595.105	23810.71
595.302	23523.99
595.499	23552.66
595.696	23810.71
595.892	23263.9
596.089	23421.59
596.286	23581.34
596.482	23331.48
596.679	23003.81
596.876	23274.14
597.072	22981.28
597.269	22950.56
597.466	23081.63
597.662	22747.81
597.859	23110.3
598.055	23085.73
598.252	22491.82
598.448	22751.91
598.645	22743.72
598.841	22338.22
599.038	22403.75
599.234	22733.48
599.431	22258.35
599.627	21992.11
599.824	22354.6
600.02	22135.47
600.217	21906.1
600.413	21678.77
600.609	21947.06
600.806	21664.44
601.002	21828.27
601.198	21725.88
601.395	21633.72
601.591	21637.81
601.787	21564.09
601.984	21340.86
602.18	21541.56
602.376	21277.37
602.572	21088.96
602.769	20953.79
602.965	20818.63
603.161	21328.57
603.357	21191.36
603.553	20800.19
603.75	20873.92
603.946	20634.31
604.142	20890.31
604.338	20292.3
604.534	20622.02
604.73	20327.11
604.926	20601.54
605.122	20679.36
605.318	20378.31
605.514	20112.08
605.71	20208.33
605.906	20206.28
606.102	20013.77
606.298	20175.56
606.494	20034.25
606.69	20021.97
606.886	19915.47
607.082	19870.42
607.278	19960.53
607.474	19550.93
607.67	19802.83
607.866	19469.01
608.062	19817.17
608.257	19434.2
608.453	19694.29
608.649	19278.55
608.845	19512.02
609.041	19337.94
609.236	19583.7
609.432	19448.54
609.628	19471.06
609.824	19309.27
610.019	19180.25
610.215	19440.34
610.411	19317.47
610.606	18940.64
610.802	19245.79
610.998	19131.1
611.193	18625.25
611.389	18836.19
611.584	19088.09
611.78	18660.07
611.976	18748.13
612.171	18920.16
612.367	18725.6
612.562	18703.07
612.758	18565.86
612.953	18467.56
613.149	18555.62
613.344	18531.05
613.539	18807.52
613.735	18445.03
613.93	18541.29
614.126	18533.09
614.321	18473.7
614.517	18549.48
614.712	18236.14
614.907	18049.77
615.103	18447.08
615.298	18256.62
615.493	18322.15
615.688	18080.49
615.884	18420.45
616.079	17670.9
616.274	18076.4
616.47	17951.47
616.665	18309.86
616.86	17756.91
617.055	17773.3
617.25	17832.69
617.445	17926.89
617.641	17314.55
617.836	17613.56
618.031	17419
618.226	17720.05
618.421	17718
618.616	17810.16
618.811	17265.4
619.006	17486.58
619.201	16802.56
619.396	17197.82
619.591	17152.76
619.786	16966.4
619.981	16786.18
620.176	16777.98
620.371	16782.08
620.566	16804.61
620.761	16605.95
620.956	16810.75
621.151	16495.36
621.346	16747.26
621.541	16382.73
621.735	16667.39
621.93	16163.59
622.125	16225.03
622.32	16190.22
622.515	16196.36
622.709	16145.16
622.904	15895.31
623.099	15549.2
623.294	15907.6
623.488	15604.5
623.683	15747.86
623.878	15393.56
624.072	15622.93
624.267	15293.21
624.462	15330.07
624.656	15151.9
624.851	15182.62
625.046	15246.1
625.24	15000.35
625.435	14938.91
625.629	14469.92
625.824	14598.95
626.018	14623.52
626.213	14195.5
626.407	14582.56
626.602	14279.46
626.796	14455.59
626.991	14269.22
627.185	14189.35
627.38	14400.29
627.574	13775.66
627.768	13970.22
627.963	14009.13
628.157	13861.68
628.352	13939.5
628.546	13523.76
628.74	13577.01
628.935	13538.1
629.129	13673.26
629.323	13181.75
629.517	13155.13
629.712	13259.57
629.906	13198.13
630.1	12952.38
630.294	13024.06
630.489	12935.99
630.683	13036.35
630.877	12927.8
631.071	12559.17
631.265	12669.76
631.459	12761.92
631.653	12501.83
631.848	12481.35
632.042	12454.72
632.236	12329.8
632.43	12231.49
632.624	12213.06
632.818	12174.15
633.012	12038.98
633.206	12174.15
633.4	11920.2
633.594	11871.05
633.788	11856.72
633.982	11715.41
634.176	11916.11
634.369	11688.78
634.563	11721.55
634.757	11524.94
634.951	11643.73
635.145	11543.38
635.339	11393.87
635.533	11209.56
635.726	11232.08
635.92	11256.66
636.114	11141.97
636.308	11039.58
636.501	11060.06
636.695	11070.3
636.889	10967.9
637.083	10781.53
637.276	10734.43
637.47	10724.19
637.664	10775.39
637.857	10711.9
638.051	10607.45
638.244	10621.79
638.438	10597.21
638.632	10365.79
638.825	10285.92
639.019	10314.59
639.212	10265.44
639.406	10328.93
639.599	10138.47
639.793	10308.45
639.986	9945.96
640.18	9984.87
640.373	9874.28
640.567	9710.44
640.76	9769.83
640.954	9585.52
641.147	9536.37
641.34	9728.88
641.534	9769.83
641.727	9548.65
641.92	9479.02
642.114	9552.75
642.307	9296.75
642.5	9294.71
642.694	9192.31
642.887	9345.91
643.08	9507.69
643.273	9225.08
643.467	9157.49
643.66	8921.98
643.853	9051
644.046	8819.58
644.239	8958.84
644.432	8885.11
644.626	8858.49
644.819	8688.51
645.012	8823.67
645.205	8823.67
645.398	8629.12
645.591	8692.6
645.784	8561.53
645.977	8463.23
646.17	8596.35
646.363	8297.35
646.556	8315.78
646.749	8280.96
646.942	8209.28
647.135	8377.22
647.328	8194.95
647.521	8219.52
647.714	7918.47
647.907	8065.92
648.099	7963.53
648.292	7930.76
648.485	8237.95
648.678	7930.76
648.871	7906.18
649.064	7828.36
649.256	7807.88
649.449	7652.24
649.642	7789.45
649.835	7695.24
650.027	7570.32
650.22	7555.98
650.413	7402.38
650.605	7562.12
650.798	7412.62
650.991	7367.57
651.183	7187.35
651.376	7201.68
651.568	7414.67
651.761	7168.91
651.954	7283.6
652.146	7127.96
652.339	7119.76
652.531	7089.04
652.724	7283.6
652.916	6960.02
653.109	7076.76
653.301	6935.45
653.494	6874.01
653.686	6880.15
653.879	6874.01
654.071	6833.05
654.263	6632.35
654.456	6804.38
654.648	6857.62
654.84	6589.34
655.033	6572.96
655.225	6689.69
655.417	6513.56
655.61	6556.57
655.802	6443.93
655.994	6431.65
656.186	6474.65
656.379	6421.41
656.571	6390.69
656.763	6321.06
656.955	6167.46
657.148	6165.41
657.34	6173.6
657.532	6103.97
657.724	6112.16
657.916	6112.16
658.108	6081.44
658.3	6073.25
658.492	6161.31
658.684	5929.89
658.876	5886.89
659.068	5809.06
659.26	5727.14
659.452	5872.55
659.644	5962.66
659.836	5680.04
660.028	5718.95
660.22	5645.23
660.412	5610.41
660.604	5630.89
660.796	5579.69
660.988	5704.62
661.18	5530.54
661.372	5465
661.563	5444.52
661.755	5376.94
661.947	5501.87
662.139	5385.13
662.331	5360.56
662.522	5307.31
662.714	5335.98
662.906	5409.71
663.097	5325.74
663.289	5317.55
663.481	5139.38
663.673	5313.45
663.864	5047.22
664.056	5219.25
664.247	5198.77
664.439	5051.31
664.631	5096.37
664.822	5039.03
665.014	5108.66
665.205	4858.81
665.397	4869.05
665.588	4948.92
665.78	4852.66
665.971	4862.9
666.163	4867
666.354	4780.98
666.546	4764.6
666.737	4703.16
666.929	4842.42
667.12	4561.85
667.311	4572.09
667.503	4725.69
667.694	4692.92
667.885	4598.71
668.077	4639.67
668.268	4410.3
668.459	4606.91
668.651	4410.3
668.842	4508.6
669.033	4441.02
669.224	4527.03
669.416	4443.07
669.607	4361.15
669.798	4457.4
669.989	4281.28
670.18	4375.49
670.371	4352.96
670.563	4250.56
670.754	4301.76
670.945	4336.57
671.136	4240.32
671.327	4170.69
671.518	4262.85
671.709	4314.05
671.9	4279.23
672.091	4359.1
672.282	4240.32
672.473	4133.82
672.664	4142.02
672.855	4099.01
673.046	4121.54
673.237	3965.89
673.428	4088.77
673.619	4170.69
673.809	3959.75
674	3851.21
674.191	3984.32
674.382	3939.27
674.573	3888.07
674.764	3943.36
674.954	4002.75
675.145	3873.73
675.336	3773.38
675.527	3834.82
675.717	3851.21
675.908	3744.71
676.099	3689.42
676.289	3679.18
676.48	3769.29
676.671	3892.16
676.861	3865.54
677.052	3793.86
677.243	3707.85
677.433	3634.12
677.624	3642.31
677.814	3646.41
678.005	3591.11
678.195	3695.56
678.386	3576.78
678.576	3533.77
678.767	3539.91
678.957	3494.86
679.148	3425.23
679.338	3609.54
679.529	3550.15
679.719	3474.38
679.909	3521.48
680.1	3527.63
680.29	3468.24
680.481	3574.73
680.671	3382.22
680.861	3494.86
681.052	3427.28
681.242	3359.69
681.432	3529.67
681.622	3343.31
681.813	3378.12
682.003	3314.64
682.193	3245.01
682.383	3365.84
682.573	3400.65
682.764	3230.67
682.954	3408.84
683.144	3267.53
683.334	3212.24
683.524	3220.43
683.714	3255.25
683.904	3058.64
684.094	3181.52
684.284	3208.14
684.474	3271.63
684.664	3177.42
684.854	3140.56
685.044	2999.25
685.234	3273.68
685.424	3249.1
685.614	2984.91
685.804	3126.22
685.994	3009.49
686.184	3048.4
686.374	2909.14
686.564	3038.16
686.753	3048.4
686.943	3003.35
687.133	3007.44
687.323	2974.67
687.513	3052.5
687.702	2915.28
687.892	2868.18
688.082	2921.43
688.272	2892.76
688.461	2941.91
688.651	2933.72
688.841	2986.96
689.03	2909.14
689.22	2802.65
689.41	2835.41
689.599	2843.6
689.789	2737.11
689.979	2857.94
690.168	2827.22
690.358	2778.07
690.547	2765.78
690.737	2782.17
690.926	2814.93
691.116	2597.85
691.305	2663.38
691.495	2812.89
691.684	2728.92
691.874	2638.81
692.063	2636.76
692.252	2673.62
692.442	2718.68
692.631	2544.6
692.82	2687.96
693.01	2593.75
693.199	2589.66
693.388	2687.96
693.578	2548.7
693.767	2640.86
693.956	2610.14
694.146	2579.42
694.335	2618.33
694.524	2532.31
694.713	2556.89
694.902	2458.59
695.092	2458.59
695.281	2489.31
695.47	2452.44
695.659	2499.55
695.848	2517.98
696.037	2466.78
696.226	2460.63
696.415	2417.63
696.604	2386.91
696.793	2515.93
696.982	2452.44
697.171	2470.87
697.36	2358.24
697.549	2565.08
697.738	2413.53
697.927	2333.66
698.116	2458.59
698.305	2450.39
698.494	2434.01
698.683	2438.11
698.872	2329.56
699.061	2438.11
699.25	2296.8
699.438	2304.99
699.627	2270.17
699.816	2296.8
700.005	2323.42
700.193	2335.71
700.382	2438.11
700.571	2235.36
700.76	2417.63
700.948	2386.91
701.137	2368.48
701.326	2261.98
701.514	2253.79
701.703	2302.94
701.892	2317.28
702.08	2382.81
702.269	2309.08
702.457	2218.97
702.646	2218.97
702.834	2231.26
703.023	2319.32
703.212	2360.28
703.4	2370.52
703.589	2173.92
703.777	2221.02
703.965	2253.79
704.154	2132.96
704.342	2171.87
704.531	2180.06
704.719	2233.31
704.907	2245.6
705.096	2245.6
705.284	2204.64
705.472	2249.69
705.661	2171.87
705.849	2190.3
706.037	2339.8
706.226	2309.08
706.414	2239.45
706.602	2098.14
706.79	2196.45
706.979	2212.83
707.167	2264.03
707.355	2239.45
707.543	2192.35
707.731	2264.03
707.919	2245.6
708.107	2145.25
708.296	2175.97
708.484	2145.25
708.672	2094.05
708.86	2155.49
709.048	2188.25
709.236	2180.06
709.424	2221.02
709.612	2196.45
709.8	2225.12
709.988	2237.41
710.176	2173.92
710.364	2214.88
710.551	2204.64
710.739	2223.07
710.927	2096.1
711.115	2165.73
711.303	2081.76
711.491	2200.54
711.679	2167.77
711.866	2118.62
712.054	2122.72
712.242	2274.27
712.43	2188.25
712.617	2200.54
712.805	2048.99
712.993	2282.46
713.181	2108.38
713.368	2114.53
713.556	2147.3
713.744	2089.95
713.931	2204.64
714.119	2214.88
714.306	2108.38
714.494	2139.1
714.682	2188.25
714.869	2065.38
715.057	2143.2
715.244	2092
715.432	2114.53
715.619	2036.7
715.807	2089.95
715.994	2108.38
716.182	2126.82
716.369	2077.66
716.556	2186.21
716.744	2073.57
716.931	2198.49
717.119	2108.38
717.306	2141.15
717.493	2143.2
717.681	2079.71
717.868	2098.14
718.055	2151.39
718.242	2073.57
718.43	2040.8
718.617	2106.34
718.804	2073.57
718.991	2108.38
719.179	2184.16
719.366	2098.14
719.553	1999.84
719.74	2071.52
719.927	2094.05
720.114	2087.9
720.301	2008.03
720.488	2159.58
720.676	2034.66
720.863	2112.48
721.05	2067.42
721.237	2089.95
721.424	2132.96
721.611	2003.94
721.798	2059.23
721.985	1971.17
722.172	1977.31
722.358	2081.76
722.545	2079.71
722.732	2008.03
722.919	2171.87
723.106	2092
723.293	2081.76
723.48	2108.38
723.667	2106.34
723.853	2042.85
724.04	2124.77
724.227	2087.9
724.414	2030.56
724.6	2028.51
724.787	2063.33
724.974	2206.69
725.161	2032.61
725.347	1975.27
725.534	2110.43
725.72	2005.99
725.907	2051.04
726.094	2048.99
726.28	1975.27
726.467	2083.81
726.653	2085.86
726.84	2008.03
727.027	2055.14
727.213	1926.11
727.4	1930.21
727.586	2069.47
727.773	2020.32
727.959	2018.27
728.145	2057.18
728.332	2034.66
728.518	2092
728.705	2145.25
728.891	1950.69
729.077	1975.27
729.264	1995.75
729.45	2024.42
729.636	2048.99
729.823	1981.41
730.009	2089.95
730.195	2128.86
730.382	2135.01
730.568	1995.75
730.754	1999.84
730.94	1934.31
731.126	2016.23
731.313	1971.17
731.499	2036.7
731.685	2087.9
731.871	2003.94
732.057	2010.08
732.243	2085.86
732.429	2020.32
732.615	2003.94
732.801	2046.94
732.987	1962.98
733.173	2036.7
733.359	2012.13
733.545	2051.04
733.731	2018.27
733.917	2040.8
734.103	1934.31
734.289	2114.53
734.475	1932.26
734.661	2024.42
734.847	1983.46
735.033	2069.47
735.219	1969.12
735.404	1977.31
735.59	1942.5
735.776	1829.86
735.962	1991.65
736.148	2003.94
736.333	2040.8
736.519	1973.22
736.705	2151.39
736.89	1893.35
737.076	1956.83
737.262	1860.58
737.447	2026.47
737.633	1905.63
737.819	1936.35
738.004	1899.49
738.19	1909.73
738.375	1829.86
738.561	1942.5
738.747	1993.7
738.932	1895.4
739.118	1950.69
739.303	1836
739.489	1864.68
739.674	1901.54
739.859	1827.81
740.045	1901.54
740.23	1930.21
740.416	1813.48
740.601	1909.73
740.786	1848.29
740.972	1836
741.157	1772.52
741.342	1811.43
741.528	1797.09
741.713	1838.05
741.898	1809.38
742.084	1856.48
742.269	1846.24
742.454	1852.39
742.639	1883.11
742.824	1819.62
743.01	1760.23
743.195	1879.01
743.38	1848.29
743.565	1795.04
743.75	1758.18
743.935	1799.14
744.12	1928.16
744.305	1754.09
744.49	1737.7
744.675	1739.75
744.86	1688.55
745.045	1694.69
745.23	1713.13
745.415	1682.41
745.6	1684.45
745.785	1715.17
745.97	1672.17
746.155	1811.43
746.34	1688.55
746.525	1614.82
746.71	1784.8
746.895	1610.73
747.079	1623.02
747.264	1553.38
747.449	1565.67
747.634	1573.86
747.819	1567.72
748.003	1618.92
748.188	1485.8
748.373	1633.26
748.557	1639.4
748.742	1567.72
748.927	1459.18
749.111	1446.89
749.296	1508.33
749.481	1487.85
749.665	1477.61
749.85	1418.22
750.034	1514.47
750.219	1539.05
750.404	1383.4
750.588	1504.23
750.773	1389.55
750.957	1557.48
751.141	1377.26
751.326	1487.85
751.51	1377.26
751.695	1420.27
751.879	1401.83
752.064	1367.02
752.248	1381.35
752.432	1426.41
752.617	1364.97
752.801	1418.22
752.985	1342.44
753.17	1418.22
753.354	1426.41
753.538	1330.16
753.722	1334.25
753.907	1289.2
754.091	1297.39
754.275	1281
754.459	1258.48
754.643	1205.23
754.828	1262.57
755.012	1223.66
755.196	1213.42
755.38	1352.68
755.564	1256.43
755.748	1332.2
755.932	1250.28
756.116	1154.03
756.3	1227.76
756.484	1215.47
756.668	1221.61
756.852	1078.26
757.036	1229.81
757.22	1149.93
757.404	1168.37
757.588	1113.07
757.772	1149.93
757.956	1147.89
758.14	1151.98
758.323	1090.54
758.507	1164.27
758.691	1092.59
758.875	1074.16
759.059	1149.93
759.242	1074.16
759.426	1078.26
759.61	1027.06
759.794	1108.98
759.977	1076.21
760.161	1172.46
760.345	1100.78
760.528	1065.97
760.712	1094.64
760.895	1016.82
761.079	1025.01
761.263	1027.06
761.446	1041.39
761.63	1010.67
761.813	975.86
761.997	947.19
762.18	982
762.364	887.79
762.547	879.6
762.731	951.28
762.914	973.81
763.098	902.13
763.281	1000.43
763.464	977.91
763.648	951.28
763.831	955.38
764.015	959.47
764.198	951.28
764.381	873.46
764.564	986.1
764.748	994.29
764.931	936.95
765.114	873.46
765.297	936.95
765.481	893.94
765.664	906.23
765.847	895.99
766.03	932.85
766.213	814.07
766.397	885.75
766.58	941.04
766.763	949.23
766.946	977.91
767.129	900.08
767.312	797.68
767.495	895.99
767.678	787.44
767.861	918.51
768.044	881.65
768.227	951.28
768.41	814.07
768.593	861.17
768.776	836.6
768.959	977.91
769.142	898.03
769.324	922.61
769.507	812.02
769.69	846.84
769.873	816.12
770.056	893.94
770.239	836.6
770.421	869.36
770.604	795.64
770.787	801.78
770.97	879.6
771.152	844.79
771.335	893.94
771.518	812.02
771.7	756.72
771.883	885.75
772.066	795.64
772.248	750.58
772.431	789.49
772.613	787.44
772.796	656.37
772.978	707.57
773.161	838.64
773.343	799.73
773.526	769.01
773.708	719.86
773.891	701.43
774.073	803.83
774.256	766.96
774.438	791.54
774.621	783.35
774.803	750.58
774.985	836.6
775.168	699.38
775.35	713.72
775.532	672.76
775.715	740.34
775.897	713.72
776.079	721.91
776.261	803.83
776.444	699.38
776.626	650.23
776.808	685.05
776.99	730.1
777.173	601.08
777.355	623.61
777.537	689.14
777.719	648.18
777.901	642.04
778.083	623.61
778.265	625.65
778.447	639.99
778.629	654.33
778.811	599.03
778.993	648.18
779.175	625.65
779.357	629.75
779.539	553.98
779.721	609.27
779.903	584.7
780.085	650.23
780.267	664.57
780.449	592.89
780.631	635.89
780.812	592.89
780.994	582.65
781.176	664.57
781.358	576.5
781.54	535.54
781.721	599.03
781.903	586.74
782.085	517.11
782.267	472.06
782.448	515.06
782.63	515.06
782.812	494.58
782.993	590.84
783.175	553.98
783.357	521.21
783.538	445.43
783.72	420.86
783.901	492.54
784.083	459.77
784.264	543.74
784.446	478.2
784.627	484.34
784.809	470.01
784.99	496.63
785.172	435.19
785.353	517.11
785.535	447.48
785.716	566.26
785.897	453.63
786.079	390.14
786.26	474.1
786.441	494.58
786.623	422.91
786.804	463.86
786.985	451.58
787.167	373.75
787.348	433.15
787.529	429.05
787.71	420.86
787.891	390.14
788.073	388.09
788.254	467.96
788.435	431.1
788.616	463.86
788.797	465.91
788.978	388.09
789.159	355.32
789.34	412.67
789.522	302.08
789.703	396.28
789.884	359.42
790.065	375.8
790.246	433.15
790.427	394.23
790.607	467.96
790.788	404.47
790.969	275.45
791.15	439.29
791.331	326.65
791.512	338.94
791.693	373.75
791.874	373.75
792.054	363.51
792.235	386.04
792.416	277.5
792.597	373.75
792.778	336.89
792.958	381.95
793.139	398.33
793.32	347.13
793.5	359.42
793.681	371.71
793.862	334.84
794.042	359.42
794.223	263.16
794.404	207.87
794.584	328.7
794.765	330.75
794.945	269.31
795.126	357.37
795.306	363.51
795.487	269.31
795.667	287.74
795.848	330.75
796.028	349.18
796.209	410.62
796.389	404.47
796.57	357.37
796.75	211.96
796.93	279.55
797.111	254.97
797.291	312.32
797.471	332.79
797.652	328.7
797.832	314.36
798.012	287.74
798.192	238.59
798.373	267.26
798.553	328.7
798.733	302.08
798.913	250.88
799.093	314.36
799.274	267.26
799.454	246.78
799.634	306.17
799.814	312.32
799.994	209.92
800.174	267.26
800.354	244.73
800.534	222.2
800.714	254.97
800.894	240.64
801.074	207.87
801.254	304.12
801.434	304.12
801.614	273.4
801.794	185.34
801.974	732.15
802.154	207.87
802.334	273.4
802.514	261.12
802.693	232.44
802.873	175.1
803.053	214.01
803.233	279.55
803.413	228.35
803.592	175.1
803.772	158.72
803.952	191.49
804.131	271.36
804.311	216.06
804.491	218.11
804.67	242.68
804.85	205.82
805.03	250.88
805.209	275.45
805.389	181.25
805.568	222.2
805.748	164.86
805.928	318.46
806.107	244.73
806.287	246.78
806.466	197.63
806.646	148.48
806.825	218.11
807.004	214.01
807.184	193.53
807.363	205.82
807.543	205.82
807.722	195.58
807.901	183.29
808.081	209.92
808.26	156.67
808.439	236.54
808.619	209.92
808.798	254.97
808.977	207.87
809.156	240.64
809.336	207.87
809.515	195.58
809.694	209.92
809.873	158.72
810.052	240.64
810.231	289.79
810.411	175.1
810.59	173.05
810.769	160.77
810.948	267.26
811.127	230.4
811.306	156.67
811.485	191.49
811.664	238.59
811.843	193.53
812.022	207.87
812.201	185.34
812.38	199.68
812.559	93.18
812.737	142.33
812.916	140.29
813.095	189.44
813.274	111.61
813.453	189.44
813.632	142.33
813.811	166.91
813.989	140.29
814.168	156.67
814.347	175.1
814.526	103.42
814.704	189.44
814.883	193.53
815.062	140.29
815.24	148.48
815.419	216.06
815.598	134.14
815.776	158.72
815.955	160.77
816.133	58.37
816.312	134.14
816.49	173.05
816.669	128
816.847	115.71
817.026	230.4
817.204	154.62
817.383	136.19
817.561	175.1
817.74	209.92
817.918	164.86
818.097	168.96
818.275	152.57
818.453	140.29
818.632	140.29
818.81	91.13
818.988	201.72
819.167	160.77
819.345	138.24
819.523	70.65
819.701	125.95
819.879	101.37
820.058	119.81
820.236	189.44
820.414	183.29
820.592	150.53
820.77	115.71
820.948	136.19
821.127	74.75
821.305	234.49
821.483	25.6
821.661	142.33
821.839	84.99
822.017	117.76
822.195	111.61
822.373	91.13
822.551	125.95
822.729	224.25
822.907	87.04
823.085	136.19
823.262	101.37
823.44	140.29
823.618	103.42
823.796	89.09
823.974	91.13
824.152	111.61
824.329	70.65
824.507	103.42
824.685	154.62
824.863	74.75
825.04	115.71
825.218	113.66
825.396	107.52
825.574	93.18
825.751	128
825.929	156.67
826.107	97.28
826.284	76.8
826.462	140.29
826.639	87.04
826.817	74.75
826.994	91.13
827.172	-11.26
827.349	136.19
827.527	103.42
827.704	76.8
827.882	123.9
828.059	134.14
828.237	35.84
828.414	197.63
828.591	58.37
828.769	138.24
828.946	144.38
829.124	91.13
829.301	125.95
829.478	91.13
829.655	125.95
829.833	52.22
830.01	54.27
830.187	197.63
830.364	101.37
830.542	50.18
830.719	101.37
830.896	185.34
831.073	33.79
831.25	140.29
831.427	123.9
831.604	140.29
831.782	25.6
831.959	119.81
832.136	1.02
832.313	64.51
832.49	91.13
832.667	82.94
832.844	101.37
833.021	134.14
833.198	173.05
833.374	130.05
833.551	64.51
833.728	150.53
833.905	89.09
834.082	25.6
834.259	39.94
834.436	91.13
834.612	56.32
834.789	164.86
834.966	158.72
835.143	148.48
835.319	62.46
835.496	76.8
835.673	76.8
835.85	103.42
836.026	37.89
836.203	84.99
836.38	168.96
836.556	78.85
836.733	56.32
836.909	209.92
837.086	105.47
837.262	46.08
837.439	91.13
837.616	58.37
837.792	37.89
837.968	115.71
838.145	93.18
838.321	27.65
838.498	82.94
838.674	58.37
838.851	58.37
839.027	25.6
839.203	84.99
839.38	179.2
839.556	25.6
839.732	82.94
839.909	33.79
840.085	95.23
840.261	64.51
840.437	148.48
840.614	41.98
840.79	70.65
840.966	50.18
841.142	37.89
841.318	132.09
841.494	78.85
841.671	136.19
841.847	11.26
842.023	103.42
842.199	76.8
842.375	156.67
842.551	29.7
842.727	74.75
842.903	99.33
843.079	93.18
843.255	115.71
843.431	72.7
843.607	82.94
843.783	1.02
843.959	66.56
844.134	21.5
844.31	52.22
844.486	50.18
844.662	93.18
844.838	109.57
845.013	17.41
845.189	125.95
845.365	87.04
845.541	82.94
845.716	17.41
845.892	11.26
846.068	130.05
846.244	123.9
846.419	52.22
846.595	56.32
846.77	52.22
846.946	99.33
847.122	56.32
847.297	66.56
847.473	134.14
847.648	41.98
847.824	140.29
847.999	25.6
848.175	52.22
848.35	82.94
848.526	3.07
848.701	31.74
848.876	91.13
849.052	74.75
849.227	109.57
849.403	11.26
849.578	35.84
849.753	123.9
849.929	109.57
850.104	-35.84
850.279	50.18
850.454	9.22
850.63	41.98
850.805	52.22
850.98	52.22
851.155	33.79
851.33	70.65
851.505	62.46
851.681	125.95
851.856	58.37
852.031	58.37
852.206	78.85
852.381	35.84
852.556	91.13
852.731	134.14
852.906	91.13
853.081	87.04
853.256	35.84
853.431	41.98
853.606	11.26
853.781	91.13
853.956	15.36
854.131	19.46
854.305	50.18
854.48	27.65
854.655	15.36
854.83	68.61
855.005	74.75
855.18	58.37
855.354	54.27
855.529	68.61
855.704	58.37
855.879	91.13
856.053	99.33
856.228	23.55
856.403	3.07
856.577	1.02
856.752	103.42
856.926	80.89
857.101	11.26
857.276	-91.13
857.45	84.99
857.625	9.22
857.799	33.79
857.974	52.22
858.148	17.41
858.323	84.99
858.497	19.46
858.672	115.71
858.846	27.65
859.02	82.94
859.195	-29.7
859.369	13.31
859.543	21.5
859.718	91.13
859.892	37.89
860.066	13.31
860.241	35.84
860.415	58.37
860.589	-7.17
860.763	41.98
860.938	33.79
861.112	60.42
861.286	35.84
861.46	35.84
861.634	33.79
861.808	99.33
861.982	17.41
862.157	82.94
862.331	64.51
862.505	33.79
862.679	1.02
862.853	21.5
863.027	19.46
863.201	87.04
863.375	74.75
863.549	70.65
863.722	48.13
863.896	68.61
864.07	64.51
864.244	54.27
864.418	25.6
864.592	72.7
864.766	50.18
864.939	29.7
865.113	70.65
865.287	82.94
865.461	33.79
865.634	11.26
865.808	95.23
865.982	78.85
866.156	41.98
866.329	21.5
866.503	9.22
866.676	7.17
866.85	62.46
867.024	41.98
867.197	25.6
867.371	5.12
867.544	27.65
867.718	3.07
867.891	97.28
868.065	58.37
868.238	37.89
868.412	35.84
868.585	-17.41
868.759	33.79
868.932	-29.7
869.105	39.94
869.279	29.7
869.452	1.02
869.625	37.89
869.799	66.56
869.972	11.26
870.145	-23.55
870.319	13.31
870.492	-23.55
870.665	-5.12
870.838	91.13
871.011	3.07
871.185	27.65
871.358	25.6
871.531	80.89
871.704	-3.07
871.877	1.02
872.05	48.13
872.223	17.41
872.396	33.79
872.569	74.75
872.742	-56.32
872.915	52.22
873.088	68.61
873.261	1.02
873.434	-19.46
873.607	-19.46
873.78	25.6
873.953	-50.18
874.126	48.13
874.299	-23.55
874.471	-7.17
874.644	84.99
874.817	52.22
874.99	74.75
875.163	37.89
875.335	19.46
875.508	25.6
875.681	35.84
875.853	70.65
876.026	7.17
876.199	5.12
876.371	-39.94
876.544	46.08
876.717	9.22
876.889	46.08
877.062	19.46
877.234	-15.36
877.407	95.23
877.579	33.79
877.752	64.51
877.924	37.89
878.097	-72.7
878.269	29.7
878.442	29.7
878.614	17.41
878.786	33.79
878.959	11.26
879.131	66.56
879.303	5.12
879.476	35.84
879.648	97.28
879.82	9.22
879.993	-3.07
880.165	91.13
880.337	33.79
880.509	-3.07
880.681	68.61
880.854	9.22
881.026	66.56
881.198	74.75
881.37	-13.31
881.542	60.42
881.714	19.46
881.886	7.17
882.058	33.79
882.23	84.99
882.402	31.74
882.574	11.26
882.746	44.03
882.918	52.22
883.09	-25.6
883.262	21.5
883.434	46.08
883.606	5.12
883.778	46.08
883.95	76.8
884.122	68.61
884.293	58.37
884.465	87.04
884.637	99.33
884.809	21.5
884.98	29.7
885.152	66.56
885.324	7.17
885.496	25.6
885.667	-21.5
885.839	-21.5
886.011	-25.6
886.182	3.07
886.354	-3.07
886.525	-31.74
886.697	21.5
886.869	25.6
887.04	-31.74
887.212	23.55
887.383	62.46
887.555	41.98
887.726	74.75
887.897	50.18
888.069	66.56
888.24	21.5
888.412	17.41
888.583	13.31
888.754	87.04
888.926	-19.46
889.097	-62.46
889.268	66.56
889.44	21.5
889.611	15.36
889.782	5.12
889.953	58.37
890.125	89.09
890.296	-37.89
890.467	-29.7
890.638	9.22
890.809	-48.13
890.98	84.99
891.151	-31.74
891.323	115.71
891.494	70.65
891.665	68.61
891.836	3.07
892.007	-44.03
892.178	33.79
892.349	54.27
892.52	25.6
892.691	66.56
892.862	33.79
893.032	44.03
893.203	-19.46
893.374	-7.17
893.545	-13.31
893.716	13.31
893.887	39.94
894.057	91.13
894.228	62.46
894.399	-54.27
894.57	31.74
894.74	-11.26
894.911	60.42
895.082	9.22
895.253	33.79
895.423	-5.12
895.594	56.32
895.764	44.03
895.935	1.02
896.106	-15.36
896.276	99.33
896.447	9.22
896.617	-80.89
896.788	-13.31
896.958	-7.17
897.129	19.46
897.299	13.31
897.47	37.89
897.64	41.98
897.81	37.89
897.981	37.89
898.151	3.07
898.322	84.99
898.492	39.94
898.662	-35.84
898.832	54.27
899.003	-9.22
899.173	74.75
899.343	58.37
899.513	-31.74
