Data from USB4F104151__276__14-46-19-196.txt Node

Date: Thu Mar 13 14:46:19 EDT 2025
User: louis
Spectrometer: USB4F10415
Trigger mode: 4
Integration Time (sec): 2.000000E-2
Scans to average: 1
Electric dark correction enabled: true
Nonlinearity correction enabled: false
Boxcar width: 0
XAxis mode: Wavelengths
Number of Pixels in Spectrum: 3648
>>>>>Begin Spectral Data<<<<<
178.204	-65.71
178.424	-65.71
178.644	-65.71
178.864	-94.38
179.084	-139.43
179.304	48.98
179.524	-4.27
179.744	-8.36
179.964	-14.51
180.184	-37.03
180.404	-4.27
180.624	-37.03
180.844	-82.09
181.064	34.64
181.283	16.21
181.503	30.55
181.723	57.17
181.943	12.12
182.163	48.98
182.383	79.7
182.602	-39.08
182.822	36.69
183.042	69.46
183.262	-63.66
183.482	26.45
183.701	55.12
183.921	-2.22
184.141	-80.04
184.361	3.93
184.58	44.88
184.8	-26.79
185.02	12.12
185.239	110.42
185.459	48.98
185.679	44.88
185.898	-57.51
186.118	42.84
186.338	-20.65
186.557	-39.08
186.777	8.02
186.997	24.4
187.216	-0.17
187.436	-22.7
187.655	-14.51
187.875	34.64
188.095	42.84
188.314	34.64
188.534	10.07
188.753	16.21
188.973	1.88
189.192	20.31
189.412	36.69
189.631	32.6
189.851	-4.27
190.07	83.8
190.29	-0.17
190.509	36.69
190.729	53.08
190.948	-14.51
191.168	122.71
191.387	32.6
191.607	20.31
191.826	10.07
192.045	16.21
192.265	16.21
192.484	-14.51
192.704	57.17
192.923	-10.41
193.142	94.04
193.362	1.88
193.581	1.88
193.8	20.31
194.02	40.79
194.239	24.4
194.458	1.88
194.678	-16.55
194.897	32.6
195.116	40.79
195.335	-16.55
195.555	12.12
195.774	-4.27
195.993	22.36
196.212	10.07
196.432	-30.89
196.651	8.02
196.87	-16.55
197.089	98.13
197.308	20.31
197.528	53.08
197.747	28.5
197.966	32.6
198.185	40.79
198.404	32.6
198.623	20.31
198.842	48.98
199.062	38.74
199.281	75.6
199.5	28.5
199.719	-6.31
199.938	69.46
200.157	81.75
200.376	59.22
200.595	73.56
200.814	3.93
201.033	12.12
201.252	48.98
201.471	-22.7
201.69	36.69
201.909	36.69
202.128	-6.31
202.347	36.69
202.566	26.45
202.785	-0.17
203.004	24.4
203.223	48.98
203.442	-6.31
203.661	-0.17
203.879	-16.55
204.098	83.8
204.317	-0.17
204.536	81.75
204.755	28.5
204.974	16.21
205.193	18.26
205.411	98.13
205.63	-24.75
205.849	30.55
206.068	-30.89
206.287	55.12
206.505	44.88
206.724	24.4
206.943	42.84
207.162	-16.55
207.381	-49.32
207.599	34.64
207.818	-16.55
208.037	-6.31
208.255	-32.94
208.474	48.98
208.693	10.07
208.911	18.26
209.13	53.08
209.349	-14.51
209.567	-4.27
209.786	65.36
210.005	20.31
210.223	28.5
210.442	32.6
210.661	-55.47
210.879	24.4
211.098	24.4
211.316	71.51
211.535	124.76
211.753	48.98
211.972	1.88
212.191	-34.99
212.409	44.88
212.628	57.17
212.846	5.97
213.065	108.37
213.283	-24.75
213.502	24.4
213.72	59.22
213.938	48.98
214.157	16.21
214.375	-22.7
214.594	-8.36
214.812	12.12
215.031	26.45
215.249	28.5
215.467	-20.65
215.686	53.08
215.904	81.75
216.122	-80.04
216.341	106.32
216.559	83.8
216.778	8.02
216.996	26.45
217.214	20.31
217.432	-26.79
217.651	-24.75
217.869	-8.36
218.087	-98.47
218.306	36.69
218.524	85.84
218.742	10.07
218.96	-37.03
219.179	51.03
219.397	-6.31
219.615	98.13
219.833	-10.41
220.051	75.6
220.27	53.08
220.488	-14.51
220.706	-57.51
220.924	40.79
221.142	-24.75
221.36	32.6
221.578	102.23
221.796	-32.94
222.015	18.26
222.233	-49.32
222.451	114.52
222.669	55.12
222.887	10.07
223.105	-20.65
223.323	-8.36
223.541	-34.99
223.759	83.8
223.977	36.69
224.195	85.84
224.413	8.02
224.631	-0.17
224.849	18.26
225.067	26.45
225.285	-24.75
225.503	26.45
225.721	-53.42
225.939	16.21
226.157	-2.22
226.375	40.79
226.592	20.31
226.81	5.97
227.028	75.6
227.246	91.99
227.464	24.4
227.682	73.56
227.9	61.27
228.117	8.02
228.335	-28.84
228.553	24.4
228.771	57.17
228.989	-30.89
229.206	114.52
229.424	-32.94
229.642	32.6
229.86	-53.42
230.077	-18.6
230.295	61.27
230.513	65.36
230.731	-0.17
230.948	65.36
231.166	94.04
231.384	-4.27
231.601	3.93
231.819	36.69
232.037	-47.27
232.254	-24.75
232.472	-0.17
232.689	-41.13
232.907	-6.31
233.125	36.69
233.342	63.32
233.56	-4.27
233.777	-14.51
233.995	16.21
234.213	108.37
234.43	3.93
234.648	-41.13
234.865	10.07
235.083	-14.51
235.3	16.21
235.518	73.56
235.735	1.88
235.953	-22.7
236.17	-37.03
236.388	-37.03
236.605	-16.55
236.822	46.93
237.04	59.22
237.257	59.22
237.475	-12.46
237.692	-30.89
237.909	75.6
238.127	-14.51
238.344	-53.42
238.562	-6.31
238.779	-106.67
238.996	-86.19
239.214	8.02
239.431	40.79
239.648	-24.75
239.865	-41.13
240.083	40.79
240.3	55.12
240.517	3.93
240.735	24.4
240.952	77.65
241.169	16.21
241.386	67.41
241.603	-28.84
241.821	-47.27
242.038	89.94
242.255	-8.36
242.472	-16.55
242.689	12.12
242.907	67.41
243.124	61.27
243.341	34.64
243.558	-32.94
243.775	-28.84
243.992	-34.99
244.209	24.4
244.426	40.79
244.643	73.56
244.86	57.17
245.078	106.32
245.295	24.4
245.512	28.5
245.729	63.32
245.946	-16.55
246.163	-16.55
246.38	-30.89
246.597	34.64
246.814	-12.46
247.031	12.12
247.248	-12.46
247.464	16.21
247.681	36.69
247.898	77.65
248.115	16.21
248.332	-32.94
248.549	-14.51
248.766	71.51
248.983	57.17
249.2	83.8
249.417	51.03
249.633	79.7
249.85	32.6
250.067	16.21
250.284	8.02
250.501	32.6
250.717	40.79
250.934	5.97
251.151	-47.27
251.368	36.69
251.585	-8.36
251.801	32.6
252.018	-67.75
252.235	-43.18
252.451	-49.32
252.668	-32.94
252.885	-0.17
253.102	32.6
253.318	28.5
253.535	42.84
253.752	-14.51
253.968	8.02
254.185	-30.89
254.401	10.07
254.618	57.17
254.835	-12.46
255.051	57.17
255.268	18.26
255.484	40.79
255.701	32.6
255.917	36.69
256.134	28.5
256.351	89.94
256.567	16.21
256.784	61.27
257	-8.36
257.217	40.79
257.433	-16.55
257.65	-34.99
257.866	5.97
258.082	16.21
258.299	51.03
258.515	81.75
258.732	-12.46
258.948	-4.27
259.165	22.36
259.381	32.6
259.597	26.45
259.814	-6.31
260.03	42.84
260.246	-8.36
260.463	112.47
260.679	20.31
260.895	18.26
261.112	46.93
261.328	22.36
261.544	-16.55
261.761	55.12
261.977	26.45
262.193	3.93
262.409	30.55
262.626	-0.17
262.842	20.31
263.058	-20.65
263.274	67.41
263.49	-45.23
263.707	55.12
263.923	-0.17
264.139	-6.31
264.355	10.07
264.571	42.84
264.787	32.6
265.004	34.64
265.22	20.31
265.436	-96.43
265.652	-22.7
265.868	42.84
266.084	-63.66
266.3	8.02
266.516	26.45
266.732	59.22
266.948	24.4
267.164	18.26
267.38	-2.22
267.596	-16.55
267.812	114.52
268.028	55.12
268.244	-8.36
268.46	48.98
268.676	42.84
268.892	63.32
269.108	-37.03
269.324	57.17
269.54	34.64
269.756	32.6
269.972	-30.89
270.188	22.36
270.403	53.08
270.619	40.79
270.835	81.75
271.051	34.64
271.267	48.98
271.483	-10.41
271.698	81.75
271.914	75.6
272.13	28.5
272.346	-20.65
272.562	1.88
272.777	65.36
272.993	40.79
273.209	-61.61
273.425	40.79
273.64	-61.61
273.856	-2.22
274.072	8.02
274.287	-37.03
274.503	81.75
274.719	126.8
274.934	28.5
275.15	18.26
275.366	36.69
275.581	-37.03
275.797	40.79
276.012	24.4
276.228	20.31
276.444	34.64
276.659	28.5
276.875	34.64
277.09	40.79
277.306	-6.31
277.521	-12.46
277.737	-26.79
277.952	51.03
278.168	26.45
278.383	89.94
278.599	-108.71
278.814	-8.36
279.03	-12.46
279.245	63.32
279.461	8.02
279.676	48.98
279.892	-37.03
280.107	12.12
280.322	48.98
280.538	-14.51
280.753	-0.17
280.969	22.36
281.184	-14.51
281.399	10.07
281.615	18.26
281.83	42.84
282.045	-47.27
282.26	8.02
282.476	30.55
282.691	89.94
282.906	44.88
283.122	3.93
283.337	-0.17
283.552	124.76
283.767	14.17
283.983	48.98
284.198	28.5
284.413	-24.75
284.628	1.88
284.843	-41.13
285.058	22.36
285.274	32.6
285.489	-22.7
285.704	-6.31
285.919	-24.75
286.134	28.5
286.349	-8.36
286.564	36.69
286.779	42.84
286.995	-12.46
287.21	-16.55
287.425	-24.75
287.64	-75.95
287.855	24.4
288.07	-32.94
288.285	40.79
288.5	42.84
288.715	28.5
288.93	8.02
289.145	3.93
289.36	-24.75
289.575	57.17
289.79	18.26
290.004	48.98
290.219	-16.55
290.434	12.12
290.649	-10.41
290.864	16.21
291.079	36.69
291.294	8.02
291.509	42.84
291.724	42.84
291.938	-0.17
292.153	42.84
292.368	-16.55
292.583	48.98
292.798	65.36
293.012	-24.75
293.227	40.79
293.442	8.02
293.657	16.21
293.871	79.7
294.086	-39.08
294.301	81.75
294.516	44.88
294.73	34.64
294.945	59.22
295.16	40.79
295.374	16.21
295.589	28.5
295.804	65.36
296.018	42.84
296.233	-4.27
296.447	83.8
296.662	81.75
296.877	26.45
297.091	55.12
297.306	-49.32
297.52	34.64
297.735	124.76
297.949	53.08
298.164	-16.55
298.378	20.31
298.593	-12.46
298.807	81.75
299.022	-24.75
299.236	16.21
299.451	-55.47
299.665	77.65
299.88	16.21
300.094	24.4
300.309	69.46
300.523	26.45
300.737	-0.17
300.952	57.17
301.166	71.51
301.381	34.64
301.595	-0.17
301.809	10.07
302.024	12.12
302.238	-16.55
302.452	32.6
302.667	20.31
302.881	114.52
303.095	81.75
303.309	8.02
303.524	24.4
303.738	51.03
303.952	61.27
304.166	30.55
304.381	-39.08
304.595	67.41
304.809	34.64
305.023	38.74
305.237	-82.09
305.452	-6.31
305.666	48.98
305.88	106.32
306.094	55.12
306.308	34.64
306.522	32.6
306.736	12.12
306.95	18.26
307.164	-18.6
307.379	-18.6
307.593	8.02
307.807	42.84
308.021	81.75
308.235	85.84
308.449	44.88
308.663	24.4
308.877	106.32
309.091	28.5
309.305	-0.17
309.519	-28.84
309.733	24.4
309.947	-22.7
310.161	26.45
310.374	65.36
310.588	24.4
310.802	-24.75
311.016	57.17
311.23	77.65
311.444	69.46
311.658	63.32
311.872	65.36
312.085	100.18
312.299	32.6
312.513	48.98
312.727	59.22
312.941	-22.7
313.154	-16.55
313.368	96.08
313.582	24.4
313.796	34.64
314.009	81.75
314.223	69.46
314.437	73.56
314.651	-10.41
314.864	24.4
315.078	12.12
315.292	26.45
315.505	-28.84
315.719	42.84
315.933	16.21
316.146	44.88
316.36	10.07
316.573	18.26
316.787	51.03
317.001	-6.31
317.214	61.27
317.428	57.17
317.641	61.27
317.855	-0.17
318.068	44.88
318.282	44.88
318.495	79.7
318.709	57.17
318.922	61.27
319.136	59.22
319.349	40.79
319.563	-47.27
319.776	34.64
319.99	-57.51
320.203	26.45
320.417	-16.55
320.63	48.98
320.843	24.4
321.057	40.79
321.27	-49.32
321.483	24.4
321.697	89.94
321.91	3.93
322.124	48.98
322.337	-16.55
322.55	-49.32
322.763	40.79
322.977	48.98
323.19	24.4
323.403	20.31
323.617	106.32
323.83	-4.27
324.043	-24.75
324.256	14.17
324.469	36.69
324.683	67.41
324.896	40.79
325.109	-37.03
325.322	28.5
325.535	69.46
325.748	8.02
325.962	-16.55
326.175	44.88
326.388	-0.17
326.601	-41.13
326.814	-0.17
327.027	-18.6
327.24	40.79
327.453	3.93
327.666	69.46
327.879	3.93
328.092	-24.75
328.305	42.84
328.518	-22.7
328.731	32.6
328.944	26.45
329.157	51.03
329.37	24.4
329.583	81.75
329.796	81.75
330.009	-53.42
330.222	69.46
330.435	69.46
330.648	36.69
330.861	24.4
331.073	-41.13
331.286	94.04
331.499	57.17
331.712	57.17
331.925	73.56
332.138	3.93
332.35	73.56
332.563	-4.27
332.776	42.84
332.989	59.22
333.202	-47.27
333.414	-16.55
333.627	-20.65
333.84	18.26
334.053	-20.65
334.265	-4.27
334.478	65.36
334.691	-32.94
334.903	8.02
335.116	-20.65
335.329	48.98
335.541	26.45
335.754	34.64
335.966	75.6
336.179	12.12
336.392	-20.65
336.604	-16.55
336.817	32.6
337.029	18.26
337.242	-39.08
337.454	-6.31
337.667	-32.94
337.88	108.37
338.092	-12.46
338.305	24.4
338.517	-0.17
338.729	38.74
338.942	57.17
339.154	40.79
339.367	53.08
339.579	24.4
339.792	-28.84
340.004	-8.36
340.217	28.5
340.429	-8.36
340.641	8.02
340.854	26.45
341.066	-6.31
341.278	110.42
341.491	18.26
341.703	48.98
341.915	-49.32
342.128	32.6
342.34	3.93
342.552	65.36
342.764	-8.36
342.977	30.55
343.189	91.99
343.401	57.17
343.613	10.07
343.826	12.12
344.038	-61.61
344.25	-24.75
344.462	20.31
344.674	-0.17
344.886	46.93
345.099	-4.27
345.311	8.02
345.523	26.45
345.735	-51.37
345.947	28.5
346.159	40.79
346.371	-4.27
346.583	57.17
346.795	147.28
347.007	-16.55
347.219	130.9
347.431	57.17
347.643	59.22
347.855	-6.31
348.067	106.32
348.279	34.64
348.491	-6.31
348.703	44.88
348.915	32.6
349.127	-28.84
349.339	8.02
349.551	-20.65
349.763	61.27
349.975	-20.65
350.187	32.6
350.399	44.88
350.61	89.94
350.822	42.84
351.034	36.69
351.246	-0.17
351.458	18.26
351.669	87.89
351.881	73.56
352.093	85.84
352.305	26.45
352.517	-22.7
352.728	53.08
352.94	83.8
353.152	61.27
353.363	20.31
353.575	-6.31
353.787	40.79
353.999	-4.27
354.21	100.18
354.422	8.02
354.633	53.08
354.845	-0.17
355.057	8.02
355.268	59.22
355.48	145.24
355.692	26.45
355.903	36.69
356.115	8.02
356.326	-4.27
356.538	-24.75
356.749	65.36
356.961	73.56
357.172	20.31
357.384	-10.41
357.595	69.46
357.807	65.36
358.018	79.7
358.23	44.88
358.441	102.23
358.653	89.94
358.864	-47.27
359.075	44.88
359.287	40.79
359.498	102.23
359.709	40.79
359.921	73.56
360.132	89.94
360.344	20.31
360.555	18.26
360.766	51.03
360.977	98.13
361.189	16.21
361.4	57.17
361.611	108.37
361.823	91.99
362.034	36.69
362.245	-47.27
362.456	-12.46
362.667	65.36
362.879	12.12
363.09	-34.99
363.301	28.5
363.512	40.79
363.723	32.6
363.935	61.27
364.146	57.17
364.357	18.26
364.568	18.26
364.779	-24.75
364.99	51.03
365.201	32.6
365.412	57.17
365.623	71.51
365.834	-28.84
366.045	34.64
366.256	53.08
366.467	85.84
366.678	30.55
366.889	-0.17
367.1	24.4
367.311	116.56
367.522	48.98
367.733	53.08
367.944	51.03
368.155	30.55
368.366	-14.51
368.577	42.84
368.788	12.12
368.999	51.03
369.209	85.84
369.42	73.56
369.631	110.42
369.842	48.98
370.053	38.74
370.264	-71.85
370.474	26.45
370.685	75.6
370.896	-0.17
371.107	-4.27
371.317	102.23
371.528	53.08
371.739	10.07
371.95	16.21
372.16	32.6
372.371	42.84
372.582	-37.03
372.792	48.98
373.003	81.75
373.214	3.93
373.424	94.04
373.635	34.64
373.846	73.56
374.056	16.21
374.267	40.79
374.477	48.98
374.688	44.88
374.898	44.88
375.109	32.6
375.319	32.6
375.53	163.67
375.74	106.32
375.951	106.32
376.161	100.18
376.372	1.88
376.582	48.98
376.793	14.17
377.003	16.21
377.214	3.93
377.424	-24.75
377.635	24.4
377.845	14.17
378.055	26.45
378.266	-82.09
378.476	-12.46
378.686	12.12
378.897	12.12
379.107	32.6
379.317	83.8
379.528	67.41
379.738	32.6
379.948	1.88
380.158	67.41
380.369	48.98
380.579	75.6
380.789	30.55
380.999	79.7
381.21	65.36
381.42	155.47
381.63	-82.09
381.84	40.79
382.05	-41.13
382.261	75.6
382.471	28.5
382.681	32.6
382.891	34.64
383.101	132.95
383.311	28.5
383.521	46.93
383.731	135
383.941	10.07
384.151	61.27
384.361	-88.23
384.571	42.84
384.781	73.56
384.991	61.27
385.201	65.36
385.411	81.75
385.621	48.98
385.831	77.65
386.041	32.6
386.251	75.6
386.461	91.99
386.671	32.6
386.881	26.45
387.091	8.02
387.301	36.69
387.511	69.46
387.72	55.12
387.93	8.02
388.14	3.93
388.35	8.02
388.56	42.84
388.769	8.02
388.979	-8.36
389.189	-8.36
389.399	67.41
389.609	102.23
389.818	112.47
390.028	73.56
390.238	96.08
390.447	-8.36
390.657	12.12
390.867	3.93
391.076	24.4
391.286	22.36
391.496	1.88
391.705	-24.75
391.915	106.32
392.125	24.4
392.334	98.13
392.544	81.75
392.753	61.27
392.963	8.02
393.172	51.03
393.382	-12.46
393.591	44.88
393.801	-2.22
394.01	75.6
394.22	65.36
394.429	44.88
394.639	42.84
394.848	32.6
395.058	63.32
395.267	89.94
395.477	89.94
395.686	1.88
395.895	67.41
396.105	137.04
396.314	10.07
396.524	81.75
396.733	1.88
396.942	89.94
397.152	128.85
397.361	157.52
397.57	40.79
397.78	89.94
397.989	81.75
398.198	98.13
398.407	53.08
398.617	51.03
398.826	122.71
399.035	73.56
399.244	89.94
399.453	48.98
399.663	57.17
399.872	67.41
400.081	57.17
400.29	89.94
400.499	71.51
400.708	91.99
400.917	32.6
401.127	85.84
401.336	73.56
401.545	155.47
401.754	116.56
401.963	81.75
402.172	61.27
402.381	108.37
402.59	75.6
402.799	94.04
403.008	116.56
403.217	79.7
403.426	83.8
403.635	67.41
403.844	126.8
404.053	67.41
404.262	87.89
404.471	221.01
404.68	73.56
404.888	190.29
405.097	128.85
405.306	114.52
405.515	98.13
405.724	167.76
405.933	163.67
406.142	83.8
406.35	200.53
406.559	200.53
406.768	163.67
406.977	212.82
407.185	106.32
407.394	192.34
407.603	184.15
407.812	159.57
408.02	200.53
408.229	225.11
408.438	38.74
408.646	155.47
408.855	85.84
409.064	239.44
409.272	259.92
409.481	198.48
409.69	139.09
409.898	194.39
410.107	286.54
410.315	208.72
410.524	196.43
410.733	302.93
410.941	237.39
411.15	288.59
411.358	360.27
411.567	347.98
411.775	296.78
411.984	311.12
412.192	356.18
412.401	304.98
412.609	376.66
412.818	341.84
413.026	442.19
413.234	421.71
413.443	382.8
413.651	450.38
413.86	450.38
414.068	493.39
414.276	503.63
414.485	442.19
414.693	479.05
414.901	565.07
415.11	634.7
415.318	569.16
415.526	542.54
415.734	575.31
415.943	546.64
416.151	694.09
416.359	659.28
416.567	704.33
416.776	743.24
416.984	671.56
417.192	917.32
417.4	714.57
417.608	671.56
417.817	757.58
418.025	943.94
418.233	999.24
418.441	882.5
418.649	986.95
418.857	1001.29
419.065	1003.33
419.273	997.19
419.481	1042.25
419.689	1052.49
419.897	1161.03
420.105	1089.35
420.313	1161.03
420.521	1238.85
420.729	1298.24
420.937	1279.81
421.145	1417.02
421.353	1410.88
421.561	1527.61
421.769	1486.65
421.977	1642.3
422.185	1683.26
422.393	1736.51
422.601	1867.58
422.809	1754.94
423.017	1703.74
423.224	1861.43
423.432	1902.39
423.64	2039.61
423.848	2033.46
424.056	2166.58
424.263	2336.56
424.471	2242.36
424.679	2295.6
424.887	2369.33
425.094	2430.77
425.302	2598.7
425.51	2715.44
425.718	2658.09
425.925	2629.42
426.133	2711.34
426.341	2823.98
426.548	3063.59
426.756	3010.34
426.964	2971.43
427.171	3280.68
427.379	3335.97
427.586	3471.14
427.794	3665.69
428.001	3637.02
428.209	3841.82
428.417	3796.76
428.624	4128.53
428.832	4026.14
429.039	4005.66
429.247	3964.7
429.454	4458.26
429.662	4570.9
429.869	4450.07
430.076	4579.09
430.284	4407.06
430.491	4777.74
430.699	4955.91
430.906	5025.54
431.114	5242.63
431.321	5250.82
431.528	5537.54
431.736	5758.72
431.943	6037.24
432.15	5687.04
432.358	5906.17
432.565	6137.59
432.772	6233.85
432.979	6629.1
433.187	6571.76
433.394	6604.53
433.601	7196.39
433.808	7012.07
434.016	7214.82
434.223	7450.34
434.43	7968.48
434.637	7651.04
434.844	8095.45
435.052	8287.96
435.259	8197.85
435.466	8208.09
435.673	8210.14
435.88	8791.76
436.087	9084.62
436.294	9191.11
436.501	9027.28
436.708	9068.23
436.915	9357
437.122	9864.89
437.329	9776.83
437.537	10352.31
437.743	10317.5
437.95	10184.38
438.157	10837.68
438.364	11173.55
438.571	11126.44
438.778	11386.54
438.985	12295.83
439.192	11771.55
439.399	12189.34
439.606	11523.75
439.813	12613.27
440.02	13260.43
440.227	13207.18
440.433	12697.24
440.64	13338.25
440.847	13067.92
441.054	13565.57
441.261	14612.09
441.467	14288.51
441.674	14732.92
441.881	15398.51
442.088	15228.52
442.294	14976.62
442.501	15353.45
442.708	15656.55
442.914	16383.58
443.121	17133.14
443.328	16506.46
443.534	17587.78
443.741	17331.79
443.948	17045.07
444.154	18241.09
444.361	18185.79
444.568	18304.57
444.774	18251.33
444.981	18452.03
445.187	19201.58
445.394	20114.98
445.6	19717.67
445.807	21478.93
446.013	20635.16
446.22	20960.79
446.426	21714.44
446.633	22031.88
446.839	22773.24
447.046	21646.86
447.252	23242.23
447.459	23109.11
447.665	23176.69
447.871	23776.75
448.078	25290.2
448.284	24198.63
448.491	24391.14
448.697	25423.31
448.903	26244.55
449.11	25898.44
449.316	25894.35
449.522	26666.43
449.728	26830.27
449.935	27133.37
450.141	26922.43
450.347	28011.95
450.553	26914.23
450.76	26922.43
450.966	28419.49
451.172	27801.01
451.378	28728.73
451.584	28409.25
451.791	28949.92
451.997	28947.87
452.203	29351.32
452.409	29379.99
452.615	29232.54
452.821	28212.65
453.027	27932.08
453.233	29613.46
453.44	28249.51
453.646	28253.61
453.852	28462.5
454.058	29060.51
454.264	28415.4
454.47	29146.52
454.676	28143.02
454.882	29429.14
455.088	26781.12
455.294	26967.48
455.5	27321.78
455.705	27819.44
455.911	26502.59
456.117	26420.67
456.323	26103.24
456.529	24870.36
456.735	25724.36
456.941	25034.2
457.147	24559.07
457.352	23989.74
457.558	23494.13
457.764	23954.92
457.97	23516.65
458.176	23019
458.381	22828.54
458.587	21351.95
458.793	21839.37
458.999	20739.61
459.204	22070.79
459.41	21616.14
459.616	20137.51
459.821	20276.77
460.027	20096.55
460.233	19637.8
460.438	18667.06
460.644	18878.01
460.85	17956.42
461.055	17831.49
461.261	17956.42
461.466	16836.18
461.672	15914.59
461.878	17151.57
462.083	15976.03
462.289	15799.91
462.494	15435.37
462.7	14868.08
462.905	14632.57
463.111	15038.06
463.316	15191.66
463.522	14835.31
463.727	14993.01
463.932	14651
464.138	14491.26
464.343	14747.25
464.549	14196.35
464.754	14704.24
464.959	14665.33
465.165	14632.57
465.37	14036.61
465.575	13631.11
465.781	14100.09
465.986	14253.69
466.191	13786.75
466.397	13313.67
466.602	12816.02
466.807	13135.5
467.012	13383.31
467.218	13057.68
467.423	13035.15
467.628	13098.64
467.833	13485.7
468.038	13221.52
468.244	12809.87
468.449	13457.03
468.654	12930.7
468.859	12914.32
469.064	12764.82
469.269	12029.6
469.474	12422.81
469.679	12682.9
469.885	12191.39
470.09	12490.39
470.295	12371.61
470.5	11957.92
470.705	12107.42
470.91	11974.3
471.115	11685.54
471.32	11867.81
471.525	11845.28
471.73	11581.09
471.935	11509.41
472.139	11151.02
472.344	11382.44
472.549	11345.58
472.754	11245.23
472.959	10935.98
473.164	10845.87
473.369	10591.92
473.574	10903.21
473.778	10608.31
473.983	10538.68
474.188	10626.74
474.393	10286.78
474.598	10286.78
474.802	10307.26
475.007	10149.56
475.212	10043.07
475.417	9615.04
475.621	9764.54
475.826	9817.79
476.031	9627.33
476.235	9221.83
476.44	9596.61
476.645	9223.88
476.849	9416.39
477.054	9252.55
477.259	9176.78
477.463	9189.07
477.668	8951.5
477.872	9037.52
478.077	8840.91
478.282	8728.27
478.486	8818.38
478.691	8421.08
478.895	8431.32
479.1	8619.73
479.304	8492.76
479.509	8169.18
479.713	8478.42
479.918	8154.84
480.122	8093.4
480.326	8285.91
480.531	8371.93
480.735	8259.29
480.94	8052.44
481.144	8146.65
481.348	7986.91
481.553	8081.11
481.757	7888.6
481.961	8013.53
482.166	8021.72
482.37	7915.23
482.574	8068.83
482.778	7923.42
482.983	8070.87
483.187	7958.24
483.391	8019.67
483.595	7886.56
483.8	7960.28
484.004	7900.89
484.208	7929.56
484.412	7941.85
484.616	7859.93
484.821	8060.63
485.025	7636.7
485.229	7999.2
485.433	7599.84
485.637	8007.39
485.841	7855.84
486.045	7888.6
486.249	8001.24
486.453	7751.39
486.657	7812.83
486.861	7929.56
487.065	7712.48
487.269	7939.8
487.473	7866.08
487.677	7782.11
487.881	8191.7
488.085	8070.87
488.289	7874.27
488.493	7886.56
488.697	8128.22
488.901	7988.96
489.105	8142.55
489.309	8183.51
489.512	8273.62
489.716	8077.02
489.92	8154.84
490.124	8036.06
490.328	8097.5
490.531	8203.99
490.735	8195.8
490.939	8195.8
491.143	8126.17
491.346	8154.84
491.55	8347.35
491.754	8253.14
491.958	8441.56
492.161	8511.19
492.365	8474.32
492.569	8513.24
492.772	8498.9
492.976	8713.94
493.18	8625.87
493.383	8752.85
493.587	8808.14
493.79	8863.44
493.994	8629.97
494.197	8810.19
494.401	8904.4
494.605	8857.29
494.808	9166.54
495.012	9166.54
495.215	9164.49
495.419	9297.61
495.622	9244.36
495.825	9391.81
496.029	9461.44
496.232	9557.7
496.436	9588.42
496.639	9897.66
496.843	9791.17
497.046	9936.57
497.249	10239.67
497.453	10172.09
497.656	10440.37
497.859	10219.19
498.063	10591.92
498.266	10839.73
498.469	10585.78
498.673	10727.09
498.876	10817.2
499.079	11097.77
499.282	11138.73
499.485	11503.27
499.689	11431.59
499.892	11726.5
500.095	11648.68
500.298	11871.9
500.501	11814.56
500.705	12242.59
500.908	12152.48
501.111	12338.84
501.314	12709.52
501.517	12691.09
501.72	12779.15
501.923	12650.13
502.126	12949.14
502.329	13276.81
502.532	13428.36
502.735	13766.28
502.938	13604.49
503.141	13991.55
503.344	14237.31
503.547	13954.69
503.75	14499.45
503.953	14642.81
504.156	14941.81
504.359	14956.15
504.562	14833.27
504.765	15330.92
504.968	15488.62
505.17	15693.41
505.373	15799.91
505.576	16186.97
505.779	16229.98
505.982	16199.26
506.185	16731.73
506.387	16856.66
506.59	16903.76
506.793	17137.23
506.996	17247.82
507.198	17546.83
507.401	17440.33
507.604	18017.86
507.807	18189.89
508.009	18280
508.212	18449.98
508.415	18869.81
508.617	19029.55
508.82	19205.68
509.022	19058.23
509.225	19705.38
509.428	19766.82
509.63	19709.48
509.833	19885.61
510.035	20655.64
510.238	20563.48
510.44	21050.9
510.643	21038.61
510.845	21298.7
511.048	21364.24
511.25	21573.13
511.453	21718.54
511.655	22590.97
511.858	22259.2
512.06	22334.98
512.262	23047.67
512.465	22932.98
512.667	23313.91
512.87	23461.36
513.072	23735.79
513.274	23893.48
513.477	24126.95
513.679	24460.77
513.881	24628.7
514.084	25208.28
514.286	24983
514.488	25810.38
514.69	25959.88
514.893	26142.15
515.095	25929.16
515.297	26156.49
515.499	26392
515.701	26807.74
515.904	27317.68
516.106	27643.31
516.308	27262.39
516.51	28007.85
516.712	27798.96
516.914	28403.11
517.116	28622.24
517.318	28831.13
517.52	28931.48
517.722	29232.54
517.925	29986.19
518.127	30068.11
518.329	30195.08
518.531	30178.7
518.733	30563.71
518.935	31184.25
519.136	31202.68
519.338	31520.12
519.54	31561.08
519.742	31782.26
519.944	32021.87
520.146	32542.05
520.348	32623.97
520.55	33082.72
520.752	32771.43
520.954	33475.93
521.155	33240.41
521.357	34032.97
521.559	34000.21
521.761	34643.27
521.963	34391.37
522.164	34946.37
522.366	34551.11
522.568	35136.83
522.77	35523.9
522.971	35562.81
523.173	35818.8
523.375	35982.64
523.576	36126
523.778	36285.74
523.98	36574.5
524.181	36666.66
524.383	36910.37
524.584	37485.85
524.786	37381.4
524.988	37375.26
525.189	37557.53
525.391	38268.17
525.592	37909.78
525.794	38321.42
525.995	38309.13
526.197	38673.67
526.398	38589.7
526.6	38915.33
526.801	39101.7
527.003	39316.73
527.204	39343.36
527.406	39384.32
527.607	39580.92
527.808	40029.43
528.01	39185.66
528.211	39732.47
528.412	40301.81
528.614	39967.99
528.815	40654.06
529.016	40664.3
529.218	40015.09
529.419	40289.52
529.62	40377.58
529.822	40414.44
530.023	40330.48
530.224	40809.7
530.425	40740.07
530.626	40316.14
530.828	40008.95
531.029	41247.97
531.23	40547.56
531.431	40924.39
531.632	41254.11
531.833	41065.7
532.035	40826.09
532.236	41028.84
532.437	41563.36
532.638	41018.6
532.839	41514.2
533.04	41731.29
533.241	41153.76
533.442	41546.97
533.643	41223.39
533.844	41741.53
534.045	41295.07
534.246	41141.47
534.447	41727.19
534.648	41090.27
534.849	41567.45
535.05	41618.65
535.251	41323.74
535.451	41037.03
535.652	41618.65
535.853	41608.41
536.054	41972.95
536.255	41280.74
536.456	41796.82
536.657	42099.92
536.857	41776.34
537.058	41247.97
537.259	41692.38
537.46	41739.48
537.66	41571.55
537.861	41954.52
538.062	41432.29
538.263	42026.2
538.463	41600.22
538.664	41643.23
538.865	41802.97
539.065	41798.87
539.266	41280.74
539.466	41985.24
539.667	40940.77
539.868	42071.25
540.068	41268.45
540.269	41276.64
540.469	41866.45
540.67	41516.25
540.87	41809.11
541.071	41333.98
541.271	41725.14
541.472	41899.22
541.672	41512.16
541.873	41501.92
542.073	41149.67
542.274	41983.19
542.474	41438.43
542.675	41276.64
542.875	41698.52
543.075	41776.34
543.276	41114.85
543.476	41997.52
543.676	41219.3
543.877	41630.94
544.077	41471.2
544.277	41108.71
544.478	41813.21
544.678	41725.14
544.878	41596.12
545.078	41467.1
545.279	41454.81
545.479	41086.18
545.679	41485.53
545.879	41340.13
546.079	41104.61
546.28	41219.3
546.48	41405.66
546.68	41225.44
546.88	41692.38
547.08	41510.11
547.28	41356.51
547.48	41028.84
547.68	41168.1
547.88	40998.12
548.081	41432.29
548.281	41288.93
548.481	41094.37
548.681	41692.38
548.881	41235.68
549.081	41022.69
549.28	40996.07
549.48	41559.26
549.68	41153.76
549.88	41682.14
550.08	41139.43
550.28	41108.71
550.48	41295.07
550.68	41571.55
550.88	41250.02
551.08	41252.06
551.279	41446.62
551.479	41069.79
551.679	40826.09
551.879	40711.4
552.079	41391.33
552.278	40785.13
552.478	41231.58
552.678	41149.67
552.878	40944.87
553.077	40897.77
553.277	40707.3
553.477	41432.29
553.676	40830.18
553.876	40940.77
554.076	40824.04
554.275	40746.22
554.475	40307.95
554.674	41026.79
554.874	40672.49
555.074	40598.76
555.273	40948.96
555.473	40746.22
555.672	40725.74
555.872	40647.91
556.071	40619.24
556.271	40865
556.47	40432.88
556.67	40461.55
556.869	40221.94
557.068	40533.23
557.268	40054
557.467	40340.72
557.667	40731.88
557.866	40477.93
558.065	40201.46
558.265	40072.43
558.464	39959.8
558.663	40889.57
558.863	40031.47
559.062	40494.32
559.261	39924.98
559.461	40121.59
559.66	39834.87
559.859	39752.95
560.058	39544.06
560.258	39775.48
560.457	39464.19
560.656	39556.35
560.855	39623.93
561.054	39711.99
561.253	39343.36
561.453	39619.83
561.652	39613.69
561.851	39640.31
562.05	39265.53
562.249	38944
562.448	39458.04
562.647	39195.9
562.846	39181.57
563.045	39222.53
563.244	38550.79
563.443	39302.4
563.642	38561.03
563.841	39187.71
564.04	38964.48
564.239	39218.43
564.438	38608.14
564.637	38577.42
564.836	38587.66
565.035	38212.88
565.234	38556.94
565.432	38180.11
565.631	38386.96
565.83	38563.08
566.029	38432.01
566.228	38438.15
566.427	38356.24
566.625	37747.99
566.824	37885.2
567.023	37952.79
567.222	37295.39
567.42	38112.53
567.619	37696.79
567.818	37487.9
568.016	37807.38
568.215	37958.93
568.414	38081.81
568.612	37612.82
568.811	37432.6
569.01	37446.94
569.208	36969.76
569.407	37002.53
569.605	37025.06
569.804	37170.46
570.002	36877.6
570.201	36918.56
570.4	36785.44
570.598	36494.63
570.797	36023.6
570.995	36715.81
571.193	36447.53
571.392	37168.41
571.59	36224.3
571.789	36101.42
571.987	36416.81
572.186	35738.93
572.384	35884.34
572.582	36134.19
572.781	35773.75
572.979	35831.09
573.177	35564.85
573.376	35659.06
573.574	35597.62
573.772	35413.3
573.971	35343.67
574.169	35091.77
574.367	34956.61
574.565	35554.61
574.763	34925.89
574.962	34805.06
575.16	34524.49
575.358	34706.76
575.556	34565.45
575.754	34942.27
575.952	34659.65
576.151	35173.69
576.349	34020.69
576.547	34733.38
576.745	34465.1
576.943	34454.86
577.141	34254.15
577.339	34067.79
577.537	33963.34
577.735	34026.83
577.933	33637.72
578.131	33756.5
578.329	33738.07
578.527	33293.66
578.725	33750.35
578.923	33721.68
579.121	33295.71
579.319	32953.69
579.516	33471.83
579.714	33095
579.912	33090.91
580.11	33115.48
580.308	33052
580.506	32847.2
580.704	31790.45
580.901	32431.46
581.099	32771.43
581.297	32353.64
581.495	32288.1
581.692	32181.61
581.89	32197.99
582.088	32359.78
582.285	32056.68
582.483	32103.79
582.681	31921.52
582.878	31937.9
583.076	31348.09
583.274	31739.25
583.471	31337.85
583.669	31473.01
583.866	31638.9
584.064	31270.26
584.262	31366.52
584.459	31118.71
584.657	30791.04
584.854	31083.9
585.052	30598.53
585.249	30674.31
585.447	30717.31
585.644	30530.95
585.841	30487.94
586.039	30832
586.236	30035.34
586.434	30377.35
586.631	30094.73
586.828	30125.45
587.026	30207.37
587.223	30094.73
587.42	29863.31
587.618	29808.01
587.815	29406.61
588.012	29744.53
588.21	29541.78
588.407	29846.93
588.604	29449.62
588.801	29101.47
588.999	29132.18
589.196	29420.95
589.393	29158.81
589.59	29201.82
589.787	28525.99
589.984	28599.71
590.182	28603.81
590.379	28644.77
590.576	28620.19
590.773	28532.13
590.97	28130.73
591.167	28274.09
591.364	28057
591.561	28315.05
591.758	27913.64
591.955	28030.38
592.152	27835.82
592.349	27680.17
592.546	27719.09
592.743	27542.96
592.94	27385.27
593.137	27676.08
593.334	27639.22
593.531	27235.77
593.727	27557.3
593.924	26940.86
594.121	27129.27
594.318	27235.77
594.515	27039.16
594.712	27090.36
594.908	27116.98
595.105	26838.46
595.302	26461.63
595.499	26729.92
595.696	26590.66
595.892	26398.15
596.089	26432.96
596.286	26367.43
596.482	25986.5
596.679	25947.59
596.876	26187.21
597.072	25970.12
597.269	25783.76
597.466	25820.62
597.662	25957.83
597.859	25449.94
598.055	25941.45
598.252	25408.98
598.448	25626.06
598.645	25118.17
598.841	24786.4
599.038	25349.59
599.234	25169.37
599.431	24892.89
599.627	25095.64
599.824	25456.08
600.02	24739.29
600.217	24942.04
600.413	24991.19
600.609	24559.07
600.806	24337.89
601.002	24366.56
601.198	24354.27
601.395	24327.65
601.591	24407.52
601.787	24239.59
601.984	24073.7
602.18	24143.33
602.376	23897.58
602.572	23993.83
602.769	23829.99
602.965	23682.54
603.161	23838.19
603.357	23432.69
603.553	23778.79
603.75	23483.89
603.946	23326.19
604.142	23332.34
604.338	23299.57
604.534	23416.3
604.73	23070.2
604.926	22781.43
605.122	22996.47
605.318	22937.08
605.514	23086.58
605.71	22916.6
605.906	22951.42
606.102	22537.73
606.298	22660.6
606.494	22531.58
606.69	22406.66
606.886	22441.47
607.082	22337.02
607.278	22431.23
607.474	22087.17
607.67	22353.41
607.866	21759.5
608.062	22105.6
608.257	21941.77
608.453	21982.73
608.649	22031.88
608.845	21519.88
609.041	21734.92
609.236	21806.6
609.432	21542.41
609.628	21552.65
609.824	21462.54
610.019	21480.97
610.215	21501.45
610.411	21818.89
610.606	21442.06
610.802	21337.62
610.998	21265.94
611.193	21194.26
611.389	21077.52
611.584	20704.79
611.78	21161.49
611.976	21339.66
612.171	21001.75
612.367	21036.56
612.562	20958.74
612.758	20882.97
612.953	20719.13
613.149	20600.35
613.344	20696.6
613.539	20831.77
613.735	20577.82
613.93	20743.7
614.126	20649.5
614.321	20635.16
614.517	20717.08
614.712	20655.64
614.907	20479.52
615.103	20471.32
615.298	20340.25
615.493	20495.9
615.688	20235.81
615.884	20643.35
616.079	20311.58
616.274	20117.03
616.47	20014.63
616.665	20063.78
616.86	19840.55
617.055	19834.41
617.25	19879.46
617.445	19875.37
617.641	19654.19
617.836	19768.87
618.031	19654.19
618.226	19590.7
618.421	19482.16
618.616	19531.31
618.811	19156.53
619.006	19631.66
619.201	19056.18
619.396	19025.46
619.591	19072.56
619.786	19330.61
619.981	18748.98
620.176	19002.93
620.371	18955.83
620.566	18824.76
620.761	18691.64
620.956	18816.57
621.151	18636.34
621.346	18697.78
621.541	18136.64
621.735	18323.01
621.93	17993.28
622.125	18214.46
622.32	17782.34
622.515	17796.68
622.709	17712.71
622.904	17432.14
623.099	17368.65
623.294	17704.52
623.488	17595.98
623.683	17360.46
623.878	17167.95
624.072	17098.32
624.267	17116.75
624.462	16932.43
624.656	16660.06
624.851	16901.72
625.046	16776.79
625.24	16416.35
625.435	16555.61
625.629	16213.6
625.824	16494.17
626.018	16420.44
626.213	15978.08
626.407	16088.67
626.602	15783.52
626.796	15761
626.991	15844.96
627.185	15910.5
627.38	15732.33
627.574	15636.07
627.768	15578.73
627.963	15347.31
628.157	15079.02
628.352	15441.51
628.546	14782.07
628.74	15007.34
628.935	14974.58
629.129	14970.48
629.323	14726.77
629.517	14655.09
629.712	14706.29
629.906	14673.53
630.1	14433.91
630.294	14337.66
630.489	14405.24
630.683	14489.21
630.877	14050.94
631.071	14155.39
631.265	14126.72
631.459	14089.85
631.653	13926.02
631.848	13846.15
632.042	13715.08
632.236	13821.57
632.43	13557.38
632.624	13622.92
632.818	13385.35
633.012	13289.1
633.206	13033.1
633.4	13264.52
633.594	13233.8
633.788	13264.52
633.982	13047.44
634.176	13082.25
634.369	12801.68
634.563	12930.7
634.757	12658.32
634.951	12830.35
635.145	12699.28
635.339	12738.19
635.533	12615.32
635.726	12707.48
635.92	12256.92
636.114	12340.89
636.308	12222.11
636.501	12025.5
636.695	12306.07
636.889	12011.17
637.083	12017.31
637.276	11959.97
637.47	11972.25
637.664	11906.72
637.857	11740.83
638.051	11570.85
638.244	11970.21
638.438	11597.48
638.632	11407.02
638.825	11495.08
639.019	11323.05
639.212	11230.89
639.406	11288.23
639.599	11101.87
639.793	11134.64
639.986	10938.03
640.18	10892.98
640.373	10886.83
640.567	10806.96
640.76	11097.77
640.954	10626.74
641.147	10671.79
641.34	10581.68
641.534	10598.07
641.727	10661.55
641.92	10555.06
642.114	10348.22
642.307	10227.39
642.5	10342.07
642.694	10067.64
642.887	9866.94
643.08	10303.16
643.273	10067.64
643.467	10010.3
643.66	9946.81
643.853	10018.49
644.046	9756.35
644.239	9785.02
644.432	9717.44
644.626	9658.05
644.819	9670.34
645.012	9551.56
645.205	9563.84
645.398	9320.14
645.591	9256.65
645.784	9377.48
645.977	9199.3
646.17	9160.39
646.363	9189.07
646.556	9012.94
646.749	9060.04
646.942	9324.23
647.135	9006.8
647.328	8824.53
647.521	8869.58
647.714	8746.7
647.907	8900.3
648.099	8701.65
648.292	8685.26
648.485	8726.22
648.678	8527.57
648.871	8576.72
649.064	8449.75
649.256	8546
649.449	8343.25
649.642	8359.64
649.835	8169.18
650.027	8199.9
650.22	8193.75
650.413	8144.6
650.605	8021.72
650.798	7995.1
650.991	8077.02
651.183	7880.41
651.376	7884.51
651.568	7843.55
651.761	7909.08
651.954	7597.79
652.146	7624.42
652.339	7687.9
652.531	7726.82
652.724	7597.79
652.916	7468.77
653.109	7442.15
653.301	7466.72
653.494	7436
653.686	7515.87
653.879	7349.99
654.071	7300.84
654.263	7175.91
654.456	7159.53
654.648	7173.86
654.84	7046.89
655.033	6946.54
655.225	7130.86
655.417	7022.31
655.61	7022.31
655.802	6989.55
655.994	6799.09
656.186	6823.66
656.379	6926.06
656.571	6809.33
656.763	6702.83
656.955	6592.24
657.148	6770.41
657.34	6850.28
657.532	6373.11
657.724	6569.71
657.916	6565.62
658.108	6506.23
658.3	6446.83
658.492	6440.69
658.684	6311.67
658.876	6346.48
659.068	6364.92
659.26	6145.78
659.452	6061.82
659.644	6113.02
659.836	6000.38
660.028	6246.13
660.22	6051.58
660.412	6010.62
660.604	6014.71
660.796	5893.88
660.988	5955.32
661.18	5918.46
661.372	5742.33
661.563	5723.9
661.755	5897.98
661.947	5596.93
662.139	5660.41
662.331	5734.14
662.522	5637.89
662.714	5488.39
662.906	5359.36
663.097	5504.77
663.289	5353.22
663.481	5359.36
663.673	5361.41
663.864	5351.17
664.056	5216.01
664.247	5332.74
664.439	5115.66
664.631	4992.78
664.822	5271.3
665.014	5144.33
665.205	5054.22
665.397	5046.02
665.588	5086.98
665.78	4894.47
665.971	5007.11
666.163	4769.55
666.354	4902.67
666.546	4927.24
666.737	4865.8
666.929	4853.52
667.12	4618
667.311	4775.69
667.503	4689.68
667.694	4781.84
667.885	4804.36
668.077	4755.21
668.268	4603.66
668.459	4630.29
668.651	4488.98
668.842	4632.33
669.033	4562.7
669.224	4499.22
669.416	4564.75
669.607	4413.2
669.798	4409.11
669.989	4427.54
670.18	4499.22
670.371	4259.6
670.563	4235.03
670.754	4259.6
670.945	4126.49
671.136	4288.28
671.327	4292.37
671.518	4267.8
671.709	4083.48
671.9	4108.05
672.091	4204.31
672.282	4095.77
672.473	4194.07
672.664	3974.94
672.855	4161.3
673.046	3933.98
673.237	4132.63
673.428	4095.77
673.619	4052.76
673.809	3958.55
674	3919.64
674.191	3917.59
674.382	3788.57
674.573	3835.67
674.764	3915.55
674.954	3960.6
675.145	3776.28
675.336	3921.69
675.527	3813.15
675.717	3698.46
675.908	3901.21
676.099	3669.79
676.289	3620.64
676.48	3624.73
676.671	3671.84
676.861	3653.41
677.052	3669.79
677.243	3807
677.433	3819.29
677.624	3647.26
677.814	3639.07
678.005	3555.1
678.195	3677.98
678.386	3639.07
678.576	3516.19
678.767	3563.29
678.957	3530.53
679.148	3665.69
679.338	3483.42
679.529	3553.06
679.719	3424.03
679.909	3598.11
680.1	3518.24
680.29	3479.33
680.481	3526.43
680.671	3548.96
680.861	3481.38
681.052	3458.85
681.242	3428.13
681.432	3426.08
681.622	3417.89
681.813	3358.5
682.003	3389.22
682.193	3331.87
682.383	3317.54
682.573	3276.58
682.764	3387.17
682.954	3266.34
683.144	3366.69
683.334	3309.35
683.524	3317.54
683.714	3358.5
683.904	3378.98
684.094	3272.48
684.284	3299.11
684.474	3317.54
684.664	3221.28
684.854	3292.96
685.044	3286.82
685.234	3204.9
685.424	3335.97
685.614	3344.16
685.804	3256.1
685.994	3393.31
686.184	3221.28
686.374	3284.77
686.564	3180.32
686.753	3145.51
686.943	3139.37
687.133	3223.33
687.323	3030.82
687.513	2998.06
687.702	3206.95
687.892	3082.02
688.082	3104.55
688.272	3092.26
688.461	3075.88
688.651	3006.25
688.841	3165.99
689.03	3034.92
689.22	3086.12
689.41	3084.07
689.599	3206.95
689.789	2967.34
689.979	2998.06
690.168	2912.04
690.358	3030.82
690.547	3000.1
690.737	3034.92
690.926	2965.29
691.116	2989.86
691.305	3098.41
691.495	2922.28
691.684	2924.33
691.874	2899.75
692.063	2770.73
692.252	2844.46
692.442	2959.14
692.631	2934.57
692.82	3071.78
693.01	2866.99
693.199	2787.11
693.388	2842.41
693.578	2797.35
693.767	2836.27
693.956	2809.64
694.146	2836.27
694.335	2873.13
694.524	2778.92
694.713	2768.68
694.902	2690.86
695.092	2930.47
695.281	2727.72
695.47	2723.63
695.659	2780.97
695.848	2764.59
696.037	2719.53
696.226	2723.63
696.415	2703.15
696.604	2639.66
696.793	2664.24
696.982	2678.57
697.171	2795.31
697.36	2543.41
697.549	2654
697.738	2606.89
697.927	2588.46
698.116	2787.11
698.305	2752.3
698.494	2629.42
698.683	2662.19
698.872	2572.08
699.061	2809.64
699.25	2705.2
699.438	2625.33
699.627	2582.32
699.816	2674.48
700.005	2582.32
700.193	2678.57
700.382	2621.23
700.571	2660.14
700.76	2574.13
700.948	2555.69
701.137	2621.23
701.326	2637.61
701.514	2524.97
701.703	2596.65
701.892	2494.26
702.08	2596.65
702.269	2572.08
702.457	2535.21
702.646	2518.83
702.834	2465.58
703.023	2465.58
703.212	2539.31
703.4	2467.63
703.589	2502.45
703.777	2533.17
703.965	2475.82
704.154	2393.9
704.342	2524.97
704.531	2541.36
704.719	2443.06
704.907	2449.2
705.096	2385.71
705.284	2477.87
705.472	2260.79
705.661	2461.49
705.849	2484.02
706.037	2361.14
706.226	2344.75
706.414	2318.13
706.602	2408.24
706.79	2424.62
706.979	2342.71
707.167	2350.9
707.355	2424.62
707.543	2383.66
707.731	2350.9
707.919	2344.75
708.107	2309.94
708.296	2289.46
708.484	2244.4
708.672	2359.09
708.86	2289.46
709.048	2295.6
709.236	2301.75
709.424	2240.31
709.612	2260.79
709.8	2318.13
709.988	2383.66
710.176	2121.52
710.364	2309.94
710.551	2277.17
710.739	2213.68
710.927	2185.01
711.115	2162.48
711.303	2250.55
711.491	2187.06
711.679	2318.13
711.866	2314.03
712.054	2219.83
712.242	2121.52
712.43	2178.87
712.617	2209.59
712.805	2176.82
712.993	2246.45
713.181	2207.54
713.368	2107.19
713.556	2221.88
713.744	2101.05
713.931	2254.64
714.119	2035.51
714.306	2189.11
714.494	2117.43
714.682	2219.83
714.869	2039.61
715.057	2109.24
715.244	1974.07
715.432	2062.13
715.619	2062.13
715.807	2072.37
715.994	2080.57
716.182	2113.33
716.369	2041.65
716.556	2086.71
716.744	2053.94
716.931	2115.38
717.119	2064.18
717.306	2006.84
717.493	2115.38
717.681	2025.27
717.868	1937.21
718.055	2115.38
718.242	1992.5
718.43	2031.41
718.617	2060.09
718.804	1906.49
718.991	1965.88
719.179	2117.43
719.366	2041.65
719.553	2062.13
719.74	2064.18
719.927	1984.31
720.114	1937.21
720.301	1918.78
720.488	1879.86
720.676	1836.86
720.863	1998.65
721.05	1875.77
721.237	1978.17
721.424	1986.36
721.611	1965.88
721.798	1892.15
721.985	1988.41
722.172	1824.57
722.358	1955.64
722.545	1929.02
722.732	1888.06
722.919	1888.06
723.106	1859.38
723.293	1789.75
723.48	1869.62
723.667	1984.31
723.853	1959.74
724.04	1859.38
724.227	1939.26
724.414	1843
724.6	1779.51
724.787	1890.1
724.974	1822.52
725.161	1740.6
725.347	1861.43
725.534	1853.24
725.72	1875.77
725.907	1820.47
726.094	1771.32
726.28	1752.89
726.467	1871.67
726.653	1756.99
726.84	1871.67
727.027	1761.08
727.213	1853.24
727.4	1750.84
727.586	1724.22
727.773	1713.98
727.959	1771.32
728.145	1820.47
728.332	1746.75
728.518	1787.71
728.705	1795.9
728.891	1713.98
729.077	1695.55
729.264	1662.78
729.45	1679.16
729.636	1767.23
729.823	1675.07
730.009	1703.74
730.195	1711.93
730.382	1865.53
730.568	1656.64
730.754	1568.57
730.94	1662.78
731.126	1722.17
731.313	1744.7
731.499	1691.45
731.685	1656.64
731.871	1711.93
732.057	1652.54
732.243	1750.84
732.429	1670.97
732.615	1728.31
732.801	1648.44
732.987	1574.72
733.173	1658.68
733.359	1605.44
733.545	1568.57
733.731	1617.72
733.917	1685.31
734.103	1572.67
734.289	1642.3
734.475	1568.57
734.661	1726.27
734.847	1699.64
735.033	1687.36
735.219	1630.01
735.404	1617.72
735.59	1621.82
735.776	1455.94
735.962	1582.91
736.148	1550.14
736.333	1670.97
736.519	1539.9
736.705	1558.33
736.89	1410.88
737.076	1462.08
737.262	1525.57
737.447	1564.48
737.633	1470.27
737.819	1593.15
738.004	1582.91
738.19	1623.87
738.375	1544
738.561	1562.43
738.747	1533.76
738.932	1517.37
739.118	1535.81
739.303	1460.03
739.489	1490.75
739.674	1457.98
739.859	1517.37
740.045	1488.7
740.23	1425.22
740.416	1343.3
740.601	1337.15
740.786	1400.64
740.972	1335.1
741.157	1457.98
741.342	1359.68
741.528	1408.83
741.713	1480.51
741.898	1384.26
742.084	1335.1
742.269	1423.17
742.454	1357.63
742.639	1408.83
742.824	1390.4
743.01	1339.2
743.195	1439.55
743.38	1425.22
743.565	1320.77
743.75	1384.26
743.935	1425.22
744.12	1328.96
744.305	1339.2
744.49	1304.39
744.675	1302.34
744.86	1296.19
745.045	1386.3
745.23	1240.9
745.415	1204.03
745.6	1290.05
745.785	1322.82
745.97	1242.95
746.155	1294.15
746.34	1224.51
746.525	1294.15
746.71	1290.05
746.895	1236.8
747.079	1187.65
747.264	1179.46
747.449	1204.03
747.634	1148.74
747.819	1173.32
748.003	1251.14
748.188	1208.13
748.373	1099.59
748.557	1171.27
748.742	1134.4
748.927	1130.31
749.111	1105.73
749.296	1124.16
749.481	1228.61
749.665	1142.6
749.85	1105.73
750.034	1085.25
750.219	1142.6
750.404	1093.44
750.588	1011.53
750.773	1042.25
750.957	1060.68
751.141	1122.12
751.326	1101.64
751.51	1134.4
751.695	999.24
751.879	1011.53
752.064	1093.44
752.248	1023.81
752.432	1064.77
752.617	933.7
752.801	1060.68
752.985	1101.64
753.17	999.24
753.354	939.85
753.538	968.52
753.722	1007.43
753.907	974.66
754.091	909.13
754.275	966.47
754.459	892.74
754.643	880.46
754.828	945.99
755.012	941.89
755.196	837.45
755.38	945.99
755.564	876.36
755.748	982.85
755.932	896.84
756.116	870.22
756.3	900.94
756.484	880.46
756.668	894.79
756.852	829.26
757.036	819.02
757.22	878.41
757.404	853.83
757.588	855.88
757.772	859.98
757.956	900.94
758.14	853.83
758.323	829.26
758.507	771.91
758.691	835.4
758.875	857.93
759.059	829.26
759.242	712.52
759.426	745.29
759.61	790.35
759.794	757.58
759.977	825.16
760.161	888.65
760.345	739.15
760.528	816.97
760.712	788.3
760.895	751.43
761.079	810.82
761.263	730.95
761.446	606.03
761.63	640.84
761.813	763.72
761.997	798.54
762.18	681.8
762.364	683.85
762.547	681.8
762.731	663.37
762.914	599.88
763.098	671.56
763.281	667.47
763.464	601.93
763.648	753.48
763.831	657.23
764.015	649.04
764.198	722.76
764.381	663.37
764.564	706.38
764.748	665.42
764.931	663.37
765.114	728.91
765.297	651.08
765.481	638.8
765.664	667.47
765.847	679.75
766.03	722.76
766.213	587.6
766.397	638.8
766.58	622.41
766.763	679.75
766.946	610.12
767.129	663.37
767.312	665.42
767.495	640.84
767.678	544.59
767.861	669.52
768.044	675.66
768.227	622.41
768.41	704.33
768.593	671.56
768.776	620.36
768.959	665.42
769.142	724.81
769.324	640.84
769.507	659.28
769.69	565.07
769.873	622.41
770.056	694.09
770.239	575.31
770.421	540.49
770.604	565.07
770.787	608.08
770.97	585.55
771.152	520.01
771.335	542.54
771.518	569.16
771.7	653.13
771.883	646.99
772.066	616.27
772.248	556.88
772.431	546.64
772.613	632.65
772.796	526.16
772.978	597.84
773.161	606.03
773.343	540.49
773.526	526.16
773.708	503.63
773.891	565.07
774.073	593.74
774.256	493.39
774.438	491.34
774.621	606.03
774.803	614.22
774.985	491.34
775.168	517.97
775.35	466.77
775.532	499.53
775.715	479.05
775.897	546.64
776.079	575.31
776.261	460.62
776.444	520.01
776.626	524.11
776.808	593.74
776.99	458.57
777.173	487.25
777.355	499.53
777.537	460.62
777.719	548.68
777.901	405.33
778.083	483.15
778.265	419.66
778.447	532.3
778.629	413.52
778.811	460.62
778.993	458.57
779.175	452.43
779.357	485.2
779.539	425.81
779.721	452.43
779.903	372.56
780.085	429.9
780.267	458.57
780.449	479.05
780.631	384.85
780.812	454.48
780.994	499.53
781.176	419.66
781.358	358.22
781.54	446.29
781.721	386.9
781.903	491.34
782.085	376.66
782.267	442.19
782.448	368.46
782.63	315.22
782.812	401.23
782.993	403.28
783.175	417.61
783.357	343.89
783.538	393.04
783.72	384.85
783.901	335.7
784.083	321.36
784.264	409.42
784.446	321.36
784.627	352.08
784.809	343.89
784.99	335.7
785.172	321.36
785.353	311.12
785.535	360.27
785.716	323.41
785.897	290.64
786.079	364.37
786.26	376.66
786.441	343.89
786.623	231.25
786.804	329.55
786.985	266.07
787.167	362.32
787.348	319.31
787.529	233.3
787.71	319.31
787.891	300.88
788.073	307.02
788.254	227.15
788.435	272.21
788.616	237.39
788.797	307.02
788.978	347.98
789.159	178
789.34	261.97
789.522	245.59
789.703	253.78
789.884	245.59
790.065	257.87
790.246	319.31
790.427	208.72
790.607	239.44
790.788	282.45
790.969	163.67
791.15	274.26
791.331	290.64
791.512	188.24
791.693	286.54
791.874	261.97
792.054	325.46
792.235	231.25
792.416	223.06
792.597	261.97
792.778	165.71
792.958	280.4
793.139	214.87
793.32	245.59
793.5	200.53
793.681	335.7
793.862	208.72
794.042	282.45
794.223	243.54
794.404	223.06
794.584	188.24
794.765	192.34
794.945	173.91
795.126	235.35
795.306	255.83
795.487	204.63
795.667	192.34
795.848	182.1
796.028	196.43
796.209	208.72
796.389	204.63
796.57	196.43
796.75	163.67
796.93	190.29
797.111	261.97
797.291	247.63
797.471	239.44
797.652	188.24
797.832	204.63
798.012	212.82
798.192	212.82
798.373	214.87
798.553	200.53
798.733	188.24
798.913	225.11
799.093	241.49
799.274	218.96
799.454	141.14
799.634	221.01
799.814	190.29
799.994	98.13
800.174	186.19
800.354	208.72
800.534	120.66
800.714	221.01
800.894	155.47
801.074	128.85
801.254	118.61
801.434	233.3
801.614	180.05
801.794	128.85
801.974	765.77
802.154	157.52
802.334	137.04
802.514	145.24
802.693	159.57
802.873	57.17
803.053	175.95
803.233	147.28
803.413	149.33
803.592	110.42
803.772	118.61
803.952	171.86
804.131	104.28
804.311	223.06
804.491	122.71
804.67	48.98
804.85	135
805.03	139.09
805.209	188.24
805.389	141.14
805.568	98.13
805.748	155.47
805.928	141.14
806.107	132.95
806.287	91.99
806.466	89.94
806.646	114.52
806.825	153.43
807.004	149.33
807.184	163.67
807.363	159.57
807.543	89.94
807.722	147.28
807.901	118.61
808.081	218.96
808.26	57.17
808.439	79.7
808.619	40.79
808.798	157.52
808.977	36.69
809.156	114.52
809.336	132.95
809.515	65.36
809.694	85.84
809.873	204.63
810.052	122.71
810.231	132.95
810.411	141.14
810.59	124.76
810.769	126.8
810.948	171.86
811.127	83.8
811.306	114.52
811.485	114.52
811.664	116.56
811.843	40.79
812.022	135
812.201	102.23
812.38	122.71
812.559	89.94
812.737	118.61
812.916	108.37
813.095	79.7
813.274	124.76
813.453	114.52
813.632	102.23
813.811	161.62
813.989	67.41
814.168	75.6
814.347	67.41
814.526	108.37
814.704	132.95
814.883	59.22
815.062	106.32
815.24	67.41
815.419	40.79
815.598	65.36
815.776	24.4
815.955	153.43
816.133	112.47
816.312	77.65
816.49	48.98
816.669	175.95
816.847	26.45
817.026	28.5
817.204	55.12
817.383	28.5
817.561	51.03
817.74	73.56
817.918	104.28
818.097	89.94
818.275	61.27
818.453	130.9
818.632	94.04
818.81	32.6
818.988	159.57
819.167	110.42
819.345	73.56
819.523	79.7
819.701	104.28
819.879	85.84
820.058	26.45
820.236	100.18
820.414	65.36
820.592	110.42
820.77	61.27
820.948	143.19
821.127	40.79
821.305	81.75
821.483	38.74
821.661	165.71
821.839	104.28
822.017	83.8
822.195	32.6
822.373	151.38
822.551	20.31
822.729	65.36
822.907	42.84
823.085	147.28
823.262	85.84
823.44	32.6
823.618	61.27
823.796	79.7
823.974	69.46
824.152	42.84
824.329	46.93
824.507	55.12
824.685	89.94
824.863	67.41
825.04	18.26
825.218	81.75
825.396	42.84
825.574	145.24
825.751	40.79
825.929	57.17
826.107	67.41
826.284	89.94
826.462	114.52
826.639	57.17
826.817	75.6
826.994	65.36
827.172	73.56
827.349	98.13
827.527	73.56
827.704	69.46
827.882	89.94
828.059	14.17
828.237	55.12
828.414	139.09
828.591	-12.46
828.769	53.08
828.946	51.03
829.124	48.98
829.301	106.32
829.478	69.46
829.655	77.65
829.833	42.84
830.01	-49.32
830.187	18.26
830.364	8.02
830.542	112.47
830.719	98.13
830.896	110.42
831.073	-16.55
831.25	89.94
831.427	32.6
831.604	32.6
831.782	16.21
831.959	65.36
832.136	42.84
832.313	40.79
832.49	-4.27
832.667	161.62
832.844	16.21
833.021	130.9
833.198	67.41
833.374	51.03
833.551	94.04
833.728	63.32
833.905	20.31
834.082	8.02
834.259	36.69
834.436	34.64
834.612	65.36
834.789	73.56
834.966	5.97
835.143	91.99
835.319	-41.13
835.496	57.17
835.673	71.51
835.85	30.55
836.026	30.55
836.203	98.13
836.38	81.75
836.556	48.98
836.733	28.5
836.909	120.66
837.086	-4.27
837.262	28.5
837.439	10.07
837.616	-4.27
837.792	61.27
837.968	18.26
838.145	42.84
838.321	34.64
838.498	48.98
838.674	3.93
838.851	69.46
839.027	124.76
839.203	-8.36
839.38	87.89
839.556	-32.94
839.732	73.56
839.909	40.79
840.085	114.52
840.261	73.56
840.437	18.26
840.614	-43.18
840.79	116.56
840.966	8.02
841.142	-37.03
841.318	-82.09
841.494	48.98
841.671	24.4
841.847	28.5
842.023	18.26
842.199	87.89
842.375	28.5
842.551	26.45
842.727	8.02
842.903	71.51
843.079	28.5
843.255	48.98
843.431	-6.31
843.607	1.88
843.783	-14.51
843.959	30.55
844.134	-8.36
844.31	110.42
844.486	24.4
844.662	-18.6
844.838	14.17
845.013	34.64
845.189	67.41
845.365	18.26
845.541	-0.17
845.716	53.08
845.892	77.65
846.068	-14.51
846.244	-39.08
846.419	71.51
846.595	-14.51
846.77	89.94
846.946	65.36
847.122	73.56
847.297	8.02
847.473	106.32
847.648	-84.14
847.824	8.02
847.999	38.74
848.175	8.02
848.35	53.08
848.526	75.6
848.701	22.36
848.876	-51.37
849.052	36.69
849.227	75.6
849.403	-0.17
849.578	67.41
849.753	28.5
849.929	22.36
850.104	10.07
850.279	24.4
850.454	106.32
850.63	55.12
850.805	40.79
850.98	-16.55
851.155	34.64
851.33	102.23
851.505	1.88
851.681	3.93
851.856	-16.55
852.031	73.56
852.206	24.4
852.381	1.88
852.556	65.36
852.731	24.4
852.906	-39.08
853.081	40.79
853.256	34.64
853.431	-6.31
853.606	-75.95
853.781	20.31
853.956	-34.99
854.131	-32.94
854.305	-34.99
854.48	-22.7
854.655	40.79
854.83	-6.31
855.005	24.4
855.18	48.98
855.354	-24.75
855.529	24.4
855.704	32.6
855.879	67.41
856.053	10.07
856.228	12.12
856.403	65.36
856.577	-4.27
856.752	61.27
856.926	26.45
857.101	-6.31
857.276	-49.32
857.45	18.26
857.625	-2.22
857.799	57.17
857.974	-55.47
858.148	-4.27
858.323	-39.08
858.497	28.5
858.672	-14.51
858.846	32.6
859.02	89.94
859.195	48.98
859.369	-10.41
859.543	24.4
859.718	48.98
859.892	-49.32
860.066	51.03
860.241	40.79
860.415	12.12
860.589	3.93
860.763	53.08
860.938	-16.55
861.112	34.64
861.286	26.45
861.46	32.6
861.634	-65.71
861.808	16.21
861.982	24.4
862.157	40.79
862.331	-16.55
862.505	-22.7
862.679	-32.94
862.853	65.36
863.027	8.02
863.201	16.21
863.375	59.22
863.549	32.6
863.722	28.5
863.896	32.6
864.07	-0.17
864.244	-0.17
864.418	-32.94
864.592	1.88
864.766	83.8
864.939	24.4
865.113	-100.52
865.287	32.6
865.461	24.4
865.634	-0.17
865.808	38.74
865.982	-28.84
866.156	-18.6
866.329	57.17
866.503	36.69
866.676	94.04
866.85	-41.13
867.024	16.21
867.197	-63.66
867.371	55.12
867.544	-84.14
867.718	-45.23
867.891	-6.31
868.065	-24.75
868.238	67.41
868.412	48.98
868.585	-43.18
868.759	8.02
868.932	-10.41
869.105	65.36
869.279	3.93
869.452	-32.94
869.625	8.02
869.799	40.79
869.972	-0.17
870.145	-39.08
870.319	48.98
870.492	-73.9
870.665	-16.55
870.838	36.69
871.011	-8.36
871.185	-26.79
871.358	-45.23
871.531	24.4
871.704	38.74
871.877	16.21
872.05	-14.51
872.223	44.88
872.396	-8.36
872.569	42.84
872.742	18.26
872.915	16.21
873.088	-73.9
873.261	-45.23
873.434	10.07
873.607	26.45
873.78	57.17
873.953	24.4
874.126	-6.31
874.299	48.98
874.471	-45.23
874.644	-49.32
874.817	-39.08
874.99	73.56
875.163	-16.55
875.335	-90.28
875.508	-30.89
875.681	20.31
875.853	61.27
876.026	-86.19
876.199	48.98
876.371	12.12
876.544	-16.55
876.717	-37.03
876.889	-8.36
877.062	26.45
877.234	-0.17
877.407	8.02
877.579	-41.13
877.752	-61.61
877.924	40.79
878.097	28.5
878.269	-32.94
878.442	-24.75
878.614	3.93
878.786	-16.55
878.959	1.88
879.131	-22.7
879.303	-20.65
879.476	10.07
879.648	63.32
879.82	8.02
879.993	48.98
880.165	63.32
880.337	-8.36
880.509	30.55
880.681	-16.55
880.854	-53.42
881.026	16.21
881.198	42.84
881.37	-63.66
881.542	-57.51
881.714	-41.13
881.886	42.84
882.058	-16.55
882.23	42.84
882.402	-30.89
882.574	-41.13
882.746	32.6
882.918	42.84
883.09	-30.89
883.262	24.4
883.434	22.36
883.606	69.46
883.778	32.6
883.95	48.98
884.122	-24.75
884.293	51.03
884.465	8.02
884.637	26.45
884.809	16.21
884.98	48.98
885.152	32.6
885.324	10.07
885.496	-16.55
885.667	-94.38
885.839	-24.75
886.011	10.07
886.182	32.6
886.354	85.84
886.525	16.21
886.697	-0.17
886.869	-16.55
887.04	57.17
887.212	102.23
887.383	65.36
887.555	20.31
887.726	-114.86
887.897	57.17
888.069	-65.71
888.24	57.17
888.412	10.07
888.583	-24.75
888.754	-0.17
888.926	-32.94
889.097	-55.47
889.268	16.21
889.44	77.65
889.611	-53.42
889.782	-28.84
889.953	-71.85
890.125	10.07
890.296	-16.55
890.467	-18.6
890.638	-41.13
890.809	-47.27
890.98	-28.84
891.151	40.79
891.323	73.56
891.494	18.26
891.665	-26.79
891.836	75.6
892.007	81.75
892.178	-32.94
892.349	16.21
892.52	16.21
892.691	-84.14
892.862	-32.94
893.032	-37.03
893.203	-32.94
893.374	-6.31
893.545	14.17
893.716	-6.31
893.887	8.02
894.057	44.88
894.228	16.21
894.399	-12.46
894.57	20.31
894.74	32.6
894.911	-34.99
895.082	12.12
895.253	36.69
895.423	-47.27
895.594	-4.27
895.764	8.02
895.935	-41.13
896.106	-55.47
896.276	-39.08
896.447	-22.7
896.617	42.84
896.788	-8.36
896.958	-49.32
897.129	-30.89
897.299	18.26
897.47	-4.27
897.64	-0.17
897.81	-88.23
897.981	51.03
898.151	-112.81
898.322	-55.47
898.492	-0.17
898.662	-22.7
898.832	-86.19
899.003	12.12
899.173	-32.94
899.343	-88.23
899.513	-45.23
