Data from USB4F104151__133__14-44-05-167.txt Node

Date: Thu Mar 13 14:44:05 EDT 2025
User: louis
Spectrometer: USB4F10415
Trigger mode: 4
Integration Time (sec): 2.000000E-2
Scans to average: 1
Electric dark correction enabled: true
Nonlinearity correction enabled: false
Boxcar width: 0
XAxis mode: Wavelengths
Number of Pixels in Spectrum: 3648
>>>>>Begin Spectral Data<<<<<
178.204	-132.78
178.424	-132.78
178.644	-132.78
178.864	-106.15
179.084	-204.46
179.304	6.49
179.524	-32.43
179.744	-30.38
179.964	74.07
180.184	8.53
180.404	39.25
180.624	18.77
180.844	49.49
181.064	-65.19
181.283	-32.43
181.503	-71.34
181.723	35.16
181.943	-75.43
182.163	-26.28
182.383	31.06
182.602	-16.04
182.822	72.02
183.042	35.16
183.262	20.82
183.482	-24.23
183.701	2.39
183.921	47.44
184.141	18.77
184.361	16.73
184.58	-28.33
184.8	-24.23
185.02	63.83
185.239	96.6
185.459	-36.52
185.679	0.34
185.898	-7.85
186.118	41.3
186.338	-38.57
186.557	51.54
186.777	6.49
186.997	0.34
187.216	-50.86
187.436	155.99
187.655	-28.33
187.875	-5.8
188.095	14.68
188.314	24.92
188.534	26.96
188.753	39.25
188.973	2.39
189.192	92.5
189.412	-5.8
189.631	57.68
189.851	57.68
190.07	12.63
190.29	-22.19
190.509	82.26
190.729	-50.86
190.948	8.53
191.168	145.75
191.387	-38.57
191.607	-30.38
191.826	-20.14
192.045	20.82
192.265	-18.09
192.484	18.77
192.704	31.06
192.923	-1.71
193.142	92.5
193.362	-57
193.581	35.16
193.8	10.58
194.02	33.11
194.239	6.49
194.458	55.64
194.678	-18.09
194.897	-1.71
195.116	-1.71
195.335	-42.67
195.555	14.68
195.774	35.16
195.993	2.39
196.212	-63.15
196.432	41.3
196.651	14.68
196.87	-26.28
197.089	76.12
197.308	127.32
197.528	-50.86
197.747	39.25
197.966	-1.71
198.185	18.77
198.404	-36.52
198.623	-18.09
198.842	-30.38
199.062	55.64
199.281	51.54
199.5	-40.62
199.719	33.11
199.938	47.44
200.157	-1.71
200.376	8.53
200.595	61.78
200.814	55.64
201.033	22.87
201.252	39.25
201.471	104.79
201.69	8.53
201.909	14.68
202.128	6.49
202.347	14.68
202.566	51.54
202.785	-3.75
203.004	26.96
203.223	112.98
203.442	39.25
203.661	-40.62
203.879	18.77
204.098	18.77
204.317	-18.09
204.536	39.25
204.755	49.49
204.974	39.25
205.193	-1.71
205.411	55.64
205.63	24.92
205.849	63.83
206.068	-9.9
206.287	100.69
206.505	43.35
206.724	22.87
206.943	22.87
207.162	14.68
207.381	-5.8
207.599	-34.47
207.818	47.44
208.037	-75.43
208.255	-38.57
208.474	8.53
208.693	63.83
208.911	-9.9
209.13	49.49
209.349	31.06
209.567	-20.14
209.786	51.54
210.005	16.73
210.223	14.68
210.442	-24.23
210.661	-54.95
210.879	47.44
211.098	-3.75
211.316	63.83
211.535	-7.85
211.753	-40.62
211.972	22.87
212.191	29.01
212.409	-24.23
212.628	22.87
212.846	-67.24
213.065	55.64
213.283	4.44
213.502	41.3
213.72	41.3
213.938	-32.43
214.157	-18.09
214.375	35.16
214.594	-24.23
214.812	6.49
215.031	80.21
215.249	57.68
215.467	2.39
215.686	16.73
215.904	16.73
216.122	33.11
216.341	-16.04
216.559	-1.71
216.778	121.17
216.996	22.87
217.214	20.82
217.432	6.49
217.651	-1.71
217.869	29.01
218.087	22.87
218.306	-42.67
218.524	35.16
218.742	92.5
218.96	47.44
219.179	-59.05
219.397	-7.85
219.615	-18.09
219.833	106.84
220.051	26.96
220.27	-34.47
220.488	33.11
220.706	55.64
220.924	-24.23
221.142	59.73
221.36	29.01
221.578	-48.81
221.796	-16.04
222.015	26.96
222.233	-54.95
222.451	-1.71
222.669	-24.23
222.887	24.92
223.105	26.96
223.323	6.49
223.541	-67.24
223.759	-18.09
223.977	-65.19
224.195	125.27
224.413	0.34
224.631	59.73
224.849	-7.85
225.067	133.46
225.285	26.96
225.503	-3.75
225.721	-63.15
225.939	10.58
226.157	20.82
226.375	112.98
226.592	-44.71
226.81	-22.19
227.028	67.92
227.246	41.3
227.464	-1.71
227.682	6.49
227.9	-67.24
228.117	6.49
228.335	6.49
228.553	-34.47
228.771	39.25
228.989	-38.57
229.206	6.49
229.424	0.34
229.642	22.87
229.86	-26.28
230.077	29.01
230.295	-18.09
230.513	20.82
230.731	-1.71
230.948	51.54
231.166	59.73
231.384	26.96
231.601	8.53
231.819	39.25
232.037	-28.33
232.254	-50.86
232.472	-7.85
232.689	18.77
232.907	6.49
233.125	8.53
233.342	-5.8
233.56	49.49
233.777	-24.23
233.995	16.73
234.213	78.16
234.43	-20.14
234.648	14.68
234.865	-46.76
235.083	18.77
235.3	53.59
235.518	33.11
235.735	31.06
235.953	88.4
236.17	-9.9
236.388	-65.19
236.605	6.49
236.822	-7.85
237.04	57.68
237.257	92.5
237.475	-9.9
237.692	-1.71
237.909	100.69
238.127	-13.99
238.344	-38.57
238.562	63.83
238.779	-48.81
238.996	-57
239.214	22.87
239.431	-13.99
239.648	12.63
239.865	53.59
240.083	2.39
240.3	22.87
240.517	-18.09
240.735	39.25
240.952	69.97
241.169	121.17
241.386	47.44
241.603	6.49
241.821	-34.47
242.038	35.16
242.255	16.73
242.472	-34.47
242.689	24.92
242.907	33.11
243.124	57.68
243.341	-13.99
243.558	-30.38
243.775	-7.85
243.992	-75.43
244.209	20.82
244.426	35.16
244.643	18.77
244.86	10.58
245.078	4.44
245.295	-26.28
245.512	-46.76
245.729	-63.15
245.946	-30.38
246.163	57.68
246.38	67.92
246.597	22.87
246.814	24.92
247.031	-18.09
247.248	-1.71
247.464	-22.19
247.681	-40.62
247.898	12.63
248.115	69.97
248.332	-40.62
248.549	82.26
248.766	47.44
248.983	55.64
249.2	61.78
249.417	31.06
249.633	-42.67
249.85	4.44
250.067	-22.19
250.284	10.58
250.501	41.3
250.717	41.3
250.934	-22.19
251.151	-40.62
251.368	-18.09
251.585	-9.9
251.801	-52.91
252.018	-22.19
252.235	47.44
252.451	-1.71
252.668	-22.19
252.885	72.02
253.102	57.68
253.318	-22.19
253.535	-65.19
253.752	-5.8
253.968	16.73
254.185	16.73
254.401	-42.67
254.618	-22.19
254.835	10.58
255.051	41.3
255.268	-22.19
255.484	63.83
255.701	-38.57
255.917	-34.47
256.134	8.53
256.351	22.87
256.567	-22.19
256.784	80.21
257	-57
257.217	69.97
257.433	6.49
257.65	72.02
257.866	-22.19
258.082	-93.87
258.299	2.39
258.515	-30.38
258.732	24.92
258.948	-38.57
259.165	35.16
259.381	47.44
259.597	2.39
259.814	-65.19
260.03	-24.23
260.246	10.58
260.463	-16.04
260.679	0.34
260.895	-63.15
261.112	-7.85
261.328	31.06
261.544	-16.04
261.761	18.77
261.977	-48.81
262.193	-1.71
262.409	-7.85
262.626	100.69
262.842	57.68
263.058	22.87
263.274	-26.28
263.49	22.87
263.707	53.59
263.923	-5.8
264.139	-34.47
264.355	-24.23
264.571	33.11
264.787	-59.05
265.004	80.21
265.22	-9.9
265.436	0.34
265.652	-1.71
265.868	49.49
266.084	26.96
266.3	-34.47
266.516	-34.47
266.732	6.49
266.948	-18.09
267.164	104.79
267.38	35.16
267.596	43.35
267.812	16.73
268.028	22.87
268.244	-1.71
268.46	129.36
268.676	35.16
268.892	63.83
269.108	31.06
269.324	-22.19
269.54	-5.8
269.756	24.92
269.972	20.82
270.188	2.39
270.403	-54.95
270.619	74.07
270.835	22.87
271.051	-16.04
271.267	47.44
271.483	-75.43
271.698	37.2
271.914	43.35
272.13	20.82
272.346	-40.62
272.562	39.25
272.777	29.01
272.993	-9.9
273.209	2.39
273.425	55.64
273.64	-65.19
273.856	31.06
274.072	-5.8
274.287	2.39
274.503	8.53
274.719	88.4
274.934	80.21
275.15	-46.76
275.366	33.11
275.581	0.34
275.797	35.16
276.012	-50.86
276.228	-34.47
276.444	6.49
276.659	-22.19
276.875	-46.76
277.09	14.68
277.306	-30.38
277.521	0.34
277.737	-9.9
277.952	80.21
278.168	-1.71
278.383	65.88
278.599	96.6
278.814	8.53
279.03	-38.57
279.245	14.68
279.461	63.83
279.676	-73.39
279.892	14.68
280.107	-24.23
280.322	-5.8
280.538	78.16
280.753	-38.57
280.969	20.82
281.184	2.39
281.399	39.25
281.615	-87.72
281.83	-16.04
282.045	-26.28
282.26	-24.23
282.476	-32.43
282.691	84.31
282.906	39.25
283.122	-50.86
283.337	47.44
283.552	39.25
283.767	-9.9
283.983	43.35
284.198	47.44
284.413	-3.75
284.628	-18.09
284.843	14.68
285.058	76.12
285.274	6.49
285.489	-52.91
285.704	2.39
285.919	-9.9
286.134	-26.28
286.349	-32.43
286.564	8.53
286.779	80.21
286.995	26.96
287.21	31.06
287.425	-9.9
287.64	22.87
287.855	57.68
288.07	-63.15
288.285	31.06
288.5	96.6
288.715	14.68
288.93	-63.15
289.145	35.16
289.36	6.49
289.575	24.92
289.79	-7.85
290.004	14.68
290.219	47.44
290.434	59.73
290.649	-13.99
290.864	-7.85
291.079	-75.43
291.294	59.73
291.509	47.44
291.724	-7.85
291.938	33.11
292.153	-18.09
292.368	43.35
292.583	14.68
292.798	-42.67
293.012	-40.62
293.227	67.92
293.442	-40.62
293.657	47.44
293.871	24.92
294.086	0.34
294.301	22.87
294.516	26.96
294.73	35.16
294.945	29.01
295.16	14.68
295.374	22.87
295.589	6.49
295.804	-7.85
296.018	-1.71
296.233	80.21
296.447	6.49
296.662	20.82
296.877	-44.71
297.091	80.21
297.306	-16.04
297.52	16.73
297.735	-20.14
297.949	-34.47
298.164	53.59
298.378	18.77
298.593	-26.28
298.807	10.58
299.022	90.45
299.236	59.73
299.451	-28.33
299.665	-30.38
299.88	-22.19
300.094	10.58
300.309	-7.85
300.523	0.34
300.737	0.34
300.952	18.77
301.166	72.02
301.381	22.87
301.595	-38.57
301.809	31.06
302.024	69.97
302.238	24.92
302.452	0.34
302.667	18.77
302.881	24.92
303.095	-73.39
303.309	96.6
303.524	2.39
303.738	-7.85
303.952	39.25
304.166	31.06
304.381	18.77
304.595	33.11
304.809	-46.76
305.023	-5.8
305.237	-26.28
305.452	-50.86
305.666	31.06
305.88	14.68
306.094	16.73
306.308	26.96
306.522	14.68
306.736	-18.09
306.95	18.77
307.164	-24.23
307.379	-36.52
307.593	74.07
307.807	55.64
308.021	-42.67
308.235	22.87
308.449	45.4
308.663	-34.47
308.877	4.44
309.091	-1.71
309.305	47.44
309.519	14.68
309.733	117.08
309.947	-48.81
310.161	-16.04
310.374	41.3
310.588	16.73
310.802	-36.52
311.016	-26.28
311.23	-57
311.444	-18.09
311.658	31.06
311.872	84.31
312.085	4.44
312.299	-1.71
312.513	76.12
312.727	57.68
312.941	6.49
313.154	35.16
313.368	43.35
313.582	10.58
313.796	26.96
314.009	63.83
314.223	33.11
314.437	14.68
314.651	24.92
314.864	-1.71
315.078	-13.99
315.292	43.35
315.505	22.87
315.719	10.58
315.933	14.68
316.146	-22.19
316.36	33.11
316.573	31.06
316.787	8.53
317.001	16.73
317.214	-81.58
317.428	16.73
317.641	-7.85
317.855	47.44
318.068	31.06
318.282	0.34
318.495	96.6
318.709	22.87
318.922	-59.05
319.136	-24.23
319.349	43.35
319.563	-67.24
319.776	74.07
319.99	-46.76
320.203	-42.67
320.417	-50.86
320.63	-18.09
320.843	26.96
321.057	8.53
321.27	55.64
321.483	16.73
321.697	74.07
321.91	-20.14
322.124	-16.04
322.337	47.44
322.55	8.53
322.763	0.34
322.977	43.35
323.19	16.73
323.403	57.68
323.617	0.34
323.83	22.87
324.043	-18.09
324.256	-26.28
324.469	-18.09
324.683	55.64
324.896	31.06
325.109	26.96
325.322	12.63
325.535	65.88
325.748	8.53
325.962	16.73
326.175	31.06
326.388	6.49
326.601	-57
326.814	139.6
327.027	51.54
327.24	47.44
327.453	-24.23
327.666	14.68
327.879	31.06
328.092	-16.04
328.305	59.73
328.518	-52.91
328.731	0.34
328.944	41.3
329.157	-26.28
329.37	76.12
329.583	-1.71
329.796	92.5
330.009	-50.86
330.222	-71.34
330.435	-28.33
330.648	96.6
330.861	-16.04
331.073	14.68
331.286	69.97
331.499	22.87
331.712	4.44
331.925	-5.8
332.138	-36.52
332.35	106.84
332.563	-69.29
332.776	63.83
332.989	-7.85
333.202	22.87
333.414	35.16
333.627	-30.38
333.84	-34.47
334.053	39.25
334.265	-13.99
334.478	0.34
334.691	-5.8
334.903	72.02
335.116	6.49
335.329	14.68
335.541	-48.81
335.754	115.03
335.966	-71.34
336.179	14.68
336.392	69.97
336.604	-26.28
336.817	-24.23
337.029	-20.14
337.242	-67.24
337.454	51.54
337.667	43.35
337.88	104.79
338.092	-34.47
338.305	-1.71
338.517	39.25
338.729	10.58
338.942	14.68
339.154	8.53
339.367	-26.28
339.579	41.3
339.792	-36.52
340.004	92.5
340.217	-30.38
340.429	-13.99
340.641	49.49
340.854	41.3
341.066	-32.43
341.278	8.53
341.491	18.77
341.703	-3.75
341.915	41.3
342.128	-26.28
342.34	-18.09
342.552	-16.04
342.764	-5.8
342.977	74.07
343.189	72.02
343.401	-34.47
343.613	29.01
343.826	10.58
344.038	31.06
344.25	-30.38
344.462	51.54
344.674	63.83
344.886	6.49
345.099	24.92
345.311	76.12
345.523	16.73
345.735	51.54
345.947	31.06
346.159	69.97
346.371	31.06
346.583	61.78
346.795	72.02
347.007	82.26
347.219	0.34
347.431	88.4
347.643	49.49
347.855	18.77
348.067	72.02
348.279	-34.47
348.491	-54.95
348.703	106.84
348.915	57.68
349.127	-83.63
349.339	104.79
349.551	59.73
349.763	78.16
349.975	14.68
350.187	69.97
350.399	51.54
350.61	65.88
350.822	22.87
351.034	35.16
351.246	24.92
351.458	65.88
351.669	67.92
351.881	69.97
352.093	26.96
352.305	-50.86
352.517	24.92
352.728	65.88
352.94	90.45
353.152	57.68
353.363	0.34
353.575	35.16
353.787	24.92
353.999	53.59
354.21	72.02
354.422	-26.28
354.633	-40.62
354.845	-59.05
355.057	4.44
355.268	61.78
355.48	26.96
355.692	-24.23
355.903	-34.47
356.115	6.49
356.326	-81.58
356.538	74.07
356.749	76.12
356.961	47.44
357.172	-93.87
357.384	43.35
357.595	65.88
357.807	-38.57
358.018	26.96
358.23	117.08
358.441	33.11
358.653	18.77
358.864	31.06
359.075	57.68
359.287	82.26
359.498	14.68
359.709	18.77
359.921	47.44
360.132	41.3
360.344	6.49
360.555	-18.09
360.766	100.69
360.977	39.25
361.189	6.49
361.4	41.3
361.611	39.25
361.823	47.44
362.034	51.54
362.245	-73.39
362.456	-1.71
362.667	47.44
362.879	37.2
363.09	-65.19
363.301	39.25
363.512	82.26
363.723	26.96
363.935	6.49
364.146	35.16
364.357	4.44
364.568	78.16
364.779	-18.09
364.99	18.77
365.201	72.02
365.412	-7.85
365.623	-46.76
365.834	-1.71
366.045	-18.09
366.256	72.02
366.467	-3.75
366.678	47.44
366.889	57.68
367.1	26.96
367.311	31.06
367.522	-1.71
367.733	41.3
367.944	33.11
368.155	22.87
368.366	41.3
368.577	45.4
368.788	74.07
368.999	-9.9
369.209	-18.09
369.42	112.98
369.631	49.49
369.842	63.83
370.053	39.25
370.264	-9.9
370.474	6.49
370.685	24.92
370.896	88.4
371.107	102.74
371.317	31.06
371.528	16.73
371.739	74.07
371.95	108.88
372.16	57.68
372.371	35.16
372.582	47.44
372.792	82.26
373.003	41.3
373.214	41.3
373.424	29.01
373.635	-54.95
373.846	65.88
374.056	65.88
374.267	90.45
374.477	-3.75
374.688	51.54
374.898	47.44
375.109	90.45
375.319	-18.09
375.53	-30.38
375.74	59.73
375.951	41.3
376.161	29.01
376.372	14.68
376.582	-34.47
376.793	31.06
377.003	-26.28
377.214	16.73
377.424	-32.43
377.635	80.21
377.845	-18.09
378.055	65.88
378.266	-36.52
378.476	29.01
378.686	-36.52
378.897	-11.95
379.107	-5.8
379.317	37.2
379.528	20.82
379.738	33.11
379.948	-50.86
380.158	55.64
380.369	10.58
380.579	24.92
380.789	-13.99
380.999	22.87
381.21	67.92
381.42	14.68
381.63	24.92
381.84	-7.85
382.05	6.49
382.261	41.3
382.471	18.77
382.681	31.06
382.891	67.92
383.101	14.68
383.311	6.49
383.521	20.82
383.731	20.82
383.941	53.59
384.151	22.87
384.361	18.77
384.571	14.68
384.781	-44.71
384.991	117.08
385.201	-3.75
385.411	6.49
385.621	57.68
385.831	-26.28
386.041	-24.23
386.251	14.68
386.461	39.25
386.671	-18.09
386.881	-54.95
387.091	61.78
387.301	102.74
387.511	117.08
387.72	49.49
387.93	6.49
388.14	-18.09
388.35	31.06
388.56	106.84
388.769	63.83
388.979	88.4
389.189	-5.8
389.399	24.92
389.609	76.12
389.818	112.98
390.028	35.16
390.238	16.73
390.447	51.54
390.657	43.35
390.867	55.64
391.076	41.3
391.286	96.6
391.496	43.35
391.705	39.25
391.915	43.35
392.125	88.4
392.334	-7.85
392.544	88.4
392.753	65.88
392.963	-46.76
393.172	20.82
393.382	41.3
393.591	63.83
393.801	24.92
394.01	67.92
394.22	-3.75
394.429	47.44
394.639	26.96
394.848	26.96
395.058	106.84
395.267	69.97
395.477	55.64
395.686	-9.9
395.895	57.68
396.105	100.69
396.314	24.92
396.524	22.87
396.733	49.49
396.942	72.02
397.152	35.16
397.361	41.3
397.57	59.73
397.78	104.79
397.989	80.21
398.198	74.07
398.407	63.83
398.617	84.31
398.826	53.59
399.035	88.4
399.244	-7.85
399.453	67.92
399.663	104.79
399.872	72.02
400.081	72.02
400.29	180.56
400.499	43.35
400.708	-24.23
400.917	31.06
401.127	96.6
401.336	76.12
401.545	166.23
401.754	96.6
401.963	119.12
402.172	-22.19
402.381	80.21
402.59	88.4
402.799	63.83
403.008	172.37
403.217	72.02
403.426	39.25
403.635	102.74
403.844	82.26
404.053	149.84
404.262	47.44
404.471	153.94
404.68	96.6
404.888	63.83
405.097	55.64
405.306	149.84
405.515	133.46
405.724	59.73
405.933	108.88
406.142	108.88
406.35	110.93
406.559	94.55
406.768	90.45
406.977	139.6
407.185	141.65
407.394	112.98
407.603	131.41
407.812	170.32
408.02	211.28
408.229	178.51
408.438	131.41
408.646	172.37
408.855	205.14
409.064	184.66
409.272	203.09
409.481	211.28
409.69	248.15
409.898	194.9
410.107	178.51
410.315	309.58
410.524	219.47
410.733	268.63
410.941	211.28
411.15	256.34
411.358	293.2
411.567	328.02
411.775	340.3
411.984	317.78
412.192	289.1
412.401	272.72
412.609	385.36
412.818	436.56
413.026	368.98
413.234	346.45
413.443	416.08
413.651	358.74
413.86	409.94
414.068	530.77
414.276	416.08
414.485	530.77
414.693	463.18
414.901	483.66
415.11	403.79
415.318	481.61
415.526	551.24
415.734	506.19
415.943	485.71
416.151	581.96
416.359	514.38
416.567	612.68
416.776	645.45
416.984	758.09
417.192	670.03
417.4	692.55
417.608	690.51
417.817	661.84
418.025	739.66
418.233	858.44
418.441	829.77
418.649	756.04
418.857	794.95
419.065	960.84
419.273	852.3
419.481	907.59
419.689	1079.62
419.897	1055.05
420.105	1016.13
420.313	1147.2
420.521	1091.91
420.729	1161.54
420.937	1169.73
421.145	1268.03
421.353	1337.66
421.561	1374.53
421.769	1382.72
421.977	1515.84
422.185	1476.93
422.393	1556.8
422.601	1581.37
422.809	1560.89
423.017	1595.71
423.224	1702.2
423.432	1780.03
423.64	1794.36
423.848	1997.11
424.056	1843.51
424.263	2165.04
424.471	2031.93
424.679	2111.8
424.887	2081.08
425.094	2312.5
425.302	2273.59
425.51	2332.98
425.718	2398.51
425.925	2406.7
426.133	2382.13
426.341	2705.71
426.548	2777.39
426.756	2662.7
426.964	2871.59
427.171	2928.94
427.379	3078.44
427.586	3037.48
427.794	3137.83
428.001	3402.02
428.209	3445.02
428.417	3408.16
428.624	3660.06
428.832	3510.56
429.039	3590.43
429.247	3625.25
429.454	4067.61
429.662	4184.34
429.869	4086.04
430.076	4188.44
430.284	4131.09
430.491	4499.73
430.699	4602.13
430.906	4686.09
431.114	4591.89
431.321	4741.39
431.528	4940.04
431.736	5183.75
431.943	5404.93
432.15	5232.9
432.358	5306.63
432.565	5675.26
432.772	5556.48
432.979	5839.1
433.187	5953.79
433.394	5904.64
433.601	6469.87
433.808	6416.63
434.016	6373.62
434.223	6633.71
434.43	6895.85
434.637	7121.13
434.844	7393.51
435.052	7500
435.259	7448.8
435.466	7358.69
435.673	7403.75
435.88	7891.16
436.087	8349.91
436.294	8444.12
436.501	7995.61
436.708	8311
436.915	8495.32
437.122	8782.03
437.329	8935.63
437.537	9232.58
437.743	9228.49
437.95	9351.37
438.157	9779.39
438.364	10283.19
438.571	10270.9
438.778	10145.98
438.985	10983.6
439.192	10594.48
439.399	11092.14
439.606	10764.47
439.813	11194.54
440.02	11980.96
440.227	11796.64
440.433	11452.58
440.64	11853.98
440.847	11940
441.054	12310.68
441.261	13150.35
441.467	13000.85
441.674	13072.53
441.881	13514.89
442.088	13527.17
442.294	13609.09
442.501	13934.72
442.708	14182.52
442.914	14608.5
443.121	15190.13
443.328	14921.84
443.534	15855.72
443.741	15456.36
443.948	15087.73
444.154	16312.41
444.361	16140.38
444.568	16427.1
444.774	16312.41
444.981	16476.25
445.187	17150.03
445.394	17668.17
445.6	17477.71
445.807	19200.05
446.013	18300.99
446.22	18618.43
446.426	19363.89
446.633	19771.43
446.839	20383.77
447.046	19619.88
447.252	20647.96
447.459	20690.97
447.665	20461.6
447.871	21221.39
448.078	22484.99
448.284	21260.3
448.491	21665.8
448.697	22366.21
448.903	23011.32
449.11	23037.94
449.316	22685.69
449.522	22970.36
449.728	23934.95
449.935	24223.72
450.141	23916.52
450.347	24555.49
450.553	23580.65
450.76	24164.32
450.966	24889.31
451.172	24504.29
451.378	25368.53
451.584	25018.33
451.791	25278.42
451.997	25067.48
452.203	25329.62
452.409	25845.71
452.615	25575.38
452.821	24610.78
453.027	24223.72
453.233	25769.93
453.44	24565.73
453.646	24942.55
453.852	24772.57
454.058	25262.04
454.264	24752.09
454.47	25259.99
454.676	24549.34
454.882	25303
455.088	23214.07
455.294	23412.72
455.5	23965.67
455.705	24473.57
455.911	23269.36
456.117	22882.3
456.323	22437.89
456.529	21180.43
456.735	22214.66
456.941	22126.6
457.147	21526.54
457.352	20912.15
457.558	20731.93
457.764	20572.19
457.97	20375.58
458.176	19800.1
458.381	19900.45
458.587	18888.76
458.793	18946.1
458.999	17905.73
459.204	18880.57
459.41	18769.97
459.616	17352.78
459.821	17442.89
460.027	17442.89
460.233	16920.66
460.438	16529.5
460.644	16351.32
460.85	15556.71
461.055	15308.91
461.261	15288.43
461.466	14160
461.672	14071.93
461.878	14852.21
462.083	13772.93
462.289	13637.77
462.494	13424.78
462.7	13050
462.905	12306.59
463.111	12929.17
463.316	13109.39
463.522	12826.77
463.727	12644.5
463.932	12652.69
464.138	12507.29
464.343	12664.98
464.549	12339.35
464.754	12425.37
464.959	12376.22
465.165	12417.18
465.37	12013.73
465.575	11569.32
465.781	12054.69
465.986	12394.65
466.191	11729.06
466.397	11479.21
466.602	10881.2
466.807	11411.62
467.012	11278.51
467.218	11274.41
467.423	11049.13
467.628	11356.33
467.833	11757.73
468.038	11129
468.244	10741.94
468.449	11292.84
468.654	10950.83
468.859	10825.9
469.064	10793.14
469.269	10369.21
469.474	10477.75
469.679	10799.28
469.885	10354.87
470.09	10600.63
470.295	10483.89
470.5	10303.67
470.705	10578.1
470.91	10111.16
471.115	10191.03
471.32	10139.83
471.525	10055.87
471.73	9828.54
471.935	9752.77
472.139	9550.02
472.344	9459.91
472.549	9498.82
472.754	9545.92
472.959	9175.24
473.164	9044.17
473.369	9111.75
473.574	9263.3
473.778	9144.52
473.983	8952.01
474.188	9142.47
474.393	8634.58
474.598	8804.56
474.802	8634.58
475.007	8394.97
475.212	8575.19
475.417	8372.44
475.621	8304.85
475.826	8313.05
476.031	8298.71
476.235	8026.33
476.44	8128.73
476.645	7971.04
476.849	8014.04
477.054	7801.05
477.259	7731.42
477.463	7659.74
477.668	7600.35
477.872	7555.3
478.077	7241.96
478.282	7190.76
478.486	7233.77
478.691	7223.53
478.895	7272.68
479.1	7078.12
479.304	7125.22
479.509	6873.32
479.713	7078.12
479.918	6906.09
480.122	6822.13
480.326	6912.24
480.531	6887.66
480.735	6691.06
480.94	6674.67
481.144	6965.48
481.348	6791.41
481.553	6764.78
481.757	6676.72
481.961	6809.84
482.166	6514.93
482.37	6779.12
482.574	6539.51
482.778	6568.18
482.983	6867.18
483.187	6660.34
483.391	6600.94
483.595	6721.77
483.8	6602.99
484.004	6457.59
484.208	6791.41
484.412	6627.57
484.616	6523.12
484.821	6637.81
485.025	6600.94
485.229	6617.33
485.433	6537.46
485.637	6529.27
485.841	6465.78
486.045	6607.09
486.249	6648.05
486.453	6576.37
486.657	6703.34
486.861	6588.66
487.065	6500.59
487.269	6598.9
487.473	6592.75
487.677	6658.29
487.881	6715.63
488.085	6637.81
488.289	6537.46
488.493	6543.6
488.697	6605.04
488.901	6668.53
489.105	6510.83
489.309	6775.02
489.512	6699.25
489.716	6781.17
489.92	6818.03
490.124	6822.13
490.328	6740.21
490.531	6785.26
490.735	6920.43
490.939	6813.93
491.143	6873.32
491.346	6916.33
491.55	7006.44
491.754	6865.13
491.958	7055.59
492.161	6854.89
492.365	6895.85
492.569	6830.32
492.772	7010.54
492.976	7092.46
493.18	7217.38
493.383	7153.9
493.587	7184.62
493.79	7336.17
493.994	7112.94
494.197	7457
494.401	7348.45
494.605	7227.62
494.808	7461.09
495.012	7551.2
495.215	7450.85
495.419	7477.48
495.622	7571.68
495.825	7659.74
496.029	7641.31
496.232	7936.22
496.436	7655.65
496.639	8059.1
496.843	8145.11
497.046	8022.23
497.249	8235.22
497.453	8130.78
497.656	8347.86
497.859	8517.84
498.063	8372.44
498.266	8659.15
498.469	8548.56
498.673	8624.34
498.876	8980.68
499.079	8790.22
499.282	8874.19
499.485	9058.51
499.689	9140.43
499.892	9126.09
500.095	9023.69
500.298	9625.79
500.501	9662.66
500.705	9613.51
500.908	9883.84
501.111	9791.68
501.314	9840.83
501.517	9939.13
501.72	10223.8
501.923	10248.38
502.126	10426.55
502.329	10516.66
502.532	10549.43
502.735	10676.4
502.938	10977.45
503.141	10891.44
503.344	11200.68
503.547	11188.39
503.75	11280.55
503.953	11509.93
504.156	11509.93
504.359	11573.41
504.562	11751.59
504.765	12099.74
504.968	12097.69
505.17	12116.12
505.373	12349.59
505.576	12224.67
505.779	12595.35
505.982	12750.99
506.185	13050
506.387	12865.68
506.59	13154.44
506.793	13322.38
506.996	13287.56
507.198	13594.76
507.401	13359.24
507.604	13879.43
507.807	13981.82
508.009	14180.48
508.212	14276.73
508.415	14284.92
508.617	14573.69
508.82	14778.48
509.022	14729.33
509.225	14952.56
509.428	15218.8
509.63	15270
509.833	15300.72
510.035	15874.15
510.238	15837.28
510.44	15753.32
510.643	16261.21
510.845	16173.15
511.048	16124
511.25	16410.71
511.453	16580.7
511.655	17111.12
511.858	16994.39
512.06	17205.33
512.262	17422.41
512.465	17188.94
512.667	17553.48
512.87	17807.43
513.072	17737.8
513.274	18149.44
513.477	18645.05
513.679	18479.16
513.881	18833.46
514.084	18499.64
514.286	18784.31
514.488	18985.01
514.69	19523.63
514.893	19566.63
515.095	19744.81
515.297	20027.43
515.499	19953.7
515.701	20443.17
515.904	20224.03
516.106	20514.84
516.308	20525.08
516.51	21024.79
516.712	21143.57
516.914	21506.06
517.116	21475.34
517.318	21676.04
517.52	21612.56
517.722	21860.36
517.925	22327.3
518.127	22509.57
518.329	22499.33
518.531	22458.37
518.733	23093.24
518.935	23189.49
519.136	23130.1
519.338	23592.94
519.54	23711.72
519.742	24078.31
519.944	23973.86
520.146	24274.91
520.348	24553.44
520.55	24764.38
520.752	24752.09
520.954	25647.05
521.155	24983.51
521.357	25462.74
521.559	25964.49
521.761	25833.42
521.963	26025.93
522.164	26152.9
522.366	25919.43
522.568	26202.05
522.77	26601.41
522.971	26908.6
523.173	26834.88
523.375	26922.94
523.576	27230.13
523.778	27271.09
523.98	27647.92
524.181	27713.45
524.383	27953.07
524.584	27867.05
524.786	28260.26
524.988	28280.74
525.189	28340.13
525.391	28409.76
525.592	28712.86
525.794	28989.34
525.995	28725.15
526.197	29081.5
526.398	29196.18
526.6	29112.22
526.801	29478.8
527.003	29472.66
527.204	29435.8
527.406	29882.25
527.607	29925.26
527.808	30230.41
528.01	29579.15
528.211	30121.87
528.412	30562.18
528.614	30271.37
528.815	30056.33
529.016	30637.95
529.218	30410.63
529.419	30123.91
529.62	30699.39
529.822	30558.08
530.023	30513.03
530.224	30601.09
530.425	30574.47
530.626	30582.66
530.828	30476.16
531.029	31244.15
531.23	30627.71
531.431	31016.83
531.632	31283.06
531.833	31190.91
532.035	31219.58
532.236	30994.3
532.437	31522.68
532.638	30887.81
532.839	31780.72
533.04	31264.63
533.241	31330.17
533.442	31897.45
533.643	31686.51
533.844	31338.36
534.045	31627.12
534.246	31129.47
534.447	31594.36
534.648	31328.12
534.849	31868.78
535.05	31156.09
535.251	31508.34
535.451	31520.63
535.652	31584.12
535.853	31862.64
536.054	31588.21
536.255	31778.67
536.456	31367.03
536.657	31661.94
536.857	31367.03
537.058	31397.75
537.259	31586.16
537.46	31768.43
537.66	31553.4
537.861	31264.63
538.062	31960.94
538.263	31924.08
538.463	31471.48
538.664	31530.87
538.865	31809.39
539.065	32061.29
539.266	31108.99
539.466	31706.99
539.667	31041.4
539.868	31936.37
540.068	31668.08
540.269	31717.23
540.469	31881.07
540.67	31602.55
540.87	31459.19
541.071	31401.85
541.271	31385.46
541.472	31469.43
541.672	31676.27
541.873	31512.44
542.073	31430.52
542.274	31758.19
542.474	31285.11
542.675	31264.63
542.875	31469.43
543.075	31719.28
543.276	31197.05
543.476	31545.2
543.676	31104.89
543.877	31637.36
544.077	31344.5
544.277	31055.74
544.478	30934.91
544.678	31629.17
544.878	31369.08
545.078	31532.92
545.279	31256.44
545.479	31733.62
545.679	31344.5
545.879	31543.16
546.079	31141.75
546.28	31379.32
546.48	31240.06
546.68	31317.88
546.88	31459.19
547.08	31414.13
547.28	30906.24
547.48	30766.98
547.68	31399.8
547.88	31158.14
548.081	31426.42
548.281	31342.46
548.481	31412.09
548.681	31655.79
548.881	31242.1
549.081	31098.75
549.28	31174.52
549.48	31410.04
549.68	31231.86
549.88	31588.21
550.08	30865.28
550.28	31127.42
550.48	31264.63
550.68	31233.91
550.88	30971.77
551.08	30844.8
551.279	31094.65
551.479	30605.19
551.679	31319.93
551.879	31149.95
552.079	31227.77
552.278	31065.98
552.478	31174.52
552.678	30846.85
552.878	31197.05
553.077	31264.63
553.277	30627.71
553.477	31096.7
553.676	31049.6
553.876	30875.52
554.076	30711.68
554.275	31049.6
554.475	30590.85
554.674	30736.26
554.874	31176.57
555.074	30607.23
555.273	30836.61
555.473	30711.68
555.672	30789.5
555.872	30965.63
556.071	30734.21
556.271	31008.64
556.47	30695.3
556.67	30592.9
556.869	30777.22
557.068	30537.6
557.268	30230.41
557.467	30363.53
557.667	30336.9
557.866	30642.05
558.065	30453.64
558.265	30293.9
558.464	30355.33
558.663	30537.6
558.863	29722.51
559.062	30396.29
559.261	29740.94
559.461	30285.7
559.66	29884.3
559.859	30027.66
560.058	29689.74
560.258	29874.06
560.457	29632.4
560.656	30312.33
560.855	29826.96
561.054	29443.99
561.253	29403.03
561.453	29978.51
561.652	29675.41
561.851	29902.73
562.05	29646.74
562.249	29493.14
562.448	29302.68
562.647	29394.84
562.846	29470.61
563.045	29591.44
563.244	29007.77
563.443	29642.64
563.642	28690.34
563.841	29265.81
564.04	29210.52
564.239	29122.46
564.438	28819.36
564.637	28792.73
564.836	29091.74
565.035	28563.36
565.234	28860.32
565.432	28766.11
565.631	28415.91
565.83	29032.35
566.029	28520.35
566.228	28290.98
566.427	28508.07
566.625	28180.39
566.824	28176.3
567.023	28108.71
567.222	27865
567.42	28374.95
567.619	28077.99
567.818	27781.04
568.016	27973.55
568.215	28090.28
568.414	27934.64
568.612	28047.27
568.811	27776.94
569.01	27600.82
569.208	27439.03
569.407	27830.19
569.605	27246.52
569.804	27389.88
570.002	27074.49
570.201	27494.32
570.4	27092.92
570.598	26898.36
570.797	26906.55
570.995	26922.94
571.193	26580.93
571.392	26937.27
571.59	26699.71
571.789	26886.08
571.987	26615.74
572.186	26589.12
572.384	26476.48
572.582	26666.94
572.781	26478.53
572.979	26038.22
573.177	26109.89
573.376	26349.51
573.574	25786.32
573.772	25933.77
573.971	25851.85
574.169	25999.3
574.367	25874.38
574.565	25862.09
574.763	25585.61
574.962	25452.5
575.16	25346
575.358	25499.6
575.556	25194.45
575.754	25573.33
575.952	25288.66
576.151	25298.9
576.349	25305.04
576.547	24973.27
576.745	25124.82
576.943	25030.62
577.141	24993.75
577.339	24969.18
577.537	24416.22
577.735	24829.91
577.933	24594.4
578.131	24909.79
578.329	24338.4
578.527	24383.46
578.725	24426.46
578.923	24633.31
579.121	24256.48
579.319	24285.15
579.516	23879.66
579.714	23820.27
579.912	23912.42
580.11	23937
580.308	24152.04
580.506	23986.15
580.704	23781.35
580.901	23775.21
581.099	23857.13
581.297	23549.93
581.495	23547.89
581.692	23533.55
581.89	23052.28
582.088	23525.36
582.285	23332.85
582.483	23416.82
582.681	23166.96
582.878	22970.36
583.076	22712.31
583.274	23087.09
583.471	22925.3
583.669	22853.62
583.866	22452.22
584.064	23013.37
584.262	22364.16
584.459	22773.75
584.657	22820.86
584.854	22792.19
585.052	22306.82
585.249	22382.59
585.447	22374.4
585.644	21942.28
585.841	22159.36
586.039	22509.57
586.236	21975.05
586.434	22042.63
586.631	21721.1
586.828	22177.79
587.026	21768.2
587.223	21700.62
587.42	21719.05
587.618	21624.84
587.815	21418
588.012	21473.29
588.21	21751.82
588.407	21544.97
588.604	21159.95
588.801	20963.35
588.999	21024.79
589.196	21133.33
589.393	21295.12
589.59	21194.77
589.787	21067.8
589.984	20817.94
590.182	20520.99
590.379	20729.88
590.576	20731.93
590.773	20756.5
590.97	20629.53
591.167	20516.89
591.364	20602.91
591.561	20500.51
591.758	20176.93
591.955	20305.95
592.152	20543.52
592.349	20217.89
592.546	20236.32
592.743	20035.62
592.94	19767.34
593.137	20152.35
593.334	20072.48
593.531	19767.34
593.727	19769.38
593.924	19968.04
594.121	19552.3
594.318	19773.48
594.515	19310.64
594.712	19632.17
594.908	19605.55
595.105	19161.14
595.302	19200.05
595.499	19343.41
595.696	19288.11
595.892	18905.14
596.089	19064.88
596.286	19056.69
596.482	18913.33
596.679	19154.99
596.876	18913.33
597.072	18784.31
597.269	18815.03
597.466	18698.3
597.662	18663.48
597.859	18757.69
598.055	18675.77
598.252	18511.93
598.448	18626.62
598.645	18366.53
598.841	18122.82
599.038	18124.86
599.234	18442.3
599.431	18090.05
599.627	17973.32
599.824	18061.38
600.02	18083.91
600.217	17920.07
600.413	17973.32
600.609	17956.93
600.806	17690.7
601.002	17680.46
601.198	17434.7
601.395	17516.62
601.591	17500.23
601.787	17750.09
601.984	17322.06
602.18	17672.26
602.376	17530.95
602.572	17506.38
602.769	17225.81
602.965	17250.38
603.161	16975.95
603.357	16912.47
603.553	17229.9
603.75	16980.05
603.946	16881.75
604.142	16986.19
604.338	17037.39
604.534	16775.25
604.73	16519.26
604.926	16748.63
605.122	16799.83
605.318	16570.46
605.514	16629.85
605.71	16466.01
605.906	16504.92
606.102	16537.69
606.298	16588.89
606.494	16431.19
606.69	16447.58
606.886	16400.48
607.082	16140.38
607.278	16388.19
607.474	15997.03
607.67	16023.65
607.866	15706.21
608.062	16488.54
608.257	15890.53
608.453	15988.83
608.649	16152.67
608.845	15915.11
609.041	15911.01
609.236	15886.43
609.432	15816.8
609.628	15587.43
609.824	15837.28
610.019	15763.56
610.215	15550.57
610.411	15675.49
610.606	15581.29
610.802	15386.73
610.998	15407.21
611.193	15325.29
611.389	15177.84
611.584	15444.07
611.78	15345.77
611.976	15480.94
612.171	15452.27
612.367	15196.27
612.562	15315.05
612.758	14936.18
612.953	15016.05
613.149	15310.96
613.344	14866.55
613.539	15259.76
613.735	15310.96
613.93	15079.54
614.126	14973.04
614.321	15003.76
614.517	14913.65
614.712	14897.27
614.907	14614.65
615.103	14631.03
615.298	14631.03
615.493	14977.14
615.688	14788.72
615.884	14942.32
616.079	14694.52
616.274	14758
616.47	14610.55
616.665	14655.61
616.86	14510.2
617.055	14440.57
617.25	14598.26
617.445	14678.13
617.641	14213.24
617.836	14473.34
618.031	14084.22
618.226	14342.27
618.421	14135.42
618.616	14147.71
618.811	14147.71
619.006	14145.66
619.201	13908.1
619.396	14061.69
619.591	13832.32
619.786	14022.78
619.981	13547.65
620.176	13590.66
620.371	13756.55
620.566	13678.72
620.761	13400.2
620.956	13459.59
621.151	13273.23
621.346	13555.85
621.541	13389.96
621.735	13357.19
621.93	13004.94
622.125	13203.6
622.32	13006.99
622.515	12939.41
622.709	12898.45
622.904	12900.5
623.099	12736.66
623.294	12992.66
623.488	12761.23
623.683	12603.54
623.878	12478.61
624.072	12736.66
624.267	12388.5
624.462	12253.34
624.656	12359.83
624.851	12306.59
625.046	12062.88
625.24	11983.01
625.435	12269.72
625.629	11901.09
625.824	11866.27
626.018	12011.68
626.213	11747.49
626.407	11743.39
626.602	11559.08
626.796	11620.52
626.991	11614.37
627.185	11391.14
627.38	11602.08
627.574	11255.98
627.768	11321.51
627.963	11266.22
628.157	10881.2
628.352	11262.12
628.546	10916.01
628.74	11172.01
628.935	11042.99
629.129	10762.42
629.323	10789.04
629.517	10696.88
629.712	10821.81
629.906	10668.21
630.1	10295.48
630.294	10641.59
630.489	10375.35
630.683	10428.6
630.877	10328.25
631.071	10401.97
631.265	10213.56
631.459	10201.27
631.653	10131.64
631.848	10088.64
632.042	10031.29
632.236	10086.59
632.43	9855.17
632.624	9926.85
632.818	10004.67
633.012	9693.38
633.206	9662.66
633.4	9865.41
633.594	9658.56
633.788	9472.2
633.982	9642.18
634.176	9644.23
634.369	9412.81
634.563	9431.24
634.757	9414.85
634.951	9382.09
635.145	9543.88
635.339	9148.62
635.533	9169.1
635.726	9214.15
635.92	9048.27
636.114	9316.55
636.308	8943.82
636.501	8935.63
636.695	8935.63
636.889	8872.14
637.083	8757.46
637.276	8544.47
637.47	8530.13
637.664	8562.9
637.857	8642.77
638.051	8601.81
638.244	8583.38
638.438	8227.03
638.632	8370.39
638.825	8329.43
639.019	8192.22
639.212	8198.36
639.406	8419.54
639.599	8296.66
639.793	8274.14
639.986	8083.67
640.18	8141.02
640.373	7809.25
640.567	8022.23
640.76	7770.33
640.954	7938.27
641.147	7917.79
641.34	7727.33
641.534	7872.73
641.727	7596.26
641.92	7729.38
642.114	7708.9
642.307	7508.19
642.5	7551.2
642.694	7510.24
642.887	7469.28
643.08	7665.89
643.273	7575.78
643.467	7225.58
643.66	7237.86
643.853	7160.04
644.046	7157.99
644.239	7274.73
644.432	7168.23
644.626	7051.5
644.819	7084.27
645.012	7100.65
645.205	6945
645.398	6942.96
645.591	6744.3
645.784	7043.31
645.977	6891.76
646.17	6797.55
646.363	6904.04
646.556	6580.46
646.749	6693.1
646.942	6756.59
647.135	6543.6
647.328	6471.92
647.521	6568.18
647.714	6441.2
647.907	6609.14
648.099	6531.31
648.292	6392.05
648.485	6340.85
648.678	6273.27
648.871	6375.67
649.064	6166.78
649.256	6209.78
649.449	6168.82
649.642	6260.98
649.835	6146.3
650.027	6101.24
650.22	6183.16
650.413	6105.34
650.605	6158.58
650.798	5937.4
650.991	5986.55
651.183	6045.95
651.376	5847.29
651.568	5939.45
651.761	5830.91
651.954	6002.94
652.146	5896.44
652.339	5667.07
652.531	5572.86
652.724	5626.11
652.916	5501.19
653.109	5660.93
653.301	5699.84
653.494	5585.15
653.686	5460.23
653.879	5538.05
654.071	5423.36
654.263	5265.67
654.456	5429.51
654.648	5409.03
654.84	5374.21
655.033	5300.48
655.225	5118.22
655.417	5257.48
655.61	5316.87
655.802	5196.04
655.994	5310.72
656.186	5255.43
656.379	5294.34
656.571	5171.46
656.763	4958.47
656.955	5101.83
657.148	5112.07
657.34	5093.64
657.532	4966.67
657.724	5044.49
657.916	4954.38
658.108	4954.38
658.3	4792.59
658.492	4772.11
658.684	4722.96
658.876	4925.71
659.068	4743.44
659.26	4682
659.452	4591.89
659.644	4675.85
659.836	4790.54
660.028	4595.98
660.22	4634.89
660.412	4466.96
660.604	4663.57
660.796	4755.72
660.988	4628.75
661.18	4577.55
661.372	4389.14
661.563	4626.7
661.755	4497.68
661.947	4458.77
662.139	4462.87
662.331	4550.93
662.522	4372.75
662.714	4366.61
662.906	4239.64
663.097	4337.94
663.289	4233.49
663.481	4249.88
663.673	4067.61
663.864	4180.25
664.056	4061.46
664.247	4159.77
664.439	4061.46
664.631	4065.56
664.822	3997.98
665.014	4188.44
665.205	4135.19
665.397	4020.5
665.588	3971.35
665.78	4043.03
665.971	3959.06
666.163	3969.3
666.354	3997.98
666.546	3842.33
666.737	3832.09
666.929	3938.59
667.12	3926.3
667.311	3832.09
667.503	3873.05
667.694	3930.39
667.885	3711.26
668.077	3623.2
668.268	3664.16
668.459	3760.41
668.651	3752.22
668.842	3731.74
669.033	3643.68
669.224	3678.49
669.416	3739.93
669.607	3758.36
669.798	3752.22
669.989	3598.62
670.18	3610.91
670.371	3651.87
670.563	3455.26
670.754	3670.3
670.945	3512.61
671.136	3580.19
671.327	3553.57
671.518	3528.99
671.709	3576.09
671.9	3520.8
672.091	3504.42
672.282	3438.88
672.473	3565.85
672.664	3422.5
672.855	3361.06
673.046	3465.5
673.237	3547.42
673.428	3449.12
673.619	3406.11
673.809	3416.35
674	3463.46
674.191	3404.07
674.382	3266.85
674.573	3242.28
674.764	3369.25
674.954	3328.29
675.145	3291.43
675.336	3260.71
675.527	3289.38
675.717	3176.74
675.908	3316
676.099	3332.39
676.289	3148.07
676.48	3195.17
676.671	3213.6
676.861	3291.43
677.052	3266.85
677.243	3098.92
677.433	3164.45
677.624	3186.98
677.814	3086.63
678.005	3111.21
678.195	3131.69
678.386	3098.92
678.576	3119.4
678.767	3195.17
678.957	3219.75
679.148	3158.31
679.338	3098.92
679.529	3035.43
679.719	3004.71
679.909	3068.2
680.1	3086.63
680.29	3127.59
680.481	3082.53
680.671	3045.67
680.861	3150.12
681.052	3088.68
681.242	2951.46
681.432	2980.14
681.622	3037.48
681.813	2933.03
682.003	3066.15
682.193	3021.1
682.383	3103.01
682.573	2928.94
682.764	3021.1
682.954	3014.95
683.144	2996.52
683.334	2965.8
683.524	2922.79
683.714	2984.23
683.904	3023.14
684.094	2971.94
684.284	2877.74
684.474	3021.1
684.664	2894.12
684.854	2883.88
685.044	2930.98
685.234	2883.88
685.424	2871.59
685.614	2933.03
685.804	2992.42
685.994	2808.11
686.184	2865.45
686.374	2844.97
686.564	2875.69
686.753	2787.63
686.943	2777.39
687.133	2724.14
687.323	2793.77
687.513	2812.2
687.702	2771.24
687.892	2771.24
688.082	2758.96
688.272	2664.75
688.461	2754.86
688.651	2818.35
688.841	2761
689.03	2652.46
689.22	2715.95
689.41	2640.17
689.599	2703.66
689.789	2664.75
689.979	2586.93
690.168	2578.73
690.358	2570.54
690.547	2595.12
690.737	2556.21
690.926	2654.51
691.116	2519.34
691.305	2621.74
691.495	2507.06
691.684	2429.23
691.874	2423.09
692.063	2554.16
692.252	2359.6
692.442	2564.4
692.631	2457.9
692.82	2629.93
693.01	2529.58
693.199	2435.38
693.388	2308.4
693.578	2502.96
693.767	2543.92
693.956	2541.87
694.146	2423.09
694.335	2384.18
694.524	2431.28
694.713	2474.29
694.902	2490.67
695.092	2359.6
695.281	2464.05
695.47	2423.09
695.659	2449.71
695.848	2455.86
696.037	2398.51
696.226	2347.31
696.415	2373.94
696.604	2306.35
696.793	2451.76
696.982	2337.07
697.171	2347.31
697.36	2255.15
697.549	2275.63
697.738	2289.97
697.927	2236.72
698.116	2384.18
698.305	2234.68
698.494	2220.34
698.683	2312.5
698.872	2326.83
699.061	2263.35
699.25	2373.94
699.438	2271.54
699.627	2255.15
699.816	2302.26
700.005	2279.73
700.193	2251.06
700.382	2312.5
700.571	2292.02
700.76	2318.64
700.948	2431.28
701.137	2122.04
701.326	2398.51
701.514	2226.48
701.703	2169.14
701.892	2296.11
702.08	2406.7
702.269	2220.34
702.457	2187.57
702.646	2236.72
702.834	2230.58
703.023	2173.24
703.212	2263.35
703.4	2206
703.589	2228.53
703.777	2246.96
703.965	2257.2
704.154	2257.2
704.342	2152.76
704.531	2167.09
704.719	2144.56
704.907	2349.36
705.096	2128.18
705.284	2281.78
705.472	2287.92
705.661	2185.52
705.849	2193.72
706.037	2244.92
706.226	2308.4
706.414	2218.29
706.602	2271.54
706.79	2267.44
706.979	2193.72
707.167	2259.25
707.355	2220.34
707.543	2265.39
707.731	2210.1
707.919	2318.64
708.107	2122.04
708.296	2218.29
708.484	2312.5
708.672	2105.65
708.86	2185.52
709.048	2226.48
709.236	2214.2
709.424	2144.56
709.612	2332.98
709.8	2029.88
709.988	2111.8
710.176	2212.15
710.364	2226.48
710.551	2064.69
710.739	2181.43
710.927	2099.51
711.115	2130.23
711.303	2142.52
711.491	2189.62
711.679	2124.08
711.866	2025.78
712.054	2267.44
712.242	2345.27
712.43	2175.28
712.617	2267.44
712.805	2236.72
712.993	2240.82
713.181	2255.15
713.368	2242.87
713.556	2074.93
713.744	2074.93
713.931	2167.09
714.119	2193.72
714.306	2064.69
714.494	2298.16
714.682	2238.77
714.869	2103.61
715.057	2152.76
715.244	2185.52
715.432	2203.96
715.619	2074.93
715.807	2179.38
715.994	2115.89
716.182	2181.43
716.369	2068.79
716.556	2277.68
716.744	2240.82
716.931	2119.99
717.119	2218.29
717.306	2230.58
717.493	2126.13
717.681	2187.57
717.868	2226.48
718.055	2177.33
718.242	2152.76
718.43	2165.04
718.617	2179.38
718.804	2085.17
718.991	2185.52
719.179	2228.53
719.366	2234.68
719.553	2279.73
719.74	2218.29
719.927	2167.09
720.114	2222.39
720.301	2136.37
720.488	2212.15
720.676	2218.29
720.863	2132.28
721.05	2224.44
721.237	2136.37
721.424	2148.66
721.611	2255.15
721.798	2185.52
721.985	2169.14
722.172	2152.76
722.358	2206
722.545	2169.14
722.732	2246.96
722.919	2132.28
723.106	2115.89
723.293	2105.65
723.48	2234.68
723.667	2130.23
723.853	2105.65
724.04	2322.74
724.227	2185.52
724.414	2238.77
724.6	2312.5
724.787	2156.85
724.974	2171.19
725.161	2185.52
725.347	2160.95
725.534	2038.07
725.72	2177.33
725.907	2142.52
726.094	2160.95
726.28	2128.18
726.467	2097.46
726.653	2152.76
726.84	2234.68
727.027	2253.11
727.213	2308.4
727.4	2117.94
727.586	2238.77
727.773	2179.38
727.959	2210.1
728.145	2085.17
728.332	2197.81
728.518	2140.47
728.705	2244.92
728.891	2218.29
729.077	2328.88
729.264	2218.29
729.45	2136.37
729.636	2238.77
729.823	2242.87
730.009	2193.72
730.195	2242.87
730.382	2128.18
730.568	2294.07
730.754	2122.04
730.94	2072.89
731.126	2066.74
731.313	2287.92
731.499	2152.76
731.685	2111.8
731.871	2122.04
732.057	2195.76
732.243	2171.19
732.429	2251.06
732.615	2185.52
732.801	2156.85
732.987	2201.91
733.173	2177.33
733.359	2105.65
733.545	2095.41
733.731	2111.8
733.917	2138.42
734.103	2197.81
734.289	2119.99
734.475	2152.76
734.661	2144.56
734.847	2132.28
735.033	2103.61
735.219	2136.37
735.404	2177.33
735.59	2029.88
735.776	2029.88
735.962	2113.85
736.148	2183.48
736.333	2111.8
736.519	2070.84
736.705	2160.95
736.89	2072.89
737.076	2119.99
737.262	2193.72
737.447	2068.79
737.633	2154.8
737.819	2169.14
738.004	2177.33
738.19	2115.89
738.375	2128.18
738.561	2081.08
738.747	2091.32
738.932	1997.11
739.118	1972.54
739.303	2056.5
739.489	2115.89
739.674	2103.61
739.859	2013.49
740.045	2152.76
740.23	2124.08
740.416	2005.3
740.601	2056.5
740.786	1958.2
740.972	1997.11
741.157	2029.88
741.342	1993.01
741.528	1980.73
741.713	1990.97
741.898	2066.74
742.084	1993.01
742.269	1898.81
742.454	1859.9
742.639	2046.26
742.824	2021.69
743.01	2040.12
743.195	1988.92
743.38	1925.43
743.565	1909.05
743.75	2005.3
743.935	1978.68
744.12	1980.73
744.305	1855.8
744.49	1857.85
744.675	1950.01
744.86	1808.7
745.045	1857.85
745.23	1937.72
745.415	1853.75
745.6	1841.47
745.785	1849.66
745.97	1937.72
746.155	1851.71
746.34	1784.12
746.525	1685.82
746.71	1800.51
746.895	1849.66
747.079	1890.62
747.264	1777.98
747.449	1777.98
747.634	1694.01
747.819	1882.42
748.003	1859.9
748.188	1710.4
748.373	1753.4
748.557	1712.44
748.742	1767.74
748.927	1603.9
749.111	1558.85
749.296	1706.3
749.481	1665.34
749.665	1628.48
749.85	1552.7
750.034	1669.44
750.219	1597.76
750.404	1583.42
750.588	1519.93
750.773	1497.41
750.957	1495.36
751.141	1571.13
751.326	1532.22
751.51	1564.99
751.695	1505.6
751.879	1423.68
752.064	1562.94
752.248	1515.84
752.432	1567.04
752.617	1526.08
752.801	1530.17
752.985	1423.68
753.17	1524.03
753.354	1481.02
753.538	1349.95
753.722	1384.77
753.907	1308.99
754.091	1491.26
754.275	1382.72
754.459	1366.34
754.643	1302.85
754.828	1378.62
755.012	1374.53
755.196	1241.41
755.38	1261.89
755.564	1245.51
755.748	1282.37
755.932	1292.61
756.116	1321.28
756.3	1249.6
756.484	1186.12
756.668	1278.27
756.852	1165.64
757.036	1114.44
757.22	1231.17
757.404	1188.16
757.588	1202.5
757.772	1374.53
757.956	1202.5
758.14	1218.88
758.323	1163.59
758.507	1120.58
758.691	1190.21
758.875	1161.54
759.059	1130.82
759.242	1143.11
759.426	1089.86
759.61	1116.48
759.794	1069.38
759.977	1204.55
760.161	1081.67
760.345	1167.68
760.528	1104.2
760.712	1046.85
760.895	1073.48
761.079	1009.99
761.263	1065.29
761.446	1016.13
761.63	1079.62
761.813	1028.42
761.997	1009.99
762.18	1030.47
762.364	1005.89
762.547	1024.33
762.731	1038.66
762.914	1014.09
763.098	1014.09
763.281	993.61
763.464	1057.09
763.648	1046.85
763.831	983.37
764.015	940.36
764.198	973.13
764.381	971.08
764.564	1057.09
764.748	989.51
764.931	1018.18
765.114	907.59
765.297	964.93
765.481	942.41
765.664	973.13
765.847	915.78
766.03	907.59
766.213	858.44
766.397	999.75
766.58	893.26
766.763	940.36
766.946	921.93
767.129	923.98
767.312	917.83
767.495	899.4
767.678	913.74
767.861	907.59
768.044	868.68
768.227	889.16
768.41	817.48
768.593	772.43
768.776	837.96
768.959	868.68
769.142	852.3
769.324	790.86
769.507	809.29
769.69	797
769.873	854.34
770.056	854.34
770.239	876.87
770.421	883.02
770.604	860.49
770.787	833.86
770.97	825.67
771.152	829.77
771.335	813.38
771.518	827.72
771.7	876.87
771.883	825.67
772.066	741.71
772.248	811.34
772.431	876.87
772.613	809.29
772.796	733.51
772.978	805.19
773.161	776.52
773.343	762.19
773.526	727.37
773.708	756.04
773.891	805.19
774.073	682.31
774.256	624.97
774.438	776.52
774.621	680.27
774.803	745.8
774.985	706.89
775.168	678.22
775.35	624.97
775.532	663.88
775.715	776.52
775.897	762.19
776.079	672.08
776.261	694.6
776.444	706.89
776.626	637.26
776.808	631.12
776.99	588.11
777.173	633.16
777.355	678.22
777.537	659.79
777.719	678.22
777.901	592.2
778.083	530.77
778.265	559.44
778.447	633.16
778.629	710.99
778.811	614.73
778.993	690.51
779.175	596.3
779.357	514.38
779.539	524.62
779.721	563.53
779.903	530.77
780.085	543.05
780.267	588.11
780.449	596.3
780.631	530.77
780.812	622.92
780.994	467.28
781.176	559.44
781.358	538.96
781.54	518.48
781.721	586.06
781.903	522.57
782.085	514.38
782.267	575.82
782.448	584.01
782.63	590.16
782.812	465.23
782.993	530.77
783.175	454.99
783.357	428.37
783.538	444.75
783.72	477.52
783.901	514.38
784.083	444.75
784.264	442.7
784.446	395.6
784.627	442.7
784.809	440.65
784.99	346.45
785.172	465.23
785.353	473.42
785.535	358.74
785.716	350.54
785.897	454.99
786.079	393.55
786.26	448.85
786.441	352.59
786.623	418.13
786.804	424.27
786.985	418.13
787.167	364.88
787.348	379.22
787.529	385.36
787.71	477.52
787.891	330.06
788.073	328.02
788.254	293.2
788.435	403.79
788.616	321.87
788.797	383.31
788.978	311.63
789.159	285.01
789.34	332.11
789.522	352.59
789.703	358.74
789.884	391.5
790.065	426.32
790.246	346.45
790.427	319.82
790.607	381.26
790.788	375.12
790.969	280.91
791.15	311.63
791.331	334.16
791.512	305.49
791.693	375.12
791.874	301.39
792.054	393.55
792.235	399.7
792.416	346.45
792.597	295.25
792.778	280.91
792.958	276.82
793.139	368.98
793.32	205.14
793.5	239.95
793.681	325.97
793.862	321.87
794.042	309.58
794.223	229.71
794.404	338.26
794.584	280.91
794.765	239.95
794.945	295.25
795.126	309.58
795.306	313.68
795.487	250.19
795.667	270.67
795.848	256.34
796.028	258.39
796.209	313.68
796.389	252.24
796.57	192.85
796.75	260.43
796.93	242
797.111	172.37
797.291	260.43
797.471	268.63
797.652	244.05
797.832	227.67
798.012	276.82
798.192	166.23
798.373	235.86
798.553	285.01
798.733	254.29
798.913	227.67
799.093	231.76
799.274	172.37
799.454	162.13
799.634	264.53
799.814	217.43
799.994	276.82
800.174	227.67
800.354	227.67
800.534	229.71
800.714	180.56
800.894	153.94
801.074	115.03
801.254	256.34
801.434	276.82
801.614	211.28
801.794	196.95
801.974	776.52
802.154	180.56
802.334	235.86
802.514	174.42
802.693	174.42
802.873	203.09
803.053	278.87
803.233	162.13
803.413	215.38
803.592	188.75
803.772	235.86
803.952	235.86
804.131	198.99
804.311	164.18
804.491	231.76
804.67	188.75
804.85	188.75
805.03	252.24
805.209	149.84
805.389	182.61
805.568	147.8
805.748	227.67
805.928	170.32
806.107	178.51
806.287	170.32
806.466	203.09
806.646	176.47
806.825	172.37
807.004	188.75
807.184	178.51
807.363	112.98
807.543	174.42
807.722	145.75
807.901	162.13
808.081	180.56
808.26	131.41
808.439	174.42
808.619	121.17
808.798	143.7
808.977	207.19
809.156	172.37
809.336	182.61
809.515	166.23
809.694	88.4
809.873	121.17
810.052	129.36
810.231	158.03
810.411	133.46
810.59	256.34
810.769	188.75
810.948	190.8
811.127	92.5
811.306	82.26
811.485	90.45
811.664	239.95
811.843	215.38
812.022	112.98
812.201	129.36
812.38	123.22
812.559	119.12
812.737	104.79
812.916	121.17
813.095	115.03
813.274	145.75
813.453	133.46
813.632	151.89
813.811	153.94
813.989	123.22
814.168	106.84
814.347	153.94
814.526	125.27
814.704	131.41
814.883	125.27
815.062	65.88
815.24	162.13
815.419	131.41
815.598	115.03
815.776	112.98
815.955	129.36
816.133	65.88
816.312	119.12
816.49	211.28
816.669	166.23
816.847	112.98
817.026	115.03
817.204	131.41
817.383	115.03
817.561	88.4
817.74	121.17
817.918	84.31
818.097	96.6
818.275	55.64
818.453	129.36
818.632	149.84
818.81	59.73
818.988	121.17
819.167	80.21
819.345	108.88
819.523	170.32
819.701	96.6
819.879	133.46
820.058	112.98
820.236	94.55
820.414	78.16
820.592	14.68
820.77	33.11
820.948	155.99
821.127	106.84
821.305	80.21
821.483	82.26
821.661	145.75
821.839	115.03
822.017	59.73
822.195	96.6
822.373	100.69
822.551	63.83
822.729	108.88
822.907	106.84
823.085	133.46
823.262	76.12
823.44	80.21
823.618	74.07
823.796	47.44
823.974	143.7
824.152	57.68
824.329	16.73
824.507	39.25
824.685	86.36
824.863	47.44
825.04	100.69
825.218	59.73
825.396	47.44
825.574	61.78
825.751	96.6
825.929	102.74
826.107	41.3
826.284	76.12
826.462	172.37
826.639	63.83
826.817	65.88
826.994	80.21
827.172	6.49
827.349	198.99
827.527	96.6
827.704	155.99
827.882	115.03
828.059	129.36
828.237	86.36
828.414	98.64
828.591	-5.8
828.769	47.44
828.946	16.73
829.124	123.22
829.301	90.45
829.478	59.73
829.655	90.45
829.833	39.25
830.01	59.73
830.187	57.68
830.364	123.22
830.542	106.84
830.719	96.6
830.896	43.35
831.073	104.79
831.25	162.13
831.427	35.16
831.604	106.84
831.782	0.34
831.959	69.97
832.136	80.21
832.313	155.99
832.49	65.88
832.667	104.79
832.844	-16.04
833.021	43.35
833.198	104.79
833.374	31.06
833.551	55.64
833.728	80.21
833.905	125.27
834.082	6.49
834.259	24.92
834.436	76.12
834.612	14.68
834.789	80.21
834.966	115.03
835.143	57.68
835.319	-1.71
835.496	80.21
835.673	51.54
835.85	14.68
836.026	26.96
836.203	100.69
836.38	31.06
836.556	-18.09
836.733	41.3
836.909	145.75
837.086	47.44
837.262	135.51
837.439	22.87
837.616	26.96
837.792	26.96
837.968	59.73
838.145	-26.28
838.321	110.93
838.498	108.88
838.674	-26.28
838.851	47.44
839.027	72.02
839.203	57.68
839.38	43.35
839.556	-5.8
839.732	88.4
839.909	63.83
840.085	78.16
840.261	-1.71
840.437	31.06
840.614	45.4
840.79	125.27
840.966	104.79
841.142	92.5
841.318	55.64
841.494	29.01
841.671	12.63
841.847	-46.76
842.023	67.92
842.199	55.64
842.375	24.92
842.551	41.3
842.727	20.82
842.903	76.12
843.079	72.02
843.255	80.21
843.431	-13.99
843.607	92.5
843.783	-59.05
843.959	59.73
844.134	24.92
844.31	57.68
844.486	39.25
844.662	14.68
844.838	45.4
845.013	39.25
845.189	90.45
845.365	76.12
845.541	39.25
845.716	-16.04
845.892	86.36
846.068	-5.8
846.244	41.3
846.419	22.87
846.595	-40.62
846.77	-13.99
846.946	14.68
847.122	-18.09
847.297	-3.75
847.473	82.26
847.648	-32.43
847.824	51.54
847.999	8.53
848.175	72.02
848.35	72.02
848.526	31.06
848.701	112.98
848.876	115.03
849.052	65.88
849.227	2.39
849.403	45.4
849.578	0.34
849.753	33.11
849.929	39.25
850.104	-32.43
850.279	18.77
850.454	26.96
850.63	43.35
850.805	-13.99
850.98	-5.8
851.155	-18.09
851.33	29.01
851.505	6.49
851.681	94.55
851.856	24.92
852.031	22.87
852.206	14.68
852.381	-32.43
852.556	20.82
852.731	63.83
852.906	39.25
853.081	16.73
853.256	90.45
853.431	-11.95
853.606	-28.33
853.781	76.12
853.956	49.49
854.131	35.16
854.305	29.01
854.48	-9.9
854.655	-30.38
854.83	-16.04
855.005	31.06
855.18	-48.81
855.354	-26.28
855.529	47.44
855.704	-24.23
855.879	-32.43
856.053	-18.09
856.228	43.35
856.403	-28.33
856.577	41.3
856.752	24.92
856.926	-18.09
857.101	47.44
857.276	-9.9
857.45	-44.71
857.625	10.58
857.799	-63.15
857.974	31.06
858.148	-11.95
858.323	49.49
858.497	31.06
858.672	47.44
858.846	4.44
859.02	49.49
859.195	-95.91
859.369	26.96
859.543	-32.43
859.718	90.45
859.892	31.06
860.066	31.06
860.241	-97.96
860.415	84.31
860.589	-59.05
860.763	-1.71
860.938	24.92
861.112	43.35
861.286	-3.75
861.46	24.92
861.634	14.68
861.808	31.06
861.982	24.92
862.157	18.77
862.331	-67.24
862.505	-1.71
862.679	10.58
862.853	-16.04
863.027	43.35
863.201	33.11
863.375	-34.47
863.549	65.88
863.722	-7.85
863.896	35.16
864.07	6.49
864.244	22.87
864.418	-50.86
864.592	6.49
864.766	80.21
864.939	-9.9
865.113	8.53
865.287	-34.47
865.461	8.53
865.634	-26.28
865.808	0.34
865.982	-5.8
866.156	49.49
866.329	-1.71
866.503	-5.8
866.676	104.79
866.85	-32.43
867.024	8.53
867.197	-1.71
867.371	22.87
867.544	39.25
867.718	35.16
867.891	53.59
868.065	-34.47
868.238	-44.71
868.412	14.68
868.585	-18.09
868.759	39.25
868.932	10.58
869.105	-22.19
869.279	-26.28
869.452	47.44
869.625	0.34
869.799	39.25
869.972	-95.91
870.145	-44.71
870.319	63.83
870.492	-13.99
870.665	76.12
870.838	-59.05
871.011	-67.24
871.185	24.92
871.358	14.68
871.531	8.53
871.704	-36.52
871.877	-26.28
872.05	-65.19
872.223	-34.47
872.396	69.97
872.569	-7.85
872.742	-18.09
872.915	49.49
873.088	2.39
873.261	49.49
873.434	22.87
873.607	31.06
873.78	35.16
873.953	-1.71
874.126	-11.95
874.299	65.88
874.471	-46.76
874.644	14.68
874.817	14.68
874.99	49.49
875.163	14.68
875.335	55.64
875.508	-11.95
875.681	55.64
875.853	49.49
876.026	10.58
876.199	-18.09
876.371	-18.09
876.544	35.16
876.717	72.02
876.889	35.16
877.062	47.44
877.234	-75.43
877.407	14.68
877.579	-20.14
877.752	39.25
877.924	22.87
878.097	-42.67
878.269	20.82
878.442	0.34
878.614	78.16
878.786	-16.04
878.959	39.25
879.131	0.34
879.303	-24.23
879.476	22.87
879.648	-26.28
879.82	-9.9
879.993	0.34
880.165	8.53
880.337	55.64
880.509	-9.9
880.681	-89.77
880.854	-46.76
881.026	-32.43
881.198	47.44
881.37	10.58
881.542	-38.57
881.714	-1.71
881.886	14.68
882.058	41.3
882.23	49.49
882.402	-38.57
882.574	39.25
882.746	26.96
882.918	55.64
883.09	31.06
883.262	24.92
883.434	-13.99
883.606	-46.76
883.778	-9.9
883.95	45.4
884.122	-50.86
884.293	2.39
884.465	43.35
884.637	18.77
884.809	6.49
884.98	63.83
885.152	51.54
885.324	-13.99
885.496	-32.43
885.667	67.92
885.839	-26.28
886.011	-5.8
886.182	8.53
886.354	22.87
886.525	41.3
886.697	59.73
886.869	-65.19
887.04	-42.67
887.212	-5.8
887.383	-5.8
887.555	35.16
887.726	39.25
887.897	-54.95
888.069	-16.04
888.24	22.87
888.412	37.2
888.583	-18.09
888.754	-26.28
888.926	-48.81
889.097	-11.95
889.268	-18.09
889.44	35.16
889.611	31.06
889.782	-16.04
889.953	26.96
890.125	57.68
890.296	8.53
890.467	69.97
890.638	-30.38
890.809	65.88
890.98	-85.67
891.151	22.87
891.323	88.4
891.494	-67.24
891.665	-5.8
891.836	39.25
892.007	-1.71
892.178	72.02
892.349	-32.43
892.52	-26.28
892.691	-32.43
892.862	6.49
893.032	-30.38
893.203	10.58
893.374	-1.71
893.545	69.97
893.716	-24.23
893.887	47.44
894.057	-11.95
894.228	16.73
894.399	14.68
894.57	98.64
894.74	-26.28
894.911	10.58
895.082	-57
895.253	2.39
895.423	10.58
895.594	-44.71
895.764	-71.34
895.935	-11.95
896.106	6.49
896.276	-24.23
896.447	-5.8
896.617	-20.14
896.788	-63.15
896.958	-7.85
897.129	-26.28
897.299	-79.53
897.47	26.96
897.64	-18.09
897.81	-110.25
897.981	24.92
898.151	6.49
898.322	-26.28
898.492	0.34
898.662	-26.28
898.832	-40.62
899.003	-54.95
899.173	74.07
899.343	8.53
899.513	-77.48
