Data from USB4F104151__28__14-42-46-586.txt Node

Date: Thu Mar 13 14:42:46 EDT 2025
User: louis
Spectrometer: USB4F10415
Trigger mode: 4
Integration Time (sec): 2.000000E-2
Scans to average: 1
Electric dark correction enabled: true
Nonlinearity correction enabled: false
Boxcar width: 0
XAxis mode: Wavelengths
Number of Pixels in Spectrum: 3648
>>>>>Begin Spectral Data<<<<<
178.204	-182.95
178.424	-182.95
178.644	-182.95
178.864	-105.13
179.084	-176.81
179.304	-12.97
179.524	42.32
179.744	-47.79
179.964	58.71
180.184	-37.55
180.404	-15.02
180.624	21.84
180.844	-37.55
181.064	17.75
181.283	7.51
181.503	-15.02
181.723	17.75
181.943	-8.87
182.163	36.18
182.383	5.46
182.602	97.62
182.822	32.08
183.042	25.94
183.262	-4.78
183.482	-17.07
183.701	-70.31
183.921	58.71
184.141	-2.73
184.361	-29.35
184.58	11.61
184.8	97.62
185.02	40.28
185.239	-8.87
185.459	68.95
185.679	38.23
185.898	30.04
186.118	60.76
186.338	-78.51
186.557	1.37
186.777	23.89
186.997	-6.83
187.216	-0.68
187.436	48.47
187.655	7.51
187.875	-17.07
188.095	46.42
188.314	-0.68
188.534	-0.68
188.753	-33.45
188.973	-12.97
189.192	89.43
189.412	40.28
189.631	30.04
189.851	-2.73
190.07	50.52
190.29	19.8
190.509	-15.02
190.729	7.51
190.948	-12.97
191.168	173.39
191.387	-21.16
191.607	40.28
191.826	-60.07
192.045	32.08
192.265	11.61
192.484	-47.79
192.704	58.71
192.923	44.37
193.142	122.2
193.362	23.89
193.581	-8.87
193.8	58.71
194.02	68.95
194.239	32.08
194.458	48.47
194.678	1.37
194.897	30.04
195.116	-37.55
195.335	1.37
195.555	40.28
195.774	40.28
195.993	3.41
196.212	15.7
196.432	3.41
196.651	19.8
196.87	-8.87
197.089	116.05
197.308	89.43
197.528	81.24
197.747	9.56
197.966	66.9
198.185	73.04
198.404	-49.83
198.623	-0.68
198.842	48.47
199.062	138.58
199.281	73.04
199.5	40.28
199.719	50.52
199.938	-17.07
200.157	40.28
200.376	81.24
200.595	40.28
200.814	-17.07
201.033	15.7
201.252	52.56
201.471	-43.69
201.69	105.81
201.909	42.32
202.128	75.09
202.347	44.37
202.566	21.84
202.785	44.37
203.004	-0.68
203.223	58.71
203.442	-25.26
203.661	-49.83
203.879	40.28
204.098	83.28
204.317	-51.88
204.536	40.28
204.755	11.61
204.974	44.37
205.193	79.19
205.411	138.58
205.63	7.51
205.849	-10.92
206.068	42.32
206.287	40.28
206.505	25.94
206.724	32.08
206.943	44.37
207.162	-0.68
207.381	21.84
207.599	17.75
207.818	-74.41
208.037	25.94
208.255	-39.59
208.474	66.9
208.693	9.56
208.911	-10.92
209.13	73.04
209.349	30.04
209.567	23.89
209.786	48.47
210.005	50.52
210.223	15.7
210.442	64.85
210.661	36.18
210.879	25.94
211.098	38.23
211.316	23.89
211.535	-6.83
211.753	23.89
211.972	85.33
212.191	-47.79
212.409	40.28
212.628	25.94
212.846	73.04
213.065	17.75
213.283	21.84
213.502	42.32
213.72	36.18
213.938	36.18
214.157	36.18
214.375	42.32
214.594	40.28
214.812	36.18
215.031	23.89
215.249	-55.98
215.467	-64.17
215.686	-23.21
215.904	32.08
216.122	7.51
216.341	99.67
216.559	25.94
216.778	83.28
216.996	73.04
217.214	42.32
217.432	-0.68
217.651	44.37
217.869	40.28
218.087	-0.68
218.306	32.08
218.524	77.14
218.742	36.18
218.96	73.04
219.179	42.32
219.397	-31.4
219.615	75.09
219.833	40.28
220.051	66.9
220.27	32.08
220.488	9.56
220.706	11.61
220.924	-10.92
221.142	-17.07
221.36	42.32
221.578	-33.45
221.796	81.24
222.015	32.08
222.233	-10.92
222.451	95.57
222.669	5.46
222.887	64.85
223.105	7.51
223.323	-8.87
223.541	-10.92
223.759	77.14
223.977	25.94
224.195	19.8
224.413	48.47
224.631	56.66
224.849	-45.74
225.067	77.14
225.285	-37.55
225.503	58.71
225.721	-25.26
225.939	23.89
226.157	32.08
226.375	66.9
226.592	66.9
226.81	-0.68
227.028	34.13
227.246	64.85
227.464	56.66
227.682	81.24
227.9	1.37
228.117	11.61
228.335	5.46
228.553	48.47
228.771	19.8
228.989	64.85
229.206	-10.92
229.424	40.28
229.642	-25.26
229.86	40.28
230.077	1.37
230.295	40.28
230.513	85.33
230.731	34.13
230.948	15.7
231.166	32.08
231.384	11.61
231.601	44.37
231.819	15.7
232.037	40.28
232.254	32.08
232.472	3.41
232.689	-2.73
232.907	48.47
233.125	3.41
233.342	81.24
233.56	-35.5
233.777	-15.02
233.995	17.75
234.213	71
234.43	-39.59
234.648	58.71
234.865	46.42
235.083	75.09
235.3	-17.07
235.518	15.7
235.735	-33.45
235.953	15.7
236.17	36.18
236.388	40.28
236.605	-15.02
236.822	1.37
237.04	40.28
237.257	58.71
237.475	-23.21
237.692	-58.03
237.909	85.33
238.127	-10.92
238.344	114
238.562	32.08
238.779	-49.83
238.996	-0.68
239.214	-12.97
239.431	75.09
239.648	66.9
239.865	64.85
240.083	48.47
240.3	-43.69
240.517	-12.97
240.735	-29.35
240.952	-12.97
241.169	85.33
241.386	48.47
241.603	48.47
241.821	-39.59
242.038	34.13
242.255	1.37
242.472	-0.68
242.689	21.84
242.907	87.38
243.124	23.89
243.341	-0.68
243.558	-17.07
243.775	-4.78
243.992	-41.64
244.209	21.84
244.426	97.62
244.643	73.04
244.86	23.89
245.078	44.37
245.295	83.28
245.512	23.89
245.729	-17.07
245.946	42.32
246.163	54.61
246.38	23.89
246.597	23.89
246.814	9.56
247.031	56.66
247.248	-15.02
247.464	68.95
247.681	97.62
247.898	40.28
248.115	64.85
248.332	40.28
248.549	-35.5
248.766	105.81
248.983	68.95
249.2	23.89
249.417	120.15
249.633	52.56
249.85	34.13
250.067	48.47
250.284	9.56
250.501	79.19
250.717	93.52
250.934	3.41
251.151	64.85
251.368	21.84
251.585	116.05
251.801	54.61
252.018	-0.68
252.235	66.9
252.451	-0.68
252.668	9.56
252.885	-17.07
253.102	46.42
253.318	50.52
253.535	15.7
253.752	81.24
253.968	-41.64
254.185	97.62
254.401	64.85
254.618	32.08
254.835	36.18
255.051	40.28
255.268	36.18
255.484	-0.68
255.701	-23.21
255.917	48.47
256.134	-0.68
256.351	-0.68
256.567	-39.59
256.784	19.8
257	-21.16
257.217	19.8
257.433	64.85
257.65	52.56
257.866	-41.64
258.082	23.89
258.299	48.47
258.515	11.61
258.732	34.13
258.948	11.61
259.165	62.8
259.381	-6.83
259.597	11.61
259.814	66.9
260.03	50.52
260.246	-33.45
260.463	52.56
260.679	9.56
260.895	50.52
261.112	32.08
261.328	44.37
261.544	-12.97
261.761	175.44
261.977	11.61
262.193	-35.5
262.409	64.85
262.626	81.24
262.842	-17.07
263.058	-43.69
263.274	7.51
263.49	15.7
263.707	73.04
263.923	58.71
264.139	-25.26
264.355	36.18
264.571	122.2
264.787	91.48
265.004	23.89
265.22	1.37
265.436	-2.73
265.652	56.66
265.868	40.28
266.084	15.7
266.3	81.24
266.516	19.8
266.732	52.56
266.948	54.61
267.164	19.8
267.38	42.32
267.596	27.99
267.812	138.58
268.028	66.9
268.244	-0.68
268.46	23.89
268.676	40.28
268.892	-15.02
269.108	-33.45
269.324	15.7
269.54	40.28
269.756	93.52
269.972	-4.78
270.188	-8.87
270.403	-2.73
270.619	-4.78
270.835	40.28
271.051	23.89
271.267	42.32
271.483	-4.78
271.698	56.66
271.914	1.37
272.13	15.7
272.346	62.8
272.562	-33.45
272.777	19.8
272.993	7.51
273.209	34.13
273.425	23.89
273.64	-37.55
273.856	44.37
274.072	32.08
274.287	-0.68
274.503	52.56
274.719	58.71
274.934	-21.16
275.15	11.61
275.366	17.75
275.581	60.76
275.797	60.76
276.012	17.75
276.228	-62.12
276.444	25.94
276.659	68.95
276.875	-8.87
277.09	81.24
277.306	-8.87
277.521	42.32
277.737	7.51
277.952	87.38
278.168	-10.92
278.383	-53.93
278.599	42.32
278.814	89.43
279.03	23.89
279.245	179.54
279.461	5.46
279.676	40.28
279.892	-17.07
280.107	-2.73
280.322	9.56
280.538	99.67
280.753	-4.78
280.969	48.47
281.184	-6.83
281.399	1.37
281.615	-41.64
281.83	48.47
282.045	32.08
282.26	36.18
282.476	77.14
282.691	23.89
282.906	64.85
283.122	27.99
283.337	42.32
283.552	-17.07
283.767	3.41
283.983	-25.26
284.198	50.52
284.413	56.66
284.628	-4.78
284.843	-0.68
285.058	-17.07
285.274	27.99
285.489	-4.78
285.704	99.67
285.919	-12.97
286.134	-0.68
286.349	44.37
286.564	27.99
286.779	23.89
286.995	56.66
287.21	-31.4
287.425	83.28
287.64	-17.07
287.855	19.8
288.07	42.32
288.285	23.89
288.5	109.91
288.715	79.19
288.93	42.32
289.145	-33.45
289.36	71
289.575	-15.02
289.79	77.14
290.004	-31.4
290.219	11.61
290.434	-4.78
290.649	60.76
290.864	105.81
291.079	5.46
291.294	32.08
291.509	64.85
291.724	23.89
291.938	9.56
292.153	13.65
292.368	27.99
292.583	44.37
292.798	34.13
293.012	60.76
293.227	-41.64
293.442	-6.83
293.657	105.81
293.871	85.33
294.086	73.04
294.301	68.95
294.516	-4.78
294.73	-47.79
294.945	50.52
295.16	42.32
295.374	107.86
295.589	7.51
295.804	44.37
296.018	42.32
296.233	52.56
296.447	23.89
296.662	73.04
296.877	11.61
297.091	-15.02
297.306	32.08
297.52	-25.26
297.735	7.51
297.949	83.28
298.164	-12.97
298.378	81.24
298.593	-62.12
298.807	40.28
299.022	56.66
299.236	23.89
299.451	50.52
299.665	17.75
299.88	44.37
300.094	19.8
300.309	58.71
300.523	42.32
300.737	-21.16
300.952	-25.26
301.166	46.42
301.381	-17.07
301.595	-0.68
301.809	-10.92
302.024	7.51
302.238	3.41
302.452	15.7
302.667	48.47
302.881	83.28
303.095	85.33
303.309	50.52
303.524	81.24
303.738	25.94
303.952	17.75
304.166	17.75
304.381	-55.98
304.595	124.24
304.809	-8.87
305.023	48.47
305.237	-15.02
305.452	85.33
305.666	58.71
305.88	17.75
306.094	56.66
306.308	19.8
306.522	83.28
306.736	68.95
306.95	-8.87
307.164	25.94
307.379	-80.55
307.593	56.66
307.807	23.89
308.021	11.61
308.235	19.8
308.449	38.23
308.663	58.71
308.877	89.43
309.091	25.94
309.305	-8.87
309.519	-10.92
309.733	42.32
309.947	23.89
310.161	58.71
310.374	36.18
310.588	87.38
310.802	-53.93
311.016	36.18
311.23	1.37
311.444	64.85
311.658	27.99
311.872	40.28
312.085	134.48
312.299	66.9
312.513	130.39
312.727	116.05
312.941	-37.55
313.154	66.9
313.368	-6.83
313.582	101.72
313.796	77.14
314.009	7.51
314.223	93.52
314.437	-33.45
314.651	32.08
314.864	50.52
315.078	64.85
315.292	52.56
315.505	7.51
315.719	3.41
315.933	11.61
316.146	25.94
316.36	-6.83
316.573	85.33
316.787	48.47
317.001	56.66
317.214	34.13
317.428	95.57
317.641	23.89
317.855	44.37
318.068	21.84
318.282	40.28
318.495	126.29
318.709	27.99
318.922	15.7
319.136	81.24
319.349	56.66
319.563	56.66
319.776	-4.78
319.99	25.94
320.203	-49.83
320.417	122.2
320.63	-4.78
320.843	77.14
321.057	38.23
321.27	50.52
321.483	85.33
321.697	40.28
321.91	109.91
322.124	64.85
322.337	-17.07
322.55	-29.35
322.763	25.94
322.977	34.13
323.19	68.95
323.403	-23.21
323.617	77.14
323.83	107.86
324.043	23.89
324.256	-0.68
324.469	-35.5
324.683	38.23
324.896	7.51
325.109	52.56
325.322	56.66
325.535	23.89
325.748	44.37
325.962	13.65
326.175	60.76
326.388	97.62
326.601	95.57
326.814	36.18
327.027	-6.83
327.24	50.52
327.453	-25.26
327.666	-21.16
327.879	75.09
328.092	-2.73
328.305	-55.98
328.518	-29.35
328.731	-8.87
328.944	56.66
329.157	56.66
329.37	-2.73
329.583	99.67
329.796	146.77
330.009	3.41
330.222	27.99
330.435	77.14
330.648	32.08
330.861	60.76
331.073	11.61
331.286	64.85
331.499	77.14
331.712	52.56
331.925	27.99
332.138	-4.78
332.35	64.85
332.563	40.28
332.776	124.24
332.989	27.99
333.202	1.37
333.414	5.46
333.627	-37.55
333.84	81.24
334.053	52.56
334.265	62.8
334.478	-49.83
334.691	40.28
334.903	27.99
335.116	128.34
335.329	40.28
335.541	-2.73
335.754	103.76
335.966	40.28
336.179	38.23
336.392	54.61
336.604	-6.83
336.817	9.56
337.029	75.09
337.242	1.37
337.454	3.41
337.667	-33.45
337.88	60.76
338.092	83.28
338.305	40.28
338.517	-53.93
338.729	138.58
338.942	140.63
339.154	-107.18
339.367	-37.55
339.579	89.43
339.792	-15.02
340.004	56.66
340.217	97.62
340.429	11.61
340.641	-0.68
340.854	-2.73
341.066	27.99
341.278	56.66
341.491	50.52
341.703	-15.02
341.915	30.04
342.128	-12.97
342.34	34.13
342.552	13.65
342.764	-23.21
342.977	7.51
343.189	19.8
343.401	32.08
343.613	19.8
343.826	40.28
344.038	60.76
344.25	-4.78
344.462	85.33
344.674	64.85
344.886	-0.68
345.099	71
345.311	36.18
345.523	71
345.735	-17.07
345.947	13.65
346.159	44.37
346.371	-58.03
346.583	32.08
346.795	77.14
347.007	1.37
347.219	19.8
347.431	-29.35
347.643	48.47
347.855	-17.07
348.067	56.66
348.279	9.56
348.491	50.52
348.703	144.72
348.915	54.61
349.127	9.56
349.339	-4.78
349.551	-0.68
349.763	167.25
349.975	85.33
350.187	56.66
350.399	-0.68
350.61	40.28
350.822	1.37
351.034	97.62
351.246	15.7
351.458	50.52
351.669	34.13
351.881	60.76
352.093	-0.68
352.305	73.04
352.517	34.13
352.728	73.04
352.94	9.56
353.152	73.04
353.363	-2.73
353.575	64.85
353.787	50.52
353.999	27.99
354.21	83.28
354.422	-15.02
354.633	-8.87
354.845	23.89
355.057	-8.87
355.268	-12.97
355.48	32.08
355.692	11.61
355.903	25.94
356.115	23.89
356.326	21.84
356.538	130.39
356.749	68.95
356.961	93.52
357.172	58.71
357.384	64.85
357.595	130.39
357.807	56.66
358.018	-8.87
358.23	68.95
358.441	50.52
358.653	83.28
358.864	7.51
359.075	-6.83
359.287	-17.07
359.498	27.99
359.709	-8.87
359.921	64.85
360.132	15.7
360.344	-29.35
360.555	-17.07
360.766	83.28
360.977	93.52
361.189	-8.87
361.4	44.37
361.611	103.76
361.823	46.42
362.034	17.75
362.245	-17.07
362.456	23.89
362.667	3.41
362.879	32.08
363.09	77.14
363.301	83.28
363.512	17.75
363.723	19.8
363.935	15.7
364.146	11.61
364.357	48.47
364.568	56.66
364.779	34.13
364.99	-15.02
365.201	-17.07
365.412	19.8
365.623	23.89
365.834	-21.16
366.045	23.89
366.256	52.56
366.467	-25.26
366.678	116.05
366.889	40.28
367.1	-0.68
367.311	27.99
367.522	15.7
367.733	27.99
367.944	89.43
368.155	44.37
368.366	19.8
368.577	107.86
368.788	144.72
368.999	27.99
369.209	-6.83
369.42	122.2
369.631	163.15
369.842	-8.87
370.053	32.08
370.264	64.85
370.474	30.04
370.685	122.2
370.896	-8.87
371.107	89.43
371.317	114
371.528	3.41
371.739	97.62
371.95	83.28
372.16	52.56
372.371	-17.07
372.582	-8.87
372.792	27.99
373.003	42.32
373.214	56.66
373.424	56.66
373.635	13.65
373.846	73.04
374.056	54.61
374.267	64.85
374.477	48.47
374.688	-6.83
374.898	48.47
375.109	42.32
375.319	9.56
375.53	93.52
375.74	101.72
375.951	87.38
376.161	91.48
376.372	48.47
376.582	23.89
376.793	58.71
377.003	23.89
377.214	9.56
377.424	163.15
377.635	1.37
377.845	46.42
378.055	99.67
378.266	32.08
378.476	-58.03
378.686	23.89
378.897	77.14
379.107	46.42
379.317	77.14
379.528	-17.07
379.738	77.14
379.948	19.8
380.158	124.24
380.369	36.18
380.579	54.61
380.789	44.37
380.999	73.04
381.21	23.89
381.42	109.91
381.63	-6.83
381.84	93.52
382.05	32.08
382.261	91.48
382.471	-8.87
382.681	-0.68
382.891	91.48
383.101	105.81
383.311	83.28
383.521	-0.68
383.731	1.37
383.941	85.33
384.151	44.37
384.361	40.28
384.571	60.76
384.781	105.81
384.991	126.29
385.201	34.13
385.411	109.91
385.621	-12.97
385.831	60.76
386.041	93.52
386.251	97.62
386.461	99.67
386.671	-15.02
386.881	58.71
387.091	9.56
387.301	30.04
387.511	42.32
387.72	58.71
387.93	81.24
388.14	-2.73
388.35	161.11
388.56	40.28
388.769	40.28
388.979	52.56
389.189	-0.68
389.399	25.94
389.609	154.96
389.818	58.71
390.028	66.9
390.238	91.48
390.447	60.76
390.657	36.18
390.867	58.71
391.076	79.19
391.286	89.43
391.496	91.48
391.705	64.85
391.915	52.56
392.125	114
392.334	17.75
392.544	36.18
392.753	50.52
392.963	-10.92
393.172	89.43
393.382	34.13
393.591	97.62
393.801	-0.68
394.01	130.39
394.22	81.24
394.429	44.37
394.639	1.37
394.848	48.47
395.058	64.85
395.267	-23.21
395.477	66.9
395.686	132.44
395.895	105.81
396.105	132.44
396.314	32.08
396.524	91.48
396.733	9.56
396.942	81.24
397.152	91.48
397.361	109.91
397.57	93.52
397.78	66.9
397.989	87.38
398.198	48.47
398.407	103.76
398.617	48.47
398.826	120.15
399.035	85.33
399.244	103.76
399.453	50.52
399.663	9.56
399.872	77.14
400.081	64.85
400.29	124.24
400.499	19.8
400.708	68.95
400.917	75.09
401.127	73.04
401.336	32.08
401.545	116.05
401.754	122.2
401.963	132.44
402.172	83.28
402.381	89.43
402.59	122.2
402.799	171.35
403.008	75.09
403.217	23.89
403.426	64.85
403.635	52.56
403.844	93.52
404.053	146.77
404.262	136.53
404.471	222.55
404.68	114
404.888	95.57
405.097	91.48
405.306	118.1
405.515	109.91
405.724	124.24
405.933	154.96
406.142	85.33
406.35	148.82
406.559	114
406.768	64.85
406.977	122.2
407.185	146.77
407.394	130.39
407.603	114
407.812	161.11
408.02	228.69
408.229	187.73
408.438	179.54
408.646	154.96
408.855	105.81
409.064	154.96
409.272	218.45
409.481	261.46
409.69	195.92
409.898	187.73
410.107	257.36
410.315	236.88
410.524	292.18
410.733	245.07
410.941	234.83
411.15	245.07
411.358	343.38
411.567	363.86
411.775	259.41
411.984	255.31
412.192	337.23
412.401	353.62
412.609	343.38
412.818	382.29
413.026	355.66
413.234	413.01
413.443	441.68
413.651	380.24
413.86	372.05
414.068	458.06
414.276	490.83
414.485	380.24
414.693	470.35
414.901	572.75
415.11	484.69
415.318	447.82
415.526	462.16
415.734	554.32
415.943	499.02
416.151	511.31
416.359	660.81
416.567	568.65
416.776	705.87
416.984	675.15
417.192	712.01
417.4	677.19
417.608	656.72
417.817	705.87
418.025	871.75
418.233	851.27
418.441	785.74
418.649	841.03
418.857	916.81
419.065	925
419.273	890.18
419.481	1006.92
419.689	1109.32
419.897	1076.55
420.105	1129.8
420.313	994.63
420.521	1156.42
420.729	1131.84
420.937	1129.8
421.145	1244.48
421.353	1252.67
421.561	1414.46
421.769	1318.21
421.977	1404.22
422.185	1312.07
422.393	1432.9
422.601	1574.21
422.809	1549.63
423.017	1557.82
423.224	1725.75
423.432	1627.45
423.64	1703.23
423.848	1826.11
424.056	1801.53
424.263	1967.42
424.471	1918.26
424.679	1985.85
424.887	2096.44
425.094	2133.3
425.302	2202.93
425.51	2293.04
425.718	2401.58
425.925	2342.19
426.133	2401.58
426.341	2612.53
426.548	2628.91
426.756	2594.09
426.964	2723.12
427.171	2874.67
427.379	2999.59
427.586	3050.79
427.794	3151.14
428.001	3349.79
428.209	3345.7
428.417	3341.6
428.624	3534.11
428.832	3509.54
429.039	3474.72
429.247	3656.99
429.454	3847.45
429.662	4005.14
429.869	3771.68
430.076	4179.22
430.284	4056.34
430.491	4140.31
430.699	4545.81
430.906	4463.89
431.114	4472.08
431.321	4740.36
431.528	4709.65
431.736	5012.74
431.943	5365
432.15	5053.7
432.358	5041.42
432.565	5442.82
432.772	5408
432.979	5700.86
433.187	5903.61
433.394	5795.07
433.601	5766.4
433.808	6147.32
434.016	6200.57
434.223	6444.27
434.43	6778.09
434.637	6692.08
434.844	7048.43
435.052	7191.78
435.259	7257.32
435.466	7310.57
435.673	7081.19
435.88	7769.31
436.087	8256.73
436.294	8041.69
436.501	7888.09
436.708	8094.94
436.915	8285.4
437.122	8654.03
437.329	8592.59
437.537	9014.48
437.743	8809.68
437.95	8867.02
438.157	9538.76
438.364	9923.77
438.571	9837.76
438.778	9794.75
438.985	10634.42
439.192	10118.33
439.399	10470.58
439.606	10335.42
439.813	10996.91
440.02	11488.42
440.227	11402.41
440.433	11228.33
440.64	11484.33
440.847	11789.47
441.054	11867.3
441.261	12743.83
441.467	12412.06
441.674	12872.85
441.881	13341.83
442.088	12977.3
442.294	12854.42
442.501	13419.66
442.708	13780.1
442.914	14199.93
443.121	14929.01
443.328	14472.31
443.534	15391.85
443.741	14875.76
443.948	14619.77
444.154	15946.85
444.361	15993.95
444.568	15991.91
444.774	16006.24
444.981	15914.08
445.187	16573.53
445.394	17204.3
445.6	16942.16
445.807	18512.95
446.013	17574.99
446.22	18150.46
446.426	18957.36
446.633	19160.11
446.839	19807.27
447.046	18846.77
447.252	19975.2
447.459	20200.48
447.665	20177.95
447.871	20605.98
448.078	21500.94
448.284	20792.34
448.491	21218.32
448.697	21783.56
448.903	22469.63
449.11	22699
449.316	22109.19
449.522	22690.81
449.728	23553.01
449.935	23299.06
450.141	23047.16
450.347	23968.74
450.553	23077.88
450.76	23778.28
450.966	24411.1
451.172	24140.77
451.378	24531.93
451.584	24050.66
451.791	24697.82
451.997	24660.96
452.203	25324.5
452.409	25144.28
452.615	25078.74
452.821	24054.76
453.027	24021.99
453.233	25226.2
453.44	23954.41
453.646	24558.56
453.852	24683.48
454.058	25191.38
454.264	24019.94
454.47	24816.6
454.676	23962.6
454.882	24937.43
455.088	22715.39
455.294	23147.51
455.5	23331.83
455.705	23897.06
455.911	22815.74
456.117	22381.57
456.323	22176.77
456.529	21144.59
456.735	21986.31
456.941	21437.45
457.147	20970.52
457.352	20417.57
457.558	20177.95
457.764	20364.32
457.97	19969.06
458.176	19516.46
458.381	19561.51
458.587	18572.35
458.793	18488.38
458.999	17591.37
459.204	18926.64
459.41	18119.74
459.616	16948.31
459.821	17263.69
460.027	16991.31
460.233	16628.82
460.438	16108.64
460.644	16084.06
460.85	15522.92
461.055	15076.46
461.261	15062.13
461.466	14183.55
461.672	13552.77
461.878	14533.75
462.083	13544.58
462.289	13266.06
462.494	12870.8
462.7	12485.78
462.905	12291.23
463.111	12559.51
463.316	12803.22
463.522	12385.43
463.727	12369.05
463.932	12252.31
464.138	12412.06
464.343	12270.75
464.549	12115.1
464.754	12348.57
464.959	12459.16
465.165	12121.24
465.37	11746.47
465.575	11275.43
465.781	11840.67
465.986	12018.85
466.191	11199.66
466.397	11099.31
466.602	10831.02
466.807	11236.52
467.012	10974.38
467.218	11328.68
467.423	10970.29
467.628	11115.69
467.833	11637.92
468.038	10986.67
468.244	10806.45
468.449	10976.43
468.654	10947.76
468.859	10937.52
469.064	10767.54
469.269	10407.09
469.474	10364.09
469.679	10589.36
469.885	10304.7
470.09	10386.61
470.295	10099.9
470.5	9905.34
470.705	10177.72
470.91	10026.17
471.115	9813.18
471.32	10069.18
471.525	10011.84
471.73	9671.87
471.935	9544.9
472.139	9340.1
472.344	9440.45
472.549	9663.68
472.754	9176.27
472.959	9327.82
473.164	9045.2
473.369	8740.05
473.574	9192.65
473.778	8938.7
473.983	8918.22
474.188	8809.68
474.393	8420.56
474.598	8529.11
474.802	8305.88
475.007	8635.6
475.212	8357.08
475.417	8074.46
475.621	8082.65
475.826	8080.6
476.031	8060.12
476.235	7824.61
476.44	7992.54
476.645	7617.76
476.849	7826.65
477.054	7564.51
477.259	7482.6
477.463	7773.41
477.668	7242.98
477.872	7496.93
478.077	7406.82
478.282	7187.69
478.486	7105.77
478.691	6982.89
478.895	6948.08
479.1	6915.31
479.304	7103.72
479.509	6808.81
479.713	6749.42
479.918	6708.46
480.122	6749.42
480.326	6774
480.531	6886.64
480.735	6784.24
480.94	6610.16
481.144	6862.06
481.348	6612.21
481.553	6698.22
481.757	6472.95
481.961	6657.26
482.166	6833.39
482.37	6681.84
482.574	6716.65
482.778	6452.47
482.983	6593.78
483.187	6565.11
483.391	6651.12
483.595	6257.91
483.8	6458.61
484.004	6712.56
484.208	6640.88
484.412	6585.58
484.616	6579.44
484.821	6638.83
485.025	6442.23
485.229	6558.96
485.433	6526.19
485.637	6659.31
485.841	6489.33
486.045	6558.96
486.249	6634.74
486.453	6503.67
486.657	6470.9
486.861	6511.86
487.065	6364.4
487.269	6440.18
487.473	6282.49
487.677	6483.19
487.881	6622.45
488.085	6583.54
488.289	6571.25
488.493	6376.69
488.697	6675.7
488.901	6663.41
489.105	6634.74
489.309	6462.71
489.512	6620.4
489.716	6468.85
489.92	6642.93
490.124	6708.46
490.328	6737.13
490.531	6532.34
490.735	6819.05
490.939	6790.38
491.143	6872.3
491.346	6702.32
491.55	6757.61
491.754	6851.82
491.958	6952.17
492.161	6786.29
492.365	6968.55
492.569	7089.39
492.772	6925.55
492.976	7040.23
493.18	6950.12
493.383	7095.53
493.587	7023.85
493.79	7224.55
493.994	7183.59
494.197	7073
494.401	7292.13
494.605	7388.39
494.808	7281.89
495.012	7359.72
495.215	7402.72
495.419	7718.11
495.622	7611.62
495.825	7658.72
496.029	7671.01
496.232	7808.22
496.436	7765.21
496.639	7912.67
496.843	8029.4
497.046	7937.24
497.249	8066.27
497.453	8049.88
497.656	8283.35
497.859	8236.25
498.063	8383.7
498.266	8651.99
498.469	8518.87
498.673	8649.94
498.876	8977.61
499.079	8799.44
499.282	8789.2
499.485	9182.41
499.689	9149.64
499.892	9186.51
500.095	9141.45
500.298	9565.38
500.501	9465.03
500.705	9798.85
500.908	9790.66
501.111	9929.92
501.314	10077.37
501.517	10144.95
501.72	10161.34
501.923	10243.26
502.126	10157.24
502.329	10759.35
502.532	10552.5
502.735	10763.44
502.938	10919.09
503.141	10945.71
503.344	11097.26
503.547	11316.39
503.75	11394.22
503.953	11680.93
504.156	11697.31
504.359	11680.93
504.562	11869.34
504.765	12035.23
504.968	12090.52
505.17	12313.75
505.373	12469.4
505.576	12668.05
505.779	12846.23
505.982	12688.53
506.185	13171.85
506.387	13182.09
506.59	13167.76
506.793	13520.01
506.996	13536.39
507.198	14072.96
507.401	13843.59
507.604	13970.56
507.807	14253.18
508.009	14421.11
508.212	14509.18
508.415	14670.97
508.617	14662.77
508.82	14888.05
509.022	14883.95
509.225	15203.44
509.428	15348.84
509.63	15762.53
509.833	15713.38
510.035	16006.24
510.238	15912.03
510.44	16178.27
510.643	16561.24
510.845	16501.85
511.048	16411.74
511.25	16647.26
511.453	16882.77
511.655	17464.39
511.858	17177.68
512.06	17464.39
512.262	17609.8
512.465	17529.93
512.667	18097.22
512.87	18355.26
513.072	18101.31
513.274	18502.71
513.477	18801.72
513.679	19119.15
513.881	18725.94
514.084	19135.54
514.286	19127.35
514.488	19495.98
514.69	19948.58
514.893	20061.22
515.095	20329.5
515.297	20374.56
515.499	20401.18
515.701	20681.75
515.904	20765.72
516.106	21244.95
516.308	21226.51
516.51	21543.95
516.712	21646.35
516.914	21834.76
517.116	22207.49
517.318	22340.61
517.52	22526.97
517.722	22656
517.925	22981.62
518.127	23159.8
518.329	23333.87
518.531	23092.21
518.733	23811.05
518.935	24044.52
519.136	23835.63
519.338	24308.71
519.54	24247.27
519.742	24689.63
519.944	24910.81
520.146	25185.24
520.348	25467.86
520.55	25541.58
520.752	25541.58
520.954	26119.11
521.155	25566.16
521.357	26426.31
521.559	26397.63
521.761	26667.97
521.963	26901.43
522.164	26887.1
522.366	26844.09
522.568	27093.94
522.77	27376.56
522.971	27882.41
523.173	27462.58
523.375	27575.22
523.576	27894.7
523.778	27945.9
523.98	28324.77
524.181	28554.15
524.383	28742.56
524.584	28941.21
524.786	29086.62
524.988	28873.63
525.189	29068.19
525.391	29664.14
525.592	29649.81
525.794	29889.42
525.995	29635.47
526.197	29729.68
526.398	30108.55
526.6	30258.06
526.801	29922.19
527.003	30460.8
527.204	30636.93
527.406	31081.34
527.607	30655.36
527.808	30690.18
528.01	30266.25
528.211	30739.33
528.412	31191.93
528.614	31300.47
528.815	31148.92
529.016	31329.14
529.218	31183.74
529.419	31452.02
529.62	31292.28
529.822	31615.86
530.023	31472.5
530.224	31273.85
530.425	31527.8
530.626	31409.01
530.828	31589.24
531.029	31953.77
531.23	31482.74
531.431	31728.5
531.632	31959.92
531.833	31804.27
532.035	31992.69
532.236	32408.42
532.437	32285.54
532.638	32197.48
532.839	32064.36
533.04	32351.08
533.241	31517.56
533.442	32457.57
533.643	32308.07
533.844	32217.96
534.045	32242.54
534.246	31785.84
534.447	32621.41
534.648	32422.76
534.849	32312.17
535.05	32226.15
535.251	32484.2
535.451	32172.91
535.652	32199.53
535.853	32289.64
536.054	32293.74
536.255	32396.13
536.456	32007.02
536.657	32783.2
536.857	32152.43
537.058	32363.37
537.259	32299.88
537.46	32334.7
537.66	32224.11
537.861	32265.06
538.062	32187.24
538.263	32226.15
538.463	32093.04
538.664	32283.5
538.865	32172.91
539.065	32660.32
539.266	32211.82
539.466	32486.25
539.667	31849.33
539.868	32697.19
540.068	32133.99
540.269	32328.55
540.469	32160.62
540.67	31888.24
540.87	32181.1
541.071	32002.92
541.271	32476.01
541.472	32336.74
541.672	32158.57
541.873	32396.13
542.073	31533.94
542.274	32031.6
542.474	32041.84
542.675	31961.97
542.875	32508.77
543.075	32062.32
543.276	31900.53
543.476	32283.5
543.676	31955.82
543.877	32336.74
544.077	31961.97
544.277	32215.91
544.478	31982.45
544.678	32283.5
544.878	32189.29
545.078	32050.03
545.279	31775.6
545.479	31849.33
545.679	32187.24
545.879	31957.87
546.079	32179.05
546.28	32115.56
546.48	31859.57
546.68	32213.87
546.88	32242.54
547.08	32220.01
547.28	31955.82
547.48	31781.74
547.68	31996.78
547.88	31771.5
548.081	32113.52
548.281	31939.44
548.481	31662.96
548.681	32263.02
548.881	32166.76
549.081	31871.85
549.28	31779.7
549.48	32226.15
549.68	32064.36
549.88	31988.59
550.08	31722.35
550.28	32140.14
550.48	31724.4
550.68	32185.19
550.88	31587.19
551.08	32103.28
551.279	31591.28
551.479	31476.6
551.679	31675.25
551.879	31857.52
552.079	31511.41
552.278	31681.39
552.478	31556.47
552.678	31665.01
552.878	31882.09
553.077	31366.01
553.277	31755.12
553.477	31996.78
553.676	31642.48
553.876	31480.69
554.076	31372.15
554.275	31318.9
554.475	31361.91
554.674	31656.82
554.874	31515.51
555.074	31114.11
555.273	31421.3
555.473	31540.08
555.672	31185.79
555.872	31253.37
556.071	31337.34
556.271	31406.97
556.47	31001.47
556.67	30901.12
556.869	31286.14
557.068	31429.49
557.268	30821.25
557.467	30907.26
557.667	31277.94
557.866	30980.99
558.065	30591.87
558.265	30698.37
558.464	30786.43
558.663	31011.71
558.863	30477.19
559.062	30897.02
559.261	30528.39
559.461	31118.2
559.66	30382.98
559.859	30540.68
560.058	30688.13
560.258	30585.73
560.457	30182.28
560.656	30741.38
560.855	30290.82
561.054	30933.89
561.253	30251.91
561.453	30165.9
561.652	30411.65
561.851	30405.51
562.05	29811.6
562.249	29723.54
562.448	30323.59
562.647	30122.89
562.846	29463.44
563.045	30098.31
563.244	30047.11
563.443	29815.69
563.642	29465.49
563.841	29741.97
564.04	29428.63
564.239	29406.1
564.438	29602.71
564.637	29461.4
564.836	29395.86
565.035	29105.05
565.234	29285.27
565.432	29297.56
565.631	28717.98
565.83	29152.15
566.029	28955.55
566.228	29133.72
566.427	28986.27
566.625	29033.37
566.824	28748.7
567.023	28990.36
567.222	28337.06
567.42	28715.94
567.619	28543.91
567.818	28793.76
568.016	28359.59
568.215	28849.05
568.414	28369.83
568.612	28644.26
568.811	28445.6
569.01	28298.15
569.208	28038.06
569.407	28181.42
569.605	28191.66
569.804	28427.17
570.002	28021.67
570.201	28142.5
570.4	27810.73
570.598	27675.57
570.797	27345.84
570.995	27462.58
571.193	27571.12
571.392	27528.11
571.59	27517.87
571.789	27218.87
571.987	27229.11
572.186	27298.74
572.384	27018.17
572.582	27278.26
572.781	26936.25
572.979	26530.75
573.177	26864.57
573.376	26911.67
573.574	26516.42
573.772	26510.27
573.971	26739.65
574.169	26788.8
574.367	26454.98
574.565	26667.97
574.763	26422.21
574.962	26325.96
575.16	26002.38
575.358	26371.01
575.556	25699.28
575.754	26334.15
575.952	25451.47
576.151	26201.03
576.349	25783.24
576.547	25875.4
576.745	25942.99
576.943	25791.44
577.141	25412.56
577.339	25820.11
577.537	25570.26
577.735	25498.58
577.933	25426.9
578.131	25488.34
578.329	25086.93
578.527	24947.67
578.725	25093.08
578.923	25304.02
579.121	25009.11
579.319	25033.69
579.516	24941.53
579.714	24988.63
579.912	24949.72
580.11	24683.48
580.308	24759.26
580.506	24804.31
580.704	24228.84
580.901	24388.58
581.099	24658.91
581.297	24450.02
581.495	24108.01
581.692	24372.19
581.89	24040.42
582.088	24171.49
582.285	23876.58
582.483	24255.46
582.681	23925.74
582.878	23534.57
583.076	23714.8
583.274	23743.47
583.471	23614.44
583.669	23852.01
583.866	23436.27
584.064	23417.84
584.262	23084.02
584.459	23311.35
584.657	22881.27
584.854	23438.32
585.052	23006.2
585.249	23196.66
585.447	23206.9
585.644	22742.01
585.841	22858.74
586.039	23137.27
586.236	22723.58
586.434	22748.15
586.631	22391.81
586.828	22518.78
587.026	22526.97
587.223	22549.5
587.42	22260.74
587.618	22346.75
587.815	22174.72
588.012	22195.2
588.21	22199.3
588.407	22367.23
588.604	21808.14
588.801	22053.89
588.999	21896.2
589.196	21740.55
589.393	22043.65
589.59	21543.95
589.787	21613.58
589.984	21560.33
590.182	21556.24
590.379	21539.85
590.576	21459.98
590.773	21242.9
590.97	21154.83
591.167	21175.31
591.364	21124.11
591.561	21074.96
591.758	20595.74
591.955	20888.6
592.152	21212.18
592.349	20974.61
592.546	20913.17
592.743	20810.78
592.94	20675.61
593.137	20868.12
593.334	20778.01
593.531	20352.03
593.727	20474.91
593.924	20630.55
594.121	20175.91
594.318	20388.89
594.515	20053.03
594.712	20247.58
594.908	20220.96
595.105	19952.68
595.302	19926.05
595.499	20003.88
595.696	19790.89
595.892	19657.77
596.089	20061.22
596.286	19821.61
596.482	19397.68
596.679	19508.27
596.876	19602.47
597.072	19586.09
597.269	19465.26
597.466	19184.69
597.662	19276.85
597.859	19233.84
598.055	19268.66
598.252	19102.77
598.448	18871.35
598.645	19156.02
598.841	18875.45
599.038	18709.56
599.234	19067.95
599.431	18578.49
599.627	18955.32
599.824	18738.23
600.02	18496.57
600.217	18467.9
600.413	18603.07
600.609	18480.19
600.806	18453.56
601.002	18183.23
601.198	18142.27
601.395	18152.51
601.591	17986.63
601.787	18119.74
601.984	17792.07
602.18	18105.41
602.376	17675.34
602.572	17859.65
602.769	18007.11
602.965	17595.46
603.161	17644.62
603.357	17783.88
603.553	17534.03
603.75	17517.64
603.946	17108.05
604.142	17458.25
604.338	17206.35
604.534	17400.91
604.73	17155.15
604.926	17179.73
605.122	17179.73
605.318	17232.97
605.514	17310.8
605.71	17089.62
605.906	16999.51
606.102	17028.18
606.298	16835.67
606.494	16841.81
606.69	16710.74
606.886	16706.65
607.082	16639.06
607.278	16669.78
607.474	16426.07
607.67	16415.83
607.866	16217.18
608.062	16514.14
608.257	16352.35
608.453	16483.42
608.649	16604.25
608.845	16143.45
609.041	16022.62
609.236	16340.06
609.432	16227.42
609.628	16188.51
609.824	16082.02
610.019	15940.71
610.215	15940.71
610.411	15979.62
610.606	15823.97
610.802	16028.77
610.998	16032.86
611.193	15850.6
611.389	15690.85
611.584	15713.38
611.78	15633.51
611.976	15582.31
612.171	15756.39
612.367	15690.85
612.562	15592.55
612.758	15428.71
612.953	15426.67
613.149	15576.17
613.344	15500.39
613.539	15641.7
613.735	15649.89
613.93	15619.18
614.126	15273.07
614.321	15410.28
614.517	15473.77
614.712	15219.82
614.907	15387.75
615.103	15266.92
615.298	15170.67
615.493	15651.94
615.688	14945.39
615.884	15502.44
616.079	14818.42
616.274	14961.78
616.47	14799.99
616.665	15084.66
616.86	14832.75
617.055	14842.99
617.25	14662.77
617.445	15031.41
617.641	14726.26
617.836	14916.72
618.031	14681.21
618.226	14736.5
618.421	14695.54
618.616	14574.71
618.811	14492.79
619.006	14703.73
619.201	14288
619.396	14457.98
619.591	14111.87
619.786	14400.63
619.981	14007.42
620.176	14294.14
620.371	13855.87
620.566	14025.86
620.761	14042.24
620.956	13970.56
621.151	13929.6
621.346	14007.42
621.541	13403.27
621.735	13888.64
621.93	13606.02
622.125	13571.21
622.32	13558.92
622.515	13577.35
622.709	13450.38
622.904	13137.04
623.099	13134.99
623.294	13186.19
623.488	12950.67
623.683	13016.21
623.878	12784.79
624.072	12854.42
624.267	12885.14
624.462	12756.11
624.656	12696.72
624.851	12666
625.046	12557.46
625.24	12211.35
625.435	12389.53
625.629	12512.41
625.824	12307.61
626.018	12278.94
626.213	11975.84
626.407	12000.41
626.602	11877.54
626.796	11852.96
626.991	11820.19
627.185	11791.52
627.38	11439.27
627.574	11680.93
627.768	11771.04
627.963	11459.75
628.157	11392.17
628.352	11353.26
628.546	11314.34
628.74	11379.88
628.935	11277.48
629.129	11193.51
629.323	10810.54
629.517	10990.77
629.712	11019.44
629.906	10921.13
630.1	11003.05
630.294	10902.7
630.489	10648.75
630.683	10800.3
630.877	10728.63
631.071	10658.99
631.265	10407.09
631.459	10413.24
631.653	10372.28
631.848	10364.09
632.042	10083.52
632.236	10304.7
632.43	10032.32
632.624	10249.4
632.818	10056.89
633.012	10138.81
633.206	9940.16
633.4	10050.75
633.594	10036.41
633.788	9714.88
633.982	9968.83
634.176	9841.86
634.369	9649.35
634.563	9678.02
634.757	9481.41
634.951	9782.46
635.145	9450.69
635.339	9313.48
635.533	9475.27
635.726	9446.6
635.92	9438.41
636.114	9100.49
636.308	9188.55
636.501	9161.93
636.695	9344.2
636.889	9178.31
637.083	9182.41
637.276	9039.05
637.47	8740.05
637.664	8752.34
637.857	8903.89
638.051	8778.96
638.244	8733.9
638.438	8793.3
638.632	8658.13
638.825	8727.76
639.019	8502.48
639.212	8420.56
639.406	8537.3
639.599	8301.78
639.793	8291.54
639.986	8285.4
640.18	8367.32
640.373	8207.58
640.567	8144.09
640.76	8187.1
640.954	7961.82
641.147	7961.82
641.34	8074.46
641.534	7757.02
641.727	7832.8
641.92	7853.28
642.114	7890.14
642.307	7789.79
642.5	7677.15
642.694	7671.01
642.887	7562.47
643.08	7668.96
643.273	7595.23
643.467	7343.33
643.66	7521.51
643.853	7451.88
644.046	7384.29
644.239	7462.12
644.432	7433.44
644.626	7333.09
644.819	7142.63
645.012	7304.42
645.205	7216.36
645.398	7242.98
645.591	7097.58
645.784	7122.15
645.977	6882.54
646.17	7073
646.363	6798.57
646.556	6814.96
646.749	6749.42
646.942	6948.08
647.135	6724.85
647.328	6823.15
647.521	6794.48
647.714	6569.2
647.907	6544.63
648.099	6530.29
648.292	6696.18
648.485	6526.19
648.678	6352.12
648.871	6274.29
649.064	6505.71
649.256	6442.23
649.449	6259.96
649.642	6171.9
649.835	6251.77
650.027	6122.74
650.22	6327.54
650.413	6262.01
650.605	6208.76
650.798	6147.32
650.991	5965.05
651.183	6034.68
651.376	5907.71
651.568	6040.83
651.761	5807.36
651.954	6028.54
652.146	5911.8
652.339	5807.36
652.531	6022.39
652.724	5756.16
652.916	5750.01
653.109	5692.67
653.301	5588.22
653.494	5659.9
653.686	5473.54
653.879	5500.16
654.071	5430.53
654.263	5596.42
654.456	5577.98
654.648	5508.35
654.84	5332.23
655.033	5381.38
655.225	5342.47
655.417	5369.09
655.61	5315.84
655.802	5340.42
655.994	5176.58
656.186	5201.16
656.379	5250.31
656.571	5127.43
656.763	5184.77
656.955	5117.19
657.148	5242.12
657.34	5207.3
657.532	5012.74
657.724	4961.55
657.916	5049.61
658.108	5053.7
658.3	4916.49
658.492	4850.96
658.684	4877.58
658.876	4941.07
659.068	4812.04
659.26	4801.8
659.452	4726.03
659.644	4730.13
659.836	4605.2
660.028	4680.97
660.22	4535.57
660.412	4627.73
660.604	4564.24
660.796	4584.72
660.988	4664.59
661.18	4476.18
661.372	4410.64
661.563	4654.35
661.755	4414.74
661.947	4472.08
662.139	4533.52
662.331	4381.97
662.522	4119.83
662.714	4328.72
662.906	4474.13
663.097	4250.9
663.289	4125.97
663.481	4091.16
663.673	4160.79
663.864	4197.65
664.056	4052.25
664.247	4226.32
664.439	4080.92
664.631	4148.5
664.822	4177.17
665.014	4101.4
665.205	4021.53
665.397	3988.76
665.588	4013.34
665.78	4017.43
665.971	3886.36
666.163	3955.99
666.354	3919.13
666.546	3829.02
666.737	3831.07
666.929	3781.92
667.12	3835.16
667.311	3800.35
667.503	3738.91
667.694	3769.63
667.885	3640.61
668.077	3810.59
668.268	3759.39
668.459	3628.32
668.651	3661.09
668.842	3628.32
669.033	3472.67
669.224	3585.31
669.416	3661.09
669.607	3652.89
669.798	3546.4
669.989	3511.58
670.18	3573.02
670.371	3562.78
670.563	3345.7
670.754	3542.3
670.945	3509.54
671.136	3364.13
671.327	3497.25
671.518	3388.71
671.709	3298.59
671.9	3425.57
672.091	3398.95
672.282	3392.8
672.473	3237.16
672.664	3337.51
672.855	3247.4
673.046	3218.72
673.237	3462.43
673.428	3251.49
673.619	3372.32
673.809	3145
674	3171.62
674.191	3177.76
674.382	3194.15
674.573	3104.04
674.764	3145
674.954	3075.37
675.145	3110.18
675.336	3001.64
675.527	3087.65
675.717	3132.71
675.908	3030.31
676.099	3048.74
676.289	3048.74
676.48	3089.7
676.671	3083.56
676.861	3091.75
677.052	3065.13
677.243	3038.5
677.433	2997.54
677.624	3038.5
677.814	3040.55
678.005	2934.06
678.195	2964.78
678.386	2964.78
678.576	2911.53
678.767	2907.43
678.957	2923.82
679.148	2991.4
679.338	2809.13
679.529	2868.52
679.719	2843.95
679.909	2999.59
680.1	2964.78
680.29	2891.05
680.481	2759.98
680.671	2983.21
680.861	2850.09
681.052	2985.26
681.242	2932.01
681.432	2905.38
681.622	2833.71
681.813	2815.27
682.003	2891.05
682.193	2878.76
682.383	2821.42
682.573	2766.12
682.764	2809.13
682.954	2829.61
683.144	2790.7
683.334	2864.43
683.524	2702.64
683.714	2719.02
683.904	2841.9
684.094	2784.55
684.284	2792.75
684.474	2800.94
684.664	2741.55
684.854	2710.83
685.044	2489.65
685.234	2823.47
685.424	2776.36
685.614	2663.72
685.804	2710.83
685.994	2536.75
686.184	2741.55
686.374	2655.53
686.564	2549.04
686.753	2663.72
686.943	2540.85
687.133	2532.65
687.323	2620.72
687.513	2522.41
687.702	2557.23
687.892	2649.39
688.082	2653.48
688.272	2497.84
688.461	2526.51
688.651	2587.95
688.841	2538.8
689.03	2485.55
689.22	2573.61
689.41	2481.46
689.599	2503.98
689.789	2510.13
689.979	2434.35
690.168	2407.73
690.358	2563.37
690.547	2432.3
690.737	2481.46
690.926	2442.54
691.116	2383.15
691.305	2358.58
691.495	2301.23
691.684	2395.44
691.874	2424.11
692.063	2540.85
692.252	2362.67
692.442	2407.73
692.631	2362.67
692.82	2311.47
693.01	2301.23
693.199	2284.85
693.388	2329.91
693.578	2366.77
693.767	2362.67
693.956	2256.18
694.146	2225.46
694.335	2235.7
694.524	2305.33
694.713	2217.27
694.902	2256.18
695.092	2233.65
695.281	2307.38
695.47	2221.36
695.659	2262.32
695.848	2123.06
696.037	2145.59
696.226	2241.84
696.415	2243.89
696.604	2196.79
696.793	2207.03
696.982	2247.99
697.171	2250.03
697.36	2116.92
697.549	2225.46
697.738	2041.14
697.927	2256.18
698.116	2088.25
698.305	2155.83
698.494	2035
698.683	2094.39
698.872	2075.96
699.061	2041.14
699.25	2080.05
699.438	2065.72
699.627	2207.03
699.816	2155.83
700.005	2039.09
700.193	2104.63
700.382	2127.16
700.571	2188.6
700.76	2084.15
700.948	2102.58
701.137	2063.67
701.326	2272.56
701.514	2143.54
701.703	2026.81
701.892	2106.68
702.08	2098.49
702.269	2104.63
702.457	1951.03
702.646	2096.44
702.834	2211.12
703.023	2092.34
703.212	2137.4
703.4	1994.04
703.589	2016.57
703.777	2075.96
703.965	2088.25
704.154	1920.31
704.342	1959.22
704.531	1983.8
704.719	2112.82
704.907	2063.67
705.096	1953.08
705.284	1989.94
705.472	1967.42
705.661	1975.61
705.849	2127.16
706.037	2137.4
706.226	2022.71
706.414	2049.33
706.602	1930.55
706.79	1998.13
706.979	1965.37
707.167	2041.14
707.355	2002.23
707.543	2035
707.731	2018.61
707.919	1932.6
708.107	1998.13
708.296	2039.09
708.484	1893.69
708.672	2004.28
708.86	1957.18
709.048	1973.56
709.236	2020.66
709.424	2016.57
709.612	2016.57
709.8	2010.42
709.988	2045.24
710.176	1969.46
710.364	2006.33
710.551	1936.7
710.739	1848.63
710.927	1973.56
711.115	1932.6
711.303	1912.12
711.491	1891.64
711.679	1957.18
711.866	2028.85
712.054	1965.37
712.242	1828.15
712.43	2018.61
712.617	1936.7
712.805	1891.64
712.993	1936.7
713.181	1926.46
713.368	1928.5
713.556	1991.99
713.744	1973.56
713.931	2014.52
714.119	1951.03
714.306	2035
714.494	1934.65
714.682	1930.55
714.869	1985.85
715.057	1989.94
715.244	1867.06
715.432	2067.77
715.619	1951.03
715.807	1926.46
715.994	1912.12
716.182	1959.22
716.369	1916.22
716.556	1994.04
716.744	2039.09
716.931	1938.74
717.119	2000.18
717.306	1953.08
717.493	2067.77
717.681	1965.37
717.868	1928.5
718.055	1967.42
718.242	1957.18
718.43	2010.42
718.617	1957.18
718.804	1948.98
718.991	1965.37
719.179	2014.52
719.366	1805.63
719.553	1934.65
719.74	1961.27
719.927	1975.61
720.114	1885.5
720.301	1834.3
720.488	1850.68
720.676	1867.06
720.863	1983.8
721.05	1981.75
721.237	1844.54
721.424	1822.01
721.611	1932.6
721.798	1848.63
721.985	1942.84
722.172	1916.22
722.358	1932.6
722.545	1918.26
722.732	1936.7
722.919	1924.41
723.106	1965.37
723.293	1899.83
723.48	1893.69
723.667	1905.98
723.853	1867.06
724.04	2024.76
724.227	2022.71
724.414	1869.11
724.6	1867.06
724.787	1944.89
724.974	1969.46
725.161	1883.45
725.347	1834.3
725.534	1916.22
725.72	1983.8
725.907	1828.15
726.094	1961.27
726.28	1793.34
726.467	1965.37
726.653	1858.87
726.84	2004.28
727.027	1875.26
727.213	1834.3
727.4	1879.35
727.586	1842.49
727.773	1994.04
727.959	1932.6
728.145	1848.63
728.332	1854.78
728.518	1899.83
728.705	1989.94
728.891	1756.47
729.077	1838.39
729.264	1910.07
729.45	1953.08
729.636	1944.89
729.823	1860.92
730.009	1920.31
730.195	1899.83
730.382	1850.68
730.568	1901.88
730.754	2014.52
730.94	1936.7
731.126	1944.89
731.313	1951.03
731.499	2022.71
731.685	1848.63
731.871	1822.01
732.057	1901.88
732.243	2030.9
732.429	1912.12
732.615	1998.13
732.801	1891.64
732.987	1838.39
733.173	1903.93
733.359	1936.7
733.545	1850.68
733.731	1830.2
733.917	1877.3
734.103	1918.26
734.289	1897.78
734.475	1817.91
734.661	1944.89
734.847	1801.53
735.033	1926.46
735.219	1957.18
735.404	1912.12
735.59	1879.35
735.776	1908.02
735.962	1887.54
736.148	1910.07
736.333	1946.94
736.519	1750.33
736.705	1873.21
736.89	1776.95
737.076	1903.93
737.262	1758.52
737.447	1830.2
737.633	1881.4
737.819	1877.3
738.004	1860.92
738.19	1793.34
738.375	1824.06
738.561	1795.39
738.747	1828.15
738.932	1748.28
739.118	1836.35
739.303	1908.02
739.489	1834.3
739.674	1785.15
739.859	1819.96
740.045	1752.38
740.23	1727.8
740.416	1801.53
740.601	1723.71
740.786	1801.53
740.972	1803.58
741.157	1752.38
741.342	1703.23
741.528	1817.91
741.713	1834.3
741.898	1746.23
742.084	1682.75
742.269	1744.19
742.454	1713.47
742.639	1768.76
742.824	1830.2
743.01	1695.04
743.195	1779
743.38	1713.47
743.565	1770.81
743.75	1674.56
743.935	1680.7
744.12	1695.04
744.305	1631.55
744.49	1588.54
744.675	1580.35
744.86	1666.36
745.045	1572.16
745.23	1606.97
745.415	1752.38
745.6	1555.77
745.785	1506.62
745.97	1666.36
746.155	1570.11
746.34	1666.36
746.525	1631.55
746.71	1670.46
746.895	1527.1
747.079	1525.05
747.264	1600.83
747.449	1582.4
747.634	1576.25
747.819	1520.96
748.003	1533.25
748.188	1465.66
748.373	1469.76
748.557	1557.82
748.742	1416.51
748.927	1432.9
749.111	1490.24
749.296	1328.45
749.481	1391.94
749.665	1518.91
749.85	1402.18
750.034	1328.45
750.219	1572.16
750.404	1328.45
750.588	1475.9
750.773	1326.4
750.957	1330.5
751.141	1316.16
751.326	1369.41
751.51	1432.9
751.695	1326.4
751.879	1258.82
752.064	1408.32
752.248	1436.99
752.432	1371.46
752.617	1350.98
752.801	1297.73
752.985	1262.91
753.17	1322.31
753.354	1277.25
753.538	1338.69
753.722	1252.67
753.907	1275.2
754.091	1254.72
754.275	1240.39
754.459	1256.77
754.643	1219.91
754.828	1162.56
755.012	1207.62
755.196	1072.45
755.38	1125.7
755.564	1121.6
755.748	1248.58
755.932	1162.56
756.116	1158.47
756.3	1121.6
756.484	1121.6
756.668	1178.95
756.852	1023.3
757.036	1056.07
757.22	1172.8
757.404	1172.8
757.588	1146.18
757.772	1064.26
757.956	1064.26
758.14	1082.69
758.323	1105.22
758.507	1076.55
758.691	1019.21
758.875	1008.97
759.059	1131.84
759.242	1017.16
759.426	986.44
759.61	978.25
759.794	1033.54
759.977	1006.92
760.161	1080.64
760.345	957.77
760.528	1041.73
760.712	953.67
760.895	925
761.079	974.15
761.263	1023.3
761.446	902.47
761.63	994.63
761.813	982.34
761.997	959.81
762.18	898.38
762.364	900.42
762.547	890.18
762.731	900.42
762.914	937.29
763.098	939.33
763.281	904.52
763.464	804.17
763.648	892.23
763.831	871.75
764.015	863.56
764.198	906.57
764.381	855.37
764.564	892.23
764.748	861.51
764.931	875.85
765.114	771.4
765.297	851.27
765.481	777.55
765.664	871.75
765.847	845.13
766.03	875.85
766.213	834.89
766.397	875.85
766.58	867.66
766.763	888.14
766.946	849.22
767.129	802.12
767.312	886.09
767.495	808.26
767.678	771.4
767.861	765.26
768.044	847.18
768.227	763.21
768.41	826.7
768.593	761.16
768.776	795.98
768.959	806.22
769.142	879.94
769.324	740.68
769.507	771.4
769.69	802.12
769.873	691.53
770.056	746.83
770.239	845.13
770.421	820.55
770.604	687.43
770.787	781.64
770.97	812.36
771.152	773.45
771.335	752.97
771.518	712.01
771.7	769.35
771.883	851.27
772.066	755.02
772.248	707.91
772.431	759.11
772.613	695.63
772.796	795.98
772.978	687.43
773.161	736.59
773.343	697.67
773.526	646.48
773.708	712.01
773.891	587.08
774.073	638.28
774.256	671.05
774.438	742.73
774.621	755.02
774.803	728.39
774.985	617.8
775.168	662.86
775.35	654.67
775.532	623.95
775.715	621.9
775.897	691.53
776.079	607.56
776.261	609.61
776.444	642.38
776.626	593.23
776.808	642.38
776.99	607.56
777.173	621.9
777.355	556.36
777.537	593.23
777.719	589.13
777.901	572.75
778.083	599.37
778.265	599.37
778.447	638.28
778.629	548.17
778.811	607.56
778.993	564.56
779.175	640.33
779.357	601.42
779.539	511.31
779.721	638.28
779.903	572.75
780.085	542.03
780.267	599.37
780.449	503.12
780.631	558.41
780.812	539.98
780.994	490.83
781.176	496.97
781.358	515.41
781.54	484.69
781.721	482.64
781.903	443.73
782.085	531.79
782.267	433.49
782.448	458.06
782.63	453.97
782.812	404.82
782.993	466.25
783.175	460.11
783.357	425.29
783.538	417.1
783.72	404.82
783.901	425.29
784.083	410.96
784.264	519.5
784.446	408.91
784.627	376.14
784.809	476.49
784.99	400.72
785.172	458.06
785.353	415.05
785.535	388.43
785.716	425.29
785.897	427.34
786.079	404.82
786.26	404.82
786.441	410.96
786.623	347.47
786.804	269.65
786.985	398.67
787.167	433.49
787.348	300.37
787.529	466.25
787.71	474.45
787.891	421.2
788.073	351.57
788.254	286.03
788.435	378.19
788.616	408.91
788.797	337.23
788.978	376.14
789.159	314.7
789.34	384.34
789.522	339.28
789.703	359.76
789.884	300.37
790.065	404.82
790.246	316.75
790.427	351.57
790.607	372.05
790.788	386.38
790.969	310.61
791.15	404.82
791.331	259.41
791.512	337.23
791.693	298.32
791.874	310.61
792.054	294.22
792.235	394.58
792.416	230.74
792.597	335.18
792.778	331.09
792.958	312.66
793.139	345.42
793.32	296.27
793.5	259.41
793.681	335.18
793.862	355.66
794.042	210.26
794.223	263.51
794.404	273.75
794.584	163.15
794.765	253.27
794.945	361.81
795.126	261.46
795.306	259.41
795.487	351.57
795.667	243.03
795.848	255.31
796.028	222.55
796.209	220.5
796.389	306.51
796.57	277.84
796.75	206.16
796.93	277.84
797.111	288.08
797.291	269.65
797.471	169.3
797.652	236.88
797.832	200.02
798.012	277.84
798.192	218.45
798.373	163.15
798.553	232.79
798.733	306.51
798.913	279.89
799.093	310.61
799.274	234.83
799.454	277.84
799.634	253.27
799.814	212.31
799.994	279.89
800.174	253.27
800.354	177.49
800.534	181.59
800.714	236.88
800.894	179.54
801.074	212.31
801.254	253.27
801.434	240.98
801.614	261.46
801.794	265.55
801.974	785.74
802.154	159.06
802.334	212.31
802.514	195.92
802.693	236.88
802.873	169.3
803.053	286.03
803.233	245.07
803.413	179.54
803.592	212.31
803.772	154.96
803.952	171.35
804.131	154.96
804.311	197.97
804.491	175.44
804.67	136.53
804.85	193.87
805.03	181.59
805.209	263.51
805.389	140.63
805.568	179.54
805.748	208.21
805.928	247.12
806.107	173.39
806.287	91.48
806.466	150.87
806.646	130.39
806.825	144.72
807.004	150.87
807.184	122.2
807.363	122.2
807.543	224.59
807.722	140.63
807.901	228.69
808.081	187.73
808.26	34.13
808.439	210.26
808.619	122.2
808.798	163.15
808.977	189.78
809.156	228.69
809.336	195.92
809.515	154.96
809.694	142.68
809.873	114
810.052	245.07
810.231	183.63
810.411	200.02
810.59	208.21
810.769	210.26
810.948	187.73
811.127	58.71
811.306	73.04
811.485	185.68
811.664	212.31
811.843	124.24
812.022	134.48
812.201	122.2
812.38	93.52
812.559	171.35
812.737	232.79
812.916	140.63
813.095	122.2
813.274	204.11
813.453	154.96
813.632	187.73
813.811	130.39
813.989	122.2
814.168	146.77
814.347	73.04
814.526	146.77
814.704	212.31
814.883	122.2
815.062	101.72
815.24	154.96
815.419	105.81
815.598	171.35
815.776	75.09
815.955	64.85
816.133	118.1
816.312	105.81
816.49	101.72
816.669	114
816.847	114
817.026	105.81
817.204	73.04
817.383	189.78
817.561	142.68
817.74	130.39
817.918	130.39
818.097	81.24
818.275	109.91
818.453	130.39
818.632	105.81
818.81	91.48
818.988	52.56
819.167	146.77
819.345	95.57
819.523	146.77
819.701	97.62
819.879	103.76
820.058	175.44
820.236	105.81
820.414	99.67
820.592	107.86
820.77	97.62
820.948	109.91
821.127	97.62
821.305	97.62
821.483	68.95
821.661	97.62
821.839	60.76
822.017	101.72
822.195	191.83
822.373	48.47
822.551	93.52
822.729	105.81
822.907	89.43
823.085	109.91
823.262	64.85
823.44	138.58
823.618	105.81
823.796	175.44
823.974	60.76
824.152	23.89
824.329	38.23
824.507	103.76
824.685	122.2
824.863	77.14
825.04	30.04
825.218	95.57
825.396	71
825.574	66.9
825.751	169.3
825.929	85.33
826.107	42.32
826.284	101.72
826.462	122.2
826.639	97.62
826.817	64.85
826.994	79.19
827.172	138.58
827.349	122.2
827.527	50.52
827.704	56.66
827.882	105.81
828.059	91.48
828.237	109.91
828.414	40.28
828.591	15.7
828.769	91.48
828.946	44.37
829.124	138.58
829.301	48.47
829.478	68.95
829.655	85.33
829.833	111.96
830.01	81.24
830.187	148.82
830.364	163.15
830.542	64.85
830.719	25.94
830.896	124.24
831.073	89.43
831.25	109.91
831.427	56.66
831.604	154.96
831.782	89.43
831.959	83.28
832.136	11.61
832.313	77.14
832.49	-23.21
832.667	134.48
832.844	15.7
833.021	-23.21
833.198	-12.97
833.374	75.09
833.551	64.85
833.728	48.47
833.905	68.95
834.082	-15.02
834.259	27.99
834.436	103.76
834.612	-19.11
834.789	81.24
834.966	-0.68
835.143	101.72
835.319	109.91
835.496	46.42
835.673	62.8
835.85	81.24
836.026	46.42
836.203	62.8
836.38	66.9
836.556	52.56
836.733	-15.02
836.909	105.81
837.086	42.32
837.262	77.14
837.439	46.42
837.616	-41.64
837.792	89.43
837.968	111.96
838.145	64.85
838.321	52.56
838.498	71
838.674	50.52
838.851	-4.78
839.027	122.2
839.203	27.99
839.38	25.94
839.556	54.61
839.732	11.61
839.909	71
840.085	93.52
840.261	19.8
840.437	48.47
840.614	32.08
840.79	15.7
840.966	66.9
841.142	157.01
841.318	89.43
841.494	15.7
841.671	40.28
841.847	48.47
842.023	73.04
842.199	130.39
842.375	-8.87
842.551	-62.12
842.727	99.67
842.903	42.32
843.079	17.75
843.255	68.95
843.431	-6.83
843.607	32.08
843.783	-19.11
843.959	87.38
844.134	32.08
844.31	-2.73
844.486	48.47
844.662	71
844.838	89.43
845.013	91.48
845.189	44.37
845.365	66.9
845.541	56.66
845.716	-41.64
845.892	21.84
846.068	-6.83
846.244	40.28
846.419	50.52
846.595	5.46
846.77	73.04
846.946	-39.59
847.122	44.37
847.297	89.43
847.473	64.85
847.648	5.46
847.824	81.24
847.999	9.56
848.175	68.95
848.35	73.04
848.526	64.85
848.701	89.43
848.876	73.04
849.052	97.62
849.227	15.7
849.403	85.33
849.578	-8.87
849.753	50.52
849.929	40.28
850.104	68.95
850.279	32.08
850.454	-8.87
850.63	50.52
850.805	36.18
850.98	3.41
851.155	40.28
851.33	138.58
851.505	23.89
851.681	85.33
851.856	-74.41
852.031	83.28
852.206	50.52
852.381	17.75
852.556	23.89
852.731	73.04
852.906	40.28
853.081	85.33
853.256	32.08
853.431	36.18
853.606	-33.45
853.781	7.51
853.956	-64.17
854.131	71
854.305	64.85
854.48	-21.16
854.655	7.51
854.83	9.56
855.005	36.18
855.18	23.89
855.354	68.95
855.529	34.13
855.704	7.51
855.879	15.7
856.053	44.37
856.228	-21.16
856.403	36.18
856.577	-0.68
856.752	11.61
856.926	52.56
857.101	-29.35
857.276	1.37
857.45	25.94
857.625	71
857.799	93.52
857.974	11.61
858.148	23.89
858.323	46.42
858.497	56.66
858.672	-105.13
858.846	7.51
859.02	23.89
859.195	-15.02
859.369	73.04
859.543	-39.59
859.718	23.89
859.892	17.75
860.066	64.85
860.241	32.08
860.415	89.43
860.589	15.7
860.763	40.28
860.938	-29.35
861.112	23.89
861.286	21.84
861.46	-0.68
861.634	13.65
861.808	34.13
861.982	-12.97
862.157	48.47
862.331	-12.97
862.505	83.28
862.679	-23.21
862.853	15.7
863.027	1.37
863.201	5.46
863.375	77.14
863.549	-17.07
863.722	11.61
863.896	-23.21
864.07	46.42
864.244	-12.97
864.418	114
864.592	36.18
864.766	15.7
864.939	-8.87
865.113	25.94
865.287	93.52
865.461	19.8
865.634	54.61
865.808	15.7
865.982	5.46
866.156	9.56
866.329	38.23
866.503	36.18
866.676	95.57
866.85	13.65
867.024	40.28
867.197	77.14
867.371	-8.87
867.544	73.04
867.718	-4.78
867.891	58.71
868.065	99.67
868.238	11.61
868.412	40.28
868.585	-21.16
868.759	-45.74
868.932	19.8
869.105	-25.26
869.279	40.28
869.452	-8.87
869.625	23.89
869.799	-58.03
869.972	-17.07
870.145	-23.21
870.319	56.66
870.492	23.89
870.665	56.66
870.838	3.41
871.011	-88.75
871.185	40.28
871.358	-25.26
871.531	15.7
871.704	27.99
871.877	36.18
872.05	58.71
872.223	66.9
872.396	48.47
872.569	36.18
872.742	-33.45
872.915	83.28
873.088	-23.21
873.261	11.61
873.434	-0.68
873.607	54.61
873.78	7.51
873.953	7.51
874.126	19.8
874.299	-25.26
874.471	48.47
874.644	11.61
874.817	-33.45
874.99	107.86
875.163	1.37
875.335	15.7
875.508	40.28
875.681	25.94
875.853	-111.27
876.026	-23.21
876.199	48.47
876.371	11.61
876.544	11.61
876.717	48.47
876.889	-23.21
877.062	54.61
877.234	7.51
877.407	17.75
877.579	-15.02
877.752	15.7
877.924	-15.02
878.097	17.75
878.269	-45.74
878.442	27.99
878.614	-41.64
878.786	-8.87
878.959	19.8
879.131	32.08
879.303	7.51
879.476	105.81
879.648	-45.74
879.82	42.32
879.993	9.56
880.165	44.37
880.337	17.75
880.509	-10.92
880.681	7.51
880.854	-15.02
881.026	25.94
881.198	11.61
881.37	32.08
881.542	17.75
881.714	-17.07
881.886	64.85
882.058	15.7
882.23	-25.26
882.402	-12.97
882.574	40.28
882.746	5.46
882.918	-4.78
883.09	40.28
883.262	-25.26
883.434	-15.02
883.606	-49.83
883.778	11.61
883.95	36.18
884.122	-4.78
884.293	32.08
884.465	-53.93
884.637	60.76
884.809	25.94
884.98	56.66
885.152	52.56
885.324	3.41
885.496	54.61
885.667	-0.68
885.839	-15.02
886.011	66.9
886.182	52.56
886.354	93.52
886.525	52.56
886.697	-4.78
886.869	9.56
887.04	13.65
887.212	60.76
887.383	56.66
887.555	-2.73
887.726	3.41
887.897	-17.07
888.069	23.89
888.24	42.32
888.412	48.47
888.583	-8.87
888.754	36.18
888.926	19.8
889.097	-6.83
889.268	-17.07
889.44	-78.51
889.611	-0.68
889.782	1.37
889.953	-41.64
890.125	-15.02
890.296	-17.07
890.467	23.89
890.638	-37.55
890.809	-33.45
890.98	56.66
891.151	68.95
891.323	58.71
891.494	32.08
891.665	27.99
891.836	40.28
892.007	-12.97
892.178	40.28
892.349	25.94
892.52	40.28
892.691	40.28
892.862	-55.98
893.032	-33.45
893.203	50.52
893.374	-35.5
893.545	1.37
893.716	-4.78
893.887	23.89
894.057	-6.83
894.228	-49.83
894.399	7.51
894.57	56.66
894.74	-25.26
894.911	66.9
895.082	-47.79
895.253	38.23
895.423	-31.4
895.594	48.47
895.764	34.13
895.935	-58.03
896.106	9.56
896.276	3.41
896.447	-23.21
896.617	-29.35
896.788	-105.13
896.958	11.61
897.129	-2.73
897.299	-8.87
897.47	7.51
897.64	1.37
897.81	-6.83
897.981	-53.93
898.151	-49.83
898.322	32.08
898.492	27.99
898.662	34.13
898.832	-49.83
899.003	-25.26
899.173	-8.87
899.343	73.04
899.513	-49.83
