Data from USB4F104151__121__14-43-57-089.txt Node

Date: Thu Mar 13 14:43:57 EDT 2025
User: louis
Spectrometer: USB4F10415
Trigger mode: 4
Integration Time (sec): 2.000000E-2
Scans to average: 1
Electric dark correction enabled: true
Nonlinearity correction enabled: false
Boxcar width: 0
XAxis mode: Wavelengths
Number of Pixels in Spectrum: 3648
>>>>>Begin Spectral Data<<<<<
178.204	-145.41
178.424	-145.41
178.644	-145.41
178.864	-124.93
179.084	-129.02
179.304	-55.3
179.524	-26.62
179.744	14.34
179.964	12.29
180.184	14.34
180.404	12.29
180.624	-6.14
180.844	38.91
181.064	24.58
181.283	-30.72
181.503	24.58
181.723	-22.53
181.943	-30.72
182.163	18.43
182.383	71.68
182.602	4.1
182.822	51.2
183.042	55.3
183.262	-36.86
183.482	86.01
183.701	-45.06
183.921	83.97
184.141	-10.24
184.361	-14.34
184.58	32.77
184.8	28.67
185.02	34.82
185.239	75.77
185.459	43.01
185.679	53.25
185.898	-10.24
186.118	61.44
186.338	34.82
186.557	10.24
186.777	-34.82
186.997	92.16
187.216	38.91
187.436	26.62
187.655	67.58
187.875	57.34
188.095	-30.72
188.314	-10.24
188.534	124.93
188.753	-6.14
188.973	108.54
189.192	57.34
189.412	-22.53
189.631	55.3
189.851	55.3
190.07	83.97
190.29	0
190.509	43.01
190.729	10.24
190.948	112.64
191.168	165.89
191.387	88.06
191.607	63.49
191.826	53.25
192.045	-63.49
192.265	75.77
192.484	38.91
192.704	12.29
192.923	-51.2
193.142	133.12
193.362	38.91
193.581	75.77
193.8	71.68
194.02	18.43
194.239	-57.34
194.458	18.43
194.678	-26.62
194.897	2.05
195.116	12.29
195.335	18.43
195.555	10.24
195.774	92.16
195.993	14.34
196.212	36.86
196.432	-6.14
196.651	36.86
196.87	51.2
197.089	112.64
197.308	-8.19
197.528	67.58
197.747	-12.29
197.966	43.01
198.185	-36.86
198.404	55.3
198.623	8.19
198.842	59.39
199.062	43.01
199.281	32.77
199.5	16.38
199.719	100.35
199.938	8.19
200.157	90.11
200.376	-14.34
200.595	92.16
200.814	51.2
201.033	47.1
201.252	-6.14
201.471	-38.91
201.69	67.58
201.909	36.86
202.128	110.59
202.347	10.24
202.566	30.72
202.785	4.1
203.004	34.82
203.223	86.01
203.442	30.72
203.661	28.67
203.879	28.67
204.098	108.54
204.317	10.24
204.536	79.87
204.755	28.67
204.974	-2.05
205.193	73.73
205.411	124.93
205.63	88.06
205.849	55.3
206.068	49.15
206.287	67.58
206.505	-28.67
206.724	51.2
206.943	-34.82
207.162	51.2
207.381	45.06
207.599	28.67
207.818	77.82
208.037	-67.58
208.255	104.45
208.474	22.53
208.693	-12.29
208.911	26.62
209.13	61.44
209.349	-14.34
209.567	67.58
209.786	108.54
210.005	108.54
210.223	59.39
210.442	24.58
210.661	71.68
210.879	69.63
211.098	20.48
211.316	92.16
211.535	24.58
211.753	28.67
211.972	51.2
212.191	-32.77
212.409	51.2
212.628	-6.14
212.846	30.72
213.065	90.11
213.283	20.48
213.502	-2.05
213.72	34.82
213.938	6.14
214.157	108.54
214.375	20.48
214.594	2.05
214.812	-2.05
215.031	49.15
215.249	18.43
215.467	10.24
215.686	30.72
215.904	2.05
216.122	-4.1
216.341	49.15
216.559	83.97
216.778	75.77
216.996	32.77
217.214	43.01
217.432	-26.62
217.651	18.43
217.869	32.77
218.087	-12.29
218.306	53.25
218.524	43.01
218.742	79.87
218.96	10.24
219.179	10.24
219.397	79.87
219.615	81.92
219.833	26.62
220.051	-22.53
220.27	67.58
220.488	77.82
220.706	4.1
220.924	-45.06
221.142	47.1
221.36	32.77
221.578	83.97
221.796	18.43
222.015	69.63
222.233	59.39
222.451	102.4
222.669	22.53
222.887	28.67
223.105	-34.82
223.323	-104.45
223.541	22.53
223.759	83.97
223.977	4.1
224.195	98.3
224.413	75.77
224.631	61.44
224.849	-4.1
225.067	96.25
225.285	-49.15
225.503	10.24
225.721	-14.34
225.939	4.1
226.157	43.01
226.375	92.16
226.592	10.24
226.81	4.1
227.028	90.11
227.246	51.2
227.464	22.53
227.682	16.38
227.9	67.58
228.117	61.44
228.335	-40.96
228.553	59.39
228.771	36.86
228.989	77.82
229.206	75.77
229.424	36.86
229.642	86.01
229.86	22.53
230.077	110.59
230.295	43.01
230.513	-8.19
230.731	12.29
230.948	43.01
231.166	120.83
231.384	18.43
231.601	8.19
231.819	71.68
232.037	67.58
232.254	65.54
232.472	18.43
232.689	-6.14
232.907	30.72
233.125	49.15
233.342	36.86
233.56	-55.3
233.777	-2.05
233.995	-14.34
234.213	69.63
234.43	22.53
234.648	2.05
234.865	6.14
235.083	14.34
235.3	69.63
235.518	34.82
235.735	51.2
235.953	49.15
236.17	-6.14
236.388	2.05
236.605	-38.91
236.822	47.1
237.04	12.29
237.257	10.24
237.475	38.91
237.692	65.54
237.909	45.06
238.127	71.68
238.344	22.53
238.562	43.01
238.779	69.63
238.996	18.43
239.214	110.59
239.431	102.4
239.648	-4.1
239.865	8.19
240.083	69.63
240.3	104.45
240.517	43.01
240.735	6.14
240.952	67.58
241.169	83.97
241.386	55.3
241.603	108.54
241.821	-18.43
242.038	120.83
242.255	110.59
242.472	28.67
242.689	28.67
242.907	-20.48
243.124	51.2
243.341	-71.68
243.558	18.43
243.775	43.01
243.992	-22.53
244.209	-2.05
244.426	43.01
244.643	63.49
244.86	18.43
245.078	2.05
245.295	77.82
245.512	92.16
245.729	57.34
245.946	12.29
246.163	16.38
246.38	61.44
246.597	-49.15
246.814	2.05
247.031	26.62
247.248	-26.62
247.464	18.43
247.681	51.2
247.898	96.25
248.115	12.29
248.332	-47.1
248.549	32.77
248.766	61.44
248.983	124.93
249.2	2.05
249.417	55.3
249.633	16.38
249.85	32.77
250.067	-2.05
250.284	51.2
250.501	2.05
250.717	118.78
250.934	18.43
251.151	92.16
251.368	12.29
251.585	67.58
251.801	14.34
252.018	-92.16
252.235	36.86
252.451	22.53
252.668	-20.48
252.885	133.12
253.102	59.39
253.318	106.49
253.535	28.67
253.752	34.82
253.968	-38.91
254.185	-2.05
254.401	-43.01
254.618	61.44
254.835	34.82
255.051	59.39
255.268	57.34
255.484	26.62
255.701	12.29
255.917	36.86
256.134	12.29
256.351	24.58
256.567	-2.05
256.784	69.63
257	30.72
257.217	47.1
257.433	-12.29
257.65	55.3
257.866	55.3
258.082	18.43
258.299	-10.24
258.515	51.2
258.732	-28.67
258.948	-22.53
259.165	-28.67
259.381	83.97
259.597	22.53
259.814	71.68
260.03	28.67
260.246	22.53
260.463	6.14
260.679	59.39
260.895	43.01
261.112	34.82
261.328	-28.67
261.544	71.68
261.761	69.63
261.977	71.68
262.193	-40.96
262.409	81.92
262.626	135.17
262.842	-12.29
263.058	4.1
263.274	30.72
263.49	75.77
263.707	49.15
263.923	4.1
264.139	2.05
264.355	59.39
264.571	73.73
264.787	63.49
265.004	55.3
265.22	67.58
265.436	98.3
265.652	16.38
265.868	145.41
266.084	-24.58
266.3	36.86
266.516	53.25
266.732	2.05
266.948	63.49
267.164	49.15
267.38	43.01
267.596	18.43
267.812	135.17
268.028	69.63
268.244	45.06
268.46	69.63
268.676	-4.1
268.892	40.96
269.108	0
269.324	18.43
269.54	-24.58
269.756	26.62
269.972	18.43
270.188	-14.34
270.403	-57.34
270.619	45.06
270.835	26.62
271.051	-6.14
271.267	32.77
271.483	-53.25
271.698	-18.43
271.914	53.25
272.13	28.67
272.346	49.15
272.562	75.77
272.777	6.14
272.993	22.53
273.209	2.05
273.425	-30.72
273.64	22.53
273.856	28.67
274.072	-4.1
274.287	26.62
274.503	59.39
274.719	86.01
274.934	-32.77
275.15	-6.14
275.366	36.86
275.581	14.34
275.797	-6.14
276.012	22.53
276.228	-79.87
276.444	18.43
276.659	45.06
276.875	-28.67
277.09	8.19
277.306	0
277.521	24.58
277.737	2.05
277.952	75.77
278.168	22.53
278.383	43.01
278.599	38.91
278.814	59.39
279.03	51.2
279.245	67.58
279.461	12.29
279.676	90.11
279.892	43.01
280.107	-22.53
280.322	18.43
280.538	-4.1
280.753	-30.72
280.969	63.49
281.184	18.43
281.399	67.58
281.615	51.2
281.83	-22.53
282.045	12.29
282.26	63.49
282.476	8.19
282.691	59.39
282.906	47.1
283.122	10.24
283.337	6.14
283.552	57.34
283.767	-2.05
283.983	75.77
284.198	75.77
284.413	20.48
284.628	18.43
284.843	34.82
285.058	22.53
285.274	-14.34
285.489	22.53
285.704	12.29
285.919	88.06
286.134	-26.62
286.349	43.01
286.564	73.73
286.779	4.1
286.995	12.29
287.21	-45.06
287.425	53.25
287.64	71.68
287.855	77.82
288.07	-28.67
288.285	38.91
288.5	-12.29
288.715	124.93
288.93	51.2
289.145	26.62
289.36	141.31
289.575	38.91
289.79	34.82
290.004	-34.82
290.219	-10.24
290.434	-28.67
290.649	0
290.864	124.93
291.079	30.72
291.294	77.82
291.509	47.1
291.724	69.63
291.938	-34.82
292.153	110.59
292.368	92.16
292.583	20.48
292.798	51.2
293.012	43.01
293.227	20.48
293.442	-28.67
293.657	108.54
293.871	86.01
294.086	94.21
294.301	71.68
294.516	-14.34
294.73	116.73
294.945	10.24
295.16	14.34
295.374	43.01
295.589	49.15
295.804	36.86
296.018	-6.14
296.233	-6.14
296.447	4.1
296.662	4.1
296.877	28.67
297.091	24.58
297.306	51.2
297.52	2.05
297.735	112.64
297.949	51.2
298.164	28.67
298.378	36.86
298.593	102.4
298.807	-6.14
299.022	-38.91
299.236	34.82
299.451	22.53
299.665	20.48
299.88	86.01
300.094	71.68
300.309	51.2
300.523	24.58
300.737	-4.1
300.952	75.77
301.166	59.39
301.381	20.48
301.595	22.53
301.809	16.38
302.024	-28.67
302.238	-6.14
302.452	61.44
302.667	65.54
302.881	129.02
303.095	-18.43
303.309	4.1
303.524	-14.34
303.738	77.82
303.952	-6.14
304.166	114.69
304.381	-18.43
304.595	116.73
304.809	59.39
305.023	96.25
305.237	38.91
305.452	47.1
305.666	53.25
305.88	24.58
306.094	14.34
306.308	83.97
306.522	-6.14
306.736	77.82
306.95	20.48
307.164	86.01
307.379	36.86
307.593	96.25
307.807	45.06
308.021	75.77
308.235	-12.29
308.449	0
308.663	0
308.877	32.77
309.091	40.96
309.305	34.82
309.519	34.82
309.733	67.58
309.947	-16.38
310.161	133.12
310.374	79.87
310.588	28.67
310.802	4.1
311.016	-24.58
311.23	57.34
311.444	-28.67
311.658	43.01
311.872	116.73
312.085	24.58
312.299	61.44
312.513	18.43
312.727	77.82
312.941	34.82
313.154	22.53
313.368	43.01
313.582	18.43
313.796	34.82
314.009	53.25
314.223	6.14
314.437	59.39
314.651	43.01
314.864	18.43
315.078	10.24
315.292	53.25
315.505	-6.14
315.719	88.06
315.933	55.3
316.146	-77.82
316.36	20.48
316.573	126.97
316.787	75.77
317.001	100.35
317.214	30.72
317.428	2.05
317.641	-16.38
317.855	63.49
318.068	43.01
318.282	75.77
318.495	102.4
318.709	83.97
318.922	36.86
319.136	86.01
319.349	51.2
319.563	61.44
319.776	34.82
319.99	-30.72
320.203	28.67
320.417	57.34
320.63	14.34
320.843	135.17
321.057	49.15
321.27	24.58
321.483	-4.1
321.697	108.54
321.91	34.82
322.124	51.2
322.337	51.2
322.55	-10.24
322.763	-43.01
322.977	-4.1
323.19	26.62
323.403	47.1
323.617	43.01
323.83	75.77
324.043	-4.1
324.256	20.48
324.469	-22.53
324.683	20.48
324.896	2.05
325.109	61.44
325.322	43.01
325.535	43.01
325.748	92.16
325.962	36.86
326.175	51.2
326.388	30.72
326.601	26.62
326.814	4.1
327.027	49.15
327.24	71.68
327.453	12.29
327.666	38.91
327.879	75.77
328.092	83.97
328.305	43.01
328.518	67.58
328.731	47.1
328.944	75.77
329.157	77.82
329.37	22.53
329.583	94.21
329.796	69.63
330.009	-6.14
330.222	55.3
330.435	118.78
330.648	43.01
330.861	75.77
331.073	-12.29
331.286	63.49
331.499	30.72
331.712	32.77
331.925	45.06
332.138	38.91
332.35	67.58
332.563	59.39
332.776	90.11
332.989	-47.1
333.202	-45.06
333.414	-14.34
333.627	38.91
333.84	102.4
334.053	36.86
334.265	-30.72
334.478	12.29
334.691	77.82
334.903	34.82
335.116	-4.1
335.329	75.77
335.541	129.02
335.754	100.35
335.966	16.38
336.179	61.44
336.392	92.16
336.604	10.24
336.817	30.72
337.029	55.3
337.242	18.43
337.454	28.67
337.667	110.59
337.88	102.4
338.092	26.62
338.305	28.67
338.517	26.62
338.729	75.77
338.942	67.58
339.154	47.1
339.367	-14.34
339.579	4.1
339.792	79.87
340.004	67.58
340.217	51.2
340.429	69.63
340.641	-28.67
340.854	51.2
341.066	51.2
341.278	47.1
341.491	55.3
341.703	94.21
341.915	30.72
342.128	57.34
342.34	-6.14
342.552	-6.14
342.764	30.72
342.977	-22.53
343.189	116.73
343.401	83.97
343.613	-22.53
343.826	75.77
344.038	47.1
344.25	36.86
344.462	75.77
344.674	45.06
344.886	38.91
345.099	133.12
345.311	14.34
345.523	45.06
345.735	55.3
345.947	36.86
346.159	26.62
346.371	47.1
346.583	34.82
346.795	88.06
347.007	18.43
347.219	-12.29
347.431	38.91
347.643	63.49
347.855	55.3
348.067	92.16
348.279	-53.25
348.491	75.77
348.703	20.48
348.915	26.62
349.127	6.14
349.339	61.44
349.551	28.67
349.763	81.92
349.975	-6.14
350.187	18.43
350.399	55.3
350.61	77.82
350.822	26.62
351.034	83.97
351.246	34.82
351.458	34.82
351.669	83.97
351.881	116.73
352.093	20.48
352.305	-28.67
352.517	51.2
352.728	116.73
352.94	22.53
353.152	51.2
353.363	12.29
353.575	30.72
353.787	86.01
353.999	96.25
354.21	92.16
354.422	40.96
354.633	55.3
354.845	49.15
355.057	94.21
355.268	28.67
355.48	57.34
355.692	61.44
355.903	-26.62
356.115	18.43
356.326	-38.91
356.538	104.45
356.749	92.16
356.961	83.97
357.172	61.44
357.384	43.01
357.595	161.79
357.807	34.82
358.018	18.43
358.23	57.34
358.441	133.12
358.653	45.06
358.864	-18.43
359.075	10.24
359.287	83.97
359.498	83.97
359.709	53.25
359.921	55.3
360.132	6.14
360.344	-47.1
360.555	59.39
360.766	38.91
360.977	28.67
361.189	88.06
361.4	6.14
361.611	67.58
361.823	59.39
362.034	92.16
362.245	2.05
362.456	55.3
362.667	4.1
362.879	92.16
363.09	45.06
363.301	-8.19
363.512	24.58
363.723	28.67
363.935	18.43
364.146	96.25
364.357	51.2
364.568	65.54
364.779	51.2
364.99	59.39
365.201	71.68
365.412	36.86
365.623	-6.14
365.834	8.19
366.045	102.4
366.256	81.92
366.467	38.91
366.678	18.43
366.889	88.06
367.1	20.48
367.311	102.4
367.522	55.3
367.733	30.72
367.944	92.16
368.155	0
368.366	43.01
368.577	108.54
368.788	83.97
368.999	30.72
369.209	71.68
369.42	108.54
369.631	145.41
369.842	59.39
370.053	79.87
370.264	75.77
370.474	12.29
370.685	34.82
370.896	59.39
371.107	129.02
371.317	45.06
371.528	36.86
371.739	104.45
371.95	34.82
372.16	45.06
372.371	10.24
372.582	94.21
372.792	61.44
373.003	65.54
373.214	61.44
373.424	116.73
373.635	61.44
373.846	51.2
374.056	94.21
374.267	75.77
374.477	53.25
374.688	26.62
374.898	47.1
375.109	28.67
375.319	108.54
375.53	102.4
375.74	-18.43
375.951	63.49
376.161	16.38
376.372	108.54
376.582	83.97
376.793	126.97
377.003	47.1
377.214	112.64
377.424	38.91
377.635	10.24
377.845	18.43
378.055	90.11
378.266	43.01
378.476	32.77
378.686	96.25
378.897	45.06
379.107	104.45
379.317	104.45
379.528	92.16
379.738	67.58
379.948	45.06
380.158	94.21
380.369	47.1
380.579	73.73
380.789	10.24
380.999	83.97
381.21	126.97
381.42	92.16
381.63	104.45
381.84	86.01
382.05	63.49
382.261	18.43
382.471	18.43
382.681	-4.1
382.891	96.25
383.101	133.12
383.311	94.21
383.521	131.07
383.731	149.5
383.941	135.17
384.151	96.25
384.361	36.86
384.571	43.01
384.781	2.05
384.991	157.69
385.201	176.13
385.411	79.87
385.621	92.16
385.831	61.44
386.041	104.45
386.251	75.77
386.461	53.25
386.671	94.21
386.881	38.91
387.091	6.14
387.301	129.02
387.511	71.68
387.72	96.25
387.93	61.44
388.14	92.16
388.35	118.78
388.56	63.49
388.769	159.74
388.979	45.06
389.189	34.82
389.399	186.37
389.609	2.05
389.818	32.77
390.028	55.3
390.238	51.2
390.447	69.63
390.657	59.39
390.867	24.58
391.076	77.82
391.286	124.93
391.496	55.3
391.705	38.91
391.915	47.1
392.125	45.06
392.334	100.35
392.544	139.26
392.753	124.93
392.963	100.35
393.172	57.34
393.382	30.72
393.591	116.73
393.801	-14.34
394.01	141.31
394.22	143.36
394.429	108.54
394.639	167.93
394.848	133.12
395.058	65.54
395.267	53.25
395.477	59.39
395.686	18.43
395.895	126.97
396.105	145.41
396.314	71.68
396.524	108.54
396.733	100.35
396.942	63.49
397.152	102.4
397.361	169.98
397.57	63.49
397.78	102.4
397.989	151.55
398.198	122.88
398.407	53.25
398.617	77.82
398.826	83.97
399.035	114.69
399.244	151.55
399.453	165.89
399.663	30.72
399.872	118.78
400.081	86.01
400.29	190.46
400.499	69.63
400.708	151.55
400.917	83.97
401.127	110.59
401.336	106.49
401.545	120.83
401.754	174.08
401.963	98.3
402.172	75.77
402.381	120.83
402.59	126.97
402.799	75.77
403.008	178.17
403.217	73.73
403.426	100.35
403.635	108.54
403.844	124.93
404.053	88.06
404.262	98.3
404.471	81.92
404.68	151.55
404.888	243.71
405.097	96.25
405.306	153.6
405.515	172.03
405.724	71.68
405.933	256
406.142	190.46
406.35	124.93
406.559	75.77
406.768	239.61
406.977	215.04
407.185	204.8
407.394	217.08
407.603	165.89
407.812	198.65
408.02	159.74
408.229	157.69
408.438	182.27
408.646	190.46
408.855	221.18
409.064	215.04
409.272	256
409.481	221.18
409.69	198.65
409.898	268.28
410.107	276.48
410.315	299
410.524	260.09
410.733	296.96
410.941	264.19
411.15	321.53
411.358	268.28
411.567	411.64
411.775	337.91
411.984	378.87
412.192	313.34
412.401	421.88
412.609	370.68
412.818	378.87
413.026	415.74
413.234	487.42
413.443	462.84
413.651	485.37
413.86	505.85
414.068	544.76
414.276	573.43
414.485	450.55
414.693	501.75
414.901	616.44
415.11	681.97
415.318	589.82
415.526	567.29
415.734	661.49
415.943	638.97
416.151	675.83
416.359	688.12
416.567	733.17
416.776	821.24
416.984	821.24
417.192	821.24
417.4	833.52
417.608	829.43
417.817	829.43
418.025	897.01
418.233	980.98
418.441	1032.18
418.649	978.93
418.857	1028.08
419.065	1114.1
419.273	1050.61
419.481	1222.64
419.689	1159.15
419.897	1251.31
420.105	1271.79
420.313	1341.42
420.521	1345.52
420.729	1320.94
420.937	1382.38
421.145	1548.26
421.353	1535.98
421.561	1632.23
421.769	1585.13
421.977	1765.35
422.185	1669.09
422.393	1748.97
422.601	1984.48
422.809	1863.65
423.017	1904.61
423.224	1988.58
423.432	2074.59
423.64	2076.64
423.848	2222.05
424.056	2156.51
424.263	2316.25
424.471	2328.54
424.679	2410.46
424.887	2527.19
425.094	2631.64
425.302	2750.42
425.51	2680.79
425.718	2758.61
425.925	2840.53
426.133	3026.9
426.341	3164.11
426.548	3205.07
426.756	3196.88
426.964	3319.76
427.171	3426.25
427.379	3651.53
427.586	3598.28
427.794	3835.85
428.001	3768.26
428.209	4003.78
428.417	4040.64
428.624	4329.41
428.832	4319.17
429.039	4327.36
429.247	4161.47
429.454	4671.42
429.662	5031.86
429.869	4655.03
430.076	4911.03
430.284	4753.34
430.491	4982.71
430.699	5371.82
430.906	5230.51
431.114	5363.63
431.321	5552.04
431.528	5562.28
431.736	6117.28
431.943	6246.3
432.15	6166.43
432.358	6309.79
432.565	6502.3
432.772	6449.05
432.979	6809.5
433.187	7057.3
433.394	7047.06
433.601	7516.05
433.808	7499.66
434.016	7526.29
434.223	7634.83
434.43	8159.11
434.637	8001.41
434.844	8585.09
435.052	8591.23
435.259	8656.76
435.466	8660.86
435.673	8693.63
435.88	9209.72
436.087	9807.72
436.294	9527.15
436.501	9684.84
436.708	9459.57
436.915	9899.88
437.122	10356.58
437.329	10555.23
437.537	10696.54
437.743	10852.19
437.95	10831.71
438.157	11241.3
438.364	11781.96
438.571	12033.86
438.778	11822.92
438.985	12842.81
439.192	12404.55
439.399	13010.75
439.606	12431.17
439.813	13313.84
440.02	14065.45
440.227	13752.11
440.433	13580.08
440.64	14020.39
440.847	13999.91
441.054	14370.6
441.261	15107.87
441.467	14898.97
441.674	15531.8
441.881	16062.22
442.088	15910.67
442.294	15494.93
442.501	16045.84
442.708	16426.76
442.914	17157.88
443.121	17905.39
443.328	17434.36
443.534	18613.99
443.741	18001.65
443.948	17751.79
444.154	19293.91
444.361	19064.54
444.568	19056.35
444.774	19138.27
444.981	19285.72
445.187	19787.47
445.394	20670.15
445.6	20334.28
445.807	22386.35
446.013	21544.63
446.22	21726.9
446.426	22769.32
446.633	23316.12
446.839	23535.26
447.046	22986.4
447.252	23832.21
447.459	24186.51
447.665	23864.98
447.871	25161.34
448.078	25943.67
448.284	24843.91
448.491	25400.96
448.697	26517.1
448.903	26863.21
449.11	26979.94
449.316	26613.35
449.522	27129.44
449.728	27745.88
449.935	28155.47
450.141	28100.18
450.347	28477.01
450.553	28051.03
450.76	28085.84
450.966	29476.41
451.172	28794.44
451.378	29353.54
451.584	28722.76
451.791	29877.82
451.997	29795.9
452.203	30115.38
452.409	30051.89
452.615	30311.99
452.821	28804.68
453.027	28497.49
453.233	30352.94
453.44	28915.27
453.646	29429.31
453.852	29476.41
454.058	30010.93
454.264	29351.49
454.47	30156.34
454.676	28759.63
454.882	29906.49
455.088	27557.47
455.294	27549.28
455.5	28261.97
455.705	28591.69
455.911	27471.45
456.117	27143.78
456.323	26867.3
456.529	25398.91
456.735	26549.87
456.941	25726.58
457.147	25585.27
457.352	24684.17
457.558	24405.64
457.764	24524.43
457.97	24170.13
458.176	23369.37
458.381	23365.28
458.587	22134.45
458.793	21995.18
458.999	21182.14
459.204	22580.9
459.41	21941.94
459.616	20637.38
459.821	20915.9
460.027	20559.56
460.233	20225.74
460.438	19271.39
460.644	19597.01
460.85	18605.8
461.055	18411.24
461.261	18169.58
461.466	16793.34
461.672	16320.26
461.878	17440.5
462.083	16506.63
462.289	16049.93
462.494	15765.26
462.7	15318.81
462.905	14808.86
463.111	15511.32
463.316	15429.4
463.522	15001.37
463.727	14849.82
463.932	15062.81
464.138	14778.14
464.343	14962.46
464.549	14513.95
464.754	14923.55
464.959	14903.07
465.165	14436.13
465.37	14044.97
465.575	13725.49
465.781	14489.38
465.986	14477.09
466.191	13928.24
466.397	13901.61
466.602	13063.99
466.807	13530.93
467.012	13401.91
467.218	13332.28
467.423	13295.41
467.628	13315.89
467.833	13569.84
468.038	13487.92
468.244	12857.15
468.449	13453.11
468.654	13061.94
468.859	12898.11
469.064	12984.12
469.269	12175.17
469.474	12523.33
469.679	12910.4
469.885	12302.15
470.09	12502.85
470.295	12437.31
470.5	12132.17
470.705	12185.41
470.91	12048.2
471.115	12064.58
471.32	12027.72
471.525	11988.81
471.73	11800.4
471.935	11652.94
472.139	11222.87
472.344	11421.52
472.549	11296.6
472.754	11226.96
472.959	10989.4
473.164	10755.93
473.369	10565.47
473.574	11016.02
473.778	10749.79
473.983	10678.11
474.188	11003.74
474.393	10362.72
474.598	10086.25
474.802	10065.77
475.007	10147.69
475.212	10305.38
475.417	9596.78
475.621	9944.94
475.826	9621.36
476.031	9611.12
476.235	9504.62
476.44	9705.32
476.645	9447.28
476.849	9690.99
477.054	9273.2
477.259	9203.57
477.463	9226.1
477.668	9095.03
477.872	9033.59
478.077	8783.74
478.282	8896.38
478.486	8812.41
478.691	8519.55
478.895	8564.61
479.1	8587.13
479.304	8636.28
479.509	8152.96
479.713	8439.68
479.918	8341.38
480.122	8046.47
480.326	8132.48
480.531	8406.91
480.735	8255.36
480.94	8001.41
481.144	8204.16
481.348	7884.68
481.553	7993.22
481.757	7866.25
481.961	7894.92
482.166	8193.92
482.37	7896.97
482.574	7856.01
482.778	7872.39
482.983	7931.78
483.187	7909.26
483.391	7858.06
483.595	7968.65
483.8	7733.13
484.004	8040.33
484.208	7985.03
484.412	7841.67
484.616	7888.78
484.821	7753.61
485.025	7702.41
485.229	8032.13
485.433	7866.25
485.637	7808.9
485.841	7825.29
486.045	7995.27
486.249	7950.21
486.453	7577.48
486.657	7796.62
486.861	7937.93
487.065	7712.65
487.269	7987.08
487.473	7731.08
487.677	7743.37
487.881	7964.55
488.085	7856.01
488.289	8073.09
488.493	7858.06
488.697	7964.55
488.901	8028.04
489.105	7939.97
489.309	7892.87
489.512	7935.88
489.716	8071.04
489.92	8134.53
490.124	8087.43
490.328	8017.8
490.531	7976.84
490.735	8062.85
490.939	8253.31
491.143	8230.79
491.346	8056.71
491.55	8232.83
491.754	8202.11
491.958	8284.03
492.161	8069
492.365	8269.7
492.569	8204.16
492.772	8411.01
492.976	8304.51
493.18	8220.55
493.383	8697.72
493.587	8611.71
493.79	8820.6
493.994	8404.86
494.197	8656.76
494.401	8691.58
494.605	8652.67
494.808	8912.76
495.012	8900.47
495.215	8982.39
495.419	9031.54
495.622	9066.36
495.825	9275.25
496.029	9351.03
496.232	9447.28
496.436	9097.08
496.639	9451.38
496.843	9578.35
497.046	9664.36
497.249	9832.3
497.453	9768.81
497.656	9946.98
497.859	9842.54
498.063	10192.74
498.266	10334.05
498.469	10184.55
498.673	10440.54
498.876	10499.94
499.079	10690.4
499.282	10671.97
499.485	10948.44
499.689	10891.1
499.892	11224.92
500.095	11233.11
500.298	11542.35
500.501	11102.04
500.705	11532.11
500.908	11765.58
501.111	11874.12
501.314	11808.59
501.517	12091.21
501.72	12085.06
501.923	12261.19
502.126	12420.93
502.329	12668.73
502.532	12887.87
502.735	12883.77
502.938	13283.13
503.141	13307.7
503.344	13360.95
503.547	13367.09
503.75	13487.92
503.953	13842.22
504.156	13889.32
504.359	13940.52
504.562	13938.48
504.765	14546.72
504.968	14569.25
505.17	14448.42
505.373	14638.88
505.576	15036.19
505.779	14898.97
505.982	15122.2
506.185	15626
506.387	15611.67
506.59	15767.31
506.793	15968.01
506.996	15972.11
507.198	16262.92
507.401	16396.04
507.604	16430.85
507.807	16748.29
508.009	16928.51
508.212	16869.12
508.415	17127.16
508.617	17413.88
508.82	17393.4
509.022	17452.79
509.225	17878.77
509.428	18073.32
509.63	18210.54
509.833	18333.42
510.035	18573.03
510.238	18749.15
510.44	18777.83
510.643	19255
510.845	19220.19
511.048	19103.45
511.25	19984.08
511.453	19805.91
511.655	20383.43
511.858	20229.84
512.06	20502.22
512.262	20606.66
512.465	20768.45
512.667	20995.78
512.87	21194.43
513.072	21180.09
513.274	21622.45
513.477	21925.55
513.679	22070.96
513.881	22079.15
514.084	22488.74
514.286	22355.63
514.488	22693.54
514.69	23367.32
514.893	23400.09
515.095	23389.85
515.297	23543.45
515.499	23637.66
515.701	23924.37
515.904	24528.52
516.106	24577.67
516.308	24835.72
516.51	25106.05
516.712	24909.44
516.914	25605.75
517.116	25622.14
517.318	25628.28
517.52	25859.7
517.722	26146.42
517.925	26476.14
518.127	26689.13
518.329	26850.92
518.531	26709.61
518.733	27190.88
518.935	27577.95
519.136	27661.91
519.338	27756.12
519.54	28321.36
519.742	28415.57
519.944	28470.86
520.146	28876.36
520.348	29062.72
520.55	29247.04
520.752	29158.98
520.954	29683.26
521.155	29806.14
521.357	30297.65
521.559	30512.69
521.761	30240.31
521.963	30432.82
522.164	31043.11
522.366	31319.59
522.568	31452.7
522.77	31577.63
522.971	31989.27
523.173	31487.52
523.375	31698.46
523.576	31948.31
523.778	32054.81
523.98	32468.5
524.181	32757.26
524.383	32986.63
524.584	33125.89
524.786	33445.38
524.988	32962.06
525.189	33504.77
525.391	33295.88
525.592	33740.29
525.794	33709.57
525.995	33736.19
526.197	34047.48
526.398	34145.78
526.6	34395.64
526.801	34430.45
527.003	34723.31
527.204	34463.22
527.406	35036.65
527.607	34747.89
527.808	35161.58
528.01	34733.55
528.211	34915.82
528.412	35583.46
528.614	35843.55
528.815	35333.6
529.016	35479.01
529.218	35522.02
529.419	35630.56
529.62	35837.41
529.822	35782.11
530.023	35704.29
530.224	35560.93
530.425	35864.03
530.626	35950.04
530.828	35872.22
531.029	36478.42
531.23	36134.36
531.431	35778.01
531.632	36152.79
531.833	36091.35
532.035	36523.47
532.236	36210.14
532.437	36439.51
532.638	36163.03
532.839	36462.04
533.04	36584.91
533.241	36158.94
533.442	36869.58
533.643	36500.95
533.844	36681.17
534.045	36670.93
534.246	36371.92
534.447	36777.42
534.648	36720.08
534.849	36457.94
535.05	36376.02
535.251	36681.17
535.451	36642.26
535.652	36689.36
535.853	36601.3
536.054	36672.98
536.255	37117.39
536.456	36224.47
536.657	36894.16
536.857	36765.13
537.058	36568.53
537.259	36632.02
537.46	36740.56
537.66	37055.95
537.861	36494.8
538.062	36699.6
538.263	36664.78
538.463	36822.48
538.664	36490.71
538.865	36693.46
539.065	36636.11
539.266	36234.71
539.466	36771.28
539.667	36255.19
539.868	36709.84
540.068	36357.59
540.269	36427.22
540.469	36746.7
540.67	36384.21
540.87	36490.71
541.071	36312.53
541.271	36797.9
541.472	35933.66
541.672	36443.6
541.873	36154.84
542.073	35786.21
542.274	36654.54
542.474	36466.13
542.675	36036.06
542.875	36738.51
543.075	36285.91
543.276	36052.44
543.476	36400.6
543.676	35937.76
543.877	36607.44
544.077	36263.38
544.277	36724.18
544.478	35982.81
544.678	36396.5
544.878	36058.59
545.078	36404.69
545.279	36048.35
545.479	36240.85
545.679	36572.63
545.879	36113.88
546.079	36156.89
546.28	36167.13
546.48	36177.37
546.68	36156.89
546.88	36285.91
547.08	36257.24
547.28	36189.66
547.48	36070.87
547.68	36064.73
547.88	35859.93
548.081	35769.82
548.281	36074.97
548.481	36150.74
548.681	36654.54
548.881	35845.6
549.081	36152.79
549.28	35724.77
549.48	36160.98
549.68	36128.22
549.88	36523.47
550.08	35806.69
550.28	35980.76
550.48	35782.11
550.68	35714.53
550.88	35638.75
551.08	35907.04
551.279	36255.19
551.479	35515.87
551.679	35972.57
551.879	35839.45
552.079	36099.55
552.278	35712.48
552.478	35880.41
552.678	35872.22
552.878	36064.73
553.077	35839.45
553.277	35497.44
553.477	35812.83
553.676	35544.55
553.876	35771.87
554.076	35837.41
554.275	35786.21
554.475	35532.26
554.674	35409.38
554.874	35761.63
555.074	35808.73
555.273	35640.8
555.473	35493.35
555.672	35186.15
555.872	35241.45
556.071	35313.13
556.271	35364.32
556.47	35085.8
556.67	34747.89
556.869	35200.49
557.068	35464.67
557.268	35022.31
557.467	35505.63
557.667	35165.67
557.866	34885.1
558.065	35055.08
558.265	34721.26
558.464	34584.05
558.663	35225.06
558.863	34387.44
559.062	34881
559.261	34743.79
559.461	34790.89
559.66	34551.28
559.859	34344.44
560.058	34203.13
560.258	34561.52
560.457	34426.35
560.656	34307.57
560.855	34149.88
561.054	34782.7
561.253	34430.45
561.453	34139.64
561.652	34360.82
561.851	34565.62
562.05	34020.86
562.249	34133.5
562.448	34330.1
562.647	33936.89
562.846	33773.05
563.045	33709.57
563.244	33572.35
563.443	33983.99
563.642	33539.58
563.841	33670.65
564.04	33728
564.239	33746.43
564.438	33416.71
564.637	33379.84
564.836	33562.11
565.035	33201.67
565.234	33541.63
565.432	33111.56
565.631	33463.81
565.83	33173
566.029	33021.45
566.228	33148.42
566.427	32814.6
566.625	33175.05
566.824	32814.6
567.023	32869.9
567.222	32278.04
567.42	32886.28
567.619	32417.3
567.818	32763.4
568.016	32273.94
568.215	32837.13
568.414	32362
568.612	32972.3
568.811	32275.99
569.01	32222.74
569.208	31766.04
569.407	32118.29
569.605	31690.27
569.804	32196.12
570.002	31546.91
570.201	32112.15
570.4	31491.62
570.598	31446.56
570.797	31798.81
570.995	31677.98
571.193	30987.82
571.392	31546.91
571.59	31415.84
571.789	31342.11
571.987	31059.49
572.186	30848.55
572.384	30842.41
572.582	31178.28
572.781	30836.27
572.979	30537.26
573.177	30719.53
573.376	30770.73
573.574	30826.03
573.772	30744.11
573.971	30400.05
574.169	30510.64
574.367	30301.75
574.565	30541.36
574.763	30139.96
574.962	30084.66
575.16	29967.93
575.358	30084.66
575.556	29552.19
575.754	29982.26
575.952	29435.45
576.151	30066.23
576.349	29742.65
576.547	29986.36
576.745	29337.15
576.943	29599.29
577.141	29238.85
577.339	29294.14
577.537	29441.6
577.735	29218.37
577.933	29029.96
578.131	28974.66
578.329	28878.41
578.527	28753.48
578.725	28786.25
578.923	28776.01
579.121	28950.09
579.319	28614.22
579.516	28761.67
579.714	28667.47
579.912	28374.61
580.11	28343.89
580.308	28513.87
580.506	28458.57
580.704	28048.98
580.901	28137.04
581.099	28243.54
581.297	27698.78
581.495	27766.36
581.692	27901.53
581.89	27442.78
582.088	27776.6
582.285	27692.63
582.483	27702.87
582.681	27330.14
582.878	27410.01
583.076	27027.04
583.274	27426.4
583.471	27172.45
583.669	27137.63
583.866	26943.08
584.064	26769
584.262	26875.49
584.459	26910.31
584.657	26545.77
584.854	27014.76
585.052	26433.13
585.249	26621.55
585.447	26400.37
585.644	26218.1
585.841	26367.6
586.039	26717.8
586.236	26066.55
586.434	26146.42
586.631	26011.25
586.828	26027.63
587.026	26031.73
587.223	25955.96
587.42	25937.52
587.618	25849.46
587.815	25323.13
588.012	25546.36
588.21	25296.51
588.407	25673.34
588.604	25333.37
588.801	25308.8
588.999	25179.78
589.196	25124.48
589.393	25308.8
589.59	25081.47
589.787	24819.33
589.984	25153.15
590.182	24774.28
590.379	24864.39
590.576	24725.13
590.773	24661.64
590.97	24534.67
591.167	24630.92
591.364	24460.94
591.561	24413.84
591.758	24088.21
591.955	23885.46
592.152	24299.15
592.349	24157.84
592.546	24178.32
592.743	24008.34
592.94	23875.22
593.137	23871.12
593.334	24037.01
593.531	23330.46
593.727	23692.95
593.924	23447.19
594.121	23318.17
594.318	23473.82
594.515	23215.77
594.712	23463.58
594.908	23316.12
595.105	23041.7
595.302	22908.58
595.499	23131.81
595.696	22912.67
595.892	22718.12
596.089	23023.26
596.286	23004.83
596.482	22826.66
596.679	22714.02
596.876	22795.94
597.072	22199.98
597.269	22777.51
597.466	22290.09
597.662	22224.56
597.859	21931.7
598.055	22269.61
598.252	21927.6
598.448	22001.33
598.645	21743.28
598.841	21810.87
599.038	21890.74
599.234	21849.78
599.431	21663.41
599.627	21880.5
599.824	21665.46
600.02	21421.75
600.217	21733.04
600.413	21194.43
600.609	21423.8
600.806	21472.95
601.002	21176
601.198	21173.95
601.395	21229.24
601.591	21100.22
601.787	21110.46
601.984	21198.52
602.18	21151.42
602.376	20721.35
602.572	20758.21
602.769	20557.51
602.965	20526.79
603.161	20532.93
603.357	20276.94
603.553	20539.08
603.75	20557.51
603.946	20350.67
604.142	20119.24
604.338	19936.98
604.534	20223.69
604.73	20201.16
604.926	19744.47
605.122	20139.72
605.318	19853.01
605.514	19875.54
605.71	19480.28
605.906	19838.67
606.102	19642.07
606.298	19556.05
606.494	19801.81
606.69	19617.49
606.886	19412.7
607.082	19472.09
607.278	19390.17
607.474	19054.3
607.67	19177.18
607.866	19121.88
608.062	19320.54
608.257	19115.74
608.453	19093.21
608.649	19031.77
608.845	19013.34
609.041	19144.41
609.236	19390.17
609.432	18859.74
609.628	18851.55
609.824	18900.7
610.019	18579.17
610.215	18788.07
610.411	18622.18
610.606	18738.91
610.802	18777.83
610.998	18491.11
611.193	18491.11
611.389	18487.01
611.584	18392.81
611.78	18286.31
611.976	18515.69
612.171	18327.27
612.367	18157.29
612.562	18251.5
612.758	18114.28
612.953	18128.62
613.149	18327.27
613.344	17907.44
613.539	18282.22
613.735	18120.43
613.93	18247.4
614.126	17827.57
614.321	18317.03
614.517	17946.35
614.712	17962.73
614.907	17602.29
615.103	17854.19
615.298	17671.92
615.493	18077.42
615.688	17676.02
615.884	17872.62
616.079	17587.96
616.274	17600.24
616.47	17344.25
616.665	17420.02
616.86	17417.97
617.055	17354.49
617.25	17262.33
617.445	17483.51
617.641	16965.37
617.836	17309.43
618.031	16938.75
618.226	17186.55
618.421	17161.98
618.616	17039.1
618.811	16633.6
619.006	17147.64
619.201	16750.34
619.396	16901.89
619.591	16402.18
619.786	16768.77
619.981	16482.05
620.176	16643.84
620.371	16406.28
620.566	16426.76
620.761	16291.59
620.956	16422.66
621.151	16111.37
621.346	15970.06
621.541	15953.68
621.735	16017.16
621.93	15658.77
622.125	15771.41
622.32	15669.01
622.515	15742.74
622.709	15273.75
622.904	15413.01
623.099	15331.09
623.294	15505.17
623.488	15226.65
623.683	15349.53
623.878	14886.68
624.072	14993.18
624.267	15124.25
624.462	14821.15
624.656	14569.25
624.851	14962.46
625.046	14663.46
625.24	14565.15
625.435	14399.27
625.629	14407.46
625.824	14329.64
626.018	14460.71
626.213	14266.15
626.407	14130.98
626.602	14069.55
626.796	13903.66
626.991	13999.91
627.185	13788.97
627.38	13614.9
627.574	13653.81
627.768	13608.75
627.963	13422.39
628.157	13305.65
628.352	13420.34
628.546	13193.01
628.74	13391.67
628.935	13180.73
629.129	13195.06
629.323	13023.03
629.517	12810.04
629.712	12902.2
629.906	13074.23
630.1	12611.39
630.294	12740.41
630.489	12824.38
630.683	12721.98
630.877	12300.1
631.071	12478.27
631.265	12396.35
631.459	12234.57
631.653	12269.38
631.848	12273.48
632.042	12083.02
632.236	12078.92
632.43	11908.94
632.624	12078.92
632.818	11792.2
633.012	11611.98
633.206	11865.93
633.4	11738.96
633.594	11401.04
633.788	11614.03
633.982	11480.91
634.176	11263.83
634.369	11249.49
634.563	11421.52
634.757	11048.79
634.951	11099.99
635.145	11200.34
635.339	11233.11
635.533	10946.39
635.726	10848.09
635.92	11001.69
636.114	10983.26
636.308	10866.52
636.501	10944.35
636.695	10733.4
636.889	10704.73
637.083	10481.5
637.276	10407.78
637.47	10667.87
637.664	10252.13
637.857	10411.87
638.051	10471.26
638.244	10274.66
638.438	10270.56
638.632	10252.13
638.825	10121.06
639.019	10061.67
639.212	9926.5
639.406	10135.4
639.599	9838.44
639.793	10049.38
639.986	9850.73
640.18	9676.65
640.373	9754.48
640.567	9654.12
640.76	9373.55
640.954	9416.56
641.147	9361.27
641.34	9441.14
641.534	9504.62
641.727	9578.35
641.92	9447.28
642.114	9203.57
642.307	9258.87
642.5	9111.41
642.694	9037.69
642.887	8996.73
643.08	9078.65
643.273	8898.42
643.467	8857.46
643.66	8742.78
643.853	8785.79
644.046	8589.18
644.239	8636.28
644.432	8662.91
644.626	8652.67
644.819	8599.42
645.012	8560.51
645.205	8503.17
645.398	8595.32
645.591	8335.23
645.784	8238.98
645.977	8210.31
646.17	8550.27
646.363	8286.08
646.556	8071.04
646.749	8116.1
646.942	8288.13
647.135	7997.32
647.328	8146.82
647.521	7806.86
647.714	7726.99
647.907	7907.21
648.099	7755.66
648.292	7829.38
648.485	7679.88
648.678	7600.01
648.871	7665.55
649.064	7597.96
649.256	7581.58
649.449	7593.87
649.642	7501.71
649.835	7554.96
650.027	7620.49
650.22	7540.62
650.413	7210.9
650.605	7475.09
650.798	7268.24
650.991	7243.67
651.183	7272.34
651.376	6977.43
651.568	6895.51
651.761	7042.96
651.954	7047.06
652.146	7065.49
652.339	6956.95
652.531	6934.42
652.724	6786.97
652.916	6862.74
653.109	7008.15
653.301	6754.2
653.494	6795.16
653.686	6653.85
653.879	6885.27
654.071	6721.43
654.263	6584.22
654.456	6639.51
654.648	6571.93
654.84	6551.45
655.033	6473.63
655.225	6434.72
655.417	6330.27
655.61	6320.03
655.802	6344.61
655.994	6287.26
656.186	6234.02
656.379	6260.64
656.571	6244.26
656.763	6221.73
656.955	6182.82
657.148	6172.58
657.34	6043.56
657.532	6014.88
657.724	5941.16
657.916	6023.08
658.108	5875.62
658.3	5896.1
658.492	5900.2
658.684	5789.61
658.876	5752.74
659.068	5795.75
659.26	5744.55
659.452	5795.75
659.644	5754.79
659.836	5728.17
660.028	5533.61
660.22	5705.64
660.412	5593
660.604	5654.44
660.796	5506.99
660.988	5490.6
661.18	5472.17
661.372	5496.75
661.563	5392.3
661.755	5400.49
661.947	5384.11
662.139	5238.7
662.331	5347.25
662.522	5156.79
662.714	5099.44
662.906	5214.13
663.097	5248.94
663.289	5197.74
663.481	5103.54
663.673	5273.52
663.864	4956.08
664.056	4954.04
664.247	5031.86
664.439	4917.17
664.631	4974.52
664.822	5023.67
665.014	4876.21
665.205	5005.24
665.397	4913.08
665.588	4868.02
665.78	4943.8
665.971	4790.2
666.163	4798.39
666.354	4714.42
666.546	4769.72
666.737	4507.58
666.929	4511.68
667.12	4642.75
667.311	4661.18
667.503	4585.4
667.694	4575.16
667.885	4624.31
668.077	4511.68
668.268	4419.52
668.459	4513.72
668.651	4560.83
668.842	4548.54
669.033	4366.27
669.224	4458.43
669.416	4499.39
669.607	4425.66
669.798	4388.8
669.989	4351.93
670.18	4294.59
670.371	4186.05
670.563	4353.98
670.754	4286.4
670.945	4220.86
671.136	4231.1
671.327	4114.37
671.518	4179.9
671.709	4138.94
671.9	4145.09
672.091	4138.94
672.282	4100.03
672.473	4134.85
672.664	4048.83
672.855	4159.42
673.046	4108.23
673.237	3999.68
673.428	4239.3
673.619	4104.13
673.809	4044.74
674	3962.82
674.191	4005.83
674.382	3895.24
674.573	4057.03
674.764	3995.59
674.954	3925.96
675.145	3870.66
675.336	3839.94
675.527	3928
675.717	3915.72
675.908	3932.1
676.099	3811.27
676.289	3747.78
676.48	3872.71
676.671	3852.23
676.861	3831.75
677.052	3803.08
677.243	3715.02
677.433	3872.71
677.624	3876.8
677.814	3782.6
678.005	3844.04
678.195	3829.7
678.386	3751.88
678.576	3749.83
678.767	3721.16
678.957	3790.79
679.148	3823.56
679.338	3708.87
679.529	3721.16
679.719	3692.49
679.909	3708.87
680.1	3663.82
680.29	3688.39
680.481	3676.1
680.671	3723.21
680.861	3663.82
681.052	3680.2
681.242	3514.31
681.432	3502.03
681.622	3567.56
681.813	3491.79
682.003	3708.87
682.193	3499.98
682.383	3592.14
682.573	3499.98
682.764	3573.71
682.954	3512.27
683.144	3545.03
683.334	3524.55
683.524	3418.06
683.714	3598.28
683.904	3491.79
684.094	3583.95
684.284	3420.11
684.474	3569.61
684.664	3495.88
684.854	3483.59
685.044	3450.83
685.234	3459.02
685.424	3379.15
685.614	3487.69
685.804	3289.04
685.994	3336.14
686.184	3442.64
686.374	3344.33
686.564	3295.18
686.753	3317.71
686.943	3270.61
687.133	3264.46
687.323	3385.29
687.513	3424.2
687.702	3264.46
687.892	3188.69
688.082	3229.65
688.272	3274.7
688.461	3248.08
688.651	3348.43
688.841	3092.43
689.03	3207.12
689.22	3200.98
689.41	3166.16
689.599	3057.62
689.789	3045.33
689.979	3117.01
690.168	3127.25
690.358	3188.69
690.547	2885.59
690.737	3012.56
690.926	2918.36
691.116	3016.66
691.305	3102.67
691.495	3004.37
691.684	2895.83
691.874	3028.95
692.063	2885.59
692.252	2947.03
692.442	3117.01
692.631	2938.84
692.82	2834.39
693.01	2918.36
693.199	2877.4
693.388	2844.63
693.578	2754.52
693.767	2815.96
693.956	2934.74
694.146	2834.39
694.335	2795.48
694.524	2793.43
694.713	2887.64
694.902	2682.84
695.092	2836.44
695.281	2678.74
695.47	2729.94
695.659	2609.11
695.848	2748.37
696.037	2691.03
696.226	2662.36
696.415	2688.98
696.604	2697.17
696.793	2656.22
696.982	2705.37
697.171	2740.18
697.36	2721.75
697.549	2680.79
697.738	2588.63
697.927	2648.02
698.116	2686.93
698.305	2734.04
698.494	2664.41
698.683	2459.61
698.872	2564.06
699.061	2480.09
699.25	2557.91
699.438	2574.3
699.627	2494.43
699.816	2570.2
700.005	2510.81
700.193	2627.54
700.382	2529.24
700.571	2598.87
700.76	2535.39
700.948	2432.99
701.137	2494.43
701.326	2576.34
701.514	2514.91
701.703	2461.66
701.892	2471.9
702.08	2471.9
702.269	2533.34
702.457	2541.53
702.646	2547.67
702.834	2381.79
703.023	2447.32
703.212	2541.53
703.4	2529.24
703.589	2301.92
703.777	2437.08
703.965	2482.14
704.154	2451.42
704.342	2521.05
704.531	2445.27
704.719	2281.44
704.907	2484.19
705.096	2349.02
705.284	2408.41
705.472	2502.62
705.661	2385.88
705.849	2445.27
706.037	2346.97
706.226	2424.8
706.414	2396.12
706.602	2396.12
706.79	2516.95
706.979	2385.88
707.167	2375.64
707.355	2406.36
707.543	2314.2
707.731	2381.79
707.919	2295.77
708.107	2312.16
708.296	2353.12
708.484	2381.79
708.672	2369.5
708.86	2351.07
709.048	2291.68
709.236	2402.27
709.424	2342.88
709.612	2418.65
709.8	2263.01
709.988	2336.73
710.176	2385.88
710.364	2330.59
710.551	2334.68
710.739	2338.78
710.927	2279.39
711.115	2365.4
711.303	2398.17
711.491	2426.84
711.679	2183.13
711.866	2269.15
712.054	2389.98
712.242	2222.05
712.43	2267.1
712.617	2340.83
712.805	2299.87
712.993	2242.53
713.181	2367.45
713.368	2263.01
713.556	2291.68
713.744	2353.12
713.931	2314.2
714.119	2293.73
714.306	2256.86
714.494	2269.15
714.682	2281.44
714.869	2326.49
715.057	2234.33
715.244	2408.41
715.432	2371.55
715.619	2316.25
715.807	2310.11
715.994	2291.68
716.182	2357.21
716.369	2209.76
716.556	2258.91
716.744	2267.1
716.931	2246.62
717.119	2297.82
717.306	2295.77
717.493	2326.49
717.681	2291.68
717.868	2254.81
718.055	2312.16
718.242	2279.39
718.43	2342.88
718.617	2265.05
718.804	2353.12
718.991	2195.42
719.179	2234.33
719.366	2164.7
719.553	2328.54
719.74	2197.47
719.927	2320.35
720.114	2250.72
720.301	2332.64
720.488	2275.29
720.676	2289.63
720.863	2291.68
721.05	2326.49
721.237	2213.85
721.424	2248.67
721.611	2355.16
721.798	2181.09
721.985	2164.7
722.172	2191.33
722.358	2361.31
722.545	2324.44
722.732	2254.81
722.919	2371.55
723.106	2209.76
723.293	2148.32
723.48	2234.33
723.667	2217.95
723.853	2361.31
724.04	2283.49
724.227	2310.11
724.414	2226.14
724.6	2271.2
724.787	2265.05
724.974	2242.53
725.161	2224.09
725.347	2174.94
725.534	2228.19
725.72	2236.38
725.907	2228.19
726.094	2306.01
726.28	2109.41
726.467	2301.92
726.653	2172.89
726.84	2295.77
727.027	2258.91
727.213	2279.39
727.4	2351.07
727.586	2316.25
727.773	2256.86
727.959	2260.96
728.145	2179.04
728.332	2316.25
728.518	2332.64
728.705	2193.37
728.891	2230.24
729.077	2213.85
729.264	2269.15
729.45	2197.47
729.636	2277.34
729.823	2297.82
730.009	2263.01
730.195	2303.96
730.382	2299.87
730.568	2322.4
730.754	2215.9
730.94	2263.01
731.126	2455.51
731.313	2279.39
731.499	2197.47
731.685	2336.73
731.871	2336.73
732.057	2320.35
732.243	2336.73
732.429	2254.81
732.615	2295.77
732.801	2361.31
732.987	2299.87
733.173	2217.95
733.359	2185.18
733.545	2369.5
733.731	2234.33
733.917	2240.48
734.103	2232.29
734.289	2344.92
734.475	2377.69
734.661	2273.25
734.847	2369.5
735.033	2277.34
735.219	2303.96
735.404	2133.98
735.59	2238.43
735.776	2254.81
735.962	2303.96
736.148	2191.33
736.333	2299.87
736.519	2234.33
736.705	2234.33
736.89	2215.9
737.076	2316.25
737.262	2215.9
737.447	2195.42
737.633	2240.48
737.819	2285.53
738.004	2248.67
738.19	2117.6
738.375	2211.81
738.561	2295.77
738.747	2209.76
738.932	2107.36
739.118	2197.47
739.303	2230.24
739.489	2095.07
739.674	2142.18
739.859	2148.32
740.045	2113.5
740.23	2213.85
740.416	2074.59
740.601	2238.43
740.786	2119.65
740.972	2172.89
741.157	2115.55
741.342	2160.61
741.528	2125.79
741.713	2172.89
741.898	2097.12
742.084	2142.18
742.269	1974.24
742.454	2164.7
742.639	2213.85
742.824	2090.98
743.01	2129.89
743.195	2082.78
743.38	2068.45
743.565	2090.98
743.75	2066.4
743.935	1984.48
744.12	2099.17
744.305	1957.86
744.49	2088.93
744.675	2021.35
744.86	2131.94
745.045	2072.54
745.23	2095.07
745.415	1976.29
745.6	1927.14
745.785	1927.14
745.97	1998.82
746.155	1980.39
746.34	1839.08
746.525	1884.13
746.71	1910.75
746.895	1927.14
747.079	2019.3
747.264	1865.7
747.449	1927.14
747.634	1904.61
747.819	1980.39
748.003	1855.46
748.188	1898.47
748.373	1847.27
748.557	1964
748.742	1763.3
748.927	1779.68
749.111	1814.5
749.296	1763.3
749.481	1804.26
749.665	1767.4
749.85	1816.55
750.034	1787.88
750.219	1699.81
750.404	1689.57
750.588	1716.2
750.773	1722.34
750.957	1732.58
751.141	1705.96
751.326	1697.77
751.51	1615.85
751.695	1697.77
751.879	1644.52
752.064	1765.35
752.248	1615.85
752.432	1714.15
752.617	1677.29
752.801	1642.47
752.985	1566.7
753.17	1538.02
753.354	1574.89
753.538	1511.4
753.722	1583.08
753.907	1519.59
754.091	1484.78
754.275	1544.17
754.459	1445.87
754.643	1503.21
754.828	1402.86
755.012	1509.35
755.196	1431.53
755.38	1435.63
755.564	1435.63
755.748	1394.67
755.932	1468.39
756.116	1402.86
756.3	1427.43
756.484	1333.23
756.668	1361.9
756.852	1290.22
757.036	1331.18
757.22	1390.57
757.404	1298.41
757.588	1394.67
757.772	1386.47
757.956	1239.02
758.14	1361.9
758.323	1249.26
758.507	1402.86
758.691	1247.21
758.875	1288.17
759.059	1247.21
759.242	1361.9
759.426	1222.64
759.61	1222.64
759.794	1222.64
759.977	1222.64
760.161	1306.6
760.345	1218.54
760.528	1224.69
760.712	1267.69
760.895	1279.98
761.079	1079.28
761.263	1222.64
761.446	1196.01
761.63	1179.63
761.813	1101.81
761.997	1013.74
762.18	960.5
762.364	1083.38
762.547	1169.39
762.731	1163.25
762.914	1146.86
763.098	1079.28
763.281	1050.61
763.464	1116.14
763.648	1167.34
763.831	1099.76
764.015	1110
764.198	1046.51
764.381	1079.28
764.564	1134.57
764.748	1021.94
764.931	1050.61
765.114	1085.42
765.297	1058.8
765.481	958.45
765.664	1116.14
765.847	962.55
766.03	1056.75
766.213	993.26
766.397	985.07
766.58	966.64
766.763	993.26
766.946	968.69
767.129	1023.98
767.312	976.88
767.495	929.78
767.678	1069.04
767.861	1040.37
768.044	1001.46
768.227	1011.7
768.41	956.4
768.593	1030.13
768.776	960.5
768.959	1011.7
769.142	952.31
769.324	890.87
769.507	931.83
769.69	915.44
769.873	931.83
770.056	929.78
770.239	925.68
770.421	942.07
770.604	985.07
770.787	956.4
770.97	946.16
771.152	864.24
771.335	841.72
771.518	890.87
771.7	964.59
771.883	974.83
772.066	890.87
772.248	952.31
772.431	823.28
772.613	870.39
772.796	782.32
772.978	878.58
773.161	944.11
773.343	788.47
773.526	839.67
773.708	823.28
773.891	829.43
774.073	759.8
774.256	751.6
774.438	731.12
774.621	763.89
774.803	788.47
774.985	743.41
775.168	825.33
775.35	792.56
775.532	739.32
775.715	757.75
775.897	837.62
776.079	798.71
776.261	763.89
776.444	763.89
776.626	708.6
776.808	741.36
776.99	706.55
777.173	743.41
777.355	763.89
777.537	673.78
777.719	708.6
777.901	741.36
778.083	679.93
778.265	702.45
778.447	759.8
778.629	643.06
778.811	700.41
778.993	616.44
779.175	731.12
779.357	653.3
779.539	604.15
779.721	686.07
779.903	665.59
780.085	649.21
780.267	612.34
780.449	690.17
780.631	585.72
780.812	698.36
780.994	536.57
781.176	591.86
781.358	645.11
781.54	610.29
781.721	616.44
781.903	598.01
782.085	559.1
782.267	583.67
782.448	501.75
782.63	491.51
782.812	534.52
782.993	516.09
783.175	518.14
783.357	493.56
783.538	522.23
783.72	430.07
783.901	538.62
784.083	565.24
784.264	542.71
784.446	468.98
784.627	464.89
784.809	579.58
784.99	428.03
785.172	569.34
785.353	587.77
785.535	479.22
785.716	503.8
785.897	518.14
786.079	423.93
786.26	434.17
786.441	511.99
786.623	456.7
786.804	425.98
786.985	511.99
787.167	471.03
787.348	399.35
787.529	401.4
787.71	468.98
787.891	448.51
788.073	425.98
788.254	360.44
788.435	403.45
788.616	466.94
788.797	425.98
788.978	438.27
789.159	421.88
789.34	430.07
789.522	428.03
789.703	444.41
789.884	370.68
790.065	321.53
790.246	350.2
790.427	378.87
790.607	428.03
790.788	448.51
790.969	395.26
791.15	423.93
791.331	370.68
791.512	405.5
791.693	366.59
791.874	387.07
792.054	362.49
792.235	403.45
792.416	374.78
792.597	358.39
792.778	331.77
792.958	401.4
793.139	389.11
793.32	354.3
793.5	299
793.681	395.26
793.862	313.34
794.042	276.48
794.223	317.44
794.404	280.57
794.584	354.3
794.765	301.05
794.945	372.73
795.126	296.96
795.306	362.49
795.487	301.05
795.667	428.03
795.848	315.39
796.028	305.15
796.209	296.96
796.389	327.68
796.57	284.67
796.75	276.48
796.93	342.01
797.111	309.24
797.291	225.28
797.471	335.87
797.652	260.09
797.832	212.99
798.012	290.81
798.192	268.28
798.373	294.91
798.553	258.04
798.733	321.53
798.913	266.24
799.093	282.62
799.274	251.9
799.454	344.06
799.634	284.67
799.814	215.04
799.994	276.48
800.174	288.76
800.354	321.53
800.534	258.04
800.714	305.15
800.894	157.69
801.074	239.61
801.254	329.72
801.434	188.41
801.614	272.38
801.794	124.93
801.974	751.6
802.154	296.96
802.334	233.47
802.514	301.05
802.693	202.75
802.873	206.84
803.053	296.96
803.233	262.14
803.413	165.89
803.592	215.04
803.772	274.43
803.952	204.8
804.131	247.8
804.311	212.99
804.491	225.28
804.67	210.94
804.85	249.85
805.03	194.56
805.209	251.9
805.389	192.51
805.568	256
805.748	180.22
805.928	176.13
806.107	208.89
806.287	206.84
806.466	256
806.646	321.53
806.825	288.76
807.004	272.38
807.184	133.12
807.363	137.21
807.543	346.11
807.722	190.46
807.901	270.33
808.081	202.75
808.26	241.66
808.439	167.93
808.619	219.13
808.798	124.93
808.977	280.57
809.156	215.04
809.336	221.18
809.515	165.89
809.694	159.74
809.873	106.49
810.052	200.7
810.231	206.84
810.411	182.27
810.59	215.04
810.769	161.79
810.948	206.84
811.127	137.21
811.306	221.18
811.485	159.74
811.664	176.13
811.843	174.08
812.022	157.69
812.201	186.37
812.38	198.65
812.559	190.46
812.737	137.21
812.916	108.54
813.095	174.08
813.274	131.07
813.453	118.78
813.632	161.79
813.811	182.27
813.989	141.31
814.168	143.36
814.347	122.88
814.526	223.23
814.704	94.21
814.883	200.7
815.062	108.54
815.24	198.65
815.419	133.12
815.598	174.08
815.776	159.74
815.955	69.63
816.133	143.36
816.312	116.73
816.49	151.55
816.669	161.79
816.847	141.31
817.026	190.46
817.204	135.17
817.383	174.08
817.561	176.13
817.74	153.6
817.918	108.54
818.097	182.27
818.275	135.17
818.453	161.79
818.632	141.31
818.81	157.69
818.988	157.69
819.167	69.63
819.345	165.89
819.523	96.25
819.701	129.02
819.879	149.5
820.058	200.7
820.236	67.58
820.414	96.25
820.592	75.77
820.77	71.68
820.948	155.65
821.127	118.78
821.305	94.21
821.483	149.5
821.661	157.69
821.839	165.89
822.017	108.54
822.195	153.6
822.373	182.27
822.551	92.16
822.729	100.35
822.907	110.59
823.085	145.41
823.262	116.73
823.44	129.02
823.618	96.25
823.796	90.11
823.974	116.73
824.152	94.21
824.329	124.93
824.507	151.55
824.685	169.98
824.863	102.4
825.04	223.23
825.218	169.98
825.396	124.93
825.574	112.64
825.751	124.93
825.929	141.31
826.107	34.82
826.284	108.54
826.462	104.45
826.639	149.5
826.817	96.25
826.994	116.73
827.172	69.63
827.349	141.31
827.527	116.73
827.704	133.12
827.882	133.12
828.059	129.02
828.237	129.02
828.414	194.56
828.591	53.25
828.769	133.12
828.946	149.5
829.124	118.78
829.301	108.54
829.478	116.73
829.655	77.82
829.833	167.93
830.01	34.82
830.187	124.93
830.364	67.58
830.542	59.39
830.719	30.72
830.896	186.37
831.073	83.97
831.25	79.87
831.427	36.86
831.604	116.73
831.782	47.1
831.959	149.5
832.136	112.64
832.313	75.77
832.49	-22.53
832.667	116.73
832.844	75.77
833.021	88.06
833.198	145.41
833.374	116.73
833.551	45.06
833.728	102.4
833.905	79.87
834.082	55.3
834.259	135.17
834.436	49.15
834.612	-34.82
834.789	100.35
834.966	120.83
835.143	43.01
835.319	43.01
835.496	2.05
835.673	20.48
835.85	100.35
836.026	59.39
836.203	141.31
836.38	47.1
836.556	43.01
836.733	108.54
836.909	120.83
837.086	75.77
837.262	43.01
837.439	12.29
837.616	45.06
837.792	38.91
837.968	51.2
838.145	86.01
838.321	43.01
838.498	53.25
838.674	6.14
838.851	67.58
839.027	102.4
839.203	71.68
839.38	126.97
839.556	67.58
839.732	133.12
839.909	71.68
840.085	51.2
840.261	108.54
840.437	108.54
840.614	135.17
840.79	24.58
840.966	63.49
841.142	69.63
841.318	53.25
841.494	43.01
841.671	47.1
841.847	-4.1
842.023	2.05
842.199	61.44
842.375	141.31
842.551	34.82
842.727	-8.19
842.903	133.12
843.079	43.01
843.255	135.17
843.431	88.06
843.607	67.58
843.783	40.96
843.959	45.06
844.134	116.73
844.31	43.01
844.486	32.77
844.662	18.43
844.838	12.29
845.013	77.82
845.189	71.68
845.365	126.97
845.541	24.58
845.716	106.49
845.892	18.43
846.068	114.69
846.244	2.05
846.419	83.97
846.595	43.01
846.77	43.01
846.946	83.97
847.122	110.59
847.297	10.24
847.473	104.45
847.648	55.3
847.824	112.64
847.999	38.91
848.175	100.35
848.35	18.43
848.526	92.16
848.701	108.54
848.876	83.97
849.052	-12.29
849.227	55.3
849.403	51.2
849.578	10.24
849.753	94.21
849.929	-4.1
850.104	28.67
850.279	106.49
850.454	-36.86
850.63	53.25
850.805	59.39
850.98	96.25
851.155	55.3
851.33	16.38
851.505	36.86
851.681	94.21
851.856	36.86
852.031	129.02
852.206	43.01
852.381	53.25
852.556	40.96
852.731	36.86
852.906	4.1
853.081	47.1
853.256	30.72
853.431	26.62
853.606	36.86
853.781	-26.62
853.956	38.91
854.131	133.12
854.305	18.43
854.48	83.97
854.655	49.15
854.83	20.48
855.005	12.29
855.18	-28.67
855.354	22.53
855.529	10.24
855.704	14.34
855.879	26.62
856.053	-18.43
856.228	96.25
856.403	-63.49
856.577	26.62
856.752	34.82
856.926	73.73
857.101	47.1
857.276	-36.86
857.45	51.2
857.625	18.43
857.799	-16.38
857.974	-2.05
858.148	-14.34
858.323	-47.1
858.497	-18.43
858.672	24.58
858.846	10.24
859.02	59.39
859.195	34.82
859.369	61.44
859.543	43.01
859.718	34.82
859.892	38.91
860.066	-14.34
860.241	-22.53
860.415	12.29
860.589	30.72
860.763	-59.39
860.938	-40.96
861.112	69.63
861.286	38.91
861.46	36.86
861.634	12.29
861.808	20.48
861.982	-47.1
862.157	0
862.331	-14.34
862.505	40.96
862.679	2.05
862.853	4.1
863.027	-40.96
863.201	100.35
863.375	-16.38
863.549	61.44
863.722	34.82
863.896	69.63
864.07	79.87
864.244	83.97
864.418	-4.1
864.592	18.43
864.766	45.06
864.939	-14.34
865.113	133.12
865.287	34.82
865.461	-6.14
865.634	59.39
865.808	73.73
865.982	-14.34
866.156	22.53
866.329	-28.67
866.503	-6.14
866.676	24.58
866.85	34.82
867.024	16.38
867.197	53.25
867.371	73.73
867.544	14.34
867.718	-30.72
867.891	47.1
868.065	51.2
868.238	8.19
868.412	4.1
868.585	45.06
868.759	6.14
868.932	-4.1
869.105	22.53
869.279	30.72
869.452	47.1
869.625	-14.34
869.799	40.96
869.972	34.82
870.145	-30.72
870.319	59.39
870.492	34.82
870.665	94.21
870.838	-30.72
871.011	-28.67
871.185	2.05
871.358	77.82
871.531	86.01
871.704	36.86
871.877	92.16
872.05	65.54
872.223	20.48
872.396	43.01
872.569	124.93
872.742	-34.82
872.915	26.62
873.088	38.91
873.261	-2.05
873.434	-38.91
873.607	-38.91
873.78	51.2
873.953	2.05
874.126	-18.43
874.299	10.24
874.471	38.91
874.644	8.19
874.817	-16.38
874.99	92.16
875.163	-4.1
875.335	51.2
875.508	-24.58
875.681	49.15
875.853	92.16
876.026	43.01
876.199	43.01
876.371	22.53
876.544	65.54
876.717	55.3
876.889	-45.06
877.062	26.62
877.234	12.29
877.407	-14.34
877.579	-8.19
877.752	-8.19
877.924	28.67
878.097	34.82
878.269	61.44
878.442	-10.24
878.614	36.86
878.786	-6.14
878.959	43.01
879.131	67.58
879.303	6.14
879.476	-6.14
879.648	22.53
879.82	55.3
879.993	18.43
880.165	61.44
880.337	-122.88
880.509	51.2
880.681	-26.62
880.854	28.67
881.026	47.1
881.198	63.49
881.37	43.01
881.542	36.86
881.714	43.01
881.886	30.72
882.058	14.34
882.23	28.67
882.402	26.62
882.574	69.63
882.746	38.91
882.918	36.86
883.09	10.24
883.262	6.14
883.434	-6.14
883.606	-10.24
883.778	10.24
883.95	100.35
884.122	26.62
884.293	77.82
884.465	59.39
884.637	45.06
884.809	-38.91
884.98	-4.1
885.152	-20.48
885.324	77.82
885.496	59.39
885.667	22.53
885.839	30.72
886.011	55.3
886.182	8.19
886.354	59.39
886.525	-63.49
886.697	28.67
886.869	4.1
887.04	16.38
887.212	40.96
887.383	51.2
887.555	8.19
887.726	12.29
887.897	-47.1
888.069	81.92
888.24	32.77
888.412	-22.53
888.583	28.67
888.754	24.58
888.926	10.24
889.097	2.05
889.268	-12.29
889.44	-20.48
889.611	-26.62
889.782	-63.49
889.953	20.48
890.125	8.19
890.296	14.34
890.467	12.29
890.638	-32.77
890.809	-6.14
890.98	-14.34
891.151	51.2
891.323	51.2
891.494	-30.72
891.665	-18.43
891.836	-30.72
892.007	-6.14
892.178	18.43
892.349	-10.24
892.52	-55.3
892.691	-30.72
892.862	10.24
893.032	43.01
893.203	43.01
893.374	-6.14
893.545	71.68
893.716	10.24
893.887	-28.67
894.057	-6.14
894.228	51.2
894.399	2.05
894.57	77.82
894.74	28.67
894.911	2.05
895.082	79.87
895.253	12.29
895.423	63.49
895.594	34.82
895.764	-26.62
895.935	-63.49
896.106	-18.43
896.276	-22.53
896.447	-40.96
896.617	4.1
896.788	36.86
896.958	-43.01
897.129	-36.86
897.299	-8.19
897.47	53.25
897.64	-10.24
897.81	49.15
897.981	10.24
898.151	-81.92
898.322	12.29
898.492	36.86
898.662	16.38
898.832	38.91
899.003	59.39
899.173	83.97
899.343	26.62
899.513	-6.14
