Data from USB4F104151__3__14-42-29-230.txt Node

Date: Thu Mar 13 14:42:29 EDT 2025
User: louis
Spectrometer: USB4F10415
Trigger mode: 4
Integration Time (sec): 2.000000E-2
Scans to average: 1
Electric dark correction enabled: true
Nonlinearity correction enabled: false
Boxcar width: 0
XAxis mode: Wavelengths
Number of Pixels in Spectrum: 3648
>>>>>Begin Spectral Data<<<<<
178.204	-97.62
178.424	-97.62
178.644	-97.62
178.864	-140.63
179.084	-128.34
179.304	-85.33
179.524	-48.47
179.744	21.16
179.964	68.27
180.184	-15.7
180.404	43.69
180.624	15.02
180.844	31.4
181.064	-5.46
181.283	-83.28
181.503	-1.37
181.723	60.07
181.943	-5.46
182.163	0.68
182.383	-19.8
182.602	10.92
182.822	-1.37
183.042	15.02
183.262	55.98
183.482	-32.08
183.701	35.5
183.921	-25.94
184.141	17.07
184.361	49.83
184.58	-66.9
184.8	60.07
185.02	-42.32
185.239	66.22
185.459	-17.75
185.679	113.32
185.898	-1.37
186.118	109.23
186.338	49.83
186.557	33.45
186.777	15.02
186.997	2.73
187.216	-23.89
187.436	-15.7
187.655	17.07
187.875	15.02
188.095	-56.66
188.314	31.4
188.534	66.22
188.753	8.87
188.973	-23.89
189.192	115.37
189.412	-13.65
189.631	-1.37
189.851	80.55
190.07	129.7
190.29	-89.43
190.509	33.45
190.729	41.64
190.948	103.08
191.168	129.7
191.387	39.59
191.607	-34.13
191.826	6.83
192.045	23.21
192.265	76.46
192.484	19.11
192.704	-15.7
192.923	19.11
193.142	15.02
193.362	55.98
193.581	68.27
193.8	76.46
194.02	25.26
194.239	12.97
194.458	-36.18
194.678	17.07
194.897	-1.37
195.116	-1.37
195.335	21.16
195.555	-9.56
195.774	-1.37
195.993	10.92
196.212	35.5
196.432	-9.56
196.651	-11.61
196.87	21.16
197.089	109.23
197.308	15.02
197.528	68.27
197.747	-17.75
197.966	-1.37
198.185	164.52
198.404	-75.09
198.623	-56.66
198.842	68.27
199.062	51.88
199.281	39.59
199.5	-42.32
199.719	-1.37
199.938	45.74
200.157	-15.7
200.376	21.16
200.595	70.31
200.814	41.64
201.033	37.55
201.252	35.5
201.471	17.07
201.69	-48.47
201.909	129.7
202.128	-52.56
202.347	35.5
202.566	80.55
202.785	17.07
203.004	10.92
203.223	98.99
203.442	17.07
203.661	25.26
203.879	-1.37
204.098	-9.56
204.317	-11.61
204.536	23.21
204.755	8.87
204.974	37.55
205.193	-1.37
205.411	6.83
205.63	-48.47
205.849	74.41
206.068	23.21
206.287	-79.19
206.505	60.07
206.724	31.4
206.943	-1.37
207.162	-15.7
207.381	0.68
207.599	68.27
207.818	60.07
208.037	39.59
208.255	-46.42
208.474	-7.51
208.693	-1.37
208.911	-1.37
209.13	-1.37
209.349	64.17
209.567	15.02
209.786	123.56
210.005	31.4
210.223	64.17
210.442	-21.85
210.661	8.87
210.879	58.03
211.098	58.03
211.316	-71
211.535	-1.37
211.753	25.26
211.972	80.55
212.191	-11.61
212.409	-75.09
212.628	21.16
212.846	41.64
213.065	72.36
213.283	-1.37
213.502	-34.13
213.72	-1.37
213.938	-32.08
214.157	6.83
214.375	86.7
214.594	6.83
214.812	49.83
215.031	10.92
215.249	31.4
215.467	-9.56
215.686	19.11
215.904	-5.46
216.122	-38.23
216.341	94.89
216.559	-5.46
216.778	10.92
216.996	31.4
217.214	6.83
217.432	25.26
217.651	47.79
217.869	-7.51
218.087	-9.56
218.306	6.83
218.524	70.31
218.742	17.07
218.96	39.59
219.179	-27.99
219.397	15.02
219.615	111.27
219.833	33.45
220.051	-32.08
220.27	39.59
220.488	47.79
220.706	33.45
220.924	15.02
221.142	68.27
221.36	12.97
221.578	64.17
221.796	-58.71
222.015	-9.56
222.233	53.93
222.451	74.41
222.669	-11.61
222.887	10.92
223.105	6.83
223.323	70.31
223.541	-13.65
223.759	0.68
223.977	51.88
224.195	21.16
224.413	-36.18
224.631	15.02
224.849	-1.37
225.067	55.98
225.285	-1.37
225.503	-34.13
225.721	-54.61
225.939	41.64
226.157	-1.37
226.375	90.79
226.592	15.02
226.81	2.73
227.028	-17.75
227.246	90.79
227.464	-13.65
227.682	47.79
227.9	25.26
228.117	43.69
228.335	2.73
228.553	41.64
228.771	-17.75
228.989	-7.51
229.206	-38.23
229.424	6.83
229.642	41.64
229.86	39.59
230.077	31.4
230.295	-23.89
230.513	-9.56
230.731	47.79
230.948	29.35
231.166	8.87
231.384	23.21
231.601	31.4
231.819	58.03
232.037	-17.75
232.254	6.83
232.472	-1.37
232.689	-17.75
232.907	31.4
233.125	-19.8
233.342	6.83
233.56	-83.28
233.777	-19.8
233.995	17.07
234.213	80.55
234.43	-30.04
234.648	19.11
234.865	-25.94
235.083	43.69
235.3	82.6
235.518	53.93
235.735	49.83
235.953	-1.37
236.17	10.92
236.388	-34.13
236.605	33.45
236.822	86.7
237.04	15.02
237.257	-5.46
237.475	41.64
237.692	23.21
237.909	15.02
238.127	17.07
238.344	-15.7
238.562	19.11
238.779	8.87
238.996	15.02
239.214	74.41
239.431	86.7
239.648	-1.37
239.865	10.92
240.083	17.07
240.3	31.4
240.517	-77.14
240.735	72.36
240.952	58.03
241.169	90.79
241.386	-17.75
241.603	-32.08
241.821	37.55
242.038	2.73
242.255	10.92
242.472	8.87
242.689	107.18
242.907	15.02
243.124	88.75
243.341	47.79
243.558	-66.9
243.775	64.17
243.992	-13.65
244.209	-25.94
244.426	66.22
244.643	31.4
244.86	-9.56
245.078	8.87
245.295	23.21
245.512	-34.13
245.729	33.45
245.946	55.98
246.163	23.21
246.38	35.5
246.597	58.03
246.814	-23.89
247.031	86.7
247.248	-32.08
247.464	68.27
247.681	-17.75
247.898	47.79
248.115	62.12
248.332	-15.7
248.549	21.16
248.766	-17.75
248.983	8.87
249.2	-30.04
249.417	-5.46
249.633	-87.38
249.85	105.13
250.067	39.59
250.284	-1.37
250.501	53.93
250.717	17.07
250.934	2.73
251.151	12.97
251.368	53.93
251.585	15.02
251.801	-68.95
252.018	45.74
252.235	27.31
252.451	-13.65
252.668	-30.04
252.885	-1.37
253.102	58.03
253.318	31.4
253.535	-32.08
253.752	-21.85
253.968	-1.37
254.185	-56.66
254.401	31.4
254.618	64.17
254.835	25.26
255.051	84.65
255.268	-17.75
255.484	2.73
255.701	-19.8
255.917	23.21
256.134	2.73
256.351	66.22
256.567	-66.9
256.784	72.36
257	-66.9
257.217	47.79
257.433	41.64
257.65	72.36
257.866	41.64
258.082	29.35
258.299	-42.32
258.515	-1.37
258.732	43.69
258.948	-17.75
259.165	6.83
259.381	-7.51
259.597	27.31
259.814	72.36
260.03	39.59
260.246	-40.28
260.463	98.99
260.679	-42.32
260.895	-58.71
261.112	98.99
261.328	-9.56
261.544	66.22
261.761	94.89
261.977	23.21
262.193	-5.46
262.409	78.51
262.626	43.69
262.842	35.5
263.058	6.83
263.274	41.64
263.49	55.98
263.707	23.21
263.923	-27.99
264.139	-17.75
264.355	-13.65
264.571	33.45
264.787	-66.9
265.004	33.45
265.22	15.02
265.436	-81.24
265.652	-36.18
265.868	27.31
266.084	-58.71
266.3	58.03
266.516	33.45
266.732	31.4
266.948	43.69
267.164	35.5
267.38	68.27
267.596	33.45
267.812	55.98
268.028	31.4
268.244	66.22
268.46	23.21
268.676	17.07
268.892	-5.46
269.108	17.07
269.324	19.11
269.54	-7.51
269.756	33.45
269.972	-30.04
270.188	33.45
270.403	35.5
270.619	-7.51
270.835	39.59
271.051	76.46
271.267	-5.46
271.483	-48.47
271.698	51.88
271.914	31.4
272.13	8.87
272.346	33.45
272.562	-23.89
272.777	62.12
272.993	-23.89
273.209	27.31
273.425	39.59
273.64	-116.05
273.856	31.4
274.072	31.4
274.287	-40.28
274.503	-11.61
274.719	84.65
274.934	10.92
275.15	17.07
275.366	96.94
275.581	-38.23
275.797	-56.66
276.012	-11.61
276.228	-9.56
276.444	-79.19
276.659	78.51
276.875	-46.42
277.09	80.55
277.306	-13.65
277.521	47.79
277.737	60.07
277.952	0.68
278.168	60.07
278.383	39.59
278.599	-9.56
278.814	-34.13
279.03	15.02
279.245	17.07
279.461	19.11
279.676	47.79
279.892	-9.56
280.107	-46.42
280.322	6.83
280.538	17.07
280.753	39.59
280.969	23.21
281.184	64.17
281.399	33.45
281.615	31.4
281.83	8.87
282.045	43.69
282.26	-52.56
282.476	-15.7
282.691	-32.08
282.906	39.59
283.122	-1.37
283.337	88.75
283.552	19.11
283.767	-32.08
283.983	2.73
284.198	-1.37
284.413	8.87
284.628	-89.43
284.843	45.74
285.058	58.03
285.274	39.59
285.489	-52.56
285.704	66.22
285.919	51.88
286.134	23.21
286.349	17.07
286.564	25.26
286.779	70.31
286.995	2.73
287.21	-83.28
287.425	8.87
287.64	-42.32
287.855	41.64
288.07	-38.23
288.285	23.21
288.5	-1.37
288.715	12.97
288.93	15.02
289.145	2.73
289.36	49.83
289.575	6.83
289.79	19.11
290.004	33.45
290.219	-1.37
290.434	-13.65
290.649	-42.32
290.864	88.75
291.079	29.35
291.294	23.21
291.509	68.27
291.724	0.68
291.938	-40.28
292.153	55.98
292.368	74.41
292.583	31.4
292.798	41.64
293.012	31.4
293.227	23.21
293.442	-19.8
293.657	84.65
293.871	41.64
294.086	31.4
294.301	129.7
294.516	19.11
294.73	49.83
294.945	-25.94
295.16	25.26
295.374	64.17
295.589	10.92
295.804	31.4
296.018	49.83
296.233	39.59
296.447	-7.51
296.662	2.73
296.877	64.17
297.091	21.16
297.306	68.27
297.52	33.45
297.735	39.59
297.949	19.11
298.164	-38.23
298.378	-50.52
298.593	-15.7
298.807	0.68
299.022	23.21
299.236	74.41
299.451	98.99
299.665	55.98
299.88	103.08
300.094	-44.37
300.309	47.79
300.523	15.02
300.737	58.03
300.952	82.6
301.166	-50.52
301.381	66.22
301.595	-21.85
301.809	-64.85
302.024	0.68
302.238	-15.7
302.452	39.59
302.667	-3.41
302.881	-21.85
303.095	23.21
303.309	68.27
303.524	-5.46
303.738	66.22
303.952	0.68
304.166	15.02
304.381	-27.99
304.595	47.79
304.809	31.4
305.023	-9.56
305.237	-42.32
305.452	47.79
305.666	39.59
305.88	-77.14
306.094	12.97
306.308	64.17
306.522	-23.89
306.736	-17.75
306.95	58.03
307.164	74.41
307.379	17.07
307.593	115.37
307.807	-21.85
308.021	-13.65
308.235	105.13
308.449	-1.37
308.663	-5.46
308.877	68.27
309.091	53.93
309.305	19.11
309.519	33.45
309.733	64.17
309.947	-19.8
310.161	47.79
310.374	-11.61
310.588	35.5
310.802	31.4
311.016	-1.37
311.23	-27.99
311.444	-17.75
311.658	37.55
311.872	-21.85
312.085	21.16
312.299	39.59
312.513	-34.13
312.727	-13.65
312.941	31.4
313.154	92.84
313.368	25.26
313.582	82.6
313.796	25.26
314.009	23.21
314.223	25.26
314.437	-7.51
314.651	-13.65
314.864	23.21
315.078	-36.18
315.292	0.68
315.505	23.21
315.719	70.31
315.933	98.99
316.146	47.79
316.36	39.59
316.573	-1.37
316.787	35.5
317.001	129.7
317.214	68.27
317.428	17.07
317.641	-15.7
317.855	39.59
318.068	-15.7
318.282	76.46
318.495	60.07
318.709	-9.56
318.922	29.35
319.136	131.75
319.349	76.46
319.563	29.35
319.776	-34.13
319.99	-34.13
320.203	25.26
320.417	6.83
320.63	76.46
320.843	66.22
321.057	-58.71
321.27	-25.94
321.483	19.11
321.697	88.75
321.91	62.12
322.124	23.21
322.337	72.36
322.55	-7.51
322.763	82.6
322.977	47.79
323.19	15.02
323.403	-13.65
323.617	53.93
323.83	43.69
324.043	-17.75
324.256	15.02
324.469	-1.37
324.683	-17.75
324.896	-5.46
325.109	19.11
325.322	-32.08
325.535	84.65
325.748	88.75
325.962	39.59
326.175	25.26
326.388	10.92
326.601	23.21
326.814	70.31
327.027	66.22
327.24	84.65
327.453	-42.32
327.666	8.87
327.879	70.31
328.092	55.98
328.305	6.83
328.518	6.83
328.731	-1.37
328.944	4.78
329.157	6.83
329.37	19.11
329.583	12.97
329.796	64.17
330.009	-71
330.222	33.45
330.435	-17.75
330.648	25.26
330.861	-5.46
331.073	17.07
331.286	109.23
331.499	27.31
331.712	2.73
331.925	55.98
332.138	6.83
332.35	-27.99
332.563	-15.7
332.776	51.88
332.989	-64.85
333.202	-1.37
333.414	47.79
333.627	15.02
333.84	-9.56
334.053	101.03
334.265	-30.04
334.478	27.31
334.691	47.79
334.903	31.4
335.116	-42.32
335.329	-42.32
335.541	76.46
335.754	92.84
335.966	-13.65
336.179	-9.56
336.392	-11.61
336.604	-71
336.817	47.79
337.029	6.83
337.242	27.31
337.454	19.11
337.667	-34.13
337.88	80.55
338.092	31.4
338.305	-15.7
338.517	-27.99
338.729	15.02
338.942	51.88
339.154	-30.04
339.367	72.36
339.579	-36.18
339.792	-48.47
340.004	51.88
340.217	-5.46
340.429	25.26
340.641	-1.37
340.854	-17.75
341.066	-30.04
341.278	84.65
341.491	0.68
341.703	0.68
341.915	31.4
342.128	49.83
342.34	78.51
342.552	19.11
342.764	0.68
342.977	47.79
343.189	76.46
343.401	27.31
343.613	10.92
343.826	-9.56
344.038	-38.23
344.25	15.02
344.462	-58.71
344.674	31.4
344.886	60.07
345.099	51.88
345.311	8.87
345.523	-13.65
345.735	39.59
345.947	8.87
346.159	23.21
346.371	31.4
346.583	-7.51
346.795	47.79
347.007	92.84
347.219	47.79
347.431	-1.37
347.643	8.87
347.855	41.64
348.067	64.17
348.279	-1.37
348.491	17.07
348.703	-3.41
348.915	31.4
349.127	-17.75
349.339	45.74
349.551	-32.08
349.763	43.69
349.975	-48.47
350.187	25.26
350.399	105.13
350.61	-15.7
350.822	4.78
351.034	-11.61
351.246	6.83
351.458	51.88
351.669	68.27
351.881	49.83
352.093	47.79
352.305	88.75
352.517	0.68
352.728	23.21
352.94	-21.85
353.152	2.73
353.363	35.5
353.575	-25.94
353.787	113.32
353.999	74.41
354.21	41.64
354.422	12.97
354.633	-99.67
354.845	25.26
355.057	25.26
355.268	58.03
355.48	37.55
355.692	-32.08
355.903	19.11
356.115	-7.51
356.326	-56.66
356.538	51.88
356.749	80.55
356.961	72.36
357.172	-15.7
357.384	-50.52
357.595	94.89
357.807	88.75
358.018	-23.89
358.23	-21.85
358.441	129.7
358.653	15.02
358.864	-9.56
359.075	6.83
359.287	-34.13
359.498	39.59
359.709	15.02
359.921	37.55
360.132	6.83
360.344	-17.75
360.555	64.17
360.766	33.45
360.977	74.41
361.189	35.5
361.4	51.88
361.611	-1.37
361.823	68.27
362.034	6.83
362.245	-36.18
362.456	-50.52
362.667	-1.37
362.879	47.79
363.09	68.27
363.301	-17.75
363.512	-25.94
363.723	2.73
363.935	33.45
364.146	72.36
364.357	2.73
364.568	53.93
364.779	33.45
364.99	72.36
365.201	0.68
365.412	37.55
365.623	-34.13
365.834	-1.37
366.045	23.21
366.256	82.6
366.467	58.03
366.678	68.27
366.889	33.45
367.1	0.68
367.311	49.83
367.522	-15.7
367.733	41.64
367.944	27.31
368.155	-27.99
368.366	21.16
368.577	88.75
368.788	43.69
368.999	4.78
369.209	47.79
369.42	64.17
369.631	68.27
369.842	47.79
370.053	39.59
370.264	109.23
370.474	-9.56
370.685	10.92
370.896	12.97
371.107	25.26
371.317	31.4
371.528	39.59
371.739	53.93
371.95	-7.51
372.16	2.73
372.371	-5.46
372.582	-13.65
372.792	49.83
373.003	43.69
373.214	80.55
373.424	64.17
373.635	15.02
373.846	111.27
374.056	33.45
374.267	4.78
374.477	29.35
374.688	60.07
374.898	23.21
375.109	45.74
375.319	2.73
375.53	72.36
375.74	70.31
375.951	-30.04
376.161	-30.04
376.372	78.51
376.582	19.11
376.793	-9.56
377.003	33.45
377.214	19.11
377.424	70.31
377.635	21.16
377.845	-44.37
378.055	72.36
378.266	-1.37
378.476	23.21
378.686	-9.56
378.897	84.65
379.107	-1.37
379.317	33.45
379.528	8.87
379.738	-15.7
379.948	-54.61
380.158	23.21
380.369	2.73
380.579	66.22
380.789	39.59
380.999	105.13
381.21	58.03
381.42	39.59
381.63	2.73
381.84	47.79
382.05	-3.41
382.261	121.51
382.471	27.31
382.681	55.98
382.891	123.56
383.101	49.83
383.311	21.16
383.521	0.68
383.731	23.21
383.941	82.6
384.151	55.98
384.361	39.59
384.571	15.02
384.781	25.26
384.991	66.22
385.201	37.55
385.411	6.83
385.621	80.55
385.831	23.21
386.041	19.11
386.251	-25.94
386.461	41.64
386.671	17.07
386.881	27.31
387.091	33.45
387.301	15.02
387.511	-46.42
387.72	47.79
387.93	82.6
388.14	-13.65
388.35	25.26
388.56	43.69
388.769	-40.28
388.979	74.41
389.189	8.87
389.399	6.83
389.609	-1.37
389.818	64.17
390.028	-15.7
390.238	10.92
390.447	-1.37
390.657	64.17
390.867	-25.94
391.076	-48.47
391.286	105.13
391.496	68.27
391.705	41.64
391.915	47.79
392.125	78.51
392.334	37.55
392.544	49.83
392.753	80.55
392.963	6.83
393.172	49.83
393.382	80.55
393.591	96.94
393.801	49.83
394.01	82.6
394.22	109.23
394.429	74.41
394.639	88.75
394.848	10.92
395.058	21.16
395.267	17.07
395.477	96.94
395.686	121.51
395.895	80.55
396.105	51.88
396.314	15.02
396.524	19.11
396.733	76.46
396.942	55.98
397.152	101.03
397.361	105.13
397.57	4.78
397.78	68.27
397.989	33.45
398.198	164.52
398.407	12.97
398.617	101.03
398.826	84.65
399.035	86.7
399.244	90.79
399.453	88.75
399.663	135.85
399.872	121.51
400.081	35.5
400.29	131.75
400.499	-7.51
400.708	47.79
400.917	19.11
401.127	60.07
401.336	43.69
401.545	203.43
401.754	47.79
401.963	101.03
402.172	23.21
402.381	47.79
402.59	64.17
402.799	47.79
403.008	33.45
403.217	37.55
403.426	12.97
403.635	53.93
403.844	103.08
404.053	6.83
404.262	123.56
404.471	80.55
404.68	84.65
404.888	137.9
405.097	84.65
405.306	178.86
405.515	90.79
405.724	96.94
405.933	160.42
406.142	98.99
406.35	189.1
406.559	178.86
406.768	84.65
406.977	205.48
407.185	152.23
407.394	78.51
407.603	101.03
407.812	150.18
408.02	189.1
408.229	166.57
408.438	174.76
408.646	96.94
408.855	117.42
409.064	182.95
409.272	197.29
409.481	211.62
409.69	168.62
409.898	207.53
410.107	156.33
410.315	273.06
410.524	98.99
410.733	189.1
410.941	180.9
411.15	250.53
411.358	203.43
411.567	289.45
411.775	211.62
411.984	217.77
412.192	219.82
412.401	191.14
412.609	309.93
412.818	336.55
413.026	285.35
413.234	248.49
413.443	387.75
413.651	279.21
413.86	436.9
414.068	369.32
414.276	391.84
414.485	414.37
414.693	375.46
414.901	436.9
415.11	393.89
415.318	416.42
415.526	449.19
415.734	490.15
415.943	449.19
416.151	496.29
416.359	486.05
416.567	645.79
416.776	572.07
416.984	590.5
417.192	623.27
417.4	551.59
417.608	504.48
417.817	588.45
418.025	613.03
418.233	803.49
418.441	711.33
418.649	711.33
418.857	797.34
419.065	826.01
419.273	836.25
419.481	848.54
419.689	883.36
419.897	871.07
420.105	946.84
420.313	1030.81
420.521	1030.81
420.729	1100.44
420.937	1057.43
421.145	1161.88
421.353	1178.26
421.561	1360.53
421.769	1284.76
421.977	1297.05
422.185	1260.18
422.393	1329.81
422.601	1327.77
422.809	1352.34
423.017	1370.77
423.224	1467.03
423.432	1622.67
423.64	1612.43
423.848	1796.75
424.056	1604.24
424.263	1827.47
424.471	1608.34
424.679	1804.94
424.887	1835.66
425.094	1948.3
425.302	1985.16
425.51	2071.18
425.718	2138.76
425.925	2218.63
426.133	2206.35
426.341	2366.09
426.548	2423.43
426.756	2448.01
426.964	2353.8
427.171	2687.62
427.379	2714.24
427.586	2693.76
427.794	2873.98
428.001	2904.7
428.209	3117.69
428.417	3039.87
428.624	3373.69
428.832	3115.64
429.039	3185.27
429.247	3209.85
429.454	3570.29
429.662	3713.65
429.869	3523.19
430.076	3750.51
430.284	3697.27
430.491	3785.33
430.699	4162.16
430.906	3904.11
431.114	3953.26
431.321	4397.67
431.528	4268.65
431.736	4553.32
431.943	4833.89
432.15	4627.04
432.358	4684.39
432.565	4907.62
432.772	4833.89
432.979	5225.05
433.187	5241.43
433.394	5401.18
433.601	5708.37
433.808	5610.07
434.016	5515.86
434.223	5821.01
434.43	6134.35
434.637	6138.44
434.844	6480.46
435.052	6652.49
435.259	6613.57
435.466	6691.4
435.673	6627.91
435.88	6988.35
436.087	7363.13
436.294	7408.19
436.501	7270.97
436.708	7469.62
436.915	7584.31
437.122	8118.83
437.329	7885.36
437.537	8165.93
437.743	8342.06
437.95	8471.08
438.157	8776.23
438.364	9153.06
438.571	9011.75
438.778	8976.93
438.985	9996.82
439.192	9515.55
439.399	9777.69
439.606	9527.83
439.813	10086.93
440.02	10920.45
440.227	10656.26
440.433	10316.3
440.64	10668.55
440.847	10629.64
441.054	10910.21
441.261	11864.57
441.467	11323.9
441.674	11530.75
441.881	12147.19
442.088	12151.28
442.294	12126.71
442.501	12108.27
442.708	12501.48
442.914	12829.16
443.121	13652.44
443.328	13195.75
443.534	14182.87
443.741	13627.87
443.948	13556.19
444.154	14473.68
444.361	14627.28
444.568	14510.54
444.774	14586.32
444.981	14578.12
445.187	15409.6
445.394	15710.65
445.6	15587.77
445.807	17263.01
446.013	16449.97
446.22	16882.09
446.426	17254.82
446.633	17488.29
446.839	18006.42
447.046	17396.13
447.252	18368.91
447.459	18411.92
447.665	18489.74
447.871	19327.36
448.078	19915.13
448.284	19145.09
448.491	19556.74
448.697	20531.57
448.903	20765.04
449.11	20767.09
449.316	20425.07
449.522	20996.46
449.728	21514.59
449.935	21535.07
450.141	21444.96
450.347	22079.83
450.553	21301.61
450.76	21885.28
450.966	22174.04
451.172	22317.4
451.378	22708.56
451.584	22276.44
451.791	23378.25
451.997	22686.03
452.203	23089.48
452.409	23214.41
452.615	23034.19
452.821	22192.47
453.027	21756.25
453.233	23220.55
453.44	22341.97
453.646	22573.39
453.852	22706.51
454.058	23075.15
454.264	22296.92
454.47	22960.46
454.676	22112.6
454.882	23069
455.088	20861.29
455.294	21201.26
455.5	21961.05
455.705	21502.31
455.911	21064.04
456.117	20539.76
456.323	20412.79
456.529	19161.48
456.735	20060.54
456.941	19779.96
457.147	19667.33
457.352	18698.64
457.558	18932.11
457.764	18520.46
457.97	18190.74
458.176	18186.65
458.381	18176.41
458.587	17013.16
458.793	17090.98
458.999	16161.2
459.204	17346.98
459.41	16968.1
459.616	15593.92
459.821	15841.72
460.027	15612.35
460.233	15395.26
460.438	14801.35
460.644	14756.3
460.85	13857.24
461.055	13773.27
461.261	13883.86
461.466	12933.61
461.672	12515.82
461.878	13451.74
462.083	12601.83
462.289	12313.07
462.494	12069.36
462.7	11696.63
462.905	11532.79
463.111	11753.98
463.316	11747.83
463.522	11403.77
463.727	11414.01
463.932	11504.12
464.138	11213.31
464.343	11434.49
464.549	11067.91
464.754	11497.98
464.959	11379.2
465.165	11426.3
465.37	10840.58
465.575	10467.85
465.781	10922.5
465.986	11022.85
466.191	10715.66
466.397	10418.7
466.602	9892.37
466.807	10256.91
467.012	10334.73
467.218	10160.66
467.423	10131.98
467.628	10146.32
467.833	10443.28
468.038	10168.85
468.244	9959.95
468.449	10344.97
468.654	10084.88
468.859	9962
469.064	9732.63
469.269	9542.17
469.474	9388.57
469.679	9665.05
469.885	9292.32
470.09	9509.4
470.295	9703.96
470.5	9288.22
470.705	9183.77
470.91	9015.84
471.115	8915.49
471.32	9153.06
471.525	9189.92
471.73	8962.59
471.935	8790.56
472.139	8614.44
472.344	8639.01
472.549	8577.58
472.754	8509.99
472.959	8122.93
473.164	8258.09
473.369	7995.95
473.574	8413.74
473.778	8254
473.983	8264.24
474.188	7985.71
474.393	7805.49
474.598	7942.71
474.802	7846.45
475.007	7608.89
475.212	7844.4
475.417	7518.78
475.621	7621.17
475.826	7359.03
476.031	7318.07
476.235	7256.64
476.44	7461.43
476.645	7199.29
476.849	7131.71
477.054	7129.66
477.259	6898.24
477.463	7010.88
477.668	6888
477.872	6867.52
478.077	6857.28
478.282	6580.81
478.486	6482.5
478.691	6527.56
478.895	6570.57
479.1	6474.31
479.304	6488.65
479.509	6380.11
479.713	6349.39
479.918	6294.09
480.122	6185.55
480.326	6132.3
480.531	6289.99
480.735	6044.24
480.94	6152.78
481.144	6527.56
481.348	6068.81
481.553	6195.79
481.757	5978.7
481.961	6122.06
482.166	6132.3
482.37	6163.02
482.574	6031.95
482.778	5929.55
482.983	6109.77
483.187	6240.84
483.391	6062.67
483.595	6060.62
483.8	5956.18
484.004	6044.24
484.208	6117.97
484.412	5956.18
484.616	6025.81
484.821	6023.76
485.025	6023.76
485.229	6089.29
485.433	6128.21
485.637	6011.47
485.841	5904.98
486.045	5980.75
486.249	6109.77
486.453	6007.37
486.657	5927.5
486.861	6113.87
487.065	6091.34
487.269	6031.95
487.473	5939.79
487.677	6089.29
487.881	6148.68
488.085	6093.39
488.289	6232.65
488.493	6269.51
488.697	6038.09
488.901	6042.19
489.105	6249.04
489.309	6199.88
489.512	6187.6
489.716	6158.92
489.92	6249.04
490.124	5986.9
490.328	6117.97
490.531	6251.08
490.735	6066.77
490.939	6201.93
491.143	6228.56
491.346	6310.47
491.55	6314.57
491.754	6380.11
491.958	6367.82
492.161	6398.54
492.365	6453.83
492.569	6351.43
492.772	6431.3
492.976	6445.64
493.18	6675.01
493.383	6519.37
493.587	6576.71
493.79	6654.53
493.994	6718.02
494.197	6728.26
494.401	6683.2
494.605	6769.22
494.808	6937.15
495.012	6957.63
495.215	7045.7
495.419	7004.74
495.622	6965.82
495.825	7115.33
496.029	7092.8
496.232	7217.72
496.436	7283.26
496.639	7340.6
496.843	7299.64
497.046	7477.82
497.249	7688.76
497.453	7592.5
497.656	7653.94
497.859	7744.05
498.063	7645.75
498.266	8041.01
498.469	7914.03
498.673	8051.25
498.876	8264.24
499.079	8366.64
499.282	8329.77
499.485	8485.42
499.689	8632.87
499.892	8710.69
500.095	8790.56
500.298	8854.05
500.501	8632.87
500.705	8909.35
500.908	9058.85
501.111	9196.06
501.314	9300.51
501.517	9194.01
501.72	9593.37
501.923	9468.44
502.126	9822.74
502.329	10017.3
502.532	10011.15
502.735	9900.56
502.938	10025.49
503.141	10213.9
503.344	10379.79
503.547	10496.52
503.75	10590.73
503.953	10658.31
504.156	10879.49
504.359	10859.01
504.562	10985.99
504.765	11131.39
504.968	11198.98
505.17	11434.49
505.373	11561.47
505.576	11885.05
505.779	11684.34
505.982	11917.81
506.185	12106.23
506.387	12091.89
506.59	12474.86
506.793	12601.83
506.996	12653.03
507.198	12925.41
507.401	12937.7
507.604	13066.72
507.807	13126.11
508.009	13181.41
508.212	13279.71
508.415	13552.09
508.617	13580.76
508.82	13621.72
509.022	13982.17
509.225	14193.11
509.428	14324.18
509.63	14391.76
509.833	14637.52
510.035	14983.62
510.238	14899.66
510.44	15143.36
510.643	15223.23
510.845	15225.28
511.048	15569.34
511.25	15849.91
511.453	15550.91
511.655	16419.25
511.858	16251.31
512.06	16204.21
512.262	16429.49
512.465	16564.65
512.667	16857.51
512.87	16826.79
513.072	17168.8
513.274	17365.41
513.477	17607.07
513.679	17940.89
513.881	17842.59
514.084	18207.12
514.286	18190.74
514.488	17936.79
514.69	18905.48
514.893	18528.66
515.095	18844.04
515.297	19202.44
515.499	19141
515.701	19368.32
515.904	19765.63
516.106	19671.42
516.308	19855.74
516.51	20095.35
516.712	20136.31
516.914	20513.14
517.116	20762.99
517.318	20752.75
517.52	21086.57
517.722	21029.23
517.925	21438.82
518.127	21768.54
518.329	22002.01
518.531	21723.49
518.733	22274.39
518.935	22192.47
519.136	22141.27
519.338	22710.61
519.54	22708.56
519.742	23159.11
519.944	23134.54
520.146	23554.37
520.348	23478.6
520.55	23611.71
520.752	23898.43
520.954	24514.87
521.155	24176.95
521.357	24299.83
521.559	24725.81
521.761	24971.57
521.963	25135.4
522.164	25317.67
522.366	25731.36
522.568	25794.85
522.77	25798.94
522.971	26001.69
523.173	25762.08
523.375	26360.09
523.576	26296.6
523.778	26048.8
523.98	26784.02
524.181	26788.11
524.383	26827.03
524.584	27308.3
524.786	27171.08
524.988	27382.02
525.189	27609.35
525.391	27904.26
525.592	27900.16
525.794	27937.02
525.995	28051.71
526.197	28403.96
526.398	28367.1
526.6	28317.95
526.801	28377.34
527.003	28709.11
527.204	28725.49
527.406	29018.35
527.607	29040.88
527.808	29202.67
528.01	28846.32
528.211	29307.12
528.412	29663.46
528.614	29630.69
528.815	29296.88
529.016	29593.83
529.218	29516.01
529.419	29634.79
529.62	29903.07
529.822	29647.08
530.023	30109.92
530.224	30062.82
530.425	30068.96
530.626	29733.09
530.828	29864.16
531.029	30521.56
531.23	30062.82
531.431	30271.71
531.632	30329.05
531.833	30386.39
532.035	30482.65
532.236	30462.17
532.437	30470.36
532.638	30095.58
532.839	30433.5
533.04	30689.49
533.241	30197.98
533.442	30568.66
533.643	30896.34
533.844	30673.11
534.045	30593.24
534.246	30527.7
534.447	30922.96
534.648	30793.94
534.849	31066.32
535.05	30691.54
535.251	30699.73
535.451	30761.17
535.652	31004.88
535.853	30984.4
536.054	30621.91
536.255	30630.1
536.456	30552.28
536.657	31361.23
536.857	30773.46
537.058	30720.21
537.259	31037.65
537.46	30619.86
537.66	30859.48
537.861	30898.39
538.062	30804.18
538.263	31111.38
538.463	30773.46
538.664	30752.98
538.865	30841.04
539.065	31185.1
539.266	30632.15
539.466	30839
539.667	30419.16
539.868	31142.1
540.068	30726.36
540.269	30597.34
540.469	31213.77
540.67	30605.53
540.87	30724.31
541.071	30959.83
541.271	30798.04
541.472	30982.35
541.672	30583
541.873	30740.69
542.073	30458.07
542.274	30748.89
542.474	31021.27
542.675	30816.47
542.875	30998.74
543.075	30847.19
543.276	30382.3
543.476	30959.83
543.676	30632.15
543.877	30580.95
544.077	30666.97
544.277	30623.96
544.478	30804.18
544.678	30951.63
544.878	30583
545.078	30644.44
545.279	30490.84
545.479	30466.27
545.679	30826.71
545.879	30882
546.079	30601.43
546.28	30593.24
546.48	30589.14
546.68	30697.69
546.88	30804.18
547.08	30603.48
547.28	30703.83
547.48	30288.09
547.68	30716.12
547.88	30433.5
548.081	30677.21
548.281	30818.52
548.481	30595.29
548.681	30812.37
548.881	30685.4
549.081	30331.1
549.28	30650.58
549.48	31115.47
549.68	30716.12
549.88	31144.14
550.08	30363.87
550.28	30795.99
550.48	30437.59
550.68	30781.65
550.88	30312.67
551.08	30476.51
551.279	30396.63
551.479	30007.52
551.679	30650.58
551.879	30679.25
552.079	30781.65
552.278	30224.61
552.478	29921.51
552.678	30406.87
552.878	30548.18
553.077	30449.88
553.277	30093.54
553.477	30470.36
553.676	30296.28
553.876	30261.47
554.076	29915.36
554.275	29915.36
554.475	29939.94
554.674	30253.28
554.874	30453.98
555.074	30152.93
555.273	29915.36
555.473	30165.21
555.672	30111.97
555.872	29962.47
556.071	29991.14
556.271	30277.85
556.47	29864.16
556.67	29798.63
556.869	29632.74
557.068	30040.29
557.268	29700.33
557.467	29808.87
557.667	29692.13
557.866	29780.2
558.065	29389.03
558.265	29491.43
558.464	29128.94
558.663	29784.29
558.863	29266.16
559.062	29612.26
559.261	28963.06
559.461	29866.21
559.66	29192.43
559.859	29311.21
560.058	29190.38
560.258	29591.78
560.457	28969.2
560.656	29518.06
560.855	28928.24
561.054	29466.86
561.253	28893.43
561.453	28862.71
561.652	28913.91
561.851	29083.89
562.05	28881.14
562.249	28678.39
562.448	28860.66
562.647	28713.2
562.846	28487.93
563.045	28461.3
563.244	28027.13
563.443	28936.43
563.642	27812.1
563.841	28428.54
564.04	28207.36
564.239	28764.4
564.438	28033.28
564.637	28565.75
564.836	28104.96
565.035	27963.65
565.234	28209.4
565.432	27951.36
565.631	27949.31
565.83	28070.14
566.029	27967.74
566.228	27797.76
566.427	27928.83
566.625	27496.71
566.824	27324.68
567.023	27664.64
567.222	27177.23
567.42	27595.01
567.619	27339.02
567.818	27146.51
568.016	27365.64
568.215	27324.68
568.414	27269.39
568.612	27691.27
568.811	27064.59
569.01	27265.29
569.208	26640.66
569.407	26941.71
569.605	26630.42
569.804	26743.06
570.002	26425.62
570.201	26794.26
570.4	26370.33
570.598	26399
570.797	26241.31
570.995	26560.79
571.193	26038.56
571.392	26464.53
571.59	25872.67
571.789	26011.93
571.987	26100
572.186	25741.6
572.384	25821.47
572.582	25837.86
572.781	25987.36
572.979	25352.49
573.177	25786.66
573.376	25575.72
573.574	25458.98
573.772	25438.5
573.971	24998.19
574.169	24781.1
574.367	25090.35
574.565	25112.88
574.763	25350.44
574.962	24770.86
575.16	24670.51
575.358	24875.31
575.556	24426.81
575.754	24686.9
575.952	24695.09
576.151	24828.21
576.349	24774.96
576.547	24457.53
576.745	24254.78
576.943	24437.05
577.141	24514.87
577.339	24353.08
577.537	24242.49
577.735	24019.26
577.933	23880
578.131	23861.57
578.329	23636.29
578.527	23847.23
578.725	23712.06
578.923	23894.33
579.121	23638.34
579.319	23456.07
579.516	23499.08
579.714	23558.47
579.912	23238.98
580.11	23406.92
580.308	23359.81
580.506	23376.2
580.704	22896.97
580.901	22813.01
581.099	23234.89
581.297	22946.12
581.495	22892.88
581.692	22944.08
581.89	22653.26
582.088	22960.46
582.285	22520.15
582.483	22937.93
582.681	22559.06
582.878	22503.76
583.076	22229.34
583.274	22774.1
583.471	22149.46
583.669	22458.71
583.866	22307.16
584.064	22104.41
584.262	21995.87
584.459	21973.34
584.657	21952.86
584.854	22206.81
585.052	21633.38
585.249	21844.32
585.447	21774.69
585.644	21211.49
585.841	21426.53
586.039	22018.39
586.236	21584.23
586.434	21438.82
586.631	21260.65
586.828	21270.89
587.026	21174.63
587.223	21111.14
587.42	21242.21
587.618	21186.92
587.815	20928.88
588.012	20885.87
588.21	20578.67
588.407	21129.58
588.604	20789.61
588.801	20719.98
588.999	20648.3
589.196	20533.62
589.393	20629.87
589.59	20535.67
589.787	20560.24
589.984	20199.8
590.182	20267.38
590.379	20619.63
590.576	19960.19
590.773	19935.61
590.97	19859.84
591.167	20019.58
591.364	19603.84
591.561	19980.67
591.758	19616.13
591.955	19927.42
592.152	20007.29
592.349	19630.46
592.546	19564.93
592.743	19409.28
592.94	19253.64
593.137	19382.66
593.334	19444.1
593.531	19210.63
593.727	19411.33
593.924	19306.88
594.121	18680.21
594.318	19374.47
594.515	18790.8
594.712	19181.96
594.908	18817.42
595.105	18956.68
595.302	18651.53
595.499	18850.19
595.696	18704.78
595.892	18606.48
596.089	18622.86
596.286	18694.54
596.482	18508.18
596.679	18454.93
596.876	18323.86
597.072	18375.06
597.269	18270.61
597.466	18086.29
597.662	18160.02
597.859	18209.17
598.055	18067.86
598.252	17924.51
598.448	17910.17
598.645	17781.15
598.841	17744.28
599.038	17947.03
599.234	18026.9
599.431	17654.17
599.627	17670.56
599.824	17516.96
600.02	17383.84
600.217	17488.29
600.413	17383.84
600.609	17060.26
600.806	17381.79
601.002	17402.27
601.198	16996.78
601.395	16855.47
601.591	17031.59
601.787	17301.92
601.984	16826.79
602.18	17226.15
602.376	16861.61
602.572	16898.47
602.769	16611.76
602.965	16732.59
603.161	16660.91
603.357	16714.16
603.553	16542.13
603.75	16218.55
603.946	16390.58
604.142	16402.86
604.338	16138.68
604.534	16370.1
604.73	16060.85
604.926	16376.24
605.122	16208.31
605.318	15978.93
605.514	16134.58
605.71	16036.28
605.906	15813.05
606.102	16112.05
606.298	15794.62
606.494	15940.02
606.69	15720.89
606.886	15751.61
607.082	15612.35
607.278	15620.54
607.474	15614.4
607.67	15684.03
607.866	15460.8
608.062	15616.44
608.257	15518.14
608.453	15530.43
608.649	15538.62
608.845	15419.84
609.041	15145.41
609.236	15081.92
609.432	15006.15
609.628	15356.35
609.824	15194.56
610.019	14981.57
610.215	15040.97
610.411	15241.67
610.606	15106.5
610.802	15063.49
610.998	14983.62
611.193	14836.17
611.389	14772.68
611.584	14768.59
611.78	14789.07
611.976	14787.02
612.171	14842.31
612.367	14756.3
612.562	14588.36
612.758	14447.05
612.953	14737.87
613.149	14690.76
613.344	14442.96
613.539	14580.17
613.735	14580.17
613.93	14555.6
614.126	14580.17
614.321	14559.69
614.517	14594.51
614.712	14047.7
614.907	14211.54
615.103	14301.65
615.298	14096.85
615.493	14260.69
615.688	14150.1
615.884	14473.68
616.079	14170.58
616.274	14125.52
616.47	14254.55
616.665	14051.8
616.86	14043.6
617.055	14299.6
617.25	13902.29
617.445	14072.28
617.641	13693.4
617.836	13998.55
618.031	13619.67
618.226	13668.83
618.421	13818.33
618.616	13758.94
618.811	13449.69
619.006	13521.37
619.201	13283.81
619.396	13427.17
619.591	13357.53
619.786	13392.35
619.981	13318.62
620.176	13277.66
620.371	13027.81
620.566	13154.79
620.761	13341.15
620.956	13289.95
621.151	12710.38
621.346	12954.09
621.541	12777.96
621.735	12761.58
621.93	12706.28
622.125	12825.06
622.32	12513.77
622.515	12306.93
622.709	12397.04
622.904	12448.24
623.099	12409.33
623.294	12294.64
623.488	12368.37
623.683	12036.59
623.878	12087.79
624.072	12052.98
624.267	11846.13
624.462	11780.6
624.656	11954.68
624.851	11803.13
625.046	11680.25
625.24	11670.01
625.435	11436.54
625.629	11713.02
625.824	11397.63
626.018	11469.31
626.213	11229.7
626.407	11260.41
626.602	11141.63
626.796	11090.43
626.991	11129.34
627.185	11160.06
627.38	10863.11
627.574	10859.01
627.768	10859.01
627.963	10785.29
628.157	10668.55
628.352	10818.05
628.546	10541.58
628.74	10560.01
628.935	10502.67
629.129	10709.51
629.323	10238.48
629.517	10367.5
629.712	10344.97
629.906	10222.09
630.1	10000.91
630.294	9898.52
630.489	9998.87
630.683	10072.59
630.877	9845.27
631.071	10002.96
631.265	9992.72
631.459	9763.35
631.653	9740.82
631.848	9746.97
632.042	9722.39
632.236	9744.92
632.43	9658.9
632.624	9439.77
632.818	9497.11
633.012	9214.49
633.206	9376.28
633.4	9320.99
633.594	9114.14
633.788	9292.32
633.982	9198.11
634.176	9312.8
634.369	9015.84
634.563	8954.4
634.757	9017.89
634.951	8868.39
635.145	8987.17
635.339	8886.82
635.533	8870.44
635.726	8981.03
635.92	8622.63
636.114	8634.92
636.308	8561.19
636.501	8553
636.695	8507.94
636.889	8241.71
637.083	8469.03
637.276	8251.95
637.47	8360.49
637.664	8258.09
637.857	8282.67
638.051	8022.58
638.244	8067.63
638.438	8100.4
638.632	8026.67
638.825	8043.06
639.019	8028.72
639.212	7934.51
639.406	7799.35
639.599	7651.89
639.793	7920.18
639.986	7805.49
640.18	7844.4
640.373	7793.2
640.567	7649.85
640.76	7637.56
640.954	7594.55
641.147	7383.61
641.34	7391.8
641.534	7461.43
641.727	7348.79
641.92	7488.06
642.114	7137.85
642.307	7266.88
642.5	7242.3
642.694	7076.41
642.887	7135.81
643.08	7100.99
643.273	6996.54
643.467	6871.62
643.66	6928.96
643.853	6883.91
644.046	6832.71
644.239	6955.58
644.432	6593.09
644.626	6750.79
644.819	6654.53
645.012	6724.16
645.205	6715.97
645.398	6793.79
645.591	6408.78
645.784	6693.44
645.977	6386.25
646.17	6335.05
646.363	6355.53
646.556	6302.28
646.749	6312.52
646.942	6296.14
647.135	6314.57
647.328	6427.21
647.521	6261.32
647.714	6146.64
647.907	6249.04
648.099	6314.57
648.292	6212.17
648.485	5888.59
648.678	5974.61
648.871	5833.3
649.064	5864.02
649.256	5921.36
649.449	5888.59
649.642	5995.09
649.835	5808.72
650.027	5810.77
650.22	5677.65
650.413	5735
650.605	5743.19
650.798	5743.19
650.991	5626.45
651.183	5472.86
651.376	5450.33
651.568	5438.04
651.761	5466.71
651.954	5528.15
652.146	5440.09
652.339	5415.51
652.531	5472.86
652.724	5200.48
652.916	5284.44
653.109	5153.37
653.301	5184.09
653.494	5196.38
653.686	5096.03
653.879	5333.59
654.071	5083.74
654.263	5081.69
654.456	5020.25
654.648	5175.9
654.84	5038.69
655.033	4930.14
655.225	5106.27
655.417	4934.24
655.61	4942.43
655.802	4778.59
655.994	4844.13
656.186	4837.98
656.379	4866.66
656.571	4905.57
656.763	4784.74
656.955	4692.58
657.148	4901.47
657.34	4674.15
657.532	4596.32
657.724	4514.41
657.916	4760.16
658.108	4639.33
658.3	4432.49
658.492	4604.52
658.684	4571.75
658.876	4481.64
659.068	4457.06
659.26	4465.25
659.452	4455.01
659.644	4479.59
659.836	4481.64
660.028	4360.81
660.22	4268.65
660.412	4389.48
660.604	4125.29
660.796	4358.76
660.988	4315.75
661.18	4295.27
661.372	4244.07
661.563	4039.28
661.755	4049.52
661.947	4282.99
662.139	4225.64
662.331	4043.37
662.522	3957.36
662.714	4020.85
662.906	3918.45
663.097	3945.07
663.289	3965.55
663.481	3924.59
663.673	3836.53
663.864	3949.17
664.056	3881.58
664.247	3832.43
664.439	3865.2
664.631	3914.35
664.822	3785.33
665.014	3742.32
665.205	3670.64
665.397	3725.94
665.588	3766.9
665.78	3736.18
665.971	3717.75
666.163	3697.27
666.354	3725.94
666.546	3603.06
666.737	3588.72
666.929	3545.72
667.12	3637.88
667.311	3492.47
667.503	3400.31
667.694	3564.15
667.885	3596.92
668.077	3455.61
668.268	3299.96
668.459	3500.66
668.651	3373.69
668.842	3357.3
669.033	3373.69
669.224	3291.77
669.416	3388.02
669.607	3248.76
669.798	3375.74
669.989	3259
670.18	3289.72
670.371	3326.58
670.563	3203.71
670.754	3222.14
670.945	3275.38
671.136	3185.27
671.327	3369.59
671.518	3127.93
671.709	3238.52
671.9	3183.23
672.091	3101.31
672.282	3146.36
672.473	3195.51
672.664	3142.27
672.855	3103.36
673.046	3080.83
673.237	3058.3
673.428	3156.6
673.619	3080.83
673.809	2957.95
674	2968.19
674.191	2996.86
674.382	3066.49
674.573	2960
674.764	2984.57
674.954	2818.69
675.145	2898.56
675.336	2925.18
675.527	2992.76
675.717	2972.29
675.908	2939.52
676.099	2966.14
676.289	2843.26
676.48	2902.65
676.671	2982.53
676.861	2914.94
677.052	2984.57
677.243	2873.98
677.433	2894.46
677.624	2839.17
677.814	2736.77
678.005	2871.93
678.195	2861.69
678.386	2816.64
678.576	2759.3
678.767	2808.45
678.957	2706.05
679.148	2802.3
679.338	2693.76
679.529	2796.16
679.719	2787.97
679.909	2697.86
680.1	2740.86
680.29	2628.23
680.481	2718.34
680.671	2634.37
680.861	2816.64
681.052	2736.77
681.242	2613.89
681.432	2644.61
681.622	2673.28
681.813	2626.18
682.003	2634.37
682.193	2681.47
682.383	2738.82
682.573	2622.08
682.764	2712.19
682.954	2587.27
683.144	2607.75
683.334	2628.23
683.524	2589.32
683.714	2624.13
683.904	2495.11
684.094	2685.57
684.284	2538.12
684.474	2820.74
684.664	2660.99
684.854	2644.61
685.044	2577.03
685.234	2722.43
685.424	2542.21
685.614	2472.58
685.804	2579.08
685.994	2574.98
686.184	2507.4
686.374	2544.26
686.564	2534.02
686.753	2456.2
686.943	2507.4
687.133	2638.47
687.323	2636.42
687.513	2409.09
687.702	2581.12
687.892	2480.77
688.082	2464.39
688.272	2538.12
688.461	2441.86
688.651	2409.09
688.841	2376.33
689.03	2353.8
689.22	2464.39
689.41	2368.13
689.599	2413.19
689.789	2523.78
689.979	2327.18
690.168	2474.63
690.358	2361.99
690.547	2269.83
690.737	2325.13
690.926	2241.16
691.116	2292.36
691.305	2335.37
691.495	2382.47
691.684	2325.13
691.874	2269.83
692.063	2357.89
692.252	2351.75
692.442	2189.96
692.631	2169.48
692.82	2255.5
693.01	2132.62
693.199	2296.46
693.388	2329.22
693.578	2259.59
693.767	2351.75
693.956	2185.87
694.146	2187.91
694.335	2124.43
694.524	2175.63
694.713	2292.36
694.902	2132.62
695.092	2228.87
695.281	2161.29
695.47	2073.23
695.659	2259.59
695.848	2138.76
696.037	2089.61
696.226	2153.1
696.415	2011.79
696.604	2179.72
696.793	2134.67
696.982	2196.11
697.171	2312.84
697.36	2122.38
697.549	2171.53
697.738	1997.45
697.927	1983.12
698.116	2099.85
698.305	2120.33
698.494	2017.93
698.683	2054.8
698.872	2140.81
699.061	2124.43
699.25	2116.23
699.438	2054.8
699.627	2136.71
699.816	2187.91
700.005	2052.75
700.193	2054.8
700.382	2071.18
700.571	2116.23
700.76	2091.66
700.948	2089.61
701.137	2095.75
701.326	2116.23
701.514	2024.08
701.703	2124.43
701.892	2005.64
702.08	2179.72
702.269	2030.22
702.457	1944.21
702.646	2013.84
702.834	2001.55
703.023	2105.99
703.212	2050.7
703.4	2038.41
703.589	1833.61
703.777	2005.64
703.965	2081.42
704.154	2030.22
704.342	2048.65
704.531	2001.55
704.719	2022.03
704.907	2089.61
705.096	1960.59
705.284	1989.26
705.472	2017.93
705.661	2062.99
705.849	1931.92
706.037	1970.83
706.226	2040.46
706.414	2005.64
706.602	1987.21
706.79	1962.64
706.979	1976.97
707.167	1960.59
707.355	2015.88
707.543	2028.17
707.731	1958.54
707.919	2009.74
708.107	1907.34
708.296	2034.32
708.484	1868.43
708.672	1999.5
708.86	1989.26
709.048	2165.39
709.236	1995.4
709.424	1968.78
709.612	2065.04
709.8	1878.67
709.988	1919.63
710.176	1989.26
710.364	1923.73
710.551	1903.25
710.739	1989.26
710.927	1909.39
711.115	1925.77
711.303	1995.4
711.491	1915.53
711.679	1874.57
711.866	1933.97
712.054	2005.64
712.242	1907.34
712.43	2001.55
712.617	1938.06
712.805	2017.93
712.993	1905.29
713.181	1837.71
713.368	1976.97
713.556	1948.3
713.744	1936.01
713.931	1997.45
714.119	1897.1
714.306	2108.04
714.494	1948.3
714.682	1952.4
714.869	1936.01
715.057	1907.34
715.244	1966.73
715.432	1956.49
715.619	1944.21
715.807	2013.84
715.994	1915.53
716.182	1960.59
716.369	2009.74
716.556	1976.97
716.744	1884.81
716.931	1778.32
717.119	1925.77
717.306	1909.39
717.493	1991.31
717.681	1915.53
717.868	1964.68
718.055	2005.64
718.242	1850
718.43	1860.24
718.617	1923.73
718.804	1907.34
718.991	1987.21
719.179	1950.35
719.366	1968.78
719.553	1860.24
719.74	1901.2
719.927	1915.53
720.114	1899.15
720.301	1907.34
720.488	1882.77
720.676	1843.85
720.863	1983.12
721.05	1833.61
721.237	1841.81
721.424	1874.57
721.611	1958.54
721.798	1890.96
721.985	1899.15
722.172	1845.9
722.358	1876.62
722.545	1974.92
722.732	1768.08
722.919	1948.3
723.106	1878.67
723.293	1890.96
723.48	1899.15
723.667	1866.38
723.853	1964.68
724.04	1907.34
724.227	1829.52
724.414	1907.34
724.6	1903.25
724.787	1997.45
724.974	1927.82
725.161	1868.43
725.347	1843.85
725.534	1882.77
725.72	1954.44
725.907	1936.01
726.094	1815.18
726.28	1936.01
726.467	1876.62
726.653	1841.81
726.84	1931.92
727.027	1933.97
727.213	1794.7
727.4	1788.56
727.586	1884.81
727.773	1858.19
727.959	1895.05
728.145	1858.19
728.332	1933.97
728.518	2003.6
728.705	1874.57
728.891	1923.73
729.077	1870.48
729.264	1782.42
729.45	1991.31
729.636	1850
729.823	1811.09
730.009	1968.78
730.195	1968.78
730.382	1886.86
730.568	1925.77
730.754	1786.51
730.94	1991.31
731.126	1893.01
731.313	1886.86
731.499	1860.24
731.685	1903.25
731.871	1725.07
732.057	1868.43
732.243	1878.67
732.429	1763.98
732.615	1819.28
732.801	1866.38
732.987	1931.92
733.173	1907.34
733.359	1792.66
733.545	1825.42
733.731	1878.67
733.917	1770.13
734.103	1813.13
734.289	1802.9
734.475	1796.75
734.661	1931.92
734.847	1768.08
735.033	1942.16
735.219	1893.01
735.404	1915.53
735.59	1735.31
735.776	1632.91
735.962	1761.94
736.148	1792.66
736.333	1868.43
736.519	1761.94
736.705	1772.18
736.89	1843.85
737.076	1727.12
737.262	1698.45
737.447	1751.7
737.633	1725.07
737.819	1759.89
738.004	1776.27
738.19	1856.14
738.375	1727.12
738.561	1841.81
738.747	1677.97
738.932	1825.42
739.118	1856.14
739.303	1718.93
739.489	1776.27
739.674	1747.6
739.859	1835.66
740.045	1616.53
740.23	1802.9
740.416	1696.4
740.601	1671.83
740.786	1727.12
740.972	1628.82
741.157	1637.01
741.342	1606.29
741.528	1598.1
741.713	1708.69
741.898	1688.21
742.084	1647.25
742.269	1735.31
742.454	1639.06
742.639	1745.55
742.824	1704.59
743.01	1704.59
743.195	1755.79
743.38	1686.16
743.565	1698.45
743.75	1657.49
743.935	1671.83
744.12	1628.82
744.305	1653.39
744.49	1522.32
744.675	1589.91
744.86	1501.84
745.045	1649.3
745.23	1538.71
745.415	1671.83
745.6	1489.56
745.785	1573.52
745.97	1616.53
746.155	1589.91
746.34	1442.45
746.525	1546.9
746.71	1551
746.895	1522.32
747.079	1411.73
747.264	1424.02
747.449	1475.22
747.634	1407.64
747.819	1479.32
748.003	1464.98
748.188	1383.06
748.373	1491.6
748.557	1507.99
748.742	1424.02
748.927	1475.22
749.111	1323.67
749.296	1411.73
749.481	1493.65
749.665	1497.75
749.85	1442.45
750.034	1432.21
750.219	1327.77
750.404	1327.77
750.588	1370.77
750.773	1251.99
750.957	1266.33
751.141	1340.05
751.326	1430.16
751.51	1239.7
751.695	1295
751.879	1245.85
752.064	1317.53
752.248	1196.7
752.432	1288.85
752.617	1260.18
752.801	1268.38
752.985	1196.7
753.17	1211.03
753.354	1211.03
753.538	1141.4
753.722	1147.55
753.907	1225.37
754.091	1141.4
754.275	1112.73
754.459	1202.84
754.643	1063.58
754.828	1071.77
755.012	1112.73
755.196	1067.67
755.38	1178.26
755.564	957.08
755.748	1065.63
755.932	1094.3
756.116	1071.77
756.3	1112.73
756.484	1024.67
756.668	1061.53
756.852	1014.43
757.036	1055.39
757.22	914.08
757.404	1026.71
757.588	1079.96
757.772	952.99
757.956	1000.09
758.14	950.94
758.323	961.18
758.507	1022.62
758.691	1030.81
758.875	1051.29
759.059	1047.19
759.242	924.32
759.426	989.85
759.61	952.99
759.794	918.17
759.977	975.52
760.161	1028.76
760.345	967.32
760.528	1004.19
760.712	965.28
760.895	858.78
761.079	909.98
761.263	901.79
761.446	918.17
761.63	907.93
761.813	961.18
761.997	909.98
762.18	862.88
762.364	846.49
762.547	858.78
762.731	909.98
762.914	817.82
763.098	809.63
763.281	780.96
763.464	875.17
763.648	920.22
763.831	873.12
764.015	832.16
764.198	885.41
764.381	821.92
764.564	817.82
764.748	889.5
764.931	770.72
765.114	785.05
765.297	893.6
765.481	768.67
765.664	756.38
765.847	881.31
766.03	789.15
766.213	699.04
766.397	793.25
766.58	772.77
766.763	834.21
766.946	746.14
767.129	735.9
767.312	735.9
767.495	729.76
767.678	660.13
767.861	770.72
768.044	740
768.227	744.1
768.41	696.99
768.593	836.25
768.776	809.63
768.959	795.29
769.142	860.83
769.324	752.29
769.507	770.72
769.69	744.1
769.873	703.14
770.056	748.19
770.239	715.42
770.421	641.7
770.604	768.67
770.787	731.81
770.97	742.05
771.152	653.98
771.335	756.38
771.518	686.75
771.7	752.29
771.883	670.37
772.066	680.61
772.248	699.04
772.431	744.1
772.613	703.14
772.796	623.27
772.978	686.75
773.161	604.83
773.343	664.22
773.526	586.4
773.708	584.35
773.891	633.5
774.073	721.57
774.256	682.66
774.438	721.57
774.621	637.6
774.803	696.99
774.985	639.65
775.168	656.03
775.35	563.87
775.532	576.16
775.715	653.98
775.897	598.69
776.079	645.79
776.261	625.31
776.444	666.27
776.626	590.5
776.808	574.11
776.99	527.01
777.173	567.97
777.355	522.91
777.537	551.59
777.719	543.39
777.901	516.77
778.083	514.72
778.265	613.03
778.447	533.15
778.629	445.09
778.811	461.48
778.993	533.15
779.175	477.86
779.357	541.35
779.539	527.01
779.721	559.78
779.903	457.38
780.085	477.86
780.267	563.87
780.449	531.11
780.631	498.34
780.812	535.2
780.994	492.2
781.176	543.39
781.358	449.19
781.54	469.67
781.721	535.2
781.903	492.2
782.085	500.39
782.267	481.96
782.448	389.8
782.63	432.8
782.812	455.33
782.993	459.43
783.175	436.9
783.357	408.23
783.538	424.61
783.72	371.37
783.901	391.84
784.083	459.43
784.264	475.81
784.446	326.31
784.627	363.17
784.809	465.57
784.99	279.21
785.172	391.84
785.353	459.43
785.535	363.17
785.716	408.23
785.897	344.74
786.079	379.56
786.26	400.04
786.441	371.37
786.623	346.79
786.804	342.69
786.985	383.65
787.167	418.47
787.348	350.89
787.529	322.21
787.71	332.45
787.891	432.8
788.073	363.17
788.254	332.45
788.435	375.46
788.616	330.41
788.797	252.58
788.978	387.75
789.159	334.5
789.34	275.11
789.522	322.21
789.703	279.21
789.884	314.02
790.065	311.97
790.246	320.17
790.427	277.16
790.607	369.32
790.788	342.69
790.969	215.72
791.15	301.73
791.331	277.16
791.512	264.87
791.693	309.93
791.874	256.68
792.054	318.12
792.235	320.17
792.416	305.83
792.597	326.31
792.778	318.12
792.958	297.64
793.139	400.04
793.32	230.06
793.5	228.01
793.681	219.82
793.862	221.86
794.042	271.01
794.223	244.39
794.404	230.06
794.584	260.77
794.765	254.63
794.945	248.49
795.126	309.93
795.306	281.25
795.487	221.86
795.667	264.87
795.848	228.01
796.028	262.82
796.209	266.92
796.389	305.83
796.57	193.19
796.75	199.34
796.93	197.29
797.111	176.81
797.291	293.54
797.471	189.1
797.652	203.43
797.832	234.15
798.012	271.01
798.192	225.96
798.373	158.38
798.553	199.34
798.733	199.34
798.913	252.58
799.093	297.64
799.274	236.2
799.454	197.29
799.634	293.54
799.814	197.29
799.994	187.05
800.174	252.58
800.354	207.53
800.534	201.38
800.714	158.38
800.894	195.24
801.074	189.1
801.254	228.01
801.434	295.59
801.614	219.82
801.794	199.34
801.974	789.15
802.154	195.24
802.334	187.05
802.514	211.62
802.693	125.61
802.873	230.06
803.053	320.17
803.233	254.63
803.413	228.01
803.592	187.05
803.772	189.1
803.952	187.05
804.131	107.18
804.311	180.9
804.491	172.71
804.67	154.28
804.85	174.76
805.03	199.34
805.209	205.48
805.389	154.28
805.568	203.43
805.748	127.66
805.928	207.53
806.107	137.9
806.287	170.66
806.466	148.14
806.646	164.52
806.825	133.8
807.004	137.9
807.184	213.67
807.363	187.05
807.543	101.03
807.722	146.09
807.901	158.38
808.081	236.2
808.26	129.7
808.439	123.56
808.619	162.47
808.798	70.31
808.977	170.66
809.156	189.1
809.336	131.75
809.515	125.61
809.694	105.13
809.873	127.66
810.052	129.7
810.231	113.32
810.411	129.7
810.59	154.28
810.769	90.79
810.948	129.7
811.127	172.71
811.306	164.52
811.485	96.94
811.664	252.58
811.843	170.66
812.022	168.62
812.201	105.13
812.38	219.82
812.559	107.18
812.737	166.57
812.916	25.26
813.095	105.13
813.274	133.8
813.453	141.99
813.632	96.94
813.811	176.81
813.989	101.03
814.168	103.08
814.347	141.99
814.526	84.65
814.704	170.66
814.883	219.82
815.062	117.42
815.24	123.56
815.419	123.56
815.598	82.6
815.776	51.88
815.955	172.71
816.133	88.75
816.312	105.13
816.49	111.27
816.669	96.94
816.847	137.9
817.026	55.98
817.204	64.17
817.383	107.18
817.561	51.88
817.74	105.13
817.918	113.32
818.097	96.94
818.275	90.79
818.453	115.37
818.632	74.41
818.81	115.37
818.988	129.7
819.167	96.94
819.345	82.6
819.523	37.55
819.701	156.33
819.879	121.51
820.058	84.65
820.236	121.51
820.414	51.88
820.592	111.27
820.77	-7.51
820.948	55.98
821.127	80.55
821.305	162.47
821.483	15.02
821.661	103.08
821.839	55.98
822.017	43.69
822.195	45.74
822.373	135.85
822.551	-9.56
822.729	129.7
822.907	80.55
823.085	105.13
823.262	115.37
823.44	96.94
823.618	80.55
823.796	123.56
823.974	117.42
824.152	90.79
824.329	96.94
824.507	55.98
824.685	6.83
824.863	72.36
825.04	15.02
825.218	41.64
825.396	41.64
825.574	72.36
825.751	103.08
825.929	105.13
826.107	33.45
826.284	154.28
826.462	105.13
826.639	49.83
826.817	64.17
826.994	115.37
827.172	55.98
827.349	113.32
827.527	94.89
827.704	90.79
827.882	152.23
828.059	49.83
828.237	86.7
828.414	156.33
828.591	27.31
828.769	-7.51
828.946	88.75
829.124	123.56
829.301	12.97
829.478	35.5
829.655	94.89
829.833	70.31
830.01	15.02
830.187	80.55
830.364	43.69
830.542	51.88
830.719	119.46
830.896	80.55
831.073	12.97
831.25	101.03
831.427	82.6
831.604	72.36
831.782	31.4
831.959	72.36
832.136	12.97
832.313	72.36
832.49	23.21
832.667	55.98
832.844	82.6
833.021	162.47
833.198	39.59
833.374	80.55
833.551	-7.51
833.728	49.83
833.905	72.36
834.082	27.31
834.259	92.84
834.436	156.33
834.612	84.65
834.789	105.13
834.966	82.6
835.143	55.98
835.319	15.02
835.496	76.46
835.673	178.86
835.85	135.85
836.026	66.22
836.203	88.75
836.38	-3.41
836.556	17.07
836.733	43.69
836.909	80.55
837.086	15.02
837.262	-19.8
837.439	-1.37
837.616	2.73
837.792	15.02
837.968	10.92
838.145	4.78
838.321	84.65
838.498	10.92
838.674	39.59
838.851	29.35
839.027	47.79
839.203	66.22
839.38	47.79
839.556	72.36
839.732	41.64
839.909	31.4
840.085	55.98
840.261	12.97
840.437	68.27
840.614	45.74
840.79	23.21
840.966	0.68
841.142	-87.38
841.318	23.21
841.494	170.66
841.671	33.45
841.847	53.93
842.023	43.69
842.199	146.09
842.375	31.4
842.551	-11.61
842.727	82.6
842.903	68.27
843.079	-21.85
843.255	90.79
843.431	-13.65
843.607	88.75
843.783	-34.13
843.959	76.46
844.134	-3.41
844.31	115.37
844.486	-1.37
844.662	55.98
844.838	31.4
845.013	15.02
845.189	-1.37
845.365	78.51
845.541	-3.41
845.716	33.45
845.892	78.51
846.068	88.75
846.244	80.55
846.419	58.03
846.595	0.68
846.77	74.41
846.946	58.03
847.122	15.02
847.297	60.07
847.473	66.22
847.648	-46.42
847.824	39.59
847.999	4.78
848.175	39.59
848.35	72.36
848.526	58.03
848.701	96.94
848.876	-1.37
849.052	64.17
849.227	-7.51
849.403	-1.37
849.578	12.97
849.753	15.02
849.929	84.65
850.104	25.26
850.279	58.03
850.454	68.27
850.63	-56.66
850.805	-13.65
850.98	58.03
851.155	53.93
851.33	113.32
851.505	-25.94
851.681	55.98
851.856	25.26
852.031	82.6
852.206	33.45
852.381	23.21
852.556	19.11
852.731	72.36
852.906	15.02
853.081	64.17
853.256	35.5
853.431	31.4
853.606	-15.7
853.781	2.73
853.956	-1.37
854.131	64.17
854.305	-1.37
854.48	72.36
854.655	-34.13
854.83	80.55
855.005	27.31
855.18	41.64
855.354	-25.94
855.529	6.83
855.704	-9.56
855.879	72.36
856.053	62.12
856.228	-1.37
856.403	-56.66
856.577	49.83
856.752	-50.52
856.926	-9.56
857.101	43.69
857.276	39.59
857.45	27.31
857.625	47.79
857.799	37.55
857.974	39.59
858.148	-25.94
858.323	-15.7
858.497	8.87
858.672	-1.37
858.846	-13.65
859.02	-15.7
859.195	-32.08
859.369	-15.7
859.543	39.59
859.718	10.92
859.892	8.87
860.066	39.59
860.241	-17.75
860.415	10.92
860.589	17.07
860.763	74.41
860.938	-58.71
861.112	64.17
861.286	23.21
861.46	68.27
861.634	-46.42
861.808	80.55
861.982	0.68
862.157	39.59
862.331	51.88
862.505	12.97
862.679	10.92
862.853	-15.7
863.027	-50.52
863.201	96.94
863.375	-7.51
863.549	-9.56
863.722	37.55
863.896	58.03
864.07	8.87
864.244	33.45
864.418	-1.37
864.592	41.64
864.766	23.21
864.939	15.02
865.113	37.55
865.287	129.7
865.461	25.26
865.634	39.59
865.808	12.97
865.982	17.07
866.156	-73.04
866.329	-34.13
866.503	0.68
866.676	101.03
866.85	8.87
867.024	-1.37
867.197	39.59
867.371	-34.13
867.544	60.07
867.718	-13.65
867.891	39.59
868.065	51.88
868.238	-83.28
868.412	31.4
868.585	0.68
868.759	15.02
868.932	-64.85
869.105	-75.09
869.279	19.11
869.452	21.16
869.625	10.92
869.799	19.11
869.972	-3.41
870.145	25.26
870.319	43.69
870.492	23.21
870.665	-40.28
870.838	33.45
871.011	-50.52
871.185	23.21
871.358	-32.08
871.531	39.59
871.704	-58.71
871.877	-1.37
872.05	-5.46
872.223	15.02
872.396	-9.56
872.569	19.11
872.742	-5.46
872.915	-15.7
873.088	-66.9
873.261	6.83
873.434	-1.37
873.607	51.88
873.78	72.36
873.953	-71
874.126	35.5
874.299	6.83
874.471	64.17
874.644	-32.08
874.817	39.59
874.99	47.79
875.163	39.59
875.335	-17.75
875.508	64.17
875.681	31.4
875.853	-58.71
876.026	-46.42
876.199	45.74
876.371	-7.51
876.544	49.83
876.717	58.03
876.889	-36.18
877.062	68.27
877.234	-3.41
877.407	-9.56
877.579	-1.37
877.752	47.79
877.924	33.45
878.097	29.35
878.269	-40.28
878.442	-66.9
878.614	8.87
878.786	41.64
878.959	-66.9
879.131	-17.75
879.303	23.21
879.476	-32.08
879.648	23.21
879.82	15.02
879.993	-7.51
880.165	49.83
880.337	-46.42
880.509	47.79
880.681	15.02
880.854	-81.24
881.026	-38.23
881.198	66.22
881.37	-9.56
881.542	29.35
881.714	-40.28
881.886	-5.46
882.058	-5.46
882.23	-13.65
882.402	-11.61
882.574	29.35
882.746	-5.46
882.918	8.87
883.09	72.36
883.262	-81.24
883.434	23.21
883.606	15.02
883.778	19.11
883.95	82.6
884.122	17.07
884.293	-30.04
884.465	23.21
884.637	72.36
884.809	-9.56
884.98	-107.86
885.152	12.97
885.324	6.83
885.496	-34.13
885.667	6.83
885.839	-38.23
886.011	15.02
886.182	-11.61
886.354	47.79
886.525	0.68
886.697	-25.94
886.869	-58.71
887.04	-17.75
887.212	8.87
887.383	27.31
887.555	31.4
887.726	41.64
887.897	19.11
888.069	58.03
888.24	12.97
888.412	25.26
888.583	-17.75
888.754	58.03
888.926	-32.08
889.097	101.03
889.268	-34.13
889.44	8.87
889.611	60.07
889.782	-52.56
889.953	27.31
890.125	-9.56
890.296	6.83
890.467	39.59
890.638	-9.56
890.809	51.88
890.98	-23.89
891.151	27.31
891.323	37.55
891.494	152.23
891.665	80.55
891.836	-36.18
892.007	-21.85
892.178	-23.89
892.349	15.02
892.52	-111.96
892.691	-23.89
892.862	17.07
893.032	-103.76
893.203	4.78
893.374	-46.42
893.545	-1.37
893.716	-7.51
893.887	-34.13
894.057	-40.28
894.228	-40.28
894.399	23.21
894.57	37.55
894.74	-21.85
894.911	43.69
895.082	-40.28
895.253	-114
895.423	-54.61
895.594	-40.28
895.764	-17.75
895.935	-52.56
896.106	129.7
896.276	60.07
896.447	49.83
896.617	-30.04
896.788	-17.75
896.958	-40.28
897.129	0.68
897.299	-25.94
897.47	19.11
897.64	-9.56
897.81	-15.7
897.981	47.79
898.151	-23.89
898.322	-23.89
898.492	-7.51
898.662	31.4
898.832	-32.08
899.003	49.83
899.173	51.88
899.343	21.16
899.513	45.74
