Data from USB4F104151__152__14-44-37-280.txt Node

Date: Thu Mar 13 14:44:37 EDT 2025
User: louis
Spectrometer: USB4F10415
Trigger mode: 4
Integration Time (sec): 2.000000E-2
Scans to average: 1
Electric dark correction enabled: true
Nonlinearity correction enabled: false
Boxcar width: 0
XAxis mode: Wavelengths
Number of Pixels in Spectrum: 3648
>>>>>Begin Spectral Data<<<<<
178.204	-112.13
178.424	-112.13
178.644	-112.13
178.864	-185.85
179.084	-167.42
179.304	-50.69
179.524	2.56
179.744	-1.54
179.964	25.09
180.184	-62.98
180.404	27.14
180.624	4.61
180.844	23.04
181.064	-50.69
181.283	27.14
181.503	18.94
181.723	37.38
181.943	-34.3
182.163	53.76
182.383	-13.82
182.602	-5.63
182.822	12.8
183.042	14.85
183.262	-34.3
183.482	-36.35
183.701	18.94
183.921	84.48
184.141	20.99
184.361	14.85
184.58	31.23
184.8	31.23
185.02	109.05
185.239	61.95
185.459	2.56
185.679	49.66
185.898	-32.26
186.118	43.52
186.338	-46.59
186.557	57.86
186.777	4.61
186.997	29.18
187.216	29.18
187.436	72.19
187.655	43.52
187.875	80.38
188.095	14.85
188.314	94.72
188.534	27.14
188.753	29.18
188.973	27.14
189.192	59.9
189.412	45.57
189.631	37.38
189.851	43.52
190.07	59.9
190.29	-54.78
190.509	68.09
190.729	102.91
190.948	25.09
191.168	107.01
191.387	51.71
191.607	27.14
191.826	43.52
192.045	25.09
192.265	29.18
192.484	6.66
192.704	-34.3
192.923	37.38
193.142	88.57
193.362	-26.11
193.581	-13.82
193.8	51.71
194.02	43.52
194.239	-62.98
194.458	59.9
194.678	20.99
194.897	12.8
195.116	-9.73
195.335	86.53
195.555	53.76
195.774	27.14
195.993	-5.63
196.212	16.9
196.432	-3.58
196.651	27.14
196.87	37.38
197.089	43.52
197.308	76.29
197.528	49.66
197.747	27.14
197.966	94.72
198.185	72.19
198.404	68.09
198.623	-3.58
198.842	2.56
199.062	96.77
199.281	47.62
199.5	-1.54
199.719	31.23
199.938	31.23
200.157	55.81
200.376	55.81
200.595	6.66
200.814	31.23
201.033	4.61
201.252	-9.73
201.471	12.8
201.69	72.19
201.909	31.23
202.128	84.48
202.347	59.9
202.566	16.9
202.785	-34.3
203.004	23.04
203.223	98.81
203.442	-48.64
203.661	51.71
203.879	49.66
204.098	88.57
204.317	-71.17
204.536	109.05
204.755	-44.54
204.974	-5.63
205.193	37.38
205.411	80.38
205.63	37.38
205.849	20.99
206.068	10.75
206.287	18.94
206.505	35.33
206.724	2.56
206.943	-5.63
207.162	72.19
207.381	100.86
207.599	-46.59
207.818	4.61
208.037	-5.63
208.255	-42.5
208.474	18.94
208.693	-13.82
208.911	-58.88
209.13	10.75
209.349	78.33
209.567	84.48
209.786	4.61
210.005	84.48
210.223	51.71
210.442	47.62
210.661	-1.54
210.879	0.51
211.098	80.38
211.316	-44.54
211.535	150.01
211.753	2.56
211.972	53.76
212.191	88.57
212.409	18.94
212.628	68.09
212.846	12.8
213.065	16.9
213.283	70.14
213.502	27.14
213.72	55.81
213.938	68.09
214.157	29.18
214.375	109.05
214.594	37.38
214.812	92.67
215.031	23.04
215.249	-26.11
215.467	-13.82
215.686	-1.54
215.904	43.52
216.122	10.75
216.341	47.62
216.559	27.14
216.778	68.09
216.996	27.14
217.214	12.8
217.432	64
217.651	-11.78
217.869	-9.73
218.087	-28.16
218.306	29.18
218.524	61.95
218.742	35.33
218.96	43.52
219.179	-19.97
219.397	115.2
219.615	152.06
219.833	43.52
220.051	31.23
220.27	45.57
220.488	20.99
220.706	6.66
220.924	12.8
221.142	-5.63
221.36	2.56
221.578	45.57
221.796	29.18
222.015	59.9
222.233	51.71
222.451	76.29
222.669	-36.35
222.887	76.29
223.105	-9.73
223.323	20.99
223.541	14.85
223.759	-24.06
223.977	-13.82
224.195	111.1
224.413	68.09
224.631	66.05
224.849	39.42
225.067	96.77
225.285	31.23
225.503	135.68
225.721	-71.17
225.939	33.28
226.157	-22.02
226.375	109.05
226.592	-67.07
226.81	-38.4
227.028	-11.78
227.246	123.39
227.464	45.57
227.682	68.09
227.9	23.04
228.117	10.75
228.335	18.94
228.553	29.18
228.771	80.38
228.989	2.56
229.206	4.61
229.424	-30.21
229.642	10.75
229.86	-5.63
230.077	82.43
230.295	49.66
230.513	51.71
230.731	70.14
230.948	25.09
231.166	51.71
231.384	27.14
231.601	-9.73
231.819	76.29
232.037	20.99
232.254	18.94
232.472	-13.82
232.689	-5.63
232.907	51.71
233.125	2.56
233.342	59.9
233.56	37.38
233.777	14.85
233.995	8.7
234.213	-5.63
234.43	35.33
234.648	20.99
234.865	51.71
235.083	39.42
235.3	53.76
235.518	119.29
235.735	43.52
235.953	37.38
236.17	-1.54
236.388	61.95
236.605	45.57
236.822	35.33
237.04	55.81
237.257	29.18
237.475	29.18
237.692	80.38
237.909	84.48
238.127	70.14
238.344	-34.3
238.562	78.33
238.779	31.23
238.996	-11.78
239.214	-5.63
239.431	43.52
239.648	31.23
239.865	84.48
240.083	45.57
240.3	-5.63
240.517	-54.78
240.735	51.71
240.952	49.66
241.169	57.86
241.386	-13.82
241.603	61.95
241.821	10.75
242.038	68.09
242.255	37.38
242.472	-30.21
242.689	45.57
242.907	64
243.124	-3.58
243.341	18.94
243.558	29.18
243.775	53.76
243.992	-9.73
244.209	16.9
244.426	76.29
244.643	-54.78
244.86	47.62
245.078	39.42
245.295	4.61
245.512	23.04
245.729	6.66
245.946	-13.82
246.163	-3.58
246.38	-13.82
246.597	51.71
246.814	-5.63
247.031	12.8
247.248	39.42
247.464	14.85
247.681	-3.58
247.898	68.09
248.115	45.57
248.332	102.91
248.549	-13.82
248.766	51.71
248.983	-9.73
249.2	51.71
249.417	84.48
249.633	-7.68
249.85	18.94
250.067	37.38
250.284	49.66
250.501	66.05
250.717	59.9
250.934	10.75
251.151	2.56
251.368	-22.02
251.585	31.23
251.801	37.38
252.018	68.09
252.235	117.25
252.451	14.85
252.668	27.14
252.885	76.29
253.102	23.04
253.318	66.05
253.535	20.99
253.752	59.9
253.968	78.33
254.185	49.66
254.401	55.81
254.618	43.52
254.835	-13.82
255.051	51.71
255.268	23.04
255.484	-9.73
255.701	23.04
255.917	158.21
256.134	-26.11
256.351	96.77
256.567	47.62
256.784	10.75
257	-71.17
257.217	14.85
257.433	53.76
257.65	-1.54
257.866	45.57
258.082	2.56
258.299	-13.82
258.515	-13.82
258.732	-32.26
258.948	78.33
259.165	20.99
259.381	-50.69
259.597	33.28
259.814	-5.63
260.03	-13.82
260.246	-9.73
260.463	18.94
260.679	43.52
260.895	12.8
261.112	59.9
261.328	-15.87
261.544	45.57
261.761	39.42
261.977	45.57
262.193	59.9
262.409	94.72
262.626	-13.82
262.842	-5.63
263.058	29.18
263.274	27.14
263.49	-34.3
263.707	43.52
263.923	72.19
264.139	18.94
264.355	12.8
264.571	18.94
264.787	20.99
265.004	68.09
265.22	-11.78
265.436	61.95
265.652	18.94
265.868	-32.26
266.084	27.14
266.3	31.23
266.516	-11.78
266.732	-13.82
266.948	51.71
267.164	-42.5
267.38	43.52
267.596	-28.16
267.812	92.67
268.028	43.52
268.244	72.19
268.46	18.94
268.676	-60.93
268.892	59.9
269.108	23.04
269.324	-3.58
269.54	-38.4
269.756	18.94
269.972	68.09
270.188	61.95
270.403	-56.83
270.619	25.09
270.835	-38.4
271.051	27.14
271.267	10.75
271.483	20.99
271.698	66.05
271.914	-36.35
272.13	64
272.346	-34.3
272.562	14.85
272.777	16.9
272.993	-36.35
273.209	43.52
273.425	16.9
273.64	43.52
273.856	51.71
274.072	-1.54
274.287	-38.4
274.503	78.33
274.719	43.52
274.934	92.67
275.15	35.33
275.366	59.9
275.581	2.56
275.797	31.23
276.012	-3.58
276.228	0.51
276.444	14.85
276.659	23.04
276.875	-13.82
277.09	0.51
277.306	2.56
277.521	4.61
277.737	37.38
277.952	-13.82
278.168	117.25
278.383	88.57
278.599	-13.82
278.814	20.99
279.03	18.94
279.245	20.99
279.461	39.42
279.676	31.23
279.892	-9.73
280.107	27.14
280.322	-87.55
280.538	70.14
280.753	37.38
280.969	45.57
281.184	-42.5
281.399	-13.82
281.615	2.56
281.83	-44.54
282.045	-46.59
282.26	78.33
282.476	53.76
282.691	12.8
282.906	-58.88
283.122	53.76
283.337	-50.69
283.552	10.75
283.767	25.09
283.983	70.14
284.198	39.42
284.413	70.14
284.628	43.52
284.843	27.14
285.058	10.75
285.274	86.53
285.489	31.23
285.704	-5.63
285.919	18.94
286.134	2.56
286.349	-13.82
286.564	-44.54
286.779	31.23
286.995	37.38
287.21	86.53
287.425	37.38
287.64	10.75
287.855	-1.54
288.07	-65.02
288.285	47.62
288.5	27.14
288.715	109.05
288.93	-9.73
289.145	-3.58
289.36	35.33
289.575	43.52
289.79	104.96
290.004	-65.02
290.219	10.75
290.434	4.61
290.649	33.28
290.864	-5.63
291.079	33.28
291.294	61.95
291.509	27.14
291.724	18.94
291.938	4.61
292.153	39.42
292.368	59.9
292.583	-3.58
292.798	-5.63
293.012	117.25
293.227	66.05
293.442	2.56
293.657	27.14
293.871	51.71
294.086	23.04
294.301	23.04
294.516	-32.26
294.73	84.48
294.945	-22.02
295.16	72.19
295.374	14.85
295.589	27.14
295.804	23.04
296.018	27.14
296.233	18.94
296.447	55.81
296.662	-5.63
296.877	80.38
297.091	88.57
297.306	37.38
297.52	37.38
297.735	45.57
297.949	131.58
298.164	-3.58
298.378	-13.82
298.593	51.71
298.807	57.86
299.022	35.33
299.236	18.94
299.451	-30.21
299.665	12.8
299.88	10.75
300.094	23.04
300.309	31.23
300.523	92.67
300.737	31.23
300.952	59.9
301.166	64
301.381	-1.54
301.595	18.94
301.809	70.14
302.024	16.9
302.238	-34.3
302.452	143.87
302.667	2.56
302.881	-30.21
303.095	66.05
303.309	59.9
303.524	37.38
303.738	76.29
303.952	-1.54
304.166	12.8
304.381	-46.59
304.595	70.14
304.809	29.18
305.023	53.76
305.237	-28.16
305.452	-13.82
305.666	39.42
305.88	45.57
306.094	4.61
306.308	64
306.522	43.52
306.736	-13.82
306.95	27.14
307.164	27.14
307.379	-11.78
307.593	117.25
307.807	-54.78
308.021	-46.59
308.235	92.67
308.449	-15.87
308.663	-13.82
308.877	86.53
309.091	16.9
309.305	35.33
309.519	-22.02
309.733	100.86
309.947	27.14
310.161	82.43
310.374	51.71
310.588	72.19
310.802	-13.82
311.016	43.52
311.23	39.42
311.444	23.04
311.658	2.56
311.872	51.71
312.085	74.24
312.299	35.33
312.513	18.94
312.727	37.38
312.941	45.57
313.154	66.05
313.368	47.62
313.582	2.56
313.796	64
314.009	0.51
314.223	25.09
314.437	-5.63
314.651	53.76
314.864	-22.02
315.078	10.75
315.292	10.75
315.505	14.85
315.719	59.9
315.933	100.86
316.146	-28.16
316.36	18.94
316.573	59.9
316.787	-26.11
317.001	25.09
317.214	-58.88
317.428	-44.54
317.641	8.7
317.855	35.33
318.068	-34.3
318.282	68.09
318.495	43.52
318.709	-30.21
318.922	-28.16
319.136	135.68
319.349	88.57
319.563	-1.54
319.776	-5.63
319.99	-13.82
320.203	18.94
320.417	68.09
320.63	39.42
320.843	51.71
321.057	-5.63
321.27	43.52
321.483	55.81
321.697	96.77
321.91	20.99
322.124	18.94
322.337	47.62
322.55	72.19
322.763	-26.11
322.977	29.18
323.19	8.7
323.403	-5.63
323.617	66.05
323.83	72.19
324.043	-46.59
324.256	43.52
324.469	-46.59
324.683	2.56
324.896	-52.74
325.109	27.14
325.322	-3.58
325.535	43.52
325.748	2.56
325.962	68.09
326.175	29.18
326.388	64
326.601	-3.58
326.814	-3.58
327.027	-9.73
327.24	70.14
327.453	2.56
327.666	45.57
327.879	66.05
328.092	20.99
328.305	51.71
328.518	41.47
328.731	14.85
328.944	12.8
329.157	-11.78
329.37	35.33
329.583	137.73
329.796	68.09
330.009	-36.35
330.222	113.15
330.435	35.33
330.648	-73.21
330.861	10.75
331.073	10.75
331.286	47.62
331.499	78.33
331.712	-22.02
331.925	61.95
332.138	59.9
332.35	27.14
332.563	59.9
332.776	49.66
332.989	-17.92
333.202	-44.54
333.414	35.33
333.627	55.81
333.84	37.38
334.053	45.57
334.265	80.38
334.478	111.1
334.691	25.09
334.903	4.61
335.116	2.56
335.329	-1.54
335.541	121.34
335.754	8.7
335.966	-1.54
336.179	39.42
336.392	51.71
336.604	-30.21
336.817	16.9
337.029	51.71
337.242	39.42
337.454	94.72
337.667	18.94
337.88	115.2
338.092	18.94
338.305	76.29
338.517	47.62
338.729	2.56
338.942	100.86
339.154	2.56
339.367	-13.82
339.579	20.99
339.792	2.56
340.004	6.66
340.217	27.14
340.429	98.81
340.641	53.76
340.854	-11.78
341.066	10.75
341.278	47.62
341.491	78.33
341.703	20.99
341.915	29.18
342.128	80.38
342.34	20.99
342.552	18.94
342.764	43.52
342.977	43.52
343.189	59.9
343.401	-36.35
343.613	-11.78
343.826	137.73
344.038	18.94
344.25	10.75
344.462	-17.92
344.674	6.66
344.886	70.14
345.099	100.86
345.311	27.14
345.523	49.66
345.735	84.48
345.947	92.67
346.159	88.57
346.371	133.63
346.583	-11.78
346.795	150.01
347.007	-44.54
347.219	43.52
347.431	29.18
347.643	53.76
347.855	10.75
348.067	121.34
348.279	88.57
348.491	-5.63
348.703	33.28
348.915	29.18
349.127	6.66
349.339	12.8
349.551	4.61
349.763	82.43
349.975	35.33
350.187	2.56
350.399	82.43
350.61	111.1
350.822	18.94
351.034	51.71
351.246	-22.02
351.458	84.48
351.669	35.33
351.881	35.33
352.093	-9.73
352.305	-40.45
352.517	18.94
352.728	2.56
352.94	14.85
353.152	45.57
353.363	39.42
353.575	35.33
353.787	92.67
353.999	31.23
354.21	68.09
354.422	43.52
354.633	53.76
354.845	4.61
355.057	92.67
355.268	45.57
355.48	84.48
355.692	39.42
355.903	51.71
356.115	90.62
356.326	43.52
356.538	100.86
356.749	-19.97
356.961	12.8
357.172	107.01
357.384	12.8
357.595	92.67
357.807	-30.21
358.018	-19.97
358.23	59.9
358.441	127.49
358.653	35.33
358.864	84.48
359.075	76.29
359.287	78.33
359.498	61.95
359.709	59.9
359.921	27.14
360.132	31.23
360.344	35.33
360.555	18.94
360.766	43.52
360.977	18.94
361.189	129.53
361.4	104.96
361.611	109.05
361.823	76.29
362.034	68.09
362.245	-5.63
362.456	35.33
362.667	51.71
362.879	14.85
363.09	14.85
363.301	59.9
363.512	76.29
363.723	59.9
363.935	-13.82
364.146	61.95
364.357	109.05
364.568	68.09
364.779	23.04
364.99	102.91
365.201	-50.69
365.412	68.09
365.623	-60.93
365.834	53.76
366.045	14.85
366.256	39.42
366.467	76.29
366.678	49.66
366.889	-22.02
367.1	51.71
367.311	90.62
367.522	25.09
367.733	45.57
367.944	80.38
368.155	-30.21
368.366	41.47
368.577	59.9
368.788	104.96
368.999	-11.78
369.209	27.14
369.42	88.57
369.631	23.04
369.842	92.67
370.053	-11.78
370.264	64
370.474	68.09
370.685	-7.68
370.896	-5.63
371.107	51.71
371.317	131.58
371.528	-26.11
371.739	119.29
371.95	74.24
372.16	78.33
372.371	-42.5
372.582	-42.5
372.792	59.9
373.003	20.99
373.214	61.95
373.424	20.99
373.635	45.57
373.846	74.24
374.056	12.8
374.267	76.29
374.477	-1.54
374.688	12.8
374.898	39.42
375.109	45.57
375.319	-40.45
375.53	80.38
375.74	66.05
375.951	43.52
376.161	16.9
376.372	86.53
376.582	100.86
376.793	61.95
377.003	74.24
377.214	6.66
377.424	45.57
377.635	25.09
377.845	72.19
378.055	49.66
378.266	14.85
378.476	92.67
378.686	64
378.897	20.99
379.107	-9.73
379.317	61.95
379.528	-1.54
379.738	111.1
379.948	6.66
380.158	31.23
380.369	59.9
380.579	59.9
380.789	76.29
380.999	133.63
381.21	39.42
381.42	117.25
381.63	59.9
381.84	70.14
382.05	43.52
382.261	76.29
382.471	84.48
382.681	20.99
382.891	57.86
383.101	35.33
383.311	72.19
383.521	-32.26
383.731	39.42
383.941	86.53
384.151	2.56
384.361	-11.78
384.571	70.14
384.781	70.14
384.991	145.92
385.201	139.77
385.411	43.52
385.621	94.72
385.831	-9.73
386.041	98.81
386.251	12.8
386.461	92.67
386.671	33.28
386.881	92.67
387.091	64
387.301	-3.58
387.511	61.95
387.72	68.09
387.93	27.14
388.14	43.52
388.35	49.66
388.56	68.09
388.769	59.9
388.979	47.62
389.189	33.28
389.399	47.62
389.609	51.71
389.818	92.67
390.028	-1.54
390.238	55.81
390.447	16.9
390.657	39.42
390.867	64
391.076	59.9
391.286	49.66
391.496	41.47
391.705	10.75
391.915	113.15
392.125	4.61
392.334	53.76
392.544	76.29
392.753	78.33
392.963	18.94
393.172	76.29
393.382	33.28
393.591	115.2
393.801	90.62
394.01	20.99
394.22	94.72
394.429	10.75
394.639	-11.78
394.848	82.43
395.058	115.2
395.267	76.29
395.477	8.7
395.686	43.52
395.895	145.92
396.105	145.92
396.314	70.14
396.524	-32.26
396.733	143.87
396.942	70.14
397.152	37.38
397.361	100.86
397.57	61.95
397.78	29.18
397.989	96.77
398.198	158.21
398.407	53.76
398.617	-9.73
398.826	100.86
399.035	98.81
399.244	72.19
399.453	104.96
399.663	170.49
399.872	96.77
400.081	70.14
400.29	145.92
400.499	6.66
400.708	164.35
400.917	104.96
401.127	10.75
401.336	27.14
401.545	76.29
401.754	119.29
401.963	100.86
402.172	135.68
402.381	82.43
402.59	88.57
402.799	102.91
403.008	96.77
403.217	137.73
403.426	182.78
403.635	109.05
403.844	109.05
404.053	113.15
404.262	121.34
404.471	199.16
404.68	111.1
404.888	104.96
405.097	193.02
405.306	174.59
405.515	166.4
405.724	127.49
405.933	182.78
406.142	125.44
406.35	123.39
406.559	119.29
406.768	94.72
406.977	174.59
407.185	207.36
407.394	264.7
407.603	92.67
407.812	174.59
408.02	182.78
408.229	272.89
408.438	209.4
408.646	178.69
408.855	199.16
409.064	184.83
409.272	195.07
409.481	250.36
409.69	172.54
409.898	272.89
410.107	190.97
410.315	254.46
410.524	227.84
410.733	209.4
410.941	264.7
411.15	330.23
411.358	301.56
411.567	330.23
411.775	340.47
411.984	324.09
412.192	338.43
412.401	223.74
412.609	430.59
412.818	444.92
413.026	395.77
413.234	358.91
413.443	440.83
413.651	477.69
413.86	414.2
414.068	500.22
414.276	455.16
414.485	494.07
414.693	502.26
414.901	559.61
415.11	561.66
415.318	543.22
415.526	600.57
415.734	627.19
415.943	696.82
416.151	676.34
416.359	657.91
416.567	741.88
416.776	688.63
416.984	750.07
417.192	788.98
417.4	709.11
417.608	782.84
417.817	743.92
418.025	881.14
418.233	977.39
418.441	842.23
418.649	895.47
418.857	918
419.065	993.78
419.273	971.25
419.481	1022.45
419.689	1145.33
419.897	1171.95
420.105	1200.62
420.313	1200.62
420.521	1247.72
420.729	1364.46
420.937	1300.97
421.145	1370.6
421.353	1501.67
421.561	1513.96
421.769	1530.34
421.977	1665.51
422.185	1599.98
422.393	1700.33
422.601	1782.24
422.809	1706.47
423.017	1849.83
423.224	1903.07
423.432	2015.71
423.64	1919.46
423.848	2005.47
424.056	1999.33
424.263	2214.37
424.471	2288.09
424.679	2228.7
424.887	2370.01
425.094	2333.15
425.302	2550.23
425.51	2542.04
425.718	2546.14
425.925	2742.74
426.133	2781.65
426.341	2898.39
426.548	2963.92
426.756	2892.24
426.964	3023.31
427.171	3224.01
427.379	3221.97
427.586	3330.51
427.794	3422.67
428.001	3709.38
428.209	3639.75
428.417	3744.2
428.624	3930.56
428.832	3918.28
429.039	3971.52
429.247	4032.96
429.454	4303.29
429.662	4606.39
429.869	4348.35
430.076	4624.83
430.284	4434.36
430.491	4698.55
430.699	5036.47
430.906	4975.03
431.114	4929.97
431.321	5073.33
431.528	5304.75
431.736	5548.46
431.943	5802.41
432.15	5577.13
432.358	5753.26
432.565	6226.34
432.772	6048.16
432.979	6474.14
433.187	6506.91
433.394	6490.52
433.601	6967.7
433.808	6945.17
434.016	6971.8
434.223	7215.51
434.43	7621
434.637	7498.13
434.844	7887.24
435.052	8245.63
435.259	8040.84
435.466	8110.47
435.673	8067.46
435.88	8575.36
436.087	8972.66
436.294	8999.29
436.501	8690.04
436.708	9083.25
436.915	9382.26
437.122	9896.3
437.329	9869.67
437.537	9943.4
437.743	10013.03
437.95	10221.92
438.157	10520.93
438.364	11092.31
438.571	10846.55
438.778	11014.49
438.985	11921.74
439.192	11495.76
439.399	11868.49
439.606	11430.23
439.813	12142.92
440.02	13041.98
440.227	12849.47
440.433	12757.31
440.64	13214.01
440.847	13062.46
441.054	12994.87
441.261	14264.61
441.467	14115.11
441.674	14614.82
441.881	14891.29
442.088	15030.55
442.294	14764.32
442.501	15051.03
442.708	15395.09
442.914	16154.89
443.121	16580.87
443.328	16185.61
443.534	17459.45
443.741	16826.62
443.948	16384.26
444.154	18139.37
444.361	17770.74
444.568	17678.58
444.774	17889.52
444.981	18143.47
445.187	18555.11
445.394	19411.16
445.6	18876.64
445.807	21164.22
446.013	20170.96
446.22	20461.77
446.426	21201.08
446.633	21659.83
446.839	22022.32
447.046	21018.82
447.252	22200.49
447.459	22194.35
447.665	22296.75
447.871	23238.81
448.078	24293.52
448.284	23099.55
448.491	23759
448.697	24801.41
448.903	25542.78
449.11	25243.77
449.316	24686.73
449.522	25229.44
449.728	25944.18
449.935	26200.18
450.141	26265.71
450.347	26732.65
450.553	25825.4
450.76	26368.11
450.966	27371.61
451.172	26816.61
451.378	27828.31
451.584	26884.2
451.791	27797.59
451.997	27529.31
452.203	28096.6
452.409	27899.99
452.615	27826.26
452.821	27064.42
453.027	26730.6
453.233	28264.53
453.44	27062.37
453.646	27672.67
453.852	27166.82
454.058	28127.31
454.264	27002.98
454.47	27648.09
454.676	26869.86
454.882	28018.77
455.088	25524.35
455.294	26290.29
455.5	26624.11
455.705	26753.13
455.911	25737.34
456.117	25204.86
456.323	24852.61
456.529	23564.44
456.735	24643.72
456.941	23939.22
457.147	23529.62
457.352	23064.74
457.558	22892.71
457.764	22900.9
457.97	22466.73
458.176	21897.39
458.381	22120.62
458.587	20940.99
458.793	20662.47
458.999	19685.59
459.204	21233.85
459.41	20590.79
459.616	19224.79
459.821	19472.6
460.027	19310.81
460.233	18778.34
460.438	17797.36
460.644	18069.74
460.85	17287.42
461.055	17090.81
461.261	16734.46
461.466	15769.87
461.672	15370.52
461.878	16374.02
462.083	15309.08
462.289	15178.01
462.494	14987.55
462.7	14121.26
462.905	13990.19
463.111	14252.33
463.316	14303.53
463.522	14008.62
463.727	14213.42
463.932	14037.29
464.138	13822.25
464.343	13852.97
464.549	13723.95
464.754	13986.09
464.959	13771.05
465.165	13459.76
465.37	13449.52
465.575	12822.84
465.781	13396.28
465.986	13574.45
466.191	12761.41
466.397	12650.81
466.602	12140.87
466.807	12351.81
467.012	12431.68
467.218	12405.06
467.423	12247.37
467.628	12521.79
467.833	12906.81
468.038	12421.44
468.244	11962.7
468.449	12544.32
468.654	12054.86
468.859	12009.8
469.064	11893.07
469.269	11286.87
469.474	11561.3
469.679	11956.55
469.885	11336.02
470.09	11594.06
470.295	11587.92
470.5	11241.81
470.705	11350.35
470.91	11196.76
471.115	11075.93
471.32	11368.79
471.525	11323.73
471.73	10701.15
471.935	10742.11
472.139	10471.78
472.344	10629.47
472.549	10529.12
472.754	10490.21
472.959	10148.2
473.164	9896.3
473.369	9843.05
473.574	10156.39
473.778	10113.38
473.983	9976.17
474.188	9974.12
474.393	9580.91
474.598	9558.38
474.802	9392.5
475.007	9230.71
475.212	9236.85
475.417	8894.84
475.621	9111.92
475.826	9116.02
476.031	8847.74
476.235	8704.38
476.44	8886.65
476.645	8655.23
476.849	8720.76
477.054	8710.52
477.259	8427.9
477.463	8542.59
477.668	8221.06
477.872	8538.49
478.077	8214.91
478.282	7981.45
478.486	7965.06
478.691	8063.36
478.895	7899.53
479.1	7874.95
479.304	7877
479.509	7537.04
479.713	7700.87
479.918	7723.4
480.122	7647.63
480.326	7678.35
480.531	7598.48
480.735	7350.67
480.94	7426.45
481.144	7641.48
481.348	7246.23
481.553	7369.1
481.757	7131.54
481.961	7479.69
482.166	7418.25
482.37	7186.83
482.574	7174.55
482.778	7215.51
482.983	7391.63
483.187	7188.88
483.391	7219.6
483.595	7186.83
483.8	7182.74
484.004	7266.71
484.208	7309.71
484.412	7436.69
484.616	7408.01
484.821	7440.78
485.025	7078.29
485.229	7289.23
485.433	7172.5
485.637	7111.06
485.841	7160.21
486.045	7301.52
486.249	7137.68
486.453	7285.14
486.657	7149.97
486.861	7281.04
487.065	7137.68
487.269	7360.91
487.473	7186.83
487.677	7397.78
487.881	7293.33
488.085	7215.51
488.289	7326.1
488.493	7276.94
488.697	7334.29
488.901	7367.06
489.105	7182.74
489.309	7309.71
489.512	7426.45
489.716	7451.02
489.92	7410.06
490.124	7262.61
490.328	7442.83
490.531	7532.94
490.735	7600.52
490.939	7459.21
491.143	7317.9
491.346	7315.86
491.55	7539.08
491.754	7524.75
491.958	7676.3
492.161	7543.18
492.365	7735.69
492.569	7711.11
492.772	7735.69
492.976	7793.03
493.18	7891.34
493.383	7852.42
493.587	7809.42
493.79	8006.02
493.994	7879.05
494.197	7911.82
494.401	8104.32
494.605	8065.41
494.808	8241.54
495.012	8204.67
495.215	8550.78
495.419	8253.83
495.622	8419.71
495.825	8550.78
496.029	8522.11
496.232	8640.89
496.436	8638.84
496.639	8679.8
496.843	8722.81
497.046	8776.06
497.249	9169.27
497.453	9144.69
497.656	9212.28
497.859	9152.88
498.063	9255.28
498.266	9554.29
498.469	9349.49
498.673	9396.59
498.876	9576.81
499.079	9746.8
499.282	9824.62
499.485	10187.11
499.689	10142.05
499.892	10273.12
500.095	10111.33
500.298	10561.89
500.501	10529.12
500.705	10789.21
500.908	10725.72
501.111	10795.36
501.314	11014.49
501.517	11133.27
501.72	11053.4
501.923	11227.48
502.126	11573.58
502.329	11686.22
502.532	11794.76
502.735	11657.55
502.938	12075.34
503.141	12089.67
503.344	12173.64
503.547	12140.87
503.75	12638.53
503.953	12706.11
504.156	12937.53
504.359	12859.71
504.562	12986.68
504.765	13027.64
504.968	13228.34
505.17	13596.98
505.373	13601.07
505.576	13609.26
505.779	14029.1
505.982	14141.74
506.185	14348.58
506.387	14565.67
506.59	14444.84
506.793	14670.11
506.996	14770.46
507.198	15178.01
507.401	15106.33
507.604	15243.54
507.807	15540.5
508.009	15429.91
508.212	15866.13
508.415	16324.87
508.617	16390.41
508.82	16253.19
509.022	16208.14
509.225	16722.18
509.428	16759.04
509.63	16955.65
509.833	17107.19
510.035	17428.73
510.238	17565.94
510.44	17600.76
510.643	17764.59
510.845	18170.09
511.048	17928.43
511.25	18223.34
511.453	18413.8
511.655	19235.03
511.858	18899.17
512.06	18907.36
512.262	19392.73
512.465	19196.12
512.667	19673.3
512.87	19960.02
513.072	19962.06
513.274	20211.92
513.477	20486.34
513.679	20824.26
513.881	20715.72
514.084	20908.22
514.286	20887.75
514.488	21389.5
514.69	21780.66
514.893	21979.31
515.095	21989.55
515.297	22044.85
515.499	22341.8
515.701	22616.23
515.904	22743.2
516.106	22751.4
516.308	23300.25
516.51	23419.03
516.712	23668.89
516.914	23763.09
517.116	24434.83
517.318	24094.86
517.52	24346.76
517.722	24635.53
517.925	24998.02
518.127	24957.06
518.329	25168
518.531	25237.63
518.733	25600.12
518.935	25958.52
519.136	26175.6
519.338	26499.18
519.54	26620.01
519.742	26882.15
519.944	26837.09
520.146	27269.22
520.348	27856.98
520.55	27912.28
520.752	27988.05
520.954	28153.94
521.155	28301.39
521.357	28483.66
521.559	28471.37
521.761	29470.78
521.963	29239.36
522.164	29218.88
522.366	29376.58
522.568	29909.05
522.77	30124.08
522.971	30388.27
523.173	29831.22
523.375	30361.65
523.576	30296.11
523.778	30435.38
523.98	30976.04
524.181	31258.66
524.383	31166.5
524.584	31678.49
524.786	31809.56
524.988	31481.89
525.189	32204.82
525.391	32268.31
525.592	32333.84
525.794	32661.52
525.995	32548.88
526.197	32757.77
526.398	33077.26
526.6	32909.32
526.801	33208.33
527.003	33097.73
527.204	33036.3
527.406	33445.89
527.607	33826.81
527.808	33978.36
528.01	33376.26
528.211	33497.09
528.412	34088.95
528.614	34514.93
528.815	34056.18
529.016	34439.15
529.218	34330.61
529.419	34549.74
529.62	34869.23
529.822	34404.34
530.023	34885.61
530.224	34584.56
530.425	34897.9
530.626	34365.43
530.828	34486.26
531.029	35252.2
531.23	34801.64
531.431	34899.95
531.632	35053.55
531.833	35256.29
532.035	35174.38
532.236	35168.23
532.437	35348.45
532.638	35266.53
532.839	35413.99
533.04	35375.08
533.241	35309.54
533.442	36153.3
533.643	35538.91
533.844	35635.17
534.045	35579.87
534.246	35348.45
534.447	35606.5
534.648	35561.44
534.849	35569.63
535.05	35272.68
535.251	35694.56
535.451	35364.84
535.652	35672.03
535.853	35471.33
536.054	35481.57
536.255	35903.45
536.456	35596.26
536.657	35760.09
536.857	35878.88
537.058	35291.11
537.259	35815.39
537.46	35807.2
537.66	35350.5
537.861	35831.77
538.062	35649.5
538.263	35719.13
538.463	35565.54
538.664	35749.85
538.865	35936.22
539.065	35510.24
539.266	35428.32
539.466	36069.34
539.667	35559.39
539.868	36163.54
540.068	35397.6
540.269	35401.7
540.469	35885.02
540.67	35452.9
540.87	35549.15
541.071	35641.31
541.271	35897.31
541.472	35432.42
541.672	35643.36
541.873	35221.48
542.073	35241.96
542.274	36233.18
542.474	35735.52
542.675	35045.35
542.875	35829.73
543.075	35565.54
543.276	35151.85
543.476	35872.73
543.676	35600.35
543.877	35930.08
544.077	35948.51
544.277	35293.16
544.478	35667.94
544.678	35516.39
544.878	35420.13
545.078	35516.39
545.279	35598.3
545.479	35391.46
545.679	35235.81
545.879	35334.12
546.079	35239.91
546.28	35397.6
546.48	35168.23
546.68	35403.75
546.88	35434.47
547.08	35502.05
547.28	35327.97
547.48	35106.79
547.68	35358.69
547.88	35127.27
548.081	35436.52
548.281	35438.56
548.481	35172.33
548.681	35475.43
548.881	35426.28
549.081	35461.09
549.28	35071.98
549.48	35512.29
549.68	35336.16
549.88	35608.54
550.08	35057.64
550.28	35078.12
550.48	35069.93
550.68	35280.87
550.88	35117.03
551.08	35250.15
551.279	35311.59
551.479	34973.67
551.679	35512.29
551.879	34914.28
552.079	34988.01
552.278	35018.73
552.478	34973.67
552.678	34887.66
552.878	35076.07
553.077	35053.55
553.277	35098.6
553.477	35479.52
553.676	35088.36
553.876	35067.88
554.076	34736.11
554.275	34729.97
554.475	34705.39
554.674	35047.4
554.874	35192.81
555.074	34906.09
555.273	34912.24
555.473	35074.02
555.672	34592.75
555.872	34820.08
556.071	34629.62
556.271	34940.91
556.47	34535.41
556.67	34222.07
556.869	34516.98
557.068	34408.43
557.268	34174.97
557.467	34615.28
557.667	34099.19
557.866	34424.82
558.065	34508.79
558.265	34236.41
558.464	34041.85
558.663	34058.23
558.863	33536
559.062	34506.74
559.261	33769.47
559.461	34195.45
559.66	33343.49
559.859	33556.48
560.058	33630.21
560.258	33933.31
560.457	33284.1
560.656	33824.76
560.855	33191.94
561.054	33855.48
561.253	33691.65
561.453	33636.35
561.652	33857.53
561.851	33632.25
562.05	33290.24
562.249	33089.54
562.448	33705.98
562.647	33413.12
562.846	32997.38
563.045	33337.35
563.244	32698.38
563.443	33130.5
563.642	32796.68
563.841	32725
564.04	32575.5
564.239	32821.26
564.438	32598.03
564.637	32548.88
564.836	32626.7
565.035	32124.95
565.234	32794.64
565.432	32262.16
565.631	32382.99
565.83	32477.2
566.029	32200.72
566.228	31868.95
566.427	31858.71
566.625	31641.63
566.824	31721.5
567.023	32129.05
567.222	31158.31
567.42	32014.36
567.619	31825.95
567.818	31770.65
568.016	31367.2
568.215	31709.21
568.414	31174.69
568.612	31539.23
568.811	31096.87
569.01	31256.61
569.208	30875.69
569.407	31201.32
569.605	30644.27
569.804	30787.63
570.002	30646.32
570.201	31047.72
570.4	30935.08
570.598	30312.5
570.797	30496.81
570.995	30244.91
571.193	30111.8
571.392	30900.26
571.59	30130.23
571.789	30076.98
571.987	29947.96
572.186	29900.86
572.384	29644.86
572.582	29837.37
572.781	29626.43
572.979	29464.64
573.177	29640.76
573.376	29786.17
573.574	29044.8
573.772	29415.49
573.971	29216.83
574.169	29206.59
574.367	29016.13
574.565	29034.56
574.763	28966.98
574.962	29161.54
575.16	28629.07
575.358	28717.13
575.556	28465.23
575.754	29089.86
575.952	28500.05
576.151	28811.34
576.349	28102.74
576.547	28135.51
576.745	28454.99
576.943	28446.8
577.141	28217.43
577.339	28061.78
577.537	27928.66
577.735	27770.97
577.933	27705.43
578.131	27711.58
578.329	27435.1
578.527	27230.3
578.725	27424.86
578.923	27549.79
579.121	27199.58
579.319	27211.87
579.516	26947.68
579.714	27021.41
579.912	27113.57
580.11	26777.7
580.308	27263.07
580.506	26894.44
580.704	26622.06
580.901	26777.7
581.099	27023.46
581.297	26429.55
581.495	26620.01
581.692	26810.47
581.89	26466.41
582.088	26312.81
582.285	26067.06
582.483	26323.05
582.681	26124.4
582.878	26005.62
583.076	25766.01
583.274	25991.28
583.471	25698.42
583.669	25938.04
583.866	25213.06
584.064	25479.29
584.262	25548.92
584.459	25364.6
584.657	25471.1
584.854	25536.63
585.052	25286.78
585.249	25313.41
585.447	25161.86
585.644	24748.17
585.841	25036.93
586.039	25067.65
586.236	24545.42
586.434	24490.12
586.631	24430.73
586.828	24635.53
587.026	24598.66
587.223	24553.61
587.42	24555.66
587.618	24555.66
587.815	24236.17
588.012	23967.89
588.21	24023.19
588.407	24367.24
588.604	23722.13
588.801	23724.18
588.999	23922.83
589.196	24090.77
589.393	23720.09
589.59	23562.39
589.787	23535.77
589.984	23795.86
590.182	23459.99
590.379	23228.57
590.576	23185.57
590.773	23484.57
590.97	22829.22
591.167	23189.66
591.364	22937.76
591.561	23271.58
591.758	22843.56
591.955	23058.59
592.152	22941.86
592.349	22634.66
592.546	22624.42
592.743	22886.56
592.94	22139.05
593.137	22663.33
593.334	22642.85
593.531	22143.15
593.727	22448.3
593.924	22399.15
594.121	22128.81
594.318	22161.58
594.515	21668.02
594.712	21967.02
594.908	21874.87
595.105	21981.36
595.302	21557.43
595.499	21614.77
595.696	21565.62
595.892	21608.63
596.089	21555.38
596.286	21321.91
596.482	21180.6
596.679	21747.89
596.876	21092.54
597.072	21385.4
597.269	21153.98
597.466	21125.31
597.662	21002.43
597.859	20973.76
598.055	20850.88
598.252	20666.56
598.448	20639.94
598.645	20625.61
598.841	20441.29
599.038	20361.42
599.234	20633.8
599.431	20453.58
599.627	20269.26
599.824	20623.56
600.02	20142.28
600.217	20244.68
600.413	20150.48
600.609	19796.18
600.806	19927.25
601.002	20013.26
601.198	19732.69
601.395	20046.03
601.591	19761.36
601.787	19658.96
601.984	19579.09
602.18	19626.2
602.376	19521.75
602.572	19400.92
602.769	19458.26
602.965	19280.09
603.161	19286.23
603.357	19175.64
603.553	19228.89
603.75	19183.84
603.946	19069.15
604.142	19034.33
604.338	18733.28
604.534	18594.02
604.73	18665.7
604.926	18528.49
605.122	18774.24
605.318	18346.22
605.514	18417.89
605.71	18364.65
605.906	18647.27
606.102	18378.98
606.298	18383.08
606.494	18145.52
606.69	18602.21
606.886	18286.82
607.082	18151.66
607.278	18270.44
607.474	17967.34
607.67	18206.95
607.866	17887.47
608.062	18090.22
608.257	17666.29
608.453	17764.59
608.649	17854.7
608.845	17617.14
609.041	17637.62
609.236	17725.68
609.432	17651.95
609.628	17701.11
609.824	17455.35
610.019	17543.41
610.215	17398.01
610.411	17457.4
610.606	17279.22
610.802	17461.49
610.998	17412.34
611.193	17418.49
611.389	17010.94
611.584	17309.94
611.78	17162.49
611.976	17148.15
612.171	17035.52
612.367	17262.84
612.562	16791.81
612.758	16611.59
612.953	16607.49
613.149	16795.9
613.344	16681.22
613.539	17107.19
613.735	16926.97
613.93	16851.2
614.126	16779.52
614.321	16920.83
614.517	16582.91
614.712	16636.16
614.907	16591.11
615.103	16541.96
615.298	16492.8
615.493	16677.12
615.688	16582.91
615.884	16677.12
616.079	16318.73
616.274	16384.26
616.47	16496.9
616.665	16507.14
616.86	16185.61
617.055	16134.41
617.25	15999.24
617.445	16369.93
617.641	15835.41
617.836	15960.33
618.031	15792.4
618.226	15915.28
618.421	16023.82
618.616	15964.43
618.811	15646.99
619.006	15859.98
619.201	15466.77
619.396	15640.85
619.591	15282.45
619.786	15544.59
619.981	15411.48
620.176	15376.66
620.371	15206.68
620.566	15446.29
620.761	15001.88
620.956	15274.26
621.151	14973.21
621.346	15110.43
621.541	14915.87
621.735	15046.94
621.93	14780.7
622.125	14692.64
622.32	14745.89
622.515	14620.96
622.709	14242.09
622.904	14668.06
623.099	14342.44
623.294	14352.68
623.488	14090.54
623.683	14156.07
623.878	13881.64
624.072	13781.29
624.267	13805.87
624.462	13871.4
624.656	13668.66
624.851	13560.11
625.046	13590.83
625.24	13476.15
625.435	13187.38
625.629	13289.78
625.824	13099.32
626.018	13312.31
626.213	12927.29
626.407	13009.21
626.602	13031.74
626.796	13099.32
626.991	12931.39
627.185	12841.28
627.38	12933.43
627.574	12738.88
627.768	12470.59
627.963	12497.22
628.157	12353.86
628.352	12536.13
628.546	12343.62
628.74	12396.87
628.935	12093.77
629.129	12314.95
629.323	11766.09
629.517	12024.14
629.712	11714.89
629.906	11770.19
630.1	11497.81
630.294	11702.61
630.489	11534.67
630.683	11802.96
630.877	11594.06
631.071	11506
631.265	11624.78
631.459	11270.48
631.653	11145.56
631.848	10983.77
632.042	11352.4
632.236	11200.85
632.43	10883.42
632.624	10979.67
632.818	11039.06
633.012	10905.95
633.206	11010.39
633.4	10842.46
633.594	10615.13
633.788	10774.88
633.982	10611.04
634.176	10545.5
634.369	10434.91
634.563	10496.35
634.757	10260.84
634.951	10428.77
635.145	10244.45
635.339	10172.77
635.533	10094.95
635.726	10414.43
635.92	10168.68
636.114	10051.94
636.308	9892.2
636.501	10086.76
636.695	9898.34
636.889	9879.91
637.083	9568.62
637.276	9582.96
637.47	9517.42
637.664	9472.37
637.857	9408.88
638.051	9664.88
638.244	9597.29
638.438	9582.96
638.632	9369.97
638.825	9431.41
639.019	9171.32
639.212	9337.2
639.406	9277.81
639.599	9089.4
639.793	9193.84
639.986	8853.88
640.18	9163.12
640.373	8972.66
640.567	8819.07
640.76	8759.67
640.954	8792.44
641.147	8673.66
641.34	8675.71
641.534	8747.39
641.727	8624.51
641.92	8614.27
642.114	8378.75
642.307	8413.57
642.5	8423.81
642.694	8216.96
642.887	8300.93
643.08	8409.47
643.273	8296.83
643.467	8178.05
643.66	8194.43
643.853	8006.02
644.046	7958.92
644.239	7883.14
644.432	7784.84
644.626	8006.02
644.819	7780.75
645.012	7774.6
645.205	7774.6
645.398	7887.24
645.591	7602.57
645.784	7606.67
645.977	7704.97
646.17	7551.37
646.363	7530.89
646.556	7487.89
646.749	7393.68
646.942	7293.33
647.135	7268.75
647.328	7367.06
647.521	7317.9
647.714	7215.51
647.907	7178.64
648.099	7113.11
648.292	7090.58
648.485	7061.91
648.678	7008.66
648.871	6932.89
649.064	6877.59
649.256	6754.71
649.449	6842.78
649.642	6764.95
649.835	6709.66
650.027	6635.93
650.22	6705.56
650.413	6535.58
650.605	6629.79
650.798	6498.72
650.991	6605.21
651.183	6625.69
651.376	6533.53
651.568	6515.1
651.761	6361.5
651.954	6384.03
652.146	6320.54
652.339	6441.37
652.531	6357.41
652.724	6308.26
652.916	6109.6
653.109	6244.77
653.301	6179.23
653.494	6173.09
653.686	6085.03
653.879	6042.02
654.071	6054.31
654.263	5958.05
654.456	5996.96
654.648	5994.92
654.84	5913
655.033	5958.05
655.225	5843.37
655.417	5818.79
655.61	5829.03
655.802	5730.73
655.994	5724.58
656.186	5796.26
656.379	5728.68
656.571	5597.61
656.763	5687.72
656.955	5599.66
657.148	5663.15
657.34	5540.27
657.532	5507.5
657.724	5419.44
657.916	5534.12
658.108	5280.18
658.3	5329.33
658.492	5478.83
658.684	5374.38
658.876	5323.18
659.068	5155.25
659.26	4977.08
659.452	5138.87
659.644	4975.03
659.836	5228.98
660.028	5175.73
660.22	5089.71
660.412	4962.74
660.604	5001.65
660.796	4884.92
660.988	4966.84
661.18	4798.9
661.372	4909.49
661.563	4929.97
661.755	4970.93
661.947	4911.54
662.139	4704.7
662.331	4690.36
662.522	4919.73
662.714	4735.42
662.906	4778.42
663.097	4637.11
663.289	4665.78
663.481	4743.61
663.673	4594.11
663.864	4547
664.056	4393.4
664.247	4704.7
664.439	4483.52
664.631	4436.41
664.822	4493.76
665.014	4407.74
665.205	4450.75
665.397	4377.02
665.588	4401.6
665.78	4315.58
665.971	4315.58
666.163	4229.57
666.354	4204.99
666.546	4329.92
666.737	4270.53
666.929	4200.9
667.12	4114.88
667.311	4049.35
667.503	4071.87
667.694	4047.3
667.885	4065.73
668.077	4157.89
668.268	4088.26
668.459	3996.1
668.651	4131.26
668.842	3926.47
669.033	3916.23
669.224	3987.91
669.416	4012.48
669.607	3860.93
669.798	3815.88
669.989	3944.9
670.18	3924.42
670.371	3811.78
670.563	3822.02
670.754	3844.55
670.945	3740.1
671.136	3852.74
671.327	3725.77
671.518	3803.59
671.709	3631.56
671.9	3563.98
672.091	3617.22
672.282	3639.75
672.473	3697.1
672.664	3635.66
672.855	3746.25
673.046	3516.87
673.237	3629.51
673.428	3623.37
673.619	3674.57
673.809	3590.6
674	3445.2
674.191	3453.39
674.382	3541.45
674.573	3381.71
674.764	3496.39
674.954	3459.53
675.145	3332.56
675.336	3494.35
675.527	3443.15
675.717	3537.35
675.908	3350.99
676.099	3373.52
676.289	3473.87
676.48	3439.05
676.671	3346.89
676.861	3185.1
677.052	3303.89
677.243	3336.65
677.433	3234.25
677.624	3295.69
677.814	3121.62
678.005	3209.68
678.195	3324.37
678.386	3166.67
678.576	3189.2
678.767	3148.24
678.957	3133.9
679.148	3156.43
679.338	3240.4
679.529	3084.75
679.719	3144.14
679.909	3197.39
680.1	3156.43
680.29	3099.09
680.481	3076.56
680.671	3187.15
680.861	2908.63
681.052	3152.34
681.242	3099.09
681.432	3082.7
681.622	3037.65
681.813	2980.31
682.003	2937.3
682.193	3008.98
682.383	3058.13
682.573	3054.03
682.764	3051.99
682.954	3043.79
683.144	2968.02
683.334	2869.72
683.524	2910.68
683.714	2869.72
683.904	2949.59
684.094	2996.69
684.284	2912.72
684.474	2976.21
684.664	2828.76
684.854	2951.63
685.044	2939.35
685.234	2863.57
685.424	2746.84
685.614	2830.8
685.804	2927.06
685.994	2875.86
686.184	2910.68
686.374	2933.2
686.564	2806.23
686.753	2783.7
686.943	2757.08
687.133	2636.25
687.323	2898.39
687.513	2879.96
687.702	2816.47
687.892	2816.47
688.082	2789.85
688.272	2929.11
688.461	2623.96
688.651	2783.7
688.841	2656.73
689.03	2546.14
689.22	2660.82
689.41	2705.88
689.599	2552.28
689.789	2714.07
689.979	2699.73
690.168	2673.11
690.358	2562.52
690.547	2525.66
690.737	2650.58
690.926	2535.9
691.116	2429.4
691.305	2636.25
691.495	2472.41
691.684	2533.85
691.874	2607.58
692.063	2419.16
692.252	2542.04
692.442	2521.56
692.631	2574.81
692.82	2370.01
693.01	2453.98
693.199	2505.18
693.388	2367.96
693.578	2464.22
693.767	2503.13
693.956	2480.6
694.146	2394.59
694.335	2353.63
694.524	2501.08
694.713	2370.01
694.902	2501.08
695.092	2492.89
695.281	2419.16
695.47	2410.97
695.659	2341.34
695.848	2249.18
696.037	2318.81
696.226	2306.52
696.415	2277.85
696.604	2384.35
696.793	2367.96
696.982	2249.18
697.171	2378.2
697.36	2329.05
697.549	2316.76
697.738	2443.74
697.927	2320.86
698.116	2247.13
698.305	2331.1
698.494	2288.09
698.683	2257.37
698.872	2259.42
699.061	2316.76
699.25	2312.67
699.438	2286.05
699.627	2333.15
699.816	2421.21
700.005	2279.9
700.193	2339.29
700.382	2396.64
700.571	2314.72
700.76	2279.9
700.948	2345.44
701.137	2277.85
701.326	2329.05
701.514	2294.24
701.703	2296.28
701.892	2226.65
702.08	2142.69
702.269	2408.92
702.457	2230.75
702.646	2279.9
702.834	2335.2
703.023	2306.52
703.212	2345.44
703.4	2193.89
703.589	2216.41
703.777	2351.58
703.965	2132.45
704.154	2273.76
704.342	2277.85
704.531	2238.94
704.719	2206.17
704.907	2288.09
705.096	2189.79
705.284	2124.26
705.472	2284
705.661	2171.36
705.849	2140.64
706.037	2320.86
706.226	2302.43
706.414	2171.36
706.602	2167.26
706.79	2077.15
706.979	2292.19
707.167	2208.22
707.355	2126.3
707.543	2349.53
707.731	2214.37
707.919	2253.28
708.107	2185.69
708.296	2214.37
708.484	2159.07
708.672	2077.15
708.86	2197.98
709.048	2152.93
709.236	2097.63
709.424	2210.27
709.612	2165.21
709.8	2073.06
709.988	2181.6
710.176	2288.09
710.364	2132.45
710.551	2306.52
710.739	2157.02
710.927	2275.81
711.115	2120.16
711.303	2157.02
711.491	2202.08
711.679	2224.61
711.866	2257.37
712.054	2263.52
712.242	2195.93
712.43	2238.94
712.617	2099.68
712.805	2200.03
712.993	2146.78
713.181	2091.49
713.368	2222.56
713.556	2226.65
713.744	2066.91
713.931	2226.65
714.119	1976.8
714.306	2159.07
714.494	2165.21
714.682	2126.3
714.869	2208.22
715.057	2206.17
715.244	2193.89
715.432	2224.61
715.619	2116.06
715.807	2054.62
715.994	2107.87
716.182	2173.41
716.369	2134.5
716.556	2128.35
716.744	2052.58
716.931	2071.01
717.119	2132.45
717.306	2017.76
717.493	2058.72
717.681	2011.62
717.868	2077.15
718.055	2212.32
718.242	2107.87
718.43	2068.96
718.617	2099.68
718.804	2071.01
718.991	2128.35
719.179	2103.78
719.366	2165.21
719.553	2042.34
719.74	2093.54
719.927	2058.72
720.114	2111.97
720.301	2130.4
720.488	2036.19
720.676	2050.53
720.863	2109.92
721.05	2183.65
721.237	2083.3
721.424	2075.1
721.611	2046.43
721.798	1968.61
721.985	2050.53
722.172	2052.58
722.358	1933.79
722.545	2175.45
722.732	2011.62
722.919	2075.1
723.106	2025.95
723.293	2130.4
723.48	2007.52
723.667	1972.71
723.853	2011.62
724.04	2019.81
724.227	1962.47
724.414	2046.43
724.6	2103.78
724.787	2116.06
724.974	2116.06
725.161	2003.43
725.347	1935.84
725.534	2001.38
725.72	2148.83
725.907	2068.96
726.094	2083.3
726.28	2042.34
726.467	2052.58
726.653	1935.84
726.84	2134.5
727.027	2111.97
727.213	1862.12
727.4	2046.43
727.586	2083.3
727.773	1870.31
727.959	2001.38
728.145	2097.63
728.332	1948.13
728.518	2025.95
728.705	2101.73
728.891	1984.99
729.077	1962.47
729.264	1925.6
729.45	1929.7
729.636	1987.04
729.823	1995.23
730.009	1948.13
730.195	2013.67
730.382	1993.19
730.568	1984.99
730.754	1757.67
730.94	1931.75
731.126	2050.53
731.313	2114.02
731.499	2013.67
731.685	1909.22
731.871	1944.03
732.057	1878.5
732.243	1909.22
732.429	2042.34
732.615	1948.13
732.801	2013.67
732.987	1810.92
733.173	1905.12
733.359	1913.31
733.545	1913.31
733.731	1788.39
733.917	1878.5
734.103	1952.23
734.289	1935.84
734.475	2038.24
734.661	2003.43
734.847	1903.07
735.033	1987.04
735.219	1931.75
735.404	1776.1
735.59	1864.16
735.776	1858.02
735.962	1880.55
736.148	1853.92
736.333	1888.74
736.519	1882.6
736.705	1831.4
736.89	1903.07
737.076	1821.16
737.262	1878.5
737.447	1726.95
737.633	1864.16
737.819	1858.02
738.004	1874.4
738.19	1905.12
738.375	1780.2
738.561	1878.5
738.747	1731.05
738.932	1905.12
739.118	1769.96
739.303	1706.47
739.489	1794.53
739.674	1642.98
739.859	1845.73
740.045	1796.58
740.23	1722.85
740.416	1714.66
740.601	1815.01
740.786	1796.58
740.972	1720.81
741.157	1698.28
741.342	1698.28
741.528	1739.24
741.713	1726.95
741.898	1735.14
742.084	1722.85
742.269	1806.82
742.454	1716.71
742.639	1704.42
742.824	1812.96
743.01	1735.14
743.195	1739.24
743.38	1618.41
743.565	1632.74
743.75	1649.13
743.935	1647.08
744.12	1714.66
744.305	1538.54
744.49	1526.25
744.675	1593.83
744.86	1579.5
745.045	1622.5
745.23	1612.26
745.415	1575.4
745.6	1653.22
745.785	1546.73
745.97	1614.31
746.155	1659.37
746.34	1618.41
746.525	1544.68
746.71	1542.63
746.895	1464.81
747.079	1485.29
747.264	1454.57
747.449	1599.98
747.634	1509.86
747.819	1399.27
748.003	1384.94
748.188	1446.38
748.373	1470.95
748.557	1454.57
748.742	1395.18
748.927	1444.33
749.111	1378.79
749.296	1395.18
749.481	1487.34
749.665	1337.84
749.85	1300.97
750.034	1397.23
750.219	1436.14
750.404	1380.84
750.588	1440.23
750.773	1274.35
750.957	1282.54
751.141	1309.16
751.326	1274.35
751.51	1346.03
751.695	1358.32
751.879	1239.53
752.064	1413.61
752.248	1288.68
752.432	1305.07
752.617	1305.07
752.801	1198.57
752.985	1257.96
753.17	1305.07
753.354	1239.53
753.538	1247.72
753.722	1110.51
753.907	1206.77
754.091	1325.55
754.275	1171.95
754.459	1157.61
754.643	1214.96
754.828	1217.01
755.012	1331.69
755.196	1153.52
755.38	1133.04
755.564	1051.12
755.748	1206.77
755.932	1147.37
756.116	1143.28
756.3	1085.94
756.484	1075.7
756.668	1149.42
756.852	1128.94
757.036	1075.7
757.22	1034.74
757.404	1049.07
757.588	985.58
757.772	1014.26
757.956	1100.27
758.14	1006.06
758.323	1001.97
758.507	952.82
758.691	1012.21
758.875	1092.08
759.059	1001.97
759.242	1030.64
759.426	1018.35
759.61	1051.12
759.794	868.85
759.977	915.95
760.161	1044.98
760.345	895.47
760.528	1055.22
760.712	979.44
760.895	977.39
761.079	1001.97
761.263	872.95
761.446	864.75
761.63	817.65
761.813	946.67
761.997	915.95
762.18	948.72
762.364	905.71
762.547	825.84
762.731	862.71
762.914	815.6
763.098	854.51
763.281	915.95
763.464	856.56
763.648	874.99
763.831	852.47
764.015	838.13
764.198	842.23
764.381	803.32
764.564	817.65
764.748	864.75
764.931	874.99
765.114	788.98
765.297	831.99
765.481	862.71
765.664	862.71
765.847	774.64
766.03	807.41
766.213	776.69
766.397	848.37
766.58	772.6
766.763	764.4
766.946	766.45
767.129	696.82
767.312	741.88
767.495	760.31
767.678	715.25
767.861	778.74
768.044	754.16
768.227	752.12
768.41	733.68
768.593	829.94
768.776	743.92
768.959	821.75
769.142	741.88
769.324	729.59
769.507	743.92
769.69	717.3
769.873	764.4
770.056	877.04
770.239	713.21
770.421	764.4
770.604	774.64
770.787	688.63
770.97	741.88
771.152	725.49
771.335	752.12
771.518	733.68
771.7	748.02
771.883	788.98
772.066	733.68
772.248	713.21
772.431	825.84
772.613	717.3
772.796	639.48
772.978	758.26
773.161	739.83
773.343	731.64
773.526	676.34
773.708	635.38
773.891	649.72
774.073	682.49
774.256	616.95
774.438	772.6
774.621	616.95
774.803	635.38
774.985	627.19
775.168	682.49
775.35	549.37
775.532	627.19
775.715	649.72
775.897	612.85
776.079	662.01
776.261	625.14
776.444	600.57
776.626	573.94
776.808	575.99
776.99	537.08
777.173	592.37
777.355	608.76
777.537	625.14
777.719	594.42
777.901	590.33
778.083	588.28
778.265	578.04
778.447	594.42
778.629	571.9
778.811	545.27
778.993	489.98
779.175	645.62
779.357	494.07
779.539	494.07
779.721	621.05
779.903	537.08
780.085	551.42
780.267	575.99
780.449	522.74
780.631	479.74
780.812	547.32
780.994	535.03
781.176	438.78
781.358	498.17
781.54	512.5
781.721	457.21
781.903	463.35
782.085	449.02
782.267	379.39
782.448	461.3
782.63	504.31
782.812	496.12
782.993	403.96
783.175	498.17
783.357	455.16
783.538	438.78
783.72	485.88
783.901	414.2
784.083	444.92
784.264	414.2
784.446	373.24
784.627	379.39
784.809	334.33
784.99	461.3
785.172	379.39
785.353	428.54
785.535	379.39
785.716	354.81
785.897	371.19
786.079	356.86
786.26	360.95
786.441	381.43
786.623	313.85
786.804	356.86
786.985	358.91
787.167	469.5
787.348	305.66
787.529	408.06
787.71	420.35
787.891	442.87
788.073	387.58
788.254	330.23
788.435	313.85
788.616	342.52
788.797	332.28
788.978	326.14
789.159	317.95
789.34	322.04
789.522	266.75
789.703	412.15
789.884	297.47
790.065	268.8
790.246	358.91
790.427	293.37
790.607	387.58
790.788	387.58
790.969	328.19
791.15	297.47
791.331	354.81
791.512	340.47
791.693	272.89
791.874	215.55
792.054	299.52
792.235	332.28
792.416	258.56
792.597	274.94
792.778	244.22
792.958	324.09
793.139	315.9
793.32	346.62
793.5	231.93
793.681	274.94
793.862	297.47
794.042	305.66
794.223	184.83
794.404	246.27
794.584	238.08
794.765	311.8
794.945	231.93
795.126	244.22
795.306	289.28
795.487	260.6
795.667	266.75
795.848	276.99
796.028	299.52
796.209	283.13
796.389	305.66
796.57	326.14
796.75	190.97
796.93	211.45
797.111	217.6
797.291	203.26
797.471	242.17
797.652	244.22
797.832	215.55
798.012	272.89
798.192	141.82
798.373	190.97
798.553	158.21
798.733	174.59
798.913	166.4
799.093	244.22
799.274	213.5
799.454	268.8
799.634	279.04
799.814	305.66
799.994	182.78
800.174	219.64
800.354	205.31
800.534	174.59
800.714	256.51
800.894	182.78
801.074	215.55
801.254	141.82
801.434	254.46
801.614	203.26
801.794	174.59
801.974	815.6
802.154	162.3
802.334	256.51
802.514	197.12
802.693	154.11
802.873	150.01
803.053	248.32
803.233	201.21
803.413	236.03
803.592	197.12
803.772	158.21
803.952	242.17
804.131	170.49
804.311	215.55
804.491	170.49
804.67	193.02
804.85	244.22
805.03	180.73
805.209	127.49
805.389	176.64
805.568	158.21
805.748	190.97
805.928	176.64
806.107	147.97
806.287	168.45
806.466	211.45
806.646	190.97
806.825	178.69
807.004	199.16
807.184	158.21
807.363	150.01
807.543	219.64
807.722	133.63
807.901	168.45
808.081	248.32
808.26	203.26
808.439	168.45
808.619	154.11
808.798	174.59
808.977	53.76
809.156	84.48
809.336	231.93
809.515	166.4
809.694	166.4
809.873	137.73
810.052	141.82
810.231	180.73
810.411	133.63
810.59	164.35
810.769	141.82
810.948	133.63
811.127	94.72
811.306	129.53
811.485	133.63
811.664	182.78
811.843	141.82
812.022	182.78
812.201	141.82
812.38	174.59
812.559	109.05
812.737	127.49
812.916	88.57
813.095	135.68
813.274	109.05
813.453	64
813.632	119.29
813.811	141.82
813.989	121.34
814.168	135.68
814.347	156.16
814.526	207.36
814.704	135.68
814.883	154.11
815.062	8.7
815.24	176.64
815.419	70.14
815.598	111.1
815.776	45.57
815.955	119.29
816.133	14.85
816.312	70.14
816.49	119.29
816.669	135.68
816.847	174.59
817.026	162.3
817.204	64
817.383	100.86
817.561	43.52
817.74	98.81
817.918	111.1
818.097	92.67
818.275	92.67
818.453	147.97
818.632	107.01
818.81	158.21
818.988	76.29
819.167	94.72
819.345	137.73
819.523	51.71
819.701	84.48
819.879	117.25
820.058	25.09
820.236	109.05
820.414	137.73
820.592	39.42
820.77	127.49
820.948	84.48
821.127	61.95
821.305	176.64
821.483	104.96
821.661	76.29
821.839	109.05
822.017	104.96
822.195	70.14
822.373	156.16
822.551	186.88
822.729	176.64
822.907	78.33
823.085	55.81
823.262	70.14
823.44	72.19
823.618	109.05
823.796	96.77
823.974	39.42
824.152	86.53
824.329	88.57
824.507	51.71
824.685	10.75
824.863	78.33
825.04	18.94
825.218	88.57
825.396	109.05
825.574	12.8
825.751	147.97
825.929	162.3
826.107	70.14
826.284	121.34
826.462	35.33
826.639	94.72
826.817	74.24
826.994	133.63
827.172	55.81
827.349	152.06
827.527	76.29
827.704	64
827.882	131.58
828.059	59.9
828.237	74.24
828.414	127.49
828.591	-24.06
828.769	59.9
828.946	88.57
829.124	84.48
829.301	55.81
829.478	64
829.655	16.9
829.833	47.62
830.01	-58.88
830.187	94.72
830.364	84.48
830.542	20.99
830.719	117.25
830.896	117.25
831.073	84.48
831.25	92.67
831.427	76.29
831.604	84.48
831.782	-5.63
831.959	-22.02
832.136	59.9
832.313	135.68
832.49	-1.54
832.667	31.23
832.844	12.8
833.021	127.49
833.198	37.38
833.374	72.19
833.551	31.23
833.728	72.19
833.905	68.09
834.082	61.95
834.259	64
834.436	18.94
834.612	76.29
834.789	100.86
834.966	84.48
835.143	59.9
835.319	59.9
835.496	76.29
835.673	27.14
835.85	109.05
836.026	70.14
836.203	117.25
836.38	43.52
836.556	104.96
836.733	-9.73
836.909	102.91
837.086	53.76
837.262	57.86
837.439	31.23
837.616	76.29
837.792	18.94
837.968	31.23
838.145	41.47
838.321	47.62
838.498	68.09
838.674	53.76
838.851	76.29
839.027	18.94
839.203	23.04
839.38	76.29
839.556	12.8
839.732	31.23
839.909	98.81
840.085	-1.54
840.261	-32.26
840.437	74.24
840.614	6.66
840.79	55.81
840.966	96.77
841.142	6.66
841.318	18.94
841.494	117.25
841.671	55.81
841.847	51.71
842.023	27.14
842.199	86.53
842.375	117.25
842.551	-17.92
842.727	-5.63
842.903	20.99
843.079	86.53
843.255	125.44
843.431	-19.97
843.607	31.23
843.783	43.52
843.959	92.67
844.134	68.09
844.31	113.15
844.486	84.48
844.662	39.42
844.838	55.81
845.013	80.38
845.189	72.19
845.365	-22.02
845.541	51.71
845.716	20.99
845.892	43.52
846.068	61.95
846.244	-15.87
846.419	78.33
846.595	-32.26
846.77	78.33
846.946	102.91
847.122	2.56
847.297	20.99
847.473	160.25
847.648	-1.54
847.824	51.71
847.999	45.57
848.175	84.48
848.35	72.19
848.526	25.09
848.701	14.85
848.876	51.71
849.052	113.15
849.227	-11.78
849.403	18.94
849.578	47.62
849.753	4.61
849.929	100.86
850.104	18.94
850.279	35.33
850.454	8.7
850.63	104.96
850.805	25.09
850.98	-46.59
851.155	-9.73
851.33	18.94
851.505	0.51
851.681	59.9
851.856	45.57
852.031	16.9
852.206	57.86
852.381	39.42
852.556	31.23
852.731	127.49
852.906	84.48
853.081	-46.59
853.256	78.33
853.431	-46.59
853.606	2.56
853.781	-1.54
853.956	-26.11
854.131	53.76
854.305	39.42
854.48	-13.82
854.655	10.75
854.83	31.23
855.005	-9.73
855.18	10.75
855.354	23.04
855.529	104.96
855.704	92.67
855.879	27.14
856.053	68.09
856.228	37.38
856.403	-5.63
856.577	31.23
856.752	-30.21
856.926	-5.63
857.101	16.9
857.276	96.77
857.45	70.14
857.625	18.94
857.799	100.86
857.974	6.66
858.148	12.8
858.323	72.19
858.497	16.9
858.672	45.57
858.846	0.51
859.02	-56.83
859.195	-3.58
859.369	86.53
859.543	47.62
859.718	39.42
859.892	51.71
860.066	37.38
860.241	6.66
860.415	53.76
860.589	53.76
860.763	27.14
860.938	53.76
861.112	102.91
861.286	-46.59
861.46	20.99
861.634	-34.3
861.808	18.94
861.982	-19.97
862.157	27.14
862.331	-3.58
862.505	31.23
862.679	27.14
862.853	18.94
863.027	-22.02
863.201	72.19
863.375	-15.87
863.549	53.76
863.722	29.18
863.896	88.57
864.07	-22.02
864.244	43.52
864.418	68.09
864.592	29.18
864.766	39.42
864.939	-13.82
865.113	-13.82
865.287	107.01
865.461	-13.82
865.634	-11.78
865.808	8.7
865.982	12.8
866.156	-17.92
866.329	-69.12
866.503	-17.92
866.676	61.95
866.85	-13.82
867.024	2.56
867.197	59.9
867.371	12.8
867.544	51.71
867.718	10.75
867.891	78.33
868.065	-22.02
868.238	64
868.412	31.23
868.585	31.23
868.759	-52.74
868.932	-17.92
869.105	20.99
869.279	20.99
869.452	39.42
869.625	-5.63
869.799	45.57
869.972	-48.64
870.145	-13.82
870.319	-52.74
870.492	39.42
870.665	-34.3
870.838	31.23
871.011	6.66
871.185	29.18
871.358	-54.78
871.531	-9.73
871.704	2.56
871.877	61.95
872.05	-62.98
872.223	18.94
872.396	-13.82
872.569	29.18
872.742	61.95
872.915	47.62
873.088	76.29
873.261	43.52
873.434	84.48
873.607	43.52
873.78	53.76
873.953	-1.54
874.126	47.62
874.299	-13.82
874.471	-71.17
874.644	68.09
874.817	47.62
874.99	49.66
875.163	2.56
875.335	55.81
875.508	14.85
875.681	92.67
875.853	25.09
876.026	18.94
876.199	55.81
876.371	35.33
876.544	-19.97
876.717	-13.82
876.889	31.23
877.062	4.61
877.234	-73.21
877.407	100.86
877.579	-9.73
877.752	18.94
877.924	2.56
878.097	27.14
878.269	10.75
878.442	68.09
878.614	59.9
878.786	86.53
878.959	20.99
879.131	53.76
879.303	-34.3
879.476	10.75
879.648	92.67
879.82	27.14
879.993	55.81
880.165	-54.78
880.337	-15.87
880.509	-34.3
880.681	43.52
880.854	-13.82
881.026	43.52
881.198	115.2
881.37	43.52
881.542	2.56
881.714	-1.54
881.886	-11.78
882.058	47.62
882.23	14.85
882.402	-99.84
882.574	45.57
882.746	-9.73
882.918	88.57
883.09	27.14
883.262	-17.92
883.434	104.96
883.606	-38.4
883.778	76.29
883.95	72.19
884.122	-1.54
884.293	-1.54
884.465	-17.92
884.637	64
884.809	-30.21
884.98	-38.4
885.152	-3.58
885.324	92.67
885.496	29.18
885.667	-22.02
885.839	-19.97
886.011	33.28
886.182	92.67
886.354	88.57
886.525	43.52
886.697	14.85
886.869	4.61
887.04	-36.35
887.212	49.66
887.383	23.04
887.555	-22.02
887.726	33.28
887.897	-13.82
888.069	45.57
888.24	59.9
888.412	59.9
888.583	-46.59
888.754	43.52
888.926	-5.63
889.097	-42.5
889.268	-46.59
889.44	-15.87
889.611	-93.69
889.782	10.75
889.953	72.19
890.125	-5.63
890.296	-30.21
890.467	-44.54
890.638	-1.54
890.809	-54.78
890.98	-34.3
891.151	18.94
891.323	51.71
891.494	-9.73
891.665	59.9
891.836	18.94
892.007	4.61
892.178	-46.59
892.349	37.38
892.52	-83.45
892.691	2.56
892.862	4.61
893.032	-22.02
893.203	-5.63
893.374	59.9
893.545	68.09
893.716	-13.82
893.887	-5.63
894.057	2.56
894.228	37.38
894.399	-44.54
894.57	-34.3
894.74	86.53
894.911	16.9
895.082	-38.4
895.253	-69.12
895.423	12.8
895.594	4.61
895.764	18.94
895.935	-93.69
896.106	-7.68
896.276	-52.74
896.447	-11.78
896.617	12.8
896.788	-9.73
896.958	-46.59
897.129	10.75
897.299	-46.59
897.47	-5.63
897.64	-13.82
897.81	25.09
897.981	70.14
898.151	-87.55
898.322	12.8
898.492	12.8
898.662	-11.78
898.832	-42.5
899.003	-5.63
899.173	35.33
899.343	-15.87
899.513	-71.17
