Data from USB4F104151__69__14-43-20-964.txt Node

Date: Thu Mar 13 14:43:20 EDT 2025
User: louis
Spectrometer: USB4F10415
Trigger mode: 4
Integration Time (sec): 2.000000E-2
Scans to average: 1
Electric dark correction enabled: true
Nonlinearity correction enabled: false
Boxcar width: 0
XAxis mode: Wavelengths
Number of Pixels in Spectrum: 3648
>>>>>Begin Spectral Data<<<<<
178.204	-145.41
178.424	-145.41
178.644	-145.41
178.864	-34.82
179.084	-75.77
179.304	34.82
179.524	-47.1
179.744	12.29
179.964	90.11
180.184	-55.3
180.404	18.43
180.624	8.19
180.844	-38.91
181.064	-34.82
181.283	-4.1
181.503	2.05
181.723	14.34
181.943	-96.25
182.163	51.2
182.383	20.48
182.602	36.86
182.822	30.72
183.042	-38.91
183.262	10.24
183.482	-12.29
183.701	-22.53
183.921	-16.38
184.141	-26.62
184.361	12.29
184.58	67.58
184.8	20.48
185.02	-30.72
185.239	116.73
185.459	40.96
185.679	14.34
185.898	43.01
186.118	67.58
186.338	79.87
186.557	94.21
186.777	59.39
186.997	-45.06
187.216	12.29
187.436	67.58
187.655	20.48
187.875	53.25
188.095	18.43
188.314	34.82
188.534	67.58
188.753	28.67
188.973	18.43
189.192	34.82
189.412	26.62
189.631	32.77
189.851	-88.06
190.07	55.3
190.29	-6.14
190.509	-36.86
190.729	-10.24
190.948	73.73
191.168	96.25
191.387	69.63
191.607	-30.72
191.826	30.72
192.045	88.06
192.265	83.97
192.484	30.72
192.704	-45.06
192.923	-38.91
193.142	92.16
193.362	40.96
193.581	-0
193.8	-10.24
194.02	26.62
194.239	-10.24
194.458	45.06
194.678	-24.58
194.897	18.43
195.116	51.2
195.335	67.58
195.555	61.44
195.774	79.87
195.993	43.01
196.212	-24.58
196.432	26.62
196.651	51.2
196.87	10.24
197.089	149.5
197.308	-24.58
197.528	18.43
197.747	71.68
197.966	2.05
198.185	75.77
198.404	61.44
198.623	-12.29
198.842	106.49
199.062	-2.05
199.281	47.1
199.5	-69.63
199.719	-4.1
199.938	-0
200.157	26.62
200.376	77.82
200.595	45.06
200.814	30.72
201.033	2.05
201.252	71.68
201.471	55.3
201.69	94.21
201.909	98.3
202.128	-22.53
202.347	38.91
202.566	51.2
202.785	18.43
203.004	-0
203.223	38.91
203.442	8.19
203.661	-20.48
203.879	59.39
204.098	94.21
204.317	-12.29
204.536	-43.01
204.755	43.01
204.974	63.49
205.193	28.67
205.411	110.59
205.63	92.16
205.849	-14.34
206.068	-36.86
206.287	83.97
206.505	2.05
206.724	-6.14
206.943	18.43
207.162	24.58
207.381	10.24
207.599	-6.14
207.818	59.39
208.037	10.24
208.255	12.29
208.474	-51.2
208.693	10.24
208.911	67.58
209.13	51.2
209.349	45.06
209.567	38.91
209.786	-2.05
210.005	20.48
210.223	-10.24
210.442	-4.1
210.661	18.43
210.879	81.92
211.098	-86.01
211.316	51.2
211.535	45.06
211.753	-20.48
211.972	40.96
212.191	-34.82
212.409	59.39
212.628	26.62
212.846	-32.77
213.065	59.39
213.283	75.77
213.502	-2.05
213.72	59.39
213.938	-14.34
214.157	16.38
214.375	-30.72
214.594	45.06
214.812	47.1
215.031	53.25
215.249	30.72
215.467	26.62
215.686	47.1
215.904	83.97
216.122	2.05
216.341	51.2
216.559	2.05
216.778	63.49
216.996	22.53
217.214	20.48
217.432	2.05
217.651	75.77
217.869	-20.48
218.087	34.82
218.306	-6.14
218.524	28.67
218.742	-43.01
218.96	34.82
219.179	2.05
219.397	-14.34
219.615	100.35
219.833	75.77
220.051	-10.24
220.27	18.43
220.488	61.44
220.706	34.82
220.924	-63.49
221.142	61.44
221.36	-2.05
221.578	43.01
221.796	18.43
222.015	18.43
222.233	49.15
222.451	59.39
222.669	77.82
222.887	24.58
223.105	83.97
223.323	2.05
223.541	-22.53
223.759	18.43
223.977	18.43
224.195	10.24
224.413	51.2
224.631	36.86
224.849	-14.34
225.067	116.73
225.285	-55.3
225.503	-53.25
225.721	-98.3
225.939	30.72
226.157	57.34
226.375	184.32
226.592	10.24
226.81	8.19
227.028	38.91
227.246	94.21
227.464	51.2
227.682	71.68
227.9	10.24
228.117	32.77
228.335	2.05
228.553	18.43
228.771	67.58
228.989	65.53
229.206	34.82
229.424	43.01
229.642	28.67
229.86	-53.25
230.077	100.35
230.295	8.19
230.513	67.58
230.731	51.2
230.948	47.1
231.166	71.68
231.384	-8.19
231.601	14.34
231.819	81.92
232.037	-49.15
232.254	2.05
232.472	81.92
232.689	88.06
232.907	71.68
233.125	-14.34
233.342	2.05
233.56	53.25
233.777	-10.24
233.995	-6.14
234.213	81.92
234.43	65.53
234.648	28.67
234.865	14.34
235.083	63.49
235.3	-30.72
235.518	-6.14
235.735	65.53
235.953	75.77
236.17	45.06
236.388	116.73
236.605	24.58
236.822	47.1
237.04	4.1
237.257	51.2
237.475	2.05
237.692	47.1
237.909	32.77
238.127	47.1
238.344	108.54
238.562	2.05
238.779	-83.97
238.996	4.1
239.214	106.49
239.431	43.01
239.648	20.48
239.865	75.77
240.083	2.05
240.3	34.82
240.517	-10.24
240.735	67.58
240.952	-30.72
241.169	51.2
241.386	-20.48
241.603	79.87
241.821	34.82
242.038	139.26
242.255	59.39
242.472	-14.34
242.689	47.1
242.907	71.68
243.124	43.01
243.341	6.14
243.558	43.01
243.775	-14.34
243.992	28.67
244.209	30.72
244.426	6.14
244.643	16.38
244.86	67.58
245.078	45.06
245.295	116.73
245.512	-20.48
245.729	-4.1
245.946	73.73
246.163	75.77
246.38	38.91
246.597	-18.43
246.814	-10.24
247.031	-38.91
247.248	-6.14
247.464	20.48
247.681	59.39
247.898	-14.34
248.115	77.82
248.332	30.72
248.549	94.21
248.766	77.82
248.983	4.1
249.2	-57.34
249.417	61.44
249.633	10.24
249.85	57.34
250.067	10.24
250.284	43.01
250.501	83.97
250.717	38.91
250.934	-45.06
251.151	-30.72
251.368	47.1
251.585	-24.58
251.801	75.77
252.018	-53.25
252.235	94.21
252.451	-2.05
252.668	55.3
252.885	30.72
253.102	-45.06
253.318	10.24
253.535	-10.24
253.752	53.25
253.968	-4.1
254.185	28.67
254.401	67.58
254.618	96.25
254.835	-2.05
255.051	53.25
255.268	34.82
255.484	88.06
255.701	-6.14
255.917	59.39
256.134	6.14
256.351	94.21
256.567	-55.3
256.784	-20.48
257	-4.1
257.217	63.49
257.433	104.45
257.65	-6.14
257.866	43.01
258.082	38.91
258.299	67.58
258.515	18.43
258.732	6.14
258.948	-4.1
259.165	-6.14
259.381	18.43
259.597	51.2
259.814	53.25
260.03	75.77
260.246	83.97
260.463	-22.53
260.679	20.48
260.895	65.53
261.112	-2.05
261.328	86.01
261.544	-18.43
261.761	10.24
261.977	-71.68
262.193	-0
262.409	51.2
262.626	96.25
262.842	67.58
263.058	79.87
263.274	32.77
263.49	104.45
263.707	51.2
263.923	20.48
264.139	10.24
264.355	61.44
264.571	-24.58
264.787	8.19
265.004	86.01
265.22	10.24
265.436	-38.91
265.652	-77.82
265.868	116.73
266.084	12.29
266.3	81.92
266.516	2.05
266.732	18.43
266.948	-36.86
267.164	61.44
267.38	16.38
267.596	4.1
267.812	28.67
268.028	92.16
268.244	83.97
268.46	51.2
268.676	75.77
268.892	43.01
269.108	30.72
269.324	81.92
269.54	-0
269.756	45.06
269.972	24.58
270.188	16.38
270.403	-18.43
270.619	-26.62
270.835	77.82
271.051	-34.82
271.267	32.77
271.483	53.25
271.698	26.62
271.914	30.72
272.13	51.2
272.346	-79.87
272.562	45.06
272.777	108.54
272.993	10.24
273.209	28.67
273.425	-20.48
273.64	-4.1
273.856	63.49
274.072	36.86
274.287	108.54
274.503	10.24
274.719	69.63
274.934	-20.48
275.15	2.05
275.366	-28.67
275.581	34.82
275.797	108.54
276.012	-0
276.228	18.43
276.444	18.43
276.659	26.62
276.875	12.29
277.09	12.29
277.306	-47.1
277.521	32.77
277.737	-10.24
277.952	86.01
278.168	2.05
278.383	71.68
278.599	86.01
278.814	51.2
279.03	-6.14
279.245	36.86
279.461	-67.58
279.676	131.07
279.892	-45.06
280.107	-14.34
280.322	-63.49
280.538	55.3
280.753	-30.72
280.969	30.72
281.184	-6.14
281.399	59.39
281.615	20.48
281.83	22.53
282.045	-0
282.26	18.43
282.476	34.82
282.691	4.1
282.906	22.53
283.122	10.24
283.337	18.43
283.552	20.48
283.767	-20.48
283.983	-38.91
284.198	94.21
284.413	94.21
284.628	59.39
284.843	16.38
285.058	-14.34
285.274	73.73
285.489	36.86
285.704	79.87
285.919	-30.72
286.134	55.3
286.349	4.1
286.564	-14.34
286.779	47.1
286.995	-20.48
287.21	47.1
287.425	36.86
287.64	16.38
287.855	26.62
288.07	-28.67
288.285	26.62
288.5	116.73
288.715	86.01
288.93	-6.14
289.145	-14.34
289.36	-18.43
289.575	45.06
289.79	43.01
290.004	20.48
290.219	47.1
290.434	-47.1
290.649	-30.72
290.864	69.63
291.079	26.62
291.294	88.06
291.509	36.86
291.724	30.72
291.938	75.77
292.153	14.34
292.368	83.97
292.583	51.2
292.798	43.01
293.012	30.72
293.227	-65.54
293.442	8.19
293.657	83.97
293.871	22.53
294.086	-10.24
294.301	100.35
294.516	71.68
294.73	83.97
294.945	-12.29
295.16	-20.48
295.374	51.2
295.589	20.48
295.804	18.43
296.018	-32.77
296.233	67.58
296.447	34.82
296.662	14.34
296.877	-12.29
297.091	10.24
297.306	10.24
297.52	-28.67
297.735	4.1
297.949	59.39
298.164	59.39
298.378	-4.1
298.593	40.96
298.807	28.67
299.022	22.53
299.236	51.2
299.451	67.58
299.665	4.1
299.88	4.1
300.094	53.25
300.309	32.77
300.523	10.24
300.737	28.67
300.952	47.1
301.166	30.72
301.381	-34.82
301.595	49.15
301.809	-10.24
302.024	6.14
302.238	49.15
302.452	75.77
302.667	-6.14
302.881	63.49
303.095	98.3
303.309	6.14
303.524	-55.3
303.738	55.3
303.952	20.48
304.166	45.06
304.381	-22.53
304.595	149.5
304.809	38.91
305.023	34.82
305.237	-22.53
305.452	77.82
305.666	63.49
305.88	-2.05
306.094	-4.1
306.308	34.82
306.522	4.1
306.736	59.39
306.95	30.72
307.164	-14.34
307.379	-4.1
307.593	12.29
307.807	10.24
308.021	100.35
308.235	12.29
308.449	34.82
308.663	67.58
308.877	96.25
309.091	-14.34
309.305	75.77
309.519	-43.01
309.733	86.01
309.947	-36.86
310.161	51.2
310.374	92.16
310.588	63.49
310.802	22.53
311.016	-34.82
311.23	61.44
311.444	51.2
311.658	59.39
311.872	61.44
312.085	14.34
312.299	77.82
312.513	75.77
312.727	24.58
312.941	22.53
313.154	45.06
313.368	-4.1
313.582	2.05
313.796	20.48
314.009	-12.29
314.223	79.87
314.437	100.35
314.651	14.34
314.864	2.05
315.078	26.62
315.292	18.43
315.505	12.29
315.719	100.35
315.933	83.97
316.146	22.53
316.36	51.2
316.573	55.3
316.787	30.72
317.001	67.58
317.214	18.43
317.428	-14.34
317.641	-71.68
317.855	-18.43
318.068	-6.14
318.282	36.86
318.495	79.87
318.709	-14.34
318.922	32.77
319.136	133.12
319.349	83.97
319.563	32.77
319.776	96.25
319.99	92.16
320.203	30.72
320.417	34.82
320.63	45.06
320.843	118.78
321.057	71.68
321.27	26.62
321.483	16.38
321.697	106.49
321.91	55.3
322.124	63.49
322.337	10.24
322.55	100.35
322.763	71.68
322.977	-10.24
323.19	12.29
323.403	10.24
323.617	-96.25
323.83	-8.19
324.043	18.43
324.256	59.39
324.469	-14.34
324.683	51.2
324.896	18.43
325.109	88.06
325.322	-79.87
325.535	51.2
325.748	26.62
325.962	-61.44
326.175	100.35
326.388	69.63
326.601	10.24
326.814	43.01
327.027	40.96
327.24	79.87
327.453	-10.24
327.666	12.29
327.879	69.63
328.092	49.15
328.305	79.87
328.518	-2.05
328.731	69.63
328.944	43.01
329.157	79.87
329.37	59.39
329.583	114.69
329.796	104.45
330.009	-36.86
330.222	-2.05
330.435	-38.91
330.648	61.44
330.861	92.16
331.073	-14.34
331.286	-6.14
331.499	36.86
331.712	51.2
331.925	59.39
332.138	4.1
332.35	59.39
332.563	30.72
332.776	69.63
332.989	8.19
333.202	-10.24
333.414	16.38
333.627	131.07
333.84	79.87
334.053	26.62
334.265	38.91
334.478	22.53
334.691	30.72
334.903	20.48
335.116	55.3
335.329	40.96
335.541	30.72
335.754	116.73
335.966	83.97
336.179	34.82
336.392	38.91
336.604	65.53
336.817	8.19
337.029	26.62
337.242	12.29
337.454	43.01
337.667	4.1
337.88	4.1
338.092	-28.67
338.305	67.58
338.517	26.62
338.729	34.82
338.942	4.1
339.154	10.24
339.367	36.86
339.579	96.25
339.792	18.43
340.004	43.01
340.217	-2.05
340.429	100.35
340.641	-12.29
340.854	10.24
341.066	59.39
341.278	59.39
341.491	124.93
341.703	38.91
341.915	-20.48
342.128	26.62
342.34	12.29
342.552	45.06
342.764	18.43
342.977	-20.48
343.189	45.06
343.401	34.82
343.613	53.25
343.826	-10.24
344.038	20.48
344.25	10.24
344.462	-12.29
344.674	2.05
344.886	26.62
345.099	55.3
345.311	-18.43
345.523	-2.05
345.735	34.82
345.947	2.05
346.159	94.21
346.371	16.38
346.583	88.06
346.795	43.01
347.007	10.24
347.219	-47.1
347.431	16.38
347.643	61.44
347.855	-43.01
348.067	116.73
348.279	-28.67
348.491	14.34
348.703	-24.58
348.915	32.77
349.127	26.62
349.339	6.14
349.551	-26.62
349.763	34.82
349.975	118.78
350.187	59.39
350.399	53.25
350.61	38.91
350.822	12.29
351.034	-18.43
351.246	100.35
351.458	36.86
351.669	10.24
351.881	75.77
352.093	-22.53
352.305	69.63
352.517	45.06
352.728	69.63
352.94	71.68
353.152	100.35
353.363	75.77
353.575	53.25
353.787	75.77
353.999	26.62
354.21	135.17
354.422	83.97
354.633	30.72
354.845	10.24
355.057	75.77
355.268	10.24
355.48	-6.14
355.692	69.63
355.903	69.63
356.115	28.67
356.326	-12.29
356.538	104.45
356.749	4.1
356.961	92.16
357.172	34.82
357.384	28.67
357.595	34.82
357.807	55.3
358.018	12.29
358.23	43.01
358.441	59.39
358.653	116.73
358.864	36.86
359.075	-12.29
359.287	53.25
359.498	139.26
359.709	10.24
359.921	10.24
360.132	43.01
360.344	112.64
360.555	43.01
360.766	18.43
360.977	45.06
361.189	18.43
361.4	71.68
361.611	51.2
361.823	75.77
362.034	73.73
362.245	-18.43
362.456	2.05
362.667	86.01
362.879	81.92
363.09	61.44
363.301	14.34
363.512	43.01
363.723	-14.34
363.935	51.2
364.146	81.92
364.357	34.82
364.568	77.82
364.779	-30.72
364.99	75.77
365.201	38.91
365.412	63.49
365.623	-4.1
365.834	-30.72
366.045	88.06
366.256	47.1
366.467	100.35
366.678	53.25
366.889	-2.05
367.1	102.4
367.311	40.96
367.522	124.93
367.733	88.06
367.944	40.96
368.155	94.21
368.366	10.24
368.577	59.39
368.788	43.01
368.999	26.62
369.209	75.77
369.42	30.72
369.631	92.16
369.842	-20.48
370.053	83.97
370.264	55.3
370.474	-86.01
370.685	71.68
370.896	16.38
371.107	65.53
371.317	38.91
371.528	-2.05
371.739	53.25
371.95	79.87
372.16	22.53
372.371	88.06
372.582	118.78
372.792	34.82
373.003	59.39
373.214	-32.77
373.424	36.86
373.635	20.48
373.846	120.83
374.056	57.34
374.267	83.97
374.477	92.16
374.688	22.53
374.898	92.16
375.109	-8.19
375.319	2.05
375.53	167.93
375.74	133.12
375.951	34.82
376.161	20.48
376.372	69.63
376.582	22.53
376.793	34.82
377.003	43.01
377.214	-4.1
377.424	75.77
377.635	124.93
377.845	10.24
378.055	51.2
378.266	-22.53
378.476	59.39
378.686	88.06
378.897	18.43
379.107	51.2
379.317	53.25
379.528	2.05
379.738	18.43
379.948	57.34
380.158	26.62
380.369	108.54
380.579	34.82
380.789	10.24
380.999	65.53
381.21	65.53
381.42	100.35
381.63	26.62
381.84	88.06
382.05	63.49
382.261	98.3
382.471	67.58
382.681	8.19
382.891	59.39
383.101	51.2
383.311	16.38
383.521	83.97
383.731	118.78
383.941	165.89
384.151	18.43
384.361	34.82
384.571	57.34
384.781	47.1
384.991	131.07
385.201	108.54
385.411	86.01
385.621	165.89
385.831	16.38
386.041	94.21
386.251	-28.67
386.461	-0
386.671	-22.53
386.881	12.29
387.091	67.58
387.301	45.06
387.511	43.01
387.72	18.43
387.93	10.24
388.14	-8.19
388.35	94.21
388.56	14.34
388.769	112.64
388.979	-6.14
389.189	55.3
389.399	30.72
389.609	110.59
389.818	69.63
390.028	83.97
390.238	32.77
390.447	43.01
390.657	75.77
390.867	120.83
391.076	-45.06
391.286	4.1
391.496	79.87
391.705	43.01
391.915	63.49
392.125	59.39
392.334	43.01
392.544	86.01
392.753	43.01
392.963	-53.25
393.172	61.44
393.382	53.25
393.591	100.35
393.801	94.21
394.01	133.12
394.22	14.34
394.429	34.82
394.639	28.67
394.848	86.01
395.058	61.44
395.267	98.3
395.477	92.16
395.686	124.93
395.895	118.78
396.105	178.17
396.314	55.3
396.524	83.97
396.733	10.24
396.942	174.08
397.152	83.97
397.361	67.58
397.57	69.63
397.78	79.87
397.989	86.01
398.198	135.17
398.407	149.5
398.617	43.01
398.826	2.05
399.035	133.12
399.244	34.82
399.453	151.55
399.663	116.73
399.872	67.58
400.081	75.77
400.29	116.73
400.499	79.87
400.708	61.44
400.917	34.82
401.127	-18.43
401.336	100.35
401.545	88.06
401.754	174.08
401.963	129.02
402.172	34.82
402.381	118.78
402.59	94.21
402.799	141.31
403.008	120.83
403.217	159.74
403.426	34.82
403.635	100.35
403.844	100.35
404.053	104.45
404.262	63.49
404.471	118.78
404.68	135.17
404.888	94.21
405.097	92.16
405.306	182.27
405.515	124.93
405.724	192.51
405.933	118.78
406.142	190.46
406.35	98.3
406.559	139.26
406.768	145.41
406.977	182.27
407.185	192.51
407.394	118.78
407.603	157.69
407.812	165.89
408.02	157.69
408.229	174.08
408.438	231.42
408.646	122.88
408.855	198.65
409.064	180.22
409.272	245.76
409.481	280.57
409.69	251.9
409.898	229.37
410.107	233.47
410.315	221.18
410.524	210.94
410.733	333.82
410.941	149.5
411.15	305.15
411.358	286.72
411.567	305.15
411.775	280.57
411.984	403.45
412.192	342.01
412.401	346.11
412.609	393.21
412.818	458.74
413.026	380.92
413.234	411.64
413.443	503.8
413.651	409.59
413.86	417.79
414.068	497.66
414.276	387.07
414.485	509.94
414.693	471.03
414.901	567.29
415.11	477.18
415.318	495.61
415.526	579.58
415.734	550.9
415.943	624.63
416.151	673.78
416.359	634.87
416.567	659.45
416.776	727.03
416.984	741.36
417.192	849.91
417.4	749.56
417.608	675.83
417.817	698.36
418.025	739.32
418.233	950.26
418.441	817.14
418.649	829.43
418.857	1011.7
419.065	946.16
419.273	1066.99
419.481	1077.23
419.689	1083.38
419.897	1167.34
420.105	1066.99
420.313	1144.81
420.521	1222.64
420.729	1234.93
420.937	1124.33
421.145	1290.22
421.353	1402.86
421.561	1501.16
421.769	1462.25
421.977	1509.35
422.185	1533.93
422.393	1685.48
422.601	1726.44
422.809	1695.72
423.017	1660.9
423.224	1791.97
423.432	1918.95
423.64	1902.56
423.848	1980.39
424.056	2013.15
424.263	2150.37
424.471	2138.08
424.679	2115.55
424.887	2344.92
425.094	2336.73
425.302	2336.73
425.51	2490.33
425.718	2590.68
425.925	2664.41
426.133	2729.94
426.341	2822.1
426.548	2879.44
426.756	2912.21
426.964	2942.93
427.171	3041.23
427.379	3125.2
427.586	3291.09
427.794	3317.71
428.001	3473.35
428.209	3751.88
428.417	3641.29
428.624	3803.08
428.832	4036.55
429.039	3770.31
429.247	3770.31
429.454	4315.07
429.662	4591.55
429.869	4345.79
430.076	4442.04
430.284	4345.79
430.491	4532.15
430.699	4794.29
430.906	4771.77
431.114	4896.69
431.321	5087.15
431.528	5064.63
431.736	5459.88
431.943	5715.88
432.15	5738.41
432.358	5719.98
432.565	6084.52
432.772	5924.77
432.979	6305.7
433.187	6416.29
433.394	6469.53
433.601	6772.63
433.808	6883.22
434.016	6825.88
434.223	7165.84
434.43	7444.37
434.637	7391.12
434.844	7755.66
435.052	7927.69
435.259	7942.02
435.466	8058.76
435.673	7915.4
435.88	8392.58
436.087	8925.05
436.294	8828.79
436.501	8521.6
436.708	8845.18
436.915	9103.22
437.122	9602.93
437.329	9312.11
437.537	9693.04
437.743	9989.99
437.95	9828.2
438.157	10364.77
438.364	10749.79
438.571	10776.41
438.778	10753.88
438.985	11581.26
439.192	11118.42
439.399	11849.55
439.606	11380.56
439.813	12134.21
440.02	12756.8
440.227	12355.4
440.433	12459.84
440.64	13008.7
440.847	12861.24
441.054	13012.79
441.261	14028.59
441.467	13762.35
441.674	13930.28
441.881	14386.98
442.088	14550.82
442.294	14186.28
442.501	14886.68
442.708	15107.87
442.914	15722.26
443.121	16205.58
443.328	15884.05
443.534	17043.2
443.741	16475.91
443.948	16197.38
444.154	17581.81
444.361	17352.44
444.568	17401.59
444.774	17315.58
444.981	17608.44
445.187	18269.93
445.394	18839.26
445.6	18749.15
445.807	20442.82
446.013	19670.74
446.22	20029.13
446.426	20543.17
446.633	20862.66
446.839	21788.34
447.046	20942.53
447.252	21958.32
447.459	22046.38
447.665	21673.65
447.871	22503.08
448.078	23826.07
448.284	22640.29
448.491	23426.71
448.697	24116.88
448.903	24604.3
449.11	24688.26
449.316	24235.66
449.522	24747.65
449.728	25382.52
449.935	25849.46
450.141	25833.08
450.347	26127.99
450.553	25110.14
450.76	25839.22
450.966	26818.15
451.172	26703.46
451.378	27158.11
451.584	26627.69
451.791	27262.56
451.997	26891.88
452.203	27498.08
452.409	27934.29
452.615	27848.28
452.821	26480.24
453.027	26386.03
453.233	27813.46
453.44	26566.25
453.646	26662.51
453.852	27051.62
454.058	27594.33
454.264	26912.36
454.47	27455.07
454.676	26513
454.882	27496.03
455.088	25147.01
455.294	25454.2
455.5	26269.3
455.705	26447.47
455.911	25196.16
456.117	24831.62
456.323	24534.67
456.529	23113.38
456.735	24661.64
456.941	23836.31
457.147	23318.17
457.352	22769.32
457.558	22496.94
457.764	22703.78
457.97	22267.56
458.176	21518.01
458.381	21630.65
458.587	20653.76
458.793	20639.43
458.999	19662.55
459.204	21102.27
459.41	20426.44
459.616	19009.25
459.821	19144.41
460.027	19033.82
460.233	18736.87
460.438	17702.64
460.644	18163.43
460.85	17051.39
461.055	16723.71
461.261	17100.54
461.466	15652.63
461.672	15101.72
461.878	16195.34
462.083	15064.86
462.289	14909.21
462.494	14587.68
462.7	14059.31
462.905	13348.66
463.111	14260.01
463.316	13821.74
463.522	13924.14
463.727	13879.08
463.932	13838.12
464.138	13723.44
464.343	13621.04
464.549	13354.8
464.754	13772.59
464.959	13850.41
465.165	13510.45
465.37	12908.35
465.575	12715.84
465.781	13242.17
465.986	13188.92
466.191	12816.19
466.397	12711.74
466.602	11720.53
466.807	12590.91
467.012	12300.1
467.218	12300.1
467.423	12289.86
467.628	12214.09
467.833	12482.37
468.038	12023.62
468.244	11755.34
468.449	12359.49
468.654	11784.01
468.859	11910.99
469.064	12001.1
469.269	11263.83
469.474	11515.73
469.679	11773.77
469.885	11077.46
470.09	11462.48
470.295	11581.26
470.5	11186.01
470.705	11159.38
470.91	10897.24
471.115	10788.7
471.32	11276.12
471.525	10921.82
471.73	10831.71
471.935	10659.68
472.139	10282.85
472.344	10438.5
472.549	10446.69
472.754	10372.96
472.959	10008.42
473.164	9701.23
473.369	9777
473.574	9946.98
473.778	9869.16
473.983	9762.67
474.188	9836.39
474.393	9377.65
474.598	9529.2
474.802	9324.4
475.007	9340.79
475.212	9256.82
475.417	8804.22
475.621	9123.7
475.826	9013.11
476.031	8884.09
476.235	8769.4
476.44	8603.52
476.645	8689.53
476.849	8488.83
477.054	8488.83
477.259	8660.86
477.463	8306.56
477.668	8277.89
477.872	8292.23
478.077	8173.44
478.282	7931.78
478.486	7903.11
478.691	7769.99
478.895	7696.27
479.1	7663.5
479.304	7872.39
479.509	7534.48
479.713	7702.41
479.918	7446.41
480.122	7319.44
480.326	7557
480.531	7573.39
480.735	7317.39
480.94	7382.93
481.144	7632.78
481.348	7233.43
481.553	7274.38
481.757	6950.81
481.961	7180.18
482.166	7477.13
482.37	7128.98
482.574	7157.65
482.778	7092.12
482.983	7243.67
483.187	7235.47
483.391	7145.36
483.595	7139.22
483.8	7163.79
484.004	7206.8
484.208	7196.56
484.412	7270.29
484.616	7161.75
484.821	7214.99
485.025	7139.22
485.229	7221.14
485.433	7067.54
485.637	7212.95
485.841	7286.67
486.045	7014.29
486.249	7108.5
486.453	7165.84
486.657	7145.36
486.861	7169.94
487.065	6997.91
487.269	7085.97
487.473	7024.53
487.677	7190.42
487.881	7333.78
488.085	7092.12
488.289	7133.08
488.493	7104.4
488.697	7186.32
488.901	7045.01
489.105	7249.81
489.309	7229.33
489.512	7243.67
489.716	7309.2
489.92	7243.67
490.124	7292.82
490.328	7337.87
490.531	7288.72
490.735	7180.18
490.939	7196.56
491.143	7352.21
491.346	7182.23
491.55	7575.44
491.754	7481.23
491.958	7387.02
492.161	7505.81
492.365	7446.41
492.569	7335.82
492.772	7483.28
492.976	7577.48
493.18	7667.59
493.383	7819.14
493.587	7813
493.79	7964.55
493.994	7831.43
494.197	7778.19
494.401	7757.71
494.605	7853.96
494.808	8054.66
495.012	8157.06
495.215	8122.24
495.419	8136.58
495.622	8187.78
495.825	8273.79
496.029	8419.2
496.232	8454.01
496.436	8384.38
496.639	8640.38
496.843	8540.03
497.046	8677.24
497.249	8892.28
497.453	8943.48
497.656	9099.13
497.859	9000.82
498.063	9066.36
498.266	9316.21
498.469	9265.01
498.673	9482.1
498.876	9469.81
499.079	9502.58
499.282	9510.77
499.485	9973.61
499.689	9893.74
499.892	9957.22
500.095	10078.05
500.298	10364.77
500.501	10151.78
500.705	10563.42
500.908	10590.05
501.111	10743.64
501.314	10592.09
501.517	10938.2
501.72	11134.81
501.923	10833.75
502.126	11261.78
502.329	11353.94
502.532	11501.39
502.735	11667.28
502.938	11882.31
503.141	11749.2
503.344	12007.24
503.547	11956.04
503.75	12181.32
503.953	12343.11
504.156	12463.94
504.359	12674.88
504.562	12719.93
504.765	13068.09
504.968	13070.14
505.17	13301.56
505.373	12994.36
505.576	13485.87
505.779	13657.9
505.982	13657.9
506.185	13807.41
506.387	13838.12
506.59	14090.02
506.793	14739.23
506.996	14217
507.198	14702.37
507.401	14532.39
507.604	14862.11
507.807	15152.92
508.009	15245.08
508.212	15392.53
508.415	15582.99
508.617	15757.07
508.82	15433.49
509.022	15525.65
509.225	16295.69
509.428	16348.93
509.63	16512.77
509.833	16338.69
510.035	17000.19
510.238	16938.75
510.44	17157.88
510.643	17266.42
510.845	17426.17
511.048	17260.28
511.25	17833.71
511.453	18058.99
511.655	18546.4
511.858	18188.01
512.06	18368.23
512.262	18720.48
512.465	18679.52
512.667	18931.42
512.87	19201.75
513.072	19082.97
513.274	19584.73
513.477	19797.71
513.679	19893.97
513.881	19998.41
514.084	20498.12
514.286	20451.02
514.488	20596.42
514.69	21442.23
514.893	20803.27
515.095	21319.35
515.297	21573.3
515.499	21313.21
515.701	21814.96
515.904	22144.69
516.106	22070.96
516.308	22365.87
516.51	22570.66
516.712	22730.41
516.914	22826.66
517.116	23211.68
517.318	23500.44
517.52	23699.09
517.722	23525.02
517.925	23697.05
518.127	24213.13
518.329	24303.25
518.531	23920.27
518.733	24882.82
518.935	25210.5
519.136	25106.05
519.338	25273.98
519.54	25615.99
519.742	25659
519.944	25994.87
520.146	26330.73
520.348	26396.27
520.55	26408.56
520.752	26426.99
520.954	27004.52
521.155	26871.4
521.357	27162.21
521.559	27524.7
521.761	27872.85
521.963	27702.87
522.164	27731.54
522.366	28149.33
522.568	28653.13
522.77	28345.94
522.971	28866.12
523.173	28591.69
523.375	29027.91
523.576	29156.93
523.778	29285.95
523.98	29400.64
524.181	29990.45
524.383	29742.65
524.584	30359.09
524.786	30277.17
524.988	30109.24
525.189	30903.85
525.391	30457.39
525.592	30432.82
525.794	30836.27
525.995	30969.38
526.197	30723.63
526.398	31192.61
526.6	30981.67
526.801	31421.98
527.003	31712.8
527.204	31614.49
527.406	32372.24
527.607	31903.26
527.808	32067.09
528.01	31542.81
528.211	32063
528.412	32409.11
528.614	32523.79
528.815	32501.26
529.016	32964.11
529.218	32421.39
529.419	32605.71
529.62	32775.69
529.822	32663.05
530.023	32984.58
530.224	32642.57
530.425	32888.33
530.626	32624.14
530.828	32677.39
531.029	33316.36
531.23	33191.43
531.431	33332.74
531.632	33576.45
531.833	33203.72
532.035	33512.96
532.236	33449.47
532.437	33809.92
532.638	32908.81
532.839	33377.79
533.04	33269.25
533.241	33324.55
533.442	33834.49
533.643	33635.84
533.844	33809.92
534.045	33519.1
534.246	33455.62
534.447	33570.3
534.648	33486.34
534.849	33541.63
535.05	33588.74
535.251	33533.44
535.451	33758.72
535.652	33959.42
535.853	33715.71
536.054	33654.27
536.255	34078.2
536.456	33562.11
536.657	34178.55
536.857	33721.85
537.058	33773.05
537.259	34024.95
537.46	33775.1
537.66	33555.97
537.861	34090.49
538.062	33695.23
538.263	33619.46
538.463	33891.83
538.664	33664.51
538.865	33672.7
539.065	33889.79
539.266	33703.42
539.466	34031.1
539.667	33443.33
539.868	34076.15
540.068	33871.36
540.269	33261.06
540.469	33777.15
540.67	33428.99
540.87	33777.15
541.071	33691.13
541.271	33684.99
541.472	33607.17
541.672	33701.37
541.873	33515.01
542.073	33164.81
542.274	33539.58
542.474	33433.09
542.675	33560.06
542.875	33832.44
543.075	33527.3
543.276	33076.74
543.476	33762.81
543.676	33312.26
543.877	33699.33
544.077	33658.37
544.277	33428.99
544.478	33334.79
544.678	33676.8
544.878	33543.68
545.078	33248.77
545.279	33365.51
545.479	33648.13
545.679	33412.61
545.879	33361.41
546.079	33510.91
546.28	33168.9
546.48	32921.1
546.68	33627.65
546.88	33662.46
547.08	33316.36
547.28	33236.48
547.48	33318.4
547.68	33336.84
547.88	33205.77
548.081	33285.64
548.281	33089.03
548.481	32955.91
548.681	33627.65
548.881	33142.28
549.081	33181.19
549.28	32863.75
549.48	33441.28
549.68	33234.44
549.88	33326.6
550.08	33357.32
550.28	33132.04
550.48	32933.39
550.68	33621.5
550.88	33105.41
551.08	33181.19
551.279	33238.53
551.479	33166.85
551.679	33121.8
551.879	32843.27
552.079	32775.69
552.278	32800.27
552.478	32830.99
552.678	33310.21
552.878	32859.66
553.077	33043.98
553.277	32761.36
553.477	33447.43
553.676	32802.32
553.876	32853.51
554.076	32622.09
554.275	32642.57
554.475	32472.59
554.674	33150.47
554.874	33136.13
555.074	32554.51
555.273	33093.13
555.473	32859.66
555.672	32970.25
555.872	32747.02
556.071	32597.52
556.271	32828.94
556.47	32677.39
556.67	32509.46
556.869	32523.79
557.068	32611.85
557.268	32300.56
557.467	32351.76
557.667	32038.42
557.866	32726.54
558.065	32427.54
558.265	32144.92
558.464	31956.5
558.663	32577.04
558.863	31911.45
559.062	32095.77
559.261	31792.67
559.461	32036.38
559.66	31641.12
559.859	31997.46
560.058	31753.76
560.258	31698.46
560.457	31487.52
560.656	31942.17
560.855	31436.32
561.054	31497.76
561.253	31514.14
561.453	31608.35
561.652	31548.96
561.851	31766.04
562.05	31190.56
562.249	31051.3
562.448	31481.38
562.647	31508
562.846	31213.09
563.045	31426.08
563.244	31057.45
563.443	31575.58
563.642	30588.46
563.841	30948.9
564.04	30705.2
564.239	30979.62
564.438	30590.51
564.637	30680.62
564.836	30803.5
565.035	30676.52
565.234	30895.66
565.432	30287.41
565.631	30717.48
565.83	30168.63
566.029	30047.8
566.228	30037.56
566.427	30236.21
566.625	30322.23
566.824	29943.35
567.023	30410.29
567.222	29570.62
567.42	30412.34
567.619	29965.88
567.818	29984.31
568.016	30164.53
568.215	30035.51
568.414	29791.8
568.612	29967.93
568.811	29652.54
569.01	29701.69
569.208	29277.76
569.407	29474.37
569.605	29253.19
569.804	29640.25
570.002	29134.4
570.201	29331.01
570.4	28939.85
570.598	29288
570.797	28794.44
570.995	28986.95
571.193	28743.24
571.392	29140.55
571.59	28415.57
571.789	28421.71
571.987	28536.4
572.186	28708.43
572.384	28014.16
572.582	28530.25
572.781	28409.42
572.979	28081.75
573.177	28042.84
573.376	28386.89
573.574	27889.24
573.772	28038.74
573.971	27803.22
574.169	27663.96
574.367	27506.27
574.565	27635.29
574.763	27276.9
574.962	27469.4
575.16	26840.68
575.358	27448.93
575.556	27176.55
575.754	27524.7
575.952	27029.09
576.151	27436.64
576.349	27016.8
576.547	27119.2
576.745	27106.91
576.943	27338.33
577.141	26871.4
577.339	27014.76
577.537	26875.49
577.735	26981.99
577.933	26271.34
578.131	26541.67
578.329	26707.56
578.527	26418.8
578.725	26332.78
578.923	26408.56
579.121	25992.82
579.319	26115.7
579.516	26179.18
579.714	26060.4
579.912	26021.49
580.11	25777.78
580.308	25853.56
580.506	25835.13
580.704	25661.05
580.901	25489.02
581.099	25970.29
581.297	25403
581.495	25572.99
581.692	25468.54
581.89	25124.48
582.088	25161.34
582.285	25128.58
582.483	25421.44
582.681	25030.27
582.878	25050.75
583.076	24817.29
583.274	24895.11
583.471	24866.44
583.669	24745.61
583.866	24493.71
584.064	24884.87
584.262	24456.84
584.459	24811.14
584.657	24303.25
584.854	24503.95
585.052	23869.08
585.249	24129.17
585.447	24305.29
585.644	23907.99
585.841	24172.18
586.039	24549
586.236	23793.3
586.434	24043.15
586.631	23826.07
586.828	23772.82
587.026	23670.42
587.223	23774.87
587.42	23479.96
587.618	23549.59
587.815	23320.22
588.012	23287.45
588.21	23135.9
588.407	23336.6
588.604	23125.66
588.801	23084.7
588.999	22982.31
589.196	22929.06
589.393	22886.05
589.59	22879.91
589.787	22705.83
589.984	22509.22
590.182	22425.26
590.379	22736.55
590.576	22585
590.773	22539.94
590.97	22357.67
591.167	22345.39
591.364	22206.13
591.561	22351.53
591.758	22015.66
591.955	22054.58
592.152	22159.02
592.349	21896.88
592.546	21980.85
592.743	22083.25
592.94	21595.83
593.137	21636.79
593.334	21860.02
593.531	21018.3
593.727	21472.95
593.924	21685.94
594.121	21294.78
594.318	21100.22
594.515	21042.88
594.712	21479.1
594.908	21087.93
595.105	21073.6
595.302	20909.76
595.499	20958.91
595.696	21026.5
595.892	20795.07
596.089	20930.24
596.286	20768.45
596.482	20498.12
596.679	20371.15
596.876	20676.29
597.072	20504.26
597.269	20541.13
597.466	20195.02
597.662	20037.33
597.859	20219.6
598.055	20178.64
598.252	20113.1
598.448	20164.3
598.645	19812.05
598.841	19842.77
599.038	19936.98
599.234	19898.06
599.431	19488.47
599.627	19703.51
599.824	19615.44
600.02	19611.35
600.217	19666.64
600.413	19476.18
600.609	19246.81
600.806	19304.15
601.002	19220.19
601.198	18999.01
601.395	19146.46
601.591	19353.3
601.787	18984.67
601.984	18800.35
602.18	18812.64
602.376	18671.33
602.572	18646.76
602.769	18609.89
602.965	18798.31
603.161	18898.66
603.357	18546.4
603.553	18570.98
603.75	18593.51
603.946	18288.36
604.142	18562.79
604.338	18220.78
604.534	18149.1
604.73	17987.31
604.926	18026.22
605.122	17884.91
605.318	17960.69
605.514	17950.45
605.71	17551.09
605.906	17708.79
606.102	17825.52
606.298	17901.29
606.494	17688.31
606.69	17850.1
606.886	17759.98
607.082	17532.66
607.278	17551.09
607.474	17438.45
607.67	17647.35
607.866	17319.67
608.062	17610.48
608.257	17450.74
608.453	17340.15
608.649	17364.73
608.845	17262.33
609.041	17213.18
609.236	16985.85
609.432	17192.7
609.628	16971.52
609.824	17133.31
610.019	16903.93
610.215	16979.71
610.411	17157.88
610.606	17012.48
610.802	16936.7
610.998	16709.38
611.193	16705.28
611.389	16656.13
611.584	16541.44
611.78	16688.9
611.976	16781.06
612.171	16449.28
612.367	16559.88
612.562	16451.33
612.758	16371.46
612.953	16185.1
613.149	16463.62
613.344	16021.26
613.539	16480
613.735	16353.03
613.93	16422.66
614.126	16297.74
614.321	16369.41
614.517	16387.85
614.712	15972.11
614.907	16099.08
615.103	16172.81
615.298	16254.73
615.493	16101.13
615.688	16168.71
615.884	16285.45
616.079	15574.8
616.274	16056.07
616.47	15582.99
616.665	15697.68
616.86	15693.58
617.055	15832.85
617.25	15861.52
617.445	15798.03
617.641	15333.14
617.836	15691.54
618.031	15429.4
618.226	15353.62
618.421	15456.02
618.616	15644.43
618.811	15249.18
619.006	15388.44
619.201	15353.62
619.396	15154.97
619.591	15111.96
619.786	15138.59
619.981	14837.53
620.176	15068.95
620.371	14681.89
620.566	14901.02
620.761	14788.38
620.956	14995.23
621.151	14624.54
621.346	14661.41
621.541	14597.92
621.735	14489.38
621.93	14145.32
622.125	14186.28
622.32	14026.54
622.515	14239.53
622.709	14092.07
622.904	14040.87
623.099	13852.46
623.294	13901.61
623.488	13559.6
623.683	13766.45
623.878	13621.04
624.072	13381.43
624.267	13383.48
624.462	13485.87
624.656	13150.01
624.851	13299.51
625.046	13059.9
625.24	13297.46
625.435	13098.81
625.629	13156.15
625.824	13086.52
626.018	13063.99
626.213	12621.63
626.407	12693.31
626.602	12609.34
626.796	12689.21
626.991	12633.92
627.185	12355.4
627.38	12234.57
627.574	12379.97
627.768	12310.34
627.963	12242.76
628.157	11958.09
628.352	12218.18
628.546	11818.83
628.74	12363.59
628.935	11870.03
629.129	11956.04
629.323	11802.44
629.517	11728.72
629.712	11618.13
629.906	11771.72
630.1	11337.56
630.294	11667.28
630.489	11415.38
630.683	11548.5
630.877	11104.09
631.071	11011.93
631.265	11263.83
631.459	11126.61
631.653	11126.61
631.848	10839.9
632.042	11056.98
632.236	10913.63
632.43	10815.32
632.624	10831.71
632.818	10643.29
633.012	10631.01
633.206	10540.9
633.4	10516.32
633.594	10340.19
633.788	10544.99
633.982	10317.67
634.176	10501.98
634.369	10317.67
634.563	10233.7
634.757	10274.66
634.951	10291.04
635.145	10088.29
635.339	10153.83
635.533	9989.99
635.726	9963.37
635.92	9813.87
636.114	9820.01
636.308	9811.82
636.501	9799.53
636.695	9770.86
636.889	9631.6
637.083	9645.93
637.276	9303.92
637.47	9375.6
637.664	9385.84
637.857	9273.2
638.051	9316.21
638.244	9297.78
638.438	9146.23
638.632	9234.29
638.825	9230.2
639.019	9078.65
639.212	8916.86
639.406	8904.57
639.599	9152.37
639.793	9054.07
639.986	8640.38
640.18	8793.98
640.373	8732.54
640.567	8650.62
640.76	8482.69
640.954	8603.52
641.147	8527.74
641.34	8607.61
641.534	8552.32
641.727	8650.62
641.92	8370.05
642.114	8392.58
642.307	8394.62
642.5	8318.85
642.694	8138.63
642.887	8103.81
643.08	8042.37
643.273	7970.69
643.467	8015.75
643.66	7886.73
643.853	7989.13
644.046	7976.84
644.239	7980.93
644.432	7976.84
644.626	7786.38
644.819	7665.55
645.012	7677.83
645.205	7714.7
645.398	7616.4
645.591	7436.17
645.784	7376.78
645.977	7358.35
646.17	7514
646.363	7466.89
646.556	7307.15
646.749	7292.82
646.942	7325.58
647.135	7176.08
647.328	7174.03
647.521	7323.54
647.714	7116.69
647.907	7032.72
648.099	6932.37
648.292	6983.57
648.485	7032.72
648.678	6852.5
648.871	6997.91
649.064	6803.35
649.256	6952.85
649.449	6760.34
649.642	6680.47
649.835	6760.34
650.027	6588.32
650.22	6567.84
650.413	6549.4
650.605	6559.64
650.798	6522.78
650.991	6457.25
651.183	6506.4
651.376	6428.57
651.568	6432.67
651.761	6397.85
651.954	6422.43
652.146	6293.41
652.339	6311.84
652.531	6207.39
652.724	6238.11
652.916	5896.1
653.109	6219.68
653.301	6270.88
653.494	6166.43
653.686	5918.63
653.879	6223.78
654.071	5963.68
654.263	5801.9
654.456	5971.88
654.648	5844.9
654.84	5879.72
655.033	5810.09
655.225	5707.69
655.417	5810.09
655.61	5826.47
655.802	5781.42
655.994	5822.38
656.186	5556.14
656.379	5674.92
656.571	5513.13
656.763	5525.42
656.955	5517.23
657.148	5416.88
657.34	5517.23
657.532	5408.69
657.724	5437.36
657.916	5445.55
658.108	5468.08
658.3	5257.14
658.492	5328.81
658.684	5302.19
658.876	5314.48
659.068	5177.26
659.26	5146.55
659.452	5199.79
659.644	5023.67
659.836	5089.2
660.028	5175.22
660.22	5046.19
660.412	4929.46
660.604	4968.37
660.796	4904.89
660.988	4900.79
661.18	4927.41
661.372	4888.5
661.563	4786.1
661.755	4786.1
661.947	4851.64
662.139	4788.15
662.331	4804.53
662.522	4745.14
662.714	4480.96
662.906	4626.36
663.097	4691.9
663.289	4624.31
663.481	4624.31
663.673	4632.51
663.864	4616.12
664.056	4388.8
664.247	4562.87
664.439	4425.66
664.631	4454.33
664.822	4378.56
665.014	4425.66
665.205	4341.69
665.397	4370.37
665.588	4388.8
665.78	4261.82
665.971	4280.25
666.163	4278.21
666.354	4173.76
666.546	4302.78
666.737	4245.44
666.929	4337.6
667.12	4155.33
667.311	4179.9
667.503	4085.7
667.694	4038.59
667.885	4034.5
668.077	4159.42
668.268	3966.92
668.459	3930.05
668.651	3897.28
668.842	3940.29
669.033	3844.04
669.224	4059.07
669.416	4100.03
669.607	3925.96
669.798	3901.38
669.989	3958.72
670.18	3971.01
670.371	3657.67
670.563	3803.08
670.754	3758.02
670.945	3794.89
671.136	3737.54
671.327	3706.82
671.518	3725.26
671.709	3944.39
671.9	3762.12
672.091	3762.12
672.282	3624.9
672.473	3577.8
672.664	3635.14
672.855	3555.27
673.046	3575.75
673.237	3631.05
673.428	3565.51
673.619	3575.75
673.809	3680.2
674	3463.12
674.191	3524.55
674.382	3522.51
674.573	3557.32
674.764	3418.06
674.954	3407.82
675.145	3444.68
675.336	3393.48
675.527	3442.64
675.717	3483.59
675.908	3362.76
676.099	3270.61
676.289	3426.25
676.48	3344.33
676.671	3338.19
676.861	3358.67
677.052	3323.85
677.243	3311.57
677.433	3217.36
677.624	3352.52
677.814	3346.38
678.005	3262.41
678.195	3356.62
678.386	3209.17
678.576	3164.11
678.767	3274.7
678.957	3274.7
679.148	3198.93
679.338	3319.76
679.529	3143.63
679.719	3063.76
679.909	3246.03
680.1	3246.03
680.29	3248.08
680.481	3106.77
680.671	3108.82
680.861	3057.62
681.052	3057.62
681.242	3053.52
681.432	3291.09
681.622	3037.14
681.813	3000.27
682.003	3237.84
682.193	3074
682.383	3049.43
682.573	3045.33
682.764	3045.33
682.954	2996.18
683.144	3084.24
683.334	2930.64
683.524	2979.79
683.714	2983.89
683.904	2985.94
684.094	3030.99
684.284	2996.18
684.474	2877.4
684.664	2877.4
684.854	3063.76
685.044	2942.93
685.234	2861.01
685.424	2942.93
685.614	2867.16
685.804	2924.5
685.994	2904.02
686.184	2856.92
686.374	2885.59
686.564	2959.31
686.753	2897.88
686.943	2811.86
687.133	2805.72
687.323	2648.02
687.513	2789.33
687.702	2715.61
687.892	2754.52
688.082	2805.72
688.272	2742.23
688.461	2713.56
688.651	2664.41
688.841	2680.79
689.03	2666.46
689.22	2691.03
689.41	2742.23
689.599	2590.68
689.789	2658.26
689.979	2815.96
690.168	2500.57
690.358	2600.92
690.547	2533.34
690.737	2498.52
690.926	2537.43
691.116	2557.91
691.305	2625.5
691.495	2584.54
691.684	2443.23
691.874	2553.82
692.063	2549.72
692.252	2443.23
692.442	2525.15
692.631	2441.18
692.82	2533.34
693.01	2492.38
693.199	2494.43
693.388	2344.92
693.578	2443.23
693.767	2424.79
693.956	2432.99
694.146	2322.4
694.335	2355.16
694.524	2445.27
694.713	2353.12
694.902	2338.78
695.092	2365.4
695.281	2328.54
695.47	2351.07
695.659	2306.01
695.848	2299.87
696.037	2291.68
696.226	2383.84
696.415	2254.81
696.604	2332.64
696.793	2181.09
696.982	2265.05
697.171	2312.16
697.36	2263.01
697.549	2381.79
697.738	2238.43
697.927	2316.25
698.116	2213.85
698.305	2140.13
698.494	2148.32
698.683	2230.24
698.872	2203.61
699.061	2211.81
699.25	2146.27
699.438	2303.96
699.627	2121.7
699.816	2099.17
700.005	2246.62
700.193	2271.2
700.382	2205.66
700.571	2101.22
700.76	2246.62
700.948	2164.7
701.137	2199.52
701.326	2238.43
701.514	2172.89
701.703	2201.57
701.892	2191.33
702.08	2152.42
702.269	2222.05
702.457	2090.98
702.646	2176.99
702.834	2144.22
703.023	2168.8
703.212	2213.85
703.4	1984.48
703.589	2090.98
703.777	2172.89
703.965	2068.45
704.154	2197.47
704.342	2150.37
704.531	2082.78
704.719	2090.98
704.907	2189.28
705.096	2009.06
705.284	2164.7
705.472	2058.21
705.661	2043.87
705.849	2150.37
706.037	2205.66
706.226	2093.02
706.414	1998.82
706.602	2095.07
706.79	2097.12
706.979	2095.07
707.167	2060.26
707.355	2060.26
707.543	2017.25
707.731	2058.21
707.919	2050.02
708.107	2025.44
708.296	2000.87
708.484	2107.36
708.672	2017.25
708.86	1972.19
709.048	2174.94
709.236	2039.78
709.424	2121.7
709.612	2050.02
709.8	2011.11
709.988	2113.5
710.176	2086.88
710.364	1955.81
710.551	2033.63
710.739	1978.34
710.927	1988.58
711.115	2013.15
711.303	2103.26
711.491	2047.97
711.679	1882.08
711.866	2150.37
712.054	2111.46
712.242	2050.02
712.43	2037.73
712.617	2052.06
712.805	2070.5
712.993	2086.88
713.181	1951.71
713.368	2082.78
713.556	1966.05
713.744	1990.63
713.931	2076.64
714.119	2086.88
714.306	2025.44
714.494	2033.63
714.682	2017.25
714.869	1894.37
715.057	2025.44
715.244	2041.82
715.432	1968.1
715.619	1992.67
715.807	2099.17
715.994	1959.91
716.182	1949.67
716.369	1992.67
716.556	2078.69
716.744	2043.87
716.931	2050.02
717.119	1939.43
717.306	1953.76
717.493	1992.67
717.681	2035.68
717.868	2013.15
718.055	2107.36
718.242	2105.31
718.43	1994.72
718.617	2078.69
718.804	2084.83
718.991	1947.62
719.179	2039.78
719.366	2050.02
719.553	2099.17
719.74	1931.23
719.927	2000.87
720.114	2000.87
720.301	2050.02
720.488	1869.8
720.676	2072.54
720.863	2033.63
721.05	2082.78
721.237	1972.19
721.424	1937.38
721.611	2068.45
721.798	1839.08
721.985	1937.38
722.172	2117.6
722.358	2078.69
722.545	2023.39
722.732	2029.54
722.919	2054.11
723.106	1886.18
723.293	2058.21
723.48	2029.54
723.667	2007.01
723.853	1941.47
724.04	2041.82
724.227	1976.29
724.414	1982.43
724.6	2052.06
724.787	2041.82
724.974	2062.3
725.161	2023.39
725.347	2002.91
725.534	2002.91
725.72	1978.34
725.907	2078.69
726.094	2043.87
726.28	1968.1
726.467	1951.71
726.653	1937.38
726.84	2021.35
727.027	1992.67
727.213	1988.58
727.4	2023.39
727.586	2000.87
727.773	1939.43
727.959	1968.1
728.145	2015.2
728.332	2101.22
728.518	1994.72
728.705	2185.18
728.891	2103.26
729.077	1978.34
729.264	1943.52
729.45	1992.67
729.636	2058.21
729.823	1914.85
730.009	2068.45
730.195	1943.52
730.382	1951.71
730.568	1976.29
730.754	1935.33
730.94	2025.44
731.126	2017.25
731.313	1951.71
731.499	2000.87
731.685	1996.77
731.871	2011.11
732.057	2072.54
732.243	2047.97
732.429	2070.5
732.615	2068.45
732.801	2084.83
732.987	1877.99
733.173	2078.69
733.359	1953.76
733.545	1996.77
733.731	2084.83
733.917	1961.95
734.103	2027.49
734.289	2084.83
734.475	2011.11
734.661	2052.06
734.847	1992.67
735.033	2000.87
735.219	2115.55
735.404	1894.37
735.59	1998.82
735.776	1918.95
735.962	1988.58
736.148	2000.87
736.333	1959.91
736.519	2017.25
736.705	1929.19
736.89	1945.57
737.076	1996.77
737.262	1945.57
737.447	1943.52
737.633	1957.86
737.819	1964
738.004	1964
738.19	1935.33
738.375	1992.67
738.561	1890.28
738.747	1951.71
738.932	1734.63
739.118	1984.48
739.303	1855.46
739.489	1869.8
739.674	1882.08
739.859	1871.84
740.045	1972.19
740.23	1767.4
740.416	1849.32
740.601	1890.28
740.786	1816.55
740.972	1820.64
741.157	1822.69
741.342	1738.73
741.528	1822.69
741.713	1820.64
741.898	1884.13
742.084	1781.73
742.269	1920.99
742.454	1877.99
742.639	1861.6
742.824	1802.21
743.01	1918.95
743.195	1918.95
743.38	1943.52
743.565	1705.96
743.75	1763.3
743.935	1796.07
744.12	1820.64
744.305	1681.38
744.49	1789.92
744.675	1665
744.86	1679.33
745.045	1746.92
745.23	1738.73
745.415	1648.61
745.6	1783.78
745.785	1812.45
745.97	1710.05
746.155	1638.37
746.34	1728.49
746.525	1538.02
746.71	1654.76
746.895	1781.73
747.079	1593.32
747.264	1587.18
747.449	1611.75
747.634	1562.6
747.819	1617.9
748.003	1654.76
748.188	1570.79
748.373	1583.08
748.557	1658.85
748.742	1591.27
748.927	1501.16
749.111	1492.97
749.296	1611.75
749.481	1533.93
749.665	1593.32
749.85	1357.8
750.034	1624.04
750.219	1509.35
750.404	1476.59
750.588	1378.28
750.773	1419.24
750.957	1540.07
751.141	1382.38
751.326	1482.73
751.51	1460.2
751.695	1476.59
751.879	1404.91
752.064	1374.19
752.248	1533.93
752.432	1488.87
752.617	1378.28
752.801	1349.61
752.985	1329.13
753.17	1341.42
753.354	1312.75
753.538	1341.42
753.722	1355.76
753.907	1222.64
754.091	1288.17
754.275	1275.88
754.459	1288.17
754.643	1263.6
754.828	1298.41
755.012	1191.92
755.196	1222.64
755.38	1253.36
755.564	1124.33
755.748	1304.56
755.932	1247.21
756.116	1247.21
756.3	1157.1
756.484	1173.49
756.668	1214.45
756.852	1116.14
757.036	1142.77
757.22	1157.1
757.404	1093.62
757.588	1136.62
757.772	1173.49
757.956	1236.97
758.14	1142.77
758.323	1114.09
758.507	1216.49
758.691	1189.87
758.875	1060.85
759.059	1130.48
759.242	1173.49
759.426	1075.18
759.61	1062.9
759.794	1091.57
759.977	972.79
760.161	1167.34
760.345	1112.05
760.528	1079.28
760.712	1101.81
760.895	978.93
761.079	1099.76
761.263	1034.22
761.446	948.21
761.63	985.07
761.813	1212.4
761.997	929.78
762.18	1009.65
762.364	944.11
762.547	919.54
762.731	1077.23
762.914	970.74
763.098	966.64
763.281	888.82
763.464	987.12
763.648	960.5
763.831	929.78
764.015	839.67
764.198	1003.5
764.381	923.63
764.564	995.31
764.748	878.58
764.931	845.81
765.114	909.3
765.297	944.11
765.481	845.81
765.664	937.97
765.847	837.62
766.03	921.59
766.213	845.81
766.397	942.07
766.58	843.76
766.763	815.09
766.946	894.96
767.129	899.06
767.312	858.1
767.495	907.25
767.678	829.43
767.861	829.43
768.044	903.15
768.227	839.67
768.41	774.13
768.593	845.81
768.776	837.62
768.959	837.62
769.142	790.52
769.324	831.48
769.507	784.37
769.69	815.09
769.873	790.52
770.056	919.54
770.239	866.29
770.421	894.96
770.604	790.52
770.787	817.14
770.97	790.52
771.152	765.94
771.335	841.72
771.518	694.26
771.7	841.72
771.883	841.72
772.066	782.32
772.248	743.41
772.431	784.37
772.613	854
772.796	751.6
772.978	798.71
773.161	788.47
773.343	706.55
773.526	763.89
773.708	749.56
773.891	714.74
774.073	753.65
774.256	780.28
774.438	684.02
774.621	722.93
774.803	698.36
774.985	706.55
775.168	780.28
775.35	641.01
775.532	690.17
775.715	616.44
775.897	710.65
776.079	669.69
776.261	671.73
776.444	708.6
776.626	673.78
776.808	641.01
776.99	665.59
777.173	679.93
777.355	649.21
777.537	634.87
777.719	575.48
777.901	598.01
778.083	540.66
778.265	602.1
778.447	602.1
778.629	600.05
778.811	528.38
778.993	563.19
779.175	632.82
779.357	548.86
779.539	546.81
779.721	575.48
779.903	694.26
780.085	583.67
780.267	595.96
780.449	526.33
780.631	628.73
780.812	555
780.994	518.14
781.176	487.42
781.358	542.71
781.54	460.79
781.721	561.14
781.903	546.81
782.085	571.38
782.267	595.96
782.448	542.71
782.63	579.58
782.812	550.9
782.993	542.71
783.175	491.51
783.357	487.42
783.538	530.42
783.72	487.42
783.901	468.98
784.083	505.85
784.264	413.69
784.446	462.84
784.627	452.6
784.809	448.51
784.99	423.93
785.172	446.46
785.353	432.12
785.535	421.88
785.716	403.45
785.897	407.55
786.079	475.13
786.26	430.07
786.441	452.6
786.623	374.78
786.804	477.18
786.985	339.96
787.167	362.49
787.348	411.64
787.529	333.82
787.71	387.07
787.891	419.83
788.073	423.93
788.254	315.39
788.435	391.16
788.616	417.79
788.797	321.53
788.978	372.73
789.159	378.87
789.34	462.84
789.522	378.87
789.703	329.72
789.884	325.63
790.065	380.92
790.246	321.53
790.427	290.81
790.607	342.01
790.788	356.35
790.969	274.43
791.15	350.2
791.331	376.83
791.512	284.67
791.693	342.01
791.874	342.01
792.054	362.49
792.235	358.39
792.416	264.19
792.597	296.96
792.778	266.24
792.958	329.72
793.139	337.91
793.32	317.44
793.5	268.28
793.681	356.35
793.862	370.68
794.042	272.38
794.223	319.48
794.404	309.24
794.584	202.75
794.765	276.48
794.945	399.35
795.126	323.58
795.306	274.43
795.487	307.2
795.667	260.09
795.848	319.48
796.028	288.76
796.209	335.87
796.389	280.57
796.57	241.66
796.75	169.98
796.93	299
797.111	288.76
797.291	196.6
797.471	325.63
797.652	258.04
797.832	342.01
798.012	256
798.192	280.57
798.373	217.08
798.553	196.6
798.733	225.28
798.913	178.17
799.093	241.66
799.274	239.61
799.454	165.89
799.634	249.85
799.814	215.04
799.994	272.38
800.174	272.38
800.354	260.09
800.534	247.8
800.714	284.67
800.894	190.46
801.074	206.84
801.254	176.13
801.434	223.23
801.614	231.42
801.794	167.93
801.974	847.86
802.154	178.17
802.334	239.61
802.514	221.18
802.693	186.37
802.873	157.69
803.053	270.33
803.233	204.8
803.413	223.23
803.592	196.6
803.772	223.23
803.952	198.65
804.131	180.22
804.311	198.65
804.491	280.57
804.67	208.89
804.85	221.18
805.03	219.13
805.209	208.89
805.389	135.17
805.568	192.51
805.748	126.97
805.928	178.17
806.107	215.04
806.287	184.32
806.466	135.17
806.646	231.42
806.825	266.24
807.004	194.56
807.184	190.46
807.363	196.6
807.543	215.04
807.722	153.6
807.901	210.94
808.081	198.65
808.26	88.06
808.439	186.37
808.619	151.55
808.798	118.78
808.977	155.65
809.156	137.21
809.336	212.99
809.515	75.77
809.694	280.57
809.873	118.78
810.052	135.17
810.231	206.84
810.411	210.94
810.59	176.13
810.769	145.41
810.948	184.32
811.127	59.39
811.306	100.35
811.485	151.55
811.664	208.89
811.843	149.5
812.022	137.21
812.201	165.89
812.38	196.6
812.559	88.06
812.737	145.41
812.916	167.93
813.095	124.93
813.274	69.63
813.453	137.21
813.632	114.69
813.811	192.51
813.989	102.4
814.168	174.08
814.347	126.97
814.526	141.31
814.704	190.46
814.883	176.13
815.062	104.45
815.24	165.89
815.419	153.6
815.598	184.32
815.776	137.21
815.955	108.54
816.133	83.97
816.312	124.93
816.49	96.25
816.669	126.97
816.847	81.92
817.026	178.17
817.204	145.41
817.383	43.01
817.561	210.94
817.74	133.12
817.918	151.55
818.097	96.25
818.275	141.31
818.453	116.73
818.632	210.94
818.81	112.64
818.988	96.25
819.167	77.82
819.345	94.21
819.523	92.16
819.701	34.82
819.879	165.89
820.058	120.83
820.236	96.25
820.414	100.35
820.592	106.49
820.77	53.25
820.948	102.4
821.127	47.1
821.305	79.87
821.483	-6.14
821.661	165.89
821.839	133.12
822.017	100.35
822.195	83.97
822.373	120.83
822.551	116.73
822.729	157.69
822.907	81.92
823.085	137.21
823.262	116.73
823.44	28.67
823.618	59.39
823.796	83.97
823.974	94.21
824.152	53.25
824.329	59.39
824.507	83.97
824.685	100.35
824.863	63.49
825.04	73.73
825.218	102.4
825.396	59.39
825.574	100.35
825.751	71.68
825.929	155.65
826.107	83.97
826.284	75.77
826.462	157.69
826.639	55.3
826.817	61.44
826.994	53.25
827.172	26.62
827.349	137.21
827.527	-20.48
827.704	79.87
827.882	79.87
828.059	96.25
828.237	63.49
828.414	59.39
828.591	53.25
828.769	83.97
828.946	10.24
829.124	79.87
829.301	69.63
829.478	67.58
829.655	100.35
829.833	-14.34
830.01	86.01
830.187	83.97
830.364	116.73
830.542	51.2
830.719	116.73
830.896	94.21
831.073	79.87
831.25	83.97
831.427	163.84
831.604	61.44
831.782	4.1
831.959	86.01
832.136	28.67
832.313	116.73
832.49	-10.24
832.667	110.59
832.844	75.77
833.021	94.21
833.198	55.3
833.374	98.3
833.551	118.78
833.728	30.72
833.905	81.92
834.082	69.63
834.259	53.25
834.436	38.91
834.612	-6.14
834.789	126.97
834.966	53.25
835.143	88.06
835.319	-12.29
835.496	79.87
835.673	116.73
835.85	116.73
836.026	43.01
836.203	79.87
836.38	49.15
836.556	83.97
836.733	51.2
836.909	75.77
837.086	53.25
837.262	120.83
837.439	100.35
837.616	34.82
837.792	118.78
837.968	-16.38
838.145	14.34
838.321	34.82
838.498	59.39
838.674	151.55
838.851	69.63
839.027	-4.1
839.203	16.38
839.38	129.02
839.556	59.39
839.732	227.32
839.909	22.53
840.085	143.36
840.261	59.39
840.437	79.87
840.614	43.01
840.79	133.12
840.966	53.25
841.142	2.05
841.318	8.19
841.494	14.34
841.671	-18.43
841.847	96.25
842.023	26.62
842.199	94.21
842.375	118.78
842.551	90.11
842.727	10.24
842.903	98.3
843.079	67.58
843.255	18.43
843.431	61.44
843.607	45.06
843.783	-18.43
843.959	100.35
844.134	-30.72
844.31	45.06
844.486	47.1
844.662	-14.34
844.838	59.39
845.013	126.97
845.189	67.58
845.365	-2.05
845.541	-22.53
845.716	12.29
845.892	28.67
846.068	4.1
846.244	71.68
846.419	34.82
846.595	83.97
846.77	16.38
846.946	43.01
847.122	34.82
847.297	61.44
847.473	102.4
847.648	-45.06
847.824	38.91
847.999	-4.1
848.175	45.06
848.35	57.34
848.526	98.3
848.701	20.48
848.876	71.68
849.052	88.06
849.227	141.31
849.403	-8.19
849.578	-34.82
849.753	43.01
849.929	-12.29
850.104	-12.29
850.279	59.39
850.454	34.82
850.63	-8.19
850.805	18.43
850.98	67.58
851.155	-22.53
851.33	47.1
851.505	14.34
851.681	98.3
851.856	-12.29
852.031	63.49
852.206	65.53
852.381	45.06
852.556	51.2
852.731	43.01
852.906	81.92
853.081	75.77
853.256	20.48
853.431	67.58
853.606	30.72
853.781	30.72
853.956	-2.05
854.131	34.82
854.305	-55.3
854.48	12.29
854.655	-4.1
854.83	77.82
855.005	47.1
855.18	18.43
855.354	-30.72
855.529	102.4
855.704	106.49
855.879	94.21
856.053	24.58
856.228	18.43
856.403	28.67
856.577	4.1
856.752	18.43
856.926	55.3
857.101	16.38
857.276	43.01
857.45	86.01
857.625	81.92
857.799	59.39
857.974	18.43
858.148	-36.86
858.323	86.01
858.497	10.24
858.672	32.77
858.846	34.82
859.02	-14.34
859.195	12.29
859.369	67.58
859.543	57.34
859.718	4.1
859.892	10.24
860.066	10.24
860.241	38.91
860.415	4.1
860.589	10.24
860.763	10.24
860.938	-32.77
861.112	43.01
861.286	67.58
861.46	34.82
861.634	18.43
861.808	28.67
861.982	-24.58
862.157	45.06
862.331	36.86
862.505	34.82
862.679	-24.58
862.853	-8.19
863.027	-38.91
863.201	49.15
863.375	-63.49
863.549	-2.05
863.722	34.82
863.896	75.77
864.07	10.24
864.244	59.39
864.418	63.49
864.592	88.06
864.766	100.35
864.939	18.43
865.113	10.24
865.287	143.36
865.461	-47.1
865.634	43.01
865.808	67.58
865.982	-8.19
866.156	-14.34
866.329	-6.14
866.503	100.35
866.676	-12.29
866.85	81.92
867.024	30.72
867.197	67.58
867.371	86.01
867.544	-22.53
867.718	20.48
867.891	100.35
868.065	-71.68
868.238	22.53
868.412	-12.29
868.585	-6.14
868.759	53.25
868.932	4.1
869.105	-30.72
869.279	30.72
869.452	-92.16
869.625	45.06
869.799	43.01
869.972	30.72
870.145	4.1
870.319	26.62
870.492	26.62
870.665	18.43
870.838	10.24
871.011	-2.05
871.185	2.05
871.358	-47.1
871.531	4.1
871.704	-2.05
871.877	67.58
872.05	-30.72
872.223	-28.67
872.396	14.34
872.569	18.43
872.742	-14.34
872.915	-6.14
873.088	16.38
873.261	-67.58
873.434	10.24
873.607	26.62
873.78	69.63
873.953	2.05
874.126	51.2
874.299	36.86
874.471	-71.68
874.644	-14.34
874.817	-30.72
874.99	100.35
875.163	-63.49
875.335	-14.34
875.508	67.58
875.681	51.2
875.853	-47.1
876.026	-20.48
876.199	63.49
876.371	-2.05
876.544	10.24
876.717	45.06
876.889	-53.25
877.062	133.12
877.234	20.48
877.407	-47.1
877.579	-2.05
877.752	2.05
877.924	-22.53
878.097	63.49
878.269	55.3
878.442	38.91
878.614	-18.43
878.786	-36.86
878.959	67.58
879.131	22.53
879.303	-59.39
879.476	88.06
879.648	12.29
879.82	73.73
879.993	-4.1
880.165	34.82
880.337	26.62
880.509	-8.19
880.681	22.53
880.854	2.05
881.026	75.77
881.198	26.62
881.37	90.11
881.542	-63.49
881.714	-45.06
881.886	-20.48
882.058	12.29
882.23	45.06
882.402	10.24
882.574	-38.91
882.746	26.62
882.918	36.86
883.09	81.92
883.262	38.91
883.434	-47.1
883.606	-38.91
883.778	38.91
883.95	-0
884.122	-4.1
884.293	2.05
884.465	-12.29
884.637	51.2
884.809	-24.58
884.98	2.05
885.152	-22.53
885.324	51.2
885.496	-61.44
885.667	-18.43
885.839	-6.14
886.011	-12.29
886.182	-0
886.354	18.43
886.525	-55.3
886.697	79.87
886.869	-36.86
887.04	-0
887.212	10.24
887.383	83.97
887.555	-10.24
887.726	10.24
887.897	-4.1
888.069	-61.44
888.24	94.21
888.412	2.05
888.583	6.14
888.754	-59.39
888.926	-20.48
889.097	-10.24
889.268	69.63
889.44	-51.2
889.611	-88.06
889.782	-2.05
889.953	-57.34
890.125	20.48
890.296	-53.25
890.467	28.67
890.638	2.05
890.809	4.1
890.98	61.44
891.151	45.06
891.323	79.87
891.494	22.53
891.665	-34.82
891.836	-30.72
892.007	30.72
892.178	-28.67
892.349	10.24
892.52	-20.48
892.691	-22.53
892.862	61.44
893.032	-14.34
893.203	4.1
893.374	-55.3
893.545	32.77
893.716	-104.45
893.887	2.05
894.057	-12.29
894.228	67.58
894.399	-45.06
894.57	10.24
894.74	10.24
894.911	34.82
895.082	30.72
895.253	-38.91
895.423	4.1
895.594	14.34
895.764	-0
895.935	12.29
896.106	57.34
896.276	-38.91
896.447	40.96
896.617	-38.91
896.788	-69.63
896.958	-6.14
897.129	10.24
897.299	-20.48
897.47	26.62
897.64	69.63
897.81	-63.49
897.981	-53.25
898.151	-16.38
898.322	-22.53
898.492	-2.05
898.662	12.29
898.832	-36.86
899.003	-47.1
899.173	67.58
899.343	53.25
899.513	-28.67
