Data from USB4F104151__123__14-43-57-769.txt Node

Date: Thu Mar 13 14:43:57 EDT 2025
User: louis
Spectrometer: USB4F10415
Trigger mode: 4
Integration Time (sec): 2.000000E-2
Scans to average: 1
Electric dark correction enabled: true
Nonlinearity correction enabled: false
Boxcar width: 0
XAxis mode: Wavelengths
Number of Pixels in Spectrum: 3648
>>>>>Begin Spectral Data<<<<<
178.204	-151.04
178.424	-151.04
178.644	-151.04
178.864	-138.75
179.084	-99.84
179.304	-22.02
179.524	-54.78
179.744	6.66
179.964	37.38
180.184	39.42
180.404	-34.3
180.624	88.57
180.844	-34.3
181.064	-5.63
181.283	-38.4
181.503	12.8
181.723	4.61
181.943	10.75
182.163	117.25
182.383	18.94
182.602	10.75
182.822	80.38
183.042	-1.54
183.262	-1.54
183.482	18.94
183.701	51.71
183.921	-1.54
184.141	4.61
184.361	37.38
184.58	35.33
184.8	27.14
185.02	-26.11
185.239	57.86
185.459	18.94
185.679	113.15
185.898	45.57
186.118	29.18
186.338	88.57
186.557	68.09
186.777	35.33
186.997	-13.82
187.216	55.81
187.436	68.09
187.655	-5.63
187.875	37.38
188.095	37.38
188.314	29.18
188.534	37.38
188.753	4.61
188.973	-3.58
189.192	39.42
189.412	25.09
189.631	119.29
189.851	-24.06
190.07	29.18
190.29	-24.06
190.509	-17.92
190.729	39.42
190.948	47.62
191.168	100.86
191.387	10.75
191.607	-13.82
191.826	84.48
192.045	18.94
192.265	-26.11
192.484	31.23
192.704	45.57
192.923	-1.54
193.142	12.8
193.362	-19.97
193.581	88.57
193.8	45.57
194.02	92.67
194.239	35.33
194.458	51.71
194.678	23.04
194.897	-17.92
195.116	61.95
195.335	94.72
195.555	39.42
195.774	94.72
195.993	-36.35
196.212	14.85
196.432	-13.82
196.651	72.19
196.87	8.7
197.089	68.09
197.308	94.72
197.528	51.71
197.747	-17.92
197.966	-9.73
198.185	66.05
198.404	43.52
198.623	-11.78
198.842	119.29
199.062	43.52
199.281	64
199.5	27.14
199.719	2.56
199.938	18.94
200.157	96.77
200.376	2.56
200.595	4.61
200.814	-28.16
201.033	68.09
201.252	59.9
201.471	70.14
201.69	70.14
201.909	18.94
202.128	27.14
202.347	-15.87
202.566	27.14
202.785	4.61
203.004	35.33
203.223	45.57
203.442	88.57
203.661	-17.92
203.879	31.23
204.098	20.99
204.317	23.04
204.536	35.33
204.755	61.95
204.974	35.33
205.193	59.9
205.411	76.29
205.63	8.7
205.849	76.29
206.068	51.71
206.287	43.52
206.505	92.67
206.724	47.62
206.943	53.76
207.162	92.67
207.381	29.18
207.599	43.52
207.818	74.24
208.037	-5.63
208.255	12.8
208.474	2.56
208.693	20.99
208.911	25.09
209.13	20.99
209.349	23.04
209.567	82.43
209.786	100.86
210.005	135.68
210.223	10.75
210.442	-5.63
210.661	14.85
210.879	47.62
211.098	-13.82
211.316	70.14
211.535	84.48
211.753	76.29
211.972	86.53
212.191	78.33
212.409	16.9
212.628	41.47
212.846	-13.82
213.065	25.09
213.283	84.48
213.502	-5.63
213.72	64
213.938	27.14
214.157	29.18
214.375	10.75
214.594	82.43
214.812	68.09
215.031	-17.92
215.249	-22.02
215.467	18.94
215.686	18.94
215.904	43.52
216.122	20.99
216.341	76.29
216.559	76.29
216.778	100.86
216.996	-44.54
217.214	18.94
217.432	68.09
217.651	70.14
217.869	-13.82
218.087	14.85
218.306	18.94
218.524	141.82
218.742	41.47
218.96	59.9
219.179	18.94
219.397	41.47
219.615	217.6
219.833	35.33
220.051	-58.88
220.27	84.48
220.488	84.48
220.706	37.38
220.924	27.14
221.142	51.71
221.36	59.9
221.578	43.52
221.796	53.76
222.015	-26.11
222.233	35.33
222.451	84.48
222.669	96.77
222.887	18.94
223.105	-30.21
223.323	-28.16
223.541	12.8
223.759	20.99
223.977	68.09
224.195	35.33
224.413	45.57
224.631	70.14
224.849	100.86
225.067	76.29
225.285	-54.78
225.503	-26.11
225.721	37.38
225.939	76.29
226.157	31.23
226.375	113.15
226.592	2.56
226.81	29.18
227.028	111.1
227.246	51.71
227.464	-22.02
227.682	51.71
227.9	61.95
228.117	84.48
228.335	39.42
228.553	37.38
228.771	10.75
228.989	33.28
229.206	35.33
229.424	92.67
229.642	68.09
229.86	90.62
230.077	-19.97
230.295	-13.82
230.513	76.29
230.731	29.18
230.948	76.29
231.166	70.14
231.384	27.14
231.601	39.42
231.819	78.33
232.037	-5.63
232.254	-60.93
232.472	104.96
232.689	100.86
232.907	31.23
233.125	74.24
233.342	35.33
233.56	43.52
233.777	-26.11
233.995	61.95
234.213	57.86
234.43	18.94
234.648	31.23
234.865	-19.97
235.083	18.94
235.3	47.62
235.518	80.38
235.735	59.9
235.953	53.76
236.17	29.18
236.388	6.66
236.605	-9.73
236.822	37.38
237.04	104.96
237.257	45.57
237.475	-48.64
237.692	29.18
237.909	39.42
238.127	23.04
238.344	4.61
238.562	35.33
238.779	-44.54
238.996	12.8
239.214	-52.74
239.431	90.62
239.648	37.38
239.865	59.9
240.083	31.23
240.3	14.85
240.517	72.19
240.735	55.81
240.952	76.29
241.169	88.57
241.386	59.9
241.603	14.85
241.821	-1.54
242.038	88.57
242.255	135.68
242.472	20.99
242.689	59.9
242.907	68.09
243.124	68.09
243.341	98.81
243.558	49.66
243.775	-54.78
243.992	4.61
244.209	45.57
244.426	82.43
244.643	125.44
244.86	-30.21
245.078	51.71
245.295	31.23
245.512	59.9
245.729	-19.97
245.946	43.52
246.163	12.8
246.38	10.75
246.597	47.62
246.814	68.09
247.031	-65.02
247.248	45.57
247.464	-13.82
247.681	29.18
247.898	35.33
248.115	53.76
248.332	43.52
248.549	76.29
248.766	160.25
248.983	78.33
249.2	45.57
249.417	6.66
249.633	109.05
249.85	35.33
250.067	-36.35
250.284	68.09
250.501	53.76
250.717	68.09
250.934	-58.88
251.151	25.09
251.368	39.42
251.585	16.9
251.801	53.76
252.018	-11.78
252.235	39.42
252.451	-42.5
252.668	14.85
252.885	43.52
253.102	18.94
253.318	49.66
253.535	55.81
253.752	-60.93
253.968	45.57
254.185	76.29
254.401	37.38
254.618	-1.54
254.835	31.23
255.051	10.75
255.268	72.19
255.484	76.29
255.701	-46.59
255.917	61.95
256.134	-11.78
256.351	100.86
256.567	-11.78
256.784	92.67
257	41.47
257.217	78.33
257.433	64
257.65	-19.97
257.866	4.61
258.082	100.86
258.299	39.42
258.515	94.72
258.732	57.86
258.948	76.29
259.165	49.66
259.381	29.18
259.597	-30.21
259.814	16.9
260.03	80.38
260.246	16.9
260.463	35.33
260.679	88.57
260.895	45.57
261.112	45.57
261.328	37.38
261.544	35.33
261.761	100.86
261.977	10.75
262.193	-1.54
262.409	84.48
262.626	39.42
262.842	53.76
263.058	14.85
263.274	76.29
263.49	37.38
263.707	53.76
263.923	94.72
264.139	-28.16
264.355	100.86
264.571	109.05
264.787	39.42
265.004	129.53
265.22	55.81
265.436	-22.02
265.652	6.66
265.868	41.47
266.084	-1.54
266.3	2.56
266.516	45.57
266.732	57.86
266.948	53.76
267.164	-7.68
267.38	133.63
267.596	109.05
267.812	76.29
268.028	102.91
268.244	-44.54
268.46	76.29
268.676	45.57
268.892	49.66
269.108	41.47
269.324	29.18
269.54	43.52
269.756	-28.16
269.972	-11.78
270.188	-26.11
270.403	-13.82
270.619	33.28
270.835	61.95
271.051	23.04
271.267	84.48
271.483	39.42
271.698	59.9
271.914	-17.92
272.13	74.24
272.346	18.94
272.562	68.09
272.777	109.05
272.993	43.52
273.209	51.71
273.425	12.8
273.64	6.66
273.856	84.48
274.072	86.53
274.287	92.67
274.503	84.48
274.719	-13.82
274.934	96.77
275.15	31.23
275.366	18.94
275.581	23.04
275.797	102.91
276.012	-1.54
276.228	72.19
276.444	18.94
276.659	47.62
276.875	33.28
277.09	41.47
277.306	39.42
277.521	68.09
277.737	-5.63
277.952	53.76
278.168	10.75
278.383	43.52
278.599	86.53
278.814	166.4
279.03	23.04
279.245	84.48
279.461	55.81
279.676	80.38
279.892	10.75
280.107	43.52
280.322	-15.87
280.538	55.81
280.753	-52.74
280.969	104.96
281.184	-5.63
281.399	88.57
281.615	-19.97
281.83	2.56
282.045	27.14
282.26	-17.92
282.476	-58.88
282.691	166.4
282.906	31.23
283.122	-30.21
283.337	-11.78
283.552	90.62
283.767	18.94
283.983	84.48
284.198	59.9
284.413	43.52
284.628	-34.3
284.843	55.81
285.058	92.67
285.274	33.28
285.489	20.99
285.704	76.29
285.919	-28.16
286.134	47.62
286.349	47.62
286.564	43.52
286.779	33.28
286.995	78.33
287.21	-34.3
287.425	43.52
287.64	-13.82
287.855	68.09
288.07	-5.63
288.285	51.71
288.5	43.52
288.715	135.68
288.93	2.56
289.145	33.28
289.36	72.19
289.575	76.29
289.79	90.62
290.004	70.14
290.219	68.09
290.434	-17.92
290.649	76.29
290.864	-9.73
291.079	-13.82
291.294	-9.73
291.509	18.94
291.724	29.18
291.938	78.33
292.153	68.09
292.368	20.99
292.583	61.95
292.798	102.91
293.012	35.33
293.227	12.8
293.442	35.33
293.657	35.33
293.871	121.34
294.086	43.52
294.301	162.3
294.516	18.94
294.73	104.96
294.945	-54.78
295.16	23.04
295.374	51.71
295.589	117.25
295.804	29.18
296.018	14.85
296.233	25.09
296.447	84.48
296.662	31.23
296.877	66.05
297.091	59.9
297.306	59.9
297.52	14.85
297.735	35.33
297.949	-28.16
298.164	20.99
298.378	59.9
298.593	37.38
298.807	29.18
299.022	12.8
299.236	10.75
299.451	64
299.665	109.05
299.88	-22.02
300.094	27.14
300.309	53.76
300.523	20.99
300.737	20.99
300.952	51.71
301.166	53.76
301.381	8.7
301.595	4.61
301.809	-42.5
302.024	14.85
302.238	29.18
302.452	45.57
302.667	76.29
302.881	61.95
303.095	84.48
303.309	31.23
303.524	-3.58
303.738	35.33
303.952	-5.63
304.166	27.14
304.381	8.7
304.595	92.67
304.809	59.9
305.023	96.77
305.237	59.9
305.452	51.71
305.666	57.86
305.88	90.62
306.094	76.29
306.308	59.9
306.522	4.61
306.736	51.71
306.95	47.62
307.164	-34.3
307.379	31.23
307.593	94.72
307.807	20.99
308.021	29.18
308.235	47.62
308.449	-44.54
308.663	20.99
308.877	125.44
309.091	39.42
309.305	2.56
309.519	35.33
309.733	72.19
309.947	64
310.161	2.56
310.374	35.33
310.588	35.33
310.802	18.94
311.016	47.62
311.23	29.18
311.444	18.94
311.658	10.75
311.872	78.33
312.085	96.77
312.299	92.67
312.513	66.05
312.727	84.48
312.941	10.75
313.154	94.72
313.368	2.56
313.582	10.75
313.796	55.81
314.009	55.81
314.223	4.61
314.437	45.57
314.651	109.05
314.864	-5.63
315.078	18.94
315.292	68.09
315.505	51.71
315.719	100.86
315.933	4.61
316.146	68.09
316.36	-58.88
316.573	59.9
316.787	92.67
317.001	94.72
317.214	-19.97
317.428	43.52
317.641	80.38
317.855	43.52
318.068	-1.54
318.282	160.25
318.495	102.91
318.709	45.57
318.922	-13.82
319.136	12.8
319.349	86.53
319.563	31.23
319.776	2.56
319.99	47.62
320.203	82.43
320.417	10.75
320.63	-17.92
320.843	102.91
321.057	111.1
321.27	12.8
321.483	51.71
321.697	29.18
321.91	78.33
322.124	35.33
322.337	-9.73
322.55	43.52
322.763	39.42
322.977	-5.63
323.19	-13.82
323.403	35.33
323.617	23.04
323.83	18.94
324.043	61.95
324.256	92.67
324.469	2.56
324.683	43.52
324.896	25.09
325.109	53.76
325.322	39.42
325.535	104.96
325.748	70.14
325.962	6.66
326.175	33.28
326.388	72.19
326.601	14.85
326.814	94.72
327.027	10.75
327.24	55.81
327.453	18.94
327.666	74.24
327.879	-9.73
328.092	80.38
328.305	51.71
328.518	20.99
328.731	-5.63
328.944	111.1
329.157	47.62
329.37	43.52
329.583	100.86
329.796	51.71
330.009	31.23
330.222	-5.63
330.435	102.91
330.648	80.38
330.861	61.95
331.073	-11.78
331.286	6.66
331.499	8.7
331.712	18.94
331.925	29.18
332.138	100.86
332.35	96.77
332.563	102.91
332.776	109.05
332.989	39.42
333.202	-19.97
333.414	14.85
333.627	37.38
333.84	27.14
334.053	10.75
334.265	20.99
334.478	61.95
334.691	68.09
334.903	-1.54
335.116	35.33
335.329	12.8
335.541	-13.82
335.754	37.38
335.966	18.94
336.179	18.94
336.392	-38.4
336.604	-30.21
336.817	37.38
337.029	29.18
337.242	20.99
337.454	64
337.667	109.05
337.88	76.29
338.092	31.23
338.305	78.33
338.517	18.94
338.729	78.33
338.942	-38.4
339.154	-38.4
339.367	59.9
339.579	43.52
339.792	68.09
340.004	45.57
340.217	16.9
340.429	84.48
340.641	2.56
340.854	-13.82
341.066	-17.92
341.278	68.09
341.491	127.49
341.703	156.16
341.915	-3.58
342.128	68.09
342.34	20.99
342.552	64
342.764	14.85
342.977	70.14
343.189	104.96
343.401	39.42
343.613	2.56
343.826	-13.82
344.038	-52.74
344.25	-17.92
344.462	-42.5
344.674	-34.3
344.886	-11.78
345.099	29.18
345.311	100.86
345.523	55.81
345.735	8.7
345.947	-34.3
346.159	35.33
346.371	-1.54
346.583	14.85
346.795	111.1
347.007	68.09
347.219	47.62
347.431	8.7
347.643	59.9
347.855	-22.02
348.067	53.76
348.279	23.04
348.491	51.71
348.703	119.29
348.915	84.48
349.127	-7.68
349.339	51.71
349.551	70.14
349.763	113.15
349.975	18.94
350.187	8.7
350.399	102.91
350.61	18.94
350.822	64
351.034	18.94
351.246	-7.68
351.458	12.8
351.669	76.29
351.881	39.42
352.093	61.95
352.305	41.47
352.517	82.43
352.728	92.67
352.94	68.09
353.152	113.15
353.363	10.75
353.575	47.62
353.787	86.53
353.999	18.94
354.21	-9.73
354.422	111.1
354.633	70.14
354.845	102.91
355.057	55.81
355.268	123.39
355.48	57.86
355.692	10.75
355.903	66.05
356.115	23.04
356.326	-52.74
356.538	94.72
356.749	92.67
356.961	109.05
357.172	-46.59
357.384	-22.02
357.595	61.95
357.807	-26.11
358.018	12.8
358.23	-13.82
358.441	121.34
358.653	72.19
358.864	29.18
359.075	59.9
359.287	43.52
359.498	94.72
359.709	20.99
359.921	72.19
360.132	158.21
360.344	84.48
360.555	45.57
360.766	92.67
360.977	43.52
361.189	45.57
361.4	47.62
361.611	125.44
361.823	4.61
362.034	104.96
362.245	4.61
362.456	117.25
362.667	59.9
362.879	68.09
363.09	-13.82
363.301	92.67
363.512	-26.11
363.723	23.04
363.935	18.94
364.146	18.94
364.357	14.85
364.568	113.15
364.779	14.85
364.99	45.57
365.201	55.81
365.412	23.04
365.623	-3.58
365.834	76.29
366.045	80.38
366.256	12.8
366.467	55.81
366.678	35.33
366.889	84.48
367.1	51.71
367.311	55.81
367.522	-1.54
367.733	78.33
367.944	43.52
368.155	39.42
368.366	59.9
368.577	43.52
368.788	84.48
368.999	12.8
369.209	61.95
369.42	94.72
369.631	117.25
369.842	-1.54
370.053	68.09
370.264	49.66
370.474	2.56
370.685	-1.54
370.896	64
371.107	14.85
371.317	18.94
371.528	35.33
371.739	70.14
371.95	78.33
372.16	37.38
372.371	-38.4
372.582	23.04
372.792	84.48
373.003	47.62
373.214	8.7
373.424	59.9
373.635	45.57
373.846	70.14
374.056	35.33
374.267	70.14
374.477	43.52
374.688	70.14
374.898	27.14
375.109	14.85
375.319	84.48
375.53	135.68
375.74	80.38
375.951	25.09
376.161	33.28
376.372	96.77
376.582	35.33
376.793	35.33
377.003	94.72
377.214	76.29
377.424	92.67
377.635	45.57
377.845	-5.63
378.055	59.9
378.266	6.66
378.476	-13.82
378.686	61.95
378.897	39.42
379.107	94.72
379.317	12.8
379.528	59.9
379.738	35.33
379.948	25.09
380.158	92.67
380.369	88.57
380.579	133.63
380.789	39.42
380.999	98.81
381.21	78.33
381.42	121.34
381.63	29.18
381.84	127.49
382.05	27.14
382.261	20.99
382.471	98.81
382.681	41.47
382.891	113.15
383.101	107.01
383.311	-38.4
383.521	53.76
383.731	47.62
383.941	100.86
384.151	29.18
384.361	-15.87
384.571	86.53
384.781	111.1
384.991	80.38
385.201	29.18
385.411	109.05
385.621	-19.97
385.831	117.25
386.041	166.4
386.251	43.52
386.461	129.53
386.671	59.9
386.881	12.8
387.091	29.18
387.301	76.29
387.511	23.04
387.72	59.9
387.93	23.04
388.14	72.19
388.35	80.38
388.56	37.38
388.769	51.71
388.979	72.19
389.189	-19.97
389.399	6.66
389.609	57.86
389.818	18.94
390.028	86.53
390.238	18.94
390.447	88.57
390.657	76.29
390.867	76.29
391.076	70.14
391.286	84.48
391.496	29.18
391.705	14.85
391.915	49.66
392.125	82.43
392.334	16.9
392.544	94.72
392.753	125.44
392.963	0.51
393.172	168.45
393.382	53.76
393.591	162.3
393.801	43.52
394.01	113.15
394.22	18.94
394.429	43.52
394.639	10.75
394.848	47.62
395.058	80.38
395.267	61.95
395.477	84.48
395.686	80.38
395.895	129.53
396.105	137.73
396.314	59.9
396.524	102.91
396.733	68.09
396.942	139.77
397.152	82.43
397.361	47.62
397.57	117.25
397.78	80.38
397.989	135.68
398.198	119.29
398.407	84.48
398.617	117.25
398.826	125.44
399.035	109.05
399.244	94.72
399.453	178.69
399.663	49.66
399.872	92.67
400.081	33.28
400.29	72.19
400.499	102.91
400.708	137.73
400.917	61.95
401.127	45.57
401.336	61.95
401.545	82.43
401.754	193.02
401.963	59.9
402.172	84.48
402.381	39.42
402.59	141.82
402.799	193.02
403.008	102.91
403.217	129.53
403.426	145.92
403.635	123.39
403.844	70.14
404.053	59.9
404.262	150.01
404.471	68.09
404.68	150.01
404.888	78.33
405.097	133.63
405.306	166.4
405.515	127.49
405.724	100.86
405.933	145.92
406.142	135.68
406.35	223.74
406.559	141.82
406.768	133.63
406.977	190.97
407.185	193.02
407.394	137.73
407.603	143.87
407.812	168.45
408.02	174.59
408.229	242.17
408.438	158.21
408.646	158.21
408.855	129.53
409.064	268.8
409.272	213.5
409.481	182.78
409.69	242.17
409.898	258.56
410.107	258.56
410.315	293.37
410.524	299.52
410.733	291.32
410.941	240.12
411.15	313.85
411.358	360.95
411.567	408.06
411.775	326.14
411.984	340.47
412.192	406.01
412.401	379.39
412.609	506.36
412.818	494.07
413.026	375.29
413.234	436.73
413.443	414.2
413.651	420.35
413.86	559.61
414.068	571.9
414.276	516.6
414.485	485.88
414.693	612.85
414.901	580.09
415.11	586.23
415.318	612.85
415.526	623.09
415.734	707.06
415.943	674.29
416.151	725.49
416.359	748.02
416.567	748.02
416.776	846.32
416.984	870.9
417.192	793.08
417.4	823.8
417.608	924.15
417.817	879.09
418.025	924.15
418.233	977.39
418.441	920.05
418.649	1034.74
418.857	1034.74
419.065	1116.65
419.273	1100.27
419.481	1198.57
419.689	1159.66
419.897	1231.34
420.105	1305.07
420.313	1298.92
420.521	1309.16
420.729	1374.7
420.937	1378.79
421.145	1567.21
421.353	1559.02
421.561	1585.64
421.769	1595.88
421.977	1663.46
422.185	1751.53
422.393	1882.6
422.601	1901.03
422.809	1870.31
423.017	1984.99
423.224	2009.57
423.432	2124.26
423.64	2171.36
423.848	2343.39
424.056	2185.69
424.263	2333.15
424.471	2445.79
424.679	2468.31
424.887	2580.95
425.094	2542.04
425.302	2570.71
425.51	2707.93
425.718	2781.65
425.925	2908.63
426.133	2951.63
426.341	3076.56
426.548	3312.08
426.756	3258.83
426.964	3363.28
427.171	3451.34
427.379	3596.75
427.586	3693
427.794	3746.25
428.001	3977.67
428.209	4190.66
428.417	3901.89
428.624	4413.88
428.832	4149.7
429.039	4286.91
429.247	4323.77
429.454	4512.19
429.662	4897.21
429.869	4602.3
430.076	4942.26
430.284	4819.38
430.491	5018.04
430.699	5335.47
430.906	5331.37
431.114	5351.85
431.321	5452.2
431.528	5712.3
431.736	5999.01
431.943	6214.05
432.15	6195.62
432.358	6263.2
432.565	6541.72
432.772	6314.4
432.979	6785.43
433.187	6869.4
433.394	6961.56
433.601	7389.58
433.808	7612.81
434.016	7510.41
434.223	7776.65
434.43	8194.43
434.637	8106.37
434.844	8673.66
435.052	8698.24
435.259	8655.23
435.466	8796.54
435.673	8624.51
435.88	9107.83
436.087	9654.64
436.294	9613.68
436.501	9388.4
436.708	9752.94
436.915	9902.44
437.122	10357.09
437.329	10350.95
437.537	10725.72
437.743	10881.37
437.95	10889.56
438.157	11305.3
438.364	11807.05
438.571	11747.66
438.778	11907.4
438.985	12839.23
439.192	12448.07
439.399	12726.59
439.606	12562.75
439.813	13275.45
440.02	13826.35
440.227	13662.51
440.433	13498.67
440.64	13932.84
440.847	13977.9
441.054	14469.41
441.261	15417.62
441.467	15149.34
441.674	15395.09
441.881	16019.72
442.088	15835.41
442.294	15800.59
442.501	16038.16
442.708	16374.02
442.914	17099
443.121	17510.64
443.328	17109.24
443.534	18254.06
443.741	17985.77
443.948	17641.71
444.154	18995.42
444.361	18976.99
444.568	18936.03
444.774	18813.15
444.981	19114.2
445.187	19835.09
445.394	20717.76
445.6	20338.89
445.807	22507.69
446.013	21522.62
446.22	21887.15
446.426	22546.6
446.633	22945.95
446.839	23664.79
447.046	22317.23
447.252	23924.88
447.459	24017.04
447.665	23699.61
447.871	24879.24
448.078	26042.48
448.284	24707.21
448.491	25393.28
448.697	26220.66
448.903	26749.03
449.11	27037.8
449.316	26632.3
449.522	27175.01
449.728	27748.44
449.935	28063.83
450.141	28153.94
450.347	28772.42
450.553	27838.55
450.76	28090.45
450.966	29425.73
451.172	28866.63
451.378	29470.78
451.584	29007.94
451.791	29648.96
451.997	29665.34
452.203	30230.58
452.409	30027.83
452.615	29810.75
452.821	28921.93
453.027	28790.86
453.233	30380.08
453.44	28975.17
453.646	29261.89
453.852	29775.93
454.058	29827.13
454.264	29440.06
454.47	29837.37
454.676	28706.89
454.882	29933.62
455.088	27496.54
455.294	27998.29
455.5	28147.79
455.705	28600.4
455.911	27756.63
456.117	27019.36
456.323	26617.96
456.529	25141.38
456.735	26597.48
456.941	25659.51
457.147	25518.2
457.352	24676.49
457.558	24379.53
457.764	24699.02
457.97	23939.22
458.176	23400.6
458.381	23244.96
458.587	22528.17
458.793	22462.63
458.999	20963.52
459.204	22775.97
459.41	22304.94
459.616	20529.35
459.821	20588.74
460.027	20807.87
460.233	20009.17
460.438	19130.59
460.644	19548.37
460.85	18725.09
461.055	18311.4
461.261	18278.63
461.466	16726.27
461.672	16281.86
461.878	17545.46
462.083	16351.49
462.289	16128.27
462.494	15948.04
462.7	15286.55
462.905	14874.91
463.111	15141.14
463.316	15169.82
463.522	15038.75
463.727	15106.33
463.932	15036.7
464.138	15036.7
464.343	15042.84
464.549	14455.08
464.754	15067.42
464.959	14993.69
465.165	14723.36
465.37	14047.53
465.575	13795.63
465.781	14027.05
465.986	14393.64
466.191	13801.77
466.397	13543.73
466.602	13035.83
466.807	13443.38
467.012	13457.71
467.218	13326.64
467.423	13336.88
467.628	13193.53
467.833	13766.96
468.038	13304.12
468.244	12935.48
468.449	13580.59
468.654	13050.17
468.859	13144.38
469.064	12849.47
469.269	12321.09
469.474	12527.94
469.679	12812.6
469.885	12106.06
470.09	12470.59
470.295	12302.66
470.5	12112.2
470.705	12585.28
470.91	12042.57
471.115	11942.22
471.32	12022.09
471.525	11858.25
471.73	11655.5
471.935	11594.06
472.139	11311.44
472.344	11268.44
472.549	11432.27
472.754	11080.02
472.959	10983.77
473.164	10684.76
473.369	10559.84
473.574	10967.38
473.778	10815.83
473.983	10695
474.188	10572.13
474.393	10357.09
474.598	10234.21
474.802	10180.96
475.007	10021.22
475.212	10152.29
475.417	9742.7
475.621	9935.21
475.826	9771.37
476.031	9597.29
476.235	9636.2
476.44	9726.32
476.645	9562.48
476.849	9527.66
477.054	9091.45
477.259	9329.01
477.463	9199.99
477.668	8882.55
477.872	9124.21
478.077	8810.87
478.282	8720.76
478.486	8556.93
478.691	8515.97
478.895	8636.8
479.1	8649.08
479.304	8518.01
479.509	8329.6
479.713	8354.18
479.918	8309.12
480.122	8001.93
480.326	8145.28
480.531	8161.67
480.735	7913.86
480.94	8042.89
481.144	8274.31
481.348	7997.83
481.553	7950.73
481.757	7680.39
481.961	8053.13
482.166	8165.76
482.37	8018.31
482.574	7772.55
482.778	7868.81
482.983	8161.67
483.187	7883.14
483.391	7874.95
483.595	7825.8
483.8	7772.55
484.004	7997.83
484.208	8055.17
484.412	7950.73
484.616	7840.14
484.821	7915.91
485.025	7768.46
485.229	7737.74
485.433	7805.32
485.637	7979.4
485.841	7762.31
486.045	7717.26
486.249	7805.32
486.453	7743.88
486.657	7930.25
486.861	7743.88
487.065	7719.31
487.269	7836.04
487.473	7913.86
487.677	7905.67
487.881	8042.89
488.085	7991.69
488.289	7866.76
488.493	7825.8
488.697	7985.54
488.901	7805.32
489.105	7920.01
489.309	7987.59
489.512	7963.01
489.716	7977.35
489.92	8042.89
490.124	8030.6
490.328	7975.3
490.531	8083.84
490.735	8147.33
490.939	8171.91
491.143	8171.91
491.346	8087.94
491.55	8128.9
491.754	8212.87
491.958	8255.87
492.161	7989.64
492.365	8259.97
492.569	8221.06
492.772	8302.98
492.976	8450.43
493.18	8440.19
493.383	8466.81
493.587	8538.49
493.79	8503.68
493.994	8534.4
494.197	8698.24
494.401	8915.32
494.605	8675.71
494.808	8763.77
495.012	8864.12
495.215	8950.14
495.419	9116.02
495.622	9079.16
495.825	9253.23
496.029	9181.56
496.232	9419.12
496.436	9292.15
496.639	9544.05
496.843	9333.11
497.046	9683.31
497.249	9841
497.453	9744.75
497.656	9849.19
497.859	10015.08
498.063	10154.34
498.266	10123.62
498.469	10285.41
498.673	10170.72
498.876	10410.34
499.079	10635.61
499.282	10723.68
499.485	10834.27
499.689	10961.24
499.892	11063.64
500.095	11233.62
500.298	11364.69
500.501	11204.95
500.705	11534.67
500.908	11727.18
501.111	11692.37
501.314	11876.68
501.517	11938.12
501.72	11876.68
501.923	12112.2
502.126	12290.37
502.329	12583.23
502.532	12753.21
502.735	12652.86
502.938	13015.35
503.141	13072.7
503.344	13236.53
503.547	13134.14
503.75	13568.3
503.953	13869.36
504.156	13838.64
504.359	13863.21
504.562	14092.58
504.765	14268.71
504.968	14211.37
505.17	14729.5
505.373	14698.78
505.576	14926.11
505.779	15122.71
505.982	15216.92
506.185	15298.84
506.387	15571.22
506.59	15454.48
506.793	15784.21
506.996	15915.28
507.198	16331.01
507.401	16179.47
507.604	16392.45
507.807	16986.36
508.009	16754.94
508.212	17096.96
508.415	17381.62
508.617	17338.62
508.82	17430.77
509.022	17621.24
509.225	17979.63
509.428	18260.2
509.63	18237.67
509.833	18088.17
510.035	18786.53
510.238	18548.96
510.44	19034.33
510.643	19302.62
510.845	19382.49
511.048	19310.81
511.25	19687.64
511.453	19812.56
511.655	20725.96
511.858	20506.82
512.06	20457.67
512.262	20627.65
512.465	20580.55
512.667	21141.69
512.87	21078.21
513.072	21326.01
513.274	21528.76
513.477	21878.96
513.679	21964.98
513.881	22075.57
514.084	22382.76
514.286	22562.98
514.488	22753.44
514.69	23224.48
514.893	23416.99
515.095	23230.62
515.297	23525.53
515.499	23572.63
515.701	24133.78
515.904	24172.69
516.106	24336.52
516.308	24807.56
516.51	24983.68
516.712	24959.11
516.914	25462.91
517.116	25544.83
517.318	25751.67
517.52	25927.8
517.722	25948.28
517.925	26415.21
518.127	26304.62
518.329	27199.58
518.531	26755.18
518.733	27193.44
518.935	27142.24
519.136	27684.95
519.338	28059.73
519.54	27867.22
519.742	28401.74
519.944	28528.72
520.146	28926.02
520.348	29081.67
520.55	29073.48
520.752	29450.3
520.954	29845.56
521.155	29743.16
521.357	29851.7
521.559	30216.24
521.761	30892.07
521.963	30595.12
522.164	30627.88
522.366	30742.57
522.568	31334.43
522.77	31543.33
522.971	31647.77
523.173	31524.89
523.375	31959.06
523.576	31778.84
523.778	31993.88
523.98	32221.2
524.181	32368.66
524.383	32608.27
524.584	33062.92
524.786	33003.53
524.988	32790.54
525.189	33159.17
525.391	33492.99
525.592	34226.17
525.794	33925.11
525.995	33982.46
526.197	33937.4
526.398	34242.55
526.6	34324.47
526.801	34539.5
527.003	34576.37
527.204	35229.67
527.406	35123.18
527.607	34715.63
527.808	34893.8
528.01	34551.79
528.211	35104.74
528.412	35760.09
528.614	35590.11
528.815	35418.08
529.016	35553.25
529.218	35250.15
529.419	35799.01
529.62	35811.29
529.822	35442.66
530.023	35821.53
530.224	35981.27
530.425	36014.04
530.626	35493.86
530.828	35559.39
531.029	36304.85
531.23	35917.79
531.431	35776.48
531.632	36001.75
531.833	36239.32
532.035	36466.64
532.236	35829.73
532.437	36192.22
532.638	36245.46
532.839	36790.22
533.04	36777.93
533.241	36024.28
533.442	36726.74
533.643	36413.4
533.844	36446.16
534.045	36728.78
534.246	36552.66
534.447	36927.44
534.648	36124.63
534.849	36755.41
535.05	36806.61
535.251	36712.4
535.451	36716.5
535.652	36734.93
535.853	36356.05
536.054	36757.46
536.255	36593.62
536.456	36696.02
536.657	36779.98
536.857	36532.18
537.058	36331.48
537.259	36761.55
537.46	36646.86
537.66	36577.23
537.861	36708.3
538.062	36267.99
538.263	36636.62
538.463	36548.56
538.664	36239.32
538.865	36544.47
539.065	36286.42
539.266	36104.15
539.466	36638.67
539.667	36069.34
539.868	36675.54
540.068	36495.32
540.269	36413.4
540.469	36876.24
540.67	36360.15
540.87	36669.39
541.071	36530.13
541.271	36855.76
541.472	36732.88
541.672	36048.86
541.873	36052.95
542.073	35895.26
542.274	36347.86
542.474	36098.01
542.675	35823.58
542.875	36423.64
543.075	36087.77
543.276	36100.06
543.476	36464.6
543.676	36372.44
543.877	36388.82
544.077	36165.59
544.277	36292.57
544.478	36128.73
544.678	36519.89
544.878	36179.93
545.078	36077.53
545.279	35960.8
545.479	36022.23
545.679	36061.15
545.879	36016.09
546.079	36128.73
546.28	36149.21
546.48	35848.16
546.68	36272.09
546.88	36104.15
547.08	35862.49
547.28	35708.9
547.48	35655.65
547.68	35780.57
547.88	35811.29
548.081	36059.1
548.281	36110.3
548.481	35872.73
548.681	36224.98
548.881	35995.61
549.081	35880.92
549.28	35948.51
549.48	36184.02
549.68	35901.4
549.88	36478.93
550.08	35700.7
550.28	35958.75
550.48	36192.22
550.68	36003.8
550.88	35758.05
551.08	35940.32
551.279	35733.47
551.479	35790.81
551.679	35667.94
551.879	35653.6
552.079	35895.26
552.278	35471.33
552.478	35456.99
552.678	35602.4
552.878	36177.88
553.077	35688.42
553.277	35489.76
553.477	35749.85
553.676	35489.76
553.876	35473.38
554.076	35264.49
554.275	35575.78
554.475	35000.3
554.674	35579.87
554.874	35491.81
555.074	35446.76
555.273	35522.53
555.473	35274.73
555.672	35020.78
555.872	35026.92
556.071	35405.8
556.271	35479.52
556.47	35047.4
556.67	35176.42
556.869	35084.26
557.068	35352.55
557.268	34719.73
557.467	35205.09
557.667	35119.08
557.866	35334.12
558.065	34955.24
558.265	34715.63
558.464	34985.96
558.663	34858.99
558.863	34637.81
559.062	35270.63
559.261	34457.59
559.461	34756.59
559.66	34469.87
559.859	34572.27
560.058	34502.64
560.258	34799.6
560.457	34056.18
560.656	34457.59
560.855	34213.88
561.054	34547.7
561.253	33964.03
561.453	34338.8
561.652	34256.89
561.851	34615.28
562.05	34140.15
562.249	34097.14
562.448	33961.98
562.647	33724.41
562.846	34072.57
563.045	33986.55
563.244	33536
563.443	33843.2
563.642	33310.72
563.841	33519.62
564.04	33456.13
564.239	33681.41
564.438	33126.41
564.637	33724.41
564.836	33654.78
565.035	33036.3
565.234	33488.9
565.432	33443.84
565.631	33171.46
565.83	33214.47
566.029	33251.33
566.228	32665.61
566.427	33007.62
566.625	32964.62
566.824	32442.38
567.023	32815.12
567.222	32210.96
567.42	32643.09
567.619	32272.4
567.818	32800.78
568.016	32417.81
568.215	32583.69
568.414	32186.39
568.612	32634.89
568.811	31924.25
569.01	32518.16
569.208	31703.07
569.407	32079.89
569.605	31254.56
569.804	32170.01
570.002	31735.84
570.201	31551.52
570.4	31791.13
570.598	31246.37
570.797	31637.53
570.995	31430.69
571.193	31186.98
571.392	31559.71
571.59	31197.22
571.789	31408.16
571.987	31455.26
572.186	30763.05
572.384	30691.37
572.582	31189.03
572.781	30869.54
572.979	30500.91
573.177	30896.17
573.376	30720.04
573.574	30531.63
573.772	30779.43
573.971	30300.21
574.169	30394.42
574.367	30124.08
574.565	30156.85
574.763	30031.93
574.962	29982.77
575.16	29747.26
575.358	30033.97
575.556	29786.17
575.754	29874.23
575.952	29216.83
576.151	29882.42
576.349	29605.95
576.547	29386.82
576.745	29483.07
576.943	29464.64
577.141	28739.66
577.339	29265.99
577.537	28956.74
577.735	29415.49
577.933	28966.98
578.131	29239.36
578.329	28991.56
578.527	28762.19
578.725	28536.91
578.923	28885.06
579.121	28676.17
579.319	28387.41
579.516	28715.08
579.714	28590.16
579.912	28098.64
580.11	28608.59
580.308	28256.34
580.506	28211.28
580.704	27625.56
580.901	27764.82
581.099	27979.86
581.297	27789.4
581.495	27883.61
581.692	27852.89
581.89	27752.54
582.088	27654.23
582.285	27666.52
582.483	27822.17
582.681	27643.99
582.878	26982.5
583.076	27220.06
583.274	27478.11
583.471	26876.01
583.669	27162.72
583.866	26824.81
584.064	26947.68
584.262	26755.18
584.459	26925.16
584.657	26441.84
584.854	26974.31
585.052	26339.44
585.249	26583.15
585.447	26654.83
585.644	26234.99
585.841	26599.53
586.039	26128.5
586.236	26056.82
586.434	26110.07
586.631	26146.93
586.828	25915.51
587.026	26046.58
587.223	25837.69
587.42	25591.93
587.618	25911.41
587.815	25591.93
588.012	25587.83
588.21	25327.74
588.407	25675.9
588.604	25145.47
588.801	25014.4
588.999	25356.41
589.196	25098.37
589.393	25145.47
589.59	25000.07
589.787	24658.06
589.984	25004.16
590.182	24559.75
590.379	24883.33
590.576	24623.24
590.773	24236.17
590.97	24469.64
591.167	24957.06
591.364	24576.14
591.561	24289.42
591.758	24047.76
591.955	24361.1
592.152	24162.45
592.349	23859.35
592.546	23847.06
592.743	24055.95
592.94	23877.78
593.137	23957.65
593.334	23830.68
593.531	23410.84
593.727	23906.45
593.924	23718.04
594.121	23324.83
594.318	23593.11
594.515	23249.05
594.712	23371.93
594.908	22900.9
595.105	23195.81
595.302	22968.48
595.499	23160.99
595.696	22857.89
595.892	22726.82
596.089	23040.16
596.286	22732.97
596.482	22833.32
596.679	22622.37
596.876	22640.81
597.072	22149.29
597.269	22427.82
597.466	22319.28
597.662	22180.01
597.859	22358.19
598.055	22450.35
598.252	21975.22
598.448	21934.26
598.645	21731.51
598.841	21786.8
599.038	22157.49
599.234	21817.52
599.431	21334.2
599.627	21661.88
599.824	21868.72
600.02	21434.55
600.217	21446.84
600.413	21657.78
600.609	21143.74
600.806	21092.54
601.002	21268.67
601.198	21145.79
601.395	20803.78
601.591	20969.66
601.787	21006.53
601.984	20936.9
602.18	21045.44
602.376	20465.86
602.572	20697.28
602.769	20592.84
602.965	20424.9
603.161	20547.78
603.357	20519.11
603.553	20594.89
603.75	20320.46
603.946	20132.04
604.142	20433.1
604.338	19904.72
604.534	20048.08
604.73	19910.86
604.926	19675.35
605.122	19982.54
605.318	19816.66
605.514	19744.98
605.71	19652.82
605.906	19685.59
606.102	19462.36
606.298	19624.15
606.494	19683.54
606.69	19513.56
606.886	19503.32
607.082	19161.31
607.278	19376.34
607.474	18923.74
607.67	19441.88
607.866	18786.53
608.062	19134.68
608.257	19378.39
608.453	19228.89
608.649	18890.98
608.845	18782.43
609.041	18880.74
609.236	18895.07
609.432	18921.7
609.628	18772.19
609.824	18663.65
610.019	18751.71
610.215	18864.35
610.411	18788.58
610.606	18528.49
610.802	18811.1
610.998	18417.89
611.193	18505.96
611.389	18499.81
611.584	18163.95
611.78	18229.48
611.976	18714.85
612.171	18262.25
612.367	18565.35
612.562	18399.46
612.758	18235.63
612.953	18020.59
613.149	18381.03
613.344	17699.06
613.539	18102.51
613.735	18200.81
613.93	18006.25
614.126	17877.23
614.321	18065.64
614.517	17979.63
614.712	17922.29
614.907	17797.36
615.103	17914.09
615.298	17838.32
615.493	17725.68
615.688	17477.88
615.884	18026.73
616.079	17322.23
616.274	17672.43
616.47	17457.4
616.665	17656.05
616.86	17441.01
617.055	17473.78
617.25	17498.36
617.445	17557.75
617.641	16980.22
617.836	17535.22
618.031	17180.92
618.226	17029.37
618.421	17291.51
618.616	17301.75
618.811	16883.97
619.006	16912.64
619.201	16742.66
619.396	16754.94
619.591	16425.22
619.786	16820.48
619.981	16501
620.176	16656.64
620.371	16111.88
620.566	16625.92
620.761	16339.21
620.956	16351.49
621.151	16007.44
621.346	16171.27
621.541	15927.56
621.735	16128.27
621.93	15798.54
622.125	15624.47
622.32	15462.68
622.515	15569.17
622.709	15526.16
622.904	15450.39
623.099	15386.9
623.294	15499.54
623.488	15028.51
623.683	15413.52
623.878	15079.71
624.072	15022.36
624.267	14907.68
624.462	14811.42
624.656	14749.98
624.851	14895.39
625.046	14514.47
625.24	14629.15
625.435	14522.66
625.629	14434.6
625.824	14375.2
626.018	14233.89
626.213	13959.47
626.407	14301.48
626.602	13711.66
626.796	14004.52
626.991	14072.11
627.185	13766.96
627.38	13748.53
627.574	13611.31
627.768	13576.5
627.963	13547.83
628.157	13392.18
628.352	13179.19
628.546	13207.86
628.74	13244.73
628.935	12941.63
629.129	13242.68
629.323	12996.92
629.517	13007.16
629.712	12736.83
629.906	12831.04
630.1	12501.31
630.294	12974.39
630.489	12654.91
630.683	12749.12
630.877	12282.18
631.071	12497.22
631.265	12540.22
631.459	12339.52
631.653	12349.76
631.848	12128.58
632.042	12011.85
632.236	11852.11
632.43	12091.72
632.624	11956.55
632.818	12038.47
633.012	11774.28
633.206	11827.53
633.4	11577.68
633.594	11645.26
633.788	11270.48
633.982	11436.37
634.176	11471.18
634.369	11493.71
634.563	11258.2
634.757	11409.75
634.951	11143.51
635.145	11209.04
635.339	11157.85
635.533	11077.97
635.726	11102.55
635.92	10805.6
636.114	10791.26
636.308	10832.22
636.501	10924.38
636.695	10930.52
636.889	10477.92
637.083	10565.98
637.276	10686.81
637.47	10549.6
637.664	10283.36
637.857	10373.47
638.051	10299.75
638.244	10195.3
638.438	10260.84
638.632	10242.4
638.825	9970.02
639.019	10031.46
639.212	9906.54
639.406	10111.33
639.599	10058.09
639.793	9953.64
639.986	9554.29
640.18	9509.23
640.373	9662.83
640.567	9763.18
640.76	9691.5
640.954	9517.42
641.147	9570.67
641.34	9316.72
641.534	9472.37
641.727	9202.04
641.92	9306.48
642.114	9202.04
642.307	9232.76
642.5	9269.62
642.694	8997.24
642.887	9113.97
643.08	9021.81
643.273	8792.44
643.467	8966.52
643.66	8851.83
643.853	8829.31
644.046	8632.7
644.239	8810.87
644.432	8554.88
644.626	8642.94
644.819	8591.74
645.012	8466.81
645.205	8550.78
645.398	8403.33
645.591	8550.78
645.784	8440.19
645.977	8190.34
646.17	8348.03
646.363	8300.93
646.556	8143.24
646.749	8028.55
646.942	8038.79
647.135	8028.55
647.328	8104.32
647.521	8014.21
647.714	7842.18
647.907	7895.43
648.099	7725.45
648.292	8053.13
648.485	7721.35
648.678	7666.06
648.871	7657.87
649.064	7584.14
649.256	7639.44
649.449	7440.78
649.642	7522.7
649.835	7446.93
650.027	7393.68
650.22	7227.79
650.413	7367.06
650.605	7336.34
650.798	7145.87
650.991	7145.87
651.183	7276.94
651.376	6971.8
651.568	7252.37
651.761	7121.3
651.954	6955.41
652.146	7137.68
652.339	6859.16
652.531	6785.43
652.724	6879.64
652.916	6875.54
653.109	6791.58
653.301	6836.63
653.494	6773.14
653.686	6678.94
653.879	6789.53
654.071	6468
654.263	6312.35
654.456	6566.3
654.648	6416.8
654.84	6527.39
655.033	6404.51
655.225	6361.5
655.417	6410.65
655.61	6437.28
655.802	6341.02
655.994	6326.69
656.186	6388.13
656.379	6130.08
656.571	6281.63
656.763	6074.79
656.955	6093.22
657.148	5945.77
657.34	6277.54
657.532	6035.88
657.724	5915.05
657.916	6009.25
658.108	6025.64
658.3	6058.4
658.492	5894.57
658.684	5826.98
658.876	5755.3
659.068	5761.45
659.26	5818.79
659.452	5845.41
659.644	5681.58
659.836	5740.97
660.028	5765.54
660.22	5568.94
660.412	5724.58
660.604	5513.64
660.796	5542.32
660.988	5444.01
661.18	5372.33
661.372	5468.59
661.563	5487.02
661.755	5286.32
661.947	5323.18
662.139	5271.98
662.331	5177.78
662.522	5302.7
662.714	5056.95
662.906	5120.43
663.097	5237.17
663.289	5114.29
663.481	5124.53
663.673	5007.8
663.864	4975.03
664.056	4983.22
664.247	4850.1
664.439	4995.51
664.631	4792.76
664.822	5015.99
665.014	4934.07
665.205	4897.21
665.397	4827.57
665.588	4815.29
665.78	4696.5
665.971	4676.02
666.163	4716.98
666.354	4774.33
666.546	4655.54
666.737	4725.18
666.929	4610.49
667.12	4551.1
667.311	4676.02
667.503	4565.43
667.694	4690.36
667.885	4532.67
668.077	4600.25
668.268	4491.71
668.459	4313.53
668.651	4575.67
668.842	4286.91
669.033	4504
669.224	4356.54
669.416	4520.38
669.607	4346.3
669.798	4313.53
669.989	4372.93
670.18	4229.57
670.371	4327.87
670.563	4299.2
670.754	4252.1
670.945	4520.38
671.136	4288.96
671.327	4233.66
671.518	4164.03
671.709	4272.57
671.9	4196.8
672.091	4168.13
672.282	4049.35
672.473	3967.43
672.664	3992
672.855	4157.89
673.046	4049.35
673.237	4219.33
673.428	3971.52
673.619	3928.52
673.809	4026.82
674	3959.24
674.191	3938.76
674.382	4012.48
674.573	4047.3
674.764	3920.32
674.954	4004.29
675.145	3955.14
675.336	3891.65
675.527	3992
675.717	3981.76
675.908	3865.03
676.099	3836.36
676.289	3707.34
676.48	3727.82
676.671	3811.78
676.861	3930.56
677.052	3615.18
677.243	3631.56
677.433	3674.57
677.624	3758.53
677.814	3862.98
678.005	3731.91
678.195	3647.94
678.386	3711.43
678.576	3688.9
678.767	3643.85
678.957	3658.18
679.148	3631.56
679.338	3613.13
679.529	3582.41
679.719	3643.85
679.909	3676.62
680.1	3676.62
680.29	3645.9
680.481	3666.38
680.671	3680.71
680.861	3598.79
681.052	3561.93
681.242	3590.6
681.432	3496.39
681.622	3516.87
681.813	3508.68
682.003	3525.07
682.193	3598.79
682.383	3555.79
682.573	3492.3
682.764	3533.26
682.954	3639.75
683.144	3551.69
683.334	3488.2
683.524	3455.44
683.714	3504.59
683.904	3338.7
684.094	3557.83
684.284	3385.8
684.474	3508.68
684.664	3437
684.854	3420.62
685.044	3402.19
685.234	3453.39
685.424	3467.72
685.614	3385.8
685.804	3371.47
685.994	3350.99
686.184	3336.65
686.374	3330.51
686.564	3336.65
686.753	3430.86
686.943	3258.83
687.133	3355.08
687.323	3248.59
687.513	3322.32
687.702	3328.46
687.892	3314.13
688.082	3254.73
688.272	3394
688.461	3238.35
688.651	3236.3
688.841	3226.06
689.03	3148.24
689.22	3174.86
689.41	3287.5
689.599	3135.95
689.789	3019.22
689.979	3131.86
690.168	3101.14
690.358	3142.1
690.547	3049.94
690.737	3123.66
690.926	3068.37
691.116	2947.54
691.305	3117.52
691.495	2965.97
691.684	3111.38
691.874	2994.64
692.063	2922.96
692.252	2951.63
692.442	2976.21
692.631	2965.97
692.82	2845.14
693.01	2882
693.199	2775.51
693.388	2853.33
693.578	2812.37
693.767	2912.72
693.956	2855.38
694.146	2683.35
694.335	2882
694.524	2779.61
694.713	2822.61
694.902	2804.18
695.092	2898.39
695.281	2806.23
695.47	2542.04
695.659	2669.02
695.848	2642.39
696.037	2671.06
696.226	2748.89
696.415	2673.11
696.604	2755.03
696.793	2679.26
696.982	2640.34
697.171	2738.65
697.36	2720.21
697.549	2666.97
697.738	2546.14
697.927	2673.11
698.116	2697.69
698.305	2619.86
698.494	2568.66
698.683	2642.39
698.872	2716.12
699.061	2591.19
699.25	2597.34
699.438	2587.1
699.627	2535.9
699.816	2378.2
700.005	2478.55
700.193	2556.38
700.382	2464.22
700.571	2595.29
700.76	2492.89
700.948	2619.86
701.137	2494.94
701.326	2501.08
701.514	2531.8
701.703	2574.81
701.892	2580.95
702.08	2482.65
702.269	2507.23
702.457	2437.59
702.646	2492.89
702.834	2478.55
703.023	2609.62
703.212	2464.22
703.4	2589.14
703.589	2386.4
703.777	2398.68
703.965	2494.94
704.154	2367.96
704.342	2484.7
704.531	2398.68
704.719	2353.63
704.907	2470.36
705.096	2394.59
705.284	2370.01
705.472	2441.69
705.661	2417.12
705.849	2464.22
706.037	2304.48
706.226	2390.49
706.414	2488.79
706.602	2361.82
706.79	2396.64
706.979	2341.34
707.167	2396.64
707.355	2400.73
707.543	2392.54
707.731	2359.77
707.919	2378.2
708.107	2320.86
708.296	2404.83
708.484	2370.01
708.672	2308.57
708.86	2386.4
709.048	2347.48
709.236	2214.37
709.424	2437.59
709.612	2421.21
709.8	2337.24
709.988	2367.96
710.176	2351.58
710.364	2279.9
710.551	2314.72
710.739	2384.35
710.927	2359.77
711.115	2269.66
711.303	2333.15
711.491	2331.1
711.679	2257.37
711.866	2476.51
712.054	2468.31
712.242	2222.56
712.43	2406.88
712.617	2214.37
712.805	2302.43
712.993	2240.99
713.181	2265.57
713.368	2230.75
713.556	2374.11
713.744	2255.33
713.931	2503.13
714.119	2327
714.306	2238.94
714.494	2210.27
714.682	2349.53
714.869	2273.76
715.057	2331.1
715.244	2286.05
715.432	2382.3
715.619	2300.38
715.807	2347.48
715.994	2197.98
716.182	2337.24
716.369	2398.68
716.556	2329.05
716.744	2230.75
716.931	2273.76
717.119	2275.81
717.306	2271.71
717.493	2255.33
717.681	2378.2
717.868	2275.81
718.055	2279.9
718.242	2288.09
718.43	2234.85
718.617	2263.52
718.804	2238.94
718.991	2265.57
719.179	2322.91
719.366	2304.48
719.553	2187.74
719.74	2247.13
719.927	2275.81
720.114	2300.38
720.301	2267.61
720.488	2333.15
720.676	2208.22
720.863	2394.59
721.05	2335.2
721.237	2232.8
721.424	2236.89
721.611	2306.52
721.798	2306.52
721.985	2240.99
722.172	2191.84
722.358	2238.94
722.545	2230.75
722.732	2312.67
722.919	2296.28
723.106	2296.28
723.293	2271.71
723.48	2189.79
723.667	2220.51
723.853	2306.52
724.04	2216.41
724.227	2286.05
724.414	2308.57
724.6	2136.54
724.787	2298.33
724.974	2195.93
725.161	2238.94
725.347	2240.99
725.534	2234.85
725.72	2273.76
725.907	2290.14
726.094	2284
726.28	2222.56
726.467	2281.95
726.653	2290.14
726.84	2337.24
727.027	2367.96
727.213	2347.48
727.4	2353.63
727.586	2355.68
727.773	2279.9
727.959	2197.98
728.145	2247.13
728.332	2263.52
728.518	2206.17
728.705	2202.08
728.891	2316.76
729.077	2185.69
729.264	2413.02
729.45	2243.04
729.636	2259.42
729.823	2312.67
730.009	2234.85
730.195	2288.09
730.382	2361.82
730.568	2312.67
730.754	2226.65
730.94	2216.41
731.126	2230.75
731.313	2388.44
731.499	2298.33
731.685	2281.95
731.871	2361.82
732.057	2263.52
732.243	2372.06
732.429	2247.13
732.615	2255.33
732.801	2224.61
732.987	2333.15
733.173	2437.59
733.359	2228.7
733.545	2296.28
733.731	2423.26
733.917	2300.38
734.103	2263.52
734.289	2386.4
734.475	2345.44
734.661	2275.81
734.847	2265.57
735.033	2429.4
735.219	2316.76
735.404	2339.29
735.59	2298.33
735.776	2259.42
735.962	2208.22
736.148	2228.7
736.333	2372.06
736.519	2292.19
736.705	2296.28
736.89	2247.13
737.076	2249.18
737.262	2341.34
737.447	2222.56
737.633	2173.41
737.819	2279.9
738.004	2222.56
738.19	2157.02
738.375	2253.28
738.561	2284
738.747	2275.81
738.932	2193.89
739.118	2240.99
739.303	2173.41
739.489	2236.89
739.674	2107.87
739.859	2142.69
740.045	2300.38
740.23	2128.35
740.416	2136.54
740.601	2150.88
740.786	2202.08
740.972	2169.31
741.157	2132.45
741.342	2157.02
741.528	2200.03
741.713	2146.78
741.898	2103.78
742.084	2220.51
742.269	2142.69
742.454	2116.06
742.639	2197.98
742.824	2042.34
743.01	2132.45
743.195	2081.25
743.38	2009.57
743.565	2210.27
743.75	2140.64
743.935	2052.58
744.12	2099.68
744.305	2077.15
744.49	2011.62
744.675	2085.34
744.86	1952.23
745.045	1976.8
745.23	2136.54
745.415	2109.92
745.6	2046.43
745.785	1929.7
745.97	2087.39
746.155	1882.6
746.34	2032.1
746.525	1966.56
746.71	2034.14
746.895	2009.57
747.079	1878.5
747.264	1937.89
747.449	1956.32
747.634	1956.32
747.819	1878.5
748.003	1839.59
748.188	1847.78
748.373	1872.36
748.557	1845.73
748.742	1886.69
748.927	1833.44
749.111	1853.92
749.296	1677.8
749.481	1870.31
749.665	1831.4
749.85	1747.43
750.034	1755.62
750.219	1831.4
750.404	1774.05
750.588	1706.47
750.773	1620.46
750.957	1659.37
751.141	1665.51
751.326	1683.94
751.51	1690.09
751.695	1651.17
751.879	1630.7
752.064	1661.41
752.248	1780.2
752.432	1536.49
752.617	1548.78
752.801	1681.89
752.985	1522.15
753.17	1614.31
753.354	1491.43
753.538	1585.64
753.722	1593.83
753.907	1452.52
754.091	1489.39
754.275	1485.29
754.459	1468.91
754.643	1559.02
754.828	1509.86
755.012	1427.95
755.196	1432.04
755.38	1571.3
755.564	1446.38
755.748	1378.79
755.932	1501.67
756.116	1440.23
756.3	1427.95
756.484	1403.37
756.668	1481.19
756.852	1389.03
757.036	1313.26
757.22	1317.36
757.404	1325.55
757.588	1354.22
757.772	1362.41
757.956	1315.31
758.14	1337.84
758.323	1317.36
758.507	1292.78
758.691	1214.96
758.875	1253.87
759.059	1407.47
759.242	1315.31
759.426	1247.72
759.61	1247.72
759.794	1241.58
759.977	1290.73
760.161	1231.34
760.345	1266.16
760.528	1229.29
760.712	1249.77
760.895	1184.24
761.079	1194.48
761.263	1182.19
761.446	1257.96
761.63	1141.23
761.813	1184.24
761.997	1044.98
762.18	1180.14
762.364	1180.14
762.547	1108.46
762.731	1153.52
762.914	1051.12
763.098	1186.29
763.281	1141.23
763.464	1100.27
763.648	1130.99
763.831	1079.79
764.015	1202.67
764.198	1071.6
764.381	1049.07
764.564	1034.74
764.748	1075.7
764.931	1087.98
765.114	1028.59
765.297	1106.42
765.481	1026.54
765.664	985.58
765.847	1030.64
766.03	1069.55
766.213	1036.78
766.397	1028.59
766.58	1018.35
766.763	967.15
766.946	969.2
767.129	1032.69
767.312	1024.5
767.495	1016.3
767.678	989.68
767.861	946.67
768.044	965.11
768.227	883.19
768.41	963.06
768.593	973.3
768.776	899.57
768.959	958.96
769.142	1061.36
769.324	940.53
769.507	985.58
769.69	995.82
769.873	885.23
770.056	997.87
770.239	834.04
770.421	1010.16
770.604	903.67
770.787	952.82
770.97	862.71
771.152	840.18
771.335	924.15
771.518	846.32
771.7	918
771.883	913.91
772.066	920.05
772.248	838.13
772.431	903.67
772.613	883.19
772.796	924.15
772.978	915.95
773.161	862.71
773.343	854.51
773.526	799.22
773.708	778.74
773.891	813.56
774.073	856.56
774.256	758.26
774.438	870.9
774.621	813.56
774.803	768.5
774.985	825.84
775.168	764.4
775.35	825.84
775.532	805.36
775.715	768.5
775.897	748.02
776.079	748.02
776.261	754.16
776.444	803.32
776.626	717.3
776.808	715.25
776.99	698.87
777.173	719.35
777.355	731.64
777.537	688.63
777.719	725.49
777.901	715.25
778.083	707.06
778.265	651.77
778.447	657.91
778.629	684.53
778.811	659.96
778.993	676.34
779.175	643.57
779.357	690.68
779.539	612.85
779.721	670.2
779.903	676.34
780.085	651.77
780.267	614.9
780.449	641.53
780.631	641.53
780.812	567.8
780.994	643.57
781.176	600.57
781.358	557.56
781.54	571.9
781.721	600.57
781.903	616.95
782.085	559.61
782.267	610.81
782.448	600.57
782.63	582.14
782.812	539.13
782.993	485.88
783.175	543.22
783.357	512.5
783.538	582.14
783.72	526.84
783.901	629.24
784.083	530.94
784.264	467.45
784.446	508.41
784.627	547.32
784.809	598.52
784.99	487.93
785.172	502.26
785.353	596.47
785.535	461.3
785.716	406.01
785.897	406.01
786.079	500.22
786.26	489.98
786.441	586.23
786.623	428.54
786.804	481.78
786.985	494.07
787.167	506.36
787.348	438.78
787.529	457.21
787.71	457.21
787.891	504.31
788.073	430.59
788.254	430.59
788.435	440.83
788.616	463.35
788.797	381.43
788.978	461.3
789.159	416.25
789.34	426.49
789.522	438.78
789.703	444.92
789.884	457.21
790.065	444.92
790.246	428.54
790.427	383.48
790.607	363
790.788	428.54
790.969	338.43
791.15	387.58
791.331	442.87
791.512	373.24
791.693	375.29
791.874	430.59
792.054	422.39
792.235	389.63
792.416	375.29
792.597	381.43
792.778	397.82
792.958	375.29
793.139	301.56
793.32	322.04
793.5	338.43
793.681	338.43
793.862	307.71
794.042	289.28
794.223	354.81
794.404	297.47
794.584	317.95
794.765	301.56
794.945	334.33
795.126	287.23
795.306	270.84
795.487	317.95
795.667	371.19
795.848	317.95
796.028	279.04
796.209	285.18
796.389	305.66
796.57	240.12
796.75	285.18
796.93	264.7
797.111	285.18
797.291	313.85
797.471	358.91
797.652	264.7
797.832	350.71
798.012	248.32
798.192	256.51
798.373	258.56
798.553	215.55
798.733	332.28
798.913	297.47
799.093	293.37
799.274	193.02
799.454	285.18
799.634	246.27
799.814	272.89
799.994	276.99
800.174	289.28
800.354	262.65
800.534	221.69
800.714	217.6
800.894	207.36
801.074	227.84
801.254	150.01
801.434	315.9
801.614	176.64
801.794	172.54
801.974	690.68
802.154	209.4
802.334	281.08
802.514	233.98
802.693	240.12
802.873	184.83
803.053	291.32
803.233	324.09
803.413	258.56
803.592	281.08
803.772	268.8
803.952	178.69
804.131	223.74
804.311	219.64
804.491	199.16
804.67	197.12
804.85	205.31
805.03	215.55
805.209	242.17
805.389	305.66
805.568	199.16
805.748	227.84
805.928	121.34
806.107	209.4
806.287	215.55
806.466	168.45
806.646	225.79
806.825	178.69
807.004	227.84
807.184	276.99
807.363	184.83
807.543	174.59
807.722	240.12
807.901	264.7
808.081	209.4
808.26	117.25
808.439	117.25
808.619	152.06
808.798	217.6
808.977	207.36
809.156	250.36
809.336	178.69
809.515	152.06
809.694	129.53
809.873	199.16
810.052	233.98
810.231	215.55
810.411	223.74
810.59	225.79
810.769	203.26
810.948	162.3
811.127	133.63
811.306	199.16
811.485	219.64
811.664	217.6
811.843	201.21
812.022	119.29
812.201	104.96
812.38	182.78
812.559	190.97
812.737	209.4
812.916	150.01
813.095	158.21
813.274	231.93
813.453	211.45
813.632	137.73
813.811	176.64
813.989	131.58
814.168	229.88
814.347	76.29
814.526	64
814.704	195.07
814.883	117.25
815.062	203.26
815.24	145.92
815.419	43.52
815.598	143.87
815.776	133.63
815.955	154.11
816.133	45.57
816.312	111.1
816.49	164.35
816.669	143.87
816.847	166.4
817.026	160.25
817.204	174.59
817.383	121.34
817.561	102.91
817.74	166.4
817.918	176.64
818.097	94.72
818.275	137.73
818.453	143.87
818.632	107.01
818.81	143.87
818.988	193.02
819.167	158.21
819.345	215.55
819.523	88.57
819.701	86.53
819.879	84.48
820.058	141.82
820.236	119.29
820.414	152.06
820.592	135.68
820.77	6.66
820.948	127.49
821.127	160.25
821.305	133.63
821.483	199.16
821.661	199.16
821.839	129.53
822.017	86.53
822.195	78.33
822.373	227.84
822.551	117.25
822.729	152.06
822.907	33.28
823.085	174.59
823.262	96.77
823.44	94.72
823.618	125.44
823.796	123.39
823.974	119.29
824.152	119.29
824.329	162.3
824.507	160.25
824.685	162.3
824.863	104.96
825.04	133.63
825.218	117.25
825.396	111.1
825.574	150.01
825.751	59.9
825.929	29.18
826.107	133.63
826.284	43.52
826.462	150.01
826.639	117.25
826.817	92.67
826.994	86.53
827.172	76.29
827.349	174.59
827.527	111.1
827.704	162.3
827.882	117.25
828.059	166.4
828.237	111.1
828.414	143.87
828.591	96.77
828.769	6.66
828.946	137.73
829.124	135.68
829.301	107.01
829.478	133.63
829.655	92.67
829.833	117.25
830.01	72.19
830.187	117.25
830.364	135.68
830.542	86.53
830.719	86.53
830.896	170.49
831.073	78.33
831.25	102.91
831.427	125.44
831.604	59.9
831.782	45.57
831.959	35.33
832.136	4.61
832.313	-13.82
832.49	84.48
832.667	94.72
832.844	98.81
833.021	88.57
833.198	68.09
833.374	117.25
833.551	182.78
833.728	55.81
833.905	150.01
834.082	98.81
834.259	100.86
834.436	137.73
834.612	72.19
834.789	139.77
834.966	68.09
835.143	143.87
835.319	29.18
835.496	133.63
835.673	121.34
835.85	119.29
836.026	127.49
836.203	84.48
836.38	96.77
836.556	51.71
836.733	27.14
836.909	104.96
837.086	94.72
837.262	82.43
837.439	84.48
837.616	35.33
837.792	55.81
837.968	76.29
838.145	45.57
838.321	86.53
838.498	72.19
838.674	47.62
838.851	51.71
839.027	96.77
839.203	-1.54
839.38	76.29
839.556	92.67
839.732	43.52
839.909	45.57
840.085	82.43
840.261	-3.58
840.437	61.95
840.614	70.14
840.79	143.87
840.966	84.48
841.142	78.33
841.318	59.9
841.494	98.81
841.671	96.77
841.847	100.86
842.023	23.04
842.199	18.94
842.375	96.77
842.551	59.9
842.727	18.94
842.903	129.53
843.079	109.05
843.255	37.38
843.431	55.81
843.607	33.28
843.783	14.85
843.959	35.33
844.134	47.62
844.31	117.25
844.486	90.62
844.662	107.01
844.838	92.67
845.013	59.9
845.189	68.09
845.365	109.05
845.541	14.85
845.716	70.14
845.892	12.8
846.068	145.92
846.244	-7.68
846.419	102.91
846.595	39.42
846.77	64
846.946	39.42
847.122	47.62
847.297	82.43
847.473	35.33
847.648	25.09
847.824	115.2
847.999	74.24
848.175	14.85
848.35	51.71
848.526	-54.78
848.701	53.76
848.876	104.96
849.052	27.14
849.227	88.57
849.403	35.33
849.578	-9.73
849.753	80.38
849.929	92.67
850.104	25.09
850.279	66.05
850.454	-30.21
850.63	31.23
850.805	96.77
850.98	61.95
851.155	51.71
851.33	117.25
851.505	27.14
851.681	102.91
851.856	39.42
852.031	55.81
852.206	109.05
852.381	61.95
852.556	53.76
852.731	55.81
852.906	64
853.081	59.9
853.256	74.24
853.431	59.9
853.606	20.99
853.781	2.56
853.956	-99.84
854.131	43.52
854.305	35.33
854.48	92.67
854.655	92.67
854.83	20.99
855.005	18.94
855.18	-46.59
855.354	64
855.529	6.66
855.704	-1.54
855.879	45.57
856.053	-50.69
856.228	10.75
856.403	29.18
856.577	47.62
856.752	10.75
856.926	117.25
857.101	39.42
857.276	23.04
857.45	31.23
857.625	90.62
857.799	102.91
857.974	-22.02
858.148	43.52
858.323	23.04
858.497	31.23
858.672	25.09
858.846	-62.98
859.02	70.14
859.195	39.42
859.369	29.18
859.543	-9.73
859.718	45.57
859.892	4.61
860.066	117.25
860.241	10.75
860.415	59.9
860.589	-11.78
860.763	96.77
860.938	-30.21
861.112	119.29
861.286	-54.78
861.46	4.61
861.634	84.48
861.808	92.67
861.982	59.9
862.157	39.42
862.331	-9.73
862.505	-5.63
862.679	-32.26
862.853	-5.63
863.027	43.52
863.201	100.86
863.375	59.9
863.549	4.61
863.722	121.34
863.896	35.33
864.07	-42.5
864.244	35.33
864.418	29.18
864.592	80.38
864.766	94.72
864.939	-5.63
865.113	-36.35
865.287	-42.5
865.461	-54.78
865.634	80.38
865.808	53.76
865.982	-13.82
866.156	20.99
866.329	8.7
866.503	80.38
866.676	84.48
866.85	76.29
867.024	31.23
867.197	-19.97
867.371	94.72
867.544	-19.97
867.718	53.76
867.891	92.67
868.065	29.18
868.238	-19.97
868.412	143.87
868.585	-26.11
868.759	2.56
868.932	-50.69
869.105	25.09
869.279	18.94
869.452	-26.11
869.625	55.81
869.799	4.61
869.972	-13.82
870.145	-38.4
870.319	74.24
870.492	72.19
870.665	-26.11
870.838	39.42
871.011	59.9
871.185	39.42
871.358	-67.07
871.531	59.9
871.704	59.9
871.877	31.23
872.05	2.56
872.223	27.14
872.396	6.66
872.569	-52.74
872.742	6.66
872.915	66.05
873.088	2.56
873.261	-22.02
873.434	37.38
873.607	31.23
873.78	37.38
873.953	66.05
874.126	-11.78
874.299	12.8
874.471	-54.78
874.644	18.94
874.817	-26.11
874.99	45.57
875.163	-54.78
875.335	6.66
875.508	76.29
875.681	68.09
875.853	16.9
876.026	43.52
876.199	-17.92
876.371	-11.78
876.544	-5.63
876.717	20.99
876.889	-22.02
877.062	43.52
877.234	-58.88
877.407	20.99
877.579	2.56
877.752	27.14
877.924	94.72
878.097	-42.5
878.269	12.8
878.442	59.9
878.614	20.99
878.786	68.09
878.959	31.23
879.131	39.42
879.303	-17.92
879.476	78.33
879.648	49.66
879.82	-32.26
879.993	10.75
880.165	2.56
880.337	-3.58
880.509	78.33
880.681	-1.54
880.854	-17.92
881.026	55.81
881.198	64
881.37	31.23
881.542	43.52
881.714	27.14
881.886	-28.16
882.058	16.9
882.23	43.52
882.402	12.8
882.574	92.67
882.746	78.33
882.918	88.57
883.09	57.86
883.262	-11.78
883.434	-3.58
883.606	-5.63
883.778	-5.63
883.95	35.33
884.122	6.66
884.293	70.14
884.465	6.66
884.637	59.9
884.809	-9.73
884.98	8.7
885.152	-17.92
885.324	18.94
885.496	-36.35
885.667	45.57
885.839	47.62
886.011	45.57
886.182	0.51
886.354	45.57
886.525	47.62
886.697	45.57
886.869	-17.92
887.04	-1.54
887.212	88.57
887.383	76.29
887.555	-50.69
887.726	29.18
887.897	-36.35
888.069	51.71
888.24	18.94
888.412	37.38
888.583	12.8
888.754	84.48
888.926	-28.16
889.097	10.75
889.268	51.71
889.44	-19.97
889.611	-19.97
889.782	-87.55
889.953	25.09
890.125	12.8
890.296	25.09
890.467	-1.54
890.638	-54.78
890.809	68.09
890.98	-1.54
891.151	55.81
891.323	14.85
891.494	4.61
891.665	-69.12
891.836	-58.88
892.007	68.09
892.178	49.66
892.349	-13.82
892.52	-30.21
892.691	23.04
892.862	59.9
893.032	-7.68
893.203	23.04
893.374	-5.63
893.545	78.33
893.716	55.81
893.887	27.14
894.057	-13.82
894.228	23.04
894.399	6.66
894.57	80.38
894.74	51.71
894.911	18.94
895.082	55.81
895.253	27.14
895.423	51.71
895.594	16.9
895.764	64
895.935	-13.82
896.106	25.09
896.276	-1.54
896.447	-9.73
896.617	53.76
896.788	33.28
896.958	10.75
897.129	33.28
897.299	18.94
897.47	104.96
897.64	4.61
897.81	2.56
897.981	-11.78
898.151	2.56
898.322	51.71
898.492	37.38
898.662	-36.35
898.832	47.62
899.003	109.05
899.173	27.14
899.343	8.7
899.513	12.8
