Data from USB4F104151__66__14-43-17-859.txt Node

Date: Thu Mar 13 14:43:17 EDT 2025
User: louis
Spectrometer: USB4F10415
Trigger mode: 4
Integration Time (sec): 2.000000E-2
Scans to average: 1
Electric dark correction enabled: true
Nonlinearity correction enabled: false
Boxcar width: 0
XAxis mode: Wavelengths
Number of Pixels in Spectrum: 3648
>>>>>Begin Spectral Data<<<<<
178.204	-180.39
178.424	-180.39
178.644	-180.39
178.864	-75.95
179.084	-67.75
179.304	-77.99
179.524	14.17
179.744	3.93
179.964	20.31
180.184	10.07
180.404	-10.41
180.624	12.12
180.844	38.74
181.064	-51.37
181.283	53.08
181.503	-77.99
181.723	65.36
181.943	-20.65
182.163	44.88
182.383	73.56
182.602	38.74
182.822	32.6
183.042	22.36
183.262	28.5
183.482	36.69
183.701	-24.75
183.921	77.65
184.141	79.7
184.361	73.56
184.58	-12.46
184.8	85.84
185.02	-18.6
185.239	83.8
185.459	-28.84
185.679	46.93
185.898	-24.75
186.118	46.93
186.338	53.08
186.557	12.12
186.777	24.4
186.997	-12.46
187.216	77.65
187.436	65.36
187.655	-14.51
187.875	44.88
188.095	81.75
188.314	61.27
188.534	14.17
188.753	28.5
188.973	12.12
189.192	61.27
189.412	-0.17
189.631	73.56
189.851	5.97
190.07	71.51
190.29	-53.42
190.509	59.22
190.729	1.88
190.948	-45.23
191.168	118.61
191.387	69.46
191.607	-12.46
191.826	10.07
192.045	46.93
192.265	-0.17
192.484	-2.22
192.704	-8.36
192.923	26.45
193.142	61.27
193.362	69.46
193.581	32.6
193.8	77.65
194.02	36.69
194.239	40.79
194.458	85.84
194.678	38.74
194.897	77.65
195.116	28.5
195.335	61.27
195.555	46.93
195.774	24.4
195.993	14.17
196.212	53.08
196.432	44.88
196.651	12.12
196.87	-4.27
197.089	81.75
197.308	38.74
197.528	71.51
197.747	-8.36
197.966	53.08
198.185	28.5
198.404	30.55
198.623	-4.27
198.842	94.04
199.062	55.12
199.281	53.08
199.5	46.93
199.719	61.27
199.938	51.03
200.157	38.74
200.376	38.74
200.595	-8.36
200.814	-2.22
201.033	8.02
201.252	89.94
201.471	77.65
201.69	38.74
201.909	85.84
202.128	-2.22
202.347	67.41
202.566	-24.75
202.785	61.27
203.004	-32.94
203.223	102.23
203.442	94.04
203.661	16.21
203.879	106.32
204.098	38.74
204.317	63.32
204.536	67.41
204.755	32.6
204.974	16.21
205.193	85.84
205.411	104.28
205.63	36.69
205.849	34.64
206.068	71.51
206.287	-28.84
206.505	114.52
206.724	44.88
206.943	28.5
207.162	75.6
207.381	5.97
207.599	16.21
207.818	69.46
208.037	22.36
208.255	1.88
208.474	38.74
208.693	61.27
208.911	85.84
209.13	-12.46
209.349	63.32
209.567	36.69
209.786	79.7
210.005	73.56
210.223	53.08
210.442	-41.13
210.661	28.5
210.879	-22.7
211.098	-6.31
211.316	-0.17
211.535	14.17
211.753	53.08
211.972	28.5
212.191	36.69
212.409	30.55
212.628	110.42
212.846	20.31
213.065	5.97
213.283	61.27
213.502	53.08
213.72	-10.41
213.938	36.69
214.157	-16.55
214.375	-12.46
214.594	61.27
214.812	14.17
215.031	87.89
215.249	-16.55
215.467	36.69
215.686	53.08
215.904	26.45
216.122	24.4
216.341	120.66
216.559	-37.03
216.778	79.7
216.996	-4.27
217.214	-4.27
217.432	65.36
217.651	32.6
217.869	12.12
218.087	-8.36
218.306	-4.27
218.524	173.91
218.742	94.04
218.96	65.36
219.179	3.93
219.397	12.12
219.615	130.9
219.833	63.32
220.051	75.6
220.27	28.5
220.488	44.88
220.706	36.69
220.924	14.17
221.142	73.56
221.36	3.93
221.578	-37.03
221.796	38.74
222.015	63.32
222.233	-4.27
222.451	61.27
222.669	-37.03
222.887	44.88
223.105	-28.84
223.323	-28.84
223.541	61.27
223.759	85.84
223.977	55.12
224.195	71.51
224.413	32.6
224.631	12.12
224.849	20.31
225.067	28.5
225.285	22.36
225.503	-8.36
225.721	28.5
225.939	-12.46
226.157	3.93
226.375	63.32
226.592	63.32
226.81	28.5
227.028	12.12
227.246	94.04
227.464	-26.79
227.682	51.03
227.9	61.27
228.117	-10.41
228.335	-4.27
228.553	102.23
228.771	77.65
228.989	40.79
229.206	69.46
229.424	63.32
229.642	100.18
229.86	5.97
230.077	83.8
230.295	89.94
230.513	61.27
230.731	3.93
230.948	53.08
231.166	110.42
231.384	28.5
231.601	-49.32
231.819	55.12
232.037	-2.22
232.254	48.98
232.472	48.98
232.689	71.51
232.907	149.33
233.125	-12.46
233.342	46.93
233.56	-88.23
233.777	32.6
233.995	44.88
234.213	8.02
234.43	38.74
234.648	-108.71
234.865	14.17
235.083	69.46
235.3	14.17
235.518	-8.36
235.735	65.36
235.953	48.98
236.17	61.27
236.388	44.88
236.605	12.12
236.822	30.55
237.04	40.79
237.257	87.89
237.475	-24.75
237.692	12.12
237.909	5.97
238.127	65.36
238.344	-10.41
238.562	-24.75
238.779	-28.84
238.996	12.12
239.214	81.75
239.431	91.99
239.648	51.03
239.865	63.32
240.083	85.84
240.3	46.93
240.517	57.17
240.735	71.51
240.952	20.31
241.169	42.84
241.386	-4.27
241.603	-2.22
241.821	61.27
242.038	120.66
242.255	14.17
242.472	53.08
242.689	38.74
242.907	-0.17
243.124	-0.17
243.341	-4.27
243.558	30.55
243.775	53.08
243.992	-43.18
244.209	-2.22
244.426	85.84
244.643	55.12
244.86	10.07
245.078	40.79
245.295	-20.65
245.512	36.69
245.729	-32.94
245.946	14.17
246.163	57.17
246.38	-20.65
246.597	46.93
246.814	-0.17
247.031	22.36
247.248	69.46
247.464	26.45
247.681	-14.51
247.898	32.6
248.115	61.27
248.332	-4.27
248.549	48.98
248.766	118.61
248.983	73.56
249.2	8.02
249.417	44.88
249.633	44.88
249.85	32.6
250.067	36.69
250.284	3.93
250.501	57.17
250.717	3.93
250.934	57.17
251.151	44.88
251.368	32.6
251.585	-0.17
251.801	34.64
252.018	-26.79
252.235	12.12
252.451	3.93
252.668	12.12
252.885	32.6
253.102	-51.37
253.318	24.4
253.535	-12.46
253.752	18.26
253.968	-8.36
254.185	-16.55
254.401	61.27
254.618	53.08
254.835	20.31
255.051	55.12
255.268	8.02
255.484	42.84
255.701	34.64
255.917	-4.27
256.134	-2.22
256.351	61.27
256.567	-32.94
256.784	8.02
257	44.88
257.217	30.55
257.433	53.08
257.65	-20.65
257.866	44.88
258.082	75.6
258.299	65.36
258.515	-0.17
258.732	-0.17
258.948	-0.17
259.165	22.36
259.381	5.97
259.597	3.93
259.814	57.17
260.03	85.84
260.246	-10.41
260.463	32.6
260.679	44.88
260.895	3.93
261.112	73.56
261.328	-20.65
261.544	77.65
261.761	67.41
261.977	69.46
262.193	-20.65
262.409	12.12
262.626	55.12
262.842	20.31
263.058	-37.03
263.274	5.97
263.49	12.12
263.707	75.6
263.923	40.79
264.139	-43.18
264.355	91.99
264.571	104.28
264.787	-32.94
265.004	87.89
265.22	51.03
265.436	79.7
265.652	-57.51
265.868	20.31
266.084	-0.17
266.3	53.08
266.516	-4.27
266.732	28.5
266.948	30.55
267.164	108.37
267.38	-16.55
267.596	36.69
267.812	83.8
268.028	5.97
268.244	69.46
268.46	48.98
268.676	-63.66
268.892	61.27
269.108	-16.55
269.324	-4.27
269.54	48.98
269.756	28.5
269.972	12.12
270.188	14.17
270.403	-90.28
270.619	69.46
270.835	40.79
271.051	12.12
271.267	51.03
271.483	69.46
271.698	79.7
271.914	79.7
272.13	-12.46
272.346	5.97
272.562	10.07
272.777	48.98
272.993	55.12
273.209	-16.55
273.425	61.27
273.64	38.74
273.856	14.17
274.072	14.17
274.287	79.7
274.503	53.08
274.719	94.04
274.934	18.26
275.15	-28.84
275.366	40.79
275.581	-51.37
275.797	-16.55
276.012	3.93
276.228	-2.22
276.444	-0.17
276.659	22.36
276.875	3.93
277.09	22.36
277.306	-20.65
277.521	-18.6
277.737	63.32
277.952	51.03
278.168	8.02
278.383	48.98
278.599	-34.99
278.814	-18.6
279.03	22.36
279.245	36.69
279.461	61.27
279.676	104.28
279.892	-37.03
280.107	30.55
280.322	14.17
280.538	53.08
280.753	63.32
280.969	8.02
281.184	-30.89
281.399	36.69
281.615	106.32
281.83	-18.6
282.045	-16.55
282.26	83.8
282.476	12.12
282.691	32.6
282.906	-26.79
283.122	22.36
283.337	-37.03
283.552	87.89
283.767	3.93
283.983	28.5
284.198	16.21
284.413	12.12
284.628	20.31
284.843	83.8
285.058	-4.27
285.274	79.7
285.489	67.41
285.704	122.71
285.919	12.12
286.134	44.88
286.349	42.84
286.564	-28.84
286.779	53.08
286.995	71.51
287.21	69.46
287.425	-0.17
287.64	34.64
287.855	-8.36
288.07	20.31
288.285	44.88
288.5	53.08
288.715	20.31
288.93	-8.36
289.145	44.88
289.36	-34.99
289.575	-20.65
289.79	1.88
290.004	53.08
290.219	-41.13
290.434	-26.79
290.649	28.5
290.864	59.22
291.079	32.6
291.294	61.27
291.509	-12.46
291.724	18.26
291.938	32.6
292.153	55.12
292.368	28.5
292.583	89.94
292.798	65.36
293.012	12.12
293.227	28.5
293.442	44.88
293.657	28.5
293.871	71.51
294.086	65.36
294.301	81.75
294.516	94.04
294.73	-4.27
294.945	57.17
295.16	28.5
295.374	77.65
295.589	44.88
295.804	40.79
296.018	53.08
296.233	38.74
296.447	48.98
296.662	14.17
296.877	-4.27
297.091	14.17
297.306	44.88
297.52	44.88
297.735	53.08
297.949	-2.22
298.164	98.13
298.378	-80.04
298.593	44.88
298.807	98.13
299.022	22.36
299.236	5.97
299.451	46.93
299.665	-20.65
299.88	44.88
300.094	-2.22
300.309	77.65
300.523	79.7
300.737	40.79
300.952	20.31
301.166	83.8
301.381	-12.46
301.595	14.17
301.809	87.89
302.024	-16.55
302.238	20.31
302.452	28.5
302.667	61.27
302.881	87.89
303.095	55.12
303.309	20.31
303.524	65.36
303.738	-39.08
303.952	40.79
304.166	100.18
304.381	12.12
304.595	40.79
304.809	36.69
305.023	24.4
305.237	-26.79
305.452	44.88
305.666	53.08
305.88	53.08
306.094	24.4
306.308	44.88
306.522	36.69
306.736	12.12
306.95	67.41
307.164	14.17
307.379	71.51
307.593	24.4
307.807	46.93
308.021	73.56
308.235	-0.17
308.449	-43.18
308.663	40.79
308.877	32.6
309.091	12.12
309.305	55.12
309.519	20.31
309.733	-10.41
309.947	38.74
310.161	143.19
310.374	28.5
310.588	55.12
310.802	-16.55
311.016	48.98
311.23	55.12
311.444	-12.46
311.658	20.31
311.872	69.46
312.085	48.98
312.299	94.04
312.513	44.88
312.727	22.36
312.941	-12.46
313.154	87.89
313.368	-10.41
313.582	-12.46
313.796	-20.65
314.009	32.6
314.223	89.94
314.437	40.79
314.651	12.12
314.864	-8.36
315.078	3.93
315.292	-8.36
315.505	22.36
315.719	67.41
315.933	118.61
316.146	83.8
316.36	59.22
316.573	46.93
316.787	22.36
317.001	73.56
317.214	36.69
317.428	77.65
317.641	14.17
317.855	-8.36
318.068	55.12
318.282	55.12
318.495	53.08
318.709	77.65
318.922	8.02
319.136	81.75
319.349	-6.31
319.563	55.12
319.776	12.12
319.99	18.26
320.203	69.46
320.417	30.55
320.63	46.93
320.843	126.8
321.057	61.27
321.27	69.46
321.483	5.97
321.697	12.12
321.91	53.08
322.124	69.46
322.337	3.93
322.55	-4.27
322.763	5.97
322.977	48.98
323.19	-12.46
323.403	5.97
323.617	26.45
323.83	48.98
324.043	-47.27
324.256	5.97
324.469	28.5
324.683	28.5
324.896	-24.75
325.109	96.08
325.322	81.75
325.535	104.28
325.748	44.88
325.962	-2.22
326.175	75.6
326.388	112.47
326.601	126.8
326.814	22.36
327.027	22.36
327.24	12.12
327.453	-69.8
327.666	20.31
327.879	75.6
328.092	51.03
328.305	16.21
328.518	16.21
328.731	38.74
328.944	24.4
329.157	8.02
329.37	30.55
329.583	128.85
329.796	96.08
330.009	-0.17
330.222	59.22
330.435	77.65
330.648	69.46
330.861	53.08
331.073	20.31
331.286	79.7
331.499	46.93
331.712	12.12
331.925	59.22
332.138	38.74
332.35	5.97
332.563	-47.27
332.776	104.28
332.989	-67.75
333.202	85.84
333.414	24.4
333.627	22.36
333.84	-51.37
334.053	102.23
334.265	40.79
334.478	61.27
334.691	46.93
334.903	77.65
335.116	8.02
335.329	24.4
335.541	55.12
335.754	61.27
335.966	36.69
336.179	-4.27
336.392	10.07
336.604	61.27
336.817	3.93
337.029	77.65
337.242	26.45
337.454	38.74
337.667	-0.17
337.88	118.61
338.092	36.69
338.305	122.71
338.517	14.17
338.729	-4.27
338.942	28.5
339.154	-49.32
339.367	-14.51
339.579	53.08
339.792	28.5
340.004	114.52
340.217	-20.65
340.429	28.5
340.641	44.88
340.854	55.12
341.066	46.93
341.278	20.31
341.491	61.27
341.703	87.89
341.915	55.12
342.128	36.69
342.34	46.93
342.552	53.08
342.764	79.7
342.977	36.69
343.189	69.46
343.401	44.88
343.613	28.5
343.826	1.88
344.038	12.12
344.25	24.4
344.462	-55.47
344.674	69.46
344.886	30.55
345.099	34.64
345.311	126.8
345.523	89.94
345.735	5.97
345.947	36.69
346.159	22.36
346.371	12.12
346.583	8.02
346.795	73.56
347.007	77.65
347.219	112.47
347.431	67.41
347.643	159.57
347.855	28.5
348.067	69.46
348.279	12.12
348.491	71.51
348.703	14.17
348.915	-0.17
349.127	-0.17
349.339	20.31
349.551	61.27
349.763	69.46
349.975	38.74
350.187	53.08
350.399	81.75
350.61	3.93
350.822	32.6
351.034	91.99
351.246	16.21
351.458	53.08
351.669	73.56
351.881	8.02
352.093	118.61
352.305	53.08
352.517	-8.36
352.728	106.32
352.94	-2.22
353.152	122.71
353.363	8.02
353.575	87.89
353.787	65.36
353.999	77.65
354.21	61.27
354.422	57.17
354.633	89.94
354.845	77.65
355.057	-22.7
355.268	120.66
355.48	10.07
355.692	-0.17
355.903	12.12
356.115	46.93
356.326	-10.41
356.538	73.56
356.749	-39.08
356.961	61.27
357.172	10.07
357.384	14.17
357.595	104.28
357.807	32.6
358.018	53.08
358.23	16.21
358.441	81.75
358.653	65.36
358.864	-10.41
359.075	-41.13
359.287	22.36
359.498	53.08
359.709	139.09
359.921	108.37
360.132	65.36
360.344	104.28
360.555	-22.7
360.766	46.93
360.977	-10.41
361.189	89.94
361.4	24.4
361.611	57.17
361.823	36.69
362.034	73.56
362.245	20.31
362.456	16.21
362.667	104.28
362.879	-4.27
363.09	44.88
363.301	81.75
363.512	44.88
363.723	8.02
363.935	-14.51
364.146	44.88
364.357	-22.7
364.568	69.46
364.779	5.97
364.99	46.93
365.201	32.6
365.412	94.04
365.623	-20.65
365.834	-28.84
366.045	85.84
366.256	55.12
366.467	94.04
366.678	40.79
366.889	85.84
367.1	57.17
367.311	69.46
367.522	20.31
367.733	53.08
367.944	20.31
368.155	40.79
368.366	126.8
368.577	102.23
368.788	57.17
368.999	-12.46
369.209	36.69
369.42	94.04
369.631	91.99
369.842	48.98
370.053	38.74
370.264	53.08
370.474	20.31
370.685	5.97
370.896	44.88
371.107	81.75
371.317	110.42
371.528	-12.46
371.739	83.8
371.95	12.12
372.16	28.5
372.371	-2.22
372.582	81.75
372.792	53.08
373.003	28.5
373.214	83.8
373.424	16.21
373.635	40.79
373.846	44.88
374.056	8.02
374.267	65.36
374.477	110.42
374.688	20.31
374.898	-10.41
375.109	69.46
375.319	20.31
375.53	77.65
375.74	-0.17
375.951	87.89
376.161	30.55
376.372	102.23
376.582	32.6
376.793	77.65
377.003	24.4
377.214	12.12
377.424	57.17
377.635	85.84
377.845	-8.36
378.055	55.12
378.266	18.26
378.476	53.08
378.686	69.46
378.897	42.84
379.107	44.88
379.317	22.36
379.528	63.32
379.738	89.94
379.948	12.12
380.158	126.8
380.369	143.19
380.579	55.12
380.789	30.55
380.999	32.6
381.21	51.03
381.42	110.42
381.63	36.69
381.84	100.18
382.05	110.42
382.261	34.64
382.471	102.23
382.681	20.31
382.891	98.13
383.101	69.46
383.311	-14.51
383.521	106.32
383.731	91.99
383.941	14.17
384.151	67.41
384.361	5.97
384.571	87.89
384.781	22.36
384.991	69.46
385.201	192.34
385.411	53.08
385.621	110.42
385.831	46.93
386.041	98.13
386.251	53.08
386.461	69.46
386.671	69.46
386.881	67.41
387.091	44.88
387.301	118.61
387.511	8.02
387.72	22.36
387.93	44.88
388.14	87.89
388.35	20.31
388.56	36.69
388.769	91.99
388.979	20.31
389.189	53.08
389.399	30.55
389.609	69.46
389.818	108.37
390.028	30.55
390.238	46.93
390.447	87.89
390.657	77.65
390.867	110.42
391.076	30.55
391.286	65.36
391.496	-12.46
391.705	42.84
391.915	79.7
392.125	69.46
392.334	53.08
392.544	83.8
392.753	36.69
392.963	53.08
393.172	14.17
393.382	26.45
393.591	124.76
393.801	85.84
394.01	120.66
394.22	137.04
394.429	55.12
394.639	118.61
394.848	-0.17
395.058	36.69
395.267	3.93
395.477	36.69
395.686	44.88
395.895	96.08
396.105	151.38
396.314	53.08
396.524	71.51
396.733	67.41
396.942	48.98
397.152	91.99
397.361	155.47
397.57	46.93
397.78	65.36
397.989	69.46
398.198	139.09
398.407	120.66
398.617	135
398.826	98.13
399.035	81.75
399.244	91.99
399.453	34.64
399.663	151.38
399.872	98.13
400.081	65.36
400.29	153.43
400.499	34.64
400.708	104.28
400.917	135
401.127	98.13
401.336	102.23
401.545	137.04
401.754	120.66
401.963	96.08
402.172	79.7
402.381	112.47
402.59	122.71
402.799	89.94
403.008	48.98
403.217	120.66
403.426	151.38
403.635	126.8
403.844	106.32
404.053	110.42
404.262	57.17
404.471	137.04
404.68	61.27
404.888	85.84
405.097	85.84
405.306	198.48
405.515	155.47
405.724	126.8
405.933	169.81
406.142	175.95
406.35	157.52
406.559	171.86
406.768	241.49
406.977	192.34
407.185	153.43
407.394	186.19
407.603	89.94
407.812	206.67
408.02	227.15
408.229	167.76
408.438	126.8
408.646	182.1
408.855	180.05
409.064	241.49
409.272	169.81
409.481	237.39
409.69	200.53
409.898	202.58
410.107	307.02
410.315	245.59
410.524	200.53
410.733	327.5
410.941	274.26
411.15	292.69
411.358	253.78
411.567	315.22
411.775	327.5
411.984	282.45
412.192	364.37
412.401	380.75
412.609	337.74
412.818	380.75
413.026	462.67
413.234	393.04
413.443	468.81
413.651	489.29
413.86	368.46
414.068	470.86
414.276	501.58
414.485	417.61
414.693	542.54
414.901	620.36
415.11	464.72
415.318	507.73
415.526	630.6
415.734	579.4
415.943	608.08
416.151	589.64
416.359	630.6
416.567	675.66
416.776	720.71
416.984	714.57
417.192	759.63
417.4	673.61
417.608	671.56
417.817	733
418.025	905.03
418.233	915.27
418.441	905.03
418.649	847.69
418.857	964.42
419.065	954.18
419.273	986.95
419.481	989
419.689	1009.48
419.897	1068.87
420.105	1021.77
420.313	1056.58
420.521	1341.25
420.729	1234.75
420.937	1240.9
421.145	1339.2
421.353	1410.88
421.561	1423.17
421.769	1449.79
421.977	1560.38
422.185	1464.13
422.393	1673.02
422.601	1724.22
422.809	1609.53
423.017	1765.18
423.224	1822.52
423.432	1916.73
423.64	1881.91
423.848	2045.75
424.056	1853.24
424.263	2142
424.471	2207.54
424.679	2228.02
424.887	2307.89
425.094	2338.61
425.302	2328.37
425.51	2379.57
425.718	2629.42
425.925	2539.31
426.133	2666.28
426.341	2840.36
426.548	2901.8
426.756	2817.83
426.964	2869.03
427.171	3073.83
427.379	3172.13
427.586	3143.46
427.794	3317.54
428.001	3571.49
428.209	3477.28
428.417	3663.65
428.624	3919.64
428.832	3862.3
429.039	3800.86
429.247	3931.93
429.454	4235.03
429.662	4511.5
429.869	4142.87
430.076	4460.31
430.284	4454.16
430.491	4552.46
430.699	4730.64
430.906	4822.8
431.114	4716.3
431.321	5050.12
431.528	5093.13
431.736	5396.23
431.943	5637.89
432.15	5369.6
432.358	5590.78
432.565	5861.12
432.772	5844.73
432.979	6135.54
433.187	6262.52
433.394	6252.28
433.601	6643.44
433.808	6672.11
434.016	6696.69
434.223	6952.68
434.43	7438.05
434.637	7356.13
434.844	7706.34
435.052	7993.05
435.259	7753.44
435.466	7864.03
435.673	7661.28
435.88	8261.34
436.087	9098.95
436.294	8689.36
436.501	8484.56
436.708	8617.68
436.915	8926.93
437.122	9406.15
437.329	9322.18
437.537	9557.7
437.743	9670.34
437.95	9682.63
438.157	10096.32
438.364	10448.57
438.571	10405.56
438.778	10665.65
438.985	11650.72
439.192	11116.2
439.399	11597.48
439.606	11273.9
439.813	11941.54
440.02	12869.26
440.227	12162.72
440.433	12289.69
440.64	12867.22
440.847	12631.7
441.054	12881.55
441.261	13983.36
441.467	13446.79
441.674	13819.52
441.881	14308.99
442.088	14483.06
442.294	14161.53
442.501	14612.09
442.708	14673.53
442.914	15480.43
443.121	15892.07
443.328	15588.97
443.534	16524.89
443.741	16207.45
443.948	16080.48
444.154	17456.71
444.361	17063.5
444.568	17380.94
444.774	17206.86
444.981	17350.22
445.187	17722.95
445.394	18742.84
445.6	18404.92
445.807	20192.8
446.013	19211.82
446.22	19742.25
446.426	20385.31
446.633	20614.68
446.839	21564.94
447.046	20592.16
447.252	21501.45
447.459	21638.67
447.665	21517.84
447.871	22441.47
448.078	23750.12
448.284	22629.88
448.491	22951.42
448.697	23981.54
448.903	24436.19
449.11	24636.89
449.316	23918.06
449.522	24608.22
449.728	25288.15
449.935	25337.3
450.141	25365.97
450.347	25959.88
450.553	25112.02
450.76	25650.64
450.966	26527.17
451.172	26056.14
451.378	26795.45
451.584	26215.88
451.791	27004.35
451.997	27143.61
452.203	27217.33
452.409	27461.04
452.615	27522.48
452.821	26115.53
453.027	26236.36
453.233	27203
453.44	26453.44
453.646	26709.44
453.852	26500.54
454.058	26791.36
454.264	26371.52
454.47	27362.74
454.676	26521.02
454.882	27442.61
455.088	25030.1
455.294	25298.39
455.5	25732.56
455.705	26342.85
455.911	25058.77
456.117	24671.71
456.323	24411.62
456.529	23025.14
456.735	23926.25
456.941	23600.62
457.147	23137.78
457.352	22361.6
457.558	22138.37
457.764	22074.88
457.97	21761.55
458.176	21548.56
458.381	21566.99
458.587	20354.59
458.793	20454.94
458.999	19365.42
459.204	20815.38
459.41	20008.48
459.616	18839.09
459.821	18804.28
460.027	18669.11
460.233	18652.73
460.438	17509.96
460.644	17831.49
460.85	16911.96
461.055	16756.31
461.261	16645.72
461.466	15119.98
461.672	14861.94
461.878	15988.32
462.083	14980.72
462.289	14558.84
462.494	14438.01
462.7	13852.29
462.905	13450.89
463.111	13942.4
463.316	14009.98
463.522	13561.48
463.727	13739.65
463.932	13602.44
464.138	13401.74
464.343	13559.43
464.549	13217.42
464.754	13641.35
464.959	13323.91
465.165	13438.6
465.37	13002.38
465.575	12717.72
465.781	13018.77
465.986	12801.68
466.191	12648.08
466.397	12205.72
466.602	11630.24
466.807	12193.44
467.012	11914.91
467.218	12039.84
467.423	11818.66
467.628	12234.39
467.833	12766.87
468.038	12105.37
468.244	11691.68
468.449	12152.48
468.654	11771.55
468.859	11708.07
469.064	11726.5
469.269	11261.61
469.474	11466.41
469.679	11589.28
469.885	11206.31
470.09	11447.97
470.295	11296.42
470.5	10909.36
470.705	11112.11
470.91	10759.86
471.115	10784.43
471.32	10989.23
471.525	10796.72
471.73	10727.09
471.935	10618.55
472.139	10157.75
472.344	10350.26
472.549	10307.26
472.754	10053.31
472.959	9895.61
473.164	9729.73
473.369	9699.01
473.574	10051.26
473.778	9848.51
473.983	9746.11
474.188	9813.7
474.393	9383.62
474.598	9264.84
474.802	9322.18
475.007	9139.91
475.212	9309.9
475.417	8777.42
475.621	8720.08
475.826	9064.14
476.031	8613.59
476.235	8427.22
476.44	8713.94
476.645	8591.06
476.849	8754.9
477.054	8498.9
477.259	8337.11
477.463	8392.41
477.668	8165.08
477.872	8036.06
478.077	8068.83
478.282	7708.38
478.486	7788.25
478.691	7943.9
478.895	7714.53
479.1	7573.22
479.304	7659.23
479.509	7536.35
479.713	7503.59
479.918	7436
480.122	7153.38
480.326	7319.27
480.531	7306.98
480.735	7431.91
480.94	7098.09
481.144	7548.64
481.348	7194.34
481.553	7352.04
481.757	7167.72
481.961	7423.72
482.166	7245.54
482.37	7167.72
482.574	7040.75
482.778	6983.4
482.983	7180.01
483.187	7065.32
483.391	7096.04
483.595	7040.75
483.8	6917.87
484.004	7118.57
484.208	7190.25
484.412	7032.55
484.616	7147.24
484.821	6936.3
485.025	6942.44
485.229	7053.03
485.433	6999.79
485.637	7118.57
485.841	7171.82
486.045	6917.87
486.249	6983.4
486.453	6975.21
486.657	7114.47
486.861	7132.9
487.065	6999.79
487.269	7036.65
487.473	6821.61
487.677	7087.85
487.881	7110.38
488.085	7067.37
488.289	7139.05
488.493	6917.87
488.697	7212.78
488.901	7184.1
489.105	7069.42
489.309	7081.71
489.512	7114.47
489.716	7155.43
489.92	7147.24
490.124	7069.42
490.328	7253.73
490.531	7161.58
490.735	7370.47
490.939	7239.4
491.143	7243.49
491.346	7116.52
491.55	7220.97
491.754	7290.6
491.958	7442.15
492.161	7419.62
492.365	7509.73
492.569	7337.7
492.772	7419.62
492.976	7438.05
493.18	7534.31
493.383	7735.01
493.587	7726.82
493.79	7741.15
493.994	7704.29
494.197	7732.96
494.401	7943.9
494.605	7782.11
494.808	8005.34
495.012	7984.86
495.215	7980.76
495.419	8034.01
495.622	8330.97
495.825	8339.16
496.029	8120.03
496.232	8146.65
496.436	8304.34
496.639	8715.98
496.843	8531.67
497.046	8603.35
497.249	8580.82
497.453	8855.25
497.656	8838.86
497.859	8834.77
498.063	8939.21
498.266	9125.58
498.469	9178.83
498.673	9090.76
498.876	9475.78
499.079	9578.18
499.282	9549.51
499.485	9787.07
499.689	9717.44
499.892	9967.29
500.095	9918.14
500.298	10165.95
500.501	9942.72
500.705	10319.54
500.908	10319.54
501.111	10530.48
501.314	10569.4
501.517	10792.62
501.72	10792.62
501.923	10927.79
502.126	11194.03
502.329	11189.93
502.532	11368.1
502.735	11501.22
502.938	11671.2
503.141	11851.42
503.344	11910.82
503.547	11706.02
503.75	12007.07
503.953	12293.79
504.156	12453.53
504.359	12441.24
504.562	12533.4
504.765	12770.96
504.968	12801.68
505.17	12996.24
505.373	13039.25
505.576	13260.43
505.779	13418.12
505.982	13391.5
506.185	13764.23
506.387	13774.47
506.59	13833.86
506.793	14194.3
506.996	14300.8
507.198	14677.62
507.401	14208.64
507.604	14700.15
507.807	14753.4
508.009	14972.53
508.212	15347.31
508.415	15257.2
508.617	15498.86
508.82	15820.39
509.022	15693.41
509.225	15867.49
509.428	16139.87
509.63	16043.62
509.833	16291.42
510.035	16774.74
510.238	16678.49
510.44	16766.55
510.643	17114.7
510.845	17086.03
511.048	17225.29
511.25	17770.05
511.453	17677.9
511.655	18249.28
511.858	18079.3
512.06	18116.16
512.262	18376.25
512.465	18474.56
512.667	19017.27
512.87	18943.54
513.072	18826.81
513.274	19217.97
513.477	19473.96
513.679	19885.61
513.881	19838.5
514.084	20067.88
514.286	20016.68
514.488	20432.41
514.69	20715.03
514.893	20768.28
515.095	20833.82
515.297	21155.35
515.499	21247.51
515.701	21423.63
515.904	21820.94
516.106	21868.04
516.308	22193.67
516.51	22326.78
516.712	22240.77
516.914	22494.72
517.116	22894.07
517.318	22775.29
517.52	23262.71
517.722	23604.72
517.925	23584.24
518.127	24014.31
518.329	24208.87
518.531	23905.77
518.733	24640.99
518.935	24448.48
519.136	24677.85
519.338	24966.62
519.54	25089.49
519.742	25138.65
519.944	25529.81
520.146	25896.39
520.348	25861.58
520.55	26129.86
520.752	26111.43
520.954	26840.51
521.155	26490.31
521.357	27221.43
521.559	26760.64
521.761	27831.72
521.963	27401.65
522.164	27598.26
522.366	27985.32
522.568	27854.25
522.77	27934.12
522.971	28523.94
523.173	28061.1
523.375	28612
523.576	28558.75
523.778	28845.47
523.98	29134.23
524.181	29474.2
524.383	29416.85
524.584	29750.67
524.786	29484.44
524.988	29638.03
525.189	29812.11
525.391	30150.03
525.592	30395.78
525.794	30766.46
525.995	30389.64
526.197	30711.17
526.398	30795.14
526.6	30983.55
526.801	31149.43
527.003	30973.31
527.204	31425.91
527.406	31522.16
527.607	31751.54
527.808	31520.12
528.01	31595.89
528.211	31581.56
528.412	32124.27
528.614	31972.72
528.815	31890.8
529.016	32607.59
529.218	32284.01
529.419	32505.19
529.62	32595.3
529.822	32304.49
530.023	32798.05
530.224	32812.38
530.425	32337.26
530.626	32337.26
530.828	32476.52
531.029	33000.8
531.23	32664.93
531.431	32437.61
531.632	32961.89
531.833	33031.52
532.035	32834.91
532.236	33152.35
532.437	33318.23
532.638	33033.57
532.839	33482.07
533.04	33205.59
533.241	33019.23
533.442	33596.76
533.643	33353.05
533.844	33154.4
534.045	33721.68
534.246	32806.24
534.447	33355.1
534.648	33283.42
534.849	33342.81
535.05	33123.68
535.251	33457.49
535.451	33045.85
535.652	33303.9
535.853	33275.23
536.054	33514.84
536.255	33467.73
536.456	33379.67
536.657	33604.95
536.857	33387.86
537.058	32902.5
537.259	33199.45
537.46	33674.58
537.66	33357.14
537.861	33447.25
538.062	33555.8
538.263	33293.66
538.463	33334.62
538.664	33021.28
538.865	33336.66
539.065	33690.96
539.266	33281.37
539.466	33650
539.667	33047.9
539.868	33731.92
540.068	33267.03
540.269	33170.78
540.469	33394.01
540.67	33312.09
540.87	33269.08
541.071	33361.24
541.271	33283.42
541.472	33330.52
541.672	33310.04
541.873	32834.91
542.073	32920.93
542.274	33301.85
542.474	33391.96
542.675	32877.92
542.875	33822.03
543.075	33219.93
543.276	32890.21
543.476	33170.78
543.676	32830.82
543.877	33199.45
544.077	33047.9
544.277	33148.25
544.478	33359.19
544.678	33088.86
544.878	33037.66
545.078	33201.5
545.279	32812.38
545.479	32783.71
545.679	33359.19
545.879	33013.09
546.079	32984.41
546.28	32824.67
546.48	32912.74
546.68	33344.86
546.88	33052
547.08	33303.9
547.28	33119.58
547.48	32722.27
547.68	32775.52
547.88	32687.46
548.081	33039.71
548.281	33203.55
548.481	32714.08
548.681	33238.36
548.881	32585.06
549.081	32996.7
549.28	32566.63
549.48	33228.12
549.68	33015.13
549.88	32988.51
550.08	32752.99
550.28	32843.1
550.48	32599.4
550.68	32693.6
550.88	32392.55
551.08	33062.24
551.279	32742.75
551.479	32408.93
551.679	32681.31
551.879	32513.38
552.079	32660.83
552.278	32752.99
552.478	32615.78
552.678	32664.93
552.878	33047.9
553.077	32605.54
553.277	32333.16
553.477	32724.32
553.676	32388.46
553.876	32318.82
554.076	32537.96
554.275	32212.33
554.475	32111.98
554.674	32384.36
554.874	32410.98
555.074	32046.44
555.273	32570.72
555.473	32476.52
555.672	32066.92
555.872	32277.86
556.071	32261.48
556.271	32486.76
556.47	31851.89
556.67	32228.71
556.869	31858.03
557.068	32501.09
557.268	32001.39
557.467	32073.07
557.667	31776.11
557.866	32111.98
558.065	32214.38
558.265	31812.98
558.464	31511.92
558.663	31786.35
558.863	31710.58
559.062	32021.87
559.261	31298.94
559.461	32335.21
559.66	31262.07
559.859	31927.66
560.058	31374.71
560.258	31694.19
560.457	31260.02
560.656	31604.08
560.855	31268.22
561.054	31366.52
561.253	31116.67
561.453	31176.06
561.652	31090.04
561.851	31563.12
562.05	30975.36
562.249	30850.43
562.448	31382.9
562.647	30989.69
562.846	31360.37
563.045	31010.17
563.244	30788.99
563.443	30909.82
563.642	30121.35
563.841	30786.94
564.04	30549.38
564.239	30733.7
564.438	30262.66
564.637	30539.14
564.836	30537.09
565.035	30168.46
565.234	30459.27
565.432	30184.84
565.631	30160.27
565.83	29943.18
566.029	29963.66
566.228	29984.14
566.427	29891.98
566.625	30137.74
566.824	29635.99
567.023	29875.6
567.222	29642.13
567.42	29795.73
567.619	29695.38
567.818	29492.63
568.016	29697.42
568.215	29482.39
568.414	29517.2
568.612	29678.99
568.811	29382.04
569.01	29353.37
569.208	29011.35
569.407	29353.37
569.605	28859.8
569.804	29136.28
570.002	28671.39
570.201	28794.27
570.4	28491.17
570.598	28659.1
570.797	28401.06
570.995	28634.53
571.193	28079.53
571.392	28751.26
571.59	28085.67
571.789	28224.93
571.987	28190.12
572.186	28089.77
572.384	28087.72
572.582	28163.5
572.781	28007.85
572.979	27624.88
573.177	27891.12
573.376	27745.71
573.574	27469.23
573.772	27772.33
573.971	27319.73
574.169	27585.97
574.367	27362.74
574.565	27512.24
574.763	27307.44
574.962	27360.69
575.16	26660.29
575.358	27057.59
575.556	27067.83
575.754	27000.25
575.952	26719.68
576.151	27094.46
576.349	26527.17
576.547	26174.92
576.745	26789.31
576.943	26535.36
577.141	26516.93
577.339	26502.59
577.537	26123.72
577.735	26406.34
577.933	26277.32
578.131	26451.39
578.329	26412.48
578.527	25619.92
578.725	26037.7
578.923	25914.83
579.121	25982.41
579.319	25640.4
579.516	25847.24
579.714	25861.58
579.912	25796.04
580.11	25439.7
580.308	25490.9
580.506	25599.44
580.704	25050.58
580.901	25122.26
581.099	25511.38
581.297	25243.09
581.495	24991.19
581.692	25318.87
581.89	24907.23
582.088	25355.73
582.285	24815.07
582.483	24997.34
582.681	24628.7
582.878	24462.82
583.076	24380.9
583.274	24927.7
583.471	24382.95
583.669	24505.82
583.866	23989.74
584.064	24520.16
584.262	23858.67
584.459	24358.37
584.657	24008.17
584.854	24378.85
585.052	23731.69
585.249	23952.87
585.447	24161.76
585.644	23717.36
585.841	23649.77
586.039	23909.86
586.236	23283.19
586.434	23451.12
586.631	23129.59
586.828	23741.93
587.026	23193.08
587.223	23379.44
587.42	23160.31
587.618	23178.74
587.815	22994.42
588.012	23100.92
588.21	22789.63
588.407	23231.99
588.604	22932.98
588.801	22779.39
588.999	22728.19
589.196	22566.4
589.393	22322.69
589.59	22199.81
589.787	22539.77
589.984	22400.51
590.182	22496.77
590.379	22300.16
590.576	22189.57
590.773	22074.88
590.97	21982.73
591.167	22396.42
591.364	21814.79
591.561	21726.73
591.758	21681.67
591.955	21698.06
592.152	21876.23
592.349	21646.86
592.546	21919.24
592.743	21581.32
592.94	21294.61
593.137	21339.66
593.334	21526.03
593.531	21085.72
593.727	21333.52
593.924	21319.18
594.121	21171.73
594.318	21075.48
594.515	20893.21
594.712	21145.11
594.908	20852.25
595.105	21048.85
595.302	20803.1
595.499	20942.36
595.696	20657.69
595.892	20452.89
596.089	20467.23
596.286	20491.8
596.482	20500
596.679	20248.1
596.876	20325.92
597.072	20215.33
597.269	20180.51
597.466	20082.21
597.662	20061.73
597.859	19967.52
598.055	19758.63
598.252	19576.36
598.448	19725.86
598.645	19840.55
598.841	19693.1
599.038	19725.86
599.234	19912.23
599.431	19172.91
599.627	19467.82
599.824	19344.94
600.02	19357.23
600.217	19215.92
600.413	19160.62
600.609	19461.68
600.806	19056.18
601.002	19506.73
601.198	19086.9
601.395	18931.25
601.591	18916.92
601.787	18927.16
601.984	18724.41
602.18	18769.46
602.376	18607.67
602.572	18765.37
602.769	18421.31
602.965	18212.42
603.161	18615.87
603.357	18013.76
603.553	18159.17
603.75	18282.05
603.946	17874.5
604.142	17878.6
604.338	17845.83
604.534	17880.64
604.73	17917.51
604.926	17907.27
605.122	17995.33
605.318	17731.14
605.514	17700.42
605.71	17667.66
605.906	17544.78
606.102	17567.31
606.298	17428.04
606.494	17294.93
606.69	17362.51
606.886	17362.51
607.082	17296.97
607.278	17362.51
607.474	17135.18
607.67	17141.33
607.866	16899.67
608.062	17487.43
608.257	16942.67
608.453	16817.75
608.649	17104.46
608.845	16920.15
609.041	17022.55
609.236	17116.75
609.432	16983.63
609.628	16969.3
609.824	16756.31
610.019	16754.26
610.215	16528.99
610.411	16758.36
610.606	16565.85
610.802	16678.49
610.998	16645.72
611.193	16875.09
611.389	16397.92
611.584	16447.07
611.78	16412.25
611.976	16445.02
612.171	16608.86
612.367	16399.96
612.562	16385.63
612.758	16205.41
612.953	16272.99
613.149	16297.56
613.344	16162.4
613.539	16365.15
613.735	16141.92
613.93	16033.38
614.126	15930.98
614.321	16068.19
614.517	16074.34
614.712	15822.44
614.907	15847.01
615.103	15986.27
615.298	15834.72
615.493	16029.28
615.688	15734.37
615.884	15793.76
616.079	15588.97
616.274	15619.69
616.47	15580.78
616.665	15636.07
616.86	15507.05
617.055	15638.12
617.25	15597.16
617.445	15711.85
617.641	15523.43
617.836	15488.62
618.031	15222.38
618.226	15408.75
618.421	15232.62
618.616	15466.09
618.811	15212.14
619.006	15380.07
619.201	14837.36
619.396	15199.85
619.591	14655.09
619.786	15146.61
619.981	14683.77
620.176	14931.57
620.371	14571.13
620.566	14802.55
620.761	14569.08
620.956	14732.92
621.151	14521.98
621.346	14726.77
621.541	14257.79
621.735	14325.37
621.93	14184.06
622.125	13913.73
622.32	13807.23
622.515	13962.88
622.709	13864.58
622.904	13717.12
623.099	13788.8
623.294	13737.6
623.488	13594.25
623.683	13774.47
623.878	13446.79
624.072	13483.66
624.267	13397.64
624.462	13235.85
624.656	13151.88
624.851	13242
625.046	13201.04
625.24	13160.08
625.435	12826.26
625.629	12934.8
625.824	12695.19
626.018	12689.04
626.213	12605.08
626.407	12478.1
626.602	12402.33
626.796	12832.4
626.991	12353.18
627.185	12349.08
627.38	12512.92
627.574	12136.09
627.768	12269.21
627.963	12021.41
628.157	11935.39
628.352	11978.4
628.546	11697.83
628.74	11812.51
628.935	11839.14
629.129	11712.16
629.323	11552.42
629.517	11701.92
629.712	11583.14
629.906	11552.42
630.1	11267.75
630.294	11497.13
630.489	11157.16
630.683	11300.52
630.877	11116.2
631.071	10882.74
631.265	10983.09
631.459	10929.84
631.653	10956.46
631.848	10858.16
632.042	10778.29
632.236	10612.4
632.43	10739.38
632.624	10534.58
632.818	10491.57
633.012	10489.53
633.206	10598.07
633.4	10268.34
633.594	10409.65
633.788	10178.23
633.982	10245.82
634.176	10321.59
634.369	10102.46
634.563	10110.65
634.757	10059.45
634.951	9965.25
635.145	9860.8
635.339	9805.5
635.533	9760.45
635.726	9932.48
635.92	9793.22
636.114	9639.62
636.308	9666.24
636.501	9606.85
636.695	9574.08
636.889	9387.72
637.083	9424.58
637.276	9432.77
637.47	9195.21
637.664	9174.73
637.857	9352.9
638.051	9025.23
638.244	9211.59
638.438	9150.15
638.632	9221.83
638.825	8996.56
639.019	8867.53
639.212	8982.22
639.406	8885.97
639.599	8910.54
639.793	8797.9
639.986	8623.83
640.18	8810.19
640.373	8707.79
640.567	8482.52
640.76	8589.01
640.954	8425.17
641.147	8416.98
641.34	8490.71
641.534	8330.97
641.727	8300.25
641.92	8437.46
642.114	8247
642.307	8226.52
642.5	8236.76
642.694	7821.02
642.887	7952.09
643.08	8009.44
643.273	7980.76
643.467	7974.62
643.66	7761.63
643.853	7716.58
644.046	7704.29
644.239	7696.1
644.432	7722.72
644.626	7696.1
644.819	7548.64
645.012	7501.54
645.205	7474.92
645.398	7622.37
645.591	7259.88
645.784	7567.07
645.977	7395.04
646.17	7311.08
646.363	7282.41
646.556	7192.3
646.749	7335.65
646.942	7200.49
647.135	7192.3
647.328	7065.32
647.521	6962.92
647.714	6967.02
647.907	7102.18
648.099	6887.15
648.292	6958.83
648.485	6967.02
648.678	6926.06
648.871	6878.96
649.064	6678.26
649.256	6770.41
649.449	6674.16
649.642	6504.18
649.835	6598.38
650.027	6487.79
650.22	6495.99
650.413	6491.89
650.605	6448.88
650.798	6532.85
650.991	6377.2
651.183	6436.6
651.376	6477.55
651.568	6362.87
651.761	6149.88
651.954	6231.8
652.146	6156.02
652.339	6280.95
652.531	6223.61
652.724	6139.64
652.916	5926.65
653.109	6057.72
653.301	5938.94
653.494	6035.19
653.686	5971.71
653.879	6008.57
654.071	5861.12
654.263	5975.8
654.456	5973.75
654.648	5840.64
654.84	5555.97
655.033	5646.08
655.225	5799.68
655.417	5594.88
655.61	5609.22
655.802	5598.98
655.994	5590.78
656.186	5533.44
656.379	5488.39
656.571	5633.79
656.763	5525.25
656.955	5254.92
657.148	5375.75
657.34	5308.16
657.532	5388.04
657.724	5402.37
657.916	5414.66
658.108	5369.6
658.3	5261.06
658.492	5250.82
658.684	5177.09
658.876	5205.77
659.068	5113.61
659.26	5046.02
659.452	5185.29
659.644	5121.8
659.836	4960.01
660.028	5027.59
660.22	5056.26
660.412	4857.61
660.604	5072.65
660.796	4890.38
660.988	4847.37
661.18	4773.64
661.372	4755.21
661.563	4742.92
661.755	4716.3
661.947	4720.4
662.139	4642.57
662.331	4581.14
662.522	4534.03
662.714	4642.57
662.906	4605.71
663.097	4667.15
663.289	4534.03
663.481	4466.45
663.673	4546.32
663.864	4468.5
664.056	4478.74
664.247	4435.73
664.439	4435.73
664.631	4382.48
664.822	4402.96
665.014	4540.18
665.205	4405.01
665.397	4267.8
665.588	4325.14
665.78	4183.83
665.971	4118.29
666.163	4181.78
666.354	4304.66
666.546	4161.3
666.737	4134.68
666.929	4040.47
667.12	4067.1
667.311	4165.4
667.503	3999.51
667.694	4005.66
667.885	4015.9
668.077	4042.52
668.268	3944.22
668.459	4032.28
668.651	4054.81
668.842	3778.33
669.033	3839.77
669.224	3766.04
669.416	3995.42
669.607	3931.93
669.798	3807
669.989	3813.15
670.18	3886.87
670.371	3862.3
670.563	3669.79
670.754	3823.39
670.945	3723.04
671.136	3716.89
671.327	3778.33
671.518	3798.81
671.709	3716.89
671.9	3610.4
672.091	3720.99
672.282	3579.68
672.473	3512.1
672.664	3522.34
672.855	3557.15
673.046	3538.72
673.237	3512.1
673.428	3516.19
673.619	3501.86
673.809	3469.09
674	3460.9
674.191	3452.7
674.382	3325.73
674.573	3421.99
674.764	3372.83
674.954	3342.11
675.145	3424.03
675.336	3305.25
675.527	3411.75
675.717	3340.07
675.908	3303.2
676.099	3387.17
676.289	3370.79
676.48	3276.58
676.671	3282.72
676.861	3399.46
677.052	3229.48
677.243	3231.52
677.433	3313.44
677.624	3182.37
677.814	3186.47
678.005	3284.77
678.195	3276.58
678.386	3116.84
678.576	3239.72
678.767	3168.04
678.957	3178.28
679.148	3176.23
679.338	3071.78
679.529	3256.1
679.719	3176.23
679.909	3252
680.1	3209
680.29	3030.82
680.481	3084.07
680.671	3077.93
680.861	3051.3
681.052	3061.54
681.242	2946.86
681.432	3010.34
681.622	3059.49
681.813	3063.59
682.003	2930.47
682.193	3022.63
682.383	3032.87
682.573	3008.3
682.764	2979.62
682.954	2940.71
683.144	2975.53
683.334	2895.66
683.524	2971.43
683.714	2993.96
683.904	2955.05
684.094	2938.66
684.284	2873.13
684.474	2858.79
684.664	2912.04
684.854	2797.35
685.044	2920.23
685.234	2891.56
685.424	2916.14
685.614	2889.51
685.804	2780.97
685.994	2858.79
686.184	2789.16
686.374	2731.82
686.564	2842.41
686.753	2744.11
686.943	2658.09
687.133	2744.11
687.323	2787.11
687.513	2737.96
687.702	2783.02
687.892	2664.24
688.082	2756.4
688.272	2785.07
688.461	2598.7
688.651	2762.54
688.841	2651.95
689.03	2680.62
689.22	2703.15
689.41	2668.33
689.599	2567.98
689.789	2596.65
689.979	2641.71
690.168	2567.98
690.358	2629.42
690.547	2580.27
690.737	2600.75
690.926	2486.06
691.116	2512.69
691.305	2506.54
691.495	2365.23
691.684	2455.34
691.874	2512.69
692.063	2428.72
692.252	2567.98
692.442	2398
692.631	2387.76
692.82	2303.79
693.01	2338.61
693.199	2297.65
693.388	2387.76
693.578	2344.75
693.767	2330.42
693.956	2486.06
694.146	2209.59
694.335	2309.94
694.524	2191.16
694.713	2285.36
694.902	2367.28
695.092	2223.92
695.281	2379.57
695.47	2225.97
695.659	2139.96
695.848	2248.5
696.037	2221.88
696.226	2273.07
696.415	2264.88
696.604	2146.1
696.793	2168.63
696.982	2201.4
697.171	2295.6
697.36	2125.62
697.549	2322.23
697.738	2039.61
697.927	2133.81
698.116	2103.09
698.305	2260.79
698.494	2133.81
698.683	2150.2
698.872	2182.96
699.061	2092.85
699.25	2064.18
699.438	2223.92
699.627	2256.69
699.816	2195.25
700.005	2164.53
700.193	2111.29
700.382	2119.48
700.571	2053.94
700.76	2150.2
700.948	2109.24
701.137	2133.81
701.326	2144.05
701.514	2111.29
701.703	2035.51
701.892	2094.9
702.08	2144.05
702.269	2010.93
702.457	2080.57
702.646	1939.26
702.834	1984.31
703.023	2053.94
703.212	2058.04
703.4	1969.98
703.589	2045.75
703.777	1994.55
703.965	2041.65
704.154	2053.94
704.342	2064.18
704.531	2113.33
704.719	2012.98
704.907	2127.67
705.096	1980.22
705.284	2049.85
705.472	1955.64
705.661	1972.02
705.849	2076.47
706.037	2029.37
706.226	2015.03
706.414	2019.13
706.602	2012.98
706.79	1961.78
706.979	1994.55
707.167	2060.09
707.355	1963.83
707.543	1998.65
707.731	2051.89
707.919	2015.03
708.107	1978.17
708.296	1916.73
708.484	1888.06
708.672	1980.22
708.86	2088.76
709.048	1904.44
709.236	1986.36
709.424	1926.97
709.612	1988.41
709.8	1933.11
709.988	1902.39
710.176	1906.49
710.364	1939.26
710.551	1955.64
710.739	2008.89
710.927	2006.84
711.115	1955.64
711.303	2023.22
711.491	2027.32
711.679	1953.59
711.866	2019.13
712.054	1988.41
712.242	2037.56
712.43	1994.55
712.617	2027.32
712.805	2004.79
712.993	1920.82
713.181	1892.15
713.368	1937.21
713.556	1980.22
713.744	1865.53
713.931	2010.93
714.119	1929.02
714.306	1926.97
714.494	1937.21
714.682	1953.59
714.869	1816.38
715.057	2125.62
715.244	1916.73
715.432	1980.22
715.619	1941.3
715.807	1918.78
715.994	2068.28
716.182	1969.98
716.369	2043.7
716.556	1959.74
716.744	1959.74
716.931	1955.64
717.119	2004.79
717.306	1941.3
717.493	1980.22
717.681	1871.67
717.868	1929.02
718.055	2064.18
718.242	1953.59
718.43	2004.79
718.617	2076.47
718.804	1969.98
718.991	2004.79
719.179	1877.82
719.366	1969.98
719.553	2023.22
719.74	2010.93
719.927	1992.5
720.114	2039.61
720.301	2043.7
720.488	1937.21
720.676	1931.06
720.863	1949.5
721.05	1933.11
721.237	1937.21
721.424	2027.32
721.611	1953.59
721.798	1941.3
721.985	1941.3
722.172	1922.87
722.358	1945.4
722.545	1978.17
722.732	1838.91
722.919	1929.02
723.106	1783.61
723.293	2002.74
723.48	1916.73
723.667	1875.77
723.853	1953.59
724.04	1904.44
724.227	2019.13
724.414	1994.55
724.6	1904.44
724.787	2037.56
724.974	1961.78
725.161	1814.33
725.347	1976.12
725.534	1873.72
725.72	1972.02
725.907	1963.83
726.094	1939.26
726.28	1892.15
726.467	1951.54
726.653	1902.39
726.84	1945.4
727.027	1879.86
727.213	1920.82
727.4	1955.64
727.586	1922.87
727.773	1949.5
727.959	1810.23
728.145	1912.63
728.332	1931.06
728.518	1935.16
728.705	1969.98
728.891	1845.05
729.077	1838.91
729.264	1863.48
729.45	1908.54
729.636	1969.98
729.823	2006.84
730.009	1853.24
730.195	1875.77
730.382	1896.25
730.568	1926.97
730.754	1896.25
730.94	1969.98
731.126	1939.26
731.313	1980.22
731.499	1941.3
731.685	1824.57
731.871	1924.92
732.057	1926.97
732.243	2023.22
732.429	1945.4
732.615	1906.49
732.801	1972.02
732.987	1896.25
733.173	1943.35
733.359	1795.9
733.545	1810.23
733.731	1793.85
733.917	1924.92
734.103	1939.26
734.289	1904.44
734.475	1871.67
734.661	1947.45
734.847	1904.44
735.033	1916.73
735.219	1916.73
735.404	1822.52
735.59	1943.35
735.776	1818.43
735.962	1775.42
736.148	1912.63
736.333	1783.61
736.519	1908.54
736.705	1765.18
736.89	1888.06
737.076	1890.1
737.262	1937.21
737.447	1896.25
737.633	1847.1
737.819	1849.15
738.004	1816.38
738.19	1775.42
738.375	1773.37
738.561	1791.8
738.747	1799.99
738.932	1775.42
739.118	1924.92
739.303	1814.33
739.489	1818.43
739.674	1830.71
739.859	1769.27
740.045	1738.55
740.23	1875.77
740.416	1724.22
740.601	1773.37
740.786	1781.56
740.972	1701.69
741.157	1863.48
741.342	1830.71
741.528	1726.27
741.713	1806.14
741.898	1707.84
742.084	1650.49
742.269	1824.57
742.454	1687.36
742.639	1709.88
742.824	1666.88
743.01	1742.65
743.195	1855.29
743.38	1736.51
743.565	1711.93
743.75	1799.99
743.935	1658.68
744.12	1617.72
744.305	1638.2
744.49	1681.21
744.675	1589.05
744.86	1658.68
745.045	1613.63
745.23	1638.2
745.415	1646.4
745.6	1597.24
745.785	1644.35
745.97	1693.5
746.155	1562.43
746.34	1544
746.525	1611.58
746.71	1584.96
746.895	1533.76
747.079	1433.41
747.264	1625.92
747.449	1642.3
747.634	1505.09
747.819	1556.29
748.003	1480.51
748.188	1511.23
748.373	1513.28
748.557	1548.09
748.742	1560.38
748.927	1455.94
749.111	1474.37
749.296	1429.31
749.481	1394.5
749.665	1347.39
749.85	1404.74
750.034	1322.82
750.219	1378.11
750.404	1421.12
750.588	1421.12
750.773	1322.82
750.957	1429.31
751.141	1369.92
751.326	1392.45
751.51	1343.3
751.695	1310.53
751.879	1359.68
752.064	1388.35
752.248	1285.95
752.432	1390.4
752.617	1322.82
752.801	1298.24
752.985	1273.67
753.17	1322.82
753.354	1279.81
753.538	1396.54
753.722	1331.01
753.907	1314.63
754.091	1283.91
754.275	1267.52
754.459	1183.56
754.643	1199.94
754.828	1150.79
755.012	1236.8
755.196	1177.41
755.38	1322.82
755.564	1167.17
755.748	1187.65
755.932	1226.56
756.116	1191.75
756.3	1216.32
756.484	1058.63
756.668	1150.79
756.852	1081.16
757.036	1044.29
757.22	1138.5
757.404	1060.68
757.588	1027.91
757.772	1103.68
757.956	1134.4
758.14	958.28
758.323	1046.34
758.507	1081.16
758.691	1019.72
758.875	1032.01
759.059	1079.11
759.242	976.71
759.426	1036.1
759.61	997.19
759.794	1038.15
759.977	1003.33
760.161	1179.46
760.345	1038.15
760.528	1036.1
760.712	929.61
760.895	915.27
761.079	999.24
761.263	915.27
761.446	1017.67
761.63	902.98
761.813	948.04
761.997	958.28
762.18	880.46
762.364	1052.49
762.547	962.37
762.731	948.04
762.914	921.42
763.098	1029.96
763.281	896.84
763.464	913.22
763.648	968.52
763.831	898.89
764.015	948.04
764.198	962.37
764.381	831.3
764.564	892.74
764.748	896.84
764.931	839.5
765.114	917.32
765.297	917.32
765.481	819.02
765.664	853.83
765.847	862.02
766.03	927.56
766.213	833.35
766.397	841.54
766.58	780.11
766.763	896.84
766.946	794.44
767.129	810.82
767.312	794.44
767.495	819.02
767.678	743.24
767.861	878.41
768.044	833.35
768.227	718.67
768.41	851.78
768.593	786.25
768.776	843.59
768.959	782.15
769.142	814.92
769.324	823.11
769.507	794.44
769.69	773.96
769.873	835.4
770.056	907.08
770.239	819.02
770.421	733
770.604	759.63
770.787	712.52
770.97	767.82
771.152	753.48
771.335	735.05
771.518	806.73
771.7	823.11
771.883	870.22
772.066	751.43
772.248	749.39
772.431	812.87
772.613	792.39
772.796	667.47
772.978	663.37
773.161	726.86
773.343	679.75
773.526	657.23
773.708	704.33
773.891	585.55
774.073	651.08
774.256	696.14
774.438	618.32
774.621	618.32
774.803	704.33
774.985	671.56
775.168	644.94
775.35	657.23
775.532	661.32
775.715	726.86
775.897	651.08
776.079	671.56
776.261	687.95
776.444	687.95
776.626	589.64
776.808	620.36
776.99	571.21
777.173	638.8
777.355	618.32
777.537	659.28
777.719	606.03
777.901	618.32
778.083	642.89
778.265	569.16
778.447	593.74
778.629	552.78
778.811	599.88
778.993	585.55
779.175	565.07
779.357	616.27
779.539	548.68
779.721	560.97
779.903	593.74
780.085	544.59
780.267	603.98
780.449	569.16
780.631	511.82
780.812	515.92
780.994	487.25
781.176	546.64
781.358	554.83
781.54	448.33
781.721	585.55
781.903	532.3
782.085	487.25
782.267	479.05
782.448	462.67
782.63	425.81
782.812	489.29
782.993	462.67
783.175	479.05
783.357	454.48
783.538	481.1
783.72	462.67
783.901	448.33
784.083	452.43
784.264	565.07
784.446	495.44
784.627	454.48
784.809	442.19
784.99	487.25
785.172	434
785.353	438.09
785.535	384.85
785.716	470.86
785.897	374.61
786.079	487.25
786.26	388.94
786.441	442.19
786.623	390.99
786.804	434
786.985	429.9
787.167	388.94
787.348	372.56
787.529	434
787.71	503.63
787.891	415.57
788.073	366.42
788.254	278.35
788.435	425.81
788.616	372.56
788.797	335.7
788.978	294.74
789.159	257.87
789.34	382.8
789.522	372.56
789.703	302.93
789.884	347.98
790.065	368.46
790.246	401.23
790.427	374.61
790.607	343.89
790.788	278.35
790.969	319.31
791.15	333.65
791.331	290.64
791.512	366.42
791.693	317.26
791.874	372.56
792.054	405.33
792.235	335.7
792.416	300.88
792.597	233.3
792.778	298.83
792.958	360.27
793.139	266.07
793.32	315.22
793.5	261.97
793.681	399.18
793.862	313.17
794.042	311.12
794.223	300.88
794.404	221.01
794.584	192.34
794.765	231.25
794.945	268.11
795.126	249.68
795.306	347.98
795.487	309.07
795.667	298.83
795.848	266.07
796.028	280.4
796.209	266.07
796.389	233.3
796.57	243.54
796.75	143.19
796.93	302.93
797.111	210.77
797.291	290.64
797.471	225.11
797.652	290.64
797.832	243.54
798.012	319.31
798.192	180.05
798.373	200.53
798.553	270.16
798.733	266.07
798.913	241.49
799.093	282.45
799.274	231.25
799.454	302.93
799.634	261.97
799.814	210.77
799.994	335.7
800.174	200.53
800.354	196.43
800.534	237.39
800.714	192.34
800.894	253.78
801.074	200.53
801.254	173.91
801.434	307.02
801.614	110.42
801.794	192.34
801.974	849.74
802.154	358.22
802.334	249.68
802.514	155.47
802.693	204.63
802.873	141.14
803.053	253.78
803.233	167.76
803.413	149.33
803.592	159.57
803.772	192.34
803.952	225.11
804.131	175.95
804.311	104.28
804.491	241.49
804.67	225.11
804.85	188.24
805.03	169.81
805.209	229.2
805.389	225.11
805.568	159.57
805.748	208.72
805.928	169.81
806.107	243.54
806.287	210.77
806.466	169.81
806.646	165.71
806.825	257.87
807.004	192.34
807.184	163.67
807.363	194.39
807.543	130.9
807.722	122.71
807.901	141.14
808.081	141.14
808.26	94.04
808.439	159.57
808.619	153.43
808.798	196.43
808.977	175.95
809.156	141.14
809.336	126.8
809.515	104.28
809.694	182.1
809.873	122.71
810.052	180.05
810.231	192.34
810.411	184.15
810.59	196.43
810.769	151.38
810.948	145.24
811.127	32.6
811.306	73.56
811.485	161.62
811.664	145.24
811.843	180.05
812.022	167.76
812.201	202.58
812.38	202.58
812.559	143.19
812.737	180.05
812.916	114.52
813.095	171.86
813.274	151.38
813.453	81.75
813.632	89.94
813.811	173.91
813.989	112.47
814.168	216.91
814.347	79.7
814.526	192.34
814.704	175.95
814.883	153.43
815.062	206.67
815.24	178
815.419	130.9
815.598	184.15
815.776	44.88
815.955	163.67
816.133	116.56
816.312	147.28
816.49	94.04
816.669	151.38
816.847	44.88
817.026	128.85
817.204	130.9
817.383	96.08
817.561	124.76
817.74	98.13
817.918	85.84
818.097	120.66
818.275	128.85
818.453	151.38
818.632	65.36
818.81	77.65
818.988	159.57
819.167	20.31
819.345	192.34
819.523	128.85
819.701	114.52
819.879	159.57
820.058	104.28
820.236	188.24
820.414	167.76
820.592	106.32
820.77	151.38
820.948	94.04
821.127	94.04
821.305	106.32
821.483	36.69
821.661	38.74
821.839	77.65
822.017	126.8
822.195	118.61
822.373	137.04
822.551	153.43
822.729	145.24
822.907	-20.65
823.085	96.08
823.262	118.61
823.44	71.51
823.618	135
823.796	55.12
823.974	14.17
824.152	83.8
824.329	98.13
824.507	61.27
824.685	46.93
824.863	44.88
825.04	130.9
825.218	94.04
825.396	139.09
825.574	73.56
825.751	46.93
825.929	94.04
826.107	91.99
826.284	77.65
826.462	81.75
826.639	57.17
826.817	28.5
826.994	73.56
827.172	36.69
827.349	118.61
827.527	73.56
827.704	87.89
827.882	171.86
828.059	69.46
828.237	53.08
828.414	229.2
828.591	63.32
828.769	159.57
828.946	81.75
829.124	153.43
829.301	36.69
829.478	63.32
829.655	22.36
829.833	24.4
830.01	38.74
830.187	48.98
830.364	114.52
830.542	100.18
830.719	81.75
830.896	77.65
831.073	87.89
831.25	106.32
831.427	44.88
831.604	46.93
831.782	55.12
831.959	135
832.136	94.04
832.313	110.42
832.49	96.08
832.667	184.15
832.844	53.08
833.021	53.08
833.198	24.4
833.374	96.08
833.551	126.8
833.728	16.21
833.905	38.74
834.082	-6.31
834.259	106.32
834.436	167.76
834.612	-45.23
834.789	94.04
834.966	114.52
835.143	126.8
835.319	57.17
835.496	38.74
835.673	69.46
835.85	20.31
836.026	30.55
836.203	75.6
836.38	55.12
836.556	98.13
836.733	57.17
836.909	145.24
837.086	102.23
837.262	69.46
837.439	77.65
837.616	65.36
837.792	91.99
837.968	87.89
838.145	20.31
838.321	118.61
838.498	57.17
838.674	8.02
838.851	-8.36
839.027	102.23
839.203	-24.75
839.38	128.85
839.556	36.69
839.732	85.84
839.909	20.31
840.085	85.84
840.261	53.08
840.437	57.17
840.614	102.23
840.79	55.12
840.966	81.75
841.142	73.56
841.318	69.46
841.494	51.03
841.671	61.27
841.847	61.27
842.023	12.12
842.199	53.08
842.375	44.88
842.551	85.84
842.727	57.17
842.903	110.42
843.079	-12.46
843.255	81.75
843.431	12.12
843.607	61.27
843.783	-18.6
843.959	40.79
844.134	8.02
844.31	73.56
844.486	32.6
844.662	48.98
844.838	3.93
845.013	53.08
845.189	55.12
845.365	3.93
845.541	94.04
845.716	40.79
845.892	55.12
846.068	126.8
846.244	53.08
846.419	36.69
846.595	22.36
846.77	67.41
846.946	71.51
847.122	79.7
847.297	-0.17
847.473	114.52
847.648	38.74
847.824	28.5
847.999	14.17
848.175	-8.36
848.35	112.47
848.526	79.7
848.701	147.28
848.876	46.93
849.052	55.12
849.227	69.46
849.403	5.97
849.578	46.93
849.753	5.97
849.929	48.98
850.104	-45.23
850.279	46.93
850.454	77.65
850.63	77.65
850.805	94.04
850.98	57.17
851.155	24.4
851.33	36.69
851.505	-32.94
851.681	12.12
851.856	-4.27
852.031	-90.28
852.206	53.08
852.381	69.46
852.556	63.32
852.731	85.84
852.906	16.21
853.081	83.8
853.256	14.17
853.431	79.7
853.606	-2.22
853.781	89.94
853.956	28.5
854.131	53.08
854.305	-12.46
854.48	44.88
854.655	46.93
854.83	30.55
855.005	-22.7
855.18	28.5
855.354	12.12
855.529	-8.36
855.704	8.02
855.879	55.12
856.053	-28.84
856.228	20.31
856.403	12.12
856.577	5.97
856.752	-43.18
856.926	28.5
857.101	53.08
857.276	102.23
857.45	53.08
857.625	40.79
857.799	20.31
857.974	20.31
858.148	-0.17
858.323	63.32
858.497	12.12
858.672	85.84
858.846	-77.99
859.02	40.79
859.195	-4.27
859.369	61.27
859.543	-69.8
859.718	85.84
859.892	132.95
860.066	48.98
860.241	-14.51
860.415	61.27
860.589	-45.23
860.763	-24.75
860.938	32.6
861.112	65.36
861.286	12.12
861.46	53.08
861.634	69.46
861.808	46.93
861.982	3.93
862.157	57.17
862.331	79.7
862.505	-49.32
862.679	-0.17
862.853	48.98
863.027	22.36
863.201	102.23
863.375	-8.36
863.549	38.74
863.722	-20.65
863.896	44.88
864.07	5.97
864.244	85.84
864.418	12.12
864.592	79.7
864.766	20.31
864.939	55.12
865.113	-8.36
865.287	55.12
865.461	67.41
865.634	63.32
865.808	75.6
865.982	44.88
866.156	-18.6
866.329	24.4
866.503	-32.94
866.676	22.36
866.85	53.08
867.024	-43.18
867.197	16.21
867.371	46.93
867.544	12.12
867.718	-20.65
867.891	85.84
868.065	44.88
868.238	16.21
868.412	73.56
868.585	-12.46
868.759	12.12
868.932	-0.17
869.105	-53.42
869.279	-26.79
869.452	-28.84
869.625	-8.36
869.799	8.02
869.972	10.07
870.145	-61.61
870.319	69.46
870.492	-20.65
870.665	128.85
870.838	12.12
871.011	14.17
871.185	20.31
871.358	16.21
871.531	22.36
871.704	-53.42
871.877	32.6
872.05	36.69
872.223	36.69
872.396	44.88
872.569	40.79
872.742	-45.23
872.915	14.17
873.088	-24.75
873.261	104.28
873.434	-18.6
873.607	20.31
873.78	-80.04
873.953	-75.95
874.126	69.46
874.299	53.08
874.471	-59.56
874.644	20.31
874.817	5.97
874.99	73.56
875.163	-24.75
875.335	3.93
875.508	65.36
875.681	28.5
875.853	-24.75
876.026	20.31
876.199	-2.22
876.371	55.12
876.544	-22.7
876.717	16.21
876.889	-51.37
877.062	28.5
877.234	22.36
877.407	20.31
877.579	-45.23
877.752	-0.17
877.924	55.12
878.097	85.84
878.269	-12.46
878.442	57.17
878.614	24.4
878.786	79.7
878.959	69.46
879.131	-26.79
879.303	20.31
879.476	3.93
879.648	112.47
879.82	28.5
879.993	-51.37
880.165	24.4
880.337	-28.84
880.509	24.4
880.681	-4.27
880.854	-49.32
881.026	89.94
881.198	102.23
881.37	63.32
881.542	53.08
881.714	-16.55
881.886	-2.22
882.058	-32.94
882.23	28.5
882.402	3.93
882.574	55.12
882.746	-4.27
882.918	69.46
883.09	46.93
883.262	53.08
883.434	20.31
883.606	-49.32
883.778	-0.17
883.95	30.55
884.122	14.17
884.293	5.97
884.465	-26.79
884.637	30.55
884.809	-18.6
884.98	40.79
885.152	20.31
885.324	-0.17
885.496	-2.22
885.667	-8.36
885.839	30.55
886.011	53.08
886.182	53.08
886.354	96.08
886.525	67.41
886.697	12.12
886.869	14.17
887.04	65.36
887.212	32.6
887.383	69.46
887.555	-12.46
887.726	22.36
887.897	-16.55
888.069	20.31
888.24	-98.47
888.412	85.84
888.583	51.03
888.754	-37.03
888.926	-28.84
889.097	16.21
889.268	-4.27
889.44	48.98
889.611	-20.65
889.782	-12.46
889.953	-12.46
890.125	12.12
890.296	-30.89
890.467	22.36
890.638	-16.55
890.809	-12.46
890.98	24.4
891.151	135
891.323	55.12
891.494	16.21
891.665	16.21
891.836	24.4
892.007	55.12
892.178	-4.27
892.349	-0.17
892.52	-37.03
892.691	22.36
892.862	38.74
893.032	32.6
893.203	30.55
893.374	-71.85
893.545	55.12
893.716	-28.84
893.887	5.97
894.057	-67.75
894.228	18.26
894.399	-12.46
894.57	-34.99
894.74	-10.41
894.911	3.93
895.082	57.17
895.253	-37.03
895.423	-8.36
895.594	102.23
895.764	12.12
895.935	-10.41
896.106	-34.99
896.276	83.8
896.447	69.46
896.617	28.5
896.788	3.93
896.958	-16.55
897.129	-0.17
897.299	14.17
897.47	20.31
897.64	22.36
897.81	-32.94
897.981	-12.46
898.151	-6.31
898.322	46.93
898.492	1.88
898.662	-47.27
898.832	-8.36
899.003	1.88
899.173	26.45
899.343	16.21
899.513	3.93
