Data from USB4F104151__108__14-43-44-972.txt Node

Date: Thu Mar 13 14:43:44 EDT 2025
User: louis
Spectrometer: USB4F10415
Trigger mode: 4
Integration Time (sec): 2.000000E-2
Scans to average: 1
Electric dark correction enabled: true
Nonlinearity correction enabled: false
Boxcar width: 0
XAxis mode: Wavelengths
Number of Pixels in Spectrum: 3648
>>>>>Begin Spectral Data<<<<<
178.204	-93.87
178.424	-93.87
178.644	-93.87
178.864	-132.78
179.084	-118.44
179.304	-20.14
179.524	33.11
179.744	-18.09
179.964	10.58
180.184	6.49
180.404	49.49
180.624	-16.04
180.844	-5.8
181.064	-20.14
181.283	-54.95
181.503	2.39
181.723	33.11
181.943	29.01
182.163	59.73
182.383	18.77
182.602	65.88
182.822	2.39
183.042	14.68
183.262	26.96
183.482	6.49
183.701	-16.04
183.921	39.25
184.141	-24.23
184.361	55.64
184.58	29.01
184.8	53.59
185.02	-11.95
185.239	20.82
185.459	49.49
185.679	24.92
185.898	2.39
186.118	-7.85
186.338	12.63
186.557	80.21
186.777	31.06
186.997	100.69
187.216	31.06
187.436	35.16
187.655	0.34
187.875	20.82
188.095	-18.09
188.314	80.21
188.534	59.73
188.753	2.39
188.973	-24.23
189.192	90.45
189.412	67.92
189.631	33.11
189.851	67.92
190.07	41.3
190.29	43.35
190.509	-5.8
190.729	-26.28
190.948	18.77
191.168	67.92
191.387	74.07
191.607	2.39
191.826	33.11
192.045	33.11
192.265	8.53
192.484	39.25
192.704	31.06
192.923	29.01
193.142	45.4
193.362	43.35
193.581	6.49
193.8	43.35
194.02	26.96
194.239	4.44
194.458	22.87
194.678	51.54
194.897	65.88
195.116	33.11
195.335	0.34
195.555	82.26
195.774	45.4
195.993	18.77
196.212	45.4
196.432	24.92
196.651	8.53
196.87	-32.43
197.089	100.69
197.308	24.92
197.528	49.49
197.747	57.68
197.966	80.21
198.185	49.49
198.404	-46.76
198.623	-1.71
198.842	53.59
199.062	33.11
199.281	-46.76
199.5	-46.76
199.719	43.35
199.938	10.58
200.157	41.3
200.376	133.46
200.595	110.93
200.814	-7.85
201.033	20.82
201.252	74.07
201.471	65.88
201.69	67.92
201.909	18.77
202.128	135.51
202.347	43.35
202.566	18.77
202.785	-104.11
203.004	18.77
203.223	67.92
203.442	57.68
203.661	10.58
203.879	49.49
204.098	-7.85
204.317	20.82
204.536	59.73
204.755	-13.99
204.974	24.92
205.193	24.92
205.411	76.12
205.63	24.92
205.849	8.53
206.068	29.01
206.287	47.44
206.505	47.44
206.724	29.01
206.943	-3.75
207.162	35.16
207.381	78.16
207.599	65.88
207.818	-5.8
208.037	8.53
208.255	8.53
208.474	2.39
208.693	49.49
208.911	47.44
209.13	53.59
209.349	18.77
209.567	8.53
209.786	65.88
210.005	59.73
210.223	-24.23
210.442	10.58
210.661	-24.23
210.879	51.54
211.098	22.87
211.316	72.02
211.535	26.96
211.753	4.44
211.972	-28.33
212.191	78.16
212.409	33.11
212.628	57.68
212.846	-5.8
213.065	24.92
213.283	35.16
213.502	20.82
213.72	-20.14
213.938	53.59
214.157	100.69
214.375	-16.04
214.594	55.64
214.812	29.01
215.031	41.3
215.249	22.87
215.467	49.49
215.686	-40.62
215.904	8.53
216.122	51.54
216.341	45.4
216.559	-16.04
216.778	31.06
216.996	49.49
217.214	-57
217.432	10.58
217.651	10.58
217.869	43.35
218.087	35.16
218.306	-30.38
218.524	84.31
218.742	41.3
218.96	16.73
219.179	-13.99
219.397	94.55
219.615	106.84
219.833	-16.04
220.051	-11.95
220.27	35.16
220.488	33.11
220.706	57.68
220.924	84.31
221.142	33.11
221.36	74.07
221.578	24.92
221.796	2.39
222.015	-5.8
222.233	41.3
222.451	67.92
222.669	-7.85
222.887	-7.85
223.105	35.16
223.323	33.11
223.541	8.53
223.759	67.92
223.977	37.2
224.195	112.98
224.413	41.3
224.631	59.73
224.849	-7.85
225.067	88.4
225.285	35.16
225.503	37.2
225.721	-16.04
225.939	-9.9
226.157	69.97
226.375	196.95
226.592	10.58
226.81	10.58
227.028	76.12
227.246	82.26
227.464	-5.8
227.682	33.11
227.9	-48.81
228.117	131.41
228.335	6.49
228.553	22.87
228.771	59.73
228.989	65.88
229.206	22.87
229.424	106.84
229.642	22.87
229.86	31.06
230.077	47.44
230.295	31.06
230.513	14.68
230.731	106.84
230.948	55.64
231.166	29.01
231.384	69.97
231.601	47.44
231.819	31.06
232.037	76.12
232.254	47.44
232.472	8.53
232.689	6.49
232.907	41.3
233.125	18.77
233.342	0.34
233.56	-7.85
233.777	16.73
233.995	31.06
234.213	16.73
234.43	-1.71
234.648	-11.95
234.865	65.88
235.083	51.54
235.3	-73.39
235.518	59.73
235.735	33.11
235.953	16.73
236.17	43.35
236.388	2.39
236.605	84.31
236.822	96.6
237.04	104.79
237.257	59.73
237.475	-73.39
237.692	8.53
237.909	24.92
238.127	24.92
238.344	-13.99
238.562	-20.14
238.779	-5.8
238.996	33.11
239.214	-36.52
239.431	35.16
239.648	0.34
239.865	-5.8
240.083	0.34
240.3	4.44
240.517	33.11
240.735	51.54
240.952	67.92
241.169	121.17
241.386	33.11
241.603	-24.23
241.821	16.73
242.038	57.68
242.255	98.64
242.472	-22.19
242.689	49.49
242.907	-11.95
243.124	82.26
243.341	39.25
243.558	10.58
243.775	-24.23
243.992	-30.38
244.209	65.88
244.426	86.36
244.643	-16.04
244.86	-50.86
245.078	65.88
245.295	49.49
245.512	90.45
245.729	-9.9
245.946	31.06
246.163	59.73
246.38	61.78
246.597	-54.95
246.814	-9.9
247.031	-7.85
247.248	4.44
247.464	-38.57
247.681	31.06
247.898	119.12
248.115	16.73
248.332	-18.09
248.549	51.54
248.766	67.92
248.983	135.51
249.2	-16.04
249.417	55.64
249.633	78.16
249.85	80.21
250.067	49.49
250.284	102.74
250.501	0.34
250.717	72.02
250.934	4.44
251.151	59.73
251.368	76.12
251.585	98.64
251.801	8.53
252.018	-3.75
252.235	24.92
252.451	2.39
252.668	20.82
252.885	69.97
253.102	45.4
253.318	82.26
253.535	24.92
253.752	16.73
253.968	69.97
254.185	-40.62
254.401	-13.99
254.618	72.02
254.835	4.44
255.051	86.36
255.268	72.02
255.484	86.36
255.701	45.4
255.917	12.63
256.134	45.4
256.351	-38.57
256.567	20.82
256.784	24.92
257	24.92
257.217	102.74
257.433	12.63
257.65	39.25
257.866	12.63
258.082	45.4
258.299	-40.62
258.515	43.35
258.732	59.73
258.948	51.54
259.165	18.77
259.381	35.16
259.597	20.82
259.814	24.92
260.03	12.63
260.246	24.92
260.463	4.44
260.679	49.49
260.895	59.73
261.112	76.12
261.328	45.4
261.544	33.11
261.761	16.73
261.977	65.88
262.193	16.73
262.409	16.73
262.626	65.88
262.842	57.68
263.058	-46.76
263.274	65.88
263.49	20.82
263.707	74.07
263.923	-13.99
264.139	41.3
264.355	-24.23
264.571	115.03
264.787	49.49
265.004	49.49
265.22	49.49
265.436	-3.75
265.652	-11.95
265.868	26.96
266.084	41.3
266.3	74.07
266.516	47.44
266.732	43.35
266.948	22.87
267.164	45.4
267.38	6.49
267.596	51.54
267.812	123.22
268.028	18.77
268.244	0.34
268.46	-22.19
268.676	39.25
268.892	8.53
269.108	39.25
269.324	18.77
269.54	-32.43
269.756	76.12
269.972	65.88
270.188	16.73
270.403	78.16
270.619	-7.85
270.835	59.73
271.051	33.11
271.267	-26.28
271.483	-24.23
271.698	20.82
271.914	51.54
272.13	20.82
272.346	90.45
272.562	92.5
272.777	37.2
272.993	63.83
273.209	10.58
273.425	59.73
273.64	-5.8
273.856	45.4
274.072	-18.09
274.287	35.16
274.503	35.16
274.719	26.96
274.934	-3.75
275.15	8.53
275.366	49.49
275.581	53.59
275.797	24.92
276.012	80.21
276.228	20.82
276.444	12.63
276.659	69.97
276.875	-46.76
277.09	127.32
277.306	26.96
277.521	4.44
277.737	51.54
277.952	18.77
278.168	76.12
278.383	26.96
278.599	-3.75
278.814	65.88
279.03	26.96
279.245	61.78
279.461	-42.67
279.676	92.5
279.892	82.26
280.107	45.4
280.322	76.12
280.538	20.82
280.753	12.63
280.969	53.59
281.184	61.78
281.399	20.82
281.615	26.96
281.83	51.54
282.045	67.92
282.26	57.68
282.476	24.92
282.691	24.92
282.906	82.26
283.122	2.39
283.337	2.39
283.552	92.5
283.767	4.44
283.983	57.68
284.198	61.78
284.413	26.96
284.628	-75.43
284.843	31.06
285.058	100.69
285.274	-13.99
285.489	24.92
285.704	55.64
285.919	-13.99
286.134	0.34
286.349	-7.85
286.564	82.26
286.779	115.03
286.995	43.35
287.21	43.35
287.425	33.11
287.64	-28.33
287.855	84.31
288.07	57.68
288.285	106.84
288.5	0.34
288.715	37.2
288.93	-13.99
289.145	65.88
289.36	69.97
289.575	22.87
289.79	59.73
290.004	12.63
290.219	24.92
290.434	-30.38
290.649	65.88
290.864	69.97
291.079	18.77
291.294	18.77
291.509	82.26
291.724	8.53
291.938	8.53
292.153	26.96
292.368	18.77
292.583	80.21
292.798	-1.71
293.012	24.92
293.227	53.59
293.442	-38.57
293.657	45.4
293.871	94.55
294.086	43.35
294.301	106.84
294.516	164.18
294.73	67.92
294.945	-30.38
295.16	31.06
295.374	18.77
295.589	82.26
295.804	4.44
296.018	24.92
296.233	57.68
296.447	131.41
296.662	-36.52
296.877	61.78
297.091	59.73
297.306	33.11
297.52	57.68
297.735	106.84
297.949	74.07
298.164	98.64
298.378	35.16
298.593	26.96
298.807	37.2
299.022	22.87
299.236	78.16
299.451	26.96
299.665	22.87
299.88	37.2
300.094	115.03
300.309	16.73
300.523	16.73
300.737	-34.47
300.952	57.68
301.166	-7.85
301.381	82.26
301.595	10.58
301.809	65.88
302.024	43.35
302.238	4.44
302.452	119.12
302.667	53.59
302.881	61.78
303.095	-32.43
303.309	26.96
303.524	-46.76
303.738	-11.95
303.952	14.68
304.166	16.73
304.381	24.92
304.595	-7.85
304.809	45.4
305.023	57.68
305.237	-28.33
305.452	49.49
305.666	51.54
305.88	-28.33
306.094	131.41
306.308	108.88
306.522	67.92
306.736	78.16
306.95	31.06
307.164	74.07
307.379	106.84
307.593	65.88
307.807	45.4
308.021	8.53
308.235	82.26
308.449	12.63
308.663	94.55
308.877	59.73
309.091	22.87
309.305	88.4
309.519	24.92
309.733	115.03
309.947	18.77
310.161	104.79
310.374	37.2
310.588	24.92
310.802	12.63
311.016	10.58
311.23	82.26
311.444	59.73
311.658	18.77
311.872	26.96
312.085	16.73
312.299	76.12
312.513	76.12
312.727	61.78
312.941	53.59
313.154	10.58
313.368	16.73
313.582	82.26
313.796	-13.99
314.009	125.27
314.223	80.21
314.437	53.59
314.651	47.44
314.864	8.53
315.078	53.59
315.292	16.73
315.505	6.49
315.719	43.35
315.933	14.68
316.146	16.73
316.36	49.49
316.573	10.58
316.787	47.44
317.001	67.92
317.214	2.39
317.428	49.49
317.641	-46.76
317.855	-20.14
318.068	22.87
318.282	65.88
318.495	84.31
318.709	43.35
318.922	10.58
319.136	98.64
319.349	-16.04
319.563	-13.99
319.776	37.2
319.99	-13.99
320.203	86.36
320.417	29.01
320.63	53.59
320.843	133.46
321.057	88.4
321.27	53.59
321.483	51.54
321.697	-32.43
321.91	110.93
322.124	65.88
322.337	8.53
322.55	57.68
322.763	26.96
322.977	-3.75
323.19	4.44
323.403	-40.62
323.617	86.36
323.83	-7.85
324.043	51.54
324.256	33.11
324.469	37.2
324.683	76.12
324.896	47.44
325.109	8.53
325.322	-32.43
325.535	76.12
325.748	18.77
325.962	53.59
326.175	88.4
326.388	-30.38
326.601	33.11
326.814	-32.43
327.027	43.35
327.24	117.08
327.453	24.92
327.666	98.64
327.879	78.16
328.092	65.88
328.305	20.82
328.518	2.39
328.731	26.96
328.944	53.59
329.157	98.64
329.37	31.06
329.583	106.84
329.796	115.03
330.009	29.01
330.222	4.44
330.435	4.44
330.648	18.77
330.861	65.88
331.073	29.01
331.286	49.49
331.499	37.2
331.712	31.06
331.925	74.07
332.138	24.92
332.35	61.78
332.563	10.58
332.776	108.88
332.989	35.16
333.202	26.96
333.414	18.77
333.627	74.07
333.84	-5.8
334.053	104.79
334.265	-3.75
334.478	55.64
334.691	65.88
334.903	92.5
335.116	37.2
335.329	53.59
335.541	45.4
335.754	41.3
335.966	41.3
336.179	43.35
336.392	8.53
336.604	20.82
336.817	37.2
337.029	4.44
337.242	43.35
337.454	-22.19
337.667	-32.43
337.88	29.01
338.092	57.68
338.305	76.12
338.517	33.11
338.729	57.68
338.942	139.6
339.154	6.49
339.367	-22.19
339.579	0.34
339.792	49.49
340.004	78.16
340.217	-24.23
340.429	59.73
340.641	8.53
340.854	8.53
341.066	37.2
341.278	86.36
341.491	65.88
341.703	72.02
341.915	59.73
342.128	86.36
342.34	78.16
342.552	22.87
342.764	61.78
342.977	67.92
343.189	-71.34
343.401	49.49
343.613	-5.8
343.826	10.58
344.038	16.73
344.25	4.44
344.462	-16.04
344.674	-5.8
344.886	29.01
345.099	18.77
345.311	69.97
345.523	51.54
345.735	57.68
345.947	4.44
346.159	121.17
346.371	76.12
346.583	-22.19
346.795	41.3
347.007	22.87
347.219	69.97
347.431	55.64
347.643	59.73
347.855	88.4
348.067	110.93
348.279	8.53
348.491	98.64
348.703	84.31
348.915	106.84
349.127	41.3
349.339	115.03
349.551	84.31
349.763	0.34
349.975	2.39
350.187	51.54
350.399	63.83
350.61	45.4
350.822	80.21
351.034	-32.43
351.246	-11.95
351.458	-5.8
351.669	0.34
351.881	76.12
352.093	16.73
352.305	106.84
352.517	88.4
352.728	45.4
352.94	90.45
353.152	16.73
353.363	22.87
353.575	-30.38
353.787	92.5
353.999	-57
354.21	26.96
354.422	84.31
354.633	35.16
354.845	33.11
355.057	82.26
355.268	35.16
355.48	117.08
355.692	90.45
355.903	43.35
356.115	37.2
356.326	24.92
356.538	37.2
356.749	8.53
356.961	86.36
357.172	65.88
357.384	26.96
357.595	94.55
357.807	108.88
358.018	-32.43
358.23	59.73
358.441	33.11
358.653	92.5
358.864	102.74
359.075	37.2
359.287	24.92
359.498	80.21
359.709	61.78
359.921	127.32
360.132	119.12
360.344	164.18
360.555	135.51
360.766	37.2
360.977	61.78
361.189	164.18
361.4	-48.81
361.611	74.07
361.823	100.69
362.034	16.73
362.245	-7.85
362.456	49.49
362.667	31.06
362.879	49.49
363.09	8.53
363.301	45.4
363.512	106.84
363.723	57.68
363.935	-24.23
364.146	-16.04
364.357	59.73
364.568	104.79
364.779	18.77
364.99	123.22
365.201	-3.75
365.412	125.27
365.623	26.96
365.834	65.88
366.045	74.07
366.256	45.4
366.467	86.36
366.678	49.49
366.889	49.49
367.1	26.96
367.311	-7.85
367.522	-16.04
367.733	41.3
367.944	90.45
368.155	76.12
368.366	100.69
368.577	112.98
368.788	100.69
368.999	57.68
369.209	65.88
369.42	149.84
369.631	115.03
369.842	96.6
370.053	35.16
370.264	65.88
370.474	53.59
370.685	49.49
370.896	33.11
371.107	59.73
371.317	43.35
371.528	35.16
371.739	106.84
371.95	33.11
372.16	76.12
372.371	-32.43
372.582	37.2
372.792	53.59
373.003	14.68
373.214	49.49
373.424	39.25
373.635	-1.71
373.846	72.02
374.056	0.34
374.267	100.69
374.477	76.12
374.688	31.06
374.898	82.26
375.109	57.68
375.319	8.53
375.53	82.26
375.74	108.88
375.951	43.35
376.161	51.54
376.372	49.49
376.582	47.44
376.793	82.26
377.003	26.96
377.214	35.16
377.424	76.12
377.635	-5.8
377.845	-16.04
378.055	78.16
378.266	84.31
378.476	24.92
378.686	117.08
378.897	37.2
379.107	18.77
379.317	29.01
379.528	69.97
379.738	151.89
379.948	65.88
380.158	139.6
380.369	45.4
380.579	43.35
380.789	29.01
380.999	131.41
381.21	45.4
381.42	67.92
381.63	63.83
381.84	74.07
382.05	45.4
382.261	57.68
382.471	45.4
382.681	59.73
382.891	94.55
383.101	51.54
383.311	-44.71
383.521	41.3
383.731	41.3
383.941	74.07
384.151	49.49
384.361	65.88
384.571	-40.62
384.781	110.93
384.991	88.4
385.201	82.26
385.411	26.96
385.621	-7.85
385.831	2.39
386.041	16.73
386.251	65.88
386.461	43.35
386.671	65.88
386.881	90.45
387.091	35.16
387.301	106.84
387.511	10.58
387.72	61.78
387.93	33.11
388.14	20.82
388.35	37.2
388.56	14.68
388.769	-7.85
388.979	0.34
389.189	37.2
389.399	53.59
389.609	69.97
389.818	61.78
390.028	94.55
390.238	49.49
390.447	4.44
390.657	53.59
390.867	6.49
391.076	-16.04
391.286	24.92
391.496	74.07
391.705	98.64
391.915	123.22
392.125	26.96
392.334	143.7
392.544	96.6
392.753	37.2
392.963	-65.19
393.172	51.54
393.382	92.5
393.591	53.59
393.801	106.84
394.01	112.98
394.22	33.11
394.429	90.45
394.639	92.5
394.848	45.4
395.058	86.36
395.267	117.08
395.477	57.68
395.686	92.5
395.895	86.36
396.105	94.55
396.314	108.88
396.524	72.02
396.733	2.39
396.942	100.69
397.152	125.27
397.361	158.03
397.57	131.41
397.78	82.26
397.989	43.35
398.198	168.27
398.407	88.4
398.617	125.27
398.826	125.27
399.035	106.84
399.244	86.36
399.453	190.8
399.663	57.68
399.872	184.66
400.081	57.68
400.29	108.88
400.499	65.88
400.708	133.46
400.917	53.59
401.127	90.45
401.336	49.49
401.545	115.03
401.754	164.18
401.963	49.49
402.172	115.03
402.381	92.5
402.59	-32.43
402.799	57.68
403.008	184.66
403.217	117.08
403.426	145.75
403.635	63.83
403.844	33.11
404.053	123.22
404.262	90.45
404.471	131.41
404.68	121.17
404.888	90.45
405.097	172.37
405.306	139.6
405.515	96.6
405.724	92.5
405.933	92.5
406.142	121.17
406.35	182.61
406.559	184.66
406.768	141.65
406.977	188.75
407.185	82.26
407.394	172.37
407.603	117.08
407.812	237.91
408.02	192.85
408.229	213.33
408.438	194.9
408.646	168.27
408.855	160.08
409.064	147.8
409.272	180.56
409.481	258.39
409.69	188.75
409.898	225.62
410.107	272.72
410.315	256.34
410.524	274.77
410.733	258.39
410.941	262.48
411.15	264.53
411.358	246.1
411.567	366.93
411.775	342.35
411.984	272.72
412.192	280.91
412.401	348.5
412.609	366.93
412.818	395.6
413.026	295.25
413.234	401.74
413.443	354.64
413.651	418.13
413.86	436.56
414.068	397.65
414.276	510.29
414.485	493.9
414.693	479.57
414.901	493.9
415.11	500.05
415.318	452.94
415.526	493.9
415.734	608.59
415.943	627.02
416.151	624.97
416.359	635.21
416.567	618.83
416.776	665.93
416.984	715.08
417.192	704.84
417.4	706.89
417.608	708.94
417.817	751.95
418.025	786.76
418.233	803.15
418.441	819.53
418.649	870.73
418.857	909.64
419.065	987.46
419.273	950.6
419.481	1009.99
419.689	1016.13
419.897	1091.91
420.105	1009.99
420.313	1128.77
420.521	1102.15
420.729	1216.83
420.937	1175.88
421.145	1317.19
421.353	1429.82
421.561	1358.14
421.769	1294.66
421.977	1491.26
422.185	1462.59
422.393	1599.8
422.601	1704.25
422.809	1663.29
423.017	1614.14
423.224	1761.59
423.432	1868.09
423.64	1904.95
423.848	2007.35
424.056	1925.43
424.263	2171.19
424.471	2027.83
424.679	2122.04
424.887	2228.53
425.094	2269.49
425.302	2294.07
425.51	2328.88
425.718	2500.91
425.925	2519.34
426.133	2523.44
426.341	2781.48
426.548	2793.77
426.756	2773.29
426.964	2834.73
427.171	2990.38
427.379	2990.38
427.586	3172.64
427.794	3252.52
428.001	3311.91
428.209	3582.24
428.417	3318.05
428.624	3537.18
428.832	3596.57
429.039	3809.56
429.247	3719.45
429.454	3895.58
429.662	4311.32
429.869	3860.76
430.076	4391.19
430.284	4100.37
430.491	4428.05
430.699	4589.84
430.906	4602.13
431.114	4563.22
431.321	4768.01
431.528	4866.32
431.736	5269.76
431.943	5474.56
432.15	5320.96
432.358	5290.24
432.565	5708.03
432.772	5452.03
432.979	5832.96
433.187	5878.01
433.394	6033.66
433.601	6426.87
433.808	6367.48
434.016	6418.68
434.223	6545.65
434.43	7039.21
434.637	6971.63
434.844	7387.36
435.052	7631.07
435.259	7528.67
435.466	7667.94
435.673	7383.27
435.88	7850.21
436.087	8388.82
436.294	8405.21
436.501	8128.73
436.708	8440.02
436.915	8521.94
437.122	8872.14
437.329	9013.45
437.537	9226.44
437.743	9472.2
437.95	9150.67
438.157	9861.31
438.364	10158.27
438.571	10158.27
438.778	10240.19
438.985	11215.02
439.192	10786.99
439.399	11059.37
439.606	10739.89
439.813	11423.91
440.02	12114.08
440.227	11796.64
440.433	12007.58
440.64	12150.94
440.847	12066.97
441.054	12341.4
441.261	13164.68
441.467	13013.13
441.674	13408.39
441.881	13676.68
442.088	13848.71
442.294	13656.2
442.501	14010.5
442.708	14205.05
442.914	14471.29
443.121	15802.47
443.328	15112.3
443.534	15988.83
443.741	15747.17
443.948	15462.51
444.154	16793.69
444.361	16621.66
444.568	16394.33
444.774	16547.93
444.981	16529.5
445.187	17426.51
445.394	18047.04
445.6	17760.33
445.807	19402.8
446.013	18755.64
446.22	19066.93
446.426	19701.8
446.633	19787.82
446.839	20711.45
447.046	20154.4
447.252	20783.13
447.459	20776.98
447.665	20779.03
447.871	21807.11
448.078	22685.69
448.284	21780.49
448.491	22167.56
448.697	23248.88
448.903	23662.57
449.11	23465.97
449.316	23300.08
449.522	23529.45
449.728	24848.35
449.935	24553.44
450.141	24864.73
450.347	25153.49
450.553	24690.65
450.76	24704.99
450.966	25470.93
451.172	25296.85
451.378	26283.97
451.584	25374.67
451.791	26048.46
451.997	25847.75
452.203	26691.52
452.409	26744.77
452.615	26548.16
452.821	25501.65
453.027	25137.11
453.233	26611.65
453.44	25460.69
453.646	26032.07
453.852	25944.01
454.058	26429.38
454.264	25266.13
454.47	26472.39
454.676	25563.09
454.882	26535.87
455.088	24078.31
455.294	24598.49
455.5	25061.33
455.705	25522.13
455.911	24145.89
456.117	23601.13
456.323	23470.06
456.529	22315.01
456.735	23412.72
456.941	22849.53
457.147	22550.53
457.352	21708.81
457.558	21624.84
457.764	21569.55
457.97	21329.94
458.176	20752.41
458.381	20772.89
458.587	19753
458.793	19882.02
458.999	18843.7
459.204	20011.04
459.41	19927.08
459.616	18239.55
459.821	18212.93
460.027	18126.91
460.233	17735.75
460.438	17158.22
460.644	17471.56
460.85	16515.16
461.055	16132.19
461.261	16072.8
461.466	15128.69
461.672	14479.48
461.878	15622.25
462.083	14463.1
462.289	14241.92
462.494	13955.2
462.7	13545.61
462.905	13246.6
463.111	13723.78
463.316	13486.22
463.522	13375.63
463.727	13158.54
463.932	13172.88
464.138	13242.51
464.343	13502.6
464.549	12935.31
464.754	13432.97
464.959	13258.89
465.165	13086.86
465.37	12462.23
465.575	12236.95
465.781	12697.75
465.986	12677.27
466.191	12279.96
466.397	11880.61
466.602	11493.54
466.807	11823.26
467.012	11968.67
467.218	11835.55
467.423	11706.53
467.628	11538.6
467.833	12066.97
468.038	11993.25
468.244	11446.44
468.449	11976.86
468.654	11641
468.859	11557.03
469.064	11120.81
469.269	10719.41
469.474	11036.84
469.679	11249.83
469.885	11012.27
470.09	11208.87
470.295	10995.89
470.5	10743.99
470.705	10739.89
470.91	10670.26
471.115	10518.71
471.32	10789.04
471.525	10739.89
471.73	10457.27
471.935	10264.76
472.139	10053.82
472.344	10231.99
472.549	9949.37
472.754	10135.74
472.959	9801.92
473.164	9597.12
473.369	9584.84
473.574	9793.73
473.778	9605.31
473.983	9568.45
474.188	9547.97
474.393	9160.91
474.598	9240.78
474.802	8999.12
475.007	8939.72
475.212	9056.46
475.417	8771.79
475.621	8782.03
475.826	8734.93
476.031	8720.59
476.235	8456.4
476.44	8493.27
476.645	8431.83
476.849	8497.36
477.054	8308.95
477.259	8317.14
477.463	8270.04
477.668	7966.94
477.872	8145.11
478.077	7987.42
478.282	7790.81
478.486	7856.35
478.691	7590.11
478.895	7696.61
479.1	7577.83
479.304	7643.36
479.509	7446.76
479.713	7549.15
479.918	7327.97
480.122	7143.66
480.326	7164.14
480.531	7446.76
480.735	7209.19
480.94	7282.92
481.144	7407.84
481.348	7020.78
481.553	7147.75
481.757	7028.97
481.961	7184.62
482.166	7225.58
482.37	7000.3
482.574	6949.1
482.778	7078.12
482.983	7119.08
483.187	7090.41
483.391	6969.58
483.595	6805.74
483.8	6887.66
484.004	6985.96
484.208	6994.15
484.412	6992.11
484.616	7016.68
484.821	7104.74
485.025	6824.17
485.229	7110.89
485.433	6942.96
485.637	7006.44
485.841	6717.68
486.045	6865.13
486.249	7059.69
486.453	7061.74
486.657	7026.92
486.861	6949.1
487.065	6838.51
487.269	6955.24
487.473	6824.17
487.677	7047.4
487.881	7063.79
488.085	7131.37
488.289	7069.93
488.493	6971.63
488.697	7045.35
488.901	6981.87
489.105	7143.66
489.309	7090.41
489.512	7004.39
489.716	7104.74
489.92	7170.28
490.124	7016.68
490.328	7196.9
490.531	7360.74
490.735	7358.69
490.939	7618.79
491.143	7217.38
491.346	7258.34
491.55	7360.74
491.754	7305.45
491.958	7440.61
492.161	7405.8
492.365	7545.06
492.569	7325.93
492.772	7575.78
492.976	7647.46
493.18	7594.21
493.383	7588.07
493.587	7725.28
493.79	7928.03
493.994	7643.36
494.197	7962.84
494.401	8065.24
494.605	7831.77
494.808	8052.95
495.012	8003.8
495.215	8098.01
495.419	8282.33
495.622	8184.02
495.825	8208.6
496.029	8339.67
496.232	8540.37
496.436	8311
496.639	8775.89
496.843	8765.65
497.046	8773.84
497.249	8773.84
497.453	8806.61
497.656	9068.75
497.859	8964.3
498.063	9208.01
498.266	9425.09
498.469	9320.65
498.673	9629.89
498.876	9617.6
499.079	9601.22
499.282	9640.13
499.485	9967.81
499.689	10098.88
499.892	10119.35
500.095	10035.39
500.298	10594.48
500.501	10551.48
500.705	10619.06
500.908	10789.04
501.111	10997.93
501.314	11010.22
501.517	10903.73
501.72	11290.79
501.923	11167.91
502.126	11638.95
502.329	11765.92
502.532	11684
502.735	11686.05
502.938	11896.99
503.141	12124.32
503.344	12390.55
503.547	12693.65
503.75	12499.09
503.953	12697.75
504.156	12927.12
504.359	13074.57
504.562	12949.65
504.765	13359.24
504.968	13482.12
505.17	13631.62
505.373	13615.24
505.576	13854.85
505.779	13942.91
505.982	14213.24
506.185	14536.82
506.387	14475.38
506.59	14698.61
506.793	15126.64
506.996	15083.63
507.198	15313
507.401	15257.71
507.604	15274.09
507.807	16124
508.009	16060.51
508.212	15853.67
508.415	16423
508.617	16269.41
508.82	16666.71
509.022	16486.49
509.225	17086.54
509.428	17369.16
509.63	17543.24
509.833	17385.55
510.035	17748.04
510.238	17647.69
510.44	18001.99
510.643	18284.61
510.845	18563.13
511.048	18462.78
511.25	18729.02
511.453	18948.15
511.655	19736.62
511.858	19302.45
512.06	19519.53
512.262	20013.09
512.465	19632.17
512.667	19996.71
512.87	20252.7
513.072	20295.71
513.274	20989.97
513.477	20869.14
513.679	21250.07
513.881	21391.37
514.084	21573.64
514.286	21626.89
514.488	21612.56
514.69	22181.89
514.893	22513.66
515.095	22446.08
515.297	22808.57
515.499	22890.49
515.701	23252.98
515.904	23504.88
516.106	23717.87
516.308	23926.76
516.51	24109.03
516.712	24158.18
516.914	24309.73
517.116	25026.52
517.318	25026.52
517.52	25061.33
517.722	25296.85
517.925	25567.18
518.127	25941.96
518.329	26281.92
518.531	25931.72
518.733	26505.15
518.935	26681.28
519.136	26716.09
519.338	27232.18
519.54	27391.92
519.742	27516.85
519.944	27627.44
520.146	27903.92
520.348	28133.29
520.55	28450.72
520.752	28452.77
520.954	28919.71
521.155	29110.17
521.357	29482.9
521.559	29691.79
521.761	29968.27
521.963	29634.45
522.164	29974.41
522.366	30369.67
522.568	30506.88
522.77	30658.43
522.971	31217.53
523.173	30949.25
523.375	31209.34
523.576	31477.62
523.778	31151.99
523.98	31465.33
524.181	32053.1
524.383	32053.1
524.584	32468.84
524.786	32302.95
524.988	32348.01
525.189	32933.73
525.391	32911.2
525.592	32890.72
525.794	33353.56
525.995	33148.76
526.197	33257.31
526.398	33404.76
526.6	33423.19
526.801	34119.5
527.003	34004.81
527.204	34328.39
527.406	34299.72
527.607	34039.63
527.808	34486.09
528.01	33941.33
528.211	34484.04
528.412	35082.05
528.614	34881.35
528.815	34905.92
529.016	35358.52
529.218	34742.08
529.419	35082.05
529.62	35297.08
529.822	35075.9
530.023	35321.66
530.224	35286.84
530.425	35413.82
530.626	35127.1
530.828	35403.58
531.029	35411.77
531.23	35333.95
531.431	35520.31
531.632	35772.21
531.833	35895.09
532.035	35721.01
532.236	35374.91
532.437	36177.71
532.638	35383.1
532.839	35999.54
533.04	35995.44
533.241	35419.96
533.442	36478.76
533.643	36392.75
533.844	36095.79
534.045	36038.45
534.246	35897.14
534.447	36017.97
534.648	36054.83
534.849	36382.51
535.05	36237.1
535.251	36282.16
535.451	36124.46
535.652	36118.32
535.853	36161.33
536.054	36296.49
536.255	36106.03
536.456	35782.45
536.657	36482.86
536.857	36224.81
537.058	35923.76
537.259	36036.4
537.46	36224.81
537.66	35839.79
537.861	36243.24
538.062	36321.07
538.263	36257.58
538.463	35923.76
538.664	36132.65
538.865	36386.6
539.065	36611.88
539.266	35608.37
539.466	36585.26
539.667	35897.14
539.868	36359.98
540.068	36009.78
540.269	36040.5
540.469	36300.59
540.67	35927.86
540.87	35940.14
541.071	36298.54
541.271	36417.32
541.472	36198.19
541.672	35905.33
541.873	35886.9
542.073	35575.61
542.274	36069.17
542.474	36044.59
542.675	35876.66
542.875	36052.78
543.075	35868.47
543.276	35639.09
543.476	36382.51
543.676	35516.22
543.877	36153.13
544.077	35723.06
544.277	35903.28
544.478	35716.92
544.678	35893.04
544.878	35802.93
545.078	35782.45
545.279	35731.25
545.479	35739.44
545.679	35958.58
545.879	35782.45
546.079	35798.84
546.28	35809.07
546.48	35415.86
546.68	35682.1
546.88	35989.3
547.08	35870.51
547.28	35608.37
547.48	35565.37
547.68	35710.77
547.88	35598.13
548.081	35909.43
548.281	35886.9
548.481	35655.48
548.681	35579.7
548.881	35798.84
549.081	35460.92
549.28	35206.97
549.48	35786.55
549.68	35548.98
549.88	36085.55
550.08	35344.19
550.28	35358.52
550.48	35663.67
550.68	35860.27
550.88	35360.57
551.08	35499.83
551.279	35622.71
551.479	35395.39
551.679	35616.57
551.879	35587.89
552.079	35548.98
552.278	35307.32
552.478	35350.33
552.678	35188.54
552.878	35512.12
553.077	35678
553.277	34946.88
553.477	35610.42
553.676	35415.86
553.876	35422.01
554.076	35192.64
554.275	35553.08
554.475	34885.44
554.674	35411.77
554.874	35243.84
555.074	34656.07
555.273	35153.72
555.473	35153.72
555.672	34805.57
555.872	35213.12
556.071	35114.81
556.271	35323.71
556.47	35030.85
556.67	34666.31
556.869	35198.78
557.068	35219.26
557.268	34805.57
557.467	34826.05
557.667	34838.34
557.866	34981.7
558.065	34920.26
558.265	34279.24
558.464	34377.54
558.663	34746.18
558.863	33924.94
559.062	35018.56
559.261	34244.43
559.461	34688.84
559.66	34039.63
559.859	34129.74
560.058	33961.81
560.258	34258.76
560.457	33972.05
560.656	34348.87
560.855	34033.49
561.054	34166.6
561.253	33832.79
561.453	33832.79
561.652	34008.91
561.851	34221.9
562.05	33623.89
562.249	33773.39
562.448	33994.57
562.647	33847.12
562.846	33453.91
563.045	33861.46
563.244	33572.69
563.443	33818.45
563.642	33527.64
563.841	33345.37
564.04	33075.04
564.239	33587.03
564.438	32874.34
564.637	33335.13
564.836	33212.25
565.035	32638.82
565.234	33464.15
565.432	32876.38
565.631	32823.14
565.83	33032.03
566.029	32470.89
566.228	32757.6
566.427	32704.35
566.625	32638.82
566.824	32190.31
567.023	32593.76
567.222	32380.78
567.42	32364.39
567.619	32477.03
567.818	32251.75
568.016	32085.87
568.215	32257.9
568.414	32165.74
568.612	32311.14
568.811	31946.61
569.01	32044.91
569.208	31817.58
569.407	31876.97
569.605	31391.61
569.804	31934.32
570.002	31426.42
570.201	31655.79
570.4	31328.12
570.598	31209.34
570.797	31362.93
570.995	31670.13
571.193	30734.21
571.392	31448.95
571.59	30881.66
571.789	30832.51
571.987	31035.26
572.186	30693.25
572.384	30594.95
572.582	30922.62
572.781	30795.65
572.979	30164.87
573.177	30228.36
573.376	30474.12
573.574	30293.9
573.772	30338.95
573.971	30125.96
574.169	30103.43
574.367	29890.45
574.565	29966.22
574.763	29663.12
574.962	29798.29
575.16	29292.44
575.358	29706.13
575.556	29603.73
575.754	29689.74
575.952	29407.12
576.151	29417.36
576.349	29120.41
576.547	29052.83
576.745	29294.49
576.943	29368.21
577.141	29075.35
577.339	29155.22
577.537	28833.69
577.735	28628.9
577.933	28692.38
578.131	29175.7
578.329	28415.91
578.527	28264.36
578.725	28483.49
578.923	28262.31
579.121	28166.06
579.319	28485.54
579.516	28405.67
579.714	28430.24
579.912	28037.03
580.11	27506.61
580.308	27789.23
580.506	27948.97
580.704	27498.42
580.901	27817.9
581.099	27772.85
581.297	27187.13
581.495	27506.61
581.692	27373.49
581.89	27166.65
582.088	27393.97
582.285	26765.24
582.483	27160.5
582.681	27279.29
582.878	27047.86
583.076	26974.14
583.274	27045.82
583.471	26838.97
583.669	26685.37
583.866	26410.95
584.064	26439.62
584.262	26124.23
584.459	26613.7
584.657	26116.04
584.854	26648.51
585.052	25982.92
585.249	26138.57
585.447	26146.76
585.644	25669.58
585.841	25935.82
586.039	26128.33
586.236	25694.16
586.434	25696.21
586.631	25542.61
586.828	25671.63
587.026	25573.33
587.223	25419.73
587.42	25245.65
587.618	25290.71
587.815	25024.47
588.012	25448.4
588.21	25047
588.407	25173.97
588.604	25006.04
588.801	24522.72
588.999	24704.99
589.196	25149.4
589.393	24551.39
589.59	24629.21
589.787	24494.05
589.984	24502.24
590.182	24442.85
590.379	24334.31
590.576	24424.42
590.773	23932.9
590.97	24039.4
591.167	24190.95
591.364	23855.08
591.561	23846.89
591.758	23701.48
591.955	23701.48
592.152	23676.91
592.349	23308.27
592.546	23635.95
592.743	23619.56
592.94	22945.78
593.137	23506.93
593.334	23343.09
593.531	23236.59
593.727	23177.2
593.924	23279.6
594.121	22689.79
594.318	23054.33
594.515	22659.07
594.712	23310.32
594.908	22728.7
595.105	22589.44
595.302	22466.56
595.499	22671.36
595.696	22429.7
595.892	22491.13
596.089	22331.39
596.286	22360.06
596.482	22444.03
596.679	22147.08
596.876	22335.49
597.072	21983.24
597.269	21989.38
597.466	21626.89
597.662	21880.84
597.859	21766.15
598.055	21676.04
598.252	21637.13
598.448	21565.45
598.645	21729.29
598.841	21579.79
599.038	21594.12
599.234	21245.97
599.431	21092.37
599.627	21229.59
599.824	21116.95
600.02	20924.44
600.217	21248.02
600.413	20989.97
600.609	21116.95
600.806	20676.63
601.002	20811.8
601.198	20817.94
601.395	20713.5
601.591	20551.71
601.787	20463.65
601.984	20484.12
602.18	20520.99
602.376	20320.29
602.572	20346.91
602.769	20328.48
602.965	20260.9
603.161	19996.71
603.357	20135.97
603.553	19798.06
603.75	19810.34
603.946	20004.9
604.142	20123.68
604.338	19656.75
604.534	19648.55
604.73	19226.67
604.926	19394.61
605.122	19937.32
605.318	19216.43
605.514	19378.22
605.71	19519.53
605.906	19279.92
606.102	19206.19
606.298	19236.91
606.494	19095.6
606.69	18896.95
606.886	19222.58
607.082	18810.93
607.278	18903.09
607.474	18399.29
607.67	18716.73
607.866	18548.79
608.062	18817.08
608.257	18643
608.453	18696.25
608.649	18722.87
608.845	18567.23
609.041	18335.81
609.236	18464.83
609.432	18440.25
609.628	18380.86
609.824	18341.95
610.019	18069.57
610.215	18194.5
610.411	18374.72
610.606	18036.8
610.802	18098.24
610.998	17967.17
611.193	18079.81
611.389	17975.36
611.584	17965.12
611.78	17637.45
611.976	17711.18
612.171	17832.01
612.367	17666.12
612.562	17627.21
612.758	17399.88
612.953	17592.39
613.149	17827.91
613.344	17553.48
613.539	17469.51
613.735	17604.68
613.93	17633.35
614.126	17244.24
614.321	17655.88
614.517	17510.47
614.712	17258.57
614.907	17207.37
615.103	17266.77
615.298	17088.59
615.493	17154.13
615.688	17000.53
615.884	17453.13
616.079	16853.08
616.274	17156.18
616.47	17113.17
616.665	16932.95
616.86	16869.46
617.055	16859.22
617.25	16679
617.445	17119.31
617.641	16814.16
617.836	16638.04
618.031	16484.44
618.226	16625.75
618.421	16343.13
618.616	16701.53
618.811	16080.99
619.006	16384.09
619.201	15990.88
619.396	16060.51
619.591	15736.93
619.786	15988.83
619.981	15853.67
620.176	16146.53
620.371	15751.27
620.566	15894.63
620.761	15540.33
620.956	15716.45
621.151	15302.76
621.346	15319.15
621.541	15083.63
621.735	15343.72
621.93	15290.48
622.125	15333.48
622.32	15050.86
622.515	15235.18
622.709	14919.79
622.904	14872.69
623.099	14536.82
623.294	14712.95
623.488	14612.6
623.683	14485.62
623.878	14450.81
624.072	14295.16
624.267	14223.48
624.462	14221.44
624.656	14219.39
624.851	14246.01
625.046	14145.66
625.24	13881.47
625.435	13963.39
625.629	14035.07
625.824	13537.41
626.018	13576.33
626.213	13648.01
626.407	13648.01
626.602	13404.3
626.796	13512.84
626.991	13478.02
627.185	13189.26
627.38	13226.12
627.574	12945.55
627.768	13019.28
627.963	12939.41
628.157	12951.7
628.352	12837.01
628.546	12634.26
628.74	12703.89
628.935	12408.98
629.129	12568.73
629.323	12251.29
629.517	12263.58
629.712	12298.39
629.906	12247.19
630.1	11995.29
630.294	12185.76
630.489	11927.71
630.683	12343.45
630.877	11841.7
631.071	11847.84
631.265	12040.35
631.459	11737.25
631.653	11782.31
631.848	11819.17
632.042	11610.28
632.236	11634.85
632.43	11534.5
632.624	11460.77
632.818	11554.98
633.012	11088.04
633.206	11180.2
633.4	11219.11
633.594	11137.2
633.788	11004.08
633.982	10805.42
634.176	10940.59
634.369	10956.97
634.563	10952.88
634.757	10608.82
634.951	10799.28
635.145	10721.46
635.339	10772.66
635.533	10463.41
635.726	10643.63
635.92	10248.38
636.114	10391.73
636.308	10477.75
636.501	10236.09
636.695	10166.46
636.889	10027.2
637.083	10021.05
637.276	10094.78
637.47	9976
637.664	9932.99
637.857	10131.64
638.051	9935.04
638.244	9777.34
638.438	9613.51
638.632	9724.1
638.825	9562.31
639.019	9547.97
639.212	9398.47
639.406	9394.37
639.599	9367.75
639.793	9351.37
639.986	9359.56
640.18	9402.57
640.373	9185.48
640.567	9052.36
640.76	9134.28
640.954	9078.99
641.147	8870.09
641.34	9007.31
641.534	9117.9
641.727	8859.85
641.92	8890.57
642.114	8708.3
642.307	8773.84
642.5	8552.66
642.694	8394.97
642.887	8630.48
643.08	8620.24
643.273	8540.37
643.467	8372.44
643.66	8192.22
643.853	8267.99
644.046	8390.87
644.239	8495.32
644.432	8136.92
644.626	8085.72
644.819	8069.34
645.012	8061.15
645.205	8073.43
645.398	7983.32
645.591	7788.77
645.784	7966.94
645.977	7778.53
646.17	7807.2
646.363	7633.12
646.556	7678.18
646.749	7553.25
646.942	7618.79
647.135	7653.6
647.328	7368.93
647.521	7405.8
647.714	7438.56
647.907	7500
648.099	7346.41
648.292	7352.55
648.485	7319.78
648.678	7201
648.871	7108.84
649.064	7217.38
649.256	6975.72
649.449	7012.59
649.642	6875.37
649.835	6922.48
650.027	6932.72
650.22	6824.17
650.413	6713.58
650.605	6815.98
650.798	6848.75
650.991	6633.71
651.183	6541.55
651.376	6570.23
651.568	6584.56
651.761	6570.23
651.954	6592.75
652.146	6545.65
652.339	6406.39
652.531	6469.87
652.724	6553.84
652.916	6381.81
653.109	6504.69
653.301	6406.39
653.494	6392.05
653.686	6250.74
653.879	6217.97
654.071	6201.59
654.263	6125.82
654.456	6115.58
654.648	6189.3
654.84	5912.83
655.033	5824.76
655.225	6013.18
655.417	5878.01
655.61	5832.96
655.802	5808.38
655.994	5710.08
656.186	5687.55
656.379	5767.42
656.571	5636.35
656.763	5603.58
656.955	5640.45
657.148	5615.87
657.34	5495.04
657.532	5658.88
657.724	5525.76
657.916	5548.29
658.108	5570.82
658.3	5402.88
658.492	5470.47
658.684	5081.35
658.876	5357.83
659.068	5181.7
659.26	5308.68
659.452	5153.03
659.644	5226.76
659.836	5191.94
660.028	5093.64
660.22	4917.51
660.412	5081.35
660.604	4956.43
660.796	5122.31
660.988	5046.54
661.18	4880.65
661.372	4944.14
661.563	4808.97
661.755	4784.4
661.947	4866.32
662.139	4768.01
662.331	4688.14
662.522	4901.13
662.714	4722.96
662.906	4804.88
663.097	4788.49
663.289	4675.85
663.481	4573.46
663.673	4622.61
663.864	4507.92
664.056	4370.71
664.247	4559.12
664.439	4442.39
664.631	4344.08
664.822	4544.78
665.014	4505.87
665.205	4385.04
665.397	4262.16
665.588	4389.14
665.78	4301.08
665.971	4253.97
666.163	4264.21
666.354	4342.04
666.546	4137.24
666.737	4090.13
666.929	4178.2
667.12	4147.48
667.311	4088.09
667.503	4083.99
667.694	4161.81
667.885	3991.83
668.077	4061.46
668.268	4067.61
668.459	3940.63
668.651	4081.94
668.842	3889.43
669.033	3877.15
669.224	3842.33
669.416	3862.81
669.607	3805.47
669.798	3852.57
669.989	3840.28
670.18	3797.28
670.371	3834.14
670.563	3858.71
670.754	3893.53
670.945	3684.64
671.136	3637.53
671.327	3576.09
671.518	3619.1
671.709	3737.88
671.9	3752.22
672.091	3670.3
672.282	3682.59
672.473	3506.46
672.664	3549.47
672.855	3522.85
673.046	3524.9
673.237	3531.04
673.428	3549.47
673.619	3524.9
673.809	3539.23
674	3447.07
674.191	3531.04
674.382	3451.17
674.573	3608.86
674.764	3408.16
674.954	3580.19
675.145	3299.62
675.336	3463.46
675.527	3311.91
675.717	3434.78
675.908	3328.29
676.099	3512.61
676.289	3424.55
676.48	3262.76
676.671	3449.12
676.861	3330.34
677.052	3313.95
677.243	3303.71
677.433	3232.04
677.624	3311.91
677.814	3186.98
678.005	3334.43
678.195	3361.06
678.386	3240.23
678.576	3260.71
678.767	3385.63
678.957	3287.33
679.148	3262.76
679.338	3252.52
679.529	3172.64
679.719	3174.69
679.909	3232.04
680.1	3160.36
680.29	3207.46
680.481	3236.13
680.671	3203.36
680.861	3262.76
681.052	3207.46
681.242	3193.12
681.432	3203.36
681.622	3103.01
681.813	3129.64
682.003	3154.21
682.193	3135.78
682.383	3064.1
682.573	3170.6
682.764	3113.25
682.954	3098.92
683.144	3158.31
683.334	3125.54
683.524	3182.88
683.714	3211.56
683.904	2918.7
684.094	3143.97
684.284	3043.62
684.474	3174.69
684.664	2998.57
684.854	2982.18
685.044	3115.3
685.234	3060.01
685.424	3031.34
685.614	3008.81
685.804	3008.81
685.994	3051.81
686.184	3045.67
686.374	2937.13
686.564	3008.81
686.753	2941.22
686.943	2892.07
687.133	2912.55
687.323	2935.08
687.513	2982.18
687.702	3035.43
687.892	2765.1
688.082	2943.27
688.272	3002.66
688.461	2883.88
688.651	2959.66
688.841	2748.72
689.03	2912.55
689.22	2982.18
689.41	2830.63
689.599	2804.01
689.789	2855.21
689.979	2836.78
690.168	2804.01
690.358	2883.88
690.547	2756.91
690.737	2769.2
690.926	2812.2
691.116	2720.04
691.305	2738.48
691.495	2785.58
691.684	2660.65
691.874	2812.2
692.063	2656.56
692.252	2631.98
692.442	2750.76
692.631	2627.89
692.82	2711.85
693.01	2718
693.199	2591.02
693.388	2656.56
693.578	2570.54
693.767	2541.87
693.956	2523.44
694.146	2572.59
694.335	2605.36
694.524	2623.79
694.713	2582.83
694.902	2566.45
695.092	2457.9
695.281	2408.75
695.47	2533.68
695.659	2375.99
695.848	2425.14
696.037	2613.55
696.226	2474.29
696.415	2509.1
696.604	2494.77
696.793	2459.95
696.982	2494.77
697.171	2509.1
697.36	2560.3
697.549	2455.86
697.738	2492.72
697.927	2396.46
698.116	2400.56
698.305	2384.18
698.494	2412.85
698.683	2425.14
698.872	2427.18
699.061	2515.25
699.25	2384.18
699.438	2490.67
699.627	2570.54
699.816	2359.6
700.005	2343.22
700.193	2447.66
700.382	2353.46
700.571	2375.99
700.76	2332.98
700.948	2429.23
701.137	2322.74
701.326	2507.06
701.514	2326.83
701.703	2418.99
701.892	2343.22
702.08	2457.9
702.269	2322.74
702.457	2332.98
702.646	2339.12
702.834	2353.46
703.023	2349.36
703.212	2343.22
703.4	2335.03
703.589	2384.18
703.777	2236.72
703.965	2228.53
704.154	2269.49
704.342	2154.8
704.531	2261.3
704.719	2218.29
704.907	2310.45
705.096	2216.24
705.284	2175.28
705.472	2124.08
705.661	2265.39
705.849	2294.07
706.037	2326.83
706.226	2388.27
706.414	2320.69
706.602	2271.54
706.79	2140.47
706.979	2249.01
707.167	2183.48
707.355	2140.47
707.543	2163
707.731	2187.57
707.919	2177.33
708.107	2208.05
708.296	2181.43
708.484	2132.28
708.672	2113.85
708.86	2222.39
709.048	2210.1
709.236	2093.37
709.424	2249.01
709.612	2179.38
709.8	2163
709.988	2289.97
710.176	2160.95
710.364	2222.39
710.551	2089.27
710.739	2179.38
710.927	2146.61
711.115	2152.76
711.303	2228.53
711.491	2154.8
711.679	2154.8
711.866	2040.12
712.054	2072.89
712.242	2246.96
712.43	2169.14
712.617	2017.59
712.805	2171.19
712.993	2058.55
713.181	2160.95
713.368	2124.08
713.556	2085.17
713.744	2163
713.931	2087.22
714.119	2203.96
714.306	2124.08
714.494	1986.87
714.682	2134.32
714.869	2015.54
715.057	2167.09
715.244	2117.94
715.432	2044.21
715.619	2089.27
715.807	2023.73
715.994	2064.69
716.182	2056.5
716.369	2068.79
716.556	2101.56
716.744	2130.23
716.931	2070.84
717.119	2195.76
717.306	2091.32
717.493	2117.94
717.681	2056.5
717.868	2103.61
718.055	1962.3
718.242	2042.17
718.43	2117.94
718.617	2089.27
718.804	2183.48
718.991	1931.58
719.179	2187.57
719.366	2140.47
719.553	2031.93
719.74	2117.94
719.927	2029.88
720.114	2056.5
720.301	1986.87
720.488	2015.54
720.676	2036.02
720.863	2107.7
721.05	2126.13
721.237	2031.93
721.424	1999.16
721.611	1941.82
721.798	1954.1
721.985	2033.97
722.172	1993.01
722.358	1970.49
722.545	1974.58
722.732	2044.21
722.919	2011.45
723.106	2068.79
723.293	2052.41
723.48	1995.06
723.667	1988.92
723.853	2038.07
724.04	1890.62
724.227	2097.46
724.414	2007.35
724.6	2056.5
724.787	2068.79
724.974	1943.86
725.161	2074.93
725.347	2089.27
725.534	1993.01
725.72	2023.73
725.907	2101.56
726.094	2003.25
726.28	1941.82
726.467	2007.35
726.653	1902.9
726.84	1907
727.027	2031.93
727.213	1941.82
727.4	2105.65
727.586	1945.91
727.773	2048.31
727.959	1909.05
728.145	1976.63
728.332	2031.93
728.518	2050.36
728.705	2009.4
728.891	2017.59
729.077	1960.25
729.264	1943.86
729.45	1968.44
729.636	1976.63
729.823	1919.29
730.009	2025.78
730.195	2007.35
730.382	1933.62
730.568	1929.53
730.754	2089.27
730.94	1952.06
731.126	1950.01
731.313	2050.36
731.499	1925.43
731.685	2005.3
731.871	1976.63
732.057	1950.01
732.243	2017.59
732.429	2056.5
732.615	2015.54
732.801	1970.49
732.987	1966.39
733.173	2044.21
733.359	1880.38
733.545	1892.66
733.731	1952.06
733.917	2007.35
734.103	1925.43
734.289	1974.58
734.475	2003.25
734.661	1976.63
734.847	2025.78
735.033	2007.35
735.219	1937.72
735.404	1876.28
735.59	2013.49
735.776	1990.97
735.962	1929.53
736.148	1966.39
736.333	1929.53
736.519	1837.37
736.705	1863.99
736.89	1863.99
737.076	1853.75
737.262	1974.58
737.447	1919.29
737.633	1925.43
737.819	1982.78
738.004	1927.48
738.19	1886.52
738.375	2056.5
738.561	2064.69
738.747	1745.21
738.932	1859.9
739.118	1960.25
739.303	1888.57
739.489	1827.13
739.674	1786.17
739.859	1847.61
740.045	1820.99
740.23	1829.18
740.416	1732.92
740.601	1724.73
740.786	1888.57
740.972	1757.5
741.157	1868.09
741.342	1745.21
741.528	1802.55
741.713	1900.86
741.898	1837.37
742.084	1843.51
742.269	1716.54
742.454	1835.32
742.639	1831.23
742.824	1777.98
743.01	1851.71
743.195	1769.79
743.38	1739.07
743.565	1802.55
743.75	1753.4
743.935	1745.21
744.12	1837.37
744.305	1663.29
744.49	1698.11
744.675	1761.59
744.86	1704.25
745.045	1691.96
745.23	1651
745.415	1671.48
745.6	1747.26
745.785	1708.35
745.97	1648.96
746.155	1761.59
746.34	1669.44
746.525	1644.86
746.71	1560.89
746.895	1638.72
747.079	1589.57
747.264	1591.61
747.449	1591.61
747.634	1646.91
747.819	1560.89
748.003	1624.38
748.188	1501.5
748.373	1519.93
748.557	1499.45
748.742	1532.22
748.927	1526.08
749.111	1605.95
749.296	1401.15
749.481	1552.7
749.665	1483.07
749.85	1501.5
750.034	1528.13
750.219	1401.15
750.404	1528.13
750.588	1444.16
750.773	1409.34
750.957	1450.3
751.141	1313.09
751.326	1429.82
751.51	1413.44
751.695	1360.19
751.879	1409.34
752.064	1442.11
752.248	1413.44
752.432	1364.29
752.617	1288.51
752.801	1358.14
752.985	1392.96
753.17	1358.14
753.354	1395.01
753.538	1352
753.722	1343.81
753.907	1294.66
754.091	1210.69
754.275	1311.04
754.459	1294.66
754.643	1257.79
754.828	1206.59
755.012	1186.12
755.196	1163.59
755.38	1143.11
755.564	1212.74
755.748	1237.31
755.932	1130.82
756.116	1200.45
756.3	1175.88
756.484	1206.59
756.668	1151.3
756.852	1229.12
757.036	1032.52
757.22	1141.06
757.404	1073.48
757.588	1024.33
757.772	1106.24
757.956	1147.2
758.14	1212.74
758.323	1083.72
758.507	1096
758.691	1073.48
758.875	1048.9
759.059	1112.39
759.242	1126.72
759.426	1089.86
759.61	1112.39
759.794	1100.1
759.977	1040.71
760.161	1040.71
760.345	1098.05
760.528	1050.95
760.712	897.35
760.895	1081.67
761.079	1026.37
761.263	979.27
761.446	946.5
761.63	1030.47
761.813	966.98
761.997	934.22
762.18	954.69
762.364	1073.48
762.547	936.26
762.731	917.83
762.914	1026.37
763.098	860.49
763.281	926.02
763.464	860.49
763.648	928.07
763.831	928.07
764.015	942.41
764.198	979.27
764.381	907.59
764.564	876.87
764.748	907.59
764.931	870.73
765.114	942.41
765.297	852.3
765.481	883.02
765.664	817.48
765.847	909.64
766.03	995.65
766.213	874.82
766.397	794.95
766.58	903.5
766.763	876.87
766.946	801.1
767.129	876.87
767.312	813.38
767.495	960.84
767.678	917.83
767.861	788.81
768.044	880.97
768.227	729.42
768.41	704.84
768.593	876.87
768.776	827.72
768.959	813.38
769.142	811.34
769.324	827.72
769.507	811.34
769.69	784.71
769.873	821.58
770.056	790.86
770.239	774.47
770.421	856.39
770.604	770.38
770.787	803.15
770.97	835.91
771.152	756.04
771.335	794.95
771.518	780.62
771.7	794.95
771.883	770.38
772.066	782.67
772.248	756.04
772.431	860.49
772.613	780.62
772.796	739.66
772.978	751.95
773.161	700.75
773.343	737.61
773.526	696.65
773.708	649.55
773.891	753.99
774.073	608.59
774.256	674.12
774.438	797
774.621	670.03
774.803	670.03
774.985	661.84
775.168	737.61
775.35	663.88
775.532	696.65
775.715	627.02
775.897	647.5
776.079	602.44
776.261	692.55
776.444	633.16
776.626	600.4
776.808	569.68
776.99	592.2
777.173	520.53
777.355	606.54
777.537	627.02
777.719	618.83
777.901	608.59
778.083	657.74
778.265	545.1
778.447	618.83
778.629	575.82
778.811	622.92
778.993	557.39
779.175	600.4
779.357	555.34
779.539	524.62
779.721	536.91
779.903	588.11
780.085	534.86
780.267	557.39
780.449	590.16
780.631	590.16
780.812	573.77
780.994	561.48
781.176	602.44
781.358	493.9
781.54	438.61
781.721	483.66
781.903	444.75
782.085	475.47
782.267	506.19
782.448	541.01
782.63	483.66
782.812	483.66
782.993	459.09
783.175	487.76
783.357	457.04
783.538	459.09
783.72	432.46
783.901	414.03
784.083	473.42
784.264	426.32
784.446	491.85
784.627	418.13
784.809	500.05
784.99	428.37
785.172	491.85
785.353	512.33
785.535	444.75
785.716	381.26
785.897	463.18
786.079	395.6
786.26	434.51
786.441	418.13
786.623	328.02
786.804	377.17
786.985	366.93
787.167	422.22
787.348	393.55
787.529	348.5
787.71	328.02
787.891	426.32
788.073	356.69
788.254	317.78
788.435	442.7
788.616	364.88
788.797	344.4
788.978	428.37
789.159	321.87
789.34	344.4
789.522	328.02
789.703	328.02
789.884	454.99
790.065	328.02
790.246	311.63
790.427	350.54
790.607	352.59
790.788	354.64
790.969	317.78
791.15	409.94
791.331	414.03
791.512	321.87
791.693	237.91
791.874	340.3
792.054	360.78
792.235	328.02
792.416	356.69
792.597	295.25
792.778	315.73
792.958	328.02
793.139	285.01
793.32	405.84
793.5	297.3
793.681	352.59
793.862	303.44
794.042	274.77
794.223	274.77
794.404	254.29
794.584	194.9
794.765	297.3
794.945	266.58
795.126	352.59
795.306	213.33
795.487	303.44
795.667	260.43
795.848	196.95
796.028	282.96
796.209	348.5
796.389	280.91
796.57	295.25
796.75	225.62
796.93	264.53
797.111	305.49
797.291	215.38
797.471	217.43
797.652	252.24
797.832	303.44
798.012	295.25
798.192	254.29
798.373	295.25
798.553	274.77
798.733	252.24
798.913	168.27
799.093	246.1
799.274	192.85
799.454	164.18
799.634	299.34
799.814	229.71
799.994	233.81
800.174	246.1
800.354	303.44
800.534	305.49
800.714	256.34
800.894	155.99
801.074	182.61
801.254	231.76
801.434	266.58
801.614	221.52
801.794	237.91
801.974	737.61
802.154	260.43
802.334	188.75
802.514	172.37
802.693	213.33
802.873	166.23
803.053	239.95
803.233	166.23
803.413	237.91
803.592	270.67
803.772	233.81
803.952	182.61
804.131	188.75
804.311	266.58
804.491	242
804.67	170.32
804.85	194.9
805.03	252.24
805.209	239.95
805.389	213.33
805.568	184.66
805.748	188.75
805.928	166.23
806.107	246.1
806.287	149.84
806.466	207.19
806.646	233.81
806.825	149.84
807.004	147.8
807.184	219.47
807.363	209.23
807.543	174.42
807.722	133.46
807.901	203.09
808.081	201.04
808.26	90.45
808.439	258.39
808.619	162.13
808.798	125.27
808.977	188.75
809.156	178.51
809.336	149.84
809.515	139.6
809.694	164.18
809.873	102.74
810.052	92.5
810.231	176.47
810.411	106.84
810.59	188.75
810.769	143.7
810.948	205.14
811.127	160.08
811.306	59.73
811.485	215.38
811.664	213.33
811.843	143.7
812.022	158.03
812.201	123.22
812.38	100.69
812.559	115.03
812.737	229.71
812.916	164.18
813.095	164.18
813.274	147.8
813.453	131.41
813.632	84.31
813.811	207.19
813.989	115.03
814.168	125.27
814.347	149.84
814.526	106.84
814.704	219.47
814.883	188.75
815.062	168.27
815.24	135.51
815.419	147.8
815.598	151.89
815.776	78.16
815.955	164.18
816.133	92.5
816.312	182.61
816.49	59.73
816.669	176.47
816.847	92.5
817.026	178.51
817.204	143.7
817.383	115.03
817.561	172.37
817.74	164.18
817.918	182.61
818.097	205.14
818.275	69.97
818.453	112.98
818.632	49.49
818.81	115.03
818.988	108.88
819.167	-5.8
819.345	131.41
819.523	69.97
819.701	90.45
819.879	98.64
820.058	127.32
820.236	168.27
820.414	125.27
820.592	209.23
820.77	86.36
820.948	180.56
821.127	65.88
821.305	133.46
821.483	84.31
821.661	139.6
821.839	108.88
822.017	41.3
822.195	82.26
822.373	133.46
822.551	49.49
822.729	155.99
822.907	125.27
823.085	102.74
823.262	51.54
823.44	160.08
823.618	57.68
823.796	141.65
823.974	131.41
824.152	84.31
824.329	90.45
824.507	33.11
824.685	115.03
824.863	123.22
825.04	92.5
825.218	201.04
825.396	100.69
825.574	65.88
825.751	108.88
825.929	172.37
826.107	63.83
826.284	106.84
826.462	82.26
826.639	78.16
826.817	49.49
826.994	33.11
827.172	143.7
827.349	119.12
827.527	127.32
827.704	92.5
827.882	84.31
828.059	72.02
828.237	104.79
828.414	65.88
828.591	12.63
828.769	108.88
828.946	45.4
829.124	207.19
829.301	12.63
829.478	76.12
829.655	94.55
829.833	106.84
830.01	74.07
830.187	172.37
830.364	139.6
830.542	158.03
830.719	115.03
830.896	112.98
831.073	98.64
831.25	90.45
831.427	53.59
831.604	74.07
831.782	84.31
831.959	88.4
832.136	76.12
832.313	78.16
832.49	63.83
832.667	127.32
832.844	16.73
833.021	33.11
833.198	65.88
833.374	65.88
833.551	69.97
833.728	84.31
833.905	121.17
834.082	94.55
834.259	143.7
834.436	149.84
834.612	45.4
834.789	106.84
834.966	2.39
835.143	166.23
835.319	37.2
835.496	65.88
835.673	98.64
835.85	115.03
836.026	123.22
836.203	188.75
836.38	102.74
836.556	86.36
836.733	88.4
836.909	90.45
837.086	35.16
837.262	29.01
837.439	24.92
837.616	-3.75
837.792	0.34
837.968	74.07
838.145	76.12
838.321	39.25
838.498	139.6
838.674	61.78
838.851	117.08
839.027	119.12
839.203	49.49
839.38	115.03
839.556	53.59
839.732	104.79
839.909	43.35
840.085	43.35
840.261	-13.99
840.437	133.46
840.614	80.21
840.79	143.7
840.966	106.84
841.142	35.16
841.318	-7.85
841.494	74.07
841.671	76.12
841.847	57.68
842.023	65.88
842.199	10.58
842.375	63.83
842.551	57.68
842.727	49.49
842.903	59.73
843.079	67.92
843.255	139.6
843.431	33.11
843.607	82.26
843.783	-7.85
843.959	147.8
844.134	86.36
844.31	65.88
844.486	33.11
844.662	57.68
844.838	37.2
845.013	82.26
845.189	33.11
845.365	76.12
845.541	76.12
845.716	78.16
845.892	139.6
846.068	12.63
846.244	82.26
846.419	72.02
846.595	10.58
846.77	69.97
846.946	65.88
847.122	20.82
847.297	45.4
847.473	67.92
847.648	41.3
847.824	49.49
847.999	-32.43
848.175	82.26
848.35	45.4
848.526	69.97
848.701	0.34
848.876	90.45
849.052	65.88
849.227	-9.9
849.403	-44.71
849.578	108.88
849.753	108.88
849.929	65.88
850.104	16.73
850.279	49.49
850.454	12.63
850.63	74.07
850.805	76.12
850.98	57.68
851.155	33.11
851.33	80.21
851.505	-24.23
851.681	74.07
851.856	8.53
852.031	164.18
852.206	20.82
852.381	8.53
852.556	41.3
852.731	18.77
852.906	24.92
853.081	37.2
853.256	33.11
853.431	33.11
853.606	33.11
853.781	20.82
853.956	10.58
854.131	45.4
854.305	102.74
854.48	43.35
854.655	-16.04
854.83	24.92
855.005	-22.19
855.18	29.01
855.354	16.73
855.529	84.31
855.704	35.16
855.879	76.12
856.053	45.4
856.228	37.2
856.403	57.68
856.577	8.53
856.752	4.44
856.926	67.92
857.101	55.64
857.276	41.3
857.45	-22.19
857.625	69.97
857.799	59.73
857.974	69.97
858.148	0.34
858.323	90.45
858.497	0.34
858.672	41.3
858.846	26.96
859.02	33.11
859.195	39.25
859.369	78.16
859.543	57.68
859.718	67.92
859.892	63.83
860.066	24.92
860.241	-24.23
860.415	41.3
860.589	55.64
860.763	33.11
860.938	-18.09
861.112	115.03
861.286	72.02
861.46	63.83
861.634	24.92
861.808	43.35
861.982	-16.04
862.157	-5.8
862.331	-13.99
862.505	49.49
862.679	35.16
862.853	41.3
863.027	4.44
863.201	90.45
863.375	16.73
863.549	10.58
863.722	-61.1
863.896	10.58
864.07	22.87
864.244	43.35
864.418	24.92
864.592	-63.15
864.766	-5.8
864.939	8.53
865.113	-22.19
865.287	69.97
865.461	-9.9
865.634	8.53
865.808	20.82
865.982	110.93
866.156	0.34
866.329	-5.8
866.503	-32.43
866.676	80.21
866.85	94.55
867.024	16.73
867.197	33.11
867.371	84.31
867.544	41.3
867.718	-3.75
867.891	55.64
868.065	-38.57
868.238	43.35
868.412	-9.9
868.585	-24.23
868.759	90.45
868.932	74.07
869.105	41.3
869.279	18.77
869.452	26.96
869.625	18.77
869.799	-22.19
869.972	-7.85
870.145	16.73
870.319	59.73
870.492	0.34
870.665	49.49
870.838	16.73
871.011	-22.19
871.185	-52.91
871.358	26.96
871.531	8.53
871.704	20.82
871.877	-48.81
872.05	-22.19
872.223	-24.23
872.396	49.49
872.569	43.35
872.742	16.73
872.915	-13.99
873.088	8.53
873.261	-16.04
873.434	33.11
873.607	53.59
873.78	49.49
873.953	39.25
874.126	-24.23
874.299	18.77
874.471	-40.62
874.644	20.82
874.817	59.73
874.99	-9.9
875.163	49.49
875.335	12.63
875.508	53.59
875.681	110.93
875.853	-28.33
876.026	26.96
876.199	-32.43
876.371	45.4
876.544	8.53
876.717	-3.75
876.889	49.49
877.062	43.35
877.234	16.73
877.407	-65.19
877.579	16.73
877.752	65.88
877.924	31.06
878.097	72.02
878.269	43.35
878.442	59.73
878.614	-3.75
878.786	-11.95
878.959	24.92
879.131	53.59
879.303	0.34
879.476	41.3
879.648	49.49
879.82	4.44
879.993	33.11
880.165	10.58
880.337	0.34
880.509	37.2
880.681	20.82
880.854	2.39
881.026	98.64
881.198	143.7
881.37	10.58
881.542	-40.62
881.714	18.77
881.886	65.88
882.058	35.16
882.23	-28.33
882.402	-34.47
882.574	-9.9
882.746	74.07
882.918	106.84
883.09	61.78
883.262	16.73
883.434	-13.99
883.606	-11.95
883.778	33.11
883.95	110.93
884.122	45.4
884.293	-48.81
884.465	26.96
884.637	110.93
884.809	-24.23
884.98	39.25
885.152	61.78
885.324	22.87
885.496	69.97
885.667	-16.04
885.839	69.97
886.011	24.92
886.182	20.82
886.354	-30.38
886.525	61.78
886.697	59.73
886.869	20.82
887.04	35.16
887.212	47.44
887.383	92.5
887.555	22.87
887.726	20.82
887.897	63.83
888.069	49.49
888.24	12.63
888.412	-3.75
888.583	-85.67
888.754	16.73
888.926	-28.33
889.097	82.26
889.268	4.44
889.44	-24.23
889.611	61.78
889.782	0.34
889.953	-20.14
890.125	49.49
890.296	-50.86
890.467	-13.99
890.638	-11.95
890.809	72.02
890.98	24.92
891.151	16.73
891.323	-11.95
891.494	-48.81
891.665	82.26
891.836	39.25
892.007	-28.33
892.178	33.11
892.349	8.53
892.52	2.39
892.691	-5.8
892.862	-30.38
893.032	-54.95
893.203	2.39
893.374	29.01
893.545	22.87
893.716	63.83
893.887	59.73
894.057	12.63
894.228	-57
894.399	-30.38
894.57	43.35
894.74	22.87
894.911	-32.43
895.082	-38.57
895.253	18.77
895.423	65.88
895.594	33.11
895.764	37.2
895.935	10.58
896.106	57.68
896.276	-11.95
896.447	-24.23
896.617	43.35
896.788	-48.81
896.958	29.01
897.129	18.77
897.299	-16.04
897.47	47.44
897.64	61.78
897.81	-73.39
897.981	18.77
898.151	-3.75
898.322	24.92
898.492	8.53
898.662	8.53
898.832	-36.52
899.003	-32.43
899.173	78.16
899.343	0.34
899.513	6.49
