Data from USB4F104151__134__14-44-05-467.txt Node

Date: Thu Mar 13 14:44:05 EDT 2025
User: louis
Spectrometer: USB4F10415
Trigger mode: 4
Integration Time (sec): 2.000000E-2
Scans to average: 1
Electric dark correction enabled: true
Nonlinearity correction enabled: false
Boxcar width: 0
XAxis mode: Wavelengths
Number of Pixels in Spectrum: 3648
>>>>>Begin Spectral Data<<<<<
178.204	-30.89
178.424	-30.89
178.644	-30.89
178.864	-98.47
179.084	-123.05
179.304	-18.6
179.524	-71.85
179.744	-12.46
179.964	-10.41
180.184	-14.51
180.404	18.26
180.624	51.03
180.844	24.4
181.064	-77.99
181.283	34.64
181.503	14.17
181.723	63.32
181.943	-32.94
182.163	87.89
182.383	-2.22
182.602	1.88
182.822	22.36
183.042	40.79
183.262	22.36
183.482	51.03
183.701	96.08
183.921	-30.89
184.141	-8.36
184.361	145.24
184.58	20.31
184.8	87.89
185.02	40.79
185.239	5.97
185.459	96.08
185.679	151.38
185.898	30.55
186.118	59.22
186.338	-30.89
186.557	38.74
186.777	14.17
186.997	-18.6
187.216	-4.27
187.436	130.9
187.655	10.07
187.875	87.89
188.095	-20.65
188.314	-10.41
188.534	18.26
188.753	5.97
188.973	18.26
189.192	12.12
189.412	10.07
189.631	3.93
189.851	71.51
190.07	81.75
190.29	-18.6
190.509	32.6
190.729	71.51
190.948	67.41
191.168	91.99
191.387	71.51
191.607	-10.41
191.826	36.69
192.045	42.84
192.265	67.41
192.484	71.51
192.704	-24.75
192.923	59.22
193.142	112.47
193.362	-45.23
193.581	-14.51
193.8	38.74
194.02	104.28
194.239	46.93
194.458	51.03
194.678	-12.46
194.897	65.36
195.116	40.79
195.335	5.97
195.555	-8.36
195.774	22.36
195.993	75.6
196.212	14.17
196.432	-4.27
196.651	1.88
196.87	18.26
197.089	104.28
197.308	116.56
197.528	-2.22
197.747	30.55
197.966	65.36
198.185	42.84
198.404	55.12
198.623	30.55
198.842	26.45
199.062	81.75
199.281	48.98
199.5	24.4
199.719	-8.36
199.938	-2.22
200.157	89.94
200.376	8.02
200.595	79.7
200.814	20.31
201.033	-10.41
201.252	57.17
201.471	-10.41
201.69	63.32
201.909	46.93
202.128	65.36
202.347	-16.55
202.566	14.17
202.785	-8.36
203.004	-2.22
203.223	132.95
203.442	30.55
203.661	-8.36
203.879	8.02
204.098	5.97
204.317	1.88
204.536	67.41
204.755	98.13
204.974	55.12
205.193	48.98
205.411	169.81
205.63	24.4
205.849	-10.41
206.068	130.9
206.287	30.55
206.505	18.26
206.724	63.32
206.943	14.17
207.162	-10.41
207.381	-6.31
207.599	-24.75
207.818	71.51
208.037	8.02
208.255	-55.47
208.474	71.51
208.693	87.89
208.911	22.36
209.13	-24.75
209.349	46.93
209.567	81.75
209.786	63.32
210.005	77.65
210.223	22.36
210.442	38.74
210.661	67.41
210.879	28.5
211.098	-8.36
211.316	77.65
211.535	106.32
211.753	40.79
211.972	32.6
212.191	-82.09
212.409	63.32
212.628	51.03
212.846	18.26
213.065	71.51
213.283	46.93
213.502	18.26
213.72	61.27
213.938	-0.17
214.157	24.4
214.375	63.32
214.594	81.75
214.812	137.04
215.031	5.97
215.249	38.74
215.467	30.55
215.686	-34.99
215.904	61.27
216.122	96.08
216.341	57.17
216.559	71.51
216.778	53.08
216.996	22.36
217.214	48.98
217.432	65.36
217.651	67.41
217.869	-10.41
218.087	46.93
218.306	26.45
218.524	40.79
218.742	34.64
218.96	59.22
219.179	57.17
219.397	-26.79
219.615	87.89
219.833	161.62
220.051	-6.31
220.27	79.7
220.488	42.84
220.706	75.6
220.924	-0.17
221.142	55.12
221.36	30.55
221.578	-6.31
221.796	87.89
222.015	79.7
222.233	18.26
222.451	40.79
222.669	42.84
222.887	83.8
223.105	67.41
223.323	30.55
223.541	-14.51
223.759	44.88
223.977	14.17
224.195	63.32
224.413	-2.22
224.631	79.7
224.849	-32.94
225.067	-0.17
225.285	-22.7
225.503	28.5
225.721	-2.22
225.939	32.6
226.157	102.23
226.375	65.36
226.592	22.36
226.81	36.69
227.028	104.28
227.246	14.17
227.464	87.89
227.682	104.28
227.9	-0.17
228.117	67.41
228.335	100.18
228.553	24.4
228.771	30.55
228.989	40.79
229.206	77.65
229.424	104.28
229.642	22.36
229.86	40.79
230.077	32.6
230.295	-18.6
230.513	81.75
230.731	100.18
230.948	79.7
231.166	91.99
231.384	5.97
231.601	28.5
231.819	94.04
232.037	63.32
232.254	16.21
232.472	83.8
232.689	22.36
232.907	75.6
233.125	55.12
233.342	51.03
233.56	53.08
233.777	55.12
233.995	106.32
234.213	12.12
234.43	30.55
234.648	5.97
234.865	55.12
235.083	26.45
235.3	-0.17
235.518	75.6
235.735	8.02
235.953	73.56
236.17	91.99
236.388	40.79
236.605	38.74
236.822	79.7
237.04	34.64
237.257	5.97
237.475	1.88
237.692	46.93
237.909	79.7
238.127	5.97
238.344	38.74
238.562	79.7
238.779	48.98
238.996	-18.6
239.214	-2.22
239.431	18.26
239.648	8.02
239.865	40.79
240.083	48.98
240.3	26.45
240.517	-39.08
240.735	16.21
240.952	30.55
241.169	112.47
241.386	69.46
241.603	55.12
241.821	10.07
242.038	55.12
242.255	81.75
242.472	-41.13
242.689	67.41
242.907	75.6
243.124	57.17
243.341	16.21
243.558	-16.55
243.775	79.7
243.992	-32.94
244.209	38.74
244.426	96.08
244.643	79.7
244.86	46.93
245.078	110.42
245.295	81.75
245.512	22.36
245.729	1.88
245.946	48.98
246.163	22.36
246.38	-2.22
246.597	20.31
246.814	124.76
247.031	102.23
247.248	-0.17
247.464	-0.17
247.681	73.56
247.898	96.08
248.115	108.37
248.332	-28.84
248.549	112.47
248.766	112.47
248.983	48.98
249.2	-2.22
249.417	96.08
249.633	5.97
249.85	81.75
250.067	18.26
250.284	55.12
250.501	26.45
250.717	8.02
250.934	5.97
251.151	-2.22
251.368	71.51
251.585	46.93
251.801	34.64
252.018	16.21
252.235	122.71
252.451	-6.31
252.668	55.12
252.885	91.99
253.102	32.6
253.318	-8.36
253.535	24.4
253.752	38.74
253.968	48.98
254.185	22.36
254.401	20.31
254.618	38.74
254.835	38.74
255.051	57.17
255.268	38.74
255.484	22.36
255.701	30.55
255.917	59.22
256.134	81.75
256.351	24.4
256.567	-10.41
256.784	55.12
257	-6.31
257.217	67.41
257.433	83.8
257.65	67.41
257.866	-2.22
258.082	-18.6
258.299	-10.41
258.515	48.98
258.732	16.21
258.948	-14.51
259.165	-32.94
259.381	46.93
259.597	67.41
259.814	59.22
260.03	38.74
260.246	46.93
260.463	63.32
260.679	83.8
260.895	16.21
261.112	20.31
261.328	-43.18
261.544	-8.36
261.761	149.33
261.977	30.55
262.193	98.13
262.409	57.17
262.626	38.74
262.842	79.7
263.058	-2.22
263.274	8.02
263.49	83.8
263.707	-24.75
263.923	79.7
264.139	-22.7
264.355	98.13
264.571	48.98
264.787	53.08
265.004	81.75
265.22	-20.65
265.436	22.36
265.652	-32.94
265.868	42.84
266.084	42.84
266.3	67.41
266.516	5.97
266.732	34.64
266.948	-82.09
267.164	61.27
267.38	63.32
267.596	16.21
267.812	106.32
268.028	55.12
268.244	-2.22
268.46	24.4
268.676	16.21
268.892	55.12
269.108	38.74
269.324	10.07
269.54	-10.41
269.756	40.79
269.972	-34.99
270.188	24.4
270.403	22.36
270.619	55.12
270.835	24.4
271.051	71.51
271.267	-41.13
271.483	38.74
271.698	-18.6
271.914	5.97
272.13	-67.75
272.346	5.97
272.562	38.74
272.777	10.07
272.993	48.98
273.209	-12.46
273.425	28.5
273.64	75.6
273.856	73.56
274.072	18.26
274.287	14.17
274.503	91.99
274.719	55.12
274.934	63.32
275.15	24.4
275.366	94.04
275.581	75.6
275.797	32.6
276.012	75.6
276.228	10.07
276.444	1.88
276.659	32.6
276.875	-71.85
277.09	-10.41
277.306	55.12
277.521	71.51
277.737	36.69
277.952	83.8
278.168	59.22
278.383	10.07
278.599	55.12
278.814	65.36
279.03	-37.03
279.245	81.75
279.461	5.97
279.676	71.51
279.892	16.21
280.107	3.93
280.322	-57.51
280.538	69.46
280.753	-6.31
280.969	-6.31
281.184	59.22
281.399	112.47
281.615	3.93
281.83	26.45
282.045	14.17
282.26	79.7
282.476	12.12
282.691	30.55
282.906	42.84
283.122	26.45
283.337	18.26
283.552	5.97
283.767	-49.32
283.983	98.13
284.198	83.8
284.413	26.45
284.628	57.17
284.843	20.31
285.058	63.32
285.274	53.08
285.489	-8.36
285.704	38.74
285.919	26.45
286.134	132.95
286.349	-12.46
286.564	1.88
286.779	63.32
286.995	55.12
287.21	55.12
287.425	48.98
287.64	12.12
287.855	116.56
288.07	67.41
288.285	71.51
288.5	79.7
288.715	71.51
288.93	55.12
289.145	-22.7
289.36	79.7
289.575	57.17
289.79	87.89
290.004	87.89
290.219	-24.75
290.434	46.93
290.649	-24.75
290.864	55.12
291.079	48.98
291.294	40.79
291.509	1.88
291.724	10.07
291.938	38.74
292.153	40.79
292.368	32.6
292.583	81.75
292.798	81.75
293.012	89.94
293.227	30.55
293.442	-51.37
293.657	46.93
293.871	71.51
294.086	55.12
294.301	63.32
294.516	116.56
294.73	-51.37
294.945	8.02
295.16	48.98
295.374	22.36
295.589	104.28
295.804	34.64
296.018	40.79
296.233	46.93
296.447	71.51
296.662	67.41
296.877	34.64
297.091	30.55
297.306	75.6
297.52	40.79
297.735	77.65
297.949	30.55
298.164	65.36
298.378	53.08
298.593	38.74
298.807	10.07
299.022	14.17
299.236	96.08
299.451	38.74
299.665	73.56
299.88	-41.13
300.094	38.74
300.309	96.08
300.523	98.13
300.737	40.79
300.952	100.18
301.166	71.51
301.381	65.36
301.595	106.32
301.809	77.65
302.024	59.22
302.238	-43.18
302.452	102.23
302.667	5.97
302.881	55.12
303.095	96.08
303.309	46.93
303.524	79.7
303.738	26.45
303.952	30.55
304.166	-14.51
304.381	-2.22
304.595	-2.22
304.809	-0.17
305.023	55.12
305.237	-14.51
305.452	38.74
305.666	89.94
305.88	8.02
306.094	83.8
306.308	57.17
306.522	16.21
306.736	57.17
306.95	89.94
307.164	1.88
307.379	16.21
307.593	38.74
307.807	63.32
308.021	38.74
308.235	-30.89
308.449	38.74
308.663	-2.22
308.877	67.41
309.091	10.07
309.305	51.03
309.519	-24.75
309.733	10.07
309.947	63.32
310.161	53.08
310.374	26.45
310.588	-32.94
310.802	8.02
311.016	42.84
311.23	67.41
311.444	-0.17
311.658	63.32
311.872	22.36
312.085	67.41
312.299	159.57
312.513	77.65
312.727	48.98
312.941	-0.17
313.154	42.84
313.368	40.79
313.582	65.36
313.796	5.97
314.009	40.79
314.223	67.41
314.437	79.7
314.651	24.4
314.864	16.21
315.078	1.88
315.292	94.04
315.505	1.88
315.719	38.74
315.933	34.64
316.146	38.74
316.36	10.07
316.573	42.84
316.787	-6.31
317.001	71.51
317.214	3.93
317.428	32.6
317.641	67.41
317.855	77.65
318.068	14.17
318.282	46.93
318.495	30.55
318.709	73.56
318.922	67.41
319.136	89.94
319.349	98.13
319.563	36.69
319.776	22.36
319.99	40.79
320.203	30.55
320.417	46.93
320.63	42.84
320.843	67.41
321.057	55.12
321.27	59.22
321.483	48.98
321.697	106.32
321.91	96.08
322.124	8.02
322.337	63.32
322.55	79.7
322.763	10.07
322.977	91.99
323.19	77.65
323.403	122.71
323.617	32.6
323.83	61.27
324.043	18.26
324.256	65.36
324.469	5.97
324.683	51.03
324.896	5.97
325.109	89.94
325.322	-18.6
325.535	73.56
325.748	44.88
325.962	42.84
326.175	104.28
326.388	89.94
326.601	108.37
326.814	46.93
327.027	-18.6
327.24	116.56
327.453	1.88
327.666	46.93
327.879	67.41
328.092	30.55
328.305	-2.22
328.518	-6.31
328.731	18.26
328.944	79.7
329.157	10.07
329.37	-0.17
329.583	65.36
329.796	87.89
330.009	22.36
330.222	32.6
330.435	53.08
330.648	89.94
330.861	59.22
331.073	14.17
331.286	75.6
331.499	48.98
331.712	5.97
331.925	18.26
332.138	102.23
332.35	106.32
332.563	-34.99
332.776	-26.79
332.989	79.7
333.202	57.17
333.414	71.51
333.627	59.22
333.84	61.27
334.053	42.84
334.265	-32.94
334.478	77.65
334.691	46.93
334.903	128.85
335.116	24.4
335.329	16.21
335.541	3.93
335.754	81.75
335.966	14.17
336.179	65.36
336.392	-10.41
336.604	-14.51
336.817	100.18
337.029	71.51
337.242	63.32
337.454	104.28
337.667	51.03
337.88	42.84
338.092	104.28
338.305	40.79
338.517	-47.27
338.729	38.74
338.942	147.28
339.154	71.51
339.367	-12.46
339.579	14.17
339.792	-0.17
340.004	8.02
340.217	44.88
340.429	63.32
340.641	71.51
340.854	81.75
341.066	30.55
341.278	65.36
341.491	96.08
341.703	73.56
341.915	30.55
342.128	102.23
342.34	81.75
342.552	-2.22
342.764	75.6
342.977	8.02
343.189	96.08
343.401	73.56
343.613	65.36
343.826	57.17
344.038	-37.03
344.25	40.79
344.462	-8.36
344.674	71.51
344.886	16.21
345.099	104.28
345.311	63.32
345.523	18.26
345.735	5.97
345.947	55.12
346.159	42.84
346.371	73.56
346.583	30.55
346.795	112.47
347.007	42.84
347.219	100.18
347.431	5.97
347.643	34.64
347.855	-18.6
348.067	48.98
348.279	22.36
348.491	77.65
348.703	40.79
348.915	24.4
349.127	30.55
349.339	38.74
349.551	36.69
349.763	120.66
349.975	32.6
350.187	130.9
350.399	71.51
350.61	79.7
350.822	71.51
351.034	51.03
351.246	26.45
351.458	48.98
351.669	22.36
351.881	112.47
352.093	-10.41
352.305	32.6
352.517	51.03
352.728	34.64
352.94	-12.46
353.152	40.79
353.363	-6.31
353.575	130.9
353.787	57.17
353.999	63.32
354.21	46.93
354.422	59.22
354.633	57.17
354.845	16.21
355.057	100.18
355.268	30.55
355.48	30.55
355.692	57.17
355.903	28.5
356.115	22.36
356.326	73.56
356.538	112.47
356.749	-0.17
356.961	46.93
357.172	5.97
357.384	96.08
357.595	55.12
357.807	30.55
358.018	51.03
358.23	-28.84
358.441	126.8
358.653	87.89
358.864	18.26
359.075	22.36
359.287	30.55
359.498	91.99
359.709	73.56
359.921	96.08
360.132	67.41
360.344	87.89
360.555	75.6
360.766	38.74
360.977	51.03
361.189	73.56
361.4	10.07
361.611	79.7
361.823	32.6
362.034	91.99
362.245	46.93
362.456	30.55
362.667	71.51
362.879	98.13
363.09	96.08
363.301	79.7
363.512	57.17
363.723	1.88
363.935	-26.79
364.146	106.32
364.357	-18.6
364.568	91.99
364.779	14.17
364.99	108.37
365.201	22.36
365.412	73.56
365.623	5.97
365.834	63.32
366.045	98.13
366.256	55.12
366.467	67.41
366.678	106.32
366.889	10.07
367.1	75.6
367.311	30.55
367.522	-4.27
367.733	48.98
367.944	122.71
368.155	98.13
368.366	73.56
368.577	71.51
368.788	124.76
368.999	-8.36
369.209	26.45
369.42	63.32
369.631	71.51
369.842	18.26
370.053	55.12
370.264	83.8
370.474	32.6
370.685	26.45
370.896	24.4
371.107	79.7
371.317	55.12
371.528	79.7
371.739	94.04
371.95	73.56
372.16	57.17
372.371	46.93
372.582	40.79
372.792	40.79
373.003	40.79
373.214	102.23
373.424	42.84
373.635	38.74
373.846	139.09
374.056	96.08
374.267	102.23
374.477	46.93
374.688	-34.99
374.898	73.56
375.109	51.03
375.319	55.12
375.53	57.17
375.74	5.97
375.951	28.5
376.161	100.18
376.372	79.7
376.582	-8.36
376.793	108.37
377.003	-10.41
377.214	14.17
377.424	-4.27
377.635	51.03
377.845	10.07
378.055	79.7
378.266	32.6
378.476	30.55
378.686	26.45
378.897	42.84
379.107	75.6
379.317	73.56
379.528	100.18
379.738	42.84
379.948	-0.17
380.158	55.12
380.369	40.79
380.579	55.12
380.789	22.36
380.999	81.75
381.21	38.74
381.42	32.6
381.63	110.42
381.84	79.7
382.05	55.12
382.261	57.17
382.471	30.55
382.681	89.94
382.891	8.02
383.101	40.79
383.311	79.7
383.521	112.47
383.731	79.7
383.941	145.24
384.151	14.17
384.361	67.41
384.571	51.03
384.781	79.7
384.991	118.61
385.201	137.04
385.411	46.93
385.621	89.94
385.831	38.74
386.041	-0.17
386.251	36.69
386.461	112.47
386.671	-22.7
386.881	79.7
387.091	110.42
387.301	128.85
387.511	5.97
387.72	36.69
387.93	57.17
388.14	65.36
388.35	1.88
388.56	57.17
388.769	104.28
388.979	79.7
389.189	14.17
389.399	71.51
389.609	108.37
389.818	71.51
390.028	153.43
390.238	65.36
390.447	24.4
390.657	112.47
390.867	-6.31
391.076	91.99
391.286	106.32
391.496	71.51
391.705	98.13
391.915	34.64
392.125	48.98
392.334	63.32
392.544	57.17
392.753	81.75
392.963	-8.36
393.172	22.36
393.382	71.51
393.591	104.28
393.801	55.12
394.01	94.04
394.22	32.6
394.429	63.32
394.639	38.74
394.848	104.28
395.058	42.84
395.267	14.17
395.477	63.32
395.686	71.51
395.895	42.84
396.105	114.52
396.314	100.18
396.524	42.84
396.733	112.47
396.942	69.46
397.152	22.36
397.361	12.12
397.57	55.12
397.78	38.74
397.989	55.12
398.198	149.33
398.407	94.04
398.617	79.7
398.826	55.12
399.035	65.36
399.244	-22.7
399.453	53.08
399.663	141.14
399.872	120.66
400.081	112.47
400.29	157.52
400.499	59.22
400.708	120.66
400.917	112.47
401.127	73.56
401.336	46.93
401.545	151.38
401.754	96.08
401.963	73.56
402.172	24.4
402.381	106.32
402.59	57.17
402.799	124.76
403.008	65.36
403.217	79.7
403.426	116.56
403.635	67.41
403.844	122.71
404.053	161.62
404.262	94.04
404.471	245.59
404.68	145.24
404.888	161.62
405.097	106.32
405.306	153.43
405.515	130.9
405.724	128.85
405.933	194.39
406.142	186.19
406.35	108.37
406.559	216.91
406.768	120.66
406.977	186.19
407.185	206.67
407.394	139.09
407.603	161.62
407.812	206.67
408.02	120.66
408.229	206.67
408.438	274.26
408.646	198.48
408.855	200.53
409.064	202.58
409.272	165.71
409.481	276.31
409.69	218.96
409.898	229.2
410.107	210.77
410.315	245.59
410.524	253.78
410.733	259.92
410.941	212.82
411.15	245.59
411.358	292.69
411.567	382.8
411.775	300.88
411.984	352.08
412.192	425.81
412.401	284.5
412.609	419.66
412.818	264.02
413.026	405.33
413.234	431.95
413.443	386.9
413.651	390.99
413.86	456.53
414.068	503.63
414.276	456.53
414.485	468.81
414.693	477.01
414.901	497.49
415.11	542.54
415.318	522.06
415.526	579.4
415.734	603.98
415.943	640.84
416.151	644.94
416.359	616.27
416.567	640.84
416.776	620.36
416.984	702.28
417.192	788.3
417.4	702.28
417.608	743.24
417.817	677.71
418.025	802.63
418.233	931.66
418.441	859.98
418.649	862.02
418.857	935.75
419.065	1013.57
419.273	1017.67
419.481	952.13
419.689	1003.33
419.897	1015.62
420.105	1029.96
420.313	1032.01
420.521	1105.73
420.729	1195.84
420.937	1195.84
421.145	1226.56
421.353	1398.59
421.561	1431.36
421.769	1402.69
421.977	1390.4
422.185	1462.08
422.393	1609.53
422.601	1574.72
422.809	1603.39
423.017	1640.25
423.224	1726.27
423.432	1873.72
423.64	1793.85
423.848	2045.75
424.056	1996.6
424.263	2049.85
424.471	2092.85
424.679	2207.54
424.887	2187.06
425.094	2287.41
425.302	2375.47
425.51	2324.27
425.718	2522.93
425.925	2414.38
426.133	2629.42
426.341	2688.81
426.548	2905.9
426.756	2778.92
426.964	2914.09
427.171	3094.31
427.379	2996.01
427.586	3151.65
427.794	3280.68
428.001	3389.22
428.209	3606.3
428.417	3381.03
428.624	3897.11
428.832	3632.93
429.039	3798.81
429.247	3626.78
429.454	3958.55
429.662	4278.04
429.869	4063
430.076	4450.07
430.284	4288.28
430.491	4384.53
430.699	4673.29
430.906	4564.75
431.114	4742.92
431.321	4851.47
431.528	5084.94
431.736	5234.44
431.943	5412.61
432.15	5420.8
432.358	5633.79
432.565	5783.29
432.772	5682.94
432.979	6137.59
433.187	6059.77
433.394	6174.46
433.601	6592.24
433.808	6506.23
434.016	6465.27
434.223	6700.78
434.43	7112.42
434.637	7126.76
434.844	7493.35
435.052	7663.33
435.259	7454.44
435.466	7573.22
435.673	7612.13
435.88	7909.08
436.087	8457.94
436.294	8550.1
436.501	8390.36
436.708	8304.34
436.915	8738.51
437.122	9058
437.329	9037.52
437.537	9297.61
437.743	9443.01
437.95	9426.63
438.157	9848.51
438.364	10172.09
438.571	10032.83
438.778	10245.82
438.985	11187.88
439.192	10737.33
439.399	11017.9
439.606	10802.86
439.813	11605.67
440.02	12009.12
440.227	11968.16
440.433	11820.7
440.64	12312.22
440.847	12060.32
441.054	12420.76
441.261	13244.04
441.467	12908.18
441.674	13313.67
441.881	13817.47
442.088	13749.89
442.294	13809.28
442.501	13903.49
442.708	14329.47
442.914	14835.31
443.121	15269.48
443.328	15038.06
443.534	15875.68
443.741	15591.02
443.948	15130.22
444.154	16445.02
444.361	16297.56
444.568	16672.34
444.774	16543.32
444.981	16784.98
445.187	17221.2
445.394	17915.46
445.6	17735.24
445.807	19226.16
446.013	18472.51
446.22	18662.97
446.426	19697.19
446.633	19705.38
446.839	20702.75
447.046	19789.35
447.252	20887.06
447.459	20481.56
447.665	20700.7
447.871	21552.65
448.078	22337.02
448.284	21431.82
448.491	22017.54
448.697	22840.82
448.903	23231.99
449.11	23326.19
449.316	22969.85
449.522	23305.71
449.728	23965.16
449.935	24208.87
450.141	24335.84
450.347	24548.83
450.553	23893.48
450.76	24200.68
450.966	25007.58
451.172	25054.68
451.378	25609.68
451.584	25001.43
451.791	25363.92
451.997	25646.54
452.203	25959.88
452.409	25837
452.615	25781.71
452.821	24718.81
453.027	24606.17
453.233	25873.87
453.44	24935.9
453.646	25433.55
453.852	25724.36
454.058	25855.43
454.264	24774.11
454.47	25918.92
454.676	24983
454.882	25433.55
455.088	23569.9
455.294	23950.82
455.5	24583.65
455.705	24837.59
455.911	23518.7
456.117	23256.56
456.323	22877.69
456.529	21820.94
456.735	22509.05
456.941	22042.12
457.147	21808.65
457.352	20878.87
457.558	20876.82
457.764	21052.95
457.97	20639.26
458.176	19893.8
458.381	20008.48
458.587	19207.73
458.793	18986.55
458.999	18167.36
459.204	19478.06
459.41	18855.48
459.616	17573.45
459.821	17669.7
460.027	17733.19
460.233	17223.25
460.438	16361.05
460.644	16571.99
460.85	15666.79
461.055	15531.62
461.261	15527.53
461.466	14325.37
461.672	13997.7
461.878	15091.31
462.083	14042.75
462.289	13708.93
462.494	13743.75
462.7	12957.33
462.905	12754.58
463.111	13080.21
463.316	13178.51
463.522	12760.72
463.727	12996.24
463.932	12791.44
464.138	12629.65
464.343	12707.48
464.549	12590.74
464.754	12834.45
464.959	12777.11
465.165	12537.49
465.37	11986.59
465.575	11820.7
465.781	12334.75
465.986	12304.03
466.191	11867.81
466.397	11607.72
466.602	11116.2
466.807	11591.33
467.012	11472.55
467.218	11298.47
467.423	11189.93
467.628	11269.8
467.833	11763.36
468.038	11290.28
468.244	11222.7
468.449	11398.82
468.654	11103.92
468.859	11206.31
469.064	11024.05
469.269	10596.02
469.474	10712.75
469.679	10843.82
469.885	10639.03
470.09	10639.03
470.295	10716.85
470.5	10258.1
470.705	10458.81
470.91	10256.06
471.115	9959.1
471.32	10161.85
471.525	10469.05
471.73	9959.1
471.935	9975.49
472.139	9488.07
472.344	9862.85
472.549	9770.69
472.754	9615.04
472.959	9434.82
473.164	9182.92
473.369	9107.15
473.574	9488.07
473.778	9008.84
473.983	9189.07
474.188	9178.83
474.393	8742.61
474.598	8728.27
474.802	8771.28
475.007	8611.54
475.212	8658.64
475.417	8318.68
475.621	8308.44
475.826	8380.12
476.031	8296.15
476.235	7921.37
476.44	8218.33
476.645	7718.62
476.849	7861.98
477.054	7933.66
477.259	7667.42
477.463	7782.11
477.668	7560.93
477.872	7812.83
478.077	7593.7
478.282	7368.42
478.486	7325.41
478.691	7450.34
478.895	7345.89
479.1	7268.07
479.304	7202.54
479.509	7018.22
479.713	7272.17
479.918	7057.13
480.122	6891.24
480.326	7089.9
480.531	6915.82
480.735	6975.21
480.94	6971.11
481.144	6948.59
481.348	6747.89
481.553	6825.71
481.757	6668.02
481.961	6924.01
482.166	6930.16
482.37	6764.27
482.574	6620.91
482.778	6799.09
482.983	6952.68
483.187	6715.12
483.391	6792.94
483.595	6674.16
483.8	6604.53
484.004	6809.33
484.208	6651.63
484.412	6702.83
484.616	6782.7
484.821	6835.95
485.025	6547.19
485.229	6813.42
485.433	6821.61
485.637	6633.2
485.841	6788.85
486.045	6616.82
486.249	6713.07
486.453	6588.14
486.657	6747.89
486.861	6764.27
487.065	6706.93
487.269	6745.84
487.473	6629.1
487.677	6690.54
487.881	6801.13
488.085	6838
488.289	6772.46
488.493	6678.26
488.697	6807.28
488.901	6817.52
489.105	6674.16
489.309	6895.34
489.512	6821.61
489.716	6784.75
489.92	6805.23
490.124	6797.04
490.328	7061.23
490.531	6735.6
490.735	6999.79
490.939	6924.01
491.143	7091.95
491.346	6842.09
491.55	6887.15
491.754	7028.46
491.958	7046.89
492.161	6960.88
492.365	6997.74
492.569	7108.33
492.772	7141.1
492.976	7263.97
493.18	7251.69
493.383	7270.12
493.587	7337.7
493.79	7272.17
493.994	7184.1
494.197	7296.74
494.401	7438.05
494.605	7259.88
494.808	7560.93
495.012	7642.85
495.215	7544.55
495.419	7882.46
495.622	7579.36
495.825	7763.68
496.029	8062.68
496.232	8015.58
496.436	7591.65
496.639	8244.95
496.843	8134.36
497.046	8163.03
497.249	8261.34
497.453	8435.41
497.656	8484.56
497.859	8382.17
498.063	8382.17
498.266	8742.61
498.469	8734.42
498.673	8890.06
498.876	8787.66
499.079	9076.43
499.282	9033.42
499.485	9273.03
499.689	9307.85
499.892	9367.24
500.095	9467.59
500.298	9590.47
500.501	9707.2
500.705	9930.43
500.908	10012.35
501.111	10057.4
501.314	9940.67
501.517	10247.86
501.72	10378.93
501.923	10225.34
502.126	10548.92
502.329	10706.61
502.532	10761.91
502.735	10751.67
502.938	11044.52
503.141	11069.1
503.344	11280.04
503.547	11277.99
503.75	11409.06
503.953	11699.87
504.156	11720.35
504.359	11628.2
504.562	11724.45
504.765	12129.95
504.968	12187.29
505.17	12115.61
505.373	12687
505.576	12633.75
505.779	12867.22
505.982	12826.26
506.185	13112.97
506.387	13016.72
506.59	13235.85
506.793	13725.32
506.996	13667.97
507.198	13942.4
507.401	13807.23
507.604	13860.48
507.807	14177.92
508.009	14458.49
508.212	14464.63
508.415	14804.6
508.617	14898.8
508.82	15021.68
509.022	14679.67
509.225	15101.55
509.428	15058.54
509.63	15449.71
509.833	15511.14
510.035	16072.29
510.238	15812.2
510.44	16150.11
510.643	16490.07
510.845	16131.68
511.048	16375.39
511.25	16717.4
511.453	16606.81
511.655	17235.53
511.858	16959.06
512.06	17192.53
512.262	17669.7
512.465	17342.03
512.667	17684.04
512.87	17948.23
513.072	17960.52
513.274	18503.23
513.477	18490.94
513.679	18462.27
513.881	18921.01
514.084	19207.73
514.286	19154.48
514.488	19402.29
514.69	19625.51
514.893	19801.64
515.095	20045.35
515.297	20211.23
515.499	20102.69
515.701	20065.83
515.904	20571.68
516.106	20749.85
516.308	21083.67
516.51	21257.74
516.712	21364.24
516.914	21800.46
517.116	21976.58
517.318	21960.2
517.52	21806.6
517.722	22283.78
517.925	22406.66
518.127	22988.28
518.329	22701.56
518.531	22861.3
518.733	23393.78
518.935	23393.78
519.136	23487.98
519.338	23885.29
519.54	24120.81
519.742	24337.89
519.944	24475.1
520.146	24692.19
520.348	24640.99
520.55	25230.8
520.752	24950.23
520.954	25595.34
521.155	25392.59
521.357	25808.33
521.559	26049.99
521.761	26287.56
521.963	25912.78
522.164	26330.56
522.366	26291.65
522.568	26766.78
522.77	26881.47
522.971	27233.72
523.173	27088.31
523.375	27461.04
523.576	27143.61
523.778	27723.18
523.98	27739.57
524.181	27721.13
524.383	28231.08
524.584	28415.4
524.786	28425.64
524.988	28622.24
525.189	28657.06
525.391	28751.26
525.592	29064.6
525.794	29400.47
525.995	29222.3
526.197	29539.73
526.398	29689.23
526.6	29644.18
526.801	29525.39
527.003	29777.29
527.204	29877.65
527.406	30381.45
527.607	30088.59
527.808	30377.35
528.01	30068.11
528.211	30375.3
528.412	30881.15
528.614	30819.71
528.815	30768.51
529.016	30913.92
529.218	31157.63
529.419	31055.23
529.62	31116.67
529.822	30584.19
530.023	31264.12
530.224	31223.16
530.425	31042.94
530.626	30969.21
530.828	30995.84
531.029	31589.75
531.23	31198.59
531.431	31626.61
531.632	31448.44
531.833	31788.4
532.035	31767.92
532.236	31714.67
532.437	31368.57
532.638	31485.3
532.839	31720.82
533.04	31692.15
533.241	31446.39
533.442	32394.6
533.643	31833.46
533.844	31571.32
534.045	31872.37
534.246	31804.78
534.447	32267.62
534.648	31599.99
534.849	31655.28
535.05	31415.67
535.251	31645.04
535.451	31884.65
535.652	32175.47
535.853	31765.87
536.054	31966.57
536.255	32189.8
536.456	31774.06
536.657	32382.31
536.857	32255.34
537.058	31788.4
537.259	32466.28
537.46	32191.85
537.66	31982.96
537.861	31868.27
538.062	32005.48
538.263	32054.64
538.463	31925.61
538.664	32050.54
538.865	31909.23
539.065	32310.63
539.266	31747.44
539.466	32390.5
539.667	31573.36
539.868	32236.91
540.068	32204.14
540.269	31780.21
540.469	32124.27
540.67	32181.61
540.87	31946.09
541.071	31956.33
541.271	31950.19
541.472	31855.98
541.672	31913.33
541.873	31542.64
542.073	31610.23
542.274	32286.06
542.474	31731.06
542.675	31722.87
542.875	31982.96
543.075	31747.44
543.276	31579.51
543.476	31769.97
543.676	31634.8
543.877	31917.42
544.077	32052.59
544.277	32048.49
544.478	31729.01
544.678	32132.46
544.878	31757.68
545.078	31593.84
545.279	31989.1
545.479	31540.6
545.679	31737.2
545.879	31909.23
546.079	31702.39
546.28	31573.36
546.48	31378.81
546.68	31657.33
546.88	31516.02
547.08	31806.83
547.28	31737.2
547.48	31499.64
547.68	31294.84
547.88	31341.94
548.081	31960.43
548.281	31626.61
548.481	31278.46
548.681	31888.75
548.881	31536.5
549.081	31669.62
549.28	31321.46
549.48	31917.42
549.68	31470.97
549.88	31866.22
550.08	31411.57
550.28	31505.78
550.48	31223.16
550.68	31919.47
550.88	31401.33
551.08	30913.92
551.279	31821.17
551.479	31141.24
551.679	31532.4
551.879	31370.61
552.079	31419.77
552.278	31638.9
552.478	31647.09
552.678	31352.18
552.878	31724.91
553.077	31481.2
553.277	31051.13
553.477	31452.53
553.676	31305.08
553.876	31317.37
554.076	31270.26
554.275	31303.03
554.475	30827.9
554.674	31305.08
554.874	31274.36
555.074	30909.82
555.273	31272.31
555.473	31118.71
555.672	31290.74
555.872	30707.07
556.071	30946.69
556.271	31171.96
556.47	30813.57
556.67	30971.26
556.869	30903.68
557.068	30866.81
557.268	30965.12
557.467	30907.77
557.667	30844.29
557.866	30784.9
558.065	30760.32
558.265	30565.76
558.464	30473.6
558.663	31176.06
558.863	30260.62
559.062	30504.32
559.261	30221.7
559.461	30619.01
559.66	29930.89
559.859	30246.28
560.058	30317.96
560.258	30207.37
560.457	30086.54
560.656	30285.19
560.855	29965.71
561.054	30363.01
561.253	29771.15
561.453	30231.94
561.652	30172.55
561.851	30246.28
562.05	29793.68
562.249	29402.52
562.448	29711.76
562.647	29906.32
562.846	29719.95
563.045	29711.76
563.244	29199.77
563.443	29773.2
563.642	29603.22
563.841	29611.41
564.04	29199.77
564.239	29885.84
564.438	29052.31
564.637	29220.25
564.836	29214.1
565.035	28734.88
565.234	29377.94
565.432	28892.57
565.631	29103.51
565.83	28802.46
566.029	28964.25
566.228	28661.15
566.427	28814.75
566.625	28339.62
566.824	28472.74
567.023	28544.42
567.222	27819.44
567.42	28454.31
567.619	28503.46
567.818	28255.65
568.016	28267.94
568.215	28263.85
568.414	27846.06
568.612	28239.27
568.811	27766.19
569.01	28149.16
569.208	27567.54
569.407	28536.23
569.605	27461.04
569.804	27833.77
570.002	27278.77
570.201	27684.27
570.4	27313.59
570.598	27375.03
570.797	27147.7
570.995	27469.23
571.193	27049.4
571.392	27291.06
571.59	26899.9
571.789	27065.78
571.987	26811.84
572.186	27217.33
572.384	26727.87
572.582	26801.6
572.781	26693.05
572.979	26250.69
573.177	26500.54
573.376	26611.14
573.574	26213.83
573.772	26527.17
573.971	26500.54
574.169	26217.93
574.367	26201.54
574.565	26047.94
574.763	25990.6
574.962	26099.14
575.16	25873.87
575.358	26049.99
575.556	25857.48
575.754	25812.43
575.952	25638.35
576.151	25916.87
576.349	25626.06
576.547	25372.11
576.745	25439.7
576.943	25368.02
577.141	25077.21
577.339	25142.74
577.537	25099.73
577.735	25292.24
577.933	24851.93
578.131	24735.2
578.329	24884.7
578.527	24626.65
578.725	24815.07
578.923	24935.9
579.121	24888.79
579.319	24602.08
579.516	24575.45
579.714	24272.35
579.912	24638.94
580.11	24102.37
580.308	24161.76
580.506	24135.14
580.704	24020.45
580.901	24100.33
581.099	24112.61
581.297	23948.78
581.495	23719.4
581.692	23786.99
581.89	23299.57
582.088	23721.45
582.285	23592.43
582.483	23840.23
582.681	23631.34
582.878	23580.14
583.076	23125.49
583.274	23086.58
583.471	23090.68
583.669	23301.62
583.866	23025.14
584.064	23021.05
584.262	23135.73
584.459	23111.16
584.657	22754.81
584.854	23219.7
585.052	22562.3
585.249	22545.92
585.447	22756.86
585.644	22607.36
585.841	22580.73
586.039	22898.17
586.236	22085.12
586.434	22271.49
586.631	22525.44
586.828	22337.02
587.026	22191.62
587.223	22046.21
587.42	21698.06
587.618	21894.66
587.815	22052.36
588.012	21902.86
588.21	21777.93
588.407	21900.81
588.604	21859.85
588.801	21499.41
588.999	21354
589.196	21229.07
589.393	21476.88
589.59	21397.01
589.787	21339.66
589.984	21272.08
590.182	21073.43
590.379	21122.58
590.576	20686.36
590.773	21081.62
590.97	20663.83
591.167	20932.12
591.364	20661.79
591.561	21030.42
591.758	20403.74
591.955	20731.42
592.152	20889.11
592.349	20420.13
592.546	20260.38
592.743	20370.97
592.94	19807.78
593.137	20315.68
593.334	20395.55
593.531	20063.78
593.727	20274.72
593.924	20020.77
594.121	19645.99
594.318	20088.35
594.515	19680.81
594.712	19975.72
594.908	19748.39
595.105	19854.89
595.302	19576.36
595.499	19801.64
595.696	19482.16
595.892	19506.73
596.089	19574.31
596.286	19559.98
596.482	19441.2
596.679	19299.89
596.876	19361.33
597.072	19220.02
597.269	19033.65
597.466	18998.84
597.662	18802.23
597.859	18949.68
598.055	18818.61
598.252	18474.56
598.448	18585.15
598.645	18552.38
598.841	18576.95
599.038	18380.35
599.234	18288.19
599.431	18236.99
599.627	18449.98
599.824	18445.88
600.02	18388.54
600.217	18298.43
600.413	18067.01
600.609	17755.72
600.806	18114.11
601.002	17989.19
601.198	17987.14
601.395	17800.77
601.591	17622.6
601.787	17901.12
601.984	17544.78
602.18	17725
602.376	17499.72
602.572	17444.43
602.769	17485.39
602.965	17268.3
603.161	17491.53
603.357	17129.04
603.553	17210.96
603.75	17024.59
603.946	17143.38
604.142	17172.05
604.338	17045.07
604.534	16928.34
604.73	16852.56
604.926	16961.11
605.122	16682.58
605.318	16836.18
605.514	16901.72
605.71	16359
605.906	16309.85
606.102	16647.77
606.298	16571.99
606.494	16574.04
606.69	16547.42
606.886	16664.15
607.082	16203.36
607.278	16469.59
607.474	16223.84
607.67	16442.97
607.866	16066.14
608.062	16549.46
608.257	16160.35
608.453	16166.49
608.649	16211.55
608.845	16033.38
609.041	16170.59
609.236	16320.09
609.432	15951.46
609.628	16105.06
609.824	15879.78
610.019	15580.78
610.215	15971.94
610.411	15814.24
610.606	15687.27
610.802	15734.37
610.998	15775.33
611.193	15773.28
611.389	15558.25
611.584	15523.43
611.78	15464.04
611.976	15629.93
612.171	15425.13
612.367	15523.43
612.562	15337.07
612.758	15404.65
612.953	15169.13
613.149	15523.43
613.344	15353.45
613.539	15322.73
613.735	15236.72
613.93	15267.44
614.126	15320.68
614.321	15054.45
614.517	15062.64
614.712	15025.78
614.907	14882.42
615.103	15122.03
615.298	14921.33
615.493	15015.54
615.688	14950
615.884	15042.16
616.079	14616.18
616.274	14927.47
616.47	14818.93
616.665	14851.7
616.86	14906.99
617.055	14634.61
617.25	14696.05
617.445	14694.01
617.641	14716.53
617.836	14685.81
618.031	14341.75
618.226	14366.33
618.421	14325.37
618.616	14407.29
618.811	14055.04
619.006	14173.82
619.201	14091.9
619.396	14245.5
619.591	13956.74
619.786	14210.68
619.981	13721.22
620.176	13796.99
620.371	14012.03
620.566	13700.74
620.761	13465.22
620.956	13766.28
621.151	13665.92
621.346	13479.56
621.541	13502.09
621.735	13467.27
621.93	13448.84
622.125	13514.38
622.32	13082.25
622.515	13145.74
622.709	13026.96
622.904	12916.37
623.099	13112.97
623.294	12777.11
623.488	12648.08
623.683	12703.38
623.878	12732.05
624.072	12736.15
624.267	12658.32
624.462	12541.59
624.656	12498.58
624.851	12273.31
625.046	12498.58
625.24	12287.64
625.435	12179.1
625.629	12091.04
625.824	12043.93
626.018	11968.16
626.213	11683.49
626.407	11992.73
626.602	11785.89
626.796	11871.9
626.991	11693.73
627.185	11622.05
627.38	11663.01
627.574	11458.21
627.768	11343.53
627.963	11304.62
628.157	11187.88
628.352	11490.98
628.546	11108.01
628.74	11249.32
628.935	10931.89
629.129	11108.01
629.323	10966.7
629.517	10831.54
629.712	10790.58
629.906	11065
630.1	10712.75
630.294	10831.54
630.489	10655.41
630.683	10577.59
630.877	10323.64
631.071	10661.55
631.265	10294.97
631.459	10376.89
631.653	10237.63
631.848	10211
632.042	10049.21
632.236	10196.67
632.43	10010.3
632.624	9950.91
632.818	9916.09
633.012	9854.65
633.206	9914.05
633.4	9778.88
633.594	9696.96
633.788	9764.54
633.982	9688.77
634.176	9610.95
634.369	9574.08
634.563	9592.51
634.757	9469.64
634.951	9723.58
635.145	9524.93
635.339	9397.96
635.533	9238.22
635.726	9238.22
635.92	9174.73
636.114	9082.57
636.308	9234.12
636.501	9303.75
636.695	9014.99
636.889	8853.2
637.083	8978.12
637.276	9017.04
637.47	8998.6
637.664	8777.42
637.857	8824.53
638.051	8718.03
638.244	8519.38
638.438	8664.79
638.632	8758.99
638.825	8517.33
639.019	8369.88
639.212	8275.67
639.406	8396.5
639.599	8275.67
639.793	8226.52
639.986	8001.24
640.18	8095.45
640.373	8183.51
640.567	8068.83
640.76	7927.52
640.954	8128.22
641.147	8074.97
641.34	7896.8
641.534	7732.96
641.727	7853.79
641.92	7960.28
642.114	7821.02
642.307	7782.11
642.5	7544.55
642.694	7468.77
642.887	7362.28
643.08	7616.23
643.273	7517.92
643.467	7345.89
643.66	7399.14
643.853	7552.74
644.046	7206.63
644.239	7282.41
644.432	7196.39
644.626	7200.49
644.819	7167.72
645.012	7108.33
645.205	7286.5
645.398	7237.35
645.591	6973.16
645.784	6977.26
645.977	6811.37
646.17	6821.61
646.363	6799.09
646.556	6829.81
646.749	6807.28
646.942	6919.92
647.135	6815.47
647.328	6780.65
647.521	6741.74
647.714	6641.39
647.907	6686.45
648.099	6534.9
648.292	6604.53
648.485	6387.44
648.678	6420.21
648.871	6467.31
649.064	6330.1
649.256	6321.91
649.449	6338.29
649.642	6207.22
649.835	6205.17
650.027	6067.96
650.22	6211.32
650.413	6127.35
650.605	6264.57
650.798	6117.11
650.991	5953.27
651.183	5908.22
651.376	5914.36
651.568	6006.52
651.761	5945.08
651.954	5838.59
652.146	5850.88
652.339	5895.93
652.531	5779.2
652.724	5756.67
652.916	5836.54
653.109	5658.37
653.301	5715.71
653.494	5826.3
653.686	5631.74
653.879	5854.97
654.071	5613.31
654.263	5701.37
654.456	5633.79
654.648	5576.45
654.84	5408.51
655.033	5533.44
655.225	5519.11
655.417	5398.27
655.61	5451.52
655.802	5472
655.994	5310.21
656.186	5371.65
656.379	5324.55
656.571	5256.97
656.763	5164.81
656.955	5009.16
657.148	5160.71
657.34	5023.5
657.532	5170.95
657.724	4900.62
657.916	5084.94
658.108	5007.11
658.3	5021.45
658.492	5097.22
658.684	4970.25
658.876	4912.91
659.068	4849.42
659.26	4740.88
659.452	4814.6
659.644	4804.36
659.836	4755.21
660.028	4628.24
660.22	4687.63
660.412	4767.5
660.604	4665.1
660.796	4652.81
660.988	4667.15
661.18	4542.22
661.372	4579.09
661.563	4570.9
661.755	4538.13
661.947	4503.31
662.139	4486.93
662.331	4409.11
662.522	4409.11
662.714	4290.32
662.906	4429.59
663.097	4388.63
663.289	4415.25
663.481	4265.75
663.673	4331.28
663.864	4235.03
664.056	4319
664.247	4157.21
664.439	4241.17
664.631	4314.9
664.822	4134.68
665.014	4110.1
665.205	4003.61
665.397	4022.04
665.588	4167.45
665.78	4007.7
665.971	4073.24
666.163	3915.55
666.354	3927.83
666.546	4036.38
666.737	4030.23
666.929	3919.64
667.12	3995.42
667.311	3915.55
667.503	3815.2
667.694	3948.31
667.885	3798.81
668.077	3831.58
668.268	3766.04
668.459	3884.83
668.651	3864.35
668.842	3839.77
669.033	3751.71
669.224	3800.86
669.416	3778.33
669.607	3602.21
669.798	3669.79
669.989	3581.73
670.18	3692.32
670.371	3628.83
670.563	3512.1
670.754	3571.49
670.945	3589.92
671.136	3620.64
671.327	3630.88
671.518	3510.05
671.709	3452.7
671.9	3667.74
672.091	3594.01
672.282	3491.62
672.473	3610.4
672.664	3536.67
672.855	3462.94
673.046	3417.89
673.237	3391.27
673.428	3612.45
673.619	3620.64
673.809	3450.66
674	3374.88
674.191	3487.52
674.382	3401.51
674.573	3364.64
674.764	3407.65
674.954	3442.46
675.145	3299.11
675.336	3254.05
675.527	3399.46
675.717	3497.76
675.908	3469.09
676.099	3194.66
676.289	3338.02
676.48	3301.15
676.671	3241.76
676.861	3276.58
677.052	3241.76
677.243	3176.23
677.433	3118.89
677.624	3309.35
677.814	3110.69
678.005	3209
678.195	3262.24
678.386	3161.89
678.576	3039.01
678.767	3180.32
678.957	3170.08
679.148	3077.93
679.338	3243.81
679.529	3198.76
679.719	3071.78
679.909	3014.44
680.1	3114.79
680.29	3168.04
680.481	3145.51
680.671	3151.65
680.861	3110.69
681.052	3145.51
681.242	3028.78
681.432	3086.12
681.622	3120.93
681.813	3127.08
682.003	3086.12
682.193	3014.44
682.383	3116.84
682.573	2979.62
682.764	3045.16
682.954	3122.98
683.144	2971.43
683.334	3065.64
683.524	2963.24
683.714	2996.01
683.904	3047.21
684.094	2946.86
684.284	2922.28
684.474	2948.9
684.664	3053.35
684.854	2942.76
685.044	3020.58
685.234	2909.99
685.424	2907.94
685.614	2944.81
685.804	2965.29
685.994	2930.47
686.184	2881.32
686.374	2828.07
686.564	2789.16
686.753	2930.47
686.943	2660.14
687.133	2752.3
687.323	2875.18
687.513	2932.52
687.702	2840.36
687.892	2817.83
688.082	2768.68
688.272	2815.79
688.461	2701.1
688.651	2758.44
688.841	2684.72
689.03	2717.48
689.22	2699.05
689.41	2832.17
689.599	2676.52
689.789	2703.15
689.979	2651.95
690.168	2684.72
690.358	2610.99
690.547	2586.41
690.737	2635.57
690.926	2680.62
691.116	2619.18
691.305	2565.93
691.495	2641.71
691.684	2600.75
691.874	2576.17
692.063	2512.69
692.252	2545.45
692.442	2678.57
692.631	2471.73
692.82	2522.93
693.01	2570.03
693.199	2508.59
693.388	2467.63
693.578	2465.58
693.767	2379.57
693.956	2438.96
694.146	2623.28
694.335	2490.16
694.524	2504.5
694.713	2522.93
694.902	2475.82
695.092	2430.77
695.281	2522.93
695.47	2488.11
695.659	2465.58
695.848	2402.1
696.037	2455.34
696.226	2426.67
696.415	2311.99
696.604	2398
696.793	2381.62
696.982	2234.16
697.171	2449.2
697.36	2332.47
697.549	2367.28
697.738	2414.38
697.927	2307.89
698.116	2291.51
698.305	2330.42
698.494	2389.81
698.683	2352.95
698.872	2459.44
699.061	2299.7
699.25	2316.08
699.438	2438.96
699.627	2408.24
699.816	2424.62
700.005	2387.76
700.193	2348.85
700.382	2369.33
700.571	2342.71
700.76	2303.79
700.948	2383.66
701.137	2373.43
701.326	2510.64
701.514	2281.27
701.703	2209.59
701.892	2344.75
702.08	2424.62
702.269	2246.45
702.457	2373.43
702.646	2406.19
702.834	2225.97
703.023	2289.46
703.212	2309.94
703.4	2293.55
703.589	2258.74
703.777	2217.78
703.965	2330.42
704.154	2268.98
704.342	2303.79
704.531	2330.42
704.719	2228.02
704.907	2260.79
705.096	2201.4
705.284	2225.97
705.472	2383.66
705.661	2328.37
705.849	2328.37
706.037	2287.41
706.226	2176.82
706.414	2232.12
706.602	2299.7
706.79	2271.03
706.979	2266.93
707.167	2316.08
707.355	2135.86
707.543	2232.12
707.731	2166.58
707.919	2279.22
708.107	2113.33
708.296	2285.36
708.484	2318.13
708.672	2295.6
708.86	2195.25
709.048	2166.58
709.236	2344.75
709.424	2283.31
709.612	2299.7
709.8	2252.59
709.988	2273.07
710.176	2250.55
710.364	2238.26
710.551	2299.7
710.739	2303.79
710.927	2156.34
711.115	2293.55
711.303	2230.07
711.491	2217.78
711.679	2185.01
711.866	2299.7
712.054	2156.34
712.242	2201.4
712.43	2193.2
712.617	2244.4
712.805	2408.24
712.993	2234.16
713.181	2176.82
713.368	2182.96
713.556	2271.03
713.744	2178.87
713.931	2271.03
714.119	2197.3
714.306	2254.64
714.494	2193.2
714.682	2209.59
714.869	2131.76
715.057	2246.45
715.244	2160.44
715.432	2242.36
715.619	2193.2
715.807	2232.12
715.994	2219.83
716.182	2250.55
716.369	2223.92
716.556	2174.77
716.744	2254.64
716.931	2211.64
717.119	2402.1
717.306	2211.64
717.493	2180.92
717.681	2264.88
717.868	2254.64
718.055	2277.17
718.242	2195.25
718.43	2225.97
718.617	2299.7
718.804	2156.34
718.991	2258.74
719.179	2283.31
719.366	2203.44
719.553	2316.08
719.74	2320.18
719.927	2225.97
720.114	2201.4
720.301	2234.16
720.488	2055.99
720.676	2230.07
720.863	2152.24
721.05	2193.2
721.237	2248.5
721.424	2285.36
721.611	2230.07
721.798	2230.07
721.985	2201.4
722.172	2156.34
722.358	2225.97
722.545	2371.38
722.732	2119.48
722.919	2168.63
723.106	2260.79
723.293	2103.09
723.48	2246.45
723.667	2176.82
723.853	2162.48
724.04	2135.86
724.227	2242.36
724.414	2176.82
724.6	2191.16
724.787	2273.07
724.974	2262.83
725.161	2152.24
725.347	2295.6
725.534	2205.49
725.72	2203.44
725.907	2160.44
726.094	2189.11
726.28	2217.78
726.467	2295.6
726.653	2189.11
726.84	2152.24
727.027	2213.68
727.213	2156.34
727.4	2260.79
727.586	2242.36
727.773	2129.72
727.959	2252.59
728.145	2129.72
728.332	2160.44
728.518	2203.44
728.705	2129.72
728.891	2162.48
729.077	2105.14
729.264	2105.14
729.45	2260.79
729.636	2225.97
729.823	2268.98
730.009	2187.06
730.195	2215.73
730.382	2103.09
730.568	2154.29
730.754	2086.71
730.94	2262.83
731.126	2250.55
731.313	2217.78
731.499	2256.69
731.685	2252.59
731.871	2260.79
732.057	2113.33
732.243	2148.15
732.429	2211.64
732.615	2037.56
732.801	2193.2
732.987	2154.29
733.173	2176.82
733.359	2168.63
733.545	2129.72
733.731	2242.36
733.917	2228.02
734.103	2105.14
734.289	2178.87
734.475	2166.58
734.661	2185.01
734.847	2160.44
735.033	2228.02
735.219	2125.62
735.404	2078.52
735.59	2215.73
735.776	2113.33
735.962	2135.86
736.148	2223.92
736.333	2193.2
736.519	2070.33
736.705	2168.63
736.89	2135.86
737.076	2125.62
737.262	2209.59
737.447	2058.04
737.633	2240.31
737.819	2205.49
738.004	2152.24
738.19	2135.86
738.375	2209.59
738.561	2234.16
738.747	2109.24
738.932	2144.05
739.118	2135.86
739.303	2129.72
739.489	2064.18
739.674	2041.65
739.859	2076.47
740.045	2107.19
740.23	2131.76
740.416	1955.64
740.601	2127.67
740.786	1939.26
740.972	2103.09
741.157	2019.13
741.342	2062.13
741.528	1996.6
741.713	2105.14
741.898	2078.52
742.084	1996.6
742.269	1943.35
742.454	2017.08
742.639	1963.83
742.824	1988.41
743.01	1902.39
743.195	2021.17
743.38	1972.02
743.565	1967.93
743.75	1943.35
743.935	1990.45
744.12	1986.36
744.305	1943.35
744.49	2045.75
744.675	1996.6
744.86	1965.88
745.045	1883.96
745.23	1883.96
745.415	1906.49
745.6	1881.91
745.785	1818.43
745.97	1922.87
746.155	2017.08
746.34	1775.42
746.525	1810.23
746.71	1875.77
746.895	1812.28
747.079	1840.95
747.264	1763.13
747.449	1750.84
747.634	1916.73
747.819	1812.28
748.003	1677.12
748.188	1754.94
748.373	1759.03
748.557	1693.5
748.742	1654.59
748.927	1701.69
749.111	1750.84
749.296	1740.6
749.481	1754.94
749.665	1611.58
749.85	1697.6
750.034	1613.63
750.219	1681.21
750.404	1648.44
750.588	1679.16
750.773	1580.86
750.957	1513.28
751.141	1670.97
751.326	1658.68
751.51	1587.01
751.695	1529.66
751.879	1509.18
752.064	1593.15
752.248	1431.36
752.432	1537.85
752.617	1558.33
752.801	1474.37
752.985	1595.2
753.17	1449.79
753.354	1531.71
753.538	1451.84
753.722	1347.39
753.907	1400.64
754.091	1419.07
754.275	1423.17
754.459	1390.4
754.643	1423.17
754.828	1382.21
755.012	1443.65
755.196	1365.82
755.38	1308.48
755.564	1316.67
755.748	1251.14
755.932	1427.26
756.116	1326.91
756.3	1300.29
756.484	1369.92
756.668	1320.77
756.852	1238.85
757.036	1238.85
757.22	1193.8
757.404	1204.03
757.588	1300.29
757.772	1328.96
757.956	1187.65
758.14	1238.85
758.323	1197.89
758.507	1253.19
758.691	1187.65
758.875	1242.95
759.059	1251.14
759.242	1103.68
759.426	1175.36
759.61	1251.14
759.794	1103.68
759.977	1298.24
760.161	1185.6
760.345	1277.76
760.528	1228.61
760.712	1064.77
760.895	1199.94
761.079	1124.16
761.263	1075.01
761.446	1013.57
761.63	1097.54
761.813	1111.88
761.997	1105.73
762.18	1056.58
762.364	1201.99
762.547	982.85
762.731	1021.77
762.914	1054.53
763.098	1115.97
763.281	1083.2
763.464	1046.34
763.648	1015.62
763.831	1025.86
764.015	1005.38
764.198	1075.01
764.381	1042.25
764.564	1083.2
764.748	1038.15
764.931	972.61
765.114	890.7
765.297	1011.53
765.481	941.89
765.664	845.64
765.847	919.37
766.03	980.81
766.213	911.18
766.397	931.66
766.58	952.13
766.763	962.37
766.946	935.75
767.129	923.46
767.312	884.55
767.495	989
767.678	884.55
767.861	825.16
768.044	864.07
768.227	939.85
768.41	925.51
768.593	884.55
768.776	882.5
768.959	884.55
769.142	896.84
769.324	812.87
769.507	831.3
769.69	933.7
769.873	831.3
770.056	849.74
770.239	874.31
770.421	800.59
770.604	950.09
770.787	751.43
770.97	853.83
771.152	825.16
771.335	743.24
771.518	816.97
771.7	862.02
771.883	886.6
772.066	751.43
772.248	816.97
772.431	821.06
772.613	790.35
772.796	769.87
772.978	814.92
773.161	845.64
773.343	874.31
773.526	761.67
773.708	694.09
773.891	845.64
774.073	778.06
774.256	759.63
774.438	841.54
774.621	755.53
774.803	835.4
774.985	782.15
775.168	753.48
775.35	714.57
775.532	784.2
775.715	759.63
775.897	780.11
776.079	739.15
776.261	763.72
776.444	735.05
776.626	776.01
776.808	696.14
776.99	679.75
777.173	599.88
777.355	620.36
777.537	665.42
777.719	583.5
777.901	603.98
778.083	571.21
778.265	632.65
778.447	710.47
778.629	595.79
778.811	685.9
778.993	573.26
779.175	685.9
779.357	640.84
779.539	620.36
779.721	571.21
779.903	581.45
780.085	563.02
780.267	563.02
780.449	577.36
780.631	497.49
780.812	644.94
780.994	595.79
781.176	509.77
781.358	563.02
781.54	589.64
781.721	577.36
781.903	554.83
782.085	454.48
782.267	569.16
782.448	546.64
782.63	585.55
782.812	540.49
782.993	583.5
783.175	481.1
783.357	554.83
783.538	587.6
783.72	522.06
783.901	517.97
784.083	505.68
784.264	477.01
784.446	440.14
784.627	401.23
784.809	538.45
784.99	440.14
785.172	554.83
785.353	397.14
785.535	421.71
785.716	481.1
785.897	466.77
786.079	403.28
786.26	538.45
786.441	470.86
786.623	337.74
786.804	388.94
786.985	423.76
787.167	477.01
787.348	382.8
787.529	417.61
787.71	436.05
787.891	446.29
788.073	419.66
788.254	454.48
788.435	440.14
788.616	464.72
788.797	390.99
788.978	425.81
789.159	382.8
789.34	415.57
789.522	382.8
789.703	366.42
789.884	425.81
790.065	335.7
790.246	362.32
790.427	286.54
790.607	405.33
790.788	341.84
790.969	370.51
791.15	386.9
791.331	407.38
791.512	247.63
791.693	333.65
791.874	300.88
792.054	427.85
792.235	442.19
792.416	399.18
792.597	292.69
792.778	376.66
792.958	368.46
793.139	341.84
793.32	298.83
793.5	292.69
793.681	360.27
793.862	337.74
794.042	321.36
794.223	223.06
794.404	386.9
794.584	237.39
794.765	382.8
794.945	284.5
795.126	300.88
795.306	339.79
795.487	243.54
795.667	345.94
795.848	288.59
796.028	268.11
796.209	304.98
796.389	331.6
796.57	292.69
796.75	302.93
796.93	333.65
797.111	276.31
797.291	286.54
797.471	257.87
797.652	268.11
797.832	319.31
798.012	270.16
798.192	237.39
798.373	268.11
798.553	251.73
798.733	298.83
798.913	245.59
799.093	276.31
799.274	278.35
799.454	202.58
799.634	259.92
799.814	261.97
799.994	255.83
800.174	257.87
800.354	180.05
800.534	257.87
800.714	204.63
800.894	223.06
801.074	202.58
801.254	292.69
801.434	296.78
801.614	309.07
801.794	274.26
801.974	776.01
802.154	171.86
802.334	212.82
802.514	227.15
802.693	296.78
802.873	180.05
803.053	210.77
803.233	206.67
803.413	243.54
803.592	188.24
803.772	221.01
803.952	178
804.131	169.81
804.311	221.01
804.491	319.31
804.67	171.86
804.85	157.52
805.03	218.96
805.209	237.39
805.389	178
805.568	247.63
805.748	194.39
805.928	239.44
806.107	233.3
806.287	235.35
806.466	178
806.646	190.29
806.825	155.47
807.004	161.62
807.184	165.71
807.363	218.96
807.543	173.91
807.722	227.15
807.901	259.92
808.081	171.86
808.26	120.66
808.439	128.85
808.619	186.19
808.798	194.39
808.977	161.62
809.156	225.11
809.336	128.85
809.515	221.01
809.694	137.04
809.873	173.91
810.052	194.39
810.231	235.35
810.411	124.76
810.59	108.37
810.769	229.2
810.948	190.29
811.127	184.15
811.306	235.35
811.485	182.1
811.664	229.2
811.843	237.39
812.022	173.91
812.201	112.47
812.38	98.13
812.559	165.71
812.737	264.02
812.916	141.14
813.095	161.62
813.274	120.66
813.453	145.24
813.632	178
813.811	182.1
813.989	85.84
814.168	147.28
814.347	122.71
814.526	165.71
814.704	108.37
814.883	171.86
815.062	118.61
815.24	145.24
815.419	46.93
815.598	139.09
815.776	118.61
815.955	120.66
816.133	147.28
816.312	178
816.49	163.67
816.669	139.09
816.847	128.85
817.026	145.24
817.204	192.34
817.383	153.43
817.561	145.24
817.74	182.1
817.918	198.48
818.097	143.19
818.275	178
818.453	196.43
818.632	149.33
818.81	169.81
818.988	151.38
819.167	120.66
819.345	171.86
819.523	137.04
819.701	120.66
819.879	161.62
820.058	46.93
820.236	153.43
820.414	96.08
820.592	87.89
820.77	165.71
820.948	137.04
821.127	73.56
821.305	120.66
821.483	196.43
821.661	143.19
821.839	137.04
822.017	149.33
822.195	137.04
822.373	171.86
822.551	145.24
822.729	104.28
822.907	124.76
823.085	135
823.262	145.24
823.44	153.43
823.618	147.28
823.796	57.17
823.974	120.66
824.152	104.28
824.329	104.28
824.507	161.62
824.685	89.94
824.863	145.24
825.04	69.46
825.218	81.75
825.396	141.14
825.574	110.42
825.751	130.9
825.929	124.76
826.107	116.56
826.284	120.66
826.462	65.36
826.639	159.57
826.817	116.56
826.994	57.17
827.172	98.13
827.349	106.32
827.527	145.24
827.704	40.79
827.882	110.42
828.059	81.75
828.237	139.09
828.414	141.14
828.591	137.04
828.769	128.85
828.946	67.41
829.124	120.66
829.301	114.52
829.478	83.8
829.655	112.47
829.833	79.7
830.01	63.32
830.187	48.98
830.364	63.32
830.542	106.32
830.719	112.47
830.896	48.98
831.073	120.66
831.25	155.47
831.427	40.79
831.604	147.28
831.782	73.56
831.959	161.62
832.136	161.62
832.313	51.03
832.49	67.41
832.667	120.66
832.844	69.46
833.021	96.08
833.198	65.36
833.374	112.47
833.551	69.46
833.728	89.94
833.905	75.6
834.082	-63.66
834.259	100.18
834.436	96.08
834.612	46.93
834.789	81.75
834.966	96.08
835.143	83.8
835.319	20.31
835.496	98.13
835.673	143.19
835.85	106.32
836.026	73.56
836.203	145.24
836.38	57.17
836.556	48.98
836.733	67.41
836.909	120.66
837.086	71.51
837.262	83.8
837.439	135
837.616	22.36
837.792	79.7
837.968	87.89
838.145	26.45
838.321	48.98
838.498	96.08
838.674	87.89
838.851	128.85
839.027	16.21
839.203	61.27
839.38	79.7
839.556	102.23
839.732	71.51
839.909	81.75
840.085	18.26
840.261	77.65
840.437	34.64
840.614	87.89
840.79	104.28
840.966	128.85
841.142	89.94
841.318	34.64
841.494	108.37
841.671	100.18
841.847	81.75
842.023	42.84
842.199	89.94
842.375	51.03
842.551	120.66
842.727	1.88
842.903	143.19
843.079	63.32
843.255	55.12
843.431	73.56
843.607	14.17
843.783	36.69
843.959	22.36
844.134	81.75
844.31	124.76
844.486	3.93
844.662	16.21
844.838	-10.41
845.013	79.7
845.189	14.17
845.365	71.51
845.541	46.93
845.716	51.03
845.892	63.32
846.068	110.42
846.244	87.89
846.419	34.64
846.595	-22.7
846.77	89.94
846.946	108.37
847.122	-77.99
847.297	36.69
847.473	81.75
847.648	40.79
847.824	96.08
847.999	-0.17
848.175	-14.51
848.35	46.93
848.526	100.18
848.701	46.93
848.876	8.02
849.052	59.22
849.227	87.89
849.403	5.97
849.578	57.17
849.753	106.32
849.929	83.8
850.104	-26.79
850.279	8.02
850.454	22.36
850.63	65.36
850.805	55.12
850.98	-16.55
851.155	26.45
851.33	81.75
851.505	71.51
851.681	38.74
851.856	67.41
852.031	104.28
852.206	26.45
852.381	14.17
852.556	59.22
852.731	42.84
852.906	75.6
853.081	112.47
853.256	-10.41
853.431	-22.7
853.606	104.28
853.781	73.56
853.956	55.12
854.131	100.18
854.305	63.32
854.48	24.4
854.655	46.93
854.83	96.08
855.005	40.79
855.18	55.12
855.354	51.03
855.529	38.74
855.704	55.12
855.879	81.75
856.053	38.74
856.228	51.03
856.403	44.88
856.577	106.32
856.752	-34.99
856.926	120.66
857.101	5.97
857.276	48.98
857.45	28.5
857.625	-10.41
857.799	-8.36
857.974	36.69
858.148	55.12
858.323	32.6
858.497	38.74
858.672	46.93
858.846	14.17
859.02	63.32
859.195	65.36
859.369	30.55
859.543	48.98
859.718	16.21
859.892	63.32
860.066	38.74
860.241	30.55
860.415	3.93
860.589	87.89
860.763	46.93
860.938	-24.75
861.112	20.31
861.286	14.17
861.46	42.84
861.634	63.32
861.808	55.12
861.982	42.84
862.157	38.74
862.331	67.41
862.505	55.12
862.679	10.07
862.853	57.17
863.027	-34.99
863.201	-2.22
863.375	-0.17
863.549	79.7
863.722	79.7
863.896	1.88
864.07	-41.13
864.244	124.76
864.418	-26.79
864.592	40.79
864.766	14.17
864.939	-18.6
865.113	-16.55
865.287	63.32
865.461	46.93
865.634	71.51
865.808	8.02
865.982	67.41
866.156	65.36
866.329	-14.51
866.503	59.22
866.676	63.32
866.85	79.7
867.024	38.74
867.197	87.89
867.371	48.98
867.544	85.84
867.718	-2.22
867.891	14.17
868.065	24.4
868.238	55.12
868.412	5.97
868.585	30.55
868.759	5.97
868.932	36.69
869.105	-32.94
869.279	-4.27
869.452	-10.41
869.625	87.89
869.799	-0.17
869.972	-84.14
870.145	-2.22
870.319	-12.46
870.492	63.32
870.665	-55.47
870.838	-0.17
871.011	3.93
871.185	18.26
871.358	22.36
871.531	53.08
871.704	38.74
871.877	32.6
872.05	-14.51
872.223	79.7
872.396	-6.31
872.569	83.8
872.742	-28.84
872.915	96.08
873.088	10.07
873.261	-0.17
873.434	32.6
873.607	8.02
873.78	-22.7
873.953	-43.18
874.126	51.03
874.299	-10.41
874.471	46.93
874.644	63.32
874.817	26.45
874.99	71.51
875.163	14.17
875.335	69.46
875.508	48.98
875.681	94.04
875.853	-0.17
876.026	5.97
876.199	16.21
876.371	-6.31
876.544	38.74
876.717	14.17
876.889	-8.36
877.062	-32.94
877.234	83.8
877.407	-47.27
877.579	-22.7
877.752	-24.75
877.924	-2.22
878.097	-80.04
878.269	89.94
878.442	-8.36
878.614	-18.6
878.786	14.17
878.959	130.9
879.131	32.6
879.303	-53.42
879.476	26.45
879.648	10.07
879.82	51.03
879.993	5.97
880.165	-4.27
880.337	5.97
880.509	32.6
880.681	-14.51
880.854	-6.31
881.026	-6.31
881.198	163.67
881.37	8.02
881.542	34.64
881.714	-41.13
881.886	-16.55
882.058	12.12
882.23	8.02
882.402	77.65
882.574	91.99
882.746	87.89
882.918	18.26
883.09	24.4
883.262	-14.51
883.434	57.17
883.606	79.7
883.778	55.12
883.95	79.7
884.122	-2.22
884.293	38.74
884.465	-16.55
884.637	-2.22
884.809	-37.03
884.98	-2.22
885.152	-24.75
885.324	122.71
885.496	38.74
885.667	14.17
885.839	-12.46
886.011	32.6
886.182	32.6
886.354	59.22
886.525	55.12
886.697	8.02
886.869	8.02
887.04	5.97
887.212	-10.41
887.383	69.46
887.555	-4.27
887.726	38.74
887.897	83.8
888.069	-0.17
888.24	-32.94
888.412	-39.08
888.583	-34.99
888.754	14.17
888.926	-51.37
889.097	48.98
889.268	16.21
889.44	5.97
889.611	34.64
889.782	-16.55
889.953	-8.36
890.125	63.32
890.296	-4.27
890.467	59.22
890.638	5.97
890.809	14.17
890.98	-2.22
891.151	89.94
891.323	34.64
891.494	-0.17
891.665	-8.36
891.836	-24.75
892.007	-18.6
892.178	-34.99
892.349	59.22
892.52	-26.79
892.691	-24.75
892.862	-2.22
893.032	8.02
893.203	-14.51
893.374	59.22
893.545	-34.99
893.716	46.93
893.887	96.08
894.057	-12.46
894.228	1.88
894.399	42.84
894.57	55.12
894.74	34.64
894.911	128.85
895.082	22.36
895.253	5.97
895.423	-18.6
895.594	57.17
895.764	46.93
895.935	-51.37
896.106	-24.75
896.276	-24.75
896.447	38.74
896.617	10.07
896.788	38.74
896.958	24.4
897.129	16.21
897.299	16.21
897.47	32.6
897.64	14.17
897.81	32.6
897.981	61.27
898.151	-8.36
898.322	51.03
898.492	22.36
898.662	24.4
898.832	10.07
899.003	-12.46
899.173	30.55
899.343	24.4
899.513	24.4
