Data from USB4F104151__135__14-44-07-726.txt Node

Date: Thu Mar 13 14:44:07 EDT 2025
User: louis
Spectrometer: USB4F10415
Trigger mode: 4
Integration Time (sec): 2.000000E-2
Scans to average: 1
Electric dark correction enabled: true
Nonlinearity correction enabled: false
Boxcar width: 0
XAxis mode: Wavelengths
Number of Pixels in Spectrum: 3648
>>>>>Begin Spectral Data<<<<<
178.204	-76.46
178.424	-76.46
178.644	-76.46
178.864	-160.42
179.084	-172.71
179.304	3.41
179.524	-8.87
179.744	-37.55
179.964	19.8
180.184	11.61
180.404	71
180.624	-37.55
180.844	-10.92
181.064	-70.31
181.283	-0.68
181.503	-25.26
181.723	85.33
181.943	15.7
182.163	87.38
182.383	9.56
182.602	62.8
182.822	48.47
183.042	44.37
183.262	-35.5
183.482	64.85
183.701	-0.68
183.921	23.89
184.141	73.04
184.361	52.56
184.58	27.99
184.8	-37.55
185.02	60.76
185.239	-21.16
185.459	68.95
185.679	27.99
185.898	7.51
186.118	103.76
186.338	44.37
186.557	36.18
186.777	3.41
186.997	9.56
187.216	30.04
187.436	60.76
187.655	-43.69
187.875	48.47
188.095	34.13
188.314	27.99
188.534	13.65
188.753	11.61
188.973	81.24
189.192	134.48
189.412	36.18
189.631	56.66
189.851	25.94
190.07	177.49
190.29	-6.83
190.509	77.14
190.729	93.52
190.948	150.87
191.168	200.02
191.387	32.08
191.607	48.47
191.826	56.66
192.045	48.47
192.265	44.37
192.484	36.18
192.704	-15.02
192.923	56.66
193.142	13.65
193.362	40.28
193.581	114
193.8	36.18
194.02	62.8
194.239	3.41
194.458	56.66
194.678	11.61
194.897	27.99
195.116	-4.78
195.335	46.42
195.555	48.47
195.774	-8.87
195.993	68.95
196.212	-19.11
196.432	15.7
196.651	44.37
196.87	3.41
197.089	64.85
197.308	105.81
197.528	93.52
197.747	-35.5
197.966	79.19
198.185	136.53
198.404	-19.11
198.623	3.41
198.842	52.56
199.062	58.71
199.281	32.08
199.5	-23.21
199.719	25.94
199.938	11.61
200.157	44.37
200.376	17.75
200.595	-0.68
200.814	64.85
201.033	52.56
201.252	56.66
201.471	-2.73
201.69	79.19
201.909	85.33
202.128	23.89
202.347	19.8
202.566	13.65
202.785	-19.11
203.004	-31.4
203.223	71
203.442	-17.07
203.661	46.42
203.879	-12.97
204.098	73.04
204.317	-51.88
204.536	54.61
204.755	68.95
204.974	48.47
205.193	-21.16
205.411	114
205.63	-6.83
205.849	36.18
206.068	48.47
206.287	19.8
206.505	66.9
206.724	19.8
206.943	21.85
207.162	-10.92
207.381	21.85
207.599	11.61
207.818	-41.64
208.037	60.76
208.255	32.08
208.474	60.76
208.693	1.37
208.911	103.76
209.13	-0.68
209.349	60.76
209.567	75.09
209.786	101.72
210.005	48.47
210.223	5.46
210.442	-51.88
210.661	19.8
210.879	73.04
211.098	-4.78
211.316	-31.4
211.535	64.85
211.753	52.56
211.972	52.56
212.191	-4.78
212.409	77.14
212.628	27.99
212.846	60.76
213.065	81.24
213.283	56.66
213.502	13.65
213.72	54.61
213.938	15.7
214.157	11.61
214.375	-43.69
214.594	46.42
214.812	134.48
215.031	60.76
215.249	-4.78
215.467	79.19
215.686	73.04
215.904	3.41
216.122	-6.83
216.341	152.92
216.559	44.37
216.778	118.1
216.996	32.08
217.214	79.19
217.432	64.85
217.651	40.28
217.869	27.99
218.087	5.46
218.306	13.65
218.524	32.08
218.742	40.28
218.96	13.65
219.179	19.8
219.397	15.7
219.615	21.85
219.833	21.85
220.051	52.56
220.27	46.42
220.488	46.42
220.706	66.9
220.924	5.46
221.142	38.23
221.36	44.37
221.578	-10.92
221.796	13.65
222.015	19.8
222.233	71
222.451	36.18
222.669	-25.26
222.887	-12.97
223.105	19.8
223.323	54.61
223.541	11.61
223.759	32.08
223.977	27.99
224.195	111.96
224.413	54.61
224.631	93.52
224.849	-41.64
225.067	30.04
225.285	21.85
225.503	52.56
225.721	103.76
225.939	-2.73
226.157	142.68
226.375	75.09
226.592	19.8
226.81	7.51
227.028	60.76
227.246	71
227.464	30.04
227.682	81.24
227.9	-12.97
228.117	118.1
228.335	32.08
228.553	-17.07
228.771	-39.59
228.989	38.23
229.206	11.61
229.424	46.42
229.642	13.65
229.86	-4.78
230.077	27.99
230.295	-2.73
230.513	21.85
230.731	68.95
230.948	13.65
231.166	71
231.384	73.04
231.601	21.85
231.819	-2.73
232.037	5.46
232.254	50.52
232.472	27.99
232.689	-23.21
232.907	19.8
233.125	38.23
233.342	75.09
233.56	-10.92
233.777	118.1
233.995	21.85
234.213	50.52
234.43	34.13
234.648	19.8
234.865	85.33
235.083	27.99
235.3	48.47
235.518	52.56
235.735	42.32
235.953	38.23
236.17	-0.68
236.388	118.1
236.605	68.95
236.822	32.08
237.04	42.32
237.257	97.62
237.475	21.85
237.692	54.61
237.909	-53.93
238.127	-25.26
238.344	-17.07
238.562	60.76
238.779	-19.11
238.996	58.71
239.214	19.8
239.431	21.85
239.648	19.8
239.865	52.56
240.083	13.65
240.3	109.91
240.517	21.85
240.735	44.37
240.952	21.85
241.169	62.8
241.386	-10.92
241.603	11.61
241.821	89.43
242.038	79.19
242.255	7.51
242.472	60.76
242.689	111.96
242.907	40.28
243.124	44.37
243.341	32.08
243.558	-2.73
243.775	3.41
243.992	3.41
244.209	-19.11
244.426	52.56
244.643	44.37
244.86	-4.78
245.078	60.76
245.295	-37.55
245.512	25.94
245.729	60.76
245.946	34.13
246.163	-10.92
246.38	5.46
246.597	38.23
246.814	19.8
247.031	-29.35
247.248	50.52
247.464	54.61
247.681	56.66
247.898	52.56
248.115	71
248.332	25.94
248.549	73.04
248.766	66.9
248.983	52.56
249.2	-4.78
249.417	50.52
249.633	60.76
249.85	101.72
250.067	42.32
250.284	85.33
250.501	13.65
250.717	52.56
250.934	36.18
251.151	77.14
251.368	30.04
251.585	62.8
251.801	13.65
252.018	95.57
252.235	126.29
252.451	23.89
252.668	-19.11
252.885	30.04
253.102	15.7
253.318	52.56
253.535	1.37
253.752	5.46
253.968	11.61
254.185	-47.79
254.401	30.04
254.618	85.33
254.835	-2.73
255.051	68.95
255.268	30.04
255.484	40.28
255.701	-17.07
255.917	99.67
256.134	73.04
256.351	62.8
256.567	-58.03
256.784	40.28
257	-21.16
257.217	95.57
257.433	15.7
257.65	3.41
257.866	30.04
258.082	3.41
258.299	52.56
258.515	85.33
258.732	32.08
258.948	15.7
259.165	15.7
259.381	93.52
259.597	27.99
259.814	21.85
260.03	32.08
260.246	19.8
260.463	46.42
260.679	87.38
260.895	56.66
261.112	-45.74
261.328	13.65
261.544	13.65
261.761	163.15
261.977	5.46
262.193	-29.35
262.409	30.04
262.626	42.32
262.842	27.99
263.058	23.89
263.274	5.46
263.49	40.28
263.707	58.71
263.923	25.94
264.139	38.23
264.355	64.85
264.571	3.41
264.787	-12.97
265.004	109.91
265.22	3.41
265.436	83.28
265.652	19.8
265.868	81.24
266.084	21.85
266.3	56.66
266.516	-10.92
266.732	68.95
266.948	46.42
267.164	60.76
267.38	-53.93
267.596	-19.11
267.812	105.81
268.028	85.33
268.244	-29.35
268.46	95.57
268.676	15.7
268.892	21.85
269.108	25.94
269.324	-68.27
269.54	36.18
269.756	97.62
269.972	77.14
270.188	21.85
270.403	7.51
270.619	62.8
270.835	19.8
271.051	85.33
271.267	38.23
271.483	-21.16
271.698	27.99
271.914	89.43
272.13	107.86
272.346	-27.31
272.562	23.89
272.777	111.96
272.993	62.8
273.209	-15.02
273.425	77.14
273.64	36.18
273.856	54.61
274.072	13.65
274.287	13.65
274.503	54.61
274.719	-2.73
274.934	3.41
275.15	40.28
275.366	60.76
275.581	15.7
275.797	46.42
276.012	-25.26
276.228	-2.73
276.444	13.65
276.659	30.04
276.875	-15.02
277.09	5.46
277.306	38.23
277.521	68.95
277.737	71
277.952	50.52
278.168	91.48
278.383	11.61
278.599	5.46
278.814	68.95
279.03	62.8
279.245	7.51
279.461	-27.31
279.676	36.18
279.892	15.7
280.107	52.56
280.322	52.56
280.538	71
280.753	52.56
280.969	19.8
281.184	-21.16
281.399	68.95
281.615	44.37
281.83	-39.59
282.045	73.04
282.26	15.7
282.476	3.41
282.691	64.85
282.906	83.28
283.122	-12.97
283.337	73.04
283.552	44.37
283.767	44.37
283.983	58.71
284.198	21.85
284.413	19.8
284.628	5.46
284.843	99.67
285.058	64.85
285.274	44.37
285.489	34.13
285.704	-78.51
285.919	58.71
286.134	44.37
286.349	-6.83
286.564	46.42
286.779	62.8
286.995	27.99
287.21	-45.74
287.425	5.46
287.64	13.65
287.855	9.56
288.07	44.37
288.285	71
288.5	56.66
288.715	83.28
288.93	36.18
289.145	32.08
289.36	89.43
289.575	15.7
289.79	75.09
290.004	44.37
290.219	13.65
290.434	7.51
290.649	-8.87
290.864	-53.93
291.079	13.65
291.294	52.56
291.509	85.33
291.724	60.76
291.938	-90.79
292.153	23.89
292.368	56.66
292.583	175.44
292.798	77.14
293.012	46.42
293.227	27.99
293.442	52.56
293.657	60.76
293.871	85.33
294.086	-10.92
294.301	50.52
294.516	120.15
294.73	46.42
294.945	32.08
295.16	27.99
295.374	85.33
295.589	81.24
295.804	-8.87
296.018	7.51
296.233	91.48
296.447	38.23
296.662	48.47
296.877	101.72
297.091	36.18
297.306	73.04
297.52	44.37
297.735	48.47
297.949	13.65
298.164	52.56
298.378	32.08
298.593	-19.11
298.807	73.04
299.022	64.85
299.236	60.76
299.451	11.61
299.665	97.62
299.88	48.47
300.094	71
300.309	-17.07
300.523	48.47
300.737	93.52
300.952	34.13
301.166	27.99
301.381	17.75
301.595	44.37
301.809	-4.78
302.024	52.56
302.238	44.37
302.452	85.33
302.667	36.18
302.881	60.76
303.095	54.61
303.309	32.08
303.524	30.04
303.738	-29.35
303.952	-4.78
304.166	32.08
304.381	3.41
304.595	85.33
304.809	-2.73
305.023	62.8
305.237	19.8
305.452	13.65
305.666	36.18
305.88	44.37
306.094	36.18
306.308	19.8
306.522	27.99
306.736	89.43
306.95	126.29
307.164	60.76
307.379	85.33
307.593	77.14
307.807	71
308.021	21.85
308.235	38.23
308.449	52.56
308.663	46.42
308.877	77.14
309.091	77.14
309.305	36.18
309.519	-0.68
309.733	79.19
309.947	11.61
310.161	27.99
310.374	60.76
310.588	89.43
310.802	52.56
311.016	54.61
311.23	11.61
311.444	77.14
311.658	77.14
311.872	44.37
312.085	99.67
312.299	68.95
312.513	68.95
312.727	-2.73
312.941	21.85
313.154	36.18
313.368	36.18
313.582	21.85
313.796	3.41
314.009	136.53
314.223	68.95
314.437	95.57
314.651	60.76
314.864	36.18
315.078	42.32
315.292	-8.87
315.505	-27.31
315.719	-4.78
315.933	5.46
316.146	68.95
316.36	-33.45
316.573	101.72
316.787	38.23
317.001	60.76
317.214	81.24
317.428	48.47
317.641	-10.92
317.855	30.04
318.068	-0.68
318.282	97.62
318.495	38.23
318.709	36.18
318.922	66.9
319.136	111.96
319.349	169.3
319.563	13.65
319.776	48.47
319.99	19.8
320.203	44.37
320.417	3.41
320.63	3.41
320.843	105.81
321.057	27.99
321.27	62.8
321.483	68.95
321.697	7.51
321.91	42.32
322.124	93.52
322.337	46.42
322.55	95.57
322.763	46.42
322.977	32.08
323.19	-6.83
323.403	62.8
323.617	77.14
323.83	52.56
324.043	27.99
324.256	89.43
324.469	11.61
324.683	93.52
324.896	36.18
325.109	13.65
325.322	44.37
325.535	66.9
325.748	95.57
325.962	89.43
326.175	21.85
326.388	75.09
326.601	68.95
326.814	32.08
327.027	-25.26
327.24	64.85
327.453	-45.74
327.666	48.47
327.879	62.8
328.092	83.28
328.305	54.61
328.518	13.65
328.731	-12.97
328.944	5.46
329.157	-4.78
329.37	30.04
329.583	17.75
329.796	103.76
330.009	-12.97
330.222	36.18
330.435	118.1
330.648	52.56
330.861	46.42
331.073	32.08
331.286	87.38
331.499	40.28
331.712	-55.98
331.925	101.72
332.138	19.8
332.35	19.8
332.563	32.08
332.776	114
332.989	3.41
333.202	79.19
333.414	56.66
333.627	52.56
333.84	-12.97
334.053	71
334.265	3.41
334.478	105.81
334.691	-31.4
334.903	27.99
335.116	11.61
335.329	21.85
335.541	105.81
335.754	68.95
335.966	40.28
336.179	73.04
336.392	38.23
336.604	-8.87
336.817	-8.87
337.029	48.47
337.242	44.37
337.454	148.82
337.667	7.51
337.88	-0.68
338.092	13.65
338.305	83.28
338.517	58.71
338.729	95.57
338.942	56.66
339.154	-21.16
339.367	-39.59
339.579	52.56
339.792	27.99
340.004	38.23
340.217	52.56
340.429	126.29
340.641	34.13
340.854	44.37
341.066	62.8
341.278	152.92
341.491	85.33
341.703	81.24
341.915	-10.92
342.128	44.37
342.34	-0.68
342.552	97.62
342.764	68.95
342.977	23.89
343.189	89.43
343.401	68.95
343.613	15.7
343.826	15.7
344.038	68.95
344.25	7.51
344.462	19.8
344.674	77.14
344.886	54.61
345.099	58.71
345.311	71
345.523	97.62
345.735	3.41
345.947	13.65
346.159	36.18
346.371	48.47
346.583	27.99
346.795	103.76
347.007	91.48
347.219	85.33
347.431	27.99
347.643	87.38
347.855	27.99
348.067	68.95
348.279	46.42
348.491	60.76
348.703	17.75
348.915	3.41
349.127	-17.07
349.339	91.48
349.551	-21.16
349.763	48.47
349.975	79.19
350.187	32.08
350.399	91.48
350.61	122.2
350.822	11.61
351.034	93.52
351.246	58.71
351.458	-2.73
351.669	44.37
351.881	105.81
352.093	30.04
352.305	95.57
352.517	126.29
352.728	79.19
352.94	34.13
353.152	60.76
353.363	3.41
353.575	77.14
353.787	60.76
353.999	60.76
354.21	27.99
354.422	27.99
354.633	3.41
354.845	1.37
355.057	15.7
355.268	128.34
355.48	68.95
355.692	-37.55
355.903	1.37
356.115	46.42
356.326	-62.12
356.538	85.33
356.749	21.85
356.961	126.29
357.172	46.42
357.384	44.37
357.595	128.34
357.807	36.18
358.018	36.18
358.23	21.85
358.441	50.52
358.653	109.91
358.864	36.18
359.075	68.95
359.287	48.47
359.498	89.43
359.709	68.95
359.921	36.18
360.132	15.7
360.344	81.24
360.555	-8.87
360.766	-12.97
360.977	19.8
361.189	68.95
361.4	-2.73
361.611	62.8
361.823	79.19
362.034	46.42
362.245	27.99
362.456	-10.92
362.667	-0.68
362.879	38.23
363.09	15.7
363.301	60.76
363.512	30.04
363.723	79.19
363.935	19.8
364.146	3.41
364.357	105.81
364.568	85.33
364.779	-37.55
364.99	40.28
365.201	34.13
365.412	87.38
365.623	30.04
365.834	5.46
366.045	-2.73
366.256	44.37
366.467	87.38
366.678	52.56
366.889	54.61
367.1	3.41
367.311	42.32
367.522	79.19
367.733	66.9
367.944	68.95
368.155	7.51
368.366	44.37
368.577	105.81
368.788	11.61
368.999	11.61
369.209	60.76
369.42	105.81
369.631	103.76
369.842	105.81
370.053	13.65
370.264	97.62
370.474	-2.73
370.685	91.48
370.896	36.18
371.107	77.14
371.317	60.76
371.528	38.23
371.739	75.09
371.95	-10.92
372.16	101.72
372.371	126.29
372.582	32.08
372.792	83.28
373.003	44.37
373.214	9.56
373.424	23.89
373.635	-35.5
373.846	103.76
374.056	-33.45
374.267	5.46
374.477	77.14
374.688	36.18
374.898	89.43
375.109	44.37
375.319	79.19
375.53	44.37
375.74	68.95
375.951	105.81
376.161	54.61
376.372	97.62
376.582	-8.87
376.793	85.33
377.003	-29.35
377.214	19.8
377.424	34.13
377.635	64.85
377.845	17.75
378.055	23.89
378.266	30.04
378.476	118.1
378.686	27.99
378.897	17.75
379.107	15.7
379.317	85.33
379.528	-37.55
379.738	52.56
379.948	73.04
380.158	17.75
380.369	27.99
380.579	3.41
380.789	44.37
380.999	87.38
381.21	62.8
381.42	58.71
381.63	23.89
381.84	21.85
382.05	40.28
382.261	87.38
382.471	60.76
382.681	15.7
382.891	148.82
383.101	44.37
383.311	-17.07
383.521	-29.35
383.731	77.14
383.941	101.72
384.151	97.62
384.361	77.14
384.571	38.23
384.781	77.14
384.991	93.52
385.201	85.33
385.411	87.38
385.621	81.24
385.831	91.48
386.041	13.65
386.251	77.14
386.461	118.1
386.671	-10.92
386.881	52.56
387.091	54.61
387.301	93.52
387.511	111.96
387.72	36.18
387.93	101.72
388.14	48.47
388.35	101.72
388.56	56.66
388.769	83.28
388.979	79.19
389.189	34.13
389.399	105.81
389.609	93.52
389.818	60.76
390.028	36.18
390.238	116.05
390.447	60.76
390.657	68.95
390.867	136.53
391.076	19.8
391.286	85.33
391.496	64.85
391.705	126.29
391.915	36.18
392.125	62.8
392.334	77.14
392.544	128.34
392.753	30.04
392.963	52.56
393.172	30.04
393.382	97.62
393.591	97.62
393.801	79.19
394.01	89.43
394.22	89.43
394.429	71
394.639	13.65
394.848	34.13
395.058	109.91
395.267	79.19
395.477	120.15
395.686	107.86
395.895	42.32
396.105	193.87
396.314	109.91
396.524	71
396.733	154.96
396.942	118.1
397.152	42.32
397.361	79.19
397.57	99.67
397.78	107.86
397.989	159.06
398.198	154.96
398.407	73.04
398.617	97.62
398.826	126.29
399.035	87.38
399.244	105.81
399.453	175.44
399.663	64.85
399.872	68.95
400.081	68.95
400.29	111.96
400.499	116.05
400.708	91.48
400.917	68.95
401.127	44.37
401.336	60.76
401.545	134.48
401.754	159.06
401.963	134.48
402.172	56.66
402.381	68.95
402.59	48.47
402.799	77.14
403.008	126.29
403.217	87.38
403.426	132.44
403.635	95.57
403.844	120.15
404.053	144.72
404.262	175.44
404.471	165.2
404.68	187.73
404.888	128.34
405.097	101.72
405.306	109.91
405.515	128.34
405.724	118.1
405.933	138.58
406.142	64.85
406.35	183.63
406.559	126.29
406.768	144.72
406.977	175.44
407.185	263.51
407.394	175.44
407.603	181.59
407.812	191.83
408.02	267.6
408.229	187.73
408.438	218.45
408.646	175.44
408.855	249.17
409.064	202.07
409.272	257.36
409.481	275.79
409.69	261.46
409.898	220.5
410.107	243.03
410.315	245.07
410.524	243.03
410.733	267.6
410.941	322.9
411.15	339.28
411.358	306.51
411.567	380.24
411.775	394.58
411.984	437.58
412.192	300.37
412.401	390.48
412.609	439.63
412.818	466.25
413.026	382.29
413.234	499.02
413.443	347.47
413.651	486.73
413.86	486.73
414.068	539.98
414.276	603.47
414.485	593.23
414.693	650.57
414.901	669
415.11	740.68
415.318	646.48
415.526	638.28
415.734	666.96
415.943	634.19
416.151	783.69
416.359	750.92
416.567	748.87
416.776	695.63
416.984	798.03
417.192	896.33
417.4	902.47
417.608	849.22
417.817	920.9
418.025	1021.25
418.233	1027.4
418.441	994.63
418.649	980.29
418.857	1205.57
419.065	1191.24
419.273	1174.85
419.481	1197.38
419.689	1326.4
419.897	1273.15
420.105	1381.7
420.313	1375.55
420.521	1389.89
420.729	1420.61
420.937	1428.8
421.145	1641.79
421.353	1535.29
421.561	1641.79
421.769	1613.12
421.977	1791.29
422.185	1748.28
422.393	1746.23
422.601	1944.89
422.809	1987.9
423.017	1905.98
423.224	2135.35
423.432	2110.77
423.64	2125.11
423.848	2370.87
424.056	2346.29
424.263	2471.22
424.471	2643.24
424.679	2561.33
424.887	2678.06
425.094	2829.61
425.302	2729.26
425.51	2800.94
425.718	2995.5
425.925	3046.69
426.133	3130.66
426.341	3153.19
426.548	3364.13
426.756	3339.55
426.964	3534.11
427.171	3591.45
427.379	3681.57
427.586	3763.48
427.794	3826.97
428.001	4156.69
428.209	4322.58
428.417	4316.44
428.624	4445.46
428.832	4424.98
429.039	4500.75
429.247	4525.33
429.454	4799.76
429.662	5242.12
429.869	4830.48
430.076	5238.02
430.284	5041.42
430.491	5336.32
430.699	5666.05
430.906	5623.04
431.114	5549.31
431.321	5846.27
431.528	6071.54
431.736	6180.09
431.943	6606.06
432.15	6348.02
432.358	6528.24
432.565	6847.72
432.772	6884.59
432.979	7316.71
433.187	7384.29
433.394	7240.93
433.601	7884
433.808	7628
434.016	7683.3
434.223	8041.69
434.43	8639.7
434.637	8428.76
434.844	8918.22
435.052	9032.91
435.259	9129.16
435.466	9168.07
435.673	8813.77
435.88	9630.91
436.087	10169.53
436.294	10237.11
436.501	9817.28
436.708	10112.19
436.915	10321.08
437.122	11033.77
437.329	10824.88
437.537	11109.55
437.743	11431.08
437.95	11379.88
438.157	11910.3
438.364	12313.75
438.571	12461.21
438.778	12334.23
438.985	13515.91
439.192	13081.74
439.399	13280.39
439.606	12948.62
439.813	13970.56
440.02	14687.35
440.227	14396.54
440.433	14312.57
440.64	14621.81
440.847	14617.72
441.054	15021.17
441.261	15987.81
441.467	15643.75
441.674	16133.22
441.881	16561.24
442.088	16501.85
442.294	16409.69
442.501	16675.93
442.708	17286.22
442.914	17810.5
443.121	18547.77
443.328	17957.96
443.534	19258.42
443.741	18934.84
443.948	18373.69
444.154	19872.81
444.361	19778.6
444.568	19786.79
444.774	20114.47
444.981	19799.08
445.187	20763.67
445.394	21584.91
445.6	21341.2
445.807	23464.94
446.013	22371.33
446.22	22782.97
446.426	23493.61
446.633	23524.33
446.839	24380.39
447.046	23593.97
447.252	24640.48
447.459	25195.48
447.665	24853.47
447.871	25631.69
448.078	26932.15
448.284	25850.83
448.491	26328
448.697	27438
448.903	28410.79
449.11	27796.4
449.316	27730.86
449.522	28189.61
449.728	28855.2
449.935	29434.77
450.141	29027.23
450.347	29821.84
450.553	28851.1
450.76	29064.09
450.966	30088.07
451.172	29858.7
451.378	30913.41
451.584	30628.74
451.791	30722.94
451.997	30782.34
452.203	31316.86
452.409	31261.56
452.615	31214.46
452.821	29944.72
453.027	29688.72
453.233	31392.63
453.44	30380.93
453.646	30831.49
453.852	30569.35
454.058	31189.88
454.264	30231.43
454.47	30942.08
454.676	29916.04
454.882	30964.6
455.088	28375.97
455.294	28875.68
455.5	29621.14
455.705	29604.75
455.911	28556.19
456.117	28087.21
456.323	27354.04
456.529	26219.46
456.735	27216.82
456.941	26620.86
457.147	26274.76
457.352	25467.86
457.558	25213.91
457.764	24957.91
457.97	24933.34
458.176	24572.89
458.381	24267.75
458.587	22746.11
458.793	23397.36
458.999	22043.65
459.204	23192.56
459.41	22520.83
459.616	21427.21
459.821	21212.18
460.027	21279.76
460.233	21031.96
460.438	20024.36
460.644	20118.56
460.85	19065.91
461.055	18695.22
461.261	18906.16
461.466	17359.95
461.672	17067.09
461.878	18017.35
462.083	16741.46
462.289	16675.93
462.494	16362.59
462.7	15627.37
462.905	15238.25
463.111	15715.43
463.316	15977.57
463.522	15490.15
463.727	15776.87
463.932	15363.18
464.138	15426.67
464.343	15445.1
464.549	15172.72
464.754	15602.79
464.959	15156.33
465.165	15215.73
465.37	14548.09
465.575	14417.02
465.781	14855.28
465.986	14718.07
466.191	14099.58
466.397	13999.23
466.602	13464.71
466.807	13794.43
467.012	13747.33
467.218	13724.8
467.423	13581.45
467.628	13687.94
467.833	14083.2
468.038	13888.64
468.244	13479.05
468.449	13849.73
468.654	13315.21
468.859	13210.76
469.064	13137.04
469.269	12749.97
469.474	12881.04
469.679	13173.9
469.885	12700.82
470.09	12979.34
470.295	12725.4
470.5	12604.57
470.705	12512.41
470.91	12364.95
471.115	12203.16
471.32	12487.83
471.525	12131.48
471.73	12072.09
471.935	11816.1
472.139	11480.23
472.344	11797.67
472.549	11447.46
472.754	11504.81
472.959	11205.8
473.164	11162.8
473.369	10912.94
473.574	11336.87
473.778	10984.62
473.983	10972.33
474.188	11201.71
474.393	10409.14
474.598	10636.47
474.802	10482.87
475.007	10572.98
475.212	10439.86
475.417	9911.49
475.621	10007.74
475.826	9972.93
476.031	9817.28
476.235	9729.22
476.44	9952.45
476.645	9567.43
476.849	9686.21
477.054	9456.84
477.259	9551.04
477.463	9340.1
477.668	9237.7
477.872	9202.89
478.077	8989.9
478.282	8746.19
478.486	8883.41
478.691	8764.62
478.895	8873.17
479.1	8658.13
479.304	8768.72
479.509	8441.04
479.713	8688.85
479.918	8393.94
480.122	8045.79
480.326	8373.46
480.531	8277.21
480.735	8269.02
480.94	8279.26
481.144	8457.43
481.348	8056.03
481.553	8240.34
481.757	8088.79
481.961	8205.53
482.166	8314.07
482.37	8205.53
482.574	7900.38
482.778	7914.72
482.983	8269.02
483.187	8023.26
483.391	8330.45
483.595	7961.82
483.8	7877.85
484.004	7967.96
484.208	8053.98
484.412	8080.6
484.616	8008.92
484.821	8039.64
485.025	7949.53
485.229	8109.27
485.433	7998.68
485.637	7859.42
485.841	8008.92
486.045	8142.04
486.249	7972.06
486.453	8002.78
486.657	8031.45
486.861	7976.16
487.065	7728.35
487.269	8090.84
487.473	7859.42
487.677	8002.78
487.881	8221.91
488.085	8080.6
488.289	8164.57
488.493	8002.78
488.697	8035.55
488.901	7927
489.105	8135.9
489.309	8080.6
489.512	8039.64
489.716	8262.87
489.92	7941.34
490.124	8139.99
490.328	8375.51
490.531	8064.22
490.735	8121.56
490.939	8277.21
491.143	8068.31
491.346	8314.07
491.55	8576.21
491.754	8170.71
491.958	8434.9
492.161	8281.3
492.365	8377.56
492.569	8439
492.772	8363.22
492.976	8475.86
493.18	8482
493.383	8637.65
493.587	8705.23
493.79	8899.79
493.994	8701.14
494.197	8670.42
494.401	9034.96
494.605	8920.27
494.808	8989.9
495.012	9071.82
495.215	8940.75
495.419	9055.44
495.622	8946.89
495.825	9407.69
496.029	9258.18
496.232	9620.67
496.436	9325.77
496.639	9481.41
496.843	9575.62
497.046	9800.9
497.249	10013.88
497.453	9792.7
497.656	9952.45
497.859	10032.32
498.063	10110.14
498.266	10413.24
498.469	10398.9
498.673	10443.96
498.876	10587.32
499.079	10702
499.282	10706.1
499.485	10955.95
499.689	11074.73
499.892	11070.64
500.095	11029.68
500.298	11257
500.501	11431.08
500.705	11762.85
500.908	11592.87
501.111	11908.26
501.314	12088.48
501.517	12192.92
501.72	12428.44
501.923	12190.88
502.126	12567.7
502.329	12717.2
502.532	12958.86
502.735	12805.27
502.938	13102.22
503.141	13212.81
503.344	13397.13
503.547	13180.04
503.75	13649.03
503.953	13759.62
504.156	13743.24
504.359	13845.63
504.562	14267.52
504.765	14236.8
504.968	14283.9
505.17	14451.83
505.373	14748.79
505.576	15068.27
505.779	14926.96
505.982	15146.09
506.185	15531.11
506.387	15719.53
506.59	15731.81
506.793	16039.01
506.996	15889.51
507.198	16395.36
507.401	16321.63
507.604	16643.16
507.807	16751.7
508.009	16784.47
508.212	17110.1
508.415	17153.1
508.617	17280.08
508.82	17601.61
509.022	17405
509.225	17755.21
509.428	17792.07
509.63	18076.74
509.833	18416.7
510.035	18748.47
510.238	18484.28
510.44	18916.4
510.643	19096.63
510.845	19225.65
511.048	19242.03
511.25	19653.67
511.453	19608.62
511.655	20397.09
511.858	20130.85
512.06	20349.98
512.262	20384.8
512.465	20587.55
512.667	20866.07
512.87	21034
513.072	20915.22
513.274	21574.67
513.477	21869.58
513.679	21969.93
513.881	21900.3
514.084	22557.69
514.286	22465.53
514.488	22520.83
514.69	23462.9
514.893	23170.04
515.095	23073.78
515.297	23544.81
515.499	23669.74
515.701	24056.81
515.904	24108.01
516.106	24099.81
516.308	24587.23
516.51	24945.62
516.712	24996.82
516.914	25392.08
517.116	25406.42
517.318	25484.24
517.52	25672.65
517.722	26186.69
517.925	26201.03
518.127	26758.08
518.329	26796.99
518.531	26446.79
518.733	27028.41
518.935	27476.91
519.136	27395
519.338	27890.6
519.54	27855.79
519.742	28330.92
519.944	28136.36
520.146	28634.02
520.348	28787.61
520.55	29019.03
520.752	29164.44
520.954	29631.38
521.155	29725.58
521.357	29903.76
521.559	30067.59
521.761	30512
521.963	30419.85
522.164	30763.9
522.366	30755.71
522.568	31433.59
522.77	31449.97
522.971	31546.23
523.173	31736.69
523.375	31890.29
523.576	31644.53
523.778	31964.01
523.98	32609.12
524.181	32361.32
524.383	32725.86
524.584	33182.55
524.786	32848.74
524.988	32772.96
525.189	33287
525.391	33551.19
525.592	33833.81
525.794	33698.64
525.995	33624.92
526.197	33864.53
526.398	34044.75
526.6	34413.38
526.801	34333.51
527.003	34382.66
527.204	34483.02
527.406	34892.61
527.607	35109.69
527.808	34880.32
528.01	34548.55
528.211	35044.16
528.412	35734.32
528.614	35423.03
528.815	35640.12
529.016	35603.25
529.218	35547.96
529.419	35857.2
529.62	35879.73
529.822	35896.11
530.023	35844.91
530.224	35806
530.425	36027.18
530.626	36100.91
530.828	35681.08
531.029	36252.46
531.23	36201.26
531.431	36307.76
531.632	36428.59
531.833	36522.79
532.035	36035.38
532.236	36477.74
532.437	36858.66
532.638	36678.44
532.839	36975.39
533.04	36279.08
533.241	36203.31
533.442	37255.96
533.643	36600.61
533.844	36715.3
534.045	36918.05
534.246	36252.46
534.447	36639.53
534.648	36901.67
534.849	36961.06
535.05	36416.3
535.251	36737.83
535.451	36846.37
535.652	36940.58
535.853	36727.59
536.054	36733.73
536.255	37090.08
536.456	36592.42
536.657	37337.88
536.857	36686.63
537.058	36741.92
537.259	36893.47
537.46	36727.59
537.66	36539.18
537.861	36727.59
538.062	36905.76
538.263	36682.53
538.463	36578.09
538.664	36872.99
538.865	37028.64
539.065	36938.53
539.266	36490.02
539.466	36907.81
539.667	36600.61
539.868	36821.8
540.068	36698.92
540.269	36836.13
540.469	36698.92
540.67	36504.36
540.87	36447.02
541.071	36754.21
541.271	36936.48
541.472	36492.07
541.672	36674.34
541.873	36506.41
542.073	36289.32
542.274	36827.94
542.474	36662.05
542.675	36561.7
542.875	36752.16
543.075	36889.38
543.276	36186.93
543.476	37061.41
543.676	36313.9
543.877	36553.51
544.077	36543.27
544.277	36313.9
544.478	36334.38
544.678	36705.06
544.878	36678.44
545.078	36578.09
545.279	36457.26
545.479	36115.25
545.679	36471.59
545.879	36223.79
546.079	36260.65
546.28	35949.36
546.48	36182.83
546.68	36152.11
546.88	36434.73
547.08	36385.58
547.28	36078.38
547.48	36178.73
547.68	36268.84
547.88	35883.83
548.081	36420.39
548.281	36109.1
548.481	35957.55
548.681	36391.72
548.881	36379.43
549.081	36494.12
549.28	36481.83
549.48	36344.62
549.68	36348.71
549.88	36664.1
550.08	36018.99
550.28	36227.88
550.48	36442.92
550.68	36410.15
550.88	35838.77
551.08	35969.84
551.279	36016.94
551.479	35752.76
551.679	36268.84
551.879	35697.46
552.079	36385.58
552.278	35756.85
552.478	36309.8
552.678	36119.34
552.878	36074.29
553.077	35742.52
553.277	35576.63
553.477	36207.4
553.676	35865.39
553.876	35855.15
554.076	35953.46
554.275	35734.32
554.475	35672.88
554.674	35900.21
554.874	35922.74
555.074	35552.05
555.273	35566.39
555.473	35683.12
555.672	35382.07
555.872	35480.38
556.071	35658.55
556.271	35889.97
556.47	35533.62
556.67	35044.16
556.869	35474.23
557.068	35418.94
557.268	34949.95
557.467	35441.46
557.667	35205.95
557.866	35343.16
558.065	35386.17
558.265	35031.87
558.464	34898.75
558.663	34972.48
558.863	34751.3
559.062	35267.39
559.261	34702.15
559.461	34896.7
559.66	34632.52
559.859	34995.01
560.058	34788.16
560.258	34868.03
560.457	34421.58
560.656	34677.57
560.855	34091.85
561.054	34886.46
561.253	34057.04
561.453	34616.13
561.652	34337.61
561.851	34708.29
562.05	34265.93
562.249	33590.1
562.448	34448.2
562.647	34216.78
562.846	34173.77
563.045	33919.82
563.244	33741.65
563.443	33940.3
563.642	33411.93
563.841	33465.17
564.04	33704.79
564.239	33899.34
564.438	33721.17
564.637	33700.69
564.836	33583.96
565.035	32930.65
565.234	33397.59
565.432	33356.63
565.631	33123.16
565.83	33719.12
566.029	33002.33
566.228	32688.99
566.427	33047.39
566.625	32955.23
566.824	32797.54
567.023	32715.62
567.222	32187.24
567.42	32553.83
567.619	32711.52
567.818	32559.97
568.016	32463.72
568.215	32672.61
568.414	32406.37
568.612	32498.53
568.811	31808.37
569.01	32535.4
569.208	31607.67
569.407	32062.32
569.605	31144.83
569.804	31871.85
570.002	31398.77
570.201	31871.85
570.4	31409.01
570.598	31089.53
570.797	31097.72
570.995	31622
571.193	30987.13
571.392	31400.82
571.59	31024
571.789	30993.28
571.987	30657.41
572.186	30862.21
572.384	30856.06
572.582	30624.64
572.781	30737.28
572.979	30583.68
573.177	30909.31
573.376	30585.73
573.574	30245.77
573.772	30485.38
573.971	30278.54
574.169	29957
574.367	29774.74
574.565	30135.18
574.763	29862.8
574.962	29932.43
575.16	29531.03
575.358	30038.92
575.556	29227.93
575.754	29744.02
575.952	29424.53
576.151	29721.49
576.349	29309.85
576.547	28808.09
576.745	29023.13
576.943	29160.34
577.141	28623.78
577.339	29057.95
577.537	28906.4
577.735	29037.47
577.933	28941.21
578.131	28982.17
578.329	28732.32
578.527	28310.44
578.725	28638.11
578.923	28765.09
579.121	28046.25
579.319	28316.58
579.516	28191.66
579.714	28068.78
579.912	28306.34
580.11	28013.48
580.308	27845.55
580.506	28058.54
580.704	27739.05
580.901	27794.35
581.099	27687.85
581.297	27456.43
581.495	27349.94
581.692	27650.99
581.89	27491.25
582.088	27399.09
582.285	27005.88
582.483	27476.91
582.681	27220.92
582.878	26551.23
583.076	26917.82
583.274	26899.39
583.471	26880.96
583.669	27081.66
583.866	26444.74
584.064	26850.24
584.262	26297.28
584.459	26094.54
584.657	26670.01
584.854	26565.57
585.052	26057.67
585.249	26166.21
585.447	26348.48
585.644	25895.88
585.841	26241.99
586.039	26534.85
586.236	25711.56
586.434	25916.36
586.631	25594.83
586.828	25668.56
587.026	25471.95
587.223	25490.38
587.42	25191.38
587.618	25136.09
587.815	25019.35
588.012	25078.74
588.21	25005.02
588.407	25396.18
588.604	24718.3
588.801	24931.29
588.999	25039.83
589.196	24755.16
589.393	24732.64
589.59	24667.1
589.787	24646.62
589.984	24488.93
590.182	24155.11
590.379	24703.96
590.576	24300.51
590.773	24208.36
590.97	24038.37
591.167	24320.99
591.364	24058.85
591.561	23972.84
591.758	23798.76
591.955	23763.95
592.152	24054.76
592.349	23743.47
592.546	23608.3
592.743	23856.11
592.94	23198.71
593.137	23653.36
593.334	23673.84
593.531	23346.16
593.727	23280.63
593.924	23053.3
594.121	23008.25
594.318	23008.25
594.515	22862.84
594.712	22909.94
594.908	22758.39
595.105	23247.86
595.302	22565.88
595.499	22789.11
595.696	22623.23
595.892	22617.08
596.089	22512.64
596.286	22420.48
596.482	22305.79
596.679	22340.61
596.876	22277.12
597.072	22250.5
597.269	22004.74
597.466	21879.82
597.662	22082.56
597.859	21945.35
598.055	21795.85
598.252	21519.37
598.448	21736.46
598.645	21492.75
598.841	21236.75
599.038	21576.72
599.234	21484.56
599.431	21023.76
599.627	21048.34
599.824	21302.29
600.02	21042.2
600.217	21117.97
600.413	21130.26
600.609	21093.4
600.806	21187.6
601.002	21025.81
601.198	20755.48
601.395	20890.65
601.591	20622.36
601.787	20433.95
601.984	20405.28
602.18	20601.88
602.376	20493.34
602.572	20407.33
602.769	20472.86
602.965	20007.97
603.161	20126.75
603.357	20313.12
603.553	20083.75
603.75	20130.85
603.946	19778.6
604.142	20050.98
604.338	19610.67
604.534	19792.94
604.73	19629.1
604.926	19561.51
605.122	19614.76
605.318	19590.19
605.514	19555.37
605.71	19272.75
605.906	19323.95
606.102	19303.47
606.298	19452.97
606.494	19067.95
606.69	19088.43
606.886	19151.92
607.082	18953.27
607.278	19149.87
607.474	18924.6
607.67	18961.46
607.866	18807.86
608.062	18920.5
608.257	18781.24
608.453	18947.12
608.649	18940.98
608.845	18609.21
609.041	18590.78
609.236	18674.74
609.432	18555.96
609.628	18494.52
609.824	18527.29
610.019	18414.65
610.215	18316.35
610.411	18295.87
610.606	18205.76
610.802	18299.97
610.998	18103.36
611.193	17964.1
611.389	17906.76
611.584	18199.62
611.78	17808.45
611.976	18021.44
612.171	18009.15
612.367	17730.63
612.562	17927.24
612.758	17812.55
612.953	17736.77
613.149	17669.19
613.344	17863.75
613.539	17980.48
613.735	17810.5
613.93	17800.26
614.126	17462.35
614.321	17650.76
614.517	17712.2
614.712	17419.34
614.907	17435.72
615.103	17327.18
615.298	17241.17
615.493	17484.87
615.688	17189.97
615.884	17652.81
616.079	17048.66
616.274	17245.26
616.47	17329.23
616.665	17040.47
616.86	16936.02
617.055	17187.92
617.25	17042.51
617.445	17216.59
617.641	16878.68
617.836	17050.71
618.031	16669.78
618.226	17042.51
618.421	16925.78
618.616	16710.74
618.811	16307.29
619.006	16770.13
619.201	16485.47
619.396	16348.25
619.591	16215.13
619.786	16526.43
619.981	16268.38
620.176	16362.59
620.371	16049.25
620.566	15985.76
620.761	15840.36
620.956	15965.28
621.151	16082.02
621.346	15977.57
621.541	15357.03
621.735	15643.75
621.93	15381.61
622.125	15432.81
622.32	15258.73
622.515	15193.2
622.709	15264.88
622.904	15244.4
623.099	15131.76
623.294	15234.16
623.488	14988.4
623.683	14957.68
623.878	14462.07
624.072	14726.26
624.267	14799.99
624.462	14584.95
624.656	14425.21
624.851	14181.5
625.046	14347.39
625.24	14345.34
625.435	14191.74
625.629	14414.97
625.824	14167.17
626.018	13902.98
626.213	13591.69
626.407	13962.37
626.602	13440.14
626.796	13618.31
626.991	13718.66
627.185	13528.2
627.38	13620.36
627.574	13382.79
627.768	13245.58
627.963	13370.51
628.157	13145.23
628.352	13247.63
628.546	12895.38
628.74	12862.61
628.935	12983.44
629.129	12971.15
629.323	12690.58
629.517	12676.24
629.712	12661.91
629.906	12520.6
630.1	12465.3
630.294	12553.37
630.489	12260.51
630.683	12434.58
630.877	11943.07
631.071	12184.73
631.265	12180.64
631.459	12043.42
631.653	12178.59
631.848	12094.62
632.042	12014.75
632.236	12024.99
632.43	11513
632.624	11562.15
632.818	11644.07
633.012	11453.61
633.206	11324.58
633.4	11529.38
633.594	11273.39
633.788	11406.5
633.982	11289.77
634.176	11220.14
634.369	11146.41
634.563	11134.12
634.757	11001.01
634.951	11078.83
635.145	11044.01
635.339	10898.61
635.533	10755.25
635.726	10835.12
635.92	10751.15
636.114	10800.3
636.308	10544.31
636.501	10568.88
636.695	10622.13
636.889	10468.53
637.083	10214.59
637.276	10210.49
637.47	10140.86
637.664	10093.76
637.857	10163.39
638.051	10142.91
638.244	9981.12
638.438	10247.35
638.632	9950.4
638.825	9925.82
639.019	9905.34
639.212	9784.51
639.406	9641.15
639.599	9901.25
639.793	9632.96
639.986	9608.39
640.18	9751.74
640.373	9493.7
640.567	9526.47
640.76	9452.74
640.954	9426.12
641.147	9215.18
641.34	9274.57
641.534	9235.66
641.727	9309.38
641.92	9047.24
642.114	8924.37
642.307	9075.91
642.5	8768.72
642.694	8862.93
642.887	8684.75
643.08	8912.08
643.273	8891.6
643.467	8719.57
643.66	8670.42
643.853	8533.2
644.046	8531.16
644.239	8615.12
644.432	8408.28
644.626	8301.78
644.819	8402.13
645.012	8250.58
645.205	8338.65
645.398	8154.33
645.591	8066.27
645.784	8230.1
645.977	8133.85
646.17	8096.99
646.363	7957.72
646.556	7965.92
646.749	8092.89
646.942	7994.59
647.135	7787.74
647.328	7820.51
647.521	7818.46
647.714	7818.46
647.907	7871.71
648.099	7572.71
648.292	7595.23
648.485	7539.94
648.678	7410.92
648.871	7378.15
649.064	7507.17
649.256	7439.59
649.449	7290.09
649.642	7341.29
649.835	7238.89
650.027	7312.61
650.22	7181.54
650.413	7011.56
650.605	7279.85
650.798	7238.89
650.991	7075.05
651.183	7179.5
651.376	7050.47
651.568	6970.6
651.761	7083.24
651.954	6837.48
652.146	6966.51
652.339	6767.85
652.531	6921.45
652.724	6724.85
652.916	6771.95
653.109	6518
653.301	6722.8
653.494	6765.81
653.686	6712.56
653.879	6601.97
654.071	6544.63
654.263	6622.45
654.456	6616.3
654.648	6382.84
654.84	6343.92
655.033	6335.73
655.225	6513.91
655.417	6223.09
655.61	6356.21
655.802	6143.22
655.994	6163.7
656.186	6173.94
656.379	6114.55
656.571	6116.6
656.763	6139.13
656.955	5999.87
657.148	6073.59
657.34	5975.29
657.532	5975.29
657.724	5838.08
657.916	5924.09
658.108	5876.99
658.3	5985.53
658.492	5809.4
658.684	5737.73
658.876	5688.57
659.068	5702.91
659.26	5616.9
659.452	5786.88
659.644	5731.58
659.836	5573.89
660.028	5637.38
660.22	5500.16
660.412	5498.11
660.604	5516.55
660.796	5584.13
660.988	5467.39
661.18	5319.94
661.372	5336.32
661.563	5436.67
661.755	5342.47
661.947	5473.54
662.139	5115.14
662.331	5268.74
662.522	5311.75
662.714	5348.61
662.906	5135.62
663.097	5227.78
663.289	4984.07
663.481	5143.81
663.673	5164.29
663.864	5031.18
664.056	4971.79
664.247	5027.08
664.439	5029.13
664.631	4959.5
664.822	4936.97
665.014	4893.96
665.205	5027.08
665.397	4998.41
665.588	4859.15
665.78	4844.81
665.971	4766.99
666.163	4766.99
666.354	4730.13
666.546	4730.13
666.737	4857.1
666.929	4660.49
667.12	4814.09
667.311	4568.34
667.503	4652.3
667.694	4562.19
667.885	4582.67
668.077	4551.95
668.268	4592.91
668.459	4476.18
668.651	4570.38
668.842	4566.29
669.033	4545.81
669.224	4314.39
669.416	4566.29
669.607	4474.13
669.798	4298
669.989	4302.1
670.18	4152.6
670.371	4328.72
670.563	4281.62
670.754	4328.72
670.945	4334.87
671.136	4146.45
671.327	4214.04
671.518	4201.75
671.709	4156.69
671.9	4304.15
672.091	4242.71
672.282	4017.43
672.473	4074.78
672.664	4183.32
672.855	3986.71
673.046	4132.12
673.237	4214.04
673.428	4115.73
673.619	4105.49
673.809	4152.6
674	4175.13
674.191	4027.67
674.382	3986.71
674.573	4023.58
674.764	4125.97
674.954	4168.98
675.145	3951.9
675.336	3906.84
675.527	4078.87
675.717	3982.62
675.908	3896.6
676.099	3878.17
676.289	3939.61
676.48	3765.53
676.671	3929.37
676.861	3857.69
677.052	3863.83
677.243	3906.84
677.433	3798.3
677.624	3990.81
677.814	3757.34
678.005	3837.21
678.195	3886.36
678.386	3837.21
678.576	3779.87
678.767	3853.59
678.957	3747.1
679.148	3765.53
679.338	3781.92
679.529	3730.72
679.719	3702.04
679.909	3734.81
680.1	3683.61
680.29	3820.83
680.481	3730.72
680.671	3726.62
680.861	3722.52
681.052	3837.21
681.242	3704.09
681.432	3689.76
681.622	3847.45
681.813	3677.47
682.003	3779.87
682.193	3710.24
682.383	3740.96
682.573	3558.69
682.764	3659.04
682.954	3706.14
683.144	3763.48
683.334	3601.69
683.524	3632.41
683.714	3693.85
683.904	3628.32
684.094	3495.2
684.284	3718.43
684.474	3659.04
684.664	3609.89
684.854	3534.11
685.044	3599.65
685.234	3564.83
685.424	3493.15
685.614	3575.07
685.804	3585.31
685.994	3538.21
686.184	3616.03
686.374	3452.19
686.564	3452.19
686.753	3489.06
686.943	3413.28
687.133	3364.13
687.323	3452.19
687.513	3357.99
687.702	3538.21
687.892	3360.03
688.082	3425.57
688.272	3435.81
688.461	3317.03
688.651	3329.31
688.841	3263.78
689.03	3284.26
689.22	3319.07
689.41	3202.34
689.599	3226.92
689.789	3274.02
689.979	3206.44
690.168	3058.98
690.358	3233.06
690.547	3198.24
690.737	3249.44
690.926	3216.68
691.116	3179.81
691.305	3116.33
691.495	3054.89
691.684	3099.94
691.874	3134.76
692.063	3083.56
692.252	3061.03
692.442	3142.95
692.631	3052.84
692.82	3020.07
693.01	2977.06
693.199	2993.45
693.388	2927.91
693.578	2901.29
693.767	2970.92
693.956	2845.99
694.146	2997.54
694.335	2989.35
694.524	2960.68
694.713	2841.9
694.902	2905.39
695.092	2946.34
695.281	2874.67
695.47	2960.68
695.659	2956.58
695.848	2788.65
696.037	2762.03
696.226	2874.67
696.415	2936.1
696.604	2747.69
696.793	2860.33
696.982	2821.42
697.171	2698.54
697.36	2858.28
697.549	2805.03
697.738	2870.57
697.927	2641.2
698.116	2723.12
698.305	2837.8
698.494	2848.04
698.683	2821.42
698.872	2819.37
699.061	2788.65
699.25	2714.92
699.438	2637.1
699.627	2663.72
699.816	2749.74
700.005	2657.58
700.193	2731.31
700.382	2694.44
700.571	2743.6
700.76	2585.9
700.948	2790.7
701.137	2684.2
701.326	2684.2
701.514	2610.48
701.703	2698.54
701.892	2723.12
702.08	2575.66
702.269	2708.78
702.457	2616.62
702.646	2587.95
702.834	2723.12
703.023	2616.62
703.212	2618.67
703.4	2731.31
703.589	2678.06
703.777	2600.24
703.965	2546.99
704.154	2610.48
704.342	2600.24
704.531	2618.67
704.719	2563.37
704.907	2684.2
705.096	2467.12
705.284	2669.87
705.472	2676.01
705.661	2592.05
705.849	2751.79
706.037	2514.22
706.226	2616.62
706.414	2635.05
706.602	2620.72
706.79	2702.64
706.979	2673.96
707.167	2583.85
707.355	2624.81
707.543	2604.33
707.731	2653.48
707.919	2458.93
708.107	2503.98
708.296	2604.33
708.484	2520.37
708.672	2704.68
708.86	2604.33
709.048	2626.86
709.236	2600.24
709.424	2585.9
709.612	2680.11
709.8	2608.43
709.988	2673.96
710.176	2600.24
710.364	2520.37
710.551	2596.14
710.739	2682.16
710.927	2546.99
711.115	2598.19
711.303	2571.57
711.491	2616.62
711.679	2643.24
711.866	2624.81
712.054	2577.71
712.242	2626.86
712.43	2604.33
712.617	2561.33
712.805	2520.37
712.993	2485.55
713.181	2397.49
713.368	2546.99
713.556	2518.32
713.744	2405.68
713.931	2561.33
714.119	2569.52
714.306	2546.99
714.494	2534.7
714.682	2567.47
714.869	2514.22
715.057	2583.85
715.244	2555.18
715.432	2643.24
715.619	2583.85
715.807	2471.22
715.994	2602.29
716.182	2604.33
716.369	2534.7
716.556	2626.86
716.744	2493.74
716.931	2436.4
717.119	2534.7
717.306	2682.16
717.493	2641.2
717.681	2608.43
717.868	2542.89
718.055	2596.14
718.242	2532.65
718.43	2575.66
718.617	2739.5
718.804	2454.83
718.991	2559.28
719.179	2559.28
719.366	2600.24
719.553	2530.61
719.74	2594.09
719.927	2583.85
720.114	2534.7
720.301	2551.09
720.488	2583.85
720.676	2567.47
720.863	2503.98
721.05	2637.1
721.237	2546.99
721.424	2583.85
721.611	2479.41
721.798	2602.29
721.985	2526.51
722.172	2583.85
722.358	2630.96
722.545	2565.42
722.732	2362.67
722.919	2655.53
723.106	2485.55
723.293	2493.74
723.48	2581.81
723.667	2501.94
723.853	2546.99
724.04	2489.65
724.227	2602.29
724.414	2579.76
724.6	2497.84
724.787	2512.18
724.974	2616.62
725.161	2524.46
725.347	2432.3
725.534	2579.76
725.72	2606.38
725.907	2506.03
726.094	2649.39
726.28	2483.5
726.467	2555.18
726.653	2561.33
726.84	2628.91
727.027	2635.05
727.213	2469.17
727.4	2460.98
727.586	2565.42
727.773	2618.67
727.959	2516.27
728.145	2569.52
728.332	2463.02
728.518	2477.36
728.705	2536.75
728.891	2592.05
729.077	2503.98
729.264	2596.14
729.45	2555.18
729.636	2563.37
729.823	2356.53
730.009	2624.81
730.195	2657.58
730.382	2606.38
730.568	2526.51
730.754	2493.74
730.94	2485.55
731.126	2596.14
731.313	2540.85
731.499	2536.75
731.685	2530.61
731.871	2526.51
732.057	2542.89
732.243	2534.7
732.429	2544.94
732.615	2661.68
732.801	2487.6
732.987	2559.28
733.173	2536.75
733.359	2592.05
733.545	2506.03
733.731	2567.47
733.917	2501.94
734.103	2567.47
734.289	2551.09
734.475	2477.36
734.661	2587.95
734.847	2569.52
735.033	2583.85
735.219	2540.85
735.404	2481.46
735.59	2585.9
735.776	2503.98
735.962	2516.27
736.148	2577.71
736.333	2694.44
736.519	2540.85
736.705	2469.17
736.89	2473.26
737.076	2463.02
737.262	2428.21
737.447	2501.94
737.633	2483.5
737.819	2520.37
738.004	2428.21
738.19	2479.41
738.375	2422.06
738.561	2534.7
738.747	2444.59
738.932	2403.63
739.118	2458.93
739.303	2567.47
739.489	2549.04
739.674	2362.67
739.859	2395.44
740.045	2391.34
740.23	2346.29
740.416	2432.3
740.601	2354.48
740.786	2422.06
740.972	2411.82
741.157	2280.75
741.342	2325.81
741.528	2440.5
741.713	2372.91
741.898	2403.63
742.084	2307.38
742.269	2301.23
742.454	2311.47
742.639	2336.05
742.824	2340.15
743.01	2342.19
743.195	2307.38
743.38	2243.89
743.565	2264.37
743.75	2247.99
743.935	2307.38
744.12	2411.82
744.305	2305.33
744.49	2338.1
744.675	2340.15
744.86	2182.45
745.045	2334
745.23	2137.4
745.415	2280.75
745.6	2190.64
745.785	2061.62
745.97	2161.97
746.155	2104.63
746.34	2182.45
746.525	2176.31
746.71	2131.25
746.895	1996.09
747.079	2184.5
747.264	2207.03
747.449	2190.64
747.634	2153.78
747.819	2069.81
748.003	1957.18
748.188	2086.2
748.373	2028.85
748.557	2000.18
748.742	2100.53
748.927	1969.46
749.111	2022.71
749.296	1985.85
749.481	1987.9
749.665	2008.37
749.85	1969.46
750.034	1987.9
750.219	1877.3
750.404	1895.74
750.588	1879.35
750.773	1873.21
750.957	1785.15
751.141	1848.63
751.326	1922.36
751.51	1844.54
751.695	1754.43
751.879	1787.19
752.064	1979.7
752.248	1815.87
752.432	1867.06
752.617	1676.6
752.801	1721.66
752.985	1674.56
753.17	1738.04
753.354	1731.9
753.538	1674.56
753.722	1684.8
753.907	1539.39
754.091	1572.16
754.275	1660.22
754.459	1692.99
754.643	1547.58
754.828	1576.25
755.012	1514.81
755.196	1488.19
755.38	1570.11
755.564	1504.57
755.748	1570.11
755.932	1529.15
756.116	1461.57
756.3	1518.91
756.484	1570.11
756.668	1441.09
756.852	1439.04
757.036	1477.95
757.22	1400.13
757.404	1477.95
757.588	1443.14
757.772	1504.57
757.956	1490.24
758.14	1344.83
758.323	1367.36
758.507	1434.94
758.691	1338.69
758.875	1332.55
759.059	1465.66
759.242	1357.12
759.426	1316.16
759.61	1348.93
759.794	1363.26
759.977	1305.92
760.161	1373.5
760.345	1320.26
760.528	1281.35
760.712	1355.07
760.895	1363.26
761.079	1242.43
761.263	1174.85
761.446	1166.66
761.63	1310.02
761.813	1273.15
761.997	1185.09
762.18	1264.96
762.364	1269.06
762.547	1166.66
762.731	1152.32
762.914	1211.71
763.098	1203.52
763.281	1115.46
763.464	1162.56
763.648	1183.04
763.831	1152.32
764.015	1264.96
764.198	1109.32
764.381	1142.08
764.564	1166.66
764.748	1181
764.931	1187.14
765.114	1183.04
765.297	1058.12
765.481	1123.65
765.664	1226.05
765.847	1021.25
766.03	1142.08
766.213	1062.21
766.397	1142.08
766.58	1051.97
766.763	1144.13
766.946	1080.64
767.129	1051.97
767.312	957.77
767.495	1023.3
767.678	1019.21
767.861	994.63
768.044	1023.3
768.227	998.73
768.41	984.39
768.593	1092.93
768.776	998.73
768.959	990.53
769.142	1011.01
769.324	1039.69
769.507	1051.97
769.69	988.49
769.873	968.01
770.056	994.63
770.239	939.34
770.421	992.58
770.604	986.44
770.787	933.19
770.97	990.53
771.152	1045.83
771.335	939.34
771.518	834.89
771.7	1011.01
771.883	980.29
772.066	916.81
772.248	914.76
772.431	898.38
772.613	890.18
772.796	771.4
772.978	847.18
773.161	935.24
773.343	802.12
773.526	818.5
773.708	851.27
773.891	920.9
774.073	849.22
774.256	800.07
774.438	896.33
774.621	855.37
774.803	757.07
774.985	800.07
775.168	806.22
775.35	791.88
775.532	859.46
775.715	808.27
775.897	773.45
776.079	742.73
776.261	830.79
776.444	767.31
776.626	742.73
776.808	716.11
776.99	675.15
777.173	720.2
777.355	748.87
777.537	785.74
777.719	691.53
777.901	724.3
778.083	697.67
778.265	636.24
778.447	830.79
778.629	644.43
778.811	730.44
778.993	732.49
779.175	660.81
779.357	691.53
779.539	636.24
779.721	734.54
779.903	595.28
780.085	644.43
780.267	585.04
780.449	587.08
780.631	732.49
780.812	628.04
780.994	580.94
781.176	685.39
781.358	664.91
781.54	638.28
781.721	712.01
781.903	728.39
782.085	597.32
782.267	683.34
782.448	582.99
782.63	611.66
782.812	552.27
782.993	560.46
783.175	568.65
783.357	619.85
783.538	646.48
783.72	546.13
783.901	564.56
784.083	523.6
784.264	537.93
784.446	474.45
784.627	478.54
784.809	570.7
784.99	582.99
785.172	537.93
785.353	552.27
785.535	476.49
785.716	539.98
785.897	564.56
786.079	531.79
786.26	449.87
786.441	476.49
786.623	410.96
786.804	511.31
786.985	519.5
787.167	482.64
787.348	464.21
787.529	550.22
787.71	480.59
787.891	474.45
788.073	376.14
788.254	435.53
788.435	458.06
788.616	433.49
788.797	417.1
788.978	496.97
789.159	439.63
789.34	441.68
789.522	404.82
789.703	339.28
789.884	472.4
790.065	480.59
790.246	404.82
790.427	382.29
790.607	472.4
790.788	392.53
790.969	382.29
791.15	396.62
791.331	486.73
791.512	370
791.693	363.86
791.874	326.99
792.054	347.47
792.235	445.77
792.416	382.29
792.597	396.62
792.778	329.04
792.958	374.1
793.139	329.04
793.32	294.22
793.5	265.55
793.681	361.81
793.862	425.29
794.042	343.38
794.223	406.86
794.404	339.28
794.584	398.67
794.765	275.79
794.945	324.94
795.126	339.28
795.306	349.52
795.487	322.9
795.667	304.46
795.848	331.09
796.028	339.28
796.209	335.18
796.389	204.11
796.57	283.99
796.75	308.56
796.93	406.86
797.111	302.42
797.291	283.99
797.471	281.94
797.652	329.04
797.832	255.31
798.012	304.46
798.192	243.03
798.373	298.32
798.553	324.94
798.733	279.89
798.913	298.32
799.093	277.84
799.274	312.66
799.454	247.12
799.634	267.6
799.814	210.26
799.994	236.88
800.174	331.09
800.354	261.46
800.534	208.21
800.714	335.18
800.894	294.22
801.074	290.13
801.254	216.4
801.434	251.22
801.614	222.55
801.794	216.4
801.974	800.07
802.154	283.99
802.334	320.85
802.514	208.21
802.693	292.18
802.873	294.22
803.053	316.75
803.233	224.59
803.413	269.65
803.592	273.75
803.772	251.22
803.952	216.4
804.131	212.31
804.311	245.07
804.491	265.55
804.67	208.21
804.85	257.36
805.03	267.6
805.209	216.4
805.389	304.46
805.568	240.98
805.748	195.92
805.928	159.06
806.107	189.78
806.287	232.79
806.466	185.68
806.646	212.31
806.825	195.92
807.004	273.75
807.184	257.36
807.363	191.83
807.543	208.21
807.722	183.63
807.901	193.87
808.081	218.45
808.26	157.01
808.439	204.11
808.619	208.21
808.798	159.06
808.977	197.97
809.156	226.64
809.336	144.72
809.515	298.32
809.694	191.83
809.873	232.79
810.052	232.79
810.231	150.87
810.411	154.96
810.59	283.99
810.769	167.25
810.948	175.44
811.127	142.68
811.306	177.49
811.485	173.39
811.664	234.83
811.843	181.59
812.022	263.51
812.201	142.68
812.38	193.87
812.559	163.15
812.737	208.21
812.916	85.33
813.095	122.2
813.274	144.72
813.453	216.4
813.632	116.05
813.811	345.42
813.989	171.35
814.168	236.88
814.347	89.43
814.526	150.87
814.704	232.79
814.883	154.96
815.062	138.58
815.24	154.96
815.419	142.68
815.598	154.96
815.776	169.3
815.955	109.91
816.133	89.43
816.312	154.96
816.49	111.96
816.669	195.92
816.847	161.11
817.026	200.02
817.204	95.57
817.383	101.72
817.561	157.01
817.74	171.35
817.918	171.35
818.097	134.48
818.275	173.39
818.453	144.72
818.632	234.83
818.81	159.06
818.988	68.95
819.167	150.87
819.345	124.24
819.523	85.33
819.701	120.15
819.879	210.26
820.058	134.48
820.236	142.68
820.414	62.8
820.592	157.01
820.77	109.91
820.948	142.68
821.127	140.63
821.305	159.06
821.483	146.77
821.661	159.06
821.839	152.92
822.017	38.23
822.195	81.24
822.373	163.15
822.551	128.34
822.729	124.24
822.907	154.96
823.085	159.06
823.262	191.83
823.44	85.33
823.618	68.95
823.796	195.92
823.974	83.28
824.152	62.8
824.329	126.29
824.507	122.2
824.685	159.06
824.863	52.56
825.04	181.59
825.218	95.57
825.396	87.38
825.574	130.39
825.751	126.29
825.929	46.42
826.107	93.52
826.284	126.29
826.462	89.43
826.639	154.96
826.817	52.56
826.994	101.72
827.172	-10.92
827.349	128.34
827.527	85.33
827.704	77.14
827.882	114
828.059	159.06
828.237	107.86
828.414	195.92
828.591	64.85
828.769	11.61
828.946	183.63
829.124	154.96
829.301	150.87
829.478	118.1
829.655	114
829.833	140.63
830.01	30.04
830.187	249.17
830.364	101.72
830.542	103.76
830.719	93.52
830.896	85.33
831.073	73.04
831.25	134.48
831.427	154.96
831.604	62.8
831.782	73.04
831.959	120.15
832.136	81.24
832.313	138.58
832.49	52.56
832.667	68.95
832.844	150.87
833.021	93.52
833.198	66.9
833.374	161.11
833.551	146.77
833.728	44.37
833.905	111.96
834.082	-0.68
834.259	99.67
834.436	73.04
834.612	77.14
834.789	68.95
834.966	111.96
835.143	89.43
835.319	60.76
835.496	62.8
835.673	56.66
835.85	122.2
836.026	85.33
836.203	126.29
836.38	114
836.556	118.1
836.733	23.89
836.909	77.14
837.086	48.47
837.262	56.66
837.439	58.71
837.616	93.52
837.792	101.72
837.968	150.87
838.145	79.19
838.321	134.48
838.498	44.37
838.674	111.96
838.851	134.48
839.027	19.8
839.203	68.95
839.38	138.58
839.556	46.42
839.732	103.76
839.909	46.42
840.085	34.13
840.261	11.61
840.437	126.29
840.614	44.37
840.79	13.65
840.966	73.04
841.142	103.76
841.318	15.7
841.494	114
841.671	58.71
841.847	60.76
842.023	71
842.199	118.1
842.375	48.47
842.551	3.41
842.727	5.46
842.903	77.14
843.079	30.04
843.255	126.29
843.431	42.32
843.607	114
843.783	19.8
843.959	107.86
844.134	40.28
844.31	134.48
844.486	105.81
844.662	17.75
844.838	77.14
845.013	101.72
845.189	38.23
845.365	87.38
845.541	105.81
845.716	124.24
845.892	105.81
846.068	62.8
846.244	68.95
846.419	68.95
846.595	36.18
846.77	73.04
846.946	118.1
847.122	46.42
847.297	56.66
847.473	152.92
847.648	25.94
847.824	17.75
847.999	-12.97
848.175	60.76
848.35	89.43
848.526	44.37
848.701	68.95
848.876	44.37
849.052	79.19
849.227	19.8
849.403	-2.73
849.578	52.56
849.753	81.24
849.929	27.99
850.104	-31.4
850.279	30.04
850.454	101.72
850.63	120.15
850.805	13.65
850.98	118.1
851.155	38.23
851.33	-10.92
851.505	11.61
851.681	44.37
851.856	23.89
852.031	120.15
852.206	36.18
852.381	62.8
852.556	44.37
852.731	54.61
852.906	109.91
853.081	-0.68
853.256	48.47
853.431	-17.07
853.606	109.91
853.781	19.8
853.956	52.56
854.131	73.04
854.305	5.46
854.48	3.41
854.655	13.65
854.83	11.61
855.005	105.81
855.18	73.04
855.354	44.37
855.529	101.72
855.704	-8.87
855.879	38.23
856.053	40.28
856.228	-2.73
856.403	1.37
856.577	60.76
856.752	7.51
856.926	1.37
857.101	15.7
857.276	17.75
857.45	19.8
857.625	68.95
857.799	83.28
857.974	79.19
858.148	97.62
858.323	68.95
858.497	-17.07
858.672	87.38
858.846	48.47
859.02	62.8
859.195	-33.45
859.369	32.08
859.543	11.61
859.718	60.76
859.892	25.94
860.066	93.52
860.241	-0.68
860.415	3.41
860.589	-4.78
860.763	27.99
860.938	23.89
861.112	3.41
861.286	7.51
861.46	66.9
861.634	44.37
861.808	60.76
861.982	19.8
862.157	-68.27
862.331	81.24
862.505	15.7
862.679	-70.31
862.853	38.23
863.027	3.41
863.201	152.92
863.375	3.41
863.549	60.76
863.722	36.18
863.896	71
864.07	-23.21
864.244	60.76
864.418	5.46
864.592	48.47
864.766	-25.26
864.939	-0.68
865.113	11.61
865.287	19.8
865.461	36.18
865.634	27.99
865.808	19.8
865.982	101.72
866.156	-19.11
866.329	27.99
866.503	-62.12
866.676	11.61
866.85	68.95
867.024	-6.83
867.197	111.96
867.371	66.9
867.544	13.65
867.718	21.85
867.891	52.56
868.065	-21.16
868.238	71
868.412	44.37
868.585	-19.11
868.759	3.41
868.932	-15.02
869.105	-51.88
869.279	-58.03
869.452	73.04
869.625	21.85
869.799	93.52
869.972	19.8
870.145	-12.97
870.319	7.51
870.492	19.8
870.665	-68.27
870.838	23.89
871.011	-2.73
871.185	32.08
871.358	30.04
871.531	11.61
871.704	11.61
871.877	54.61
872.05	13.65
872.223	36.18
872.396	46.42
872.569	54.61
872.742	-17.07
872.915	36.18
873.088	3.41
873.261	-53.93
873.434	11.61
873.607	36.18
873.78	27.99
873.953	-12.97
874.126	71
874.299	40.28
874.471	15.7
874.644	-2.73
874.817	120.15
874.99	101.72
875.163	-25.26
875.335	9.56
875.508	-35.5
875.681	101.72
875.853	-6.83
876.026	52.56
876.199	54.61
876.371	30.04
876.544	52.56
876.717	77.14
876.889	11.61
877.062	38.23
877.234	48.47
877.407	-0.68
877.579	5.46
877.752	52.56
877.924	17.75
878.097	40.28
878.269	30.04
878.442	109.91
878.614	48.47
878.786	68.95
878.959	38.23
879.131	36.18
879.303	7.51
879.476	68.95
879.648	21.85
879.82	-2.73
879.993	9.56
880.165	48.47
880.337	36.18
880.509	71
880.681	5.46
880.854	111.96
881.026	-80.55
881.198	142.68
881.37	17.75
881.542	93.52
881.714	23.89
881.886	48.47
882.058	-25.26
882.23	5.46
882.402	-37.55
882.574	79.19
882.746	21.85
882.918	52.56
883.09	-0.68
883.262	15.7
883.434	48.47
883.606	-68.27
883.778	-33.45
883.95	118.1
884.122	13.65
884.293	52.56
884.465	-15.02
884.637	11.61
884.809	11.61
884.98	126.29
885.152	-41.64
885.324	62.8
885.496	7.51
885.667	17.75
885.839	-49.83
886.011	60.76
886.182	19.8
886.354	79.19
886.525	-0.68
886.697	81.24
886.869	-12.97
887.04	-4.78
887.212	3.41
887.383	73.04
887.555	21.85
887.726	-37.55
887.897	-8.87
888.069	-19.11
888.24	11.61
888.412	-15.02
888.583	44.37
888.754	68.95
888.926	11.61
889.097	19.8
889.268	-21.16
889.44	-12.97
889.611	-33.45
889.782	-29.35
889.953	-21.16
890.125	30.04
890.296	-21.16
890.467	-68.27
890.638	-10.92
890.809	44.37
890.98	7.51
891.151	11.61
891.323	-12.97
891.494	81.24
891.665	3.41
891.836	-35.5
892.007	13.65
892.178	21.85
892.349	38.23
892.52	-29.35
892.691	44.37
892.862	-8.87
893.032	91.48
893.203	-51.88
893.374	27.99
893.545	38.23
893.716	5.46
893.887	64.85
894.057	-10.92
894.228	19.8
894.399	-23.21
894.57	93.52
894.74	-49.83
894.911	-25.26
895.082	11.61
895.253	54.61
895.423	54.61
895.594	77.14
895.764	30.04
895.935	-78.51
896.106	-4.78
896.276	85.33
896.447	11.61
896.617	-78.51
896.788	-98.99
896.958	-35.5
897.129	36.18
897.299	-21.16
897.47	13.65
897.64	93.52
897.81	-10.92
897.981	54.61
898.151	-41.64
898.322	11.61
898.492	-12.97
898.662	11.61
898.832	-35.5
899.003	25.94
899.173	71
899.343	21.85
899.513	-10.92
