Data from USB4F104151__241__14-45-47-243.txt Node

Date: Thu Mar 13 14:45:47 EDT 2025
User: louis
Spectrometer: USB4F10415
Trigger mode: 4
Integration Time (sec): 2.000000E-2
Scans to average: 1
Electric dark correction enabled: true
Nonlinearity correction enabled: false
Boxcar width: 0
XAxis mode: Wavelengths
Number of Pixels in Spectrum: 3648
>>>>>Begin Spectral Data<<<<<
178.204	-132.78
178.424	-132.78
178.644	-132.78
178.864	-110.25
179.084	-124.58
179.304	-18.09
179.524	-46.76
179.744	-81.58
179.964	43.35
180.184	26.96
180.404	16.73
180.624	20.82
180.844	41.3
181.064	-46.76
181.283	12.63
181.503	10.58
181.723	20.82
181.943	-50.86
182.163	57.68
182.383	43.35
182.602	90.45
182.822	104.79
183.042	-7.85
183.262	26.96
183.482	59.73
183.701	67.92
183.921	24.92
184.141	57.68
184.361	104.79
184.58	59.73
184.8	35.16
185.02	33.11
185.239	-5.8
185.459	-52.91
185.679	12.63
185.898	-52.91
186.118	63.83
186.338	47.44
186.557	31.06
186.777	51.54
186.997	26.96
187.216	-65.19
187.436	53.59
187.655	4.44
187.875	47.44
188.095	41.3
188.314	-18.09
188.534	4.44
188.753	-7.85
188.973	112.98
189.192	53.59
189.412	45.4
189.631	26.96
189.851	37.2
190.07	104.79
190.29	-28.33
190.509	22.87
190.729	39.25
190.948	88.4
191.168	151.89
191.387	67.92
191.607	59.73
191.826	76.12
192.045	-52.91
192.265	39.25
192.484	-38.57
192.704	10.58
192.923	-13.99
193.142	100.69
193.362	-16.04
193.581	67.92
193.8	86.36
194.02	43.35
194.239	80.21
194.458	2.39
194.678	-26.28
194.897	-36.52
195.116	-36.52
195.335	-5.8
195.555	82.26
195.774	-18.09
195.993	108.88
196.212	47.44
196.432	-5.8
196.651	37.2
196.87	-22.19
197.089	-30.38
197.308	0.34
197.528	69.97
197.747	37.2
197.966	51.54
198.185	51.54
198.404	-50.86
198.623	84.31
198.842	2.39
199.062	96.6
199.281	35.16
199.5	26.96
199.719	63.83
199.938	47.44
200.157	51.54
200.376	43.35
200.595	47.44
200.814	22.87
201.033	43.35
201.252	26.96
201.471	-5.8
201.69	18.77
201.909	84.31
202.128	22.87
202.347	76.12
202.566	26.96
202.785	-46.76
203.004	-28.33
203.223	84.31
203.442	2.39
203.661	-1.71
203.879	16.73
204.098	108.88
204.317	53.59
204.536	53.59
204.755	53.59
204.974	47.44
205.193	100.69
205.411	78.16
205.63	35.16
205.849	8.53
206.068	10.58
206.287	37.2
206.505	108.88
206.724	-40.62
206.943	24.92
207.162	-28.33
207.381	41.3
207.599	26.96
207.818	65.88
208.037	59.73
208.255	24.92
208.474	-3.75
208.693	67.92
208.911	29.01
209.13	10.58
209.349	16.73
209.567	45.4
209.786	117.08
210.005	20.82
210.223	51.54
210.442	-61.1
210.661	10.58
210.879	-44.71
211.098	12.63
211.316	35.16
211.535	82.26
211.753	-1.71
211.972	67.92
212.191	29.01
212.409	31.06
212.628	22.87
212.846	31.06
213.065	18.77
213.283	35.16
213.502	6.49
213.72	43.35
213.938	14.68
214.157	74.07
214.375	39.25
214.594	0.34
214.812	18.77
215.031	33.11
215.249	-24.23
215.467	-63.15
215.686	43.35
215.904	78.16
216.122	76.12
216.341	37.2
216.559	76.12
216.778	35.16
216.996	18.77
217.214	59.73
217.432	-38.57
217.651	-9.9
217.869	-22.19
218.087	84.31
218.306	51.54
218.524	80.21
218.742	-7.85
218.96	55.64
219.179	-63.15
219.397	-3.75
219.615	86.36
219.833	2.39
220.051	35.16
220.27	14.68
220.488	72.02
220.706	31.06
220.924	26.96
221.142	51.54
221.36	53.59
221.578	47.44
221.796	43.35
222.015	67.92
222.233	-18.09
222.451	18.77
222.669	-46.76
222.887	43.35
223.105	26.96
223.323	121.17
223.541	-67.24
223.759	12.63
223.977	96.6
224.195	-1.71
224.413	86.36
224.631	-11.95
224.849	84.31
225.067	92.5
225.285	53.59
225.503	92.5
225.721	-30.38
225.939	49.49
226.157	2.39
226.375	151.89
226.592	63.83
226.81	59.73
227.028	63.83
227.246	51.54
227.464	88.4
227.682	90.45
227.9	98.64
228.117	37.2
228.335	4.44
228.553	31.06
228.771	84.31
228.989	18.77
229.206	-30.38
229.424	-26.28
229.642	26.96
229.86	18.77
230.077	2.39
230.295	51.54
230.513	18.77
230.731	104.79
230.948	-18.09
231.166	108.88
231.384	18.77
231.601	53.59
231.819	84.31
232.037	-52.91
232.254	-61.1
232.472	31.06
232.689	35.16
232.907	12.63
233.125	76.12
233.342	31.06
233.56	-18.09
233.777	10.58
233.995	43.35
234.213	115.03
234.43	-22.19
234.648	53.59
234.865	4.44
235.083	35.16
235.3	72.02
235.518	135.51
235.735	96.6
235.953	110.93
236.17	84.31
236.388	43.35
236.605	69.97
236.822	88.4
237.04	12.63
237.257	69.97
237.475	47.44
237.692	-34.47
237.909	-38.57
238.127	67.92
238.344	67.92
238.562	61.78
238.779	47.44
238.996	-30.38
239.214	26.96
239.431	47.44
239.648	39.25
239.865	35.16
240.083	24.92
240.3	47.44
240.517	-13.99
240.735	51.54
240.952	35.16
241.169	78.16
241.386	80.21
241.603	22.87
241.821	39.25
242.038	4.44
242.255	35.16
242.472	2.39
242.689	96.6
242.907	106.84
243.124	59.73
243.341	61.78
243.558	-26.28
243.775	47.44
243.992	2.39
244.209	53.59
244.426	8.53
244.643	12.63
244.86	-5.8
245.078	92.5
245.295	14.68
245.512	-13.99
245.729	-7.85
245.946	61.78
246.163	49.49
246.38	45.4
246.597	43.35
246.814	88.4
247.031	0.34
247.248	80.21
247.464	51.54
247.681	141.65
247.898	51.54
248.115	84.31
248.332	20.82
248.549	-5.8
248.766	78.16
248.983	59.73
249.2	49.49
249.417	104.79
249.633	67.92
249.85	33.11
250.067	29.01
250.284	92.5
250.501	59.73
250.717	94.55
250.934	-59.05
251.151	37.2
251.368	18.77
251.585	51.54
251.801	-18.09
252.018	-38.57
252.235	78.16
252.451	-30.38
252.668	37.2
252.885	51.54
253.102	43.35
253.318	37.2
253.535	-5.8
253.752	45.4
253.968	18.77
254.185	59.73
254.401	29.01
254.618	92.5
254.835	14.68
255.051	47.44
255.268	47.44
255.484	53.59
255.701	-22.19
255.917	55.64
256.134	37.2
256.351	29.01
256.567	-16.04
256.784	53.59
257	0.34
257.217	43.35
257.433	12.63
257.65	51.54
257.866	-30.38
258.082	-13.99
258.299	61.78
258.515	53.59
258.732	43.35
258.948	45.4
259.165	59.73
259.381	-22.19
259.597	47.44
259.814	35.16
260.03	22.87
260.246	2.39
260.463	20.82
260.679	67.92
260.895	20.82
261.112	-24.23
261.328	-52.91
261.544	-44.71
261.761	14.68
261.977	22.87
262.193	-13.99
262.409	31.06
262.626	92.5
262.842	45.4
263.058	51.54
263.274	43.35
263.49	80.21
263.707	72.02
263.923	8.53
264.139	-54.95
264.355	53.59
264.571	43.35
264.787	51.54
265.004	18.77
265.22	84.31
265.436	10.58
265.652	45.4
265.868	67.92
266.084	-104.11
266.3	31.06
266.516	18.77
266.732	57.68
266.948	47.44
267.164	76.12
267.38	26.96
267.596	-16.04
267.812	84.31
268.028	45.4
268.244	37.2
268.46	18.77
268.676	-30.38
268.892	63.83
269.108	-3.75
269.324	-77.48
269.54	61.78
269.756	35.16
269.972	-1.71
270.188	-22.19
270.403	67.92
270.619	37.2
270.835	100.69
271.051	18.77
271.267	35.16
271.483	-34.47
271.698	69.97
271.914	10.58
272.13	35.16
272.346	10.58
272.562	-13.99
272.777	67.92
272.993	57.68
273.209	22.87
273.425	76.12
273.64	59.73
273.856	76.12
274.072	20.82
274.287	22.87
274.503	-11.95
274.719	-18.09
274.934	26.96
275.15	-38.57
275.366	96.6
275.581	8.53
275.797	-9.9
276.012	84.31
276.228	63.83
276.444	35.16
276.659	-5.8
276.875	26.96
277.09	35.16
277.306	92.5
277.521	43.35
277.737	4.44
277.952	37.2
278.168	94.55
278.383	59.73
278.599	53.59
278.814	94.55
279.03	18.77
279.245	53.59
279.461	-22.19
279.676	37.2
279.892	-71.34
280.107	4.44
280.322	51.54
280.538	84.31
280.753	20.82
280.969	43.35
281.184	86.36
281.399	117.08
281.615	37.2
281.83	2.39
282.045	-20.14
282.26	53.59
282.476	24.92
282.691	110.93
282.906	-11.95
283.122	106.84
283.337	-63.15
283.552	69.97
283.767	29.01
283.983	61.78
284.198	69.97
284.413	43.35
284.628	53.59
284.843	35.16
285.058	12.63
285.274	72.02
285.489	14.68
285.704	86.36
285.919	106.84
286.134	-28.33
286.349	10.58
286.564	-38.57
286.779	47.44
286.995	31.06
287.21	10.58
287.425	57.68
287.64	-18.09
287.855	125.27
288.07	22.87
288.285	112.98
288.5	-20.14
288.715	51.54
288.93	35.16
289.145	18.77
289.36	20.82
289.575	61.78
289.79	65.88
290.004	14.68
290.219	20.82
290.434	14.68
290.649	100.69
290.864	6.49
291.079	115.03
291.294	67.92
291.509	-28.33
291.724	86.36
291.938	31.06
292.153	76.12
292.368	43.35
292.583	78.16
292.798	59.73
293.012	2.39
293.227	18.77
293.442	67.92
293.657	18.77
293.871	31.06
294.086	57.68
294.301	26.96
294.516	131.41
294.73	51.54
294.945	-3.75
295.16	47.44
295.374	67.92
295.589	76.12
295.804	18.77
296.018	51.54
296.233	96.6
296.447	43.35
296.662	31.06
296.877	51.54
297.091	-11.95
297.306	-3.75
297.52	88.4
297.735	59.73
297.949	69.97
298.164	106.84
298.378	35.16
298.593	-18.09
298.807	10.58
299.022	86.36
299.236	115.03
299.451	65.88
299.665	-7.85
299.88	2.39
300.094	31.06
300.309	57.68
300.523	35.16
300.737	16.73
300.952	-5.8
301.166	24.92
301.381	-11.95
301.595	47.44
301.809	67.92
302.024	-5.8
302.238	-11.95
302.452	29.01
302.667	35.16
302.881	35.16
303.095	47.44
303.309	-1.71
303.524	43.35
303.738	6.49
303.952	43.35
304.166	16.73
304.381	76.12
304.595	78.16
304.809	-1.71
305.023	84.31
305.237	43.35
305.452	39.25
305.666	39.25
305.88	100.69
306.094	90.45
306.308	18.77
306.522	12.63
306.736	67.92
306.95	117.08
307.164	37.2
307.379	51.54
307.593	65.88
307.807	112.98
308.021	76.12
308.235	-22.19
308.449	4.44
308.663	22.87
308.877	117.08
309.091	26.96
309.305	18.77
309.519	6.49
309.733	39.25
309.947	49.49
310.161	10.58
310.374	39.25
310.588	43.35
310.802	-50.86
311.016	-3.75
311.23	74.07
311.444	61.78
311.658	53.59
311.872	92.5
312.085	10.58
312.299	45.4
312.513	74.07
312.727	43.35
312.941	53.59
313.154	69.97
313.368	43.35
313.582	69.97
313.796	-46.76
314.009	37.2
314.223	59.73
314.437	-13.99
314.651	-79.53
314.864	29.01
315.078	-11.95
315.292	53.59
315.505	6.49
315.719	55.64
315.933	59.73
316.146	-13.99
316.36	-40.62
316.573	100.69
316.787	100.69
317.001	45.4
317.214	10.58
317.428	-26.28
317.641	76.12
317.855	55.64
318.068	-18.09
318.282	22.87
318.495	41.3
318.709	59.73
318.922	88.4
319.136	102.74
319.349	141.65
319.563	-13.99
319.776	86.36
319.99	20.82
320.203	37.2
320.417	59.73
320.63	10.58
320.843	33.11
321.057	33.11
321.27	92.5
321.483	69.97
321.697	35.16
321.91	37.2
322.124	-20.14
322.337	57.68
322.55	80.21
322.763	-26.28
322.977	45.4
323.19	102.74
323.403	43.35
323.617	45.4
323.83	14.68
324.043	-32.43
324.256	45.4
324.469	4.44
324.683	18.77
324.896	61.78
325.109	59.73
325.322	-30.38
325.535	100.69
325.748	-9.9
325.962	18.77
326.175	-11.95
326.388	10.58
326.601	37.2
326.814	43.35
327.027	69.97
327.24	82.26
327.453	-46.76
327.666	67.92
327.879	69.97
328.092	45.4
328.305	10.58
328.518	-5.8
328.731	35.16
328.944	55.64
329.157	31.06
329.37	84.31
329.583	43.35
329.796	37.2
330.009	76.12
330.222	53.59
330.435	94.55
330.648	86.36
330.861	26.96
331.073	35.16
331.286	76.12
331.499	61.78
331.712	41.3
331.925	53.59
332.138	51.54
332.35	78.16
332.563	35.16
332.776	94.55
332.989	8.53
333.202	2.39
333.414	37.2
333.627	26.96
333.84	76.12
334.053	43.35
334.265	125.27
334.478	22.87
334.691	26.96
334.903	-20.14
335.116	55.64
335.329	12.63
335.541	47.44
335.754	78.16
335.966	67.92
336.179	33.11
336.392	100.69
336.604	76.12
336.817	-38.57
337.029	76.12
337.242	110.93
337.454	43.35
337.667	26.96
337.88	39.25
338.092	35.16
338.305	112.98
338.517	33.11
338.729	84.31
338.942	100.69
339.154	29.01
339.367	-38.57
339.579	112.98
339.792	-5.8
340.004	86.36
340.217	37.2
340.429	92.5
340.641	45.4
340.854	51.54
341.066	39.25
341.278	47.44
341.491	131.41
341.703	26.96
341.915	10.58
342.128	61.78
342.34	112.98
342.552	69.97
342.764	31.06
342.977	31.06
343.189	51.54
343.401	74.07
343.613	43.35
343.826	-22.19
344.038	31.06
344.25	96.6
344.462	24.92
344.674	47.44
344.886	51.54
345.099	10.58
345.311	-28.33
345.523	26.96
345.735	18.77
345.947	26.96
346.159	-1.71
346.371	2.39
346.583	59.73
346.795	106.84
347.007	94.55
347.219	76.12
347.431	-38.57
347.643	59.73
347.855	43.35
348.067	37.2
348.279	43.35
348.491	80.21
348.703	74.07
348.915	2.39
349.127	84.31
349.339	94.55
349.551	63.83
349.763	115.03
349.975	37.2
350.187	96.6
350.399	149.84
350.61	31.06
350.822	76.12
351.034	72.02
351.246	127.32
351.458	69.97
351.669	43.35
351.881	63.83
352.093	86.36
352.305	43.35
352.517	26.96
352.728	92.5
352.94	72.02
353.152	-11.95
353.363	76.12
353.575	63.83
353.787	84.31
353.999	55.64
354.21	86.36
354.422	18.77
354.633	18.77
354.845	51.54
355.057	61.78
355.268	39.25
355.48	57.68
355.692	51.54
355.903	39.25
356.115	2.39
356.326	12.63
356.538	127.32
356.749	158.03
356.961	61.78
357.172	59.73
357.384	57.68
357.595	67.92
357.807	51.54
358.018	-9.9
358.23	22.87
358.441	164.18
358.653	-67.24
358.864	33.11
359.075	59.73
359.287	92.5
359.498	61.78
359.709	37.2
359.921	-5.8
360.132	55.64
360.344	69.97
360.555	24.92
360.766	29.01
360.977	-13.99
361.189	98.64
361.4	-22.19
361.611	12.63
361.823	108.88
362.034	135.51
362.245	63.83
362.456	26.96
362.667	72.02
362.879	39.25
363.09	6.49
363.301	20.82
363.512	22.87
363.723	82.26
363.935	-87.72
364.146	76.12
364.357	10.58
364.568	92.5
364.779	-54.95
364.99	67.92
365.201	104.79
365.412	14.68
365.623	18.77
365.834	59.73
366.045	82.26
366.256	20.82
366.467	20.82
366.678	14.68
366.889	31.06
367.1	10.58
367.311	65.88
367.522	10.58
367.733	106.84
367.944	94.55
368.155	20.82
368.366	35.16
368.577	67.92
368.788	-5.8
368.999	96.6
369.209	76.12
369.42	121.17
369.631	158.03
369.842	76.12
370.053	90.45
370.264	22.87
370.474	92.5
370.685	55.64
370.896	31.06
371.107	55.64
371.317	82.26
371.528	-11.95
371.739	104.79
371.95	37.2
372.16	115.03
372.371	2.39
372.582	22.87
372.792	121.17
373.003	18.77
373.214	53.59
373.424	121.17
373.635	-1.71
373.846	102.74
374.056	43.35
374.267	84.31
374.477	92.5
374.688	39.25
374.898	39.25
375.109	-5.8
375.319	31.06
375.53	92.5
375.74	43.35
375.951	67.92
376.161	51.54
376.372	76.12
376.582	-16.04
376.793	31.06
377.003	18.77
377.214	43.35
377.424	139.6
377.635	67.92
377.845	59.73
378.055	102.74
378.266	-11.95
378.476	59.73
378.686	-1.71
378.897	55.64
379.107	-22.19
379.317	106.84
379.528	53.59
379.738	112.98
379.948	88.4
380.158	102.74
380.369	39.25
380.579	67.92
380.789	-1.71
380.999	4.44
381.21	96.6
381.42	100.69
381.63	39.25
381.84	151.89
382.05	33.11
382.261	22.87
382.471	4.44
382.681	47.44
382.891	67.92
383.101	78.16
383.311	59.73
383.521	59.73
383.731	33.11
383.941	84.31
384.151	45.4
384.361	61.78
384.571	78.16
384.781	22.87
384.991	84.31
385.201	41.3
385.411	29.01
385.621	43.35
385.831	94.55
386.041	8.53
386.251	26.96
386.461	110.93
386.671	92.5
386.881	-5.8
387.091	69.97
387.301	-13.99
387.511	43.35
387.72	59.73
387.93	8.53
388.14	-30.38
388.35	67.92
388.56	98.64
388.769	110.93
388.979	59.73
389.189	26.96
389.399	51.54
389.609	78.16
389.818	119.12
390.028	26.96
390.238	45.4
390.447	86.36
390.657	63.83
390.867	53.59
391.076	-1.71
391.286	82.26
391.496	98.64
391.705	35.16
391.915	86.36
392.125	82.26
392.334	84.31
392.544	41.3
392.753	35.16
392.963	41.3
393.172	74.07
393.382	69.97
393.591	112.98
393.801	4.44
394.01	158.03
394.22	43.35
394.429	20.82
394.639	104.79
394.848	47.44
395.058	69.97
395.267	45.4
395.477	4.44
395.686	92.5
395.895	131.41
396.105	139.6
396.314	76.12
396.524	59.73
396.733	137.56
396.942	41.3
397.152	67.92
397.361	139.6
397.57	67.92
397.78	86.36
397.989	84.31
398.198	125.27
398.407	-11.95
398.617	125.27
398.826	-1.71
399.035	35.16
399.244	20.82
399.453	67.92
399.663	76.12
399.872	155.99
400.081	100.69
400.29	141.65
400.499	39.25
400.708	198.99
400.917	55.64
401.127	29.01
401.336	96.6
401.545	76.12
401.754	69.97
401.963	170.32
402.172	26.96
402.381	59.73
402.59	143.7
402.799	53.59
403.008	100.69
403.217	59.73
403.426	112.98
403.635	69.97
403.844	47.44
404.053	190.8
404.262	76.12
404.471	166.23
404.68	125.27
404.888	121.17
405.097	135.51
405.306	78.16
405.515	63.83
405.724	51.54
405.933	106.84
406.142	174.42
406.35	258.39
406.559	147.8
406.768	76.12
406.977	121.17
407.185	162.13
407.394	162.13
407.603	84.31
407.812	201.04
408.02	233.81
408.229	174.42
408.438	209.23
408.646	174.42
408.855	239.95
409.064	209.23
409.272	170.32
409.481	158.03
409.69	190.8
409.898	174.42
410.107	291.15
410.315	307.54
410.524	215.38
410.733	291.15
410.941	256.34
411.15	338.26
411.358	289.1
411.567	379.22
411.775	272.72
411.984	248.15
412.192	330.06
412.401	221.52
412.609	346.45
412.818	373.07
413.026	358.74
413.234	395.6
413.443	305.49
413.651	457.04
413.86	411.98
414.068	469.33
414.276	502.09
414.485	475.47
414.693	442.7
414.901	518.48
415.11	485.71
415.318	493.9
415.526	510.29
415.734	534.86
415.943	559.44
416.151	510.29
416.359	624.97
416.567	682.31
416.776	692.55
416.984	674.12
417.192	678.22
417.4	706.89
417.608	584.01
417.817	792.91
418.025	739.66
418.233	825.67
418.441	805.19
418.649	932.17
418.857	993.61
419.065	977.22
419.273	936.26
419.481	952.65
419.689	985.41
419.897	1114.44
420.105	1124.68
420.313	1128.77
420.521	1126.72
420.729	1157.44
420.937	1263.94
421.145	1268.03
421.353	1364.29
421.561	1354.05
421.769	1419.58
421.977	1401.15
422.185	1427.78
422.393	1544.51
422.601	1698.11
422.809	1626.43
423.017	1636.67
423.224	1698.11
423.432	1788.22
423.64	1780.03
423.848	1927.48
424.056	1851.71
424.263	2052.41
424.471	2025.78
424.679	2165.04
424.887	2244.92
425.094	2224.44
425.302	2216.24
425.51	2281.78
425.718	2398.51
425.925	2398.51
426.133	2519.34
426.341	2672.94
426.548	2693.42
426.756	2779.43
426.964	2838.83
427.171	2992.42
427.379	3035.43
427.586	3109.16
427.794	3229.99
428.001	3424.55
428.209	3580.19
428.417	3352.87
428.624	3694.88
428.832	3615.01
429.039	3705.12
429.247	3520.8
429.454	3924.25
429.662	4213.01
429.869	4032.79
430.076	4249.88
430.284	4352.27
430.491	4368.66
430.699	4641.04
430.906	4434.19
431.114	4446.48
431.321	4770.06
431.528	4825.36
431.736	5255.43
431.943	5304.58
432.15	5243.14
432.358	5173.51
432.565	5499.14
432.772	5622.02
432.979	5835
433.187	6039.8
433.394	5966.07
433.601	6572.27
433.808	6461.68
434.016	6461.68
434.223	6770.93
434.43	6842.6
434.637	6910.19
434.844	7385.32
435.052	7432.42
435.259	7336.17
435.466	7715.04
435.673	7545.06
435.88	7985.37
436.087	8366.29
436.294	8083.67
436.501	8288.47
436.708	8202.46
436.915	8665.3
437.122	9050.32
437.329	8966.35
437.537	9238.73
437.743	9255.11
437.95	9109.71
438.157	9668.8
438.364	10129.59
438.571	10072.25
438.778	10234.04
438.985	11149.48
439.192	10590.39
439.399	10981.55
439.606	10614.96
439.813	11157.68
440.02	11872.42
440.227	11708.58
440.433	11796.64
440.64	12128.41
440.847	11991.2
441.054	12349.59
441.261	13203.6
441.467	12863.63
441.674	13082.77
441.881	13256.84
442.088	13652.1
442.294	13561.99
442.501	13873.28
442.708	13994.11
442.914	14639.22
443.121	15501.42
443.328	14846.07
443.534	15779.94
443.741	15222.89
443.948	15186.03
444.154	16472.15
444.361	16334.94
444.568	16345.18
444.774	16281.69
444.981	16425.05
445.187	17111.12
445.394	17752.13
445.6	17170.51
445.807	18917.43
446.013	18448.44
446.22	18843.7
446.426	19292.21
446.633	19441.71
446.839	20115.49
447.046	19263.54
447.252	20492.32
447.459	20357.15
447.665	20340.77
447.871	21350.42
448.078	22214.66
448.284	21147.67
448.491	21741.58
448.697	22755.32
448.903	22892.54
449.11	23220.21
449.316	22810.62
449.522	23083
449.728	23619.56
449.935	23748.59
450.141	23953.38
450.347	24248.29
450.553	23799.79
450.76	24090.6
450.966	24776.67
451.172	24610.78
451.378	25487.31
451.584	24743.9
451.791	25382.87
451.997	25599.95
452.203	25786.32
452.409	25966.54
452.615	25661.39
452.821	24874.97
453.027	24623.07
453.233	25688.01
453.44	24897.5
453.646	25319.38
453.852	25167.83
454.058	25165.78
454.264	25034.71
454.47	25491.41
454.676	24649.69
454.882	25583.57
455.088	23447.54
455.294	23734.25
455.5	24156.13
455.705	24532.96
455.911	23443.44
456.117	23312.37
456.323	22783.99
456.529	21735.43
456.735	22732.79
456.941	21843.98
457.147	21712.91
457.352	20981.78
457.558	20727.83
457.764	20824.09
457.97	20611.1
458.176	19947.56
458.381	20019.24
458.587	18999.35
458.793	18958.39
458.999	17999.94
459.204	19593.26
459.41	18792.5
459.616	17430.6
459.821	17586.25
460.027	17700.94
460.233	17102.93
460.438	16263.26
460.644	16779.35
460.85	15792.23
461.055	15761.51
461.261	15534.18
461.466	14565.5
461.672	14174.33
461.878	14993.52
462.083	13805.7
462.289	13826.18
462.494	13758.6
462.7	13078.67
462.905	12683.41
463.111	13037.71
463.316	13021.33
463.522	12744.85
463.727	12865.68
463.932	12845.2
464.138	12628.12
464.343	12839.06
464.549	12337.31
464.754	12726.42
464.959	12650.64
465.165	12576.92
465.37	11878.56
465.575	11790.5
465.781	12136.6
465.986	12306.59
466.191	11954.33
466.397	11585.7
466.602	11135.15
466.807	11274.41
467.012	11430.05
467.218	11331.75
467.423	11178.15
467.628	11405.48
467.833	11993.25
468.038	11169.96
468.244	11022.51
468.449	11301.03
468.654	11102.38
468.859	11108.52
469.064	10932.4
469.269	10487.99
469.474	10619.06
469.679	10819.76
469.885	10596.53
470.09	10553.52
470.295	10561.72
470.5	10195.13
470.705	10363.06
470.91	10154.17
471.115	10217.66
471.32	10406.07
471.525	10324.15
471.73	10041.53
471.935	9861.31
472.139	9545.92
472.344	9816.26
472.549	9859.26
472.754	9644.23
472.959	9316.55
473.164	9136.33
473.369	9013.45
473.574	9597.12
473.778	9291.98
473.983	9111.75
474.188	8988.88
474.393	8724.69
474.598	8720.59
474.802	8589.52
475.007	8403.16
475.212	8665.3
475.417	8186.07
475.621	8401.11
475.826	8351.96
476.031	8233.18
476.235	8063.19
476.44	8257.75
476.645	7975.13
476.849	7866.59
477.054	8032.47
477.259	7661.79
477.463	7866.59
477.668	7438.56
477.872	7600.35
478.077	7592.16
478.282	7436.52
478.486	7403.75
478.691	7178.47
478.895	7282.92
479.1	7252.2
479.304	7354.6
479.509	7024.87
479.713	7307.49
479.918	6934.76
480.122	6887.66
480.326	6918.38
480.531	6885.61
480.735	6815.98
480.94	7006.44
481.144	7059.69
481.348	6789.36
481.553	6818.03
481.757	6605.04
481.961	6762.73
482.166	6947.05
482.37	6742.25
482.574	6523.12
482.778	6836.46
482.983	6895.85
483.187	6623.47
483.391	6951.15
483.595	6625.52
483.8	6451.44
484.004	6639.86
484.208	6695.15
484.412	6678.77
484.616	6617.33
484.821	6711.53
485.025	6637.81
485.229	6801.65
485.433	6592.75
485.637	6682.86
485.841	6449.39
486.045	6637.81
486.249	6678.77
486.453	6615.28
486.657	6785.26
486.861	6631.66
487.065	6592.75
487.269	6781.17
487.473	6664.43
487.677	6602.99
487.881	6887.66
488.085	6662.38
488.289	6795.5
488.493	6697.2
488.697	6840.56
488.901	6930.67
489.105	6648.05
489.309	6856.94
489.512	6795.5
489.716	6715.63
489.92	6699.25
490.124	6836.46
490.328	6820.08
490.531	6752.49
490.735	6975.72
490.939	6957.29
491.143	6850.8
491.346	6842.6
491.55	6992.11
491.754	6926.57
491.958	7164.14
492.161	6914.28
492.365	7061.74
492.569	6983.91
492.772	7016.68
492.976	7071.98
493.18	7123.18
493.383	7346.41
493.587	7268.58
493.79	7399.65
493.994	7149.8
494.197	7350.5
494.401	7366.88
494.605	7465.19
494.808	7663.84
495.012	7506.15
495.215	7708.9
495.419	7661.79
495.622	7688.42
495.825	7735.52
496.029	7782.62
496.232	8030.43
496.436	7944.41
496.639	7993.56
496.843	8089.82
497.046	8126.68
497.249	8276.18
497.453	8399.06
497.656	8464.6
497.859	8466.64
498.063	8577.23
498.266	8765.65
498.469	8734.93
498.673	8681.68
498.876	8890.57
499.079	9191.63
499.282	8931.53
499.485	9361.61
499.689	9203.91
499.892	9490.63
500.095	9437.38
500.298	9629.89
500.501	9541.83
500.705	9773.25
500.908	9978.05
501.111	9930.94
501.314	10078.4
501.517	10385.59
501.72	10334.39
501.923	10334.39
502.126	10205.37
502.329	10614.96
502.532	10746.03
502.735	10774.7
502.938	11014.32
503.141	11366.57
503.344	11192.49
503.547	11221.16
503.75	11413.67
503.953	11593.89
504.156	11849.89
504.359	11815.07
504.562	11911.33
504.765	11950.24
504.968	12302.49
505.17	12208.28
505.373	12511.38
505.576	12458.14
505.779	12818.58
505.982	12765.33
506.185	12978.32
506.387	13217.93
506.59	13518.98
506.793	13514.89
506.996	13213.84
507.198	14059.65
507.401	13783.17
507.604	14030.98
507.807	14397.56
508.009	14491.77
508.212	14545.02
508.415	14624.89
508.617	14733.43
508.82	14774.39
509.022	14878.83
509.225	15241.32
509.428	15317.1
509.63	15462.51
509.833	15587.43
510.035	15894.63
510.238	15804.52
510.44	15915.11
510.643	16384.09
510.845	16492.63
511.048	16312.41
511.25	16771.16
511.453	16689.24
511.655	17295.44
511.858	17289.29
512.06	17389.64
512.262	17748.04
512.465	17590.34
512.667	17809.48
512.87	18012.23
513.072	18049.09
513.274	18495.55
513.477	18337.85
513.679	18761.78
513.881	19255.34
514.084	19140.66
514.286	18999.35
514.488	19460.14
514.69	19687.46
514.893	19685.42
515.095	20033.57
515.297	20510.75
515.499	20457.5
515.701	20580.38
515.904	20858.9
516.106	20760.6
516.308	21073.94
516.51	21508.11
516.712	21671.95
516.914	21604.36
517.116	22061.06
517.318	22054.92
517.52	22212.61
517.722	22538.24
517.925	22276.1
518.127	23005.17
518.329	23099.38
518.531	22935.54
518.733	23570.41
518.935	23758.83
519.136	23713.77
519.338	24104.93
519.54	24141.8
519.742	24225.76
519.944	24367.07
520.146	24887.26
520.348	24727.52
520.55	25149.4
520.752	24979.42
520.954	25425.87
521.155	25417.68
521.357	25814.99
521.559	25812.94
521.761	26359.75
521.963	26566.59
522.164	26359.75
522.366	26464.19
522.568	26769.34
522.77	26828.73
522.971	27408.31
523.173	27135.93
523.375	27633.58
523.576	27799.47
523.778	27684.78
523.98	28006.31
524.181	28123.05
524.383	28182.44
524.584	28377
524.786	28612.51
524.988	28313.51
525.189	28845.98
525.391	28979.1
525.592	29327.25
525.794	29140.89
525.995	29212.57
526.197	29138.84
526.398	29433.75
526.6	29904.78
526.801	29618.07
527.003	30029.71
527.204	30068.62
527.406	29908.88
527.607	30107.53
527.808	30609.28
528.01	30033.8
528.211	30648.19
528.412	30746.5
528.614	30574.47
528.815	30656.39
529.016	31381.37
529.218	30656.39
529.419	30969.72
529.62	31104.89
529.822	30766.98
530.023	31065.98
530.224	31000.44
530.425	30961.53
530.626	31043.45
530.828	31168.38
531.029	31465.33
531.23	31362.93
531.431	31254.39
531.632	31692.66
531.833	31981.42
532.035	31745.9
532.236	31676.27
532.437	31688.56
532.638	31614.83
532.839	31653.75
533.04	31856.5
533.241	31451
533.442	32120.68
533.643	31840.11
533.844	31727.47
534.045	31874.93
534.246	31846.26
534.447	31989.61
534.648	31713.14
534.849	31829.87
535.05	31958.89
535.251	32014.19
535.451	31778.67
535.652	32366.44
535.853	31999.85
536.054	32175.98
536.255	32206.7
536.456	31696.75
536.657	32255.85
536.857	31729.52
537.058	31635.31
537.259	32233.32
537.46	32137.07
537.66	32008.04
537.861	31936.37
538.062	31899.5
538.263	32061.29
538.463	31795.06
538.664	31819.63
538.865	32036.72
539.065	31979.37
539.266	31950.7
539.466	32175.98
539.667	31672.18
539.868	32333.67
540.068	31840.11
540.269	32108.4
540.469	31897.45
540.67	31715.19
540.87	31942.51
541.071	31985.52
541.271	32010.09
541.472	32077.68
541.672	31702.9
541.873	31604.6
542.073	31797.1
542.274	32014.19
542.474	31504.24
542.675	31815.54
542.875	31870.83
543.075	31913.84
543.276	31440.76
543.476	32135.02
543.676	31676.27
543.877	32040.81
544.077	31496.05
544.277	31516.53
544.478	32128.88
544.678	31784.82
544.878	31602.55
545.078	32051.05
545.279	31639.41
545.479	31690.61
545.679	31833.97
545.879	31674.23
546.079	31768.43
546.28	32151.4
546.48	31416.18
546.68	31766.38
546.88	31930.22
547.08	31950.7
547.28	31645.55
547.48	31514.48
547.68	31463.29
547.88	31786.86
548.081	31518.58
548.281	31590.26
548.481	31704.95
548.681	31565.68
548.881	31625.07
549.081	31430.52
549.28	31274.87
549.48	31747.95
549.68	31780.72
549.88	31879.02
550.08	31608.69
550.28	31678.32
550.48	31631.22
550.68	31754.1
550.88	31098.75
551.08	31180.67
551.279	31530.87
551.479	31250.3
551.679	31387.51
551.879	31561.59
552.079	31543.16
552.278	31199.1
552.478	31395.7
552.678	31446.9
552.878	31532.92
553.077	31135.61
553.277	30920.57
553.477	31344.5
553.676	30898.05
553.876	31262.58
554.076	31135.61
554.275	31184.76
554.475	30730.11
554.674	31410.04
554.874	31049.6
555.074	31063.93
555.273	31037.31
555.473	31709.04
555.672	30891.9
555.872	31059.84
556.071	30967.68
556.271	31174.52
556.47	30809.98
556.67	31176.57
556.869	30873.47
557.068	31311.74
557.268	30777.22
557.467	30814.08
557.667	30416.77
557.866	30672.77
558.065	30949.25
558.265	30654.34
558.464	30703.49
558.663	30789.5
558.863	30443.4
559.062	30666.63
559.261	30205.83
559.461	30594.95
559.66	30087.05
559.859	30480.26
560.058	29978.51
560.258	30496.64
560.457	30275.46
560.656	30355.33
560.855	30054.28
561.054	30332.81
561.253	29824.91
561.453	30005.13
561.652	29908.88
561.851	30230.41
562.05	29788.05
562.249	29904.78
562.448	30082.95
562.647	30152.59
562.846	29552.53
563.045	29691.79
563.244	29159.32
563.443	29980.56
563.642	29110.17
563.841	29443.99
564.04	29157.27
564.239	29407.12
564.438	29263.77
564.637	29489.04
564.836	29134.74
565.035	28856.22
565.234	29015.96
565.432	28995.48
565.631	28954.52
565.83	29155.22
566.029	28868.51
566.228	28690.34
566.427	28641.18
566.625	28497.83
566.824	28186.54
567.023	28698.53
567.222	28084.14
567.42	28772.25
567.619	28250.02
567.818	28403.62
568.016	28217.25
568.215	28297.13
568.414	28104.62
568.612	28536.74
568.811	28094.38
569.01	28213.16
569.208	27701.17
569.407	27901.87
569.605	27541.43
569.804	27787.18
570.002	27482.03
570.201	27824.04
570.4	27135.93
570.598	27443.12
570.797	27303.86
570.995	27451.31
571.193	27334.58
571.392	27336.63
571.59	27236.28
571.789	27164.6
571.987	26800.06
572.186	26795.96
572.384	27129.78
572.582	26939.32
572.781	26875.84
572.979	26253.25
573.177	26615.74
573.376	26886.08
573.574	26073.03
573.772	26398.66
573.971	26400.71
574.169	26101.7
574.367	26206.15
574.565	26290.12
574.763	26122.18
574.962	26144.71
575.16	25790.41
575.358	26152.9
575.556	25593.81
575.754	26169.29
575.952	25454.54
576.151	25823.18
576.349	25327.57
576.547	25599.95
576.745	25573.33
576.943	25323.47
577.141	25356.24
577.339	25249.75
577.537	25311.19
577.735	25139.16
577.933	24905.69
578.131	24999.9
578.329	25313.24
578.527	24932.31
578.725	24690.65
578.923	25061.33
579.121	24985.56
579.319	24557.53
579.516	24782.81
579.714	24461.28
579.912	24686.56
580.11	24299.49
580.308	24307.68
580.506	24578.01
580.704	23977.96
580.901	24240.1
581.099	24201.19
581.297	23734.25
581.495	24236
581.692	23945.19
581.89	23742.44
582.088	23990.25
582.285	23881.7
582.483	23928.81
582.681	23783.4
582.878	23361.52
583.076	23638
583.274	23797.74
583.471	23304.18
583.669	23625.71
583.866	23117.81
584.064	23017.46
584.262	22827
584.459	23183.35
584.657	23076.85
584.854	23019.51
585.052	22384.64
585.249	22935.54
585.447	22884.34
585.644	22575.1
585.841	22636.54
586.039	22859.77
586.236	22376.45
586.434	22341.63
586.631	22272
586.828	22392.83
587.026	22102.02
587.223	21999.62
587.42	21866.5
587.618	22110.21
587.815	21864.46
588.012	21846.02
588.21	21608.46
588.407	21843.98
588.604	21878.79
588.801	21596.17
588.999	21286.93
589.196	21567.5
589.393	21303.31
589.59	21239.83
589.787	21020.69
589.984	21397.52
590.182	21030.93
590.379	21311.5
590.576	21065.75
590.773	21200.91
590.97	20736.02
591.167	21272.59
591.364	20713.5
591.561	20785.18
591.758	20609.05
591.955	20686.87
592.152	20809.75
592.349	20463.65
592.546	20416.54
592.743	20312.1
592.94	20287.52
593.137	20277.28
593.334	20557.85
593.531	19949.6
593.727	20330.53
593.924	20213.79
594.121	19988.52
594.318	19884.07
594.515	19666.99
594.712	20142.11
594.908	19816.49
595.105	20066.34
595.302	19642.41
595.499	19843.11
595.696	19560.49
595.892	19333.17
596.089	19447.85
596.286	19509.29
596.482	19458.09
596.679	19286.06
596.876	19171.38
597.072	19353.65
597.269	19154.99
597.466	19173.42
597.662	19034.16
597.859	18993.2
598.055	18634.81
598.252	18757.69
598.448	18806.84
598.645	18847.8
598.841	18581.56
599.038	18995.25
599.234	18880.57
599.431	18501.69
599.627	18440.25
599.824	18729.02
600.02	18315.33
600.217	18344
600.413	18358.33
600.609	18153.54
600.806	18305.09
601.002	18071.62
601.198	18264.13
601.395	17967.17
601.591	17846.34
601.787	17786.95
601.984	17688.65
602.18	17838.15
602.376	17559.63
602.572	17635.4
602.769	17674.31
602.965	17383.5
603.161	17672.26
603.357	17119.31
603.553	17221.71
603.75	17573.96
603.946	17053.78
604.142	17283.15
604.338	17393.74
604.534	17041.49
604.73	16996.43
604.926	17029.2
605.122	17086.54
605.318	16873.56
605.514	16681.05
605.71	16738.39
605.906	16685.14
606.102	16697.43
606.298	16472.15
606.494	16474.2
606.69	16785.49
606.886	16490.59
607.082	16437.34
607.278	16509.02
607.474	16291.93
607.67	16267.36
607.866	16164.96
608.062	16298.08
608.257	16298.08
608.453	16029.79
608.649	16011.36
608.845	16066.66
609.041	16003.17
609.236	16171.1
609.432	15988.83
609.628	16349.28
609.824	15892.58
610.019	15913.06
610.215	15757.41
610.411	15855.72
610.606	15718.5
610.802	15878.24
610.998	15827.04
611.193	15822.95
611.389	15454.31
611.584	15587.43
611.78	15390.83
611.976	15536.23
612.171	15624.29
612.367	15476.84
612.562	15630.44
612.758	15177.84
612.953	15362.15
613.149	15462.51
613.344	15319.15
613.539	15573.1
613.735	15517.8
613.93	15216.75
614.126	14960.75
614.321	15267.95
614.517	15169.65
614.712	15018.1
614.907	14897.27
615.103	14850.16
615.298	14938.23
615.493	15175.79
615.688	14727.28
615.884	15124.59
616.079	14745.72
616.274	14915.7
616.47	15038.58
616.665	15018.1
616.86	14755.96
617.055	14817.4
617.25	14669.94
617.445	14788.72
617.641	14508.15
617.836	14688.37
618.031	14518.39
618.226	14379.13
618.421	14084.22
618.616	14389.37
618.811	14321.79
619.006	14585.97
619.201	14022.78
619.396	14188.67
619.591	13799.55
619.786	14092.41
619.981	13887.62
620.176	13932.67
620.371	13969.54
620.566	14028.93
620.761	13904
620.956	13887.62
621.151	13609.09
621.346	13738.12
621.541	13478.02
621.735	13695.11
621.93	13101.2
622.125	13316.23
622.32	13043.85
622.515	13267.08
622.709	13093.01
622.904	12877.97
623.099	12826.77
623.294	13103.25
623.488	12814.48
623.683	12980.37
623.878	12626.07
624.072	13060.24
624.267	12816.53
624.462	12478.61
624.656	12581.01
624.851	12495
625.046	12126.36
625.24	12236.95
625.435	12286.11
625.629	12087.45
625.824	11954.33
626.018	12282.01
626.213	11995.29
626.407	11974.81
626.602	11991.2
626.796	11798.69
626.991	11522.21
627.185	11647.14
627.38	11659.43
627.574	11372.71
627.768	11561.12
627.963	11348.14
628.157	11270.31
628.352	11323.56
628.546	11227.31
628.74	11315.37
628.935	11069.61
629.129	11075.76
629.323	10752.18
629.517	10956.97
629.712	10686.64
629.906	10885.3
630.1	10645.68
630.294	10637.49
630.489	10524.85
630.683	10404.02
630.877	10406.07
631.071	10440.89
631.265	10504.37
631.459	10315.96
631.653	10197.18
631.848	10369.21
632.042	10096.83
632.236	10150.07
632.43	10223.8
632.624	10037.44
632.818	9986.24
633.012	9980.09
633.206	9744.58
633.4	10016.96
633.594	9808.06
633.788	9783.49
633.982	9621.7
634.176	9500.87
634.369	9527.49
634.563	9586.88
634.757	9283.78
634.951	9410.76
635.145	9341.13
635.339	9402.57
635.533	9171.15
635.726	9300.17
635.92	9162.95
636.114	9193.67
636.308	8866
636.501	9177.29
636.695	9035.98
636.889	8900.81
637.083	8952.01
637.276	8859.85
637.47	8800.46
637.664	8683.73
637.857	8710.35
638.051	8753.36
638.244	8509.65
638.438	8636.63
638.632	8603.86
638.825	8462.55
639.019	8278.23
639.212	8407.25
639.406	8464.6
639.599	8186.07
639.793	8313.05
639.986	8120.54
640.18	8147.16
640.373	8016.09
640.567	8067.29
640.76	8026.33
640.954	7983.32
641.147	7895.26
641.34	7803.1
641.534	7919.84
641.727	7774.43
641.92	7858.4
642.114	7770.33
642.307	7614.69
642.5	7743.71
642.694	7393.51
642.887	7698.66
643.08	7467.24
643.273	7504.1
643.467	7391.46
643.66	7459.04
643.853	7180.52
644.046	7309.54
644.239	7205.1
644.432	7219.43
644.626	7133.42
644.819	7098.6
645.012	7137.51
645.205	7164.14
645.398	7182.57
645.591	7031.02
645.784	6998.25
645.977	7000.3
646.17	7096.55
646.363	6779.12
646.556	6801.65
646.749	6813.93
646.942	6858.99
647.135	6680.82
647.328	6815.98
647.521	6662.38
647.714	6637.81
647.907	6674.67
648.099	6582.51
648.292	6713.58
648.485	6652.14
648.678	6295.8
648.871	6396.15
649.064	6244.6
649.256	6361.33
649.449	6318.32
649.642	6254.84
649.835	6140.15
650.027	6150.39
650.22	6140.15
650.413	6007.03
650.605	6064.38
650.798	6113.53
650.991	6021.37
651.183	5996.79
651.376	5953.79
651.568	6107.38
651.761	5892.35
651.954	6019.32
652.146	5925.11
652.339	5716.22
652.531	5751.04
652.724	5685.5
652.916	5662.97
653.109	5613.82
653.301	5691.65
653.494	5718.27
653.686	5515.52
653.879	5538.05
654.071	5525.76
654.263	5490.95
654.456	5411.07
654.648	5544.19
654.84	5372.16
655.033	5368.07
655.225	5445.89
655.417	5208.33
655.61	5355.78
655.802	5370.12
655.994	5312.77
656.186	5130.5
656.379	5220.61
656.571	5060.87
656.763	5009.67
656.955	5081.35
657.148	5056.78
657.34	5130.5
657.532	4874.51
657.724	5050.63
657.916	4874.51
658.108	4827.4
658.3	4804.88
658.492	4927.75
658.684	4821.26
658.876	4952.33
659.068	4794.64
659.26	4786.44
659.452	4733.2
659.644	4725.01
659.836	4641.04
660.028	4790.54
660.22	4696.33
660.412	4682
660.604	4632.85
660.796	4585.74
660.988	4673.81
661.18	4542.74
661.372	4509.97
661.563	4587.79
661.755	4409.62
661.947	4389.14
662.139	4495.63
662.331	4303.12
662.522	4352.27
662.714	4370.71
662.906	4264.21
663.097	4407.57
663.289	4206.87
663.481	4124.95
663.673	4174.1
663.864	4163.86
664.056	4053.27
664.247	4077.85
664.439	4149.53
664.631	3981.59
664.822	4045.08
665.014	3967.26
665.205	4057.37
665.397	4116.76
665.588	4020.5
665.78	3963.16
665.971	4024.6
666.163	3914.01
666.354	3928.35
666.546	3823.9
666.737	3881.24
666.929	3887.39
667.12	3891.48
667.311	3827.99
667.503	3885.34
667.694	3774.75
667.885	3729.69
668.077	3746.08
668.268	3569.95
668.459	3821.85
668.651	3655.97
668.842	3647.77
669.033	3516.7
669.224	3582.24
669.416	3746.08
669.607	3617.05
669.798	3508.51
669.989	3516.7
670.18	3557.66
670.371	3588.38
670.563	3442.98
670.754	3492.13
670.945	3483.94
671.136	3483.94
671.327	3344.67
671.518	3344.67
671.709	3389.73
671.9	3418.4
672.091	3440.93
672.282	3494.18
672.473	3373.35
672.664	3330.34
672.855	3387.68
673.046	3322.15
673.237	3225.89
673.428	3180.84
673.619	3275.04
673.809	3232.04
674	3229.99
674.191	3193.12
674.382	3191.08
674.573	3182.88
674.764	3189.03
674.954	3324.19
675.145	3135.78
675.336	3152.17
675.527	3139.88
675.717	3017
675.908	3115.3
676.099	3193.12
676.289	3215.65
676.48	3008.81
676.671	3008.81
676.861	3074.34
677.052	3039.53
677.243	3029.29
677.433	2976.04
677.624	3060.01
677.814	3025.19
678.005	2963.75
678.195	3021.1
678.386	2904.36
678.576	2885.93
678.767	2855.21
678.957	2951.46
679.148	3017
679.338	3008.81
679.529	2871.59
679.719	2896.17
679.909	2873.64
680.1	2761
680.29	3021.1
680.481	2732.33
680.671	2779.43
680.861	2959.66
681.052	2834.73
681.242	2926.89
681.432	2771.24
681.622	2806.06
681.813	2857.26
682.003	2820.39
682.193	2844.97
682.383	2890.03
682.573	2734.38
682.764	2812.2
682.954	2836.78
683.144	2789.67
683.334	2695.47
683.524	2787.63
683.714	2709.8
683.904	2693.42
684.094	2631.98
684.284	2740.52
684.474	2629.93
684.664	2623.79
684.854	2691.37
685.044	2681.13
685.234	2582.83
685.424	2664.75
685.614	2586.93
685.804	2631.98
685.994	2552.11
686.184	2552.11
686.374	2451.76
686.564	2562.35
686.753	2558.25
686.943	2423.09
687.133	2545.97
687.323	2597.17
687.513	2576.69
687.702	2443.57
687.892	2355.51
688.082	2474.29
688.272	2578.73
688.461	2550.06
688.651	2406.7
688.841	2404.66
689.03	2369.84
689.22	2423.09
689.41	2318.64
689.599	2470.19
689.789	2459.95
689.979	2361.65
690.168	2445.62
690.358	2316.59
690.547	2285.87
690.737	2427.18
690.926	2355.51
691.116	2246.96
691.305	2369.84
691.495	2320.69
691.684	2236.72
691.874	2349.36
692.063	2265.39
692.252	2287.92
692.442	2271.54
692.631	2216.24
692.82	2246.96
693.01	2269.49
693.199	2271.54
693.388	2099.51
693.578	2238.77
693.767	2193.72
693.956	2107.7
694.146	2089.27
694.335	2306.35
694.524	2189.62
694.713	2199.86
694.902	2144.56
695.092	2255.15
695.281	2156.85
695.47	2124.08
695.659	2119.99
695.848	2142.52
696.037	2156.85
696.226	2150.71
696.415	2107.7
696.604	2144.56
696.793	2054.45
696.982	2050.36
697.171	2068.79
697.36	2054.45
697.549	2027.83
697.738	1993.01
697.927	1993.01
698.116	1995.06
698.305	1984.82
698.494	2009.4
698.683	1970.49
698.872	2070.84
699.061	2107.7
699.25	2023.73
699.438	1904.95
699.627	1984.82
699.816	2107.7
700.005	1962.3
700.193	1997.11
700.382	2001.21
700.571	2097.46
700.76	2001.21
700.948	2058.55
701.137	1972.54
701.326	1993.01
701.514	1919.29
701.703	1937.72
701.892	1896.76
702.08	1972.54
702.269	1911.1
702.457	1923.38
702.646	1978.68
702.834	1972.54
703.023	1958.2
703.212	1911.1
703.4	2036.02
703.589	1962.3
703.777	1845.56
703.965	2021.69
704.154	1943.86
704.342	1886.52
704.531	1935.67
704.719	1919.29
704.907	1982.78
705.096	1919.29
705.284	1894.71
705.472	1894.71
705.661	1964.34
705.849	1960.25
706.037	1902.9
706.226	1907
706.414	2001.21
706.602	1880.38
706.79	1827.13
706.979	1937.72
707.167	1919.29
707.355	1902.9
707.543	1882.42
707.731	2083.13
707.919	1886.52
708.107	1755.45
708.296	1919.29
708.484	1861.94
708.672	1952.06
708.86	1759.55
709.048	1884.47
709.236	1855.8
709.424	1857.85
709.612	1782.07
709.8	1833.27
709.988	1829.18
710.176	1878.33
710.364	1978.68
710.551	1714.49
710.739	1960.25
710.927	1835.32
711.115	1816.89
711.303	1874.23
711.491	1890.62
711.679	1823.03
711.866	1808.7
712.054	1870.14
712.242	1929.53
712.43	1894.71
712.617	1943.86
712.805	1855.8
712.993	1902.9
713.181	1782.07
713.368	1872.18
713.556	1929.53
713.744	1816.89
713.931	1896.76
714.119	1812.79
714.306	1853.75
714.494	1780.03
714.682	1872.18
714.869	1863.99
715.057	1886.52
715.244	1820.99
715.432	1843.51
715.619	1855.8
715.807	1915.19
715.994	1874.23
716.182	1847.61
716.369	1835.32
716.556	1950.01
716.744	1831.23
716.931	1855.8
717.119	1882.42
717.306	1870.14
717.493	1935.67
717.681	1829.18
717.868	1763.64
718.055	1853.75
718.242	1872.18
718.43	1888.57
718.617	1872.18
718.804	1878.33
718.991	1798.46
719.179	1952.06
719.366	1829.18
719.553	1845.56
719.74	1847.61
719.927	1841.47
720.114	1724.73
720.301	1888.57
720.488	1782.07
720.676	1866.04
720.863	1788.22
721.05	1868.09
721.237	1841.47
721.424	1810.75
721.611	1945.91
721.798	1843.51
721.985	1679.68
722.172	1804.6
722.358	1806.65
722.545	1904.95
722.732	1890.62
722.919	1714.49
723.106	1800.51
723.293	1911.1
723.48	1833.27
723.667	1814.84
723.853	1845.56
724.04	1866.04
724.227	1802.55
724.414	1759.55
724.6	1812.79
724.787	1757.5
724.974	1874.23
725.161	1741.11
725.347	1739.07
725.534	1716.54
725.72	1716.54
725.907	1898.81
726.094	1691.96
726.28	1923.38
726.467	1780.03
726.653	1808.7
726.84	1767.74
727.027	1857.85
727.213	1755.45
727.4	1775.93
727.586	1878.33
727.773	1868.09
727.959	1732.92
728.145	1800.51
728.332	1847.61
728.518	1816.89
728.705	1861.94
728.891	1698.11
729.077	1775.93
729.264	1806.65
729.45	1739.07
729.636	1769.79
729.823	1812.79
730.009	1737.02
730.195	1870.14
730.382	1796.41
730.568	1724.73
730.754	1780.03
730.94	1786.17
731.126	1753.4
731.313	1835.32
731.499	1710.4
731.685	1718.59
731.871	1669.44
732.057	1874.23
732.243	1747.26
732.429	1814.84
732.615	1837.37
732.801	1788.22
732.987	1780.03
733.173	1808.7
733.359	1767.74
733.545	1743.16
733.731	1759.55
733.917	1816.89
734.103	1804.6
734.289	1716.54
734.475	1747.26
734.661	1720.64
734.847	1704.25
735.033	1714.49
735.219	1755.45
735.404	1681.72
735.59	1638.72
735.776	1773.88
735.962	1796.41
736.148	1724.73
736.333	1771.83
736.519	1726.78
736.705	1732.92
736.89	1773.88
737.076	1737.02
737.262	1773.88
737.447	1763.64
737.633	1741.11
737.819	1732.92
738.004	1704.25
738.19	1745.21
738.375	1722.68
738.561	1751.35
738.747	1782.07
738.932	1765.69
739.118	1691.96
739.303	1651
739.489	1667.39
739.674	1687.87
739.859	1683.77
740.045	1579.33
740.23	1665.34
740.416	1610.04
740.601	1667.39
740.786	1694.01
740.972	1624.38
741.157	1599.8
741.342	1575.23
741.528	1558.85
741.713	1700.16
741.898	1558.85
742.084	1589.57
742.269	1608
742.454	1517.89
742.639	1587.52
742.824	1519.93
743.01	1528.13
743.195	1708.35
743.38	1511.74
743.565	1526.08
743.75	1470.78
743.935	1491.26
744.12	1610.04
744.305	1485.12
744.49	1519.93
744.675	1493.31
744.86	1583.42
745.045	1509.69
745.23	1505.6
745.415	1456.45
745.6	1567.04
745.785	1427.78
745.97	1421.63
746.155	1521.98
746.34	1458.5
746.525	1464.64
746.71	1599.8
746.895	1397.06
747.079	1481.02
747.264	1421.63
747.449	1446.21
747.634	1468.73
747.819	1456.45
748.003	1421.63
748.188	1352
748.373	1362.24
748.557	1347.9
748.742	1323.33
748.927	1321.28
749.111	1306.95
749.296	1243.46
749.481	1352
749.665	1321.28
749.85	1313.09
750.034	1308.99
750.219	1288.51
750.404	1184.07
750.588	1354.05
750.773	1272.13
750.957	1243.46
751.141	1210.69
751.326	1218.88
751.51	1210.69
751.695	1235.27
751.879	1296.71
752.064	1276.23
752.248	1263.94
752.432	1288.51
752.617	1167.68
752.801	1177.92
752.985	1175.88
753.17	1257.79
753.354	1128.77
753.538	1233.22
753.722	1053
753.907	1100.1
754.091	1198.4
754.275	1167.68
754.459	1118.53
754.643	1093.96
754.828	1132.87
755.012	1153.35
755.196	964.93
755.38	1085.76
755.564	1143.11
755.748	1044.81
755.932	1124.68
756.116	1124.68
756.3	1089.86
756.484	919.88
756.668	1020.23
756.852	1067.33
757.036	1044.81
757.22	1001.8
757.404	989.51
757.588	1001.8
757.772	997.7
757.956	1026.37
758.14	989.51
758.323	919.88
758.507	981.32
758.691	997.7
758.875	971.08
759.059	960.84
759.242	1012.04
759.426	895.3
759.61	907.59
759.794	1026.37
759.977	928.07
760.161	962.89
760.345	936.26
760.528	883.02
760.712	1003.85
760.895	891.21
761.079	899.4
761.263	837.96
761.446	860.49
761.63	891.21
761.813	891.21
761.997	835.91
762.18	852.3
762.364	930.12
762.547	887.11
762.731	862.54
762.914	833.86
763.098	842.06
763.281	794.95
763.464	897.35
763.648	823.62
763.831	919.88
764.015	788.81
764.198	844.1
764.381	905.54
764.564	770.38
764.748	872.78
764.931	727.37
765.114	870.73
765.297	801.1
765.481	772.43
765.664	823.62
765.847	854.34
766.03	891.21
766.213	809.29
766.397	784.71
766.58	733.51
766.763	788.81
766.946	778.57
767.129	772.43
767.312	797
767.495	797
767.678	821.58
767.861	758.09
768.044	776.52
768.227	819.53
768.41	727.37
768.593	743.75
768.776	684.36
768.959	790.86
769.142	688.46
769.324	698.7
769.507	688.46
769.69	706.89
769.873	797
770.056	772.43
770.239	690.51
770.421	694.6
770.604	807.24
770.787	706.89
770.97	717.13
771.152	708.94
771.335	731.47
771.518	747.85
771.7	760.14
771.883	784.71
772.066	682.31
772.248	733.51
772.431	735.56
772.613	700.75
772.796	659.79
772.978	727.37
773.161	659.79
773.343	661.84
773.526	686.41
773.708	627.02
773.891	608.59
774.073	631.12
774.256	610.64
774.438	686.41
774.621	608.59
774.803	653.64
774.985	618.83
775.168	661.84
775.35	624.97
775.532	635.21
775.715	641.36
775.897	616.78
776.079	606.54
776.261	672.08
776.444	600.4
776.626	616.78
776.808	534.86
776.99	538.96
777.173	561.48
777.355	526.67
777.537	553.29
777.719	602.44
777.901	495.95
778.083	592.2
778.265	498
778.447	534.86
778.629	495.95
778.811	592.2
778.993	547.15
779.175	575.82
779.357	526.67
779.539	432.46
779.721	549.2
779.903	530.77
780.085	493.9
780.267	551.24
780.449	557.39
780.631	567.63
780.812	461.13
780.994	493.9
781.176	416.08
781.358	498
781.54	454.99
781.721	430.41
781.903	514.38
782.085	465.23
782.267	473.42
782.448	518.48
782.63	463.18
782.812	463.18
782.993	418.13
783.175	450.89
783.357	420.17
783.538	510.29
783.72	424.27
783.901	407.89
784.083	452.94
784.264	477.52
784.446	463.18
784.627	440.65
784.809	325.97
784.99	440.65
785.172	440.65
785.353	442.7
785.535	477.52
785.716	393.55
785.897	307.54
786.079	432.46
786.26	416.08
786.441	444.75
786.623	334.16
786.804	403.79
786.985	348.5
787.167	356.69
787.348	354.64
787.529	340.3
787.71	522.57
787.891	407.89
788.073	289.1
788.254	338.26
788.435	389.46
788.616	418.13
788.797	321.87
788.978	362.83
789.159	366.93
789.34	346.45
789.522	371.02
789.703	325.97
789.884	309.58
790.065	330.06
790.246	401.74
790.427	297.3
790.607	371.02
790.788	293.2
790.969	293.2
791.15	371.02
791.331	285.01
791.512	305.49
791.693	274.77
791.874	289.1
792.054	321.87
792.235	282.96
792.416	315.73
792.597	305.49
792.778	280.91
792.958	242
793.139	260.43
793.32	354.64
793.5	282.96
793.681	313.68
793.862	272.72
794.042	307.54
794.223	301.39
794.404	223.57
794.584	219.47
794.765	276.82
794.945	248.15
795.126	258.39
795.306	315.73
795.487	338.26
795.667	188.75
795.848	258.39
796.028	309.58
796.209	266.58
796.389	264.53
796.57	258.39
796.75	178.51
796.93	342.35
797.111	225.62
797.291	248.15
797.471	223.57
797.652	194.9
797.832	225.62
798.012	268.63
798.192	272.72
798.373	198.99
798.553	274.77
798.733	274.77
798.913	168.27
799.093	198.99
799.274	153.94
799.454	235.86
799.634	285.01
799.814	231.76
799.994	233.81
800.174	248.15
800.354	117.08
800.534	211.28
800.714	260.43
800.894	180.56
801.074	184.66
801.254	215.38
801.434	231.76
801.614	237.91
801.794	174.42
801.974	813.38
802.154	149.84
802.334	244.05
802.514	201.04
802.693	233.81
802.873	188.75
803.053	198.99
803.233	250.19
803.413	252.24
803.592	180.56
803.772	166.23
803.952	252.24
804.131	90.45
804.311	211.28
804.491	264.53
804.67	180.56
804.85	201.04
805.03	215.38
805.209	207.19
805.389	127.32
805.568	211.28
805.748	153.94
805.928	186.71
806.107	244.05
806.287	166.23
806.466	158.03
806.646	137.56
806.825	110.93
807.004	168.27
807.184	260.43
807.363	198.99
807.543	149.84
807.722	176.47
807.901	256.34
808.081	129.36
808.26	94.55
808.439	143.7
808.619	166.23
808.798	198.99
808.977	174.42
809.156	182.61
809.336	153.94
809.515	192.85
809.694	82.26
809.873	178.51
810.052	143.7
810.231	207.19
810.411	92.5
810.59	215.38
810.769	72.02
810.948	239.95
811.127	59.73
811.306	170.32
811.485	141.65
811.664	110.93
811.843	209.23
812.022	166.23
812.201	102.74
812.38	153.94
812.559	104.79
812.737	135.51
812.916	63.83
813.095	162.13
813.274	205.14
813.453	121.17
813.632	168.27
813.811	104.79
813.989	76.12
814.168	158.03
814.347	117.08
814.526	143.7
814.704	123.22
814.883	186.71
815.062	57.68
815.24	141.65
815.419	110.93
815.598	100.69
815.776	117.08
815.955	108.88
816.133	133.46
816.312	108.88
816.49	63.83
816.669	149.84
816.847	125.27
817.026	94.55
817.204	135.51
817.383	176.47
817.561	112.98
817.74	137.56
817.918	194.9
818.097	121.17
818.275	53.59
818.453	168.27
818.632	186.71
818.81	147.8
818.988	63.83
819.167	67.92
819.345	117.08
819.523	106.84
819.701	26.96
819.879	78.16
820.058	98.64
820.236	86.36
820.414	10.58
820.592	80.21
820.77	110.93
820.948	86.36
821.127	100.69
821.305	63.83
821.483	49.49
821.661	51.54
821.839	162.13
822.017	192.85
822.195	117.08
822.373	174.42
822.551	125.27
822.729	166.23
822.907	121.17
823.085	143.7
823.262	20.82
823.44	61.78
823.618	139.6
823.796	84.31
823.974	129.36
824.152	69.97
824.329	45.4
824.507	24.92
824.685	63.83
824.863	43.35
825.04	94.55
825.218	112.98
825.396	115.03
825.574	69.97
825.751	47.44
825.929	110.93
826.107	115.03
826.284	174.42
826.462	10.58
826.639	20.82
826.817	31.06
826.994	117.08
827.172	47.44
827.349	121.17
827.527	72.02
827.704	51.54
827.882	127.32
828.059	55.64
828.237	86.36
828.414	92.5
828.591	84.31
828.769	108.88
828.946	67.92
829.124	51.54
829.301	110.93
829.478	84.31
829.655	72.02
829.833	74.07
830.01	22.87
830.187	80.21
830.364	55.64
830.542	51.54
830.719	69.97
830.896	166.23
831.073	141.65
831.25	108.88
831.427	84.31
831.604	78.16
831.782	-5.8
831.959	59.73
832.136	164.18
832.313	57.68
832.49	45.4
832.667	96.6
832.844	51.54
833.021	104.79
833.198	63.83
833.374	82.26
833.551	160.08
833.728	-13.99
833.905	98.64
834.082	74.07
834.259	76.12
834.436	20.82
834.612	86.36
834.789	67.92
834.966	92.5
835.143	78.16
835.319	100.69
835.496	108.88
835.673	74.07
835.85	119.12
836.026	86.36
836.203	76.12
836.38	67.92
836.556	-1.71
836.733	119.12
836.909	98.64
837.086	-1.71
837.262	-42.67
837.439	69.97
837.616	61.78
837.792	-11.95
837.968	108.88
838.145	-34.47
838.321	88.4
838.498	29.01
838.674	108.88
838.851	112.98
839.027	10.58
839.203	-1.71
839.38	133.46
839.556	63.83
839.732	29.01
839.909	63.83
840.085	31.06
840.261	49.49
840.437	43.35
840.614	53.59
840.79	98.64
840.966	104.79
841.142	18.77
841.318	-20.14
841.494	51.54
841.671	106.84
841.847	-22.19
842.023	-3.75
842.199	45.4
842.375	57.68
842.551	29.01
842.727	-36.52
842.903	69.97
843.079	26.96
843.255	76.12
843.431	76.12
843.607	100.69
843.783	61.78
843.959	104.79
844.134	20.82
844.31	115.03
844.486	67.92
844.662	51.54
844.838	76.12
845.013	2.39
845.189	29.01
845.365	67.92
845.541	10.58
845.716	37.2
845.892	18.77
846.068	16.73
846.244	67.92
846.419	84.31
846.595	51.54
846.77	-20.14
846.946	125.27
847.122	6.49
847.297	102.74
847.473	117.08
847.648	61.78
847.824	8.53
847.999	-26.28
848.175	-3.75
848.35	-1.71
848.526	108.88
848.701	26.96
848.876	121.17
849.052	18.77
849.227	59.73
849.403	61.78
849.578	43.35
849.753	-20.14
849.929	80.21
850.104	14.68
850.279	4.44
850.454	0.34
850.63	37.2
850.805	14.68
850.98	59.73
851.155	0.34
851.33	51.54
851.505	57.68
851.681	110.93
851.856	18.77
852.031	84.31
852.206	59.73
852.381	63.83
852.556	-1.71
852.731	72.02
852.906	51.54
853.081	63.83
853.256	69.97
853.431	29.01
853.606	-24.23
853.781	-1.71
853.956	2.39
854.131	22.87
854.305	-5.8
854.48	69.97
854.655	20.82
854.83	18.77
855.005	18.77
855.18	14.68
855.354	-9.9
855.529	20.82
855.704	10.58
855.879	31.06
856.053	4.44
856.228	20.82
856.403	6.49
856.577	14.68
856.752	-52.91
856.926	33.11
857.101	104.79
857.276	20.82
857.45	55.64
857.625	51.54
857.799	59.73
857.974	-7.85
858.148	2.39
858.323	57.68
858.497	-38.57
858.672	-5.8
858.846	-30.38
859.02	84.31
859.195	0.34
859.369	80.21
859.543	29.01
859.718	63.83
859.892	-63.15
860.066	47.44
860.241	26.96
860.415	67.92
860.589	100.69
860.763	26.96
860.938	-22.19
861.112	117.08
861.286	-20.14
861.46	37.2
861.634	104.79
861.808	12.63
861.982	35.16
862.157	2.39
862.331	22.87
862.505	35.16
862.679	72.02
862.853	-63.15
863.027	59.73
863.201	141.65
863.375	14.68
863.549	72.02
863.722	92.5
863.896	6.49
864.07	-22.19
864.244	26.96
864.418	-9.9
864.592	29.01
864.766	39.25
864.939	20.82
865.113	4.44
865.287	86.36
865.461	67.92
865.634	145.75
865.808	22.87
865.982	59.73
866.156	-13.99
866.329	4.44
866.503	-11.95
866.676	100.69
866.85	125.27
867.024	-1.71
867.197	35.16
867.371	106.84
867.544	26.96
867.718	12.63
867.891	39.25
868.065	-28.33
868.238	53.59
868.412	24.92
868.585	84.31
868.759	10.58
868.932	-73.39
869.105	-28.33
869.279	-5.8
869.452	-13.99
869.625	49.49
869.799	4.44
869.972	-20.14
870.145	49.49
870.319	74.07
870.492	4.44
870.665	63.83
870.838	22.87
871.011	-48.81
871.185	12.63
871.358	86.36
871.531	35.16
871.704	-38.57
871.877	45.4
872.05	24.92
872.223	-3.75
872.396	8.53
872.569	-13.99
872.742	-9.9
872.915	-28.33
873.088	-18.09
873.261	53.59
873.434	51.54
873.607	6.49
873.78	51.54
873.953	20.82
874.126	47.44
874.299	31.06
874.471	10.58
874.644	-34.47
874.817	102.74
874.99	110.93
875.163	37.2
875.335	0.34
875.508	39.25
875.681	47.44
875.853	-36.52
876.026	2.39
876.199	45.4
876.371	43.35
876.544	29.01
876.717	-42.67
876.889	10.58
877.062	26.96
877.234	51.54
877.407	-5.8
877.579	-30.38
877.752	10.58
877.924	35.16
878.097	-28.33
878.269	45.4
878.442	-1.71
878.614	55.64
878.786	92.5
878.959	-26.28
879.131	-11.95
879.303	53.59
879.476	63.83
879.648	55.64
879.82	29.01
879.993	43.35
880.165	-22.19
880.337	2.39
880.509	10.58
880.681	-67.24
880.854	-36.52
881.026	6.49
881.198	69.97
881.37	43.35
881.542	-18.09
881.714	88.4
881.886	-18.09
882.058	4.44
882.23	31.06
882.402	-3.75
882.574	76.12
882.746	-3.75
882.918	37.2
883.09	76.12
883.262	59.73
883.434	29.01
883.606	51.54
883.778	26.96
883.95	14.68
884.122	4.44
884.293	59.73
884.465	18.77
884.637	49.49
884.809	63.83
884.98	10.58
885.152	39.25
885.324	-54.95
885.496	33.11
885.667	22.87
885.839	-18.09
886.011	43.35
886.182	-3.75
886.354	51.54
886.525	94.55
886.697	26.96
886.869	24.92
887.04	-11.95
887.212	-16.04
887.383	45.4
887.555	37.2
887.726	18.77
887.897	-9.9
888.069	37.2
888.24	18.77
888.412	51.54
888.583	10.58
888.754	16.73
888.926	-3.75
889.097	-52.91
889.268	14.68
889.44	45.4
889.611	-32.43
889.782	-5.8
889.953	6.49
890.125	-7.85
890.296	2.39
890.467	31.06
890.638	12.63
890.809	-22.19
890.98	-34.47
891.151	-1.71
891.323	6.49
891.494	14.68
891.665	-50.86
891.836	-5.8
892.007	-26.28
892.178	29.01
892.349	0.34
892.52	10.58
892.691	-1.71
892.862	55.64
893.032	20.82
893.203	2.39
893.374	-24.23
893.545	51.54
893.716	-77.48
893.887	16.73
894.057	18.77
894.228	-9.9
894.399	-32.43
894.57	51.54
894.74	43.35
894.911	67.92
895.082	-36.52
895.253	4.44
895.423	29.01
895.594	59.73
895.764	31.06
895.935	16.73
896.106	96.6
896.276	-38.57
896.447	-16.04
896.617	59.73
896.788	-40.62
896.958	14.68
897.129	53.59
897.299	6.49
897.47	31.06
897.64	10.58
897.81	-22.19
897.981	-5.8
898.151	-44.71
898.322	53.59
898.492	37.2
898.662	26.96
898.832	4.44
899.003	-3.75
899.173	26.96
899.343	10.58
899.513	-22.19
