Data from USB4F104151__114__14-43-52-590.txt Node

Date: Thu Mar 13 14:43:52 EDT 2025
User: louis
Spectrometer: USB4F10415
Trigger mode: 4
Integration Time (sec): 2.000000E-2
Scans to average: 1
Electric dark correction enabled: true
Nonlinearity correction enabled: false
Boxcar width: 0
XAxis mode: Wavelengths
Number of Pixels in Spectrum: 3648
>>>>>Begin Spectral Data<<<<<
178.204	-166.4
178.424	-166.4
178.644	-166.4
178.864	-102.91
179.084	-78.33
179.304	36.35
179.524	30.21
179.744	1.54
179.964	-16.9
180.184	3.58
180.404	38.4
180.624	-18.94
180.844	5.63
181.064	-94.72
181.283	58.88
181.503	-70.14
181.723	26.11
181.943	-57.86
182.163	42.5
182.383	17.92
182.602	99.84
182.822	34.3
183.042	83.45
183.262	54.78
183.482	-6.66
183.701	56.83
183.921	50.69
184.141	-8.7
184.361	75.26
184.58	-18.94
184.8	5.63
185.02	-10.75
185.239	32.26
185.459	97.79
185.679	50.69
185.898	-2.56
186.118	91.65
186.338	-10.75
186.557	9.73
186.777	-20.99
186.997	24.06
187.216	11.78
187.436	69.12
187.655	5.63
187.875	-39.42
188.095	67.07
188.314	50.69
188.534	44.54
188.753	-37.38
188.973	-55.81
189.192	-8.7
189.412	7.68
189.631	36.35
189.851	38.4
190.07	108.03
190.29	-55.81
190.509	-12.8
190.729	46.59
190.948	40.45
191.168	91.65
191.387	-29.18
191.607	26.11
191.826	48.64
192.045	-39.42
192.265	15.87
192.484	36.35
192.704	83.45
192.923	3.58
193.142	108.03
193.362	91.65
193.581	9.73
193.8	83.45
194.02	17.92
194.239	73.21
194.458	3.58
194.678	-10.75
194.897	42.5
195.116	-10.75
195.335	17.92
195.555	13.82
195.774	11.78
195.993	56.83
196.212	-61.95
196.432	22.02
196.651	40.45
196.87	46.59
197.089	50.69
197.308	60.93
197.528	60.93
197.747	-6.66
197.966	-12.8
198.185	-23.04
198.404	-31.23
198.623	32.26
198.842	-29.18
199.062	128.51
199.281	58.88
199.5	7.68
199.719	9.73
199.938	-12.8
200.157	52.74
200.376	11.78
200.595	34.3
200.814	38.4
201.033	9.73
201.252	73.21
201.471	-31.23
201.69	67.07
201.909	83.45
202.128	69.12
202.347	-18.94
202.566	9.73
202.785	26.11
203.004	-14.85
203.223	134.65
203.442	126.46
203.661	22.02
203.879	26.11
204.098	42.5
204.317	77.31
204.536	17.92
204.755	101.89
204.974	97.79
205.193	40.45
205.411	93.69
205.63	52.74
205.849	40.45
206.068	-2.56
206.287	-31.23
206.505	36.35
206.724	9.73
206.943	58.88
207.162	28.16
207.381	30.21
207.599	73.21
207.818	11.78
208.037	7.68
208.255	-14.85
208.474	9.73
208.693	1.54
208.911	30.21
209.13	85.5
209.349	-12.8
209.567	36.35
209.786	28.16
210.005	91.65
210.223	3.58
210.442	-25.09
210.661	93.69
210.879	-39.42
211.098	34.3
211.316	7.68
211.535	-8.7
211.753	-31.23
211.972	97.79
212.191	-4.61
212.409	34.3
212.628	112.13
212.846	108.03
213.065	58.88
213.283	9.73
213.502	58.88
213.72	-37.38
213.938	7.68
214.157	75.26
214.375	-10.75
214.594	28.16
214.812	91.65
215.031	28.16
215.249	-6.66
215.467	58.88
215.686	-23.04
215.904	48.64
216.122	1.54
216.341	52.74
216.559	-72.19
216.778	75.26
216.996	97.79
217.214	-0.51
217.432	17.92
217.651	17.92
217.869	17.92
218.087	42.5
218.306	11.78
218.524	32.26
218.742	-39.42
218.96	69.12
219.179	-35.33
219.397	-14.85
219.615	40.45
219.833	-70.14
220.051	19.97
220.27	50.69
220.488	36.35
220.706	-12.8
220.924	44.54
221.142	-43.52
221.36	103.93
221.578	58.88
221.796	58.88
222.015	75.26
222.233	58.88
222.451	1.54
222.669	34.3
222.887	101.89
223.105	19.97
223.323	-6.66
223.541	77.31
223.759	19.97
223.977	-55.81
224.195	38.4
224.413	40.45
224.631	28.16
224.849	-2.56
225.067	42.5
225.285	83.45
225.503	46.59
225.721	13.82
225.939	11.78
226.157	58.88
226.375	34.3
226.592	19.97
226.81	1.54
227.028	32.26
227.246	9.73
227.464	42.5
227.682	13.82
227.9	26.11
228.117	50.69
228.335	48.64
228.553	-31.23
228.771	19.97
228.989	34.3
229.206	52.74
229.424	-74.24
229.642	60.93
229.86	69.12
230.077	-33.28
230.295	-27.14
230.513	30.21
230.731	134.65
230.948	67.07
231.166	91.65
231.384	50.69
231.601	-6.66
231.819	48.64
232.037	44.54
232.254	9.73
232.472	30.21
232.689	-8.7
232.907	17.92
233.125	-29.18
233.342	-35.33
233.56	-12.8
233.777	9.73
233.995	77.31
234.213	-31.23
234.43	-4.61
234.648	58.88
234.865	-29.18
235.083	38.4
235.3	13.82
235.518	46.59
235.735	52.74
235.953	62.98
236.17	-27.14
236.388	-86.53
236.605	17.92
236.822	83.45
237.04	13.82
237.257	58.88
237.475	11.78
237.692	77.31
237.909	77.31
238.127	17.92
238.344	7.68
238.562	11.78
238.779	-45.57
238.996	-59.9
239.214	7.68
239.431	79.36
239.648	7.68
239.865	52.74
240.083	-12.8
240.3	54.78
240.517	-39.42
240.735	26.11
240.952	-0.51
241.169	67.07
241.386	-37.38
241.603	91.65
241.821	11.78
242.038	17.92
242.255	69.12
242.472	-23.04
242.689	54.78
242.907	67.07
243.124	38.4
243.341	9.73
243.558	-16.9
243.775	17.92
243.992	-55.81
244.209	-14.85
244.426	67.07
244.643	75.26
244.86	-43.52
245.078	44.54
245.295	-45.57
245.512	65.02
245.729	-31.23
245.946	28.16
246.163	17.92
246.38	30.21
246.597	-2.56
246.814	42.5
247.031	-23.04
247.248	-14.85
247.464	-18.94
247.681	13.82
247.898	-2.56
248.115	42.5
248.332	-66.05
248.549	58.88
248.766	91.65
248.983	91.65
249.2	67.07
249.417	71.17
249.633	3.58
249.85	93.69
250.067	46.59
250.284	71.17
250.501	77.31
250.717	46.59
250.934	-45.57
251.151	34.3
251.368	1.54
251.585	5.63
251.801	3.58
252.018	-39.42
252.235	67.07
252.451	1.54
252.668	-31.23
252.885	-12.8
253.102	-14.85
253.318	-2.56
253.535	69.12
253.752	-4.61
253.968	1.54
254.185	-14.85
254.401	-53.76
254.618	36.35
254.835	-31.23
255.051	85.5
255.268	-31.23
255.484	54.78
255.701	-0.51
255.917	83.45
256.134	-66.05
256.351	-14.85
256.567	-47.62
256.784	116.22
257	-61.95
257.217	15.87
257.433	65.02
257.65	112.13
257.866	67.07
258.082	11.78
258.299	-12.8
258.515	34.3
258.732	44.54
258.948	-100.86
259.165	67.07
259.381	7.68
259.597	50.69
259.814	19.97
260.03	5.63
260.246	42.5
260.463	17.92
260.679	-4.61
260.895	58.88
261.112	46.59
261.328	1.54
261.544	-23.04
261.761	99.84
261.977	1.54
262.193	36.35
262.409	3.58
262.626	54.78
262.842	67.07
263.058	-61.95
263.274	34.3
263.49	3.58
263.707	17.92
263.923	-8.7
264.139	-43.52
264.355	67.07
264.571	93.69
264.787	62.98
265.004	50.69
265.22	36.35
265.436	-6.66
265.652	-29.18
265.868	71.17
266.084	-64
266.3	75.26
266.516	17.92
266.732	28.16
266.948	1.54
267.164	-2.56
267.38	17.92
267.596	58.88
267.812	105.98
268.028	62.98
268.244	-4.61
268.46	9.73
268.676	67.07
268.892	26.11
269.108	-55.81
269.324	3.58
269.54	-31.23
269.756	-4.61
269.972	-76.29
270.188	-6.66
270.403	-10.75
270.619	-2.56
270.835	17.92
271.051	22.02
271.267	38.4
271.483	1.54
271.698	116.22
271.914	-12.8
272.13	9.73
272.346	42.5
272.562	24.06
272.777	58.88
272.993	26.11
273.209	3.58
273.425	34.3
273.64	-4.61
273.856	3.58
274.072	19.97
274.287	-10.75
274.503	36.35
274.719	52.74
274.934	-14.85
275.15	60.93
275.366	34.3
275.581	1.54
275.797	44.54
276.012	1.54
276.228	79.36
276.444	46.59
276.659	28.16
276.875	-49.66
277.09	30.21
277.306	15.87
277.521	54.78
277.737	75.26
277.952	56.83
278.168	19.97
278.383	-61.95
278.599	17.92
278.814	62.98
279.03	56.83
279.245	60.93
279.461	3.58
279.676	38.4
279.892	34.3
280.107	19.97
280.322	77.31
280.538	75.26
280.753	-6.66
280.969	44.54
281.184	-55.81
281.399	83.45
281.615	30.21
281.83	22.02
282.045	17.92
282.26	38.4
282.476	1.54
282.691	58.88
282.906	110.08
283.122	-12.8
283.337	26.11
283.552	17.92
283.767	-8.7
283.983	93.69
284.198	3.58
284.413	-14.85
284.628	13.82
284.843	34.3
285.058	-23.04
285.274	75.26
285.489	9.73
285.704	69.12
285.919	-33.28
286.134	-39.42
286.349	-2.56
286.564	26.11
286.779	-31.23
286.995	-10.75
287.21	5.63
287.425	9.73
287.64	19.97
287.855	-14.85
288.07	-20.99
288.285	42.5
288.5	42.5
288.715	50.69
288.93	9.73
289.145	-23.04
289.36	54.78
289.575	17.92
289.79	75.26
290.004	52.74
290.219	38.4
290.434	50.69
290.649	32.26
290.864	9.73
291.079	34.3
291.294	9.73
291.509	46.59
291.724	19.97
291.938	1.54
292.153	-6.66
292.368	-2.56
292.583	60.93
292.798	30.21
293.012	83.45
293.227	-64
293.442	83.45
293.657	17.92
293.871	65.02
294.086	-14.85
294.301	124.41
294.516	15.87
294.73	1.54
294.945	-4.61
295.16	50.69
295.374	30.21
295.589	-47.62
295.804	3.58
296.018	42.5
296.233	22.02
296.447	1.54
296.662	-6.66
296.877	42.5
297.091	79.36
297.306	32.26
297.52	22.02
297.735	17.92
297.949	1.54
298.164	34.3
298.378	-8.7
298.593	28.16
298.807	-23.04
299.022	26.11
299.236	99.84
299.451	-6.66
299.665	54.78
299.88	34.3
300.094	52.74
300.309	58.88
300.523	-25.09
300.737	-10.75
300.952	77.31
301.166	44.54
301.381	30.21
301.595	34.3
301.809	30.21
302.024	3.58
302.238	-6.66
302.452	-12.8
302.667	-4.61
302.881	81.41
303.095	34.3
303.309	75.26
303.524	38.4
303.738	-47.62
303.952	26.11
304.166	69.12
304.381	-27.14
304.595	60.93
304.809	46.59
305.023	3.58
305.237	46.59
305.452	42.5
305.666	50.69
305.88	52.74
306.094	58.88
306.308	-12.8
306.522	62.98
306.736	114.17
306.95	44.54
307.164	-55.81
307.379	22.02
307.593	26.11
307.807	67.07
308.021	-8.7
308.235	60.93
308.449	-29.18
308.663	38.4
308.877	67.07
309.091	73.21
309.305	46.59
309.519	13.82
309.733	9.73
309.947	-27.14
310.161	11.78
310.374	101.89
310.588	81.41
310.802	-51.71
311.016	52.74
311.23	34.3
311.444	71.17
311.658	71.17
311.872	-25.09
312.085	9.73
312.299	3.58
312.513	1.54
312.727	87.55
312.941	19.97
313.154	5.63
313.368	95.74
313.582	34.3
313.796	58.88
314.009	3.58
314.223	26.11
314.437	32.26
314.651	-10.75
314.864	60.93
315.078	9.73
315.292	26.11
315.505	9.73
315.719	46.59
315.933	3.58
316.146	17.92
316.36	28.16
316.573	114.17
316.787	65.02
317.001	77.31
317.214	52.74
317.428	50.69
317.641	-55.81
317.855	22.02
318.068	-10.75
318.282	22.02
318.495	89.6
318.709	108.03
318.922	-10.75
319.136	83.45
319.349	17.92
319.563	40.45
319.776	69.12
319.99	62.98
320.203	-2.56
320.417	-14.85
320.63	52.74
320.843	9.73
321.057	-12.8
321.27	34.3
321.483	50.69
321.697	17.92
321.91	13.82
322.124	9.73
322.337	-23.04
322.55	17.92
322.763	28.16
322.977	44.54
323.19	44.54
323.403	-47.62
323.617	-12.8
323.83	75.26
324.043	34.3
324.256	58.88
324.469	-10.75
324.683	110.08
324.896	38.4
325.109	26.11
325.322	9.73
325.535	124.41
325.748	48.64
325.962	-12.8
326.175	36.35
326.388	-6.66
326.601	22.02
326.814	26.11
327.027	44.54
327.24	99.84
327.453	36.35
327.666	52.74
327.879	34.3
328.092	69.12
328.305	1.54
328.518	77.31
328.731	-6.66
328.944	34.3
329.157	38.4
329.37	30.21
329.583	95.74
329.796	22.02
330.009	-14.85
330.222	93.69
330.435	58.88
330.648	42.5
330.861	24.06
331.073	26.11
331.286	13.82
331.499	58.88
331.712	-0.51
331.925	108.03
332.138	40.45
332.35	56.83
332.563	-23.04
332.776	56.83
332.989	-29.18
333.202	-37.38
333.414	-4.61
333.627	85.5
333.84	34.3
334.053	67.07
334.265	-16.9
334.478	-16.9
334.691	101.89
334.903	101.89
335.116	-14.85
335.329	83.45
335.541	17.92
335.754	32.26
335.966	19.97
336.179	54.78
336.392	-6.66
336.604	-10.75
336.817	83.45
337.029	19.97
337.242	50.69
337.454	91.65
337.667	30.21
337.88	99.84
338.092	91.65
338.305	-4.61
338.517	-47.62
338.729	93.69
338.942	60.93
339.154	67.07
339.367	-12.8
339.579	17.92
339.792	19.97
340.004	9.73
340.217	56.83
340.429	77.31
340.641	69.12
340.854	-0.51
341.066	17.92
341.278	46.59
341.491	124.41
341.703	46.59
341.915	13.82
342.128	46.59
342.34	-4.61
342.552	26.11
342.764	83.45
342.977	-29.18
343.189	1.54
343.401	-31.23
343.613	32.26
343.826	-61.95
344.038	42.5
344.25	52.74
344.462	3.58
344.674	24.06
344.886	5.63
345.099	42.5
345.311	28.16
345.523	-4.61
345.735	-80.38
345.947	50.69
346.159	42.5
346.371	95.74
346.583	-6.66
346.795	67.07
347.007	5.63
347.219	103.93
347.431	-23.04
347.643	75.26
347.855	50.69
348.067	58.88
348.279	26.11
348.491	54.78
348.703	-31.23
348.915	28.16
349.127	7.68
349.339	11.78
349.551	36.35
349.763	44.54
349.975	44.54
350.187	120.32
350.399	34.3
350.61	-64
350.822	13.82
351.034	-4.61
351.246	67.07
351.458	19.97
351.669	-12.8
351.881	9.73
352.093	60.93
352.305	17.92
352.517	50.69
352.728	93.69
352.94	75.26
353.152	79.36
353.363	-23.04
353.575	-0.51
353.787	58.88
353.999	79.36
354.21	44.54
354.422	-14.85
354.633	30.21
354.845	1.54
355.057	-16.9
355.268	17.92
355.48	73.21
355.692	-51.71
355.903	26.11
356.115	38.4
356.326	-45.57
356.538	19.97
356.749	73.21
356.961	52.74
357.172	-39.42
357.384	58.88
357.595	179.71
357.807	32.26
358.018	-29.18
358.23	-49.66
358.441	91.65
358.653	30.21
358.864	26.11
359.075	-16.9
359.287	105.98
359.498	58.88
359.709	-35.33
359.921	19.97
360.132	44.54
360.344	19.97
360.555	-23.04
360.766	26.11
360.977	28.16
361.189	24.06
361.4	52.74
361.611	110.08
361.823	36.35
362.034	44.54
362.245	17.92
362.456	34.3
362.667	38.4
362.879	9.73
363.09	58.88
363.301	-37.38
363.512	73.21
363.723	58.88
363.935	-23.04
364.146	19.97
364.357	5.63
364.568	22.02
364.779	-27.14
364.99	83.45
365.201	58.88
365.412	26.11
365.623	-31.23
365.834	116.22
366.045	52.74
366.256	-0.51
366.467	28.16
366.678	-6.66
366.889	-12.8
367.1	15.87
367.311	91.65
367.522	73.21
367.733	97.79
367.944	46.59
368.155	134.65
368.366	58.88
368.577	95.74
368.788	58.88
368.999	-29.18
369.209	95.74
369.42	85.5
369.631	62.98
369.842	62.98
370.053	50.69
370.264	65.02
370.474	34.3
370.685	36.35
370.896	42.5
371.107	5.63
371.317	50.69
371.528	46.59
371.739	34.3
371.95	36.35
372.16	58.88
372.371	26.11
372.582	-6.66
372.792	71.17
373.003	44.54
373.214	116.22
373.424	85.5
373.635	54.78
373.846	91.65
374.056	34.3
374.267	42.5
374.477	22.02
374.688	19.97
374.898	108.03
375.109	-2.56
375.319	42.5
375.53	-23.04
375.74	-8.7
375.951	-18.94
376.161	83.45
376.372	26.11
376.582	97.79
376.793	85.5
377.003	36.35
377.214	62.98
377.424	26.11
377.635	50.69
377.845	56.83
378.055	34.3
378.266	-59.9
378.476	-10.75
378.686	-2.56
378.897	52.74
379.107	67.07
379.317	34.3
379.528	-10.75
379.738	69.12
379.948	-14.85
380.158	108.03
380.369	26.11
380.579	42.5
380.789	67.07
380.999	71.17
381.21	77.31
381.42	17.92
381.63	67.07
381.84	50.69
382.05	46.59
382.261	71.17
382.471	75.26
382.681	44.54
382.891	73.21
383.101	32.26
383.311	13.82
383.521	17.92
383.731	26.11
383.941	30.21
384.151	110.08
384.361	34.3
384.571	93.69
384.781	-18.94
384.991	58.88
385.201	38.4
385.411	-2.56
385.621	79.36
385.831	1.54
386.041	-61.95
386.251	17.92
386.461	101.89
386.671	87.55
386.881	46.59
387.091	79.36
387.301	69.12
387.511	71.17
387.72	83.45
387.93	67.07
388.14	22.02
388.35	71.17
388.56	60.93
388.769	3.58
388.979	67.07
389.189	9.73
389.399	58.88
389.609	50.69
389.818	114.17
390.028	38.4
390.238	93.69
390.447	34.3
390.657	38.4
390.867	62.98
391.076	95.74
391.286	71.17
391.496	30.21
391.705	42.5
391.915	93.69
392.125	75.26
392.334	71.17
392.544	44.54
392.753	38.4
392.963	30.21
393.172	42.5
393.382	42.5
393.591	54.78
393.801	-4.61
394.01	34.3
394.22	101.89
394.429	81.41
394.639	3.58
394.848	26.11
395.058	-16.9
395.267	32.26
395.477	108.03
395.686	112.13
395.895	126.46
396.105	153.09
396.314	91.65
396.524	148.99
396.733	46.59
396.942	79.36
397.152	58.88
397.361	142.85
397.57	126.46
397.78	36.35
397.989	65.02
398.198	79.36
398.407	22.02
398.617	67.07
398.826	126.46
399.035	83.45
399.244	79.36
399.453	24.06
399.663	54.78
399.872	75.26
400.081	42.5
400.29	140.8
400.499	26.11
400.708	42.5
400.917	157.18
401.127	34.3
401.336	91.65
401.545	151.04
401.754	95.74
401.963	91.65
402.172	62.98
402.381	-12.8
402.59	58.88
402.799	75.26
403.008	110.08
403.217	-2.56
403.426	44.54
403.635	67.07
403.844	9.73
404.053	116.22
404.262	65.02
404.471	134.65
404.68	71.17
404.888	60.93
405.097	60.93
405.306	116.22
405.515	126.46
405.724	34.3
405.933	124.41
406.142	159.23
406.35	44.54
406.559	83.45
406.768	198.14
406.977	192
407.185	108.03
407.394	130.56
407.603	138.75
407.812	235
408.02	198.14
408.229	148.99
408.438	230.91
408.646	75.26
408.855	167.42
409.064	116.22
409.272	206.33
409.481	222.72
409.69	163.33
409.898	151.04
410.107	192
410.315	232.96
410.524	181.76
410.733	239.1
410.941	232.96
411.15	288.25
411.358	259.58
411.567	292.35
411.775	329.21
411.984	306.68
412.192	339.45
412.401	298.49
412.609	325.12
412.818	331.26
413.026	314.88
413.234	361.98
413.443	323.07
413.651	304.64
413.86	431.61
414.068	355.83
414.276	460.28
414.485	447.99
414.693	398.84
414.901	466.42
415.11	460.28
415.318	491
415.526	517.62
415.734	548.34
415.943	472.57
416.151	560.63
416.359	544.25
416.567	607.73
416.776	632.31
416.984	603.64
417.192	667.13
417.4	593.4
417.608	695.8
417.817	654.84
418.025	744.95
418.233	849.4
418.441	800.24
418.649	747
418.857	828.92
419.065	792.05
419.273	886.26
419.481	849.4
419.689	962.03
419.897	1035.76
420.105	968.18
420.313	1035.76
420.521	994.8
420.729	1109.49
420.937	1080.82
421.145	1172.97
421.353	1107.44
421.561	1316.33
421.769	1267.18
421.977	1222.13
422.185	1316.33
422.393	1385.96
422.601	1533.42
422.809	1451.5
423.017	1557.99
423.224	1623.53
423.432	1668.58
423.64	1711.59
423.848	1791.46
424.056	1807.84
424.263	1869.28
424.471	1871.33
424.679	1848.8
424.887	1943.01
425.094	2115.04
425.302	1893.86
425.51	2147.81
425.718	2297.31
425.925	2211.29
426.133	2223.58
426.341	2426.33
426.548	2581.98
426.756	2538.97
426.964	2559.45
427.171	2659.8
427.379	2856.4
427.586	2866.64
427.794	2790.87
428.001	3071.44
428.209	3188.18
428.417	3087.82
428.624	3288.53
428.832	3188.18
429.039	3368.4
429.247	3321.29
429.454	3732.94
429.662	4009.41
429.869	3663.3
430.076	3780.04
430.284	3737.03
430.491	3864.01
430.699	4218.3
430.906	4163.01
431.114	4277.69
431.321	4392.38
431.528	4433.34
431.736	4912.57
431.943	4881.85
432.15	4707.77
432.358	4914.61
432.565	5178.8
432.772	5031.35
432.979	5340.59
433.187	5500.33
433.394	5518.76
433.601	5907.88
433.808	5864.87
434.016	5748.14
434.223	6063.52
434.43	6493.6
434.637	6440.35
434.844	6688.15
435.052	6743.45
435.259	6843.8
435.466	6837.66
435.673	6808.98
435.88	7335.31
436.087	7630.22
436.294	7550.35
436.501	7423.37
436.708	7505.29
436.915	7851.4
437.122	8265.09
437.329	8299.91
437.537	8340.86
437.743	8551.81
437.95	8314.24
438.157	9022.84
438.364	9248.11
438.571	9334.13
438.778	9356.66
438.985	10083.69
439.192	9758.06
439.399	9805.16
439.606	9649.52
439.813	10231.14
440.02	10784.09
440.227	10831.19
440.433	10603.87
440.64	10970.46
440.847	10919.26
441.054	11285.84
441.261	11918.67
441.467	11844.94
441.674	11945.29
441.881	12209.48
442.088	12297.54
442.294	12469.57
442.501	12598.59
442.708	13114.68
442.914	13360.44
443.121	13747.5
443.328	13366.58
443.534	14607.65
443.741	14066.99
443.948	13884.72
444.154	15041.82
444.361	14931.23
444.568	14935.32
444.774	14927.13
444.981	14959.9
445.187	15568.15
445.394	16178.44
445.6	15912.21
445.807	17566.96
446.013	16682.24
446.22	16938.24
446.426	17609.97
446.633	17908.97
446.839	18371.82
447.046	17788.14
447.252	18613.48
447.459	18883.81
447.665	18793.7
447.871	19326.17
448.078	20315.34
448.284	19260.63
448.491	19799.25
448.697	20593.86
448.903	21236.92
449.11	21091.52
449.316	20538.57
449.522	20901.06
449.728	21486.78
449.935	22039.73
450.141	21558.46
450.347	22310.06
450.553	21685.43
450.76	21961.9
450.966	22682.79
451.172	22117.55
451.378	23211.17
451.584	22461.61
451.791	23329.95
451.997	22938.79
452.203	23237.79
452.409	23569.56
452.615	23278.75
452.821	22631.59
453.027	22348.97
453.233	23336.09
453.44	22504.62
453.646	23147.68
453.852	22930.59
454.058	23291.04
454.264	22602.92
454.47	22979.75
454.676	22670.5
454.882	23434.39
455.088	21173.44
455.294	21537.98
455.5	22189.23
455.705	22226.09
455.911	21068.99
456.117	20911.3
456.323	20604.1
456.529	19457.24
456.735	20276.43
456.941	19825.87
457.147	19647.7
457.352	18812.13
457.558	18785.51
457.764	18863.33
457.97	18582.76
458.176	18169.07
458.381	18506.98
458.587	17566.96
458.793	17259.77
458.999	16373
459.204	17667.31
459.41	17204.47
459.616	16297.22
459.821	16155.91
460.027	16131.34
460.233	15664.4
460.438	15105.31
460.644	15039.77
460.85	14449.96
461.055	14163.24
461.261	14107.94
461.466	13049.14
461.672	12807.48
461.878	13604.14
462.083	12668.22
462.289	12453.19
462.494	12307.78
462.7	11808.08
462.905	11552.08
463.111	12135.75
463.316	11978.06
463.522	11707.73
463.727	11664.72
463.932	11769.16
464.138	11441.49
464.343	11437.39
464.549	11089.24
464.754	11371.86
464.959	11380.05
465.165	11335
465.37	10921.31
465.575	10667.36
465.781	11085.14
465.986	11236.69
466.191	10673.5
466.397	10454.37
466.602	9979.24
466.807	10270.05
467.012	10394.98
467.218	10478.94
467.423	10145.13
467.628	10188.13
467.833	10722.65
468.038	10300.77
468.244	9979.24
468.449	10360.16
468.654	10104.17
468.859	9913.7
469.064	9905.51
469.269	9280.88
469.474	9586.03
469.679	9760.11
469.885	9385.33
470.09	9684.33
470.295	9500.02
470.5	9493.87
470.705	9282.93
470.91	9127.28
471.115	9291.12
471.32	9209.2
471.525	9211.25
471.73	8998.26
471.935	9090.42
472.139	8611.2
472.344	8832.38
472.549	8650.11
472.754	8465.79
472.959	8336.77
473.164	8152.45
473.369	8097.16
473.574	8318.34
473.778	8314.24
473.983	8299.91
474.188	8306.05
474.393	7970.18
474.598	7835.02
474.802	7808.39
475.007	7820.68
475.212	7763.34
475.417	7452.05
475.621	7644.56
475.826	7579.02
476.031	7378.32
476.235	7153.04
476.44	7493.01
476.645	7032.21
476.849	7185.81
477.054	7015.83
477.259	6915.48
477.463	7048.6
477.668	6786.46
477.872	6843.8
478.077	6673.82
478.282	6593.95
478.486	6452.64
478.691	6610.33
478.895	6575.52
479.1	6546.84
479.304	6757.78
479.509	6360.48
479.713	6428.06
479.918	6307.23
480.122	6143.39
480.326	6368.67
480.531	6524.32
480.735	6069.67
480.94	6124.96
481.144	6378.91
481.348	6096.29
481.553	6213.03
481.757	5946.79
481.961	6145.44
482.166	6210.98
482.37	5977.51
482.574	6081.96
482.778	6010.28
482.983	6094.24
483.187	6180.26
483.391	5965.22
483.595	5942.69
483.8	6036.9
484.004	6012.32
484.208	6030.76
484.412	6041
484.616	6149.54
484.821	6184.35
485.025	5920.17
485.229	6129.06
485.433	5983.65
485.637	5991.84
485.841	5965.22
486.045	6018.47
486.249	6073.76
486.453	6000.04
486.657	5907.88
486.861	6038.95
487.065	6030.76
487.269	5965.22
487.473	6041
487.677	6114.72
487.881	6067.62
488.085	6038.95
488.289	6118.82
488.493	6002.08
488.697	6106.53
488.901	6092.2
489.105	6045.09
489.309	6112.67
489.512	6172.07
489.716	6112.67
489.92	5885.35
490.124	6133.15
490.328	6309.28
490.531	6041
490.735	6223.27
490.939	6065.57
491.143	6141.35
491.346	6288.8
491.55	6251.94
491.754	6225.31
491.958	6464.93
492.161	6292.9
492.365	6370.72
492.569	6407.58
492.772	6309.28
492.976	6393.25
493.18	6587.8
493.383	6512.03
493.587	6489.5
493.79	6667.67
493.994	6471.07
494.197	6585.76
494.401	6653.34
494.605	6614.43
494.808	6598.04
495.012	7036.31
495.215	6714.78
495.419	6886.81
495.622	6923.67
495.825	6931.86
496.029	6851.99
496.232	7021.97
496.436	7218.58
496.639	7216.53
496.843	7075.22
497.046	7548.3
497.249	7433.61
497.453	7255.44
497.656	7452.05
497.859	7654.8
498.063	7710.09
498.266	7935.37
498.469	7816.58
498.673	7863.69
498.876	8078.72
499.079	7953.8
499.282	8127.88
499.485	8244.61
499.689	8326.53
499.892	8543.61
500.095	8187.27
500.298	8727.93
500.501	8435.07
500.705	8750.46
500.908	8818.04
501.111	8875.38
501.314	9211.25
501.517	9086.33
501.72	9160.05
501.923	9287.03
502.126	9450.86
502.329	9547.12
502.532	9784.68
502.735	9758.06
502.938	9766.25
503.141	9893.23
503.344	10044.77
503.547	10175.84
503.75	10290.53
503.953	10446.18
504.156	10470.75
504.359	10272.1
504.562	10632.54
504.765	10890.59
504.968	10947.93
505.17	10929.5
505.373	11054.42
505.576	11529.55
505.779	11285.84
505.982	11572.56
506.185	11687.25
506.387	11824.46
506.59	11838.8
506.793	12154.18
506.996	11920.71
507.198	12385.6
507.401	12324.16
507.604	12375.36
507.807	12766.53
508.009	12600.64
508.212	12815.68
508.415	12948.79
508.617	13124.92
508.82	13360.44
509.022	13172.02
509.225	13839.66
509.428	13608.24
509.63	13800.75
509.833	13616.43
510.035	14310.69
510.238	14161.19
510.44	14267.69
510.643	14669.09
510.845	14787.87
511.048	14695.71
511.25	14683.42
511.453	15043.87
511.655	15641.87
511.858	15371.54
512.06	15465.75
512.262	15496.47
512.465	15670.54
512.667	15942.92
512.87	15910.16
513.072	16033.04
513.274	16542.98
513.477	16346.37
513.679	16737.54
513.881	16903.42
514.084	16995.58
514.286	17194.23
514.488	17110.27
514.69	17810.67
514.893	17581.3
515.095	17583.35
515.297	17997.04
515.499	17992.94
515.701	18220.27
515.904	18349.29
516.106	18603.24
516.308	18533.61
516.51	18812.13
516.712	18879.71
516.914	18982.11
517.116	19414.23
517.318	19463.38
517.52	19539.16
517.722	19723.48
517.925	20030.67
518.127	20296.91
518.329	20309.19
518.531	20315.34
518.733	20597.96
518.935	21136.57
519.136	20921.54
519.338	21159.1
519.54	21333.18
519.742	21400.76
519.944	21468.34
520.146	21707.96
520.348	22205.61
520.55	22084.78
520.752	22217.9
520.954	22660.26
521.155	22088.88
521.357	22901.92
521.559	23004.32
521.761	23338.14
521.963	23229.6
522.164	23524.51
522.366	23637.14
522.568	23637.14
522.77	23792.79
522.971	24327.31
523.173	23887
523.375	24169.62
523.576	23985.3
523.778	24206.48
523.98	24900.74
524.181	24761.48
524.383	24779.91
524.584	25089.15
524.786	25248.89
524.988	25271.42
525.189	25144.45
525.391	25758.84
525.592	25681.02
525.794	25691.26
525.995	25764.98
526.197	25891.96
526.398	25707.64
526.6	25939.06
526.801	26100.85
527.003	26303.6
527.204	26467.44
527.406	26993.76
527.607	26627.18
527.808	26991.72
528.01	26612.84
528.211	26651.75
528.412	27163.75
528.614	26522.73
528.815	27143.27
529.016	27104.35
529.218	27102.31
529.419	27286.62
529.62	27348.06
529.822	27110.5
530.023	27417.69
530.224	27171.94
530.425	27307.1
530.626	27186.27
530.828	27350.11
531.029	27970.65
531.23	27786.33
531.431	27769.94
531.632	27749.46
531.833	27726.94
532.035	27720.79
532.236	27827.29
532.437	27978.84
532.638	28019.8
532.839	28185.68
533.04	28083.28
533.241	27587.68
533.442	28300.37
533.643	28159.06
533.844	27907.16
534.045	28232.79
534.246	27667.55
534.447	28335.18
534.648	28193.87
534.849	28316.75
535.05	27753.56
535.251	28060.76
535.451	27841.62
535.652	28232.79
535.853	28232.79
536.054	27913.3
536.255	28300.37
536.456	28218.45
536.657	28423.25
536.857	28140.63
537.058	28038.23
537.259	28587.08
537.46	28087.38
537.66	28060.76
537.861	28372.05
538.062	27728.98
538.263	27907.16
538.463	27991.12
538.664	28005.46
538.865	28322.9
539.065	28269.65
539.266	28019.8
539.466	27982.93
539.667	27872.34
539.868	28324.94
540.068	28214.35
540.269	27860.05
540.469	28355.66
540.67	27692.12
540.87	28288.08
541.071	27968.6
541.271	28093.52
541.472	27722.84
541.672	27694.17
541.873	27642.97
542.073	27624.54
542.274	28202.07
542.474	28058.71
542.675	27620.44
542.875	27950.17
543.075	28068.95
543.276	27513.95
543.476	28007.51
543.676	27964.5
543.877	27966.55
544.077	27880.53
544.277	27927.64
544.478	27751.51
544.678	27702.36
544.878	27999.32
545.078	27950.17
545.279	27894.87
545.479	27841.62
545.679	27759.7
545.879	27921.49
546.079	27843.67
546.28	27593.82
546.48	27630.68
546.68	28017.75
546.88	27778.14
547.08	27937.88
547.28	27710.55
547.48	27411.55
547.68	27919.45
547.88	27360.35
548.081	27948.12
548.281	27653.21
548.481	27393.12
548.681	27694.17
548.881	27870.29
549.081	27696.22
549.28	27522.14
549.48	27663.45
549.68	27573.34
549.88	27649.11
550.08	27421.79
550.28	27581.53
550.48	27403.36
550.68	27587.68
550.88	27229.28
551.08	27591.77
551.279	27524.19
551.479	27628.63
551.679	27493.47
551.879	27440.22
552.079	27561.05
552.278	27520.09
552.478	27567.2
552.678	27286.62
552.878	27679.83
553.077	27182.18
553.277	27173.99
553.477	27618.39
553.676	27331.68
553.876	27167.84
554.076	27114.59
554.275	27327.58
554.475	27012.2
554.674	27378.78
554.874	27116.64
555.074	27063.4
555.273	27319.39
555.473	27200.61
555.672	26920.04
555.872	27087.97
556.071	27024.48
556.271	27038.82
556.47	26942.56
556.67	27038.82
556.869	26799.21
557.068	26780.78
557.268	26674.28
557.467	26719.34
557.667	26997.86
557.866	26850.41
558.065	26750.06
558.265	26688.62
558.464	26641.51
558.663	26950.76
558.863	26590.31
559.062	26948.71
559.261	26186.86
559.461	26834.02
559.66	26289.26
559.859	26168.43
560.058	26406
560.258	26203.25
560.457	26293.36
560.656	26287.21
560.855	26193.01
561.054	26012.79
561.253	25977.97
561.453	26145.91
561.652	26223.73
561.851	26207.34
562.05	25785.46
562.249	25664.63
562.448	26004.6
562.647	25937.01
562.846	25961.59
563.045	25676.92
563.244	25447.55
563.443	25904.24
563.642	25160.83
563.841	25738.36
564.04	25463.93
564.239	25525.37
564.438	25494.65
564.637	25595
564.836	25597.05
565.035	25148.54
565.234	25003.14
565.432	25173.12
565.631	24941.7
565.83	24876.16
566.029	25205.89
566.228	24913.03
566.427	25095.3
566.625	24863.88
566.824	24638.6
567.023	25052.29
567.222	24652.94
567.42	24890.5
567.619	24847.49
567.818	24358.03
568.016	24388.75
568.215	24599.69
568.414	24597.64
568.612	24796.29
568.811	24251.53
569.01	24317.07
569.208	23907.48
569.407	24343.69
569.605	23839.89
569.804	24212.62
570.002	24099.98
570.201	24069.26
570.4	23995.54
570.598	23633.05
570.797	23598.23
570.995	23637.14
571.193	23432.35
571.392	23551.13
571.59	23565.46
571.789	23729.3
571.987	23444.63
572.186	23504.03
572.384	23274.65
572.582	23274.65
572.781	23405.72
572.979	23067.81
573.177	23139.49
573.376	22996.13
573.574	22742.18
573.772	23215.26
573.971	22680.74
574.169	22723.75
574.367	22564.01
574.565	22809.76
574.763	22561.96
574.962	22635.69
575.16	22348.97
575.358	22660.26
575.556	22131.89
575.754	22678.69
575.952	21865.65
576.151	22535.34
576.349	22219.95
576.547	22211.76
576.745	22068.4
576.943	22035.63
577.141	22111.41
577.339	22095.02
577.537	21857.46
577.735	21834.93
577.933	21689.53
578.131	21804.21
578.329	21851.31
578.527	21234.88
578.725	21515.45
578.923	21527.74
579.121	21574.84
579.319	21382.33
579.516	21679.29
579.714	21437.62
579.912	21087.42
580.11	21017.79
580.308	21202.11
580.506	21120.19
580.704	20864.19
580.901	20989.12
581.099	21105.85
581.297	20681.92
581.495	20778.18
581.692	20786.37
581.89	20509.9
582.088	20778.18
582.285	20876.48
582.483	20800.71
582.681	20301
582.878	20278.47
583.076	20268.23
583.274	20419.78
583.471	20102.35
583.669	20266.19
583.866	20182.22
584.064	19975.38
584.262	19676.37
584.459	20145.36
584.657	19842.26
584.854	20030.67
585.052	19711.19
585.249	19897.55
585.447	20141.26
585.644	19551.45
585.841	19637.46
586.039	19680.47
586.236	19279.07
586.434	19608.79
586.631	19467.48
586.828	19203.29
587.026	19410.14
587.223	19320.03
587.42	19225.82
587.618	19549.4
587.815	19064.03
588.012	18875.62
588.21	18955.49
588.407	18996.45
588.604	18881.76
588.801	18693.35
588.999	18679.01
589.196	18945.25
589.393	18498.79
589.59	18533.61
589.787	18650.34
589.984	18719.97
590.182	18093.29
590.379	18519.27
590.576	18220.27
590.773	18244.84
590.97	18177.26
591.167	17929.45
591.364	18031.85
591.561	18244.84
591.758	17992.94
591.955	18005.23
592.152	18154.73
592.349	17726.71
592.546	17829.1
592.743	17845.49
592.94	17435.89
593.137	17759.47
593.334	17665.27
593.531	17374.45
593.727	17632.5
593.924	17495.29
594.121	17050.88
594.318	17302.78
594.515	17319.16
594.712	17167.61
594.908	17028.35
595.105	17175.8
595.302	16942.33
595.499	17003.77
595.696	17122.55
595.892	16719.1
596.089	17020.16
596.286	16958.72
596.482	16852.22
596.679	16745.73
596.876	16686.34
597.072	16684.29
597.269	16389.38
597.466	16508.16
597.662	16518.4
597.859	16268.55
598.055	16450.82
598.252	16370.95
598.448	16528.64
598.645	16145.67
598.841	16035.08
599.038	16184.59
599.234	16321.8
599.431	16104.71
599.627	15863.05
599.824	16094.47
600.02	15797.52
600.217	15951.12
600.413	15879.44
600.609	15734.03
600.806	15516.95
601.002	15813.9
601.198	15527.19
601.395	15650.07
601.591	15576.34
601.787	15469.84
601.984	15387.93
602.18	15562
602.376	15219.99
602.572	15293.72
602.769	15301.91
602.965	15219.99
603.161	15185.18
603.357	15007
603.553	15152.41
603.75	14939.42
603.946	14818.59
604.142	14822.69
604.338	14716.19
604.534	14859.55
604.73	14681.38
604.926	14648.61
605.122	14710.05
605.318	14509.35
605.514	14429.48
605.71	14705.95
605.906	14509.35
606.102	14419.24
606.298	14501.15
606.494	14480.68
606.69	14384.42
606.886	14241.06
607.082	14226.73
607.278	14275.88
607.474	13888.81
607.67	14198.06
607.866	14046.51
608.062	14279.97
608.257	14040.36
608.453	14021.93
608.649	14183.72
608.845	13983.02
609.041	13780.27
609.236	14042.41
609.432	13931.82
609.628	14001.45
609.824	13737.26
610.019	13667.63
610.215	13677.87
610.411	13845.8
610.606	13747.5
610.802	13542.71
610.998	13604.14
611.193	13698.35
611.389	13511.99
611.584	13518.13
611.78	13362.48
611.976	13569.33
612.171	13536.56
612.367	13505.84
612.562	13421.88
612.758	13133.11
612.953	13206.84
613.149	13370.68
613.344	13212.98
613.539	13370.68
613.735	13202.74
613.93	13198.65
614.126	13137.21
614.321	13311.28
614.517	13190.45
614.712	13190.45
614.907	13104.44
615.103	13075.77
615.298	12977.47
615.493	12924.22
615.688	12903.74
615.884	12973.37
616.079	12891.45
616.274	13086.01
616.47	12916.03
616.665	12918.07
616.86	12891.45
617.055	12811.58
617.25	12586.3
617.445	12674.37
617.641	12635.46
617.836	12813.63
618.031	12291.4
618.226	12741.95
618.421	12633.41
618.616	12682.56
618.811	12234.05
619.006	12700.99
619.201	12199.24
619.396	12318.02
619.591	12135.75
619.786	12260.68
619.981	12014.92
620.176	12223.81
620.371	12055.88
620.566	12162.37
620.761	11978.06
620.956	12195.14
621.151	11740.49
621.346	11867.47
621.541	11748.68
621.735	11799.88
621.93	11545.94
622.125	11461.97
622.32	11472.21
622.515	11392.34
622.709	11543.89
622.904	11341.14
623.099	11234.64
623.294	11308.37
623.488	11117.91
623.683	11265.36
623.878	11058.52
624.072	11081.05
624.267	11205.97
624.462	10933.59
624.656	10802.52
624.851	11021.66
625.046	10720.6
625.24	10536.29
625.435	10569.05
625.629	10480.99
625.824	10437.98
626.018	10544.48
626.213	10294.63
626.407	10429.79
626.602	9932.14
626.796	10153.32
626.991	10063.21
627.185	10114.41
627.38	9962.86
627.574	9979.24
627.768	9897.32
627.963	9979.24
628.157	9700.72
628.352	10126.69
628.546	9514.35
628.74	9782.63
628.935	9500.02
629.129	9614.7
629.323	9385.33
629.517	9469.3
629.712	9385.33
629.906	9373.04
630.1	9418.1
630.294	9164.15
630.489	9123.19
630.683	9069.94
630.877	9219.44
631.071	9194.87
631.265	9151.86
631.459	8859
631.653	8979.83
631.848	9014.65
632.042	8877.43
632.236	9006.45
632.43	8725.88
632.624	8570.24
632.818	8654.2
633.012	8549.76
633.206	8500.61
633.4	8539.52
633.594	8533.37
633.788	8555.9
633.982	8660.35
634.176	8428.93
634.369	8258.95
634.563	8172.93
634.757	8369.54
634.951	8410.5
635.145	8250.75
635.339	8088.96
635.533	7961.99
635.726	8009.09
635.92	7906.7
636.114	7720.33
636.308	7855.5
636.501	7857.54
636.695	7923.08
636.889	7849.35
637.083	7640.46
637.276	7677.32
637.47	7669.13
637.664	7472.53
637.857	7529.87
638.051	7333.26
638.244	7521.68
638.438	7470.48
638.632	7337.36
638.825	7366.03
639.019	7363.98
639.212	7441.81
639.406	7165.33
639.599	7300.5
639.793	7220.63
639.986	7130.52
640.18	7054.74
640.373	7155.09
640.567	7015.83
640.76	7079.32
640.954	6991.25
641.147	7026.07
641.34	6954.39
641.534	6868.38
641.727	6917.53
641.92	6847.9
642.114	6704.54
642.307	6589.85
642.5	6710.68
642.694	6487.45
642.887	6577.56
643.08	6604.19
643.273	6620.57
643.467	6479.26
643.66	6458.78
643.853	6251.94
644.046	6342.05
644.239	6346.14
644.432	6473.12
644.626	6278.56
644.819	6325.66
645.012	6258.08
645.205	6182.31
645.398	6235.55
645.591	6122.91
645.784	6237.6
645.977	6010.28
646.17	5959.08
646.363	5926.31
646.556	6055.33
646.749	5940.65
646.942	6096.29
647.135	5858.73
647.328	5897.64
647.521	5834.15
647.714	5672.36
647.907	5875.11
648.099	5864.87
648.292	5686.7
648.485	5655.98
648.678	5633.45
648.871	5615.02
649.064	5539.24
649.256	5529
649.449	5404.08
649.642	5500.33
649.835	5354.93
650.027	5246.38
650.22	5350.83
650.413	5492.14
650.605	5375.41
650.798	5232.05
650.991	5213.62
651.183	5266.86
651.376	5121.46
651.568	5227.95
651.761	5162.42
651.954	5055.92
652.146	5121.46
652.339	5186.99
652.531	5019.06
652.724	4951.48
652.916	4949.43
653.109	4916.66
653.301	4867.51
653.494	4957.62
653.686	4738.49
653.879	4971.96
654.071	4849.08
654.263	4847.03
654.456	4740.54
654.648	4869.56
654.84	4967.86
655.033	4634.04
655.225	4648.38
655.417	4617.66
655.61	4545.98
655.802	4715.96
655.994	4584.89
656.186	4492.73
656.379	4492.73
656.571	4384.19
656.763	4580.79
656.955	4515.26
657.148	4490.68
657.34	4533.69
657.532	4400.57
657.724	4394.43
657.916	4355.52
658.108	4337.09
658.3	4416.96
658.492	4386.24
658.684	4234.69
658.876	4410.81
659.068	4167.1
659.26	4122.05
659.452	4238.78
659.644	4216.26
659.836	4191.68
660.028	4187.58
660.22	4007.36
660.412	4091.33
660.604	3984.84
660.796	3978.69
660.988	4124.1
661.18	3864.01
661.372	3872.2
661.563	3990.98
661.755	4009.41
661.947	3821
662.139	3884.48
662.331	3737.03
662.522	3804.61
662.714	3855.81
662.906	3751.37
663.097	3812.81
663.289	3669.45
663.481	3573.19
663.673	3806.66
663.864	3861.96
664.056	3730.89
664.247	3728.84
664.439	3565
664.631	3597.77
664.822	3675.59
665.014	3786.18
665.205	3747.27
665.397	3624.39
665.588	3567.05
665.78	3470.8
665.971	3534.28
666.163	3476.94
666.354	3579.34
666.546	3605.96
666.737	3534.28
666.929	3589.58
667.12	3425.74
667.311	3599.82
667.503	3448.27
667.694	3397.07
667.885	3499.47
668.077	3360.2
668.268	3352.01
668.459	3478.99
668.651	3362.25
668.842	3370.44
669.033	3325.39
669.224	3288.53
669.416	3343.82
669.607	3188.18
669.798	3360.2
669.989	3188.18
670.18	3130.83
670.371	3190.22
670.563	3212.75
670.754	3186.13
670.945	3155.41
671.136	3200.46
671.327	3130.83
671.518	3016.15
671.709	3235.28
671.9	3317.2
672.091	3126.74
672.282	3053.01
672.473	2987.47
672.664	3020.24
672.855	3089.87
673.046	3149.26
673.237	3139.02
673.428	3065.3
673.619	3036.63
673.809	3050.96
674	3048.91
674.191	3136.98
674.382	2966.99
674.573	2993.62
674.764	3036.63
674.954	2969.04
675.145	3069.39
675.336	3007.95
675.527	3057.11
675.717	2979.28
675.908	3007.95
676.099	2958.8
676.289	2999.76
676.48	2944.47
676.671	2876.88
676.861	2915.8
677.052	2917.84
677.243	2813.4
677.433	2835.92
677.624	2897.36
677.814	2901.46
678.005	2895.32
678.195	2938.32
678.386	2858.45
678.576	2917.84
678.767	2895.32
678.957	2817.49
679.148	2940.37
679.338	2905.56
679.529	2870.74
679.719	2887.12
679.909	2950.61
680.1	2868.69
680.29	2840.02
680.481	2868.69
680.671	2864.6
680.861	2803.16
681.052	2966.99
681.242	2782.68
681.432	2813.4
681.622	2835.92
681.813	2770.39
682.003	2909.65
682.193	2813.4
682.383	2971.09
682.573	2805.21
682.764	2874.84
682.954	2844.12
683.144	2745.81
683.334	2829.78
683.524	2866.64
683.714	2790.87
683.904	2667.99
684.094	2749.91
684.284	2704.85
684.474	2741.72
684.664	2835.92
684.854	2844.12
685.044	2731.48
685.234	2835.92
685.424	2844.12
685.614	2774.49
685.804	2698.71
685.994	2833.88
686.184	2835.92
686.374	2711
686.564	2676.18
686.753	2700.76
686.943	2651.61
687.133	2696.66
687.323	2635.22
687.513	2696.66
687.702	2674.14
687.892	2573.78
688.082	2590.17
688.272	2618.84
688.461	2561.5
688.651	2633.18
688.841	2569.69
689.03	2680.28
689.22	2543.07
689.41	2586.07
689.599	2622.94
689.789	2463.19
689.979	2469.34
690.168	2422.24
690.358	2475.48
690.547	2430.43
690.737	2444.76
690.926	2412
691.116	2371.04
691.305	2467.29
691.495	2434.52
691.684	2307.55
691.874	2424.28
692.063	2405.85
692.252	2383.32
692.442	2278.88
692.631	2213.34
692.82	2319.84
693.01	2401.76
693.199	2418.14
693.388	2336.22
693.578	2246.11
693.767	2262.49
693.956	2266.59
694.146	2164.19
694.335	2266.59
694.524	2321.88
694.713	2225.63
694.902	2229.73
695.092	2180.57
695.281	2276.83
695.47	2168.29
695.659	2143.71
695.848	2076.13
696.037	2106.85
696.226	2123.23
696.415	2110.94
696.604	2067.94
696.793	2215.39
696.982	2246.11
697.171	2176.48
697.36	2133.47
697.549	2012.64
697.738	2074.08
697.927	2174.43
698.116	2065.89
698.305	2215.39
698.494	2086.37
698.683	2123.23
698.872	2074.08
699.061	2035.17
699.25	2065.89
699.438	2168.29
699.627	2041.31
699.816	2059.74
700.005	2012.64
700.193	2074.08
700.382	2090.46
700.571	1996.26
700.76	2094.56
700.948	2192.86
701.137	2149.86
701.326	2018.79
701.514	2051.55
701.703	2024.93
701.892	1975.78
702.08	2119.14
702.269	2057.7
702.457	2090.46
702.646	1928.67
702.834	2016.74
703.023	2037.22
703.212	1959.39
703.4	2112.99
703.589	2133.47
703.777	1979.87
703.965	2008.55
704.154	1928.67
704.342	1938.91
704.531	1988.07
704.719	1945.06
704.907	2082.27
705.096	2024.93
705.284	1922.53
705.472	1990.11
705.661	1918.43
705.849	1983.97
706.037	1994.21
706.226	2057.7
706.414	2063.84
706.602	1885.67
706.79	2061.79
706.979	2086.37
707.167	2065.89
707.355	1953.25
707.543	1965.54
707.731	2065.89
707.919	1951.2
708.107	1877.48
708.296	1840.61
708.484	2004.45
708.672	2004.45
708.86	1943.01
709.048	2067.94
709.236	1992.16
709.424	1967.59
709.612	1877.48
709.8	1918.43
709.988	1869.28
710.176	1996.26
710.364	1988.07
710.551	1994.21
710.739	1992.16
710.927	1900
711.115	2033.12
711.303	1943.01
711.491	2026.98
711.679	1951.2
711.866	2049.5
712.054	2067.94
712.242	1926.63
712.43	2000.35
712.617	2035.17
712.805	1967.59
712.993	2129.38
713.181	1936.87
713.368	2031.07
713.556	1996.26
713.744	1959.39
713.931	2053.6
714.119	2074.08
714.306	2010.59
714.494	1967.59
714.682	2090.46
714.869	1992.16
715.057	2033.12
715.244	1998.31
715.432	1934.82
715.619	2002.4
715.807	1992.16
715.994	1951.2
716.182	2141.66
716.369	1992.16
716.556	2004.45
716.744	2041.31
716.931	1918.43
717.119	2076.13
717.306	2088.42
717.493	1967.59
717.681	1971.68
717.868	1930.72
718.055	1988.07
718.242	1983.97
718.43	2047.46
718.617	2049.5
718.804	2065.89
718.991	2180.57
719.179	1971.68
719.366	2082.27
719.553	2026.98
719.74	1926.63
719.927	2002.4
720.114	2082.27
720.301	1961.44
720.488	2020.83
720.676	2067.94
720.863	2221.53
721.05	2098.66
721.237	2115.04
721.424	2057.7
721.611	2119.14
721.798	2033.12
721.985	2158.05
722.172	2143.71
722.358	2172.38
722.545	2180.57
722.732	2043.36
722.919	2180.57
723.106	2069.98
723.293	2072.03
723.48	2065.89
723.667	2092.51
723.853	2090.46
724.04	2041.31
724.227	2131.42
724.414	2178.53
724.6	2133.47
724.787	2246.11
724.974	2176.48
725.161	2106.85
725.347	2172.38
725.534	2131.42
725.72	2254.3
725.907	2069.98
726.094	2213.34
726.28	2076.13
726.467	2176.48
726.653	2072.03
726.84	2262.49
727.027	2291.17
727.213	2051.55
727.4	2176.48
727.586	2174.43
727.773	2129.38
727.959	2145.76
728.145	2082.27
728.332	2096.61
728.518	2205.15
728.705	2223.58
728.891	2135.52
729.077	2289.12
729.264	2160.1
729.45	2205.15
729.636	2205.15
729.823	2209.25
730.009	2266.59
730.195	2258.4
730.382	2184.67
730.568	2217.44
730.754	2162.14
730.94	2196.96
731.126	2233.82
731.313	2297.31
731.499	2278.88
731.685	2270.69
731.871	2223.58
732.057	2229.73
732.243	2262.49
732.429	2180.57
732.615	2262.49
732.801	2262.49
732.987	2115.04
733.173	2213.34
733.359	2235.87
733.545	2319.84
733.731	2248.16
733.917	2196.96
734.103	2233.82
734.289	2229.73
734.475	2229.73
734.661	2377.18
734.847	2250.21
735.033	2235.87
735.219	2170.33
735.404	2287.07
735.59	2297.31
735.776	2299.36
735.962	2194.91
736.148	2217.44
736.333	2203.1
736.519	2278.88
736.705	2319.84
736.89	2338.27
737.076	2244.06
737.262	2158.05
737.447	2289.12
737.633	2258.4
737.819	2190.81
738.004	2026.98
738.19	2276.83
738.375	2207.2
738.561	2295.26
738.747	2184.67
738.932	2182.62
739.118	2289.12
739.303	2262.49
739.489	2252.25
739.674	2125.28
739.859	2207.2
740.045	2270.69
740.23	2108.9
740.416	2188.77
740.601	2223.58
740.786	2190.81
740.972	2133.47
741.157	2065.89
741.342	2192.86
741.528	2117.09
741.713	2182.62
741.898	2264.54
742.084	2164.19
742.269	2117.09
742.454	2178.53
742.639	2160.1
742.824	2211.29
743.01	1992.16
743.195	2141.66
743.38	2123.23
743.565	2098.66
743.75	2051.55
743.935	2192.86
744.12	2100.7
744.305	2139.62
744.49	2115.04
744.675	2029.03
744.86	2014.69
745.045	2131.42
745.23	2033.12
745.415	2069.98
745.6	2086.37
745.785	2082.27
745.97	2082.27
746.155	2033.12
746.34	2059.74
746.525	2057.7
746.71	2022.88
746.895	1992.16
747.079	2051.55
747.264	1904.1
747.449	1949.15
747.634	2008.55
747.819	2018.79
748.003	1838.56
748.188	1842.66
748.373	1887.72
748.557	1934.82
748.742	1926.63
748.927	1836.52
749.111	1834.47
749.296	1785.32
749.481	1947.11
749.665	1857
749.85	1738.21
750.034	1840.61
750.219	1762.79
750.404	1740.26
750.588	1730.02
750.773	1680.87
750.957	1832.42
751.141	1701.35
751.326	1754.6
751.51	1664.49
751.695	1625.58
751.879	1646.05
752.064	1768.93
752.248	1641.96
752.432	1742.31
752.617	1594.86
752.801	1586.66
752.985	1652.2
753.17	1748.45
753.354	1582.57
753.538	1529.32
753.722	1484.27
753.907	1443.31
754.091	1533.42
754.275	1594.86
754.459	1525.22
754.643	1531.37
754.828	1562.09
755.012	1508.84
755.196	1539.56
755.38	1512.94
755.564	1404.39
755.748	1394.15
755.932	1523.18
756.116	1443.31
756.3	1400.3
756.484	1396.2
756.668	1453.55
756.852	1326.57
757.036	1371.63
757.22	1428.97
757.404	1357.29
757.588	1377.77
757.772	1379.82
757.956	1410.54
758.14	1377.77
758.323	1312.24
758.507	1252.84
758.691	1338.86
758.875	1332.72
759.059	1353.2
759.242	1322.48
759.426	1297.9
759.61	1345
759.794	1248.75
759.977	1334.76
760.161	1383.91
760.345	1287.66
760.528	1240.56
760.712	1213.93
760.895	1172.97
761.079	1207.79
761.263	1181.17
761.446	1234.41
761.63	1175.02
761.813	1205.74
761.997	1226.22
762.18	1234.41
762.364	1140.21
762.547	1172.97
762.731	1150.45
762.914	1166.83
763.098	1086.96
763.281	1175.02
763.464	1086.96
763.648	1166.83
763.831	1195.5
764.015	1115.63
764.198	1058.29
764.381	1095.15
764.564	1091.06
764.748	1091.06
764.931	1082.86
765.114	1091.06
765.297	1115.63
765.481	1007.09
765.664	1062.38
765.847	1017.33
766.03	1086.96
766.213	1078.77
766.397	1066.48
766.58	966.13
766.763	1140.21
766.946	939.51
767.129	1037.81
767.312	996.85
767.495	986.61
767.678	894.45
767.861	1015.28
768.044	998.9
768.227	1011.18
768.41	962.03
768.593	927.22
768.776	1017.33
768.959	972.27
769.142	1002.99
769.324	984.56
769.507	941.55
769.69	951.79
769.873	974.32
770.056	1000.94
770.239	935.41
770.421	912.88
770.604	839.16
770.787	892.4
770.97	937.46
771.152	837.11
771.335	959.99
771.518	886.26
771.7	894.45
771.883	914.93
772.066	857.59
772.248	890.35
772.431	937.46
772.613	904.69
772.796	894.45
772.978	894.45
773.161	951.79
773.343	787.96
773.526	886.26
773.708	837.11
773.891	763.38
774.073	765.43
774.256	779.76
774.438	869.87
774.621	839.16
774.803	787.96
774.985	792.05
775.168	824.82
775.35	747
775.532	800.24
775.715	755.19
775.897	863.73
776.079	751.09
776.261	757.24
776.444	691.7
776.626	697.85
776.808	697.85
776.99	740.85
777.173	720.37
777.355	640.5
777.537	763.38
777.719	718.33
777.901	681.46
778.083	642.55
778.265	683.51
778.447	732.66
778.629	642.55
778.811	681.46
778.993	677.37
779.175	691.7
779.357	640.5
779.539	683.51
779.721	718.33
779.903	601.59
780.085	626.17
780.267	626.17
780.449	665.08
780.631	560.63
780.812	611.83
780.994	579.06
781.176	593.4
781.358	617.97
781.54	634.36
781.721	628.21
781.903	554.49
782.085	566.78
782.267	550.39
782.448	574.97
782.63	658.93
782.812	536.06
782.993	681.46
783.175	560.63
783.357	468.47
783.538	628.21
783.72	534.01
783.901	560.63
784.083	521.72
784.264	538.1
784.446	491
784.627	493.05
784.809	497.14
784.99	495.1
785.172	493.05
785.353	550.39
785.535	538.1
785.716	511.48
785.897	421.37
786.079	511.48
786.26	411.13
786.441	509.43
786.623	378.36
786.804	402.94
786.985	507.38
787.167	505.34
787.348	445.95
787.529	456.19
787.71	460.28
787.891	411.13
788.073	349.69
788.254	361.98
788.435	468.47
788.616	419.32
788.797	476.66
788.978	382.46
789.159	382.46
789.34	456.19
789.522	452.09
789.703	431.61
789.884	452.09
790.065	355.83
790.246	480.76
790.427	419.32
790.607	454.14
790.788	404.99
790.969	321.02
791.15	325.12
791.331	374.27
791.512	421.37
791.693	384.51
791.874	425.47
792.054	462.33
792.235	353.79
792.416	282.11
792.597	321.02
792.778	359.93
792.958	345.59
793.139	359.93
793.32	355.83
793.5	327.16
793.681	380.41
793.862	323.07
794.042	331.26
794.223	290.3
794.404	325.12
794.584	345.59
794.765	325.12
794.945	296.44
795.126	325.12
795.306	353.79
795.487	265.72
795.667	259.58
795.848	323.07
796.028	335.35
796.209	288.25
796.389	298.49
796.57	312.83
796.75	249.34
796.93	263.68
797.111	312.83
797.291	290.3
797.471	282.11
797.652	280.06
797.832	288.25
798.012	288.25
798.192	269.82
798.373	210.43
798.553	241.15
798.733	280.06
798.913	339.45
799.093	241.15
799.274	298.49
799.454	243.2
799.634	288.25
799.814	359.93
799.994	308.73
800.174	304.64
800.354	302.59
800.534	165.37
800.714	267.77
800.894	243.2
801.074	218.62
801.254	232.96
801.434	237.05
801.614	222.72
801.794	214.52
801.974	808.44
802.154	165.37
802.334	222.72
802.514	198.14
802.693	241.15
802.873	239.1
803.053	267.77
803.233	198.14
803.413	255.48
803.592	163.33
803.772	316.92
803.952	267.77
804.131	198.14
804.311	247.29
804.491	304.64
804.67	206.33
804.85	183.81
805.03	226.81
805.209	214.52
805.389	175.61
805.568	192
805.748	239.1
805.928	198.14
806.107	112.13
806.287	249.34
806.466	194.05
806.646	230.91
806.825	222.72
807.004	192
807.184	177.66
807.363	177.66
807.543	171.52
807.722	185.85
807.901	292.35
808.081	239.1
808.26	202.24
808.439	196.09
808.619	189.95
808.798	144.89
808.977	230.91
809.156	247.29
809.336	161.28
809.515	218.62
809.694	226.81
809.873	99.84
810.052	177.66
810.231	198.14
810.411	208.38
810.59	232.96
810.769	206.33
810.948	192
811.127	112.13
811.306	181.76
811.485	183.81
811.664	173.57
811.843	175.61
812.022	169.47
812.201	163.33
812.38	177.66
812.559	198.14
812.737	275.96
812.916	148.99
813.095	142.85
813.274	148.99
813.453	136.7
813.632	171.52
813.811	157.18
813.989	118.27
814.168	151.04
814.347	208.38
814.526	165.37
814.704	194.05
814.883	235
815.062	157.18
815.24	222.72
815.419	173.57
815.598	118.27
815.776	69.12
815.955	77.31
816.133	157.18
816.312	91.65
816.49	159.23
816.669	140.8
816.847	95.74
817.026	148.99
817.204	75.26
817.383	116.22
817.561	130.56
817.74	122.37
817.918	148.99
818.097	54.78
818.275	128.51
818.453	116.22
818.632	112.13
818.81	95.74
818.988	112.13
819.167	101.89
819.345	140.8
819.523	124.41
819.701	103.93
819.879	198.14
820.058	165.37
820.236	159.23
820.414	159.23
820.592	130.56
820.77	148.99
820.948	126.46
821.127	71.17
821.305	142.85
821.483	103.93
821.661	71.17
821.839	151.04
822.017	134.65
822.195	91.65
822.373	140.8
822.551	118.27
822.729	54.78
822.907	79.36
823.085	99.84
823.262	81.41
823.44	192
823.618	146.94
823.796	124.41
823.974	153.09
824.152	148.99
824.329	60.93
824.507	69.12
824.685	67.07
824.863	103.93
825.04	101.89
825.218	159.23
825.396	85.5
825.574	110.08
825.751	142.85
825.929	101.89
826.107	58.88
826.284	148.99
826.462	103.93
826.639	128.51
826.817	22.02
826.994	99.84
827.172	54.78
827.349	108.03
827.527	126.46
827.704	67.07
827.882	148.99
828.059	85.5
828.237	67.07
828.414	114.17
828.591	-47.62
828.769	58.88
828.946	54.78
829.124	52.74
829.301	146.94
829.478	136.7
829.655	38.4
829.833	67.07
830.01	124.41
830.187	116.22
830.364	142.85
830.542	85.5
830.719	183.81
830.896	44.54
831.073	42.5
831.25	44.54
831.427	110.08
831.604	99.84
831.782	87.55
831.959	114.17
832.136	108.03
832.313	140.8
832.49	118.27
832.667	134.65
832.844	75.26
833.021	93.69
833.198	112.13
833.374	36.35
833.551	126.46
833.728	126.46
833.905	97.79
834.082	38.4
834.259	91.65
834.436	60.93
834.612	65.02
834.789	87.55
834.966	60.93
835.143	118.27
835.319	95.74
835.496	71.17
835.673	5.63
835.85	38.4
836.026	142.85
836.203	99.84
836.38	-27.14
836.556	19.97
836.733	42.5
836.909	85.5
837.086	83.45
837.262	42.5
837.439	1.54
837.616	42.5
837.792	-6.66
837.968	124.41
838.145	9.73
838.321	-0.51
838.498	40.45
838.674	19.97
838.851	71.17
839.027	19.97
839.203	46.59
839.38	116.22
839.556	110.08
839.732	50.69
839.909	54.78
840.085	91.65
840.261	75.26
840.437	60.93
840.614	42.5
840.79	93.69
840.966	17.92
841.142	54.78
841.318	54.78
841.494	85.5
841.671	52.74
841.847	3.58
842.023	42.5
842.199	91.65
842.375	34.3
842.551	95.74
842.727	50.69
842.903	58.88
843.079	-4.61
843.255	144.89
843.431	58.88
843.607	3.58
843.783	75.26
843.959	-39.42
844.134	44.54
844.31	120.32
844.486	42.5
844.662	54.78
844.838	3.58
845.013	36.35
845.189	142.85
845.365	118.27
845.541	60.93
845.716	-12.8
845.892	67.07
846.068	22.02
846.244	42.5
846.419	-2.56
846.595	-8.7
846.77	81.41
846.946	34.3
847.122	1.54
847.297	17.92
847.473	32.26
847.648	79.36
847.824	62.98
847.999	-14.85
848.175	52.74
848.35	38.4
848.526	89.6
848.701	-2.56
848.876	40.45
849.052	38.4
849.227	42.5
849.403	-35.33
849.578	30.21
849.753	-53.76
849.929	69.12
850.104	-86.53
850.279	44.54
850.454	3.58
850.63	56.83
850.805	13.82
850.98	44.54
851.155	60.93
851.33	40.45
851.505	-27.14
851.681	32.26
851.856	30.21
852.031	91.65
852.206	11.78
852.381	-8.7
852.556	-6.66
852.731	89.6
852.906	60.93
853.081	-10.75
853.256	114.17
853.431	-20.99
853.606	50.69
853.781	22.02
853.956	-53.76
854.131	62.98
854.305	-10.75
854.48	-41.47
854.655	1.54
854.83	79.36
855.005	-59.9
855.18	62.98
855.354	-39.42
855.529	42.5
855.704	75.26
855.879	36.35
856.053	34.3
856.228	71.17
856.403	-35.33
856.577	62.98
856.752	52.74
856.926	56.83
857.101	99.84
857.276	77.31
857.45	1.54
857.625	58.88
857.799	30.21
857.974	19.97
858.148	-37.38
858.323	-18.94
858.497	103.93
858.672	-61.95
858.846	46.59
859.02	-23.04
859.195	-0.51
859.369	-39.42
859.543	34.3
859.718	58.88
859.892	38.4
860.066	28.16
860.241	22.02
860.415	52.74
860.589	50.69
860.763	79.36
860.938	-12.8
861.112	17.92
861.286	-8.7
861.46	32.26
861.634	-53.76
861.808	69.12
861.982	50.69
862.157	54.78
862.331	62.98
862.505	5.63
862.679	-10.75
862.853	-27.14
863.027	-31.23
863.201	38.4
863.375	-33.28
863.549	116.22
863.722	60.93
863.896	71.17
864.07	-14.85
864.244	42.5
864.418	93.69
864.592	118.27
864.766	19.97
864.939	58.88
865.113	83.45
865.287	5.63
865.461	17.92
865.634	-12.8
865.808	28.16
865.982	30.21
866.156	65.02
866.329	-59.9
866.503	108.03
866.676	13.82
866.85	-6.66
867.024	67.07
867.197	-55.81
867.371	-59.9
867.544	-27.14
867.718	-6.66
867.891	85.5
868.065	-23.04
868.238	5.63
868.412	34.3
868.585	65.02
868.759	19.97
868.932	17.92
869.105	-45.57
869.279	-6.66
869.452	50.69
869.625	44.54
869.799	67.07
869.972	30.21
870.145	83.45
870.319	48.64
870.492	36.35
870.665	52.74
870.838	-23.04
871.011	-20.99
871.185	-23.04
871.358	-47.62
871.531	30.21
871.704	-35.33
871.877	77.31
872.05	36.35
872.223	-23.04
872.396	26.11
872.569	50.69
872.742	9.73
872.915	91.65
873.088	-37.38
873.261	-23.04
873.434	38.4
873.607	34.3
873.78	-23.04
873.953	-39.42
874.126	34.3
874.299	75.26
874.471	-31.23
874.644	54.78
874.817	52.74
874.99	34.3
875.163	-20.99
875.335	28.16
875.508	-4.61
875.681	30.21
875.853	19.97
876.026	30.21
876.199	-31.23
876.371	-6.66
876.544	32.26
876.717	26.11
876.889	-31.23
877.062	50.69
877.234	-53.76
877.407	46.59
877.579	3.58
877.752	13.82
877.924	77.31
878.097	19.97
878.269	58.88
878.442	5.63
878.614	-29.18
878.786	17.92
878.959	-47.62
879.131	9.73
879.303	17.92
879.476	3.58
879.648	34.3
879.82	58.88
879.993	34.3
880.165	-6.66
880.337	9.73
880.509	85.5
880.681	15.87
880.854	-31.23
881.026	5.63
881.198	36.35
881.37	-55.81
881.542	93.69
881.714	87.55
881.886	-4.61
882.058	79.36
882.23	60.93
882.402	-2.56
882.574	-25.09
882.746	5.63
882.918	65.02
883.09	26.11
883.262	52.74
883.434	-23.04
883.606	15.87
883.778	-37.38
883.95	44.54
884.122	-0.51
884.293	13.82
884.465	62.98
884.637	62.98
884.809	-31.23
884.98	7.68
885.152	13.82
885.324	19.97
885.496	-64
885.667	-14.85
885.839	-66.05
886.011	97.79
886.182	58.88
886.354	36.35
886.525	79.36
886.697	19.97
886.869	-2.56
887.04	50.69
887.212	22.02
887.383	34.3
887.555	-27.14
887.726	-35.33
887.897	-8.7
888.069	11.78
888.24	34.3
888.412	3.58
888.583	-6.66
888.754	52.74
888.926	5.63
889.097	-23.04
889.268	-6.66
889.44	13.82
889.611	-0.51
889.782	-18.94
889.953	-0.51
890.125	28.16
890.296	13.82
890.467	1.54
890.638	13.82
890.809	-0.51
890.98	-66.05
891.151	34.3
891.323	42.5
891.494	69.12
891.665	24.06
891.836	13.82
892.007	54.78
892.178	58.88
892.349	9.73
892.52	-18.94
892.691	-29.18
892.862	42.5
893.032	-27.14
893.203	75.26
893.374	40.45
893.545	22.02
893.716	1.54
893.887	22.02
894.057	9.73
894.228	-10.75
894.399	1.54
894.57	60.93
894.74	3.58
894.911	9.73
895.082	-37.38
895.253	-39.42
895.423	52.74
895.594	50.69
895.764	-20.99
895.935	17.92
896.106	-4.61
896.276	-12.8
896.447	-23.04
896.617	54.78
896.788	-23.04
896.958	15.87
897.129	-6.66
897.299	-68.09
897.47	9.73
897.64	-6.66
897.81	-14.85
897.981	22.02
898.151	-53.76
898.322	36.35
898.492	13.82
898.662	19.97
898.832	17.92
899.003	30.21
899.173	-20.99
899.343	-84.48
899.513	52.74
