Data from USB4F104151__260__14-45-59-600.txt Node

Date: Thu Mar 13 14:45:59 EDT 2025
User: louis
Spectrometer: USB4F10415
Trigger mode: 4
Integration Time (sec): 2.000000E-2
Scans to average: 1
Electric dark correction enabled: true
Nonlinearity correction enabled: false
Boxcar width: 0
XAxis mode: Wavelengths
Number of Pixels in Spectrum: 3648
>>>>>Begin Spectral Data<<<<<
178.204	-137.04
178.424	-137.04
178.644	-137.04
178.864	-149.33
179.084	-71.51
179.304	-1.88
179.524	6.31
179.744	26.79
179.964	-5.97
180.184	37.03
180.404	-28.5
180.624	-20.31
180.844	-1.88
181.064	65.71
181.283	-42.84
181.503	-5.97
181.723	-28.5
181.943	18.6
182.163	77.99
182.383	10.41
182.602	43.18
182.822	65.71
183.042	34.99
183.262	16.55
183.482	80.04
183.701	-100.18
183.921	20.65
184.141	45.23
184.361	-20.31
184.58	-14.17
184.8	12.46
185.02	-12.12
185.239	133.29
185.459	22.7
185.679	6.31
185.898	30.89
186.118	80.04
186.338	67.75
186.557	63.66
186.777	18.6
186.997	86.19
187.216	37.03
187.436	75.95
187.655	4.27
187.875	47.27
188.095	4.27
188.314	69.8
188.534	20.65
188.753	28.84
188.973	45.23
189.192	84.14
189.412	20.65
189.631	69.8
189.851	18.6
190.07	104.62
190.29	92.33
190.509	24.75
190.729	-3.93
190.948	102.57
191.168	73.9
191.387	59.56
191.607	45.23
191.826	-22.36
192.045	47.27
192.265	26.79
192.484	67.75
192.704	71.85
192.923	26.79
193.142	69.8
193.362	4.27
193.581	26.79
193.8	92.33
194.02	71.85
194.239	2.22
194.458	51.37
194.678	47.27
194.897	26.79
195.116	10.41
195.335	4.27
195.555	32.94
195.774	34.99
195.993	-12.12
196.212	-8.02
196.432	55.47
196.651	22.7
196.87	49.32
197.089	26.79
197.308	0.17
197.528	106.67
197.747	22.7
197.966	-18.26
198.185	84.14
198.404	63.66
198.623	16.55
198.842	30.89
199.062	118.95
199.281	57.51
199.5	-14.17
199.719	65.71
199.938	112.81
200.157	37.03
200.376	-5.97
200.595	-1.88
200.814	92.33
201.033	12.46
201.252	116.9
201.471	-16.21
201.69	53.42
201.909	10.41
202.128	47.27
202.347	71.85
202.566	43.18
202.785	-34.64
203.004	14.51
203.223	69.8
203.442	77.99
203.661	-10.07
203.879	45.23
204.098	75.95
204.317	-55.12
204.536	100.52
204.755	-1.88
204.974	77.99
205.193	-1.88
205.411	151.72
205.63	34.99
205.849	10.41
206.068	-48.98
206.287	86.19
206.505	88.23
206.724	110.76
206.943	12.46
207.162	108.71
207.381	4.27
207.599	49.32
207.818	22.7
208.037	102.57
208.255	2.22
208.474	53.42
208.693	34.99
208.911	-30.55
209.13	69.8
209.349	45.23
209.567	47.27
209.786	41.13
210.005	6.31
210.223	100.52
210.442	59.56
210.661	12.46
210.879	-30.55
211.098	-5.97
211.316	34.99
211.535	118.95
211.753	4.27
211.972	51.37
212.191	-48.98
212.409	2.22
212.628	45.23
212.846	20.65
213.065	82.09
213.283	75.95
213.502	106.67
213.72	-51.03
213.938	-55.12
214.157	2.22
214.375	59.56
214.594	43.18
214.812	108.71
215.031	34.99
215.249	69.8
215.467	53.42
215.686	34.99
215.904	45.23
216.122	28.84
216.341	75.95
216.559	28.84
216.778	65.71
216.996	75.95
217.214	67.75
217.432	32.94
217.651	16.55
217.869	51.37
218.087	12.46
218.306	53.42
218.524	2.22
218.742	-61.27
218.96	20.65
219.179	-10.07
219.397	-1.88
219.615	37.03
219.833	88.23
220.051	10.41
220.27	86.19
220.488	61.61
220.706	43.18
220.924	-14.17
221.142	18.6
221.36	39.08
221.578	34.99
221.796	-30.55
222.015	51.37
222.233	43.18
222.451	86.19
222.669	-46.93
222.887	51.37
223.105	37.03
223.323	43.18
223.541	6.31
223.759	16.55
223.977	-26.45
224.195	12.46
224.413	96.43
224.631	12.46
224.849	84.14
225.067	57.51
225.285	-5.97
225.503	53.42
225.721	-38.74
225.939	96.43
226.157	49.32
226.375	143.53
226.592	55.47
226.81	94.38
227.028	67.75
227.246	108.71
227.464	-5.97
227.682	12.46
227.9	67.75
228.117	110.76
228.335	-46.93
228.553	82.09
228.771	75.95
228.989	69.8
229.206	104.62
229.424	67.75
229.642	-5.97
229.86	12.46
230.077	57.51
230.295	30.89
230.513	4.27
230.731	129.19
230.948	12.46
231.166	26.79
231.384	34.99
231.601	110.76
231.819	118.95
232.037	82.09
232.254	-16.21
232.472	-22.36
232.689	-22.36
232.907	47.27
233.125	2.22
233.342	112.81
233.56	22.7
233.777	47.27
233.995	-46.93
234.213	86.19
234.43	94.38
234.648	30.89
234.865	-8.02
235.083	53.42
235.3	41.13
235.518	67.75
235.735	57.51
235.953	53.42
236.17	84.14
236.388	59.56
236.605	-14.17
236.822	47.27
237.04	69.8
237.257	71.85
237.475	-61.27
237.692	57.51
237.909	-5.97
238.127	-5.97
238.344	41.13
238.562	39.08
238.779	18.6
238.996	18.6
239.214	8.36
239.431	10.41
239.648	-3.93
239.865	20.65
240.083	45.23
240.3	59.56
240.517	-18.26
240.735	-1.88
240.952	55.47
241.169	71.85
241.386	49.32
241.603	45.23
241.821	-14.17
242.038	108.71
242.255	-42.84
242.472	-5.97
242.689	71.85
242.907	43.18
243.124	88.23
243.341	-28.5
243.558	108.71
243.775	34.99
243.992	10.41
244.209	30.89
244.426	80.04
244.643	20.65
244.86	6.31
245.078	14.51
245.295	0.17
245.512	-22.36
245.729	26.79
245.946	75.95
246.163	116.9
246.38	67.75
246.597	100.52
246.814	-20.31
247.031	71.85
247.248	73.9
247.464	139.43
247.681	12.46
247.898	84.14
248.115	4.27
248.332	26.79
248.549	69.8
248.766	61.61
248.983	100.52
249.2	14.51
249.417	22.7
249.633	-20.31
249.85	75.95
250.067	10.41
250.284	75.95
250.501	90.28
250.717	53.42
250.934	-20.31
251.151	-34.64
251.368	-34.64
251.585	100.52
251.801	-18.26
252.018	41.13
252.235	34.99
252.451	37.03
252.668	-59.22
252.885	53.42
253.102	10.41
253.318	75.95
253.535	53.42
253.752	28.84
253.968	39.08
254.185	-3.93
254.401	43.18
254.618	10.41
254.835	-3.93
255.051	51.37
255.268	6.31
255.484	75.95
255.701	-14.17
255.917	37.03
256.134	-3.93
256.351	88.23
256.567	34.99
256.784	133.29
257	-14.17
257.217	14.51
257.433	67.75
257.65	102.57
257.866	-28.5
258.082	47.27
258.299	26.79
258.515	121
258.732	-12.12
258.948	100.52
259.165	34.99
259.381	26.79
259.597	18.6
259.814	69.8
260.03	-14.17
260.246	59.56
260.463	26.79
260.679	75.95
260.895	51.37
261.112	139.43
261.328	20.65
261.544	51.37
261.761	26.79
261.977	28.84
262.193	18.6
262.409	94.38
262.626	28.84
262.842	61.61
263.058	-16.21
263.274	10.41
263.49	63.66
263.707	75.95
263.923	49.32
264.139	-10.07
264.355	43.18
264.571	20.65
264.787	59.56
265.004	59.56
265.22	-28.5
265.436	37.03
265.652	61.61
265.868	80.04
266.084	18.6
266.3	75.95
266.516	47.27
266.732	-5.97
266.948	49.32
267.164	63.66
267.38	59.56
267.596	39.08
267.812	94.38
268.028	26.79
268.244	47.27
268.46	110.76
268.676	10.41
268.892	69.8
269.108	-30.55
269.324	-14.17
269.54	43.18
269.756	59.56
269.972	-12.12
270.188	96.43
270.403	-30.55
270.619	43.18
270.835	39.08
271.051	22.7
271.267	20.65
271.483	69.8
271.698	59.56
271.914	59.56
272.13	41.13
272.346	-30.55
272.562	51.37
272.777	75.95
272.993	77.99
273.209	32.94
273.425	47.27
273.64	-26.45
273.856	86.19
274.072	39.08
274.287	59.56
274.503	73.9
274.719	59.56
274.934	59.56
275.15	61.61
275.366	53.42
275.581	-14.17
275.797	80.04
276.012	-18.26
276.228	18.6
276.444	82.09
276.659	34.99
276.875	-32.6
277.09	28.84
277.306	69.8
277.521	34.99
277.737	71.85
277.952	61.61
278.168	59.56
278.383	-46.93
278.599	39.08
278.814	18.6
279.03	-20.31
279.245	22.7
279.461	67.75
279.676	43.18
279.892	-36.69
280.107	18.6
280.322	34.99
280.538	20.65
280.753	80.04
280.969	112.81
281.184	-32.6
281.399	75.95
281.615	34.99
281.83	12.46
282.045	-77.65
282.26	16.55
282.476	80.04
282.691	2.22
282.906	30.89
283.122	116.9
283.337	30.89
283.552	12.46
283.767	2.22
283.983	43.18
284.198	20.65
284.413	100.52
284.628	8.36
284.843	47.27
285.058	43.18
285.274	26.79
285.489	37.03
285.704	59.56
285.919	24.75
286.134	28.84
286.349	75.95
286.564	32.94
286.779	26.79
286.995	41.13
287.21	-34.64
287.425	20.65
287.64	53.42
287.855	75.95
288.07	-55.12
288.285	28.84
288.5	92.33
288.715	45.23
288.93	-5.97
289.145	6.31
289.36	-10.07
289.575	32.94
289.79	55.47
290.004	22.7
290.219	55.47
290.434	34.99
290.649	26.79
290.864	49.32
291.079	32.94
291.294	34.99
291.509	49.32
291.724	24.75
291.938	43.18
292.153	37.03
292.368	63.66
292.583	26.79
292.798	20.65
293.012	47.27
293.227	28.84
293.442	4.27
293.657	61.61
293.871	55.47
294.086	34.99
294.301	26.79
294.516	149.67
294.73	39.08
294.945	-12.12
295.16	10.41
295.374	51.37
295.589	112.81
295.804	77.99
296.018	-5.97
296.233	37.03
296.447	77.99
296.662	6.31
296.877	84.14
297.091	65.71
297.306	69.8
297.52	14.51
297.735	20.65
297.949	-14.17
298.164	57.51
298.378	-22.36
298.593	14.51
298.807	32.94
299.022	104.62
299.236	63.66
299.451	49.32
299.665	-55.12
299.88	10.41
300.094	20.65
300.309	92.33
300.523	75.95
300.737	63.66
300.952	12.46
301.166	59.56
301.381	-3.93
301.595	108.71
301.809	45.23
302.024	37.03
302.238	18.6
302.452	51.37
302.667	45.23
302.881	67.75
303.095	98.47
303.309	45.23
303.524	55.47
303.738	-8.02
303.952	16.55
304.166	43.18
304.381	14.51
304.595	12.46
304.809	20.65
305.023	104.62
305.237	22.7
305.452	-1.88
305.666	75.95
305.88	45.23
306.094	75.95
306.308	20.65
306.522	6.31
306.736	100.52
306.95	16.55
307.164	59.56
307.379	-38.74
307.593	65.71
307.807	61.61
308.021	55.47
308.235	118.95
308.449	59.56
308.663	65.71
308.877	96.43
309.091	2.22
309.305	96.43
309.519	-38.74
309.733	108.71
309.947	-14.17
310.161	55.47
310.374	39.08
310.588	43.18
310.802	88.23
311.016	59.56
311.23	2.22
311.444	39.08
311.658	137.38
311.872	75.95
312.085	18.6
312.299	45.23
312.513	39.08
312.727	30.89
312.941	14.51
313.154	63.66
313.368	41.13
313.582	45.23
313.796	45.23
314.009	-38.74
314.223	26.79
314.437	53.42
314.651	67.75
314.864	-5.97
315.078	-38.74
315.292	86.19
315.505	43.18
315.719	92.33
315.933	102.57
316.146	75.95
316.36	34.99
316.573	106.67
316.787	-5.97
317.001	-55.12
317.214	51.37
317.428	43.18
317.641	67.75
317.855	-34.64
318.068	45.23
318.282	92.33
318.495	30.89
318.709	-32.6
318.922	86.19
319.136	114.86
319.349	26.79
319.563	-30.55
319.776	92.33
319.99	10.41
320.203	47.27
320.417	45.23
320.63	75.95
320.843	96.43
321.057	41.13
321.27	43.18
321.483	18.6
321.697	106.67
321.91	-44.88
322.124	114.86
322.337	26.79
322.55	-38.74
322.763	53.42
322.977	-12.12
323.19	8.36
323.403	30.89
323.617	18.6
323.83	53.42
324.043	75.95
324.256	39.08
324.469	-12.12
324.683	14.51
324.896	57.51
325.109	71.85
325.322	-8.02
325.535	98.47
325.748	59.56
325.962	-14.17
326.175	-77.65
326.388	75.95
326.601	34.99
326.814	-5.97
327.027	14.51
327.24	108.71
327.453	-28.5
327.666	84.14
327.879	75.95
328.092	147.62
328.305	39.08
328.518	14.51
328.731	34.99
328.944	20.65
329.157	59.56
329.37	18.6
329.583	67.75
329.796	86.19
330.009	104.62
330.222	92.33
330.435	84.14
330.648	10.41
330.861	-10.07
331.073	10.41
331.286	34.99
331.499	20.65
331.712	-46.93
331.925	96.43
332.138	26.79
332.35	116.9
332.563	28.84
332.776	92.33
332.989	116.9
333.202	2.22
333.414	-5.97
333.627	75.95
333.84	53.42
334.053	51.37
334.265	20.65
334.478	67.75
334.691	51.37
334.903	69.8
335.116	20.65
335.329	4.27
335.541	14.51
335.754	61.61
335.966	45.23
336.179	-14.17
336.392	26.79
336.604	26.79
336.817	100.52
337.029	45.23
337.242	10.41
337.454	-30.55
337.667	-51.03
337.88	41.13
338.092	65.71
338.305	96.43
338.517	43.18
338.729	47.27
338.942	86.19
339.154	24.75
339.367	55.47
339.579	28.84
339.792	18.6
340.004	118.95
340.217	86.19
340.429	45.23
340.641	43.18
340.854	18.6
341.066	-22.36
341.278	141.48
341.491	96.43
341.703	86.19
341.915	2.22
342.128	96.43
342.34	10.41
342.552	30.89
342.764	-34.64
342.977	59.56
343.189	47.27
343.401	61.61
343.613	6.31
343.826	55.47
344.038	55.47
344.25	53.42
344.462	59.56
344.674	4.27
344.886	26.79
345.099	4.27
345.311	26.79
345.523	47.27
345.735	-1.88
345.947	63.66
346.159	57.51
346.371	88.23
346.583	39.08
346.795	92.33
347.007	-5.97
347.219	59.56
347.431	16.55
347.643	131.24
347.855	-24.4
348.067	63.66
348.279	37.03
348.491	6.31
348.703	80.04
348.915	12.46
349.127	18.6
349.339	2.22
349.551	45.23
349.763	69.8
349.975	69.8
350.187	67.75
350.399	20.65
350.61	-30.55
350.822	4.27
351.034	26.79
351.246	63.66
351.458	86.19
351.669	16.55
351.881	102.57
352.093	102.57
352.305	102.57
352.517	6.31
352.728	63.66
352.94	131.24
353.152	84.14
353.363	-14.17
353.575	-46.93
353.787	20.65
353.999	90.28
354.21	4.27
354.422	57.51
354.633	22.7
354.845	-5.97
355.057	26.79
355.268	96.43
355.48	67.75
355.692	37.03
355.903	28.84
356.115	37.03
356.326	10.41
356.538	129.19
356.749	108.71
356.961	14.51
357.172	-26.45
357.384	63.66
357.595	59.56
357.807	10.41
358.018	-10.07
358.23	43.18
358.441	133.29
358.653	84.14
358.864	30.89
359.075	75.95
359.287	67.75
359.498	67.75
359.709	49.32
359.921	28.84
360.132	80.04
360.344	80.04
360.555	47.27
360.766	30.89
360.977	49.32
361.189	110.76
361.4	65.71
361.611	51.37
361.823	88.23
362.034	-16.21
362.245	-1.88
362.456	67.75
362.667	-12.12
362.879	-10.07
363.09	69.8
363.301	-1.88
363.512	118.95
363.723	8.36
363.935	28.84
364.146	55.47
364.357	0.17
364.568	71.85
364.779	28.84
364.99	110.76
365.201	-1.88
365.412	80.04
365.623	92.33
365.834	67.75
366.045	57.51
366.256	43.18
366.467	43.18
366.678	34.99
366.889	57.51
367.1	28.84
367.311	135.34
367.522	-3.93
367.733	51.37
367.944	43.18
368.155	41.13
368.366	26.79
368.577	55.47
368.788	116.9
368.999	32.94
369.209	55.47
369.42	108.71
369.631	20.65
369.842	18.6
370.053	-30.55
370.264	45.23
370.474	-14.17
370.685	20.65
370.896	12.46
371.107	47.27
371.317	-5.97
371.528	-28.5
371.739	106.67
371.95	-28.5
372.16	43.18
372.371	-34.64
372.582	59.56
372.792	67.75
373.003	20.65
373.214	100.52
373.424	71.85
373.635	26.79
373.846	98.47
374.056	51.37
374.267	-18.26
374.477	80.04
374.688	45.23
374.898	20.65
375.109	28.84
375.319	88.23
375.53	53.42
375.74	12.46
375.951	18.6
376.161	18.6
376.372	61.61
376.582	75.95
376.793	96.43
377.003	28.84
377.214	100.52
377.424	-5.97
377.635	118.95
377.845	18.6
378.055	43.18
378.266	26.79
378.476	94.38
378.686	10.41
378.897	-12.12
379.107	63.66
379.317	55.47
379.528	30.89
379.738	108.71
379.948	80.04
380.158	67.75
380.369	59.56
380.579	-1.88
380.789	0.17
380.999	108.71
381.21	28.84
381.42	45.23
381.63	43.18
381.84	127.14
382.05	47.27
382.261	53.42
382.471	2.22
382.681	37.03
382.891	34.99
383.101	43.18
383.311	28.84
383.521	43.18
383.731	77.99
383.941	118.95
384.151	34.99
384.361	39.08
384.571	18.6
384.781	75.95
384.991	116.9
385.201	102.57
385.411	125.1
385.621	34.99
385.831	59.56
386.041	77.99
386.251	159.91
386.461	174.25
386.671	51.37
386.881	53.42
387.091	-18.26
387.301	129.19
387.511	67.75
387.72	80.04
387.93	12.46
388.14	43.18
388.35	41.13
388.56	141.48
388.769	49.32
388.979	63.66
389.189	80.04
389.399	110.76
389.609	100.52
389.818	92.33
390.028	88.23
390.238	90.28
390.447	18.6
390.657	61.61
390.867	2.22
391.076	61.61
391.286	77.99
391.496	10.41
391.705	8.36
391.915	135.34
392.125	100.52
392.334	49.32
392.544	153.77
392.753	67.75
392.963	16.55
393.172	67.75
393.382	30.89
393.591	174.25
393.801	100.52
394.01	63.66
394.22	88.23
394.429	149.67
394.639	67.75
394.848	37.03
395.058	153.77
395.267	59.56
395.477	49.32
395.686	157.86
395.895	182.44
396.105	127.14
396.314	77.99
396.524	121
396.733	59.56
396.942	112.81
397.152	77.99
397.361	125.1
397.57	67.75
397.78	147.62
397.989	141.48
398.198	67.75
398.407	61.61
398.617	125.1
398.826	129.19
399.035	96.43
399.244	116.9
399.453	57.51
399.663	108.71
399.872	118.95
400.081	77.99
400.29	121
400.499	88.23
400.708	209.06
400.917	84.14
401.127	59.56
401.336	73.9
401.545	100.52
401.754	141.48
401.963	59.56
402.172	125.1
402.381	90.28
402.59	67.75
402.799	104.62
403.008	96.43
403.217	82.09
403.426	168.1
403.635	121
403.844	133.29
404.053	182.44
404.262	30.89
404.471	131.24
404.68	112.81
404.888	100.52
405.097	141.48
405.306	141.48
405.515	186.54
405.724	110.76
405.933	188.58
406.142	110.76
406.35	157.86
406.559	182.44
406.768	145.58
406.977	272.55
407.185	194.73
407.394	227.5
407.603	174.25
407.812	168.1
408.02	184.49
408.229	207.02
408.438	207.02
408.646	102.57
408.855	133.29
409.064	166.06
409.272	227.5
409.481	280.74
409.69	190.63
409.898	256.17
410.107	274.6
410.315	231.59
410.524	188.58
410.733	305.32
410.941	256.17
411.15	290.98
411.358	368.81
411.567	389.28
411.775	346.28
411.984	348.33
412.192	280.74
412.401	381.09
412.609	489.64
412.818	350.37
413.026	399.52
413.234	424.1
413.443	397.48
413.651	436.39
413.86	463.01
414.068	446.63
414.276	477.35
414.485	479.4
414.693	526.5
414.901	594.08
415.11	551.07
415.318	526.5
415.526	567.46
415.734	616.61
415.943	624.8
416.151	596.13
416.359	624.8
416.567	725.15
416.776	702.62
416.984	743.58
417.192	788.64
417.4	757.92
417.608	749.73
417.817	766.11
418.025	798.88
418.233	923.8
418.441	856.22
418.649	870.56
418.857	1036.44
419.065	1042.59
419.273	903.32
419.481	987.29
419.689	1151.13
419.897	1198.23
420.105	1216.66
420.313	1138.84
420.521	1255.58
420.729	1271.96
420.937	1269.91
421.145	1427.6
421.353	1460.37
421.561	1509.52
421.769	1411.22
421.977	1534.1
422.185	1532.05
422.393	1607.83
422.601	1763.47
422.809	1691.79
423.017	1818.77
423.224	1833.1
423.432	1898.64
423.64	1910.93
423.848	2197.64
424.056	2091.15
424.263	2250.89
424.471	2091.15
424.679	2199.69
424.887	2300.04
425.094	2410.63
425.302	2287.75
425.51	2459.78
425.718	2492.55
425.925	2594.95
426.133	2582.66
426.341	2873.47
426.548	2992.25
426.756	2934.91
426.964	3016.83
427.171	3227.77
427.379	3235.96
427.586	3278.97
427.794	3444.85
428.001	3604.6
428.209	3788.91
428.417	3750
428.624	3813.49
428.832	3954.8
429.039	3876.98
429.247	3819.63
429.454	4307.05
429.662	4468.84
429.869	4114.54
430.076	4601.96
430.284	4589.67
430.491	4737.12
430.699	5072.99
430.906	4814.95
431.114	4857.95
431.321	5126.24
431.528	5122.14
431.736	5587.03
431.943	5757.01
432.15	5648.47
432.358	5689.43
432.565	6158.41
432.772	5912.66
432.979	6400.07
433.187	6445.13
433.394	6248.52
433.601	6879.3
433.808	6918.21
434.016	7065.66
434.223	7186.49
434.43	7581.75
434.637	7399.48
434.844	7907.38
435.052	8003.63
435.259	8013.87
435.466	7782.45
435.673	7968.82
435.88	8472.62
436.087	8812.58
436.294	9068.58
436.501	8730.66
436.708	8980.51
436.915	9203.74
437.122	9588.76
437.329	9689.11
437.537	9971.73
437.743	10108.94
437.95	10033.17
438.157	10528.78
438.364	10872.84
438.571	10758.15
438.778	10866.69
438.985	11997.17
439.192	11401.21
439.399	11765.75
439.606	11356.16
439.813	12199.92
440.02	12990.44
440.227	12845.03
440.433	12374
440.64	12808.17
440.847	12982.24
441.054	13426.65
441.261	14282.7
441.467	13811.67
441.674	14057.43
441.881	14751.69
442.088	14686.15
442.294	14583.76
442.501	14950.34
442.708	15374.27
442.914	15845.3
443.121	16574.38
443.328	16086.97
443.534	17121.19
443.741	16836.52
443.948	16504.75
444.154	17788.83
444.361	17487.78
444.568	17659.81
444.774	17708.96
444.981	17827.74
445.187	18272.15
445.394	19163.01
445.6	18810.76
445.807	20875.12
446.013	20129.66
446.22	19943.29
446.426	21157.74
446.633	21270.37
446.839	21903.2
447.046	21223.27
447.252	22552.4
447.459	22429.52
447.665	22200.15
447.871	23230.28
448.078	24112.95
448.284	23125.83
448.491	23445.32
448.697	24473.4
448.903	25362.22
449.11	25122.6
449.316	24672.05
449.522	25124.65
449.728	25843.49
449.935	25974.56
450.141	26105.63
450.347	26707.73
450.553	25546.53
450.76	26337.05
450.966	26992.4
451.172	26875.66
451.378	27653.89
451.584	27092.75
451.791	27727.62
451.997	27582.21
452.203	28370.68
452.409	28319.48
452.615	28120.83
452.821	27113.23
453.027	26517.27
453.233	28122.88
453.44	26715.92
453.646	27578.12
453.852	27449.1
454.058	27774.72
454.264	27332.36
454.47	28157.69
454.676	27238.16
454.882	28243.71
455.088	25485.09
455.294	26158.88
455.5	26664.72
455.705	26732.31
455.911	25610.02
456.117	25487.14
456.323	25089.84
456.529	24041.28
456.735	24760.11
456.941	24221.5
457.147	23924.54
457.352	23113.55
457.558	23035.72
457.764	22841.17
457.97	22550.35
458.176	22042.46
458.381	22214.49
458.587	21090.15
458.793	20883.31
458.999	19752.83
459.204	21356.39
459.41	20698.99
459.616	19572.61
459.821	19591.04
460.027	19359.62
460.233	19163.01
460.438	18169.75
460.644	18386.83
460.85	17616.8
461.055	17362.85
461.261	17469.34
461.466	15919.03
461.672	15747
461.878	16795.56
462.083	15667.13
462.289	15210.43
462.494	15103.94
462.7	14491.6
462.905	13854.68
463.111	14575.56
463.316	14624.72
463.522	14323.66
463.727	14413.77
463.932	14329.81
464.138	13920.21
464.343	14286.8
464.549	13729.75
464.754	14165.97
464.959	14043.09
465.165	13762.52
465.37	13211.62
465.575	13420.51
465.781	13412.32
465.986	13438.94
466.191	13113.31
466.397	12984.29
466.602	12335.09
466.807	12752.87
467.012	12685.29
467.218	12527.6
467.423	12558.32
467.628	12431.34
467.833	13176.8
468.038	12521.45
468.244	12453.87
468.449	12806.12
468.654	12191.73
468.859	12290.03
469.064	11964.4
469.269	11524.09
469.474	11841.53
469.679	12118
469.885	11689.98
470.09	11798.52
470.295	11675.64
470.5	11462.65
470.705	11851.77
470.91	11333.63
471.115	11192.32
471.32	11386.88
471.525	11395.07
471.73	11118.59
471.935	11059.2
472.139	10567.69
472.344	10948.61
472.549	10684.42
472.754	10618.89
472.959	10639.37
473.164	10186.77
473.369	10070.03
473.574	10475.53
473.778	10215.44
473.983	10225.68
474.188	10156.05
474.393	9742.36
474.598	9861.14
474.802	9906.2
475.007	9594.9
475.212	9719.83
475.417	9478.17
475.621	9404.44
475.826	9496.6
476.031	9244.7
476.235	8947.75
476.44	9177.12
476.645	8902.69
476.849	9062.43
477.054	9066.53
477.259	8677.41
477.463	8656.93
477.668	8284.2
477.872	8656.93
478.077	8220.72
478.282	8149.04
478.486	8314.92
478.691	8017.97
478.895	8001.58
479.1	8120.37
479.304	8194.09
479.509	7886.9
479.713	8114.22
479.918	7862.32
480.122	7583.8
480.326	7884.85
480.531	7757.88
480.735	7630.9
480.94	7718.96
481.144	7923.76
481.348	7505.98
481.553	7764.02
481.757	7321.66
481.961	7583.8
482.166	7637.05
482.37	7338.04
482.574	7403.58
482.778	7442.49
482.983	7759.92
483.187	7604.28
483.391	7489.59
483.595	7381.05
483.8	7505.98
484.004	7477.3
484.208	7540.79
484.412	7393.34
484.616	7567.42
484.821	7620.66
485.025	7245.88
485.229	7589.94
485.433	7366.71
485.637	7620.66
485.841	7481.4
486.045	7594.04
486.249	7620.66
486.453	7354.43
486.657	7446.59
486.861	7483.45
487.065	7262.27
487.269	7479.35
487.473	7344.19
487.677	7563.32
487.881	7768.12
488.085	7514.17
488.289	7768.12
488.493	7516.22
488.697	7567.42
488.901	7591.99
489.105	7385.15
489.309	7512.12
489.512	7651.38
489.716	7665.72
489.92	7581.75
490.124	7829.56
490.328	7837.75
490.531	7721.01
490.735	7749.68
490.939	7710.77
491.143	7729.2
491.346	7739.44
491.55	8054.83
491.754	7833.65
491.958	8052.78
492.161	7946.29
492.365	8153.13
492.569	7893.04
492.772	7940.15
492.976	7966.77
493.18	8222.77
493.383	8276.01
493.587	8173.61
493.79	8304.68
493.994	8249.39
494.197	8329.26
494.401	8386.6
494.605	8433.71
494.808	8636.45
495.012	8452.14
495.215	8624.17
495.419	8747.05
495.622	8734.76
495.825	8773.67
496.029	8775.72
496.232	9097.25
496.436	8955.94
496.639	9271.33
496.843	9189.41
497.046	9365.53
497.249	9400.35
497.453	9332.76
497.656	9639.96
497.859	9748.5
498.063	9775.13
498.266	10070.03
498.469	9930.77
498.673	9822.23
498.876	10012.69
499.079	10391.56
499.282	10266.64
499.485	10704.9
499.689	10504.2
499.892	10760.2
500.095	10743.81
500.298	11075.59
500.501	10946.56
500.705	11165.7
500.908	11573.24
501.111	11458.56
501.314	11528.19
501.517	11853.81
501.72	11948.02
501.923	11702.26
502.126	12255.22
502.329	12367.85
502.532	12382.19
502.735	12357.61
502.938	12656.62
503.141	12769.26
503.344	13152.23
503.547	13209.57
503.75	13232.1
503.953	13518.81
504.156	13752.28
504.359	13555.68
504.562	13905.88
504.765	14151.63
504.968	14268.37
505.17	14444.49
505.373	14473.17
505.576	14657.48
505.779	14780.36
505.982	14872.52
506.185	15570.88
506.387	15304.64
506.59	15491.01
506.793	15790.01
506.996	15732.67
507.198	15976.37
507.401	15996.85
507.604	16322.48
507.807	16435.12
508.009	16863.15
508.212	17031.08
508.415	17035.17
508.617	17379.23
508.82	17346.47
509.022	17151.91
509.225	17692.57
509.428	17586.08
509.63	18042.78
509.833	18053.02
510.035	18620.3
510.238	18626.45
510.44	18804.62
510.643	19187.59
510.845	19423.11
511.048	19380.1
511.25	19449.73
511.453	19664.77
511.655	20496.24
511.858	20055.93
512.06	20404.08
512.262	20379.51
512.465	20774.77
512.667	21215.08
512.87	21088.1
513.072	21292.9
513.274	21823.33
513.477	22062.94
513.679	22249.3
513.881	22320.98
514.084	22509.4
514.286	22529.87
514.488	22689.62
514.69	23301.96
514.893	23521.09
515.095	23570.24
515.297	23578.43
515.499	23942.97
515.701	24340.28
515.904	24624.95
516.106	24686.39
516.308	24729.39
516.51	25157.42
516.712	25210.67
516.914	25474.85
517.116	25777.95
517.318	25743.14
517.52	26244.89
517.722	26081.05
517.925	26595.09
518.127	26826.51
518.329	27012.88
518.531	26836.75
518.733	27531.01
518.935	27748.1
519.136	27936.51
519.338	28153.6
519.54	28368.63
519.742	28808.95
519.944	28536.57
520.146	29212.4
520.348	29189.87
520.55	29570.79
520.752	29470.44
520.954	30240.48
521.155	30050.02
521.357	30375.64
521.559	30676.69
521.761	30926.55
521.963	31125.2
522.164	31301.33
522.366	31182.54
522.568	31684.3
522.77	31741.64
522.971	32345.79
523.173	32159.42
523.375	32282.3
523.576	32657.08
523.778	32618.17
523.98	32870.07
524.181	33226.42
524.383	33066.67
524.584	33511.08
524.786	33539.75
524.988	33597.1
525.189	34139.81
525.391	34178.72
525.592	34328.22
525.794	34389.66
525.995	34655.9
526.197	34236.06
526.398	34477.72
526.6	34952.85
526.801	35133.07
527.003	35014.29
527.204	35507.85
527.406	35966.6
527.607	35567.24
527.808	35821.19
528.01	35188.37
528.211	35907.21
528.412	36284.03
528.614	36273.79
528.815	36187.78
529.016	36406.91
529.218	35995.27
529.419	36333.18
529.62	36216.45
529.822	36163.2
530.023	36357.76
530.224	36570.75
530.425	36603.52
530.626	36181.63
530.828	36404.86
531.029	37052.02
531.23	36664.96
531.431	36400.77
531.632	37461.62
531.833	36955.77
532.035	37164.66
532.236	37144.18
532.437	37428.85
532.638	37101.17
532.839	37428.85
533.04	37500.53
533.241	36578.94
533.442	37529.2
533.643	37021.3
533.844	37414.51
534.045	37346.93
534.246	36873.85
534.447	37365.36
534.648	37424.75
534.849	37498.48
535.05	37072.5
535.251	37617.26
535.451	37205.62
535.652	37574.25
535.853	37494.38
536.054	37613.16
536.255	37484.14
536.456	37070.45
536.657	38028.9
536.857	37539.44
537.058	37179
537.259	37832.3
537.46	37434.99
537.66	37607.02
537.861	37654.12
538.062	37672.56
538.263	37869.16
538.463	37394.03
538.664	37394.03
538.865	37754.47
539.065	37817.96
539.266	37424.75
539.466	37705.32
539.667	37144.18
539.868	37678.7
540.068	37324.4
540.269	37344.88
540.469	37715.56
540.67	37310.07
540.87	37396.08
541.071	37369.46
541.271	37652.08
541.472	37310.07
541.672	37305.97
541.873	37072.5
542.073	37197.43
542.274	37713.52
542.474	37289.59
542.675	37191.28
542.875	37760.62
543.075	37400.18
543.276	36832.89
543.476	37834.35
543.676	37308.02
543.877	37607.02
544.077	37506.67
544.277	37203.57
544.478	37314.16
544.678	37449.33
544.878	37441.14
545.078	37330.55
545.279	37119.6
545.479	36996.73
545.679	37641.84
545.879	37500.53
546.079	37152.37
546.28	37123.7
546.48	37062.26
546.68	37088.88
546.88	37523.05
547.08	37340.78
547.28	37101.17
547.48	36785.79
547.68	37133.94
547.88	36755.07
548.081	37709.42
548.281	37064.31
548.481	36697.72
548.681	37645.93
548.881	36970.1
549.081	36957.81
549.28	36994.68
549.48	37232.24
549.68	37099.12
549.88	37549.68
550.08	36916.86
550.28	36834.94
550.48	37088.88
550.68	37043.83
550.88	36849.27
551.08	37295.73
551.279	37095.03
551.479	36730.49
551.679	36859.51
551.879	36796.03
552.079	37418.61
552.278	36550.27
552.478	36763.26
552.678	36828.79
552.878	36988.53
553.077	36812.41
553.277	36339.33
553.477	37412.46
553.676	36839.03
553.876	36769.4
554.076	36677.24
554.275	36580.99
554.475	36499.07
554.674	36671.1
554.874	36370.05
555.074	36847.22
555.273	36853.37
555.473	36982.39
555.672	36458.11
555.872	36312.7
556.071	36349.57
556.271	36755.07
556.47	36462.21
556.67	36124.29
556.869	36394.62
557.068	36386.43
557.268	36191.87
557.467	36218.5
557.667	36105.86
557.866	36281.99
558.065	35888.78
558.265	35714.7
558.464	35954.31
558.663	36165.25
558.863	35665.55
559.062	36574.84
559.261	35628.68
559.461	35903.11
559.66	35585.68
559.859	35583.63
560.058	35421.84
560.258	35716.75
560.457	35579.53
560.656	35718.79
560.855	35247.76
561.054	35446.41
561.253	35460.75
561.453	35489.42
561.652	35503.76
561.851	35409.55
562.05	35358.35
562.249	35118.74
562.448	35258
562.647	35090.07
562.846	35456.65
563.045	35221.14
563.244	34676.38
563.443	35231.38
563.642	34746.01
563.841	34610.84
564.04	34614.94
564.239	34803.35
564.438	34719.38
564.637	34586.27
564.836	34899.61
565.035	34107.04
565.234	34541.21
565.432	34444.96
565.631	34133.67
565.83	34508.44
566.029	34485.92
566.228	34330.27
566.427	34145.95
566.625	33805.99
566.824	33484.46
567.023	33789.61
567.222	33384.11
567.42	34223.78
567.619	33920.68
567.818	33674.92
568.016	33695.4
568.215	33511.08
568.414	33408.68
568.612	33904.29
568.811	33437.36
569.01	33447.6
569.208	32908.98
569.407	33283.76
569.605	32859.83
569.804	33294
570.002	32739
570.201	32890.55
570.4	32816.82
570.598	32540.35
570.797	32605.88
570.995	32626.36
571.193	32073.41
571.392	32446.14
571.59	32358.08
571.789	32100.03
571.987	32241.34
572.186	32243.39
572.384	32026.31
572.582	32122.56
572.781	32493.24
572.979	31811.27
573.177	32089.79
573.376	31477.45
573.574	31674.06
573.772	31788.74
573.971	31479.5
574.169	31188.69
574.367	31373
574.565	31667.91
574.763	31284.94
574.962	31096.53
575.16	30820.05
575.358	30811.86
575.556	30482.14
575.754	31008.47
575.952	30351.07
576.151	30940.88
576.349	30512.86
576.547	30660.31
576.745	30705.37
576.943	30580.44
577.141	30371.55
577.339	30412.51
577.537	29927.14
577.735	30160.61
577.933	29834.98
578.131	30256.86
578.329	29869.79
578.527	30095.07
578.725	29947.62
578.923	29918.95
579.121	29538.02
579.319	29556.46
579.516	29439.72
579.714	29538.02
579.912	29243.12
580.11	29288.17
580.308	29224.68
580.506	29056.75
580.704	28372.73
580.901	29247.21
581.099	29361.9
581.297	28598.01
581.495	28999.41
581.692	28841.71
581.89	28540.66
582.088	28802.8
582.285	28448.5
582.483	28397.31
582.681	28382.97
582.878	28489.46
583.076	28366.59
583.274	28231.42
583.471	27707.14
583.669	28161.79
583.866	27701
584.064	27875.07
584.262	27768.58
584.459	27705.09
584.657	27346.7
584.854	27727.62
585.052	27041.55
585.249	27352.84
585.447	27537.16
585.644	27193.1
585.841	27164.43
586.039	27625.22
586.236	26742.55
586.434	26779.41
586.631	26885.9
586.828	26832.66
587.026	26879.76
587.223	26547.99
587.42	26494.74
587.618	26795.79
587.815	26457.88
588.012	26464.02
588.21	26027.81
588.407	26646.29
588.604	26246.94
588.801	26029.85
588.999	26085.15
589.196	25693.99
589.393	26113.82
589.59	25607.97
589.787	25640.74
589.984	25866.02
590.182	25413.41
590.379	25655.08
590.576	25345.83
590.773	25233.19
590.97	25243.43
591.167	25339.69
591.364	24926
591.561	24958.77
591.758	25073.45
591.955	24981.29
592.152	25009.97
592.349	24700.72
592.546	24698.67
592.743	24594.23
592.94	24428.34
593.137	24567.6
593.334	24586.04
593.531	24213.31
593.727	24467.25
593.924	24325.94
594.121	24135.48
594.318	23926.59
594.515	23861.05
594.712	24172.35
594.908	24043.32
595.105	24090.43
595.302	23469.89
595.499	23906.11
595.696	23629.63
595.892	23498.56
596.089	23795.52
596.286	23646.02
596.482	23473.99
596.679	23043.92
596.876	23228.23
597.072	23459.65
597.269	23236.42
597.466	22806.35
597.662	22882.13
597.859	22882.13
598.055	22978.38
598.252	22591.31
598.448	22962
598.645	22656.85
598.841	22374.23
599.038	22558.55
599.234	22679.38
599.431	22357.85
599.627	22325.08
599.824	22361.94
600.02	22128.47
600.217	22226.78
600.413	22112.09
600.609	21765.98
600.806	21950.3
601.002	22118.23
601.198	21927.77
601.395	21753.69
601.591	21546.85
601.787	21712.74
601.984	21538.66
602.18	21679.97
602.376	21333.86
602.572	21325.67
602.769	21559.14
602.965	21016.43
603.161	21458.79
603.357	21018.47
603.553	21024.62
603.75	21110.63
603.946	20739.95
604.142	20780.91
604.338	20832.11
604.534	20637.55
604.73	20434.8
604.926	20350.84
605.122	20823.92
605.318	20744.05
605.514	20465.52
605.71	20273.01
605.906	20363.12
606.102	20256.63
606.298	20225.91
606.494	20180.85
606.69	20258.68
606.886	19990.39
607.082	20076.41
607.278	20162.42
607.474	19818.36
607.67	20119.42
607.866	19607.42
608.062	20125.56
608.257	19812.22
608.453	19502.98
608.649	19775.36
608.845	19474.31
609.041	19609.47
609.236	19490.69
609.432	19537.79
609.628	19449.73
609.824	19289.99
610.019	19228.55
610.215	19132.29
610.411	19181.45
610.606	19378.05
610.802	19199.88
610.998	18911.11
611.193	18990.98
611.389	18718.61
611.584	18892.68
611.78	18786.19
611.976	18837.39
612.171	18878.35
612.367	18806.67
612.562	18653.07
612.758	18493.33
612.953	18720.65
613.149	18605.97
613.344	18376.59
613.539	18814.86
613.735	18626.45
613.93	18739.08
614.126	18278.29
614.321	18573.2
614.517	18503.57
614.712	18233.24
614.907	18274.2
615.103	18435.99
615.298	18194.33
615.493	18139.03
615.688	18100.12
615.884	18331.54
616.079	17960.86
616.274	18202.52
616.47	17977.24
616.665	17952.66
616.86	17792.92
617.055	17762.2
617.25	17711
617.445	18007.96
617.641	17442.72
617.836	17651.61
618.031	17584.03
618.226	17708.96
618.421	17483.68
618.616	17659.81
618.811	17215.4
619.006	17622.94
619.201	16996.26
619.396	17143.72
619.591	16965.54
619.786	16992.17
619.981	16762.79
620.176	16922.54
620.371	16670.64
620.566	16883.63
620.761	16764.84
620.956	16658.35
621.151	16439.22
621.346	16453.55
621.541	16193.46
621.735	16189.36
621.93	16125.88
622.125	16111.54
622.32	15785.91
622.515	16316.34
622.709	15837.11
622.904	15755.19
623.099	15749.05
623.294	15634.36
623.488	15448
623.683	15388.61
623.878	15349.7
624.072	15417.28
624.267	15341.5
624.462	15079.36
624.656	15024.07
624.851	15093.7
625.046	15089.6
625.24	14749.64
625.435	14561.23
625.629	14729.16
625.824	14704.59
626.018	14565.32
626.213	14307.28
626.407	14620.62
626.602	14143.44
626.796	14219.22
626.991	14313.42
627.185	14116.82
627.38	13936.6
627.574	13961.17
627.768	13864.92
627.963	13744.09
628.157	13731.8
628.352	13623.26
628.546	13586.4
628.74	13881.3
628.935	13293.54
629.129	13395.93
629.323	13178.85
629.517	13180.9
629.712	13002.72
629.906	13121.51
630.1	12756.97
630.294	13215.71
630.489	12627.95
630.683	13115.36
630.877	12535.79
631.071	12646.38
631.265	12675.05
631.459	12625.9
631.653	12429.29
631.848	12482.54
632.042	12396.53
632.236	12470.25
632.43	12374
632.624	12273.65
632.818	12267.5
633.012	12146.67
633.206	11970.55
633.4	11823.09
633.594	11751.42
633.788	11603.96
633.982	11601.91
634.176	11722.74
634.369	11579.39
634.563	11452.41
634.757	11462.65
634.951	11554.81
635.145	11354.11
635.339	11210.75
635.533	11218.94
635.726	11284.48
635.92	10907.65
636.114	11098.11
636.308	11122.69
636.501	10962.95
636.695	10973.19
636.889	10631.18
637.083	10934.28
637.276	10645.51
637.47	10684.42
637.664	10602.5
637.857	10702.86
638.051	10713.1
638.244	10496.01
638.438	10598.41
638.632	10360.84
638.825	10305.55
639.019	10100.75
639.212	9971.73
639.406	10094.61
639.599	9936.92
639.793	10170.38
639.986	9926.68
640.18	10002.45
640.373	9785.37
640.567	9685.01
640.76	9904.15
640.954	9627.67
641.147	9457.69
641.34	9584.66
641.534	9562.14
641.727	9502.75
641.92	9486.36
642.114	9254.94
642.307	9248.8
642.5	9297.95
642.694	9164.83
642.887	9136.16
643.08	9248.8
643.273	9080.86
643.467	8921.12
643.66	9017.38
643.853	8988.71
644.046	8871.97
644.239	8919.07
644.432	8779.81
644.626	8794.15
644.819	8648.74
645.012	8712.23
645.205	8636.45
645.398	8515.62
645.591	8532.01
645.784	8419.37
645.977	8241.2
646.17	8415.27
646.363	8261.68
646.556	8085.55
646.749	8050.74
646.942	8341.55
647.135	8157.23
647.328	8040.5
647.521	8052.78
647.714	7942.19
647.907	8040.5
648.099	7673.91
648.292	8005.68
648.485	7637.05
648.678	7718.96
648.871	7819.32
649.064	7628.85
649.256	7837.75
649.449	7581.75
649.642	7567.42
649.835	7460.92
650.027	7366.71
650.22	7508.02
650.413	7479.35
650.605	7342.14
650.798	7321.66
650.991	7325.75
651.183	7356.47
651.376	7018.56
651.568	7221.31
651.761	7100.48
651.954	7067.71
652.146	7071.81
652.339	6924.35
652.531	7020.61
652.724	6748.23
652.916	6744.13
653.109	6756.42
653.301	6666.31
653.494	6701.12
653.686	6686.79
653.879	6758.47
654.071	6699.08
654.263	6549.57
654.456	6531.14
654.648	6690.88
654.84	6471.75
655.033	6357.07
655.225	6357.07
655.417	6309.96
655.61	6445.13
655.802	6434.89
655.994	6346.83
656.186	6365.26
656.379	6205.52
656.571	6244.43
656.763	6174.8
656.955	6101.07
657.148	6076.49
657.34	6066.25
657.532	6035.53
657.724	5910.61
657.916	5900.37
658.108	5892.18
658.3	5746.77
658.492	5861.46
658.684	5797.97
658.876	5699.67
659.068	5818.45
659.26	5724.24
659.452	5660.76
659.644	5597.27
659.836	5544.02
660.028	5539.93
660.22	5537.88
660.412	5482.58
660.604	5341.27
660.796	5515.35
660.988	5412.95
661.18	5290.07
661.372	5302.36
661.563	5306.46
661.755	5394.52
661.947	5296.22
662.139	5245.02
662.331	5281.88
662.522	5169.24
662.714	5302.36
662.906	5083.23
663.097	5015.65
663.289	5013.6
663.481	4847.71
663.673	4927.58
663.864	4984.93
664.056	4917.34
664.247	4843.62
664.439	4905.06
664.631	4743.27
664.822	4825.19
665.014	4733.03
665.205	4749.41
665.397	4657.25
665.588	4790.37
665.78	4544.61
665.971	4780.13
666.163	4573.28
666.354	4655.2
666.546	4626.53
666.737	4536.42
666.929	4421.74
667.12	4575.33
667.311	4405.35
667.503	4460.65
667.694	4378.73
667.885	4532.33
668.077	4397.16
668.268	4319.34
668.459	4302.95
668.651	4280.43
668.842	4122.73
669.033	4255.85
669.224	4253.8
669.416	4255.85
669.607	4311.14
669.798	4288.62
669.989	4290.67
670.18	4083.82
670.371	4155.5
670.563	4081.77
670.754	4061.29
670.945	4081.77
671.136	4139.12
671.327	4032.62
671.518	4061.29
671.709	3975.28
671.9	3967.09
672.091	4057.2
672.282	3864.69
672.473	3926.13
672.664	3854.45
672.855	3848.3
673.046	3764.34
673.237	3960.94
673.428	3887.22
673.619	3838.06
673.809	3704.95
674	3836.02
674.191	3807.34
674.382	3657.84
674.573	3803.25
674.764	3657.84
674.954	3731.57
675.145	3416.18
675.336	3606.64
675.527	3588.21
675.717	3606.64
675.908	3663.99
676.099	3528.82
676.289	3606.64
676.48	3645.56
676.671	3635.32
676.861	3518.58
677.052	3541.11
677.243	3526.77
677.433	3434.61
677.624	3657.84
677.814	3532.92
678.005	3623.03
678.195	3451
678.386	3522.68
678.576	3457.14
678.767	3483.77
678.957	3352.7
679.148	3463.29
679.338	3508.34
679.529	3266.68
679.719	3354.74
679.909	3444.85
680.1	3414.13
680.29	3500.15
680.481	3377.27
680.671	3416.18
680.861	3387.51
681.052	3270.78
681.242	3297.4
681.432	3448.95
681.622	3364.98
681.813	3182.71
682.003	3278.97
682.193	3272.82
682.383	3371.13
682.573	3305.59
682.764	3264.63
682.954	3319.93
683.144	3336.31
683.334	3319.93
683.524	3348.6
683.714	3195
683.904	3186.81
684.094	3285.11
684.284	3111.04
684.474	3229.82
684.664	3221.63
684.854	3168.38
685.044	3225.72
685.234	3209.34
685.424	3182.71
685.614	3084.41
685.804	3192.95
685.994	3156.09
686.184	3188.86
686.374	3049.6
686.564	2998.4
686.753	3016.83
686.943	2955.39
687.133	3082.36
687.323	2910.33
687.513	2971.77
687.702	3004.54
687.892	2898.05
688.082	2986.11
688.272	3045.5
688.461	3068.03
688.651	2963.58
688.841	2926.72
689.03	2953.34
689.22	3074.17
689.41	3016.83
689.599	2988.16
689.789	2904.19
689.979	2830.46
690.168	2791.55
690.358	2924.67
690.547	2910.33
690.737	2791.55
690.926	2852.99
691.116	2781.31
691.305	2910.33
691.495	2979.97
691.684	2793.6
691.874	2881.66
692.063	2754.69
692.252	2766.98
692.442	2775.17
692.631	2779.26
692.82	2619.52
693.01	2629.76
693.199	2599.04
693.388	2766.98
693.578	2773.12
693.767	2783.36
693.956	2668.67
694.146	2713.73
694.335	2637.95
694.524	2625.67
694.713	2721.92
694.902	2644.1
695.092	2635.91
695.281	2707.59
695.47	2494.6
695.659	2551.94
695.848	2515.08
696.037	2713.73
696.226	2568.32
696.415	2648.19
696.604	2592.9
696.793	2734.21
696.982	2441.35
697.171	2691.2
697.36	2541.7
697.549	2594.95
697.738	2525.32
697.927	2443.4
698.116	2402.44
698.305	2445.45
698.494	2476.16
698.683	2431.11
698.872	2541.7
699.061	2470.02
699.25	2517.12
699.438	2418.82
699.627	2451.59
699.816	2410.63
700.005	2470.02
700.193	2476.16
700.382	2390.15
700.571	2484.36
700.76	2420.87
700.948	2541.7
701.137	2406.53
701.326	2437.25
701.514	2384.01
701.703	2390.15
701.892	2316.42
702.08	2504.84
702.269	2338.95
702.457	2402.44
702.646	2357.38
702.834	2300.04
703.023	2297.99
703.212	2482.31
703.4	2418.82
703.589	2252.94
703.777	2363.53
703.965	2207.88
704.154	2287.75
704.342	2312.33
704.531	2238.6
704.719	2316.42
704.907	2357.38
705.096	2224.26
705.284	2224.26
705.472	2246.79
705.661	2240.65
705.849	2453.64
706.037	2308.23
706.226	2230.41
706.414	2275.46
706.602	2236.55
706.79	2263.18
706.979	2158.73
707.167	2181.26
707.355	2295.94
707.543	2306.18
707.731	2209.93
707.919	2238.6
708.107	2207.88
708.296	2201.74
708.484	2164.87
708.672	2162.83
708.86	2193.55
709.048	2263.18
709.236	2185.35
709.424	2119.82
709.612	2197.64
709.8	2287.75
709.988	2205.83
710.176	2205.83
710.364	2117.77
710.551	2173.07
710.739	2148.49
710.927	2236.55
711.115	2168.97
711.303	2193.55
711.491	2068.62
711.679	2091.15
711.866	2203.79
712.054	2250.89
712.242	2183.31
712.43	2293.9
712.617	2140.3
712.805	2082.95
712.993	2099.34
713.181	2130.06
713.368	2164.87
713.556	2179.21
713.744	2123.91
713.931	2158.73
714.119	2132.11
714.306	2037.9
714.494	2046.09
714.682	2113.67
714.869	1970.32
715.057	2189.45
715.244	1947.79
715.432	2168.97
715.619	2001.04
715.807	1941.65
715.994	2181.26
716.182	2121.87
716.369	2042
716.556	2095.24
716.744	2058.38
716.931	2074.76
717.119	2197.64
717.306	1943.69
717.493	2074.76
717.681	2101.39
717.868	1935.5
718.055	1953.93
718.242	2019.47
718.43	2042
718.617	2168.97
718.804	2029.71
718.991	2164.87
719.179	1882.25
719.366	2025.61
719.553	2033.8
719.74	2070.67
719.927	2197.64
720.114	2062.48
720.301	1857.68
720.488	2066.57
720.676	2025.61
720.863	1986.7
721.05	2027.66
721.237	2093.19
721.424	1951.88
721.611	2009.23
721.798	2058.38
721.985	1992.84
722.172	2007.18
722.358	1878.16
722.545	1935.5
722.732	1958.03
722.919	2025.61
723.106	1992.84
723.293	1976.46
723.48	1904.78
723.667	2066.57
723.853	1966.22
724.04	2068.62
724.227	1976.46
724.414	2070.67
724.6	2035.85
724.787	2044.04
724.974	2033.8
725.161	1937.55
725.347	1904.78
725.534	2011.28
725.72	1960.08
725.907	2042
726.094	1955.98
726.28	1982.6
726.467	1908.88
726.653	1923.21
726.84	1880.21
727.027	1994.89
727.213	1798.29
727.4	1937.55
727.586	1878.16
727.773	2042
727.959	1937.55
728.145	1980.56
728.332	1843.34
728.518	1955.98
728.705	1992.84
728.891	1976.46
729.077	1896.59
729.264	1896.59
729.45	1919.12
729.636	1968.27
729.823	1853.58
730.009	1902.73
730.195	1837.2
730.382	2033.8
730.568	1837.2
730.754	1917.07
730.94	1845.39
731.126	1869.97
731.313	1886.35
731.499	1824.91
731.685	1951.88
731.871	1806.48
732.057	1878.16
732.243	1972.36
732.429	2003.08
732.615	1976.46
732.801	1788.05
732.987	1843.34
733.173	1802.38
733.359	1820.81
733.545	1849.49
733.731	1814.67
733.917	1863.82
734.103	1935.5
734.289	1976.46
734.475	1902.73
734.661	1923.21
734.847	1796.24
735.033	1845.39
735.219	1958.03
735.404	1847.44
735.59	1806.48
735.776	1894.54
735.962	1800.34
736.148	1755.28
736.333	1941.65
736.519	1783.95
736.705	1876.11
736.89	1747.09
737.076	1837.2
737.262	1882.25
737.447	1829.01
737.633	1716.37
737.819	1837.2
738.004	1806.48
738.19	1853.58
738.375	1708.18
738.561	1861.77
738.747	1816.72
738.932	1802.38
739.118	1818.77
739.303	1742.99
739.489	1730.7
739.674	1806.48
739.859	1779.86
740.045	1788.05
740.23	1742.99
740.416	1609.87
740.601	1673.36
740.786	1699.98
740.972	1761.42
741.157	1775.76
741.342	1722.51
741.528	1699.98
741.713	1724.56
741.898	1675.41
742.084	1624.21
742.269	1804.43
742.454	1667.22
742.639	1702.03
742.824	1747.09
743.01	1716.37
743.195	1738.9
743.38	1638.55
743.565	1603.73
743.75	1661.07
743.935	1583.25
744.12	1714.32
744.305	1611.92
744.49	1607.83
744.675	1640.59
744.86	1544.34
745.045	1683.6
745.23	1618.07
745.415	1534.1
745.6	1742.99
745.785	1583.25
745.97	1476.76
746.155	1618.07
746.34	1513.62
746.525	1495.19
746.71	1579.15
746.895	1437.84
747.079	1462.42
747.264	1575.06
747.449	1554.58
747.634	1482.9
747.819	1554.58
748.003	1386.65
748.188	1345.69
748.373	1476.76
748.557	1468.56
748.742	1460.37
748.927	1476.76
749.111	1456.28
749.296	1456.28
749.481	1519.76
749.665	1403.03
749.85	1413.27
750.034	1390.74
750.219	1345.69
750.404	1362.07
750.588	1370.26
750.773	1308.82
750.957	1337.49
751.141	1345.69
751.326	1413.27
751.51	1302.68
751.695	1308.82
751.879	1265.82
752.064	1304.73
752.248	1333.4
752.432	1202.33
752.617	1304.73
752.801	1263.77
752.985	1271.96
753.17	1247.38
753.354	1263.77
753.538	1218.71
753.722	1224.86
753.907	1198.23
754.091	1165.46
754.275	1173.66
754.459	1165.46
754.643	1204.38
754.828	1177.75
755.012	1312.92
755.196	1149.08
755.38	1124.51
755.564	1165.46
755.748	1149.08
755.932	1091.74
756.116	1198.23
756.3	1067.16
756.484	1093.79
756.668	1056.92
756.852	968.86
757.036	1036.44
757.22	1093.79
757.404	1058.97
757.588	1048.73
757.772	1018.01
757.956	1018.01
758.14	1083.55
758.323	1009.82
758.507	1034.39
758.691	1007.77
758.875	1052.83
759.059	1024.16
759.242	987.29
759.426	1018.01
759.61	858.27
759.794	993.44
759.977	1024.16
760.161	997.53
760.345	870.56
760.528	995.48
760.712	929.95
760.895	966.81
761.079	972.96
761.263	895.13
761.446	888.99
761.63	841.89
761.813	952.48
761.997	905.37
762.18	897.18
762.364	903.32
762.547	854.17
762.731	960.67
762.914	919.71
763.098	915.61
763.281	823.45
763.464	921.76
763.648	909.47
763.831	936.09
764.015	848.03
764.198	950.43
764.381	813.21
764.564	903.32
764.748	888.99
764.931	925.85
765.114	841.89
765.297	882.85
765.481	866.46
765.664	850.08
765.847	792.73
766.03	880.8
766.213	796.83
766.397	782.49
766.58	780.45
766.763	794.78
766.946	866.46
767.129	835.74
767.312	858.27
767.495	790.69
767.678	858.27
767.861	788.64
768.044	815.26
768.227	837.79
768.41	915.61
768.593	772.25
768.776	702.62
768.959	827.55
769.142	780.45
769.324	727.2
769.507	710.82
769.69	837.79
769.873	825.5
770.056	741.54
770.239	788.64
770.421	723.1
770.604	788.64
770.787	819.36
770.97	764.06
771.152	733.34
771.335	708.77
771.518	710.82
771.7	723.1
771.883	747.68
772.066	661.66
772.248	772.25
772.431	676
772.613	721.06
772.796	782.49
772.978	739.49
773.161	716.96
773.343	616.61
773.526	653.47
773.708	716.96
773.891	682.14
774.073	583.84
774.256	641.18
774.438	676
774.621	684.19
774.803	665.76
774.985	626.85
775.168	690.34
775.35	667.81
775.532	665.76
775.715	592.03
775.897	616.61
776.079	602.27
776.261	514.21
776.444	649.38
776.626	610.47
776.808	592.03
776.99	577.7
777.173	643.23
777.355	569.51
777.537	616.61
777.719	587.94
777.901	610.47
778.083	512.16
778.265	567.46
778.447	534.69
778.629	506.02
778.811	583.84
778.993	561.31
779.175	534.69
779.357	598.18
779.539	497.83
779.721	600.23
779.903	596.13
780.085	594.08
780.267	503.97
780.449	514.21
780.631	616.61
780.812	530.59
780.994	506.02
781.176	524.45
781.358	485.54
781.54	534.69
781.721	497.83
781.903	471.2
782.085	469.16
782.267	489.64
782.448	520.35
782.63	444.58
782.812	516.26
782.993	460.96
783.175	469.16
783.357	436.39
783.538	501.92
783.72	463.01
783.901	428.2
784.083	422.05
784.264	438.44
784.446	477.35
784.627	307.37
784.809	403.62
784.99	436.39
785.172	391.33
785.353	420
785.535	417.96
785.716	372.9
785.897	405.67
786.079	354.47
786.26	379.04
786.441	307.37
786.623	342.18
786.804	391.33
786.985	331.94
787.167	370.85
787.348	336.04
787.529	413.86
787.71	395.43
787.891	397.48
788.073	342.18
788.254	405.67
788.435	448.68
788.616	313.51
788.797	395.43
788.978	346.28
789.159	368.81
789.34	403.62
789.522	454.82
789.703	428.2
789.884	305.32
790.065	284.84
790.246	389.28
790.427	266.41
790.607	405.67
790.788	358.57
790.969	323.75
791.15	323.75
791.331	280.74
791.512	354.47
791.693	256.17
791.874	235.69
792.054	428.2
792.235	329.89
792.416	305.32
792.597	276.65
792.778	331.94
792.958	315.56
793.139	313.51
793.32	272.55
793.5	325.8
793.681	250.02
793.862	274.6
794.042	290.98
794.223	282.79
794.404	325.8
794.584	254.12
794.765	280.74
794.945	301.22
795.126	313.51
795.306	264.36
795.487	256.17
795.667	301.22
795.848	225.45
796.028	194.73
796.209	280.74
796.389	301.22
796.57	346.28
796.75	256.17
796.93	256.17
797.111	239.78
797.291	264.36
797.471	202.92
797.652	223.4
797.832	241.83
798.012	329.89
798.192	170.15
798.373	215.21
798.553	178.34
798.733	233.64
798.913	170.15
799.093	225.45
799.274	211.11
799.454	209.06
799.634	250.02
799.814	231.59
799.994	198.82
800.174	239.78
800.354	190.63
800.534	166.06
800.714	278.69
800.894	204.97
801.074	174.25
801.254	233.64
801.434	284.84
801.614	258.21
801.794	184.49
801.974	774.3
802.154	211.11
802.334	264.36
802.514	166.06
802.693	168.1
802.873	182.44
803.053	217.26
803.233	202.92
803.413	233.64
803.592	227.5
803.772	149.67
803.952	110.76
804.131	112.81
804.311	176.3
804.491	182.44
804.67	184.49
804.85	157.86
805.03	166.06
805.209	207.02
805.389	221.35
805.568	209.06
805.748	129.19
805.928	202.92
806.107	127.14
806.287	166.06
806.466	159.91
806.646	239.78
806.825	213.16
807.004	143.53
807.184	157.86
807.363	166.06
807.543	151.72
807.722	176.3
807.901	192.68
808.081	207.02
808.26	55.47
808.439	172.2
808.619	153.77
808.798	102.57
808.977	135.34
809.156	190.63
809.336	166.06
809.515	145.58
809.694	198.82
809.873	153.77
810.052	125.1
810.231	204.97
810.411	141.48
810.59	170.15
810.769	159.91
810.948	112.81
811.127	108.71
811.306	157.86
811.485	110.76
811.664	217.26
811.843	82.09
812.022	159.91
812.201	55.47
812.38	108.71
812.559	170.15
812.737	100.52
812.916	116.9
813.095	112.81
813.274	141.48
813.453	149.67
813.632	237.74
813.811	121
813.989	157.86
814.168	127.14
814.347	104.62
814.526	192.68
814.704	67.75
814.883	182.44
815.062	96.43
815.24	116.9
815.419	94.38
815.598	96.43
815.776	84.14
815.955	145.58
816.133	118.95
816.312	98.47
816.49	186.54
816.669	133.29
816.847	92.33
817.026	168.1
817.204	108.71
817.383	118.95
817.561	141.48
817.74	116.9
817.918	174.25
818.097	102.57
818.275	125.1
818.453	114.86
818.632	149.67
818.81	108.71
818.988	112.81
819.167	184.49
819.345	166.06
819.523	39.08
819.701	51.37
819.879	147.62
820.058	92.33
820.236	127.14
820.414	145.58
820.592	166.06
820.77	127.14
820.948	127.14
821.127	75.95
821.305	43.18
821.483	80.04
821.661	125.1
821.839	41.13
822.017	121
822.195	110.76
822.373	133.29
822.551	100.52
822.729	112.81
822.907	131.24
823.085	90.28
823.262	121
823.44	53.42
823.618	143.53
823.796	75.95
823.974	100.52
824.152	86.19
824.329	100.52
824.507	159.91
824.685	174.25
824.863	49.32
825.04	61.61
825.218	159.91
825.396	155.82
825.574	104.62
825.751	53.42
825.929	137.38
826.107	108.71
826.284	96.43
826.462	51.37
826.639	59.56
826.817	26.79
826.994	102.57
827.172	110.76
827.349	100.52
827.527	67.75
827.704	147.62
827.882	94.38
828.059	65.71
828.237	32.94
828.414	118.95
828.591	59.56
828.769	71.85
828.946	-18.26
829.124	82.09
829.301	77.99
829.478	143.53
829.655	129.19
829.833	30.89
830.01	135.34
830.187	118.95
830.364	108.71
830.542	84.14
830.719	159.91
830.896	108.71
831.073	51.37
831.25	104.62
831.427	125.1
831.604	73.9
831.782	37.03
831.959	116.9
832.136	75.95
832.313	96.43
832.49	51.37
832.667	-8.02
832.844	22.7
833.021	135.34
833.198	37.03
833.374	116.9
833.551	84.14
833.728	43.18
833.905	135.34
834.082	-26.45
834.259	28.84
834.436	125.1
834.612	104.62
834.789	143.53
834.966	37.03
835.143	49.32
835.319	59.56
835.496	10.41
835.673	139.43
835.85	127.14
836.026	71.85
836.203	108.71
836.38	102.57
836.556	118.95
836.733	20.65
836.909	69.8
837.086	77.99
837.262	30.89
837.439	37.03
837.616	102.57
837.792	65.71
837.968	-5.97
838.145	-38.74
838.321	84.14
838.498	67.75
838.674	69.8
838.851	102.57
839.027	51.37
839.203	86.19
839.38	133.29
839.556	47.27
839.732	69.8
839.909	100.52
840.085	75.95
840.261	51.37
840.437	67.75
840.614	24.75
840.79	141.48
840.966	-36.69
841.142	84.14
841.318	110.76
841.494	34.99
841.671	41.13
841.847	88.23
842.023	0.17
842.199	127.14
842.375	69.8
842.551	-18.26
842.727	-77.65
842.903	63.66
843.079	86.19
843.255	168.1
843.431	67.75
843.607	51.37
843.783	10.41
843.959	6.31
844.134	20.65
844.31	106.67
844.486	20.65
844.662	69.8
844.838	80.04
845.013	125.1
845.189	131.24
845.365	151.72
845.541	98.47
845.716	20.65
845.892	96.43
846.068	53.42
846.244	39.08
846.419	28.84
846.595	43.18
846.77	-30.55
846.946	20.65
847.122	69.8
847.297	43.18
847.473	100.52
847.648	-5.97
847.824	51.37
847.999	4.27
848.175	14.51
848.35	18.6
848.526	55.47
848.701	104.62
848.876	-24.4
849.052	32.94
849.227	63.66
849.403	-12.12
849.578	26.79
849.753	82.09
849.929	100.52
850.104	-20.31
850.279	55.47
850.454	67.75
850.63	20.65
850.805	28.84
850.98	53.42
851.155	114.86
851.33	65.71
851.505	-18.26
851.681	59.56
851.856	-1.88
852.031	102.57
852.206	22.7
852.381	-34.64
852.556	69.8
852.731	26.79
852.906	75.95
853.081	59.56
853.256	92.33
853.431	59.56
853.606	-55.12
853.781	47.27
853.956	-38.74
854.131	8.36
854.305	6.31
854.48	77.99
854.655	49.32
854.83	71.85
855.005	22.7
855.18	116.9
855.354	104.62
855.529	67.75
855.704	45.23
855.879	26.79
856.053	-59.22
856.228	69.8
856.403	-22.36
856.577	43.18
856.752	-5.97
856.926	-5.97
857.101	8.36
857.276	45.23
857.45	43.18
857.625	-3.93
857.799	59.56
857.974	-18.26
858.148	-5.97
858.323	24.75
858.497	26.79
858.672	10.41
858.846	61.61
859.02	77.99
859.195	104.62
859.369	-22.36
859.543	2.22
859.718	71.85
859.892	96.43
860.066	84.14
860.241	-5.97
860.415	45.23
860.589	37.03
860.763	-28.5
860.938	32.94
861.112	28.84
861.286	2.22
861.46	61.61
861.634	-30.55
861.808	63.66
861.982	-5.97
862.157	-55.12
862.331	26.79
862.505	8.36
862.679	-1.88
862.853	39.08
863.027	-118.61
863.201	49.32
863.375	18.6
863.549	20.65
863.722	90.28
863.896	37.03
864.07	-42.84
864.244	57.51
864.418	-5.97
864.592	77.99
864.766	-1.88
864.939	12.46
865.113	53.42
865.287	22.7
865.461	22.7
865.634	-5.97
865.808	24.75
865.982	-22.36
866.156	-26.45
866.329	4.27
866.503	63.66
866.676	-1.88
866.85	18.6
867.024	-3.93
867.197	24.75
867.371	69.8
867.544	14.51
867.718	4.27
867.891	22.7
868.065	37.03
868.238	-16.21
868.412	118.95
868.585	104.62
868.759	-32.6
868.932	18.6
869.105	47.27
869.279	22.7
869.452	32.94
869.625	28.84
869.799	49.32
869.972	-87.89
870.145	-14.17
870.319	-16.21
870.492	34.99
870.665	-28.5
870.838	22.7
871.011	43.18
871.185	18.6
871.358	24.75
871.531	100.52
871.704	-8.02
871.877	16.55
872.05	-1.88
872.223	-40.79
872.396	37.03
872.569	51.37
872.742	-57.17
872.915	2.22
873.088	61.61
873.261	14.51
873.434	12.46
873.607	47.27
873.78	2.22
873.953	-32.6
874.126	34.99
874.299	65.71
874.471	12.46
874.644	26.79
874.817	-18.26
874.99	2.22
875.163	-10.07
875.335	63.66
875.508	14.51
875.681	-30.55
875.853	32.94
876.026	77.99
876.199	75.95
876.371	6.31
876.544	-8.02
876.717	26.79
876.889	-38.74
877.062	75.95
877.234	-46.93
877.407	59.56
877.579	10.41
877.752	77.99
877.924	65.71
878.097	-1.88
878.269	-5.97
878.442	110.76
878.614	73.9
878.786	53.42
878.959	-30.55
879.131	18.6
879.303	-42.84
879.476	-28.5
879.648	96.43
879.82	-20.31
879.993	20.65
880.165	34.99
880.337	2.22
880.509	-20.31
880.681	6.31
880.854	-3.93
881.026	110.76
881.198	10.41
881.37	34.99
881.542	41.13
881.714	2.22
881.886	6.31
882.058	4.27
882.23	10.41
882.402	-18.26
882.574	18.6
882.746	45.23
882.918	-48.98
883.09	84.14
883.262	-14.17
883.434	-3.93
883.606	12.46
883.778	-40.79
883.95	51.37
884.122	-28.5
884.293	2.22
884.465	10.41
884.637	-36.69
884.809	16.55
884.98	-1.88
885.152	24.75
885.324	18.6
885.496	45.23
885.667	-20.31
885.839	18.6
886.011	65.71
886.182	-22.36
886.354	108.71
886.525	26.79
886.697	18.6
886.869	-1.88
887.04	-61.27
887.212	-38.74
887.383	14.51
887.555	34.99
887.726	-110.42
887.897	67.75
888.069	75.95
888.24	43.18
888.412	-38.74
888.583	43.18
888.754	-5.97
888.926	-108.37
889.097	-12.12
889.268	-22.36
889.44	55.47
889.611	-100.18
889.782	-22.36
889.953	-30.55
890.125	84.14
890.296	-34.64
890.467	84.14
890.638	-20.31
890.809	4.27
890.98	-22.36
891.151	-5.97
891.323	61.61
891.494	-36.69
891.665	16.55
891.836	26.79
892.007	-28.5
892.178	-38.74
892.349	10.41
892.52	-3.93
892.691	18.6
892.862	45.23
893.032	12.46
893.203	-59.22
893.374	59.56
893.545	41.13
893.716	18.6
893.887	65.71
894.057	22.7
894.228	-38.74
894.399	-69.46
894.57	24.75
894.74	65.71
894.911	39.08
895.082	-59.22
895.253	-22.36
895.423	-5.97
895.594	53.42
895.764	-5.97
895.935	-55.12
896.106	28.84
896.276	26.79
896.447	-34.64
896.617	10.41
896.788	-32.6
896.958	18.6
897.129	26.79
897.299	-12.12
897.47	20.65
897.64	6.31
897.81	30.89
897.981	10.41
898.151	-30.55
898.322	18.6
898.492	39.08
898.662	-22.36
898.832	-12.12
899.003	24.75
899.173	18.6
899.343	-14.17
899.513	-46.93
