Data from USB4F104151__171__14-44-59-875.txt Node

Date: Thu Mar 13 14:44:59 EDT 2025
User: louis
Spectrometer: USB4F10415
Trigger mode: 4
Integration Time (sec): 2.000000E-2
Scans to average: 1
Electric dark correction enabled: true
Nonlinearity correction enabled: false
Boxcar width: 0
XAxis mode: Wavelengths
Number of Pixels in Spectrum: 3648
>>>>>Begin Spectral Data<<<<<
178.204	-86.19
178.424	-86.19
178.644	-86.19
178.864	-77.99
179.084	-104.62
179.304	24.4
179.524	10.07
179.744	14.17
179.964	38.74
180.184	-8.36
180.404	44.88
180.624	-30.89
180.844	-14.51
181.064	-24.75
181.283	-12.46
181.503	-84.14
181.723	42.84
181.943	1.88
182.163	40.79
182.383	-6.31
182.602	20.31
182.822	67.41
183.042	100.18
183.262	-0.17
183.482	16.21
183.701	8.02
183.921	30.55
184.141	-14.51
184.361	42.84
184.58	10.07
184.8	75.6
185.02	-8.36
185.239	77.65
185.459	40.79
185.679	40.79
185.898	12.12
186.118	26.45
186.338	-39.08
186.557	75.6
186.777	12.12
186.997	36.69
187.216	-14.51
187.436	20.31
187.655	16.21
187.875	81.75
188.095	10.07
188.314	32.6
188.534	16.21
188.753	-39.08
188.973	20.31
189.192	40.79
189.412	44.88
189.631	-32.94
189.851	77.65
190.07	36.69
190.29	-77.99
190.509	57.17
190.729	-8.36
190.948	-14.51
191.168	65.36
191.387	94.04
191.607	12.12
191.826	71.51
192.045	-22.7
192.265	24.4
192.484	42.84
192.704	26.45
192.923	-45.23
193.142	145.24
193.362	10.07
193.581	61.27
193.8	-0.17
194.02	48.98
194.239	59.22
194.458	34.64
194.678	-16.55
194.897	36.69
195.116	40.79
195.335	26.45
195.555	5.97
195.774	-18.6
195.993	-0.17
196.212	-0.17
196.432	-45.23
196.651	8.02
196.87	16.21
197.089	59.22
197.308	46.93
197.528	30.55
197.747	-16.55
197.966	79.7
198.185	69.46
198.404	73.56
198.623	16.21
198.842	75.6
199.062	106.32
199.281	48.98
199.5	-20.65
199.719	38.74
199.938	44.88
200.157	18.26
200.376	32.6
200.595	-8.36
200.814	38.74
201.033	8.02
201.252	48.98
201.471	40.79
201.69	-10.41
201.909	24.4
202.128	65.36
202.347	65.36
202.566	-22.7
202.785	-22.7
203.004	-12.46
203.223	118.61
203.442	18.26
203.661	53.08
203.879	-0.17
204.098	8.02
204.317	-8.36
204.536	61.27
204.755	26.45
204.974	77.65
205.193	44.88
205.411	63.32
205.63	3.93
205.849	3.93
206.068	-37.03
206.287	40.79
206.505	-0.17
206.724	38.74
206.943	32.6
207.162	12.12
207.381	36.69
207.599	73.56
207.818	-16.55
208.037	26.45
208.255	-16.55
208.474	61.27
208.693	36.69
208.911	-8.36
209.13	40.79
209.349	98.13
209.567	5.97
209.786	34.64
210.005	32.6
210.223	-80.04
210.442	34.64
210.661	53.08
210.879	3.93
211.098	48.98
211.316	28.5
211.535	48.98
211.753	36.69
211.972	108.37
212.191	32.6
212.409	28.5
212.628	28.5
212.846	-32.94
213.065	53.08
213.283	44.88
213.502	24.4
213.72	16.21
213.938	51.03
214.157	1.88
214.375	16.21
214.594	10.07
214.812	79.7
215.031	42.84
215.249	-34.99
215.467	42.84
215.686	69.46
215.904	53.08
216.122	-0.17
216.341	55.12
216.559	-18.6
216.778	69.46
216.996	63.32
217.214	59.22
217.432	42.84
217.651	5.97
217.869	-14.51
218.087	-22.7
218.306	69.46
218.524	96.08
218.742	-0.17
218.96	18.26
219.179	14.17
219.397	67.41
219.615	-0.17
219.833	48.98
220.051	3.93
220.27	83.8
220.488	44.88
220.706	32.6
220.924	-6.31
221.142	38.74
221.36	18.26
221.578	20.31
221.796	18.26
222.015	-41.13
222.233	10.07
222.451	77.65
222.669	-45.23
222.887	81.75
223.105	16.21
223.323	40.79
223.541	-39.08
223.759	3.93
223.977	34.64
224.195	83.8
224.413	24.4
224.631	34.64
224.849	-8.36
225.067	69.46
225.285	77.65
225.503	40.79
225.721	24.4
225.939	-37.03
226.157	-18.6
226.375	91.99
226.592	20.31
226.81	-0.17
227.028	12.12
227.246	89.94
227.464	16.21
227.682	75.6
227.9	48.98
228.117	8.02
228.335	91.99
228.553	24.4
228.771	65.36
228.989	32.6
229.206	34.64
229.424	38.74
229.642	-22.7
229.86	24.4
230.077	12.12
230.295	24.4
230.513	32.6
230.731	83.8
230.948	63.32
231.166	46.93
231.384	16.21
231.601	34.64
231.819	38.74
232.037	40.79
232.254	-26.79
232.472	-12.46
232.689	-30.89
232.907	-8.36
233.125	-26.79
233.342	-20.65
233.56	-20.65
233.777	53.08
233.995	-37.03
234.213	59.22
234.43	-12.46
234.648	-16.55
234.865	-22.7
235.083	46.93
235.3	28.5
235.518	8.02
235.735	40.79
235.953	-0.17
236.17	83.8
236.388	-24.75
236.605	8.02
236.822	73.56
237.04	38.74
237.257	-4.27
237.475	48.98
237.692	40.79
237.909	57.17
238.127	-16.55
238.344	30.55
238.562	59.22
238.779	1.88
238.996	14.17
239.214	59.22
239.431	12.12
239.648	-20.65
239.865	110.42
240.083	16.21
240.3	-0.17
240.517	124.76
240.735	91.99
240.952	65.36
241.169	65.36
241.386	32.6
241.603	46.93
241.821	-22.7
242.038	65.36
242.255	48.98
242.472	18.26
242.689	73.56
242.907	98.13
243.124	5.97
243.341	-0.17
243.558	-0.17
243.775	73.56
243.992	-24.75
244.209	12.12
244.426	28.5
244.643	83.8
244.86	59.22
245.078	24.4
245.295	118.61
245.512	48.98
245.729	-34.99
245.946	-0.17
246.163	65.36
246.38	-14.51
246.597	1.88
246.814	102.23
247.031	-41.13
247.248	96.08
247.464	69.46
247.681	-6.31
247.898	10.07
248.115	48.98
248.332	-41.13
248.549	48.98
248.766	81.75
248.983	32.6
249.2	10.07
249.417	28.5
249.633	-22.7
249.85	-8.36
250.067	5.97
250.284	51.03
250.501	51.03
250.717	1.88
250.934	-24.75
251.151	102.23
251.368	1.88
251.585	3.93
251.801	-32.94
252.018	-32.94
252.235	-30.89
252.451	-34.99
252.668	20.31
252.885	12.12
253.102	12.12
253.318	61.27
253.535	26.45
253.752	81.75
253.968	-0.17
254.185	5.97
254.401	48.98
254.618	40.79
254.835	-41.13
255.051	100.18
255.268	32.6
255.484	34.64
255.701	98.13
255.917	55.12
256.134	53.08
256.351	8.02
256.567	44.88
256.784	-0.17
257	-32.94
257.217	69.46
257.433	85.84
257.65	57.17
257.866	65.36
258.082	51.03
258.299	10.07
258.515	-0.17
258.732	-0.17
258.948	-57.51
259.165	83.8
259.381	30.55
259.597	81.75
259.814	-20.65
260.03	69.46
260.246	-34.99
260.463	-2.22
260.679	53.08
260.895	61.27
261.112	77.65
261.328	48.98
261.544	24.4
261.761	135
261.977	85.84
262.193	-16.55
262.409	61.27
262.626	61.27
262.842	32.6
263.058	83.8
263.274	22.36
263.49	48.98
263.707	1.88
263.923	24.4
264.139	-22.7
264.355	-0.17
264.571	40.79
264.787	-4.27
265.004	24.4
265.22	3.93
265.436	73.56
265.652	57.17
265.868	42.84
266.084	3.93
266.3	-6.31
266.516	10.07
266.732	14.17
266.948	-49.32
267.164	81.75
267.38	91.99
267.596	36.69
267.812	3.93
268.028	51.03
268.244	65.36
268.46	67.41
268.676	-32.94
268.892	40.79
269.108	-8.36
269.324	20.31
269.54	-41.13
269.756	14.17
269.972	-57.51
270.188	98.13
270.403	-32.94
270.619	32.6
270.835	83.8
271.051	-8.36
271.267	-26.79
271.483	-86.19
271.698	3.93
271.914	106.32
272.13	63.32
272.346	42.84
272.562	-28.84
272.777	-16.55
272.993	38.74
273.209	8.02
273.425	32.6
273.64	10.07
273.856	94.04
274.072	-8.36
274.287	24.4
274.503	51.03
274.719	42.84
274.934	59.22
275.15	-39.08
275.366	16.21
275.581	-28.84
275.797	57.17
276.012	5.97
276.228	20.31
276.444	67.41
276.659	69.46
276.875	8.02
277.09	-26.79
277.306	57.17
277.521	32.6
277.737	-41.13
277.952	77.65
278.168	-0.17
278.383	61.27
278.599	16.21
278.814	59.22
279.03	10.07
279.245	-10.41
279.461	36.69
279.676	69.46
279.892	26.45
280.107	8.02
280.322	8.02
280.538	3.93
280.753	10.07
280.969	102.23
281.184	122.71
281.399	53.08
281.615	40.79
281.83	81.75
282.045	-49.32
282.26	34.64
282.476	14.17
282.691	57.17
282.906	75.6
283.122	40.79
283.337	-98.47
283.552	-6.31
283.767	-65.71
283.983	26.45
284.198	26.45
284.413	28.5
284.628	24.4
284.843	20.31
285.058	65.36
285.274	24.4
285.489	-4.27
285.704	44.88
285.919	-49.32
286.134	61.27
286.349	87.89
286.564	40.79
286.779	79.7
286.995	20.31
287.21	-20.65
287.425	-10.41
287.64	-32.94
287.855	112.47
288.07	12.12
288.285	51.03
288.5	53.08
288.715	116.56
288.93	55.12
289.145	18.26
289.36	12.12
289.575	-12.46
289.79	57.17
290.004	14.17
290.219	40.79
290.434	32.6
290.649	40.79
290.864	-71.85
291.079	36.69
291.294	98.13
291.509	16.21
291.724	-20.65
291.938	83.8
292.153	36.69
292.368	-16.55
292.583	-22.7
292.798	59.22
293.012	46.93
293.227	-98.47
293.442	8.02
293.657	8.02
293.871	48.98
294.086	1.88
294.301	3.93
294.516	28.5
294.73	-30.89
294.945	-0.17
295.16	40.79
295.374	67.41
295.589	77.65
295.804	16.21
296.018	32.6
296.233	106.32
296.447	96.08
296.662	-12.46
296.877	73.56
297.091	28.5
297.306	24.4
297.52	79.7
297.735	51.03
297.949	-47.27
298.164	96.08
298.378	65.36
298.593	61.27
298.807	1.88
299.022	24.4
299.236	89.94
299.451	48.98
299.665	-8.36
299.88	65.36
300.094	75.6
300.309	32.6
300.523	51.03
300.737	-18.6
300.952	40.79
301.166	44.88
301.381	32.6
301.595	8.02
301.809	-53.42
302.024	10.07
302.238	5.97
302.452	-12.46
302.667	22.36
302.881	98.13
303.095	-28.84
303.309	-16.55
303.524	48.98
303.738	24.4
303.952	-22.7
304.166	87.89
304.381	-24.75
304.595	48.98
304.809	-24.75
305.023	32.6
305.237	-39.08
305.452	-28.84
305.666	8.02
305.88	26.45
306.094	8.02
306.308	-4.27
306.522	89.94
306.736	34.64
306.95	57.17
307.164	59.22
307.379	32.6
307.593	42.84
307.807	118.61
308.021	26.45
308.235	28.5
308.449	-22.7
308.663	61.27
308.877	147.28
309.091	3.93
309.305	100.18
309.519	16.21
309.733	114.52
309.947	12.12
310.161	67.41
310.374	67.41
310.588	32.6
310.802	-32.94
311.016	59.22
311.23	20.31
311.444	32.6
311.658	42.84
311.872	85.84
312.085	73.56
312.299	28.5
312.513	24.4
312.727	83.8
312.941	59.22
313.154	18.26
313.368	48.98
313.582	53.08
313.796	71.51
314.009	98.13
314.223	-8.36
314.437	8.02
314.651	65.36
314.864	-0.17
315.078	44.88
315.292	3.93
315.505	-14.51
315.719	57.17
315.933	36.69
316.146	87.89
316.36	-77.99
316.573	28.5
316.787	16.21
317.001	69.46
317.214	57.17
317.428	-0.17
317.641	-14.51
317.855	-41.13
318.068	12.12
318.282	87.89
318.495	81.75
318.709	67.41
318.922	128.85
319.136	42.84
319.349	126.8
319.563	1.88
319.776	65.36
319.99	40.79
320.203	73.56
320.417	-22.7
320.63	-8.36
320.843	24.4
321.057	38.74
321.27	69.46
321.483	32.6
321.697	42.84
321.91	51.03
322.124	61.27
322.337	20.31
322.55	28.5
322.763	-39.08
322.977	44.88
323.19	36.69
323.403	-55.47
323.617	24.4
323.83	8.02
324.043	-0.17
324.256	36.69
324.469	-49.32
324.683	-2.22
324.896	-8.36
325.109	61.27
325.322	-2.22
325.535	48.98
325.748	59.22
325.962	-24.75
326.175	3.93
326.388	-8.36
326.601	44.88
326.814	-57.51
327.027	32.6
327.24	38.74
327.453	46.93
327.666	46.93
327.879	85.84
328.092	46.93
328.305	48.98
328.518	-12.46
328.731	81.75
328.944	-24.75
329.157	55.12
329.37	36.69
329.583	110.42
329.796	8.02
330.009	71.51
330.222	-32.94
330.435	53.08
330.648	73.56
330.861	8.02
331.073	-14.51
331.286	-16.55
331.499	24.4
331.712	73.56
331.925	1.88
332.138	-6.31
332.35	65.36
332.563	61.27
332.776	36.69
332.989	-32.94
333.202	16.21
333.414	32.6
333.627	-0.17
333.84	57.17
334.053	-12.46
334.265	12.12
334.478	-10.41
334.691	81.75
334.903	-6.31
335.116	61.27
335.329	61.27
335.541	63.32
335.754	132.95
335.966	-12.46
336.179	44.88
336.392	77.65
336.604	32.6
336.817	12.12
337.029	51.03
337.242	44.88
337.454	67.41
337.667	16.21
337.88	48.98
338.092	-8.36
338.305	83.8
338.517	-14.51
338.729	-6.31
338.942	71.51
339.154	81.75
339.367	81.75
339.579	36.69
339.792	44.88
340.004	-22.7
340.217	44.88
340.429	89.94
340.641	-34.99
340.854	-22.7
341.066	20.31
341.278	55.12
341.491	44.88
341.703	-24.75
341.915	34.64
342.128	16.21
342.34	32.6
342.552	-0.17
342.764	-45.23
342.977	-0.17
343.189	59.22
343.401	-0.17
343.613	-28.84
343.826	10.07
344.038	3.93
344.25	85.84
344.462	46.93
344.674	-6.31
344.886	48.98
345.099	36.69
345.311	83.8
345.523	1.88
345.735	16.21
345.947	24.4
346.159	36.69
346.371	81.75
346.583	16.21
346.795	106.32
347.007	-0.17
347.219	55.12
347.431	57.17
347.643	16.21
347.855	51.03
348.067	59.22
348.279	10.07
348.491	-6.31
348.703	30.55
348.915	40.79
349.127	-39.08
349.339	57.17
349.551	-65.71
349.763	8.02
349.975	20.31
350.187	32.6
350.399	77.65
350.61	-8.36
350.822	-8.36
351.034	40.79
351.246	-0.17
351.458	53.08
351.669	10.07
351.881	40.79
352.093	77.65
352.305	40.79
352.517	18.26
352.728	73.56
352.94	-82.09
353.152	55.12
353.363	34.64
353.575	57.17
353.787	55.12
353.999	-57.51
354.21	132.95
354.422	73.56
354.633	-14.51
354.845	73.56
355.057	77.65
355.268	-28.84
355.48	36.69
355.692	65.36
355.903	-0.17
356.115	34.64
356.326	26.45
356.538	118.61
356.749	114.52
356.961	81.75
357.172	-2.22
357.384	-16.55
357.595	77.65
357.807	-20.65
358.018	40.79
358.23	73.56
358.441	81.75
358.653	83.8
358.864	57.17
359.075	32.6
359.287	106.32
359.498	83.8
359.709	30.55
359.921	20.31
360.132	65.36
360.344	34.64
360.555	-0.17
360.766	81.75
360.977	40.79
361.189	28.5
361.4	53.08
361.611	85.84
361.823	30.55
362.034	42.84
362.245	-2.22
362.456	20.31
362.667	-8.36
362.879	61.27
363.09	42.84
363.301	32.6
363.512	65.36
363.723	-0.17
363.935	55.12
364.146	40.79
364.357	73.56
364.568	79.7
364.779	3.93
364.99	110.42
365.201	16.21
365.412	57.17
365.623	65.36
365.834	112.47
366.045	32.6
366.256	77.65
366.467	26.45
366.678	32.6
366.889	20.31
367.1	55.12
367.311	73.56
367.522	40.79
367.733	147.28
367.944	26.45
368.155	32.6
368.366	65.36
368.577	8.02
368.788	65.36
368.999	24.4
369.209	24.4
369.42	89.94
369.631	98.13
369.842	8.02
370.053	85.84
370.264	110.42
370.474	8.02
370.685	65.36
370.896	-0.17
371.107	-12.46
371.317	36.69
371.528	28.5
371.739	14.17
371.95	48.98
372.16	10.07
372.371	18.26
372.582	55.12
372.792	-12.46
373.003	16.21
373.214	3.93
373.424	122.71
373.635	-10.41
373.846	-12.46
374.056	114.52
374.267	3.93
374.477	57.17
374.688	77.65
374.898	-0.17
375.109	108.37
375.319	-8.36
375.53	34.64
375.74	73.56
375.951	28.5
376.161	67.41
376.372	30.55
376.582	16.21
376.793	73.56
377.003	53.08
377.214	-8.36
377.424	24.4
377.635	98.13
377.845	-28.84
378.055	59.22
378.266	59.22
378.476	18.26
378.686	42.84
378.897	53.08
379.107	44.88
379.317	-0.17
379.528	20.31
379.738	89.94
379.948	-12.46
380.158	1.88
380.369	81.75
380.579	38.74
380.789	-20.65
380.999	73.56
381.21	57.17
381.42	73.56
381.63	83.8
381.84	94.04
382.05	73.56
382.261	69.46
382.471	55.12
382.681	73.56
382.891	36.69
383.101	87.89
383.311	-32.94
383.521	-6.31
383.731	-37.03
383.941	48.98
384.151	16.21
384.361	14.17
384.571	5.97
384.781	69.46
384.991	65.36
385.201	94.04
385.411	55.12
385.621	139.09
385.831	14.17
386.041	55.12
386.251	-26.79
386.461	30.55
386.671	22.36
386.881	14.17
387.091	69.46
387.301	40.79
387.511	22.36
387.72	32.6
387.93	40.79
388.14	40.79
388.35	-8.36
388.56	75.6
388.769	108.37
388.979	44.88
389.189	24.4
389.399	36.69
389.609	53.08
389.818	24.4
390.028	65.36
390.238	57.17
390.447	79.7
390.657	24.4
390.867	-22.7
391.076	-0.17
391.286	26.45
391.496	98.13
391.705	57.17
391.915	36.69
392.125	-16.55
392.334	53.08
392.544	28.5
392.753	59.22
392.963	44.88
393.172	57.17
393.382	26.45
393.591	67.41
393.801	57.17
394.01	28.5
394.22	132.95
394.429	89.94
394.639	16.21
394.848	85.84
395.058	44.88
395.267	57.17
395.477	116.56
395.686	69.46
395.895	81.75
396.105	122.71
396.314	-14.51
396.524	55.12
396.733	24.4
396.942	75.6
397.152	122.71
397.361	91.99
397.57	32.6
397.78	51.03
397.989	104.28
398.198	83.8
398.407	24.4
398.617	36.69
398.826	20.31
399.035	81.75
399.244	61.27
399.453	116.56
399.663	32.6
399.872	65.36
400.081	-12.46
400.29	139.09
400.499	73.56
400.708	89.94
400.917	94.04
401.127	-45.23
401.336	3.93
401.545	100.18
401.754	34.64
401.963	53.08
402.172	118.61
402.381	53.08
402.59	12.12
402.799	98.13
403.008	77.65
403.217	57.17
403.426	77.65
403.635	16.21
403.844	98.13
404.053	100.18
404.262	73.56
404.471	100.18
404.68	139.09
404.888	63.32
405.097	87.89
405.306	122.71
405.515	130.9
405.724	89.94
405.933	132.95
406.142	126.8
406.35	85.84
406.559	77.65
406.768	108.37
406.977	196.43
407.185	159.57
407.394	130.9
407.603	53.08
407.812	98.13
408.02	169.81
408.229	130.9
408.438	184.15
408.646	36.69
408.855	173.91
409.064	206.67
409.272	137.04
409.481	208.72
409.69	126.8
409.898	149.33
410.107	223.06
410.315	251.73
410.524	91.99
410.733	282.45
410.941	167.76
411.15	210.77
411.358	264.02
411.567	290.64
411.775	298.83
411.984	245.59
412.192	272.21
412.401	327.5
412.609	333.65
412.818	352.08
413.026	296.78
413.234	241.49
413.443	304.98
413.651	327.5
413.86	393.04
414.068	485.2
414.276	489.29
414.485	386.9
414.693	413.52
414.901	474.96
415.11	434
415.318	474.96
415.526	477.01
415.734	526.16
415.943	477.01
416.151	440.14
416.359	524.11
416.567	550.73
416.776	581.45
416.984	681.8
417.192	565.07
417.4	597.84
417.608	610.12
417.817	733
418.025	675.66
418.233	714.57
418.441	741.19
418.649	714.57
418.857	835.4
419.065	853.83
419.273	794.44
419.481	819.02
419.689	909.13
419.897	892.74
420.105	925.51
420.313	1027.91
420.521	1034.05
420.729	1126.21
420.937	1113.92
421.145	1066.82
421.353	1199.94
421.561	1171.27
421.769	1156.93
421.977	1240.9
422.185	1263.43
422.393	1306.43
422.601	1392.45
422.809	1507.13
423.017	1398.59
423.224	1474.37
423.432	1556.29
423.64	1574.72
423.848	1707.84
424.056	1632.06
424.263	1785.66
424.471	1713.98
424.679	1834.81
424.887	1883.96
425.094	2035.51
425.302	1972.02
425.51	2039.61
425.718	2113.33
425.925	2195.25
426.133	2090.81
426.341	2467.63
426.548	2367.28
426.756	2416.43
426.964	2510.64
427.171	2531.12
427.379	2803.5
427.586	2760.49
427.794	2850.6
428.001	2957.1
428.209	3229.48
428.417	3153.7
428.624	3374.88
428.832	3215.14
429.039	3213.09
429.247	3358.5
429.454	3497.76
429.662	3761.95
429.869	3464.99
430.076	3757.85
430.284	3620.64
430.491	3817.24
430.699	4015.9
430.906	4194.07
431.114	4116.25
431.321	4292.37
431.528	4472.59
431.736	4560.66
431.943	4718.35
432.15	4732.69
432.358	4744.97
432.565	4955.91
432.772	4949.77
432.979	5226.25
433.187	5408.51
433.394	5383.94
433.601	5664.51
433.808	5738.24
434.016	5617.41
434.223	5834.49
434.43	6203.13
434.637	6287.09
434.844	6618.86
435.052	6614.77
435.259	6622.96
435.466	6635.25
435.673	6741.74
435.88	6917.87
436.087	7175.91
436.294	7347.94
436.501	7241.45
436.708	7337.7
436.915	7857.89
437.122	7962.33
437.329	7972.57
437.537	8228.57
437.743	8474.32
437.95	8169.18
438.157	8660.69
438.364	8873.68
438.571	8847.05
438.778	8963.79
438.985	9766.59
439.192	9281.22
439.399	9547.46
439.606	9664.19
439.813	9938.62
440.02	10444.47
440.227	10438.33
440.433	10432.18
440.64	10847.92
440.847	10407.61
441.054	10766
441.261	11628.2
441.467	11443.88
441.674	11620
441.881	11781.79
442.088	12103.32
442.294	11773.6
442.501	12242.59
442.708	12396.18
442.914	13061.77
443.121	13667.97
443.328	13051.53
443.534	14067.33
443.741	13594.25
443.948	13512.33
444.154	14288.51
444.361	14562.94
444.568	14503.54
444.774	14481.02
444.981	14462.58
445.187	15042.16
445.394	15808.1
445.6	15306.35
445.807	16977.49
446.013	16199.26
446.22	16502.36
446.426	17022.55
446.633	17442.38
446.839	18136.64
447.046	17219.15
447.252	18073.15
447.459	18245.18
447.665	18048.58
447.871	18794.04
448.078	19662.38
448.284	18634.3
448.491	19414.57
448.697	20155.94
448.903	20205.09
449.11	20633.11
449.316	20102.69
449.522	20444.7
449.728	21044.76
449.935	21364.24
450.141	21192.21
450.347	21476.88
450.553	21063.19
450.76	21351.95
450.966	21980.68
451.172	22054.4
451.378	22695.42
451.584	22056.45
451.791	22410.75
451.997	22425.09
452.203	22808.06
452.409	22527.49
452.615	23098.87
452.821	21945.86
453.027	21521.93
453.233	22734.33
453.44	22060.55
453.646	22296.07
453.852	22451.71
454.058	22717.95
454.264	21909
454.47	22613.5
454.676	21880.33
454.882	22824.44
455.088	20727.32
455.294	21118.48
455.5	21429.77
455.705	21630.48
455.911	20792.86
456.117	20100.64
456.323	20442.65
456.529	19054.13
456.735	20096.55
456.941	19557.93
457.147	19277.36
457.352	18568.76
457.558	18378.3
457.764	18415.16
457.97	18163.26
458.176	17704.52
458.381	18034.24
458.587	17010.26
458.793	16926.29
458.999	15814.24
459.204	17217.1
459.41	16662.1
459.616	15713.89
459.821	15890.02
460.027	15527.53
460.233	15011.44
460.438	14597.75
460.644	14593.65
460.85	13895.3
461.055	13745.8
461.261	13796.99
461.466	12859.03
461.672	12183.2
461.878	13301.39
462.083	12463.77
462.289	12132
462.494	11878.05
462.7	11511.46
462.905	11108.01
463.111	11478.69
463.316	11636.39
463.522	11218.6
463.727	11382.44
463.932	11517.61
464.138	11126.44
464.343	11333.29
464.549	11044.52
464.754	11046.57
464.959	11329.19
465.165	11124.4
465.37	10731.19
465.575	10346.17
465.781	10929.84
465.986	10714.8
466.191	10292.92
466.397	10073.79
466.602	9766.59
466.807	10233.53
467.012	10053.31
467.218	9817.79
467.423	9871.04
467.628	10065.6
467.833	10542.77
468.038	10096.32
468.244	9758.4
468.449	10251.96
468.654	9604.8
468.859	9606.85
469.064	9733.82
469.269	9227.98
469.474	9518.79
469.679	9637.57
469.885	9238.22
470.09	9260.74
470.295	9322.18
470.5	9168.59
470.705	9318.09
470.91	8822.48
471.115	8873.68
471.32	8982.22
471.525	9006.8
471.73	8675.02
471.935	8838.86
472.139	8296.15
472.344	8644.31
472.549	8466.13
472.754	8384.21
472.959	8333.01
473.164	8144.6
473.369	7896.8
473.574	8117.98
473.778	8240.86
473.983	8257.24
474.188	7888.6
474.393	7735.01
474.598	7716.58
474.802	7616.23
475.007	7489.25
475.212	7683.81
475.417	7335.65
475.621	7302.89
475.826	7495.39
476.031	7372.52
476.235	7151.34
476.44	7053.03
476.645	7022.31
476.849	7122.66
477.054	7061.23
477.259	6782.7
477.463	6813.42
477.668	6778.61
477.872	6790.89
478.077	6659.82
478.282	6575.86
478.486	6524.66
478.691	6528.75
478.895	6323.96
479.1	6479.6
479.304	6366.96
479.509	6082.3
479.713	6495.99
479.918	6084.34
480.122	6092.54
480.326	6180.6
480.531	6145.78
480.735	6047.48
480.94	6041.34
481.144	6348.53
481.348	5840.64
481.553	6065.91
481.757	5832.44
481.961	5744.38
482.166	6053.62
482.37	5959.42
482.574	5832.44
482.778	5793.53
482.983	6047.48
483.187	5949.18
483.391	5992.19
483.595	5697.28
483.8	5885.69
484.004	5932.79
484.208	5979.9
484.412	5957.37
484.616	5844.73
484.821	5897.98
485.025	5801.72
485.229	5906.17
485.433	5746.43
485.637	5881.6
485.841	5793.53
486.045	5924.6
486.249	5863.16
486.453	5852.92
486.657	5873.4
486.861	5906.17
487.065	5639.94
487.269	5867.26
487.473	5621.5
487.677	6020.86
487.881	5861.12
488.085	5752.57
488.289	6004.47
488.493	5807.87
488.697	5998.33
488.901	5771.01
489.105	5940.99
489.309	5998.33
489.512	5900.03
489.716	5918.46
489.92	5912.32
490.124	5906.17
490.328	6043.39
490.531	5951.23
490.735	6072.06
490.939	5934.84
491.143	6082.3
491.346	5983.99
491.55	6078.2
491.754	6209.27
491.958	6047.48
492.161	6151.93
492.365	6176.5
492.569	5986.04
492.772	6283
492.976	6061.82
493.18	6186.74
493.383	6258.42
493.587	6285.05
493.79	6270.71
493.994	6313.72
494.197	6461.17
494.401	6487.79
494.605	6452.98
494.808	6430.45
495.012	6616.82
495.215	6616.82
495.419	6725.36
495.622	6674.16
495.825	6747.89
496.029	6964.97
496.232	6997.74
496.436	6889.2
496.639	7132.9
496.843	6954.73
497.046	7147.24
497.249	7393
497.453	7194.34
497.656	7282.41
497.859	7288.55
498.063	7503.59
498.266	7651.04
498.469	7636.7
498.673	7739.1
498.876	7759.58
499.079	7878.37
499.282	7638.75
499.485	8085.21
499.689	8179.42
499.892	8060.63
500.095	8203.99
500.298	8453.84
500.501	8382.17
500.705	8627.92
500.908	8687.31
501.111	8816.33
501.314	8918.73
501.517	8974.03
501.72	9051.85
501.923	8931.02
502.126	8976.08
502.329	9305.8
502.532	9273.03
502.735	9486.02
502.938	9748.16
503.141	9690.82
503.344	9699.01
503.547	9825.98
503.75	9868.99
503.953	10151.61
504.156	10284.73
504.359	10395.32
504.562	10413.75
504.765	10536.63
504.968	10538.68
505.17	10978.99
505.373	10714.8
505.576	10976.94
505.779	11087.53
505.982	11091.63
506.185	11480.74
506.387	11482.79
506.59	11585.19
506.793	11792.03
506.996	11812.51
507.198	12035.74
507.401	12027.55
507.604	12246.68
507.807	12478.1
508.009	12451.48
508.212	12535.45
508.415	12625.56
508.617	12750.48
508.82	12934.8
509.022	12822.16
509.225	13348.49
509.428	13409.93
509.63	13545.09
509.833	13586.05
510.035	13946.5
510.238	13786.75
510.44	13991.55
510.643	14018.18
510.845	14413.43
511.048	14454.39
511.25	14362.23
511.453	14458.49
511.655	15117.93
511.858	14777.97
512.06	15220.33
512.262	15146.61
512.465	15322.73
512.667	15533.67
512.87	15681.13
513.072	15650.41
513.274	16047.71
513.477	16313.95
513.679	15951.46
513.881	16268.89
514.084	16582.23
514.286	16397.92
514.488	16651.86
514.69	17253.97
514.893	17030.74
515.095	17337.93
515.297	17651.27
515.499	17686.09
515.701	17874.5
515.904	18146.88
516.106	18204.22
516.308	18415.16
516.51	18523.71
516.712	18595.39
516.914	18716.22
517.116	18968.12
517.318	19213.87
517.52	19062.32
517.722	19291.69
517.925	19488.3
518.127	19863.08
518.329	20096.55
518.531	19850.79
518.733	20299.3
518.935	20409.89
519.136	20461.09
519.338	20667.93
519.54	20762.14
519.742	20921.88
519.944	21028.37
520.146	21442.06
520.348	21476.88
520.55	21528.08
520.752	21841.42
520.954	22277.63
521.155	21970.44
521.357	22175.23
521.559	22478.33
521.761	22881.78
521.963	22588.92
522.164	22959.61
522.366	23197.17
522.568	23268.85
522.77	23365.1
522.971	23606.77
523.173	23268.85
523.375	23729.64
523.576	23950.82
523.778	23815.66
523.98	24591.84
524.181	24202.72
524.383	24507.87
524.584	25146.84
524.786	24643.04
524.988	24833.5
525.189	25107.93
525.391	25398.74
525.592	25300.44
525.794	25568.72
525.995	25456.08
526.197	25374.16
526.398	25454.03
526.6	25613.77
526.801	25998.79
527.003	26027.46
527.204	26224.07
527.406	26291.65
527.607	26269.12
527.808	26392
528.01	25963.98
528.211	26588.61
528.412	27278.77
528.614	26717.63
528.815	26697.15
529.016	26799.55
529.218	26963.39
529.419	27248.05
529.62	27137.46
529.822	26844.6
530.023	26910.14
530.224	27178.42
530.425	27334.07
530.626	26791.36
530.828	26953.15
531.029	27372.98
531.23	27033.02
531.431	27407.8
531.632	27397.56
531.833	27717.04
532.035	27426.23
532.236	27481.52
532.437	27657.65
532.638	27448.75
532.839	27841.96
533.04	27608.5
533.241	27612.59
533.442	27950.51
533.643	28046.76
533.844	27592.11
534.045	27719.09
534.246	27532.72
534.447	27948.46
534.648	27614.64
534.849	27807.15
535.05	27868.59
535.251	27858.35
535.451	27737.52
535.652	27551.15
535.853	28071.34
536.054	27835.82
536.255	27747.76
536.456	27534.77
536.657	28091.82
536.857	27667.89
537.058	27352.5
537.259	27932.08
537.46	27551.15
537.66	27657.65
537.861	27940.27
538.062	27831.72
538.263	27925.93
538.463	27725.23
538.664	27790.77
538.865	27835.82
539.065	28286.37
539.266	27794.86
539.466	28247.46
539.667	27674.03
539.868	28220.84
540.068	27960.75
540.269	27682.22
540.469	27909.55
540.67	27579.82
540.87	27559.34
541.071	27925.93
541.271	28034.47
541.472	28028.33
541.672	27657.65
541.873	27737.52
542.073	27360.69
542.274	28151.21
542.474	27758
542.675	27600.3
542.875	27979.18
543.075	27485.62
543.276	27407.8
543.476	27801.01
543.676	27876.78
543.877	27749.81
544.077	27704.75
544.277	27506.1
544.478	27479.47
544.678	27585.97
544.878	27760.05
545.078	27852.2
545.279	27391.41
545.479	27592.11
545.679	27579.82
545.879	27680.17
546.079	27661.74
546.28	27458.99
546.48	27471.28
546.68	27520.43
546.88	27502
547.08	27561.39
547.28	27512.24
547.48	27579.82
547.68	27522.48
547.88	27264.44
548.081	27698.61
548.281	27278.77
548.481	27194.81
548.681	27659.7
548.881	27512.24
549.081	27420.08
549.28	27477.43
549.48	27520.43
549.68	27340.21
549.88	27917.74
550.08	27352.5
550.28	27514.29
550.48	27389.36
550.68	27614.64
550.88	27096.5
551.08	27254.2
551.279	27348.4
551.479	27104.7
551.679	27260.34
551.879	27436.47
552.079	27499.95
552.278	27536.82
552.478	27510.19
552.678	27422.13
552.878	27352.5
553.077	27370.93
553.277	27137.46
553.477	27313.59
553.676	27153.85
553.876	27286.96
554.076	26998.2
554.275	27086.26
554.475	26840.51
554.674	27364.79
554.874	27280.82
555.074	26967.48
555.273	27479.47
555.473	26883.52
555.672	26756.54
555.872	26777.02
556.071	26652.09
556.271	27180.47
556.47	26631.61
556.67	26408.39
556.869	26516.93
557.068	26838.46
557.268	26670.53
557.467	26895.8
557.667	26693.05
557.866	26709.44
558.065	26779.07
558.265	26402.24
558.464	26873.28
558.663	26779.07
558.863	26430.91
559.062	26889.66
559.261	26271.17
559.461	26826.17
559.66	26142.15
559.859	26351.04
560.058	26164.68
560.258	26211.78
560.457	26172.87
560.656	26478.02
560.855	25912.78
561.054	26363.33
561.253	26138.05
561.453	25871.82
561.652	26043.85
561.851	25888.2
562.05	25929.16
562.249	25523.66
562.448	25677.26
562.647	25845.19
562.846	25757.13
563.045	25550.29
563.244	25339.35
563.443	25722.32
563.642	25187.8
563.841	25701.84
564.04	25507.28
564.239	25634.25
564.438	25521.62
564.637	25644.49
564.836	25329.11
565.035	24868.31
565.234	25130.45
565.432	25044.44
565.631	24960.47
565.83	24958.42
566.029	24968.66
566.228	25075.16
566.427	24698.33
566.625	24770.01
566.824	24458.72
567.023	25062.87
567.222	24393.19
567.42	24645.09
567.619	24645.09
567.818	24415.71
568.016	24417.76
568.215	24620.51
568.414	24165.86
568.612	24319.46
568.811	23911.91
569.01	24051.17
569.208	23868.91
569.407	24290.79
569.605	24004.07
569.804	23979.5
570.002	23664.11
570.201	24036.84
570.4	23786.99
570.598	23760.36
570.797	23537.13
570.995	23612.91
571.193	23637.48
571.392	23842.28
571.59	23627.24
571.789	23152.12
571.987	23281.14
572.186	22830.58
572.384	23031.29
572.582	23371.25
572.781	23184.88
572.979	22703.61
573.177	23129.59
573.376	23180.79
573.574	22507.01
573.772	23090.68
573.971	22617.6
574.169	22666.75
574.367	22226.43
574.565	22652.41
574.763	22515.2
574.962	22382.08
575.16	22191.62
575.358	22279.68
575.556	21976.58
575.754	22255.11
575.952	21929.48
576.151	22418.94
576.349	22076.93
576.547	22054.4
576.745	21767.69
576.943	22369.79
577.141	21988.87
577.339	22042.12
577.537	21777.93
577.735	21456.4
577.933	21515.79
578.131	21607.95
578.329	21605.9
578.527	21337.62
578.725	21384.72
578.923	21679.63
579.121	21216.79
579.319	21208.59
579.516	21317.14
579.714	21065.24
579.912	21042.71
580.11	20919.83
580.308	20909.59
580.506	20952.6
580.704	20536.86
580.901	20784.66
581.099	21091.86
581.297	20708.89
581.495	20510.24
581.692	20473.37
581.89	20526.62
582.088	20581.92
582.285	20428.32
582.483	20471.32
582.681	20309.54
582.878	20502.04
583.076	20090.4
583.274	20180.51
583.471	20094.5
583.669	20080.16
583.866	20041.25
584.064	20289.06
584.262	20018.72
584.459	20237.86
584.657	19629.61
584.854	19791.4
585.052	19244.59
585.249	19861.03
585.447	19580.46
585.644	19295.79
585.841	19772.97
586.039	19398.19
586.236	19469.87
586.434	19308.08
586.631	19275.31
586.828	19295.79
587.026	18984.5
587.223	19138.1
587.42	18808.37
587.618	19029.55
587.815	18949.68
588.012	18517.56
588.21	18777.65
588.407	19007.03
588.604	18658.87
588.801	18785.85
588.999	18607.67
589.196	18429.5
589.393	18636.34
589.59	18523.71
589.787	18482.75
589.984	18243.13
590.182	18228.8
590.379	18482.75
590.576	18130.5
590.773	18331.2
590.97	18081.35
591.167	18286.14
591.364	17759.81
591.561	18058.82
591.758	17655.37
591.955	17725
592.152	17909.32
592.349	17571.4
592.546	17624.65
592.743	17477.19
592.94	17548.87
593.137	17307.21
593.334	17401.42
593.531	17223.25
593.727	17481.29
593.924	17382.99
594.121	17225.29
594.318	17294.93
594.515	17010.26
594.712	17247.82
594.908	16957.01
595.105	17094.22
595.302	17038.93
595.499	16911.96
595.696	16961.11
595.892	16719.45
596.089	16836.18
596.286	16944.72
596.482	16617.05
596.679	16844.37
596.876	16653.91
597.072	16483.93
597.269	16453.21
597.466	16408.15
597.662	16506.46
597.859	16189.02
598.055	16248.41
598.252	16252.51
598.448	16436.83
598.645	15998.56
598.841	15957.6
599.038	15943.27
599.234	16213.6
599.431	15810.15
599.627	15865.44
599.824	15965.79
600.02	15797.86
600.217	15799.91
600.413	15810.15
600.609	15588.97
600.806	15490.66
601.002	15449.71
601.198	15457.9
601.395	15294.06
601.591	15382.12
601.787	15627.88
601.984	15410.79
602.18	15519.34
602.376	15240.81
602.572	15390.31
602.769	15054.45
602.965	14876.27
603.161	15246.96
603.357	14845.55
603.553	14927.47
603.75	14958.19
603.946	14571.13
604.142	14995.06
604.338	14685.81
604.534	14737.01
604.73	14634.61
604.926	14761.59
605.122	14687.86
605.318	14411.39
605.514	14548.6
605.71	14442.1
605.906	14485.11
606.102	14618.23
606.298	14655.09
606.494	14200.44
606.69	14065.28
606.886	14304.89
607.082	13915.78
607.278	14233.21
607.474	13960.83
607.67	14354.04
607.866	14116.48
608.062	14519.93
608.257	14098.05
608.453	13944.45
608.649	13909.63
608.845	13762.18
609.041	13813.38
609.236	13856.39
609.432	13930.11
609.628	13856.39
609.824	13584.01
610.019	13627.01
610.215	13715.08
610.411	13813.38
610.606	13584.01
610.802	13753.99
610.998	13733.51
611.193	13725.32
611.389	13655.68
611.584	13459.08
611.78	13438.6
611.976	13411.98
612.171	13471.37
612.367	13584.01
612.562	13194.89
612.758	12988.05
612.953	13164.17
613.149	13713.03
613.344	13170.32
613.539	13141.64
613.735	13303.43
613.93	13225.61
614.126	13098.64
614.321	13440.65
614.517	13184.65
614.712	13160.08
614.907	12904.08
615.103	13106.83
615.298	12955.28
615.493	13018.77
615.688	12926.61
615.884	13254.28
616.079	12938.9
616.274	12879.5
616.47	12637.84
616.665	12848.79
616.86	12869.26
617.055	12707.48
617.25	12707.48
617.445	12885.65
617.641	12486.29
617.836	12607.12
618.031	12551.83
618.226	12654.23
618.421	12334.75
618.616	12623.51
618.811	12369.56
619.006	12566.17
619.201	12295.83
619.396	12330.65
619.591	12119.71
619.786	12293.79
619.981	12048.03
620.176	12172.96
620.371	11716.26
620.566	12011.17
620.761	11814.56
620.956	11878.05
621.151	11851.42
621.346	11876
621.541	11595.43
621.735	11861.66
621.93	11560.61
622.125	11484.84
622.32	11493.03
622.515	11402.92
622.709	11738.79
622.904	11427.49
623.099	11280.04
623.294	11271.85
623.488	11065
623.683	11239.08
623.878	10940.08
624.072	11042.48
624.267	10970.8
624.462	10895.02
624.656	10831.54
624.851	10770.1
625.046	10745.52
625.24	10647.22
625.435	10569.4
625.629	10661.55
625.824	10487.48
626.018	10444.47
626.213	10340.02
626.407	10340.02
626.602	10108.6
626.796	10491.57
626.991	10120.89
627.185	10374.84
627.38	9887.42
627.574	10014.4
627.768	9983.68
627.963	9981.63
628.157	9645.76
628.352	9729.73
628.546	9760.45
628.74	9694.91
628.935	9457.35
629.129	9608.9
629.323	9549.51
629.517	9387.72
629.712	9486.02
629.906	9449.16
630.1	9275.08
630.294	9291.46
630.489	9332.42
630.683	9268.94
630.877	9320.14
631.071	9047.76
631.265	9195.21
631.459	8994.51
631.653	8918.73
631.848	8824.53
632.042	8883.92
632.236	8945.36
632.43	8638.16
632.624	8638.16
632.818	8785.62
633.012	8670.93
633.206	8525.52
633.4	8515.28
633.594	8589.01
633.788	8666.83
633.982	8568.53
634.176	8459.99
634.369	8330.97
634.563	8283.86
634.757	8136.41
634.951	8228.57
635.145	8371.93
635.339	8085.21
635.533	8052.44
635.726	8150.74
635.92	8113.88
636.114	8011.48
636.308	7921.37
636.501	8017.63
636.695	7782.11
636.889	7780.06
637.083	7743.2
637.276	7765.73
637.47	7616.23
637.664	7835.36
637.857	7571.17
638.051	7446.24
638.244	7411.43
638.438	7624.42
638.632	7499.49
638.825	7251.69
639.019	7513.83
639.212	7253.73
639.406	7343.85
639.599	7208.68
639.793	7063.27
639.986	7091.95
640.18	7126.76
640.373	7071.47
640.567	6999.79
640.76	7210.73
640.954	7030.51
641.147	6878.96
641.34	6889.2
641.534	6780.65
641.727	6825.71
641.92	6790.89
642.114	6790.89
642.307	6883.05
642.5	6586.1
642.694	6651.63
642.887	6520.56
643.08	6596.34
643.273	6467.31
643.467	6389.49
643.66	6528.75
643.853	6541.04
644.046	6493.94
644.239	6323.96
644.432	6389.49
644.626	6104.82
644.819	6160.12
645.012	6422.26
645.205	6024.95
645.398	6139.64
645.591	6178.55
645.784	6047.48
645.977	6006.52
646.17	6055.67
646.363	6020.86
646.556	5943.03
646.749	5906.17
646.942	5918.46
647.135	5818.11
647.328	5873.4
647.521	5750.53
647.714	5775.1
647.907	5758.72
648.099	5658.37
648.292	5908.22
648.485	5603.07
648.678	5596.93
648.871	5732.09
649.064	5574.4
649.256	5439.23
649.449	5635.84
649.642	5515.01
649.835	5439.23
650.027	5375.75
650.22	5388.04
650.413	5261.06
650.605	5320.45
650.798	5293.83
650.991	5259.01
651.183	5340.93
651.376	5261.06
651.568	5201.67
651.761	5129.99
651.954	5105.42
652.146	5148.42
652.339	5121.8
652.531	5177.09
652.724	5109.51
652.916	4955.91
653.109	5054.22
653.301	4947.72
653.494	4925.19
653.686	4787.98
653.879	4972.3
654.071	4894.47
654.263	4802.32
654.456	4753.16
654.648	4835.08
654.84	4859.66
655.033	4663.05
655.225	4773.64
655.417	4554.51
655.61	4790.03
655.802	4816.65
655.994	4744.97
656.186	4669.2
656.379	4665.1
656.571	4620.05
656.763	4388.63
656.955	4523.79
657.148	4493.07
657.34	4491.02
657.532	4433.68
657.724	4441.87
657.916	4325.14
658.108	4232.98
658.3	4382.48
658.492	4357.91
658.684	4212.5
658.876	4308.76
659.068	4134.68
659.26	4130.58
659.452	4222.74
659.644	4169.49
659.836	4382.48
660.028	4243.22
660.22	3972.89
660.412	4124.44
660.604	3936.03
660.796	4081.43
660.988	4097.81
661.18	3819.29
661.372	3952.41
661.563	3917.59
661.755	3897.11
661.947	3899.16
662.139	3888.92
662.331	3931.93
662.522	3917.59
662.714	3866.39
662.906	3866.39
663.097	3825.43
663.289	3802.91
663.481	3825.43
663.673	3669.79
663.864	3745.56
664.056	3751.71
664.247	3589.92
664.439	3639.07
664.631	3620.64
664.822	3727.13
665.014	3608.35
665.205	3637.02
665.397	3510.05
665.588	3710.75
665.78	3596.06
665.971	3555.1
666.163	3491.62
666.354	3620.64
666.546	3352.35
666.737	3387.17
666.929	3448.61
667.12	3448.61
667.311	3530.53
667.503	3417.89
667.694	3370.79
667.885	3309.35
668.077	3415.84
668.268	3358.5
668.459	3393.31
668.651	3305.25
668.842	3333.92
669.033	3325.73
669.224	3284.77
669.416	3419.94
669.607	3073.83
669.798	3198.76
669.989	3407.65
670.18	3235.62
670.371	3206.95
670.563	3215.14
670.754	3131.17
670.945	3186.47
671.136	3235.62
671.327	3170.08
671.518	3014.44
671.709	3034.92
671.9	3051.3
672.091	3157.8
672.282	3155.75
672.473	2973.48
672.664	3010.34
672.855	3086.12
673.046	3047.21
673.237	2940.71
673.428	3086.12
673.619	3145.51
673.809	3002.15
674	2928.42
674.191	3096.36
674.382	3036.97
674.573	2926.38
674.764	2893.61
674.954	3018.54
675.145	2844.46
675.336	3002.15
675.527	2903.85
675.717	2918.18
675.908	2875.18
676.099	2869.03
676.289	2893.61
676.48	2854.7
676.671	2809.64
676.861	2866.99
677.052	2907.94
677.243	2793.26
677.433	2922.28
677.624	2737.96
677.814	2862.89
678.005	2785.07
678.195	2899.75
678.386	2883.37
678.576	2793.26
678.767	2680.62
678.957	2793.26
679.148	2887.47
679.338	2813.74
679.529	2807.59
679.719	2801.45
679.909	2764.59
680.1	2686.76
680.29	2713.39
680.481	2703.15
680.671	2762.54
680.861	2760.49
681.052	2826.03
681.242	2705.2
681.432	2760.49
681.622	2713.39
681.813	2713.39
682.003	2807.59
682.193	2682.67
682.383	2737.96
682.573	2645.8
682.764	2625.33
682.954	2654
683.144	2654
683.334	2565.93
683.524	2615.09
683.714	2744.11
683.904	2625.33
684.094	2643.76
684.284	2715.44
684.474	2559.79
684.664	2600.75
684.854	2629.42
685.044	2598.7
685.234	2639.66
685.424	2610.99
685.614	2590.51
685.804	2617.13
685.994	2424.62
686.184	2649.9
686.374	2623.28
686.564	2641.71
686.753	2424.62
686.943	2500.4
687.133	2420.53
687.323	2434.86
687.513	2539.31
687.702	2524.97
687.892	2371.38
688.082	2416.43
688.272	2631.47
688.461	2473.78
688.651	2498.35
688.841	2492.21
689.03	2377.52
689.22	2219.83
689.41	2277.17
689.599	2301.75
689.789	2359.09
689.979	2236.21
690.168	2369.33
690.358	2268.98
690.547	2285.36
690.737	2379.57
690.926	2260.79
691.116	2244.4
691.305	2301.75
691.495	2268.98
691.684	2232.12
691.874	2162.48
692.063	2228.02
692.252	2197.3
692.442	2252.59
692.631	2197.3
692.82	2203.44
693.01	2199.35
693.199	2180.92
693.388	2137.91
693.578	2107.19
693.767	2217.78
693.956	2074.42
694.146	2080.57
694.335	2160.44
694.524	2096.95
694.713	2285.36
694.902	2076.47
695.092	2039.61
695.281	2113.33
695.47	2068.28
695.659	2039.61
695.848	2058.04
696.037	2049.85
696.226	2080.57
696.415	2064.18
696.604	2096.95
696.793	1908.54
696.982	1965.88
697.171	2043.7
697.36	2047.8
697.549	2051.89
697.738	1900.34
697.927	2074.42
698.116	1933.11
698.305	2058.04
698.494	1957.69
698.683	1990.45
698.872	2006.84
699.061	2033.46
699.25	1920.82
699.438	1879.86
699.627	1908.54
699.816	1978.17
700.005	1990.45
700.193	1957.69
700.382	1924.92
700.571	1935.16
700.76	1943.35
700.948	1888.06
701.137	1836.86
701.326	1916.73
701.514	1859.38
701.703	1890.1
701.892	1984.31
702.08	1998.65
702.269	1843
702.457	1791.8
702.646	1945.4
702.834	1851.19
703.023	1933.11
703.212	2023.22
703.4	1961.78
703.589	1867.58
703.777	1892.15
703.965	1808.19
704.154	1920.82
704.342	1843
704.531	1855.29
704.719	1752.89
704.907	1763.13
705.096	1900.34
705.284	1881.91
705.472	1896.25
705.661	1912.63
705.849	1892.15
706.037	1924.92
706.226	1879.86
706.414	1935.16
706.602	1822.52
706.79	1836.86
706.979	1947.45
707.167	1785.66
707.355	1834.81
707.543	1898.3
707.731	1834.81
707.919	1947.45
708.107	1810.23
708.296	1810.23
708.484	1789.75
708.672	1857.34
708.86	1855.29
709.048	1892.15
709.236	1851.19
709.424	1914.68
709.612	1916.73
709.8	1875.77
709.988	1912.63
710.176	1918.78
710.364	1847.1
710.551	1929.02
710.739	1894.2
710.927	1871.67
711.115	1879.86
711.303	1918.78
711.491	1724.22
711.679	1806.14
711.866	1851.19
712.054	1888.06
712.242	1965.88
712.43	1818.43
712.617	1777.47
712.805	1793.85
712.993	1756.99
713.181	1728.31
713.368	1877.82
713.556	1937.21
713.744	1926.97
713.931	1832.76
714.119	1857.34
714.306	1910.58
714.494	1818.43
714.682	1933.11
714.869	1787.71
715.057	1861.43
715.244	1916.73
715.432	1834.81
715.619	1847.1
715.807	1881.91
715.994	1859.38
716.182	1793.85
716.369	1974.07
716.556	1986.36
716.744	1806.14
716.931	1916.73
717.119	2015.03
717.306	1943.35
717.493	1935.16
717.681	1978.17
717.868	1900.34
718.055	1988.41
718.242	1892.15
718.43	1834.81
718.617	1787.71
718.804	1894.2
718.991	1943.35
719.179	1834.81
719.366	1933.11
719.553	1918.78
719.74	1883.96
719.927	1910.58
720.114	1886.01
720.301	1916.73
720.488	1820.47
720.676	1904.44
720.863	1996.6
721.05	1935.16
721.237	1845.05
721.424	1908.54
721.611	1949.5
721.798	1967.93
721.985	1941.3
722.172	1990.45
722.358	1883.96
722.545	1990.45
722.732	1851.19
722.919	1949.5
723.106	1851.19
723.293	1840.95
723.48	1916.73
723.667	1941.3
723.853	2017.08
724.04	1969.98
724.227	1916.73
724.414	1998.65
724.6	1926.97
724.787	2015.03
724.974	1935.16
725.161	1916.73
725.347	2004.79
725.534	1976.12
725.72	1902.39
725.907	1969.98
726.094	1984.31
726.28	1918.78
726.467	1922.87
726.653	1888.06
726.84	1931.06
727.027	2047.8
727.213	1804.09
727.4	1949.5
727.586	1963.83
727.773	1937.21
727.959	1920.82
728.145	2047.8
728.332	1963.83
728.518	1933.11
728.705	1953.59
728.891	1945.4
729.077	2006.84
729.264	1978.17
729.45	1924.92
729.636	2129.72
729.823	1912.63
730.009	1988.41
730.195	1945.4
730.382	1974.07
730.568	2000.69
730.754	1965.88
730.94	2002.74
731.126	1992.5
731.313	1961.78
731.499	2010.93
731.685	2053.94
731.871	2043.7
732.057	1974.07
732.243	1986.36
732.429	1910.58
732.615	2017.08
732.801	2041.65
732.987	1881.91
733.173	1890.1
733.359	2004.79
733.545	2031.41
733.731	1916.73
733.917	2086.71
734.103	1992.5
734.289	2076.47
734.475	2070.33
734.661	1998.65
734.847	1900.34
735.033	2031.41
735.219	2008.89
735.404	2064.18
735.59	1990.45
735.776	1961.78
735.962	1992.5
736.148	2154.29
736.333	2049.85
736.519	1937.21
736.705	1953.59
736.89	2002.74
737.076	2072.37
737.262	1908.54
737.447	1806.14
737.633	1947.45
737.819	2019.13
738.004	1912.63
738.19	1926.97
738.375	1976.12
738.561	2041.65
738.747	1974.07
738.932	2027.32
739.118	1926.97
739.303	1957.69
739.489	1957.69
739.674	1943.35
739.859	1851.19
740.045	1847.1
740.23	1961.78
740.416	1867.58
740.601	1861.43
740.786	1988.41
740.972	1834.81
741.157	1892.15
741.342	1947.45
741.528	1820.47
741.713	2027.32
741.898	1867.58
742.084	1890.1
742.269	1820.47
742.454	1908.54
742.639	1834.81
742.824	1802.04
743.01	1777.47
743.195	1937.21
743.38	1843
743.565	1941.3
743.75	1863.48
743.935	1843
744.12	1886.01
744.305	1763.13
744.49	1810.23
744.675	1748.79
744.86	1853.24
745.045	1703.74
745.23	1777.47
745.415	1720.12
745.6	1855.29
745.785	1679.16
745.97	1838.91
746.155	1746.75
746.34	1713.98
746.525	1666.88
746.71	1767.23
746.895	1713.98
747.079	1679.16
747.264	1634.11
747.449	1695.55
747.634	1718.08
747.819	1662.78
748.003	1713.98
748.188	1607.48
748.373	1638.2
748.557	1619.77
748.742	1675.07
748.927	1566.53
749.111	1515.33
749.296	1589.05
749.481	1525.57
749.665	1523.52
749.85	1613.63
750.034	1591.1
750.219	1597.24
750.404	1462.08
750.588	1613.63
750.773	1486.65
750.957	1560.38
751.141	1435.46
751.326	1566.53
751.51	1494.85
751.695	1449.79
751.879	1417.02
752.064	1331.01
752.248	1408.83
752.432	1482.56
752.617	1347.39
752.801	1408.83
752.985	1363.78
753.17	1402.69
753.354	1349.44
753.538	1394.5
753.722	1435.46
753.907	1349.44
754.091	1333.06
754.275	1269.57
754.459	1277.76
754.643	1359.68
754.828	1253.19
755.012	1343.3
755.196	1216.32
755.38	1244.99
755.564	1257.28
755.748	1318.72
755.932	1288
756.116	1361.73
756.3	1232.71
756.484	1226.56
756.668	1290.05
756.852	1158.98
757.036	1216.32
757.22	1232.71
757.404	1255.23
757.588	1158.98
757.772	1115.97
757.956	1187.65
758.14	1146.69
758.323	1148.74
758.507	1099.59
758.691	1179.46
758.875	1126.21
759.059	1140.55
759.242	1058.63
759.426	1187.65
759.61	993.09
759.794	1068.87
759.977	1048.39
760.161	1105.73
760.345	1093.44
760.528	1191.75
760.712	1062.73
760.895	1070.92
761.079	1095.49
761.263	1015.62
761.446	1072.96
761.63	968.52
761.813	1124.16
761.997	991.05
762.18	1050.44
762.364	939.85
762.547	1015.62
762.731	958.28
762.914	1007.43
763.098	1056.58
763.281	982.85
763.464	1013.57
763.648	966.47
763.831	993.09
764.015	937.8
764.198	960.33
764.381	909.13
764.564	888.65
764.748	900.94
764.931	950.09
765.114	966.47
765.297	956.23
765.481	970.57
765.664	974.66
765.847	859.98
766.03	898.89
766.213	810.82
766.397	968.52
766.58	884.55
766.763	943.94
766.946	796.49
767.129	868.17
767.312	884.55
767.495	943.94
767.678	831.3
767.861	978.76
768.044	880.46
768.227	929.61
768.41	827.21
768.593	876.36
768.776	984.9
768.959	827.21
769.142	872.26
769.324	800.59
769.507	851.78
769.69	804.68
769.873	921.42
770.056	892.74
770.239	759.63
770.421	839.5
770.604	794.44
770.787	810.82
770.97	847.69
771.152	728.91
771.335	776.01
771.518	759.63
771.7	870.22
771.883	837.45
772.066	855.88
772.248	751.43
772.431	823.11
772.613	812.87
772.796	749.39
772.978	798.54
773.161	739.15
773.343	741.19
773.526	663.37
773.708	687.95
773.891	751.43
774.073	761.67
774.256	708.43
774.438	755.53
774.621	692.04
774.803	782.15
774.985	769.87
775.168	689.99
775.35	687.95
775.532	763.72
775.715	663.37
775.897	739.15
776.079	692.04
776.261	622.41
776.444	642.89
776.626	624.46
776.808	687.95
776.99	661.32
777.173	524.11
777.355	622.41
777.537	655.18
777.719	612.17
777.901	638.8
778.083	651.08
778.265	565.07
778.447	616.27
778.629	573.26
778.811	657.23
778.993	599.88
779.175	597.84
779.357	610.12
779.539	593.74
779.721	581.45
779.903	640.84
780.085	683.85
780.267	540.49
780.449	567.12
780.631	556.88
780.812	573.26
780.994	509.77
781.176	556.88
781.358	548.68
781.54	532.3
781.721	499.53
781.903	579.4
782.085	565.07
782.267	556.88
782.448	442.19
782.63	546.64
782.812	499.53
782.993	487.25
783.175	524.11
783.357	524.11
783.538	483.15
783.72	446.29
783.901	450.38
784.083	454.48
784.264	460.62
784.446	434
784.627	466.77
784.809	485.2
784.99	370.51
785.172	405.33
785.353	386.9
785.535	448.33
785.716	462.67
785.897	409.42
786.079	360.27
786.26	352.08
786.441	360.27
786.623	304.98
786.804	395.09
786.985	442.19
787.167	388.94
787.348	436.05
787.529	352.08
787.71	401.23
787.891	440.14
788.073	407.38
788.254	280.4
788.435	417.61
788.616	352.08
788.797	409.42
788.978	386.9
789.159	388.94
789.34	390.99
789.522	333.65
789.703	311.12
789.884	460.62
790.065	325.46
790.246	452.43
790.427	257.87
790.607	360.27
790.788	417.61
790.969	304.98
791.15	352.08
791.331	368.46
791.512	298.83
791.693	296.78
791.874	282.45
792.054	345.94
792.235	337.74
792.416	284.5
792.597	415.57
792.778	343.89
792.958	337.74
793.139	352.08
793.32	335.7
793.5	397.14
793.681	335.7
793.862	280.4
794.042	261.97
794.223	274.26
794.404	331.6
794.584	270.16
794.765	292.69
794.945	309.07
795.126	307.02
795.306	384.85
795.487	274.26
795.667	241.49
795.848	298.83
796.028	284.5
796.209	296.78
796.389	331.6
796.57	302.93
796.75	237.39
796.93	264.02
797.111	169.81
797.291	200.53
797.471	266.07
797.652	323.41
797.832	212.82
798.012	223.06
798.192	139.09
798.373	204.63
798.553	245.59
798.733	241.49
798.913	276.31
799.093	290.64
799.274	280.4
799.454	270.16
799.634	175.95
799.814	333.65
799.994	280.4
800.174	212.82
800.354	229.2
800.534	210.77
800.714	241.49
800.894	198.48
801.074	237.39
801.254	139.09
801.434	272.21
801.614	180.05
801.794	192.34
801.974	771.91
802.154	190.29
802.334	216.91
802.514	71.51
802.693	241.49
802.873	169.81
803.053	317.26
803.233	210.77
803.413	192.34
803.592	214.87
803.772	214.87
803.952	173.91
804.131	163.67
804.311	188.24
804.491	171.86
804.67	237.39
804.85	229.2
805.03	171.86
805.209	208.72
805.389	171.86
805.568	239.44
805.748	184.15
805.928	233.3
806.107	218.96
806.287	225.11
806.466	216.91
806.646	204.63
806.825	171.86
807.004	198.48
807.184	190.29
807.363	192.34
807.543	188.24
807.722	151.38
807.901	192.34
808.081	255.83
808.26	106.32
808.439	204.63
808.619	196.43
808.798	159.57
808.977	124.76
809.156	221.01
809.336	145.24
809.515	204.63
809.694	110.42
809.873	124.76
810.052	118.61
810.231	173.91
810.411	128.85
810.59	171.86
810.769	204.63
810.948	141.14
811.127	159.57
811.306	188.24
811.485	247.63
811.664	118.61
811.843	159.57
812.022	139.09
812.201	114.52
812.38	286.54
812.559	122.71
812.737	180.05
812.916	130.9
813.095	130.9
813.274	135
813.453	184.15
813.632	171.86
813.811	151.38
813.989	149.33
814.168	233.3
814.347	57.17
814.526	141.14
814.704	186.19
814.883	194.39
815.062	87.89
815.24	155.47
815.419	122.71
815.598	180.05
815.776	122.71
815.955	73.56
816.133	98.13
816.312	151.38
816.49	79.7
816.669	91.99
816.847	200.53
817.026	143.19
817.204	157.52
817.383	216.91
817.561	75.6
817.74	171.86
817.918	141.14
818.097	122.71
818.275	51.03
818.453	116.56
818.632	180.05
818.81	141.14
818.988	141.14
819.167	106.32
819.345	128.85
819.523	114.52
819.701	155.47
819.879	73.56
820.058	143.19
820.236	122.71
820.414	155.47
820.592	171.86
820.77	108.37
820.948	180.05
821.127	106.32
821.305	139.09
821.483	135
821.661	94.04
821.839	106.32
822.017	147.28
822.195	81.75
822.373	77.65
822.551	163.67
822.729	73.56
822.907	130.9
823.085	61.27
823.262	81.75
823.44	114.52
823.618	110.42
823.796	67.41
823.974	106.32
824.152	79.7
824.329	94.04
824.507	81.75
824.685	73.56
824.863	157.52
825.04	98.13
825.218	110.42
825.396	83.8
825.574	73.56
825.751	124.76
825.929	108.37
826.107	32.6
826.284	171.86
826.462	22.36
826.639	124.76
826.817	42.84
826.994	169.81
827.172	-10.41
827.349	108.37
827.527	75.6
827.704	161.62
827.882	89.94
828.059	38.74
828.237	57.17
828.414	106.32
828.591	20.31
828.769	112.47
828.946	40.79
829.124	108.37
829.301	122.71
829.478	73.56
829.655	114.52
829.833	77.65
830.01	89.94
830.187	42.84
830.364	106.32
830.542	65.36
830.719	147.28
830.896	12.12
831.073	57.17
831.25	91.99
831.427	18.26
831.604	65.36
831.782	79.7
831.959	67.41
832.136	61.27
832.313	75.6
832.49	-0.17
832.667	73.56
832.844	-14.51
833.021	122.71
833.198	73.56
833.374	77.65
833.551	100.18
833.728	91.99
833.905	69.46
834.082	40.79
834.259	122.71
834.436	63.32
834.612	102.23
834.789	110.42
834.966	106.32
835.143	65.36
835.319	-28.84
835.496	108.37
835.673	36.69
835.85	73.56
836.026	51.03
836.203	124.76
836.38	100.18
836.556	65.36
836.733	3.93
836.909	114.52
837.086	59.22
837.262	26.45
837.439	48.98
837.616	81.75
837.792	42.84
837.968	16.21
838.145	-26.79
838.321	87.89
838.498	53.08
838.674	104.28
838.851	94.04
839.027	44.88
839.203	51.03
839.38	-26.79
839.556	83.8
839.732	114.52
839.909	40.79
840.085	42.84
840.261	71.51
840.437	48.98
840.614	32.6
840.79	112.47
840.966	18.26
841.142	59.22
841.318	20.31
841.494	77.65
841.671	67.41
841.847	-0.17
842.023	-16.55
842.199	69.46
842.375	8.02
842.551	-32.94
842.727	18.26
842.903	40.79
843.079	-4.27
843.255	147.28
843.431	28.5
843.607	1.88
843.783	30.55
843.959	65.36
844.134	87.89
844.31	94.04
844.486	-43.18
844.662	106.32
844.838	44.88
845.013	36.69
845.189	85.84
845.365	48.98
845.541	12.12
845.716	83.8
845.892	73.56
846.068	34.64
846.244	-14.51
846.419	48.98
846.595	-65.71
846.77	36.69
846.946	75.6
847.122	36.69
847.297	-26.79
847.473	75.6
847.648	-47.27
847.824	65.36
847.999	-12.46
848.175	114.52
848.35	18.26
848.526	51.03
848.701	3.93
848.876	32.6
849.052	83.8
849.227	59.22
849.403	114.52
849.578	26.45
849.753	-26.79
849.929	42.84
850.104	-0.17
850.279	32.6
850.454	81.75
850.63	48.98
850.805	46.93
850.98	73.56
851.155	12.12
851.33	-24.75
851.505	-22.7
851.681	100.18
851.856	-2.22
852.031	32.6
852.206	59.22
852.381	73.56
852.556	-12.46
852.731	-32.94
852.906	55.12
853.081	102.23
853.256	26.45
853.431	61.27
853.606	-24.75
853.781	32.6
853.956	-20.65
854.131	57.17
854.305	-24.75
854.48	10.07
854.655	16.21
854.83	61.27
855.005	-59.56
855.18	18.26
855.354	-20.65
855.529	20.31
855.704	14.17
855.879	89.94
856.053	-12.46
856.228	40.79
856.403	8.02
856.577	26.45
856.752	-47.27
856.926	51.03
857.101	69.46
857.276	48.98
857.45	34.64
857.625	24.4
857.799	22.36
857.974	89.94
858.148	10.07
858.323	53.08
858.497	8.02
858.672	24.4
858.846	-0.17
859.02	57.17
859.195	26.45
859.369	42.84
859.543	10.07
859.718	51.03
859.892	59.22
860.066	89.94
860.241	-59.56
860.415	18.26
860.589	24.4
860.763	-39.08
860.938	55.12
861.112	57.17
861.286	34.64
861.46	77.65
861.634	-0.17
861.808	-0.17
861.982	-16.55
862.157	-8.36
862.331	8.02
862.505	24.4
862.679	-65.71
862.853	-16.55
863.027	59.22
863.201	-73.9
863.375	-0.17
863.549	20.31
863.722	42.84
863.896	24.4
864.07	-47.27
864.244	-53.42
864.418	40.79
864.592	16.21
864.766	51.03
864.939	87.89
865.113	8.02
865.287	53.08
865.461	-32.94
865.634	-6.31
865.808	-8.36
865.982	24.4
866.156	18.26
866.329	-57.51
866.503	135
866.676	1.88
866.85	-8.36
867.024	48.98
867.197	65.36
867.371	8.02
867.544	3.93
867.718	44.88
867.891	48.98
868.065	59.22
868.238	-39.08
868.412	16.21
868.585	108.37
868.759	48.98
868.932	-16.55
869.105	32.6
869.279	59.22
869.452	-59.56
869.625	22.36
869.799	-47.27
869.972	-37.03
870.145	3.93
870.319	28.5
870.492	-0.17
870.665	-6.31
870.838	-14.51
871.011	-84.14
871.185	-18.6
871.358	-53.42
871.531	3.93
871.704	57.17
871.877	12.12
872.05	-75.95
872.223	-0.17
872.396	20.31
872.569	-24.75
872.742	36.69
872.915	-8.36
873.088	20.31
873.261	-47.27
873.434	3.93
873.607	44.88
873.78	48.98
873.953	-80.04
874.126	-8.36
874.299	28.5
874.471	36.69
874.644	10.07
874.817	-12.46
874.99	48.98
875.163	-6.31
875.335	20.31
875.508	10.07
875.681	8.02
875.853	1.88
876.026	-14.51
876.199	32.6
876.371	53.08
876.544	-14.51
876.717	79.7
876.889	-24.75
877.062	-24.75
877.234	12.12
877.407	59.22
877.579	69.46
877.752	57.17
877.924	28.5
878.097	3.93
878.269	16.21
878.442	32.6
878.614	-24.75
878.786	46.93
878.959	8.02
879.131	3.93
879.303	-49.32
879.476	-24.75
879.648	59.22
879.82	-30.89
879.993	89.94
880.165	-4.27
880.337	-8.36
880.509	10.07
880.681	-49.32
880.854	8.02
881.026	-32.94
881.198	24.4
881.37	30.55
881.542	40.79
881.714	65.36
881.886	-6.31
882.058	-0.17
882.23	53.08
882.402	-32.94
882.574	-55.47
882.746	-12.46
882.918	28.5
883.09	-49.32
883.262	75.6
883.434	-8.36
883.606	14.17
883.778	61.27
883.95	26.45
884.122	-26.79
884.293	59.22
884.465	48.98
884.637	-6.31
884.809	-84.14
884.98	12.12
885.152	57.17
885.324	65.36
885.496	-67.75
885.667	34.64
885.839	5.97
886.011	65.36
886.182	57.17
886.354	26.45
886.525	-4.27
886.697	8.02
886.869	-34.99
887.04	34.64
887.212	94.04
887.383	16.21
887.555	-41.13
887.726	10.07
887.897	-49.32
888.069	-32.94
888.24	16.21
888.412	-6.31
888.583	-37.03
888.754	18.26
888.926	-53.42
889.097	8.02
889.268	-88.23
889.44	-0.17
889.611	-51.37
889.782	20.31
889.953	-41.13
890.125	38.74
890.296	18.26
890.467	28.5
890.638	-20.65
890.809	22.36
890.98	-30.89
891.151	-12.46
891.323	36.69
891.494	-39.08
891.665	12.12
891.836	-30.89
892.007	-49.32
892.178	65.36
892.349	-12.46
892.52	-41.13
892.691	-16.55
892.862	-0.17
893.032	-24.75
893.203	34.64
893.374	26.45
893.545	51.03
893.716	-59.56
893.887	65.36
894.057	-14.51
894.228	8.02
894.399	-14.51
894.57	-0.17
894.74	46.93
894.911	40.79
895.082	-24.75
895.253	-39.08
895.423	-4.27
895.594	28.5
895.764	1.88
895.935	-6.31
896.106	16.21
896.276	28.5
896.447	-43.18
896.617	-28.84
896.788	-16.55
896.958	-0.17
897.129	12.12
897.299	-32.94
897.47	-8.36
897.64	-22.7
897.81	-22.7
897.981	61.27
898.151	8.02
898.322	48.98
898.492	3.93
898.662	-41.13
898.832	14.17
899.003	18.26
899.173	-71.85
899.343	-32.94
899.513	10.07
