Data from USB4F104151__96__14-43-37-254.txt Node

Date: Thu Mar 13 14:43:37 EDT 2025
User: louis
Spectrometer: USB4F10415
Trigger mode: 4
Integration Time (sec): 2.000000E-2
Scans to average: 1
Electric dark correction enabled: true
Nonlinearity correction enabled: false
Boxcar width: 0
XAxis mode: Wavelengths
Number of Pixels in Spectrum: 3648
>>>>>Begin Spectral Data<<<<<
178.204	-67.58
178.424	-67.58
178.644	-67.58
178.864	-86.01
179.084	-43.01
179.304	-4.1
179.524	32.77
179.744	-2.05
179.964	10.24
180.184	69.63
180.404	18.43
180.624	-73.73
180.844	-16.38
181.064	-10.24
181.283	49.15
181.503	6.14
181.723	-79.87
181.943	-14.34
182.163	153.6
182.383	63.49
182.602	38.91
182.822	122.88
183.042	147.45
183.262	32.77
183.482	36.86
183.701	-10.24
183.921	55.3
184.141	22.53
184.361	88.06
184.58	77.82
184.8	65.54
185.02	30.72
185.239	16.38
185.459	98.3
185.679	88.06
185.898	40.96
186.118	114.69
186.338	-8.19
186.557	108.54
186.777	73.73
186.997	55.3
187.216	40.96
187.436	124.93
187.655	30.72
187.875	18.43
188.095	49.15
188.314	73.73
188.534	63.49
188.753	38.91
188.973	53.25
189.192	18.43
189.412	55.3
189.631	65.54
189.851	16.38
190.07	157.69
190.29	77.82
190.509	79.87
190.729	51.2
190.948	30.72
191.168	139.26
191.387	32.77
191.607	98.3
191.826	38.91
192.045	59.39
192.265	38.91
192.484	14.34
192.704	100.35
192.923	104.45
193.142	112.64
193.362	71.68
193.581	55.3
193.8	32.77
194.02	126.97
194.239	73.73
194.458	129.02
194.678	-38.91
194.897	22.53
195.116	-2.05
195.335	83.97
195.555	71.68
195.774	90.11
195.993	43.01
196.212	79.87
196.432	26.62
196.651	40.96
196.87	26.62
197.089	104.45
197.308	51.2
197.528	40.96
197.747	63.49
197.966	57.34
198.185	47.1
198.404	24.58
198.623	124.93
198.842	49.15
199.062	53.25
199.281	34.82
199.5	83.97
199.719	81.92
199.938	47.1
200.157	14.34
200.376	12.29
200.595	47.1
200.814	63.49
201.033	88.06
201.252	100.35
201.471	47.1
201.69	141.31
201.909	63.49
202.128	26.62
202.347	129.02
202.566	92.16
202.785	24.58
203.004	47.1
203.223	28.67
203.442	112.64
203.661	65.54
203.879	79.87
204.098	43.01
204.317	0
204.536	94.21
204.755	71.68
204.974	22.53
205.193	96.25
205.411	178.17
205.63	51.2
205.849	73.73
206.068	124.93
206.287	47.1
206.505	100.35
206.724	8.19
206.943	88.06
207.162	38.91
207.381	38.91
207.599	40.96
207.818	71.68
208.037	14.34
208.255	116.73
208.474	102.4
208.693	30.72
208.911	61.44
209.13	22.53
209.349	59.39
209.567	45.06
209.786	63.49
210.005	22.53
210.223	-14.34
210.442	-22.53
210.661	61.44
210.879	55.3
211.098	24.58
211.316	45.06
211.535	55.3
211.753	22.53
211.972	43.01
212.191	36.86
212.409	57.34
212.628	120.83
212.846	14.34
213.065	71.68
213.283	79.87
213.502	8.19
213.72	106.49
213.938	57.34
214.157	32.77
214.375	69.63
214.594	81.92
214.812	38.91
215.031	16.38
215.249	98.3
215.467	-14.34
215.686	129.02
215.904	75.77
216.122	114.69
216.341	38.91
216.559	88.06
216.778	73.73
216.996	96.25
217.214	6.14
217.432	24.58
217.651	73.73
217.869	129.02
218.087	10.24
218.306	59.39
218.524	100.35
218.742	10.24
218.96	79.87
219.179	34.82
219.397	-8.19
219.615	30.72
219.833	-18.43
220.051	100.35
220.27	129.02
220.488	114.69
220.706	34.82
220.924	75.77
221.142	16.38
221.36	90.11
221.578	47.1
221.796	57.34
222.015	32.77
222.233	34.82
222.451	30.72
222.669	47.1
222.887	79.87
223.105	30.72
223.323	22.53
223.541	-26.62
223.759	10.24
223.977	59.39
224.195	49.15
224.413	71.68
224.631	24.58
224.849	24.58
225.067	153.6
225.285	36.86
225.503	90.11
225.721	34.82
225.939	94.21
226.157	55.3
226.375	112.64
226.592	71.68
226.81	112.64
227.028	137.21
227.246	104.45
227.464	73.73
227.682	88.06
227.9	94.21
228.117	40.96
228.335	63.49
228.553	55.3
228.771	79.87
228.989	122.88
229.206	86.01
229.424	40.96
229.642	2.05
229.86	8.19
230.077	73.73
230.295	26.62
230.513	63.49
230.731	79.87
230.948	40.96
231.166	96.25
231.384	67.58
231.601	22.53
231.819	53.25
232.037	90.11
232.254	30.72
232.472	43.01
232.689	-20.48
232.907	63.49
233.125	94.21
233.342	30.72
233.56	26.62
233.777	118.78
233.995	-6.14
234.213	112.64
234.43	169.98
234.648	98.3
234.865	26.62
235.083	98.3
235.3	75.77
235.518	65.54
235.735	114.69
235.953	45.06
236.17	47.1
236.388	-51.2
236.605	32.77
236.822	153.6
237.04	100.35
237.257	43.01
237.475	-22.53
237.692	10.24
237.909	98.3
238.127	61.44
238.344	34.82
238.562	96.25
238.779	40.96
238.996	-2.05
239.214	-24.58
239.431	106.49
239.648	30.72
239.865	59.39
240.083	63.49
240.3	75.77
240.517	30.72
240.735	-18.43
240.952	49.15
241.169	38.91
241.386	71.68
241.603	112.64
241.821	43.01
242.038	24.58
242.255	43.01
242.472	30.72
242.689	120.83
242.907	75.77
243.124	38.91
243.341	71.68
243.558	24.58
243.775	45.06
243.992	22.53
244.209	139.26
244.426	88.06
244.643	81.92
244.86	73.73
245.078	126.97
245.295	79.87
245.512	81.92
245.729	-18.43
245.946	38.91
246.163	36.86
246.38	92.16
246.597	0
246.814	79.87
247.031	14.34
247.248	116.73
247.464	-6.14
247.681	71.68
247.898	131.07
248.115	63.49
248.332	38.91
248.549	73.73
248.766	81.92
248.983	133.12
249.2	36.86
249.417	18.43
249.633	90.11
249.85	65.54
250.067	10.24
250.284	43.01
250.501	133.12
250.717	26.62
250.934	-8.19
251.151	-2.05
251.368	92.16
251.585	75.77
251.801	32.77
252.018	71.68
252.235	75.77
252.451	32.77
252.668	-26.62
252.885	36.86
253.102	10.24
253.318	131.07
253.535	10.24
253.752	-10.24
253.968	86.01
254.185	16.38
254.401	83.97
254.618	114.69
254.835	22.53
255.051	120.83
255.268	137.21
255.484	49.15
255.701	55.3
255.917	114.69
256.134	-4.1
256.351	61.44
256.567	16.38
256.784	106.49
257	0
257.217	126.97
257.433	88.06
257.65	79.87
257.866	81.92
258.082	-14.34
258.299	30.72
258.515	71.68
258.732	90.11
258.948	38.91
259.165	79.87
259.381	-2.05
259.597	83.97
259.814	40.96
260.03	55.3
260.246	-6.14
260.463	81.92
260.679	79.87
260.895	63.49
261.112	81.92
261.328	38.91
261.544	-20.48
261.761	139.26
261.977	30.72
262.193	73.73
262.409	114.69
262.626	71.68
262.842	55.3
263.058	-10.24
263.274	32.77
263.49	43.01
263.707	22.53
263.923	53.25
264.139	26.62
264.355	71.68
264.571	96.25
264.787	43.01
265.004	88.06
265.22	2.05
265.436	47.1
265.652	-10.24
265.868	-40.96
266.084	32.77
266.3	38.91
266.516	-16.38
266.732	49.15
266.948	34.82
267.164	108.54
267.38	8.19
267.596	71.68
267.812	151.55
268.028	55.3
268.244	-18.43
268.46	38.91
268.676	-10.24
268.892	98.3
269.108	-6.14
269.324	14.34
269.54	45.06
269.756	131.07
269.972	47.1
270.188	90.11
270.403	-16.38
270.619	-18.43
270.835	47.1
271.051	120.83
271.267	16.38
271.483	36.86
271.698	57.34
271.914	45.06
272.13	55.3
272.346	92.16
272.562	49.15
272.777	104.45
272.993	16.38
273.209	26.62
273.425	98.3
273.64	10.24
273.856	77.82
274.072	96.25
274.287	-55.3
274.503	112.64
274.719	45.06
274.934	120.83
275.15	32.77
275.366	34.82
275.581	36.86
275.797	92.16
276.012	30.72
276.228	24.58
276.444	34.82
276.659	73.73
276.875	108.54
277.09	26.62
277.306	47.1
277.521	71.68
277.737	71.68
277.952	79.87
278.168	26.62
278.383	8.19
278.599	71.68
278.814	0
279.03	55.3
279.245	104.45
279.461	65.54
279.676	94.21
279.892	71.68
280.107	24.58
280.322	-28.67
280.538	38.91
280.753	34.82
280.969	65.54
281.184	55.3
281.399	192.51
281.615	88.06
281.83	124.93
282.045	18.43
282.26	30.72
282.476	26.62
282.691	104.45
282.906	-16.38
283.122	63.49
283.337	55.3
283.552	79.87
283.767	65.54
283.983	98.3
284.198	59.39
284.413	98.3
284.628	-2.05
284.843	22.53
285.058	137.21
285.274	34.82
285.489	75.77
285.704	6.14
285.919	22.53
286.134	38.91
286.349	-24.58
286.564	-10.24
286.779	81.92
286.995	157.69
287.21	96.25
287.425	100.35
287.64	2.05
287.855	104.45
288.07	59.39
288.285	38.91
288.5	28.67
288.715	73.73
288.93	65.54
289.145	32.77
289.36	88.06
289.575	34.82
289.79	100.35
290.004	114.69
290.219	81.92
290.434	92.16
290.649	55.3
290.864	22.53
291.079	71.68
291.294	86.01
291.509	88.06
291.724	131.07
291.938	92.16
292.153	16.38
292.368	32.77
292.583	94.21
292.798	57.34
293.012	38.91
293.227	-10.24
293.442	55.3
293.657	120.83
293.871	102.4
294.086	71.68
294.301	116.73
294.516	98.3
294.73	59.39
294.945	-22.53
295.16	32.77
295.374	71.68
295.589	145.41
295.804	59.39
296.018	55.3
296.233	178.17
296.447	96.25
296.662	49.15
296.877	98.3
297.091	75.77
297.306	38.91
297.52	96.25
297.735	51.2
297.949	57.34
298.164	26.62
298.378	83.97
298.593	-26.62
298.807	81.92
299.022	108.54
299.236	143.36
299.451	-32.77
299.665	67.58
299.88	6.14
300.094	108.54
300.309	81.92
300.523	88.06
300.737	65.54
300.952	51.2
301.166	126.97
301.381	71.68
301.595	83.97
301.809	88.06
302.024	116.73
302.238	63.49
302.452	215.04
302.667	8.19
302.881	96.25
303.095	38.91
303.309	57.34
303.524	30.72
303.738	-18.43
303.952	10.24
304.166	67.58
304.381	22.53
304.595	124.93
304.809	8.19
305.023	40.96
305.237	79.87
305.452	55.3
305.666	22.53
305.88	14.34
306.094	92.16
306.308	40.96
306.522	120.83
306.736	137.21
306.95	75.77
307.164	104.45
307.379	104.45
307.593	108.54
307.807	49.15
308.021	79.87
308.235	55.3
308.449	49.15
308.663	26.62
308.877	38.91
309.091	38.91
309.305	114.69
309.519	88.06
309.733	157.69
309.947	47.1
310.161	40.96
310.374	73.73
310.588	114.69
310.802	-22.53
311.016	10.24
311.23	63.49
311.444	71.68
311.658	94.21
311.872	157.69
312.085	94.21
312.299	30.72
312.513	153.6
312.727	47.1
312.941	65.54
313.154	79.87
313.368	53.25
313.582	-8.19
313.796	63.49
314.009	26.62
314.223	49.15
314.437	71.68
314.651	-2.05
314.864	63.49
315.078	88.06
315.292	-2.05
315.505	47.1
315.719	57.34
315.933	71.68
316.146	83.97
316.36	59.39
316.573	32.77
316.787	104.45
317.001	75.77
317.214	30.72
317.428	137.21
317.641	65.54
317.855	63.49
318.068	92.16
318.282	122.88
318.495	65.54
318.709	96.25
318.922	55.3
319.136	131.07
319.349	49.15
319.563	8.19
319.776	114.69
319.99	28.67
320.203	79.87
320.417	24.58
320.63	79.87
320.843	169.98
321.057	57.34
321.27	88.06
321.483	106.49
321.697	55.3
321.91	106.49
322.124	75.77
322.337	8.19
322.55	-16.38
322.763	30.72
322.977	30.72
323.19	22.53
323.403	83.97
323.617	71.68
323.83	98.3
324.043	88.06
324.256	59.39
324.469	22.53
324.683	141.31
324.896	-8.19
325.109	69.63
325.322	51.2
325.535	57.34
325.748	45.06
325.962	71.68
326.175	55.3
326.388	90.11
326.601	102.4
326.814	71.68
327.027	116.73
327.24	96.25
327.453	-12.29
327.666	65.54
327.879	28.67
328.092	63.49
328.305	53.25
328.518	71.68
328.731	53.25
328.944	79.87
329.157	-6.14
329.37	8.19
329.583	116.73
329.796	36.86
330.009	88.06
330.222	151.55
330.435	-16.38
330.648	22.53
330.861	32.77
331.073	88.06
331.286	110.59
331.499	40.96
331.712	98.3
331.925	81.92
332.138	71.68
332.35	131.07
332.563	88.06
332.776	81.92
332.989	38.91
333.202	43.01
333.414	122.88
333.627	36.86
333.84	14.34
334.053	83.97
334.265	-47.1
334.478	-34.82
334.691	24.58
334.903	75.77
335.116	34.82
335.329	43.01
335.541	108.54
335.754	133.12
335.966	55.3
336.179	43.01
336.392	55.3
336.604	71.68
336.817	24.58
337.029	71.68
337.242	-10.24
337.454	137.21
337.667	63.49
337.88	102.4
338.092	-16.38
338.305	71.68
338.517	79.87
338.729	83.97
338.942	47.1
339.154	28.67
339.367	96.25
339.579	98.3
339.792	-51.2
340.004	34.82
340.217	147.45
340.429	59.39
340.641	73.73
340.854	112.64
341.066	55.3
341.278	65.54
341.491	92.16
341.703	55.3
341.915	49.15
342.128	65.54
342.34	67.58
342.552	2.05
342.764	100.35
342.977	88.06
343.189	51.2
343.401	98.3
343.613	28.67
343.826	108.54
344.038	88.06
344.25	110.59
344.462	-2.05
344.674	98.3
344.886	94.21
345.099	43.01
345.311	73.73
345.523	88.06
345.735	79.87
345.947	157.69
346.159	18.43
346.371	161.79
346.583	20.48
346.795	122.88
347.007	55.3
347.219	14.34
347.431	43.01
347.643	131.07
347.855	73.73
348.067	79.87
348.279	36.86
348.491	96.25
348.703	40.96
348.915	106.49
349.127	0
349.339	30.72
349.551	124.93
349.763	6.14
349.975	18.43
350.187	124.93
350.399	40.96
350.61	71.68
350.822	67.58
351.034	32.77
351.246	157.69
351.458	22.53
351.669	75.77
351.881	43.01
352.093	172.03
352.305	55.3
352.517	120.83
352.728	120.83
352.94	55.3
353.152	65.54
353.363	47.1
353.575	57.34
353.787	129.02
353.999	96.25
354.21	112.64
354.422	106.49
354.633	47.1
354.845	104.45
355.057	108.54
355.268	73.73
355.48	116.73
355.692	-8.19
355.903	22.53
356.115	45.06
356.326	12.29
356.538	38.91
356.749	49.15
356.961	73.73
357.172	38.91
357.384	30.72
357.595	51.2
357.807	116.73
358.018	40.96
358.23	100.35
358.441	155.65
358.653	75.77
358.864	63.49
359.075	53.25
359.287	88.06
359.498	120.83
359.709	63.49
359.921	38.91
360.132	51.2
360.344	28.67
360.555	24.58
360.766	165.89
360.977	49.15
361.189	120.83
361.4	106.49
361.611	77.82
361.823	133.12
362.034	32.77
362.245	14.34
362.456	67.58
362.667	94.21
362.879	59.39
363.09	116.73
363.301	67.58
363.512	8.19
363.723	6.14
363.935	0
364.146	206.84
364.357	55.3
364.568	122.88
364.779	-4.1
364.99	106.49
365.201	28.67
365.412	24.58
365.623	12.29
365.834	79.87
366.045	-2.05
366.256	51.2
366.467	22.53
366.678	106.49
366.889	104.45
367.1	102.4
367.311	108.54
367.522	106.49
367.733	73.73
367.944	77.82
368.155	79.87
368.366	118.78
368.577	94.21
368.788	120.83
368.999	38.91
369.209	114.69
369.42	88.06
369.631	108.54
369.842	8.19
370.053	24.58
370.264	81.92
370.474	22.53
370.685	73.73
370.896	67.58
371.107	73.73
371.317	65.54
371.528	161.79
371.739	108.54
371.95	92.16
372.16	24.58
372.371	40.96
372.582	24.58
372.792	67.58
373.003	83.97
373.214	6.14
373.424	77.82
373.635	-18.43
373.846	129.02
374.056	79.87
374.267	129.02
374.477	163.84
374.688	-32.77
374.898	88.06
375.109	61.44
375.319	100.35
375.53	120.83
375.74	94.21
375.951	24.58
376.161	92.16
376.372	104.45
376.582	88.06
376.793	104.45
377.003	10.24
377.214	79.87
377.424	90.11
377.635	26.62
377.845	-14.34
378.055	194.56
378.266	100.35
378.476	104.45
378.686	43.01
378.897	59.39
379.107	67.58
379.317	81.92
379.528	47.1
379.738	98.3
379.948	90.11
380.158	69.63
380.369	75.77
380.579	71.68
380.789	73.73
380.999	65.54
381.21	34.82
381.42	92.16
381.63	30.72
381.84	112.64
382.05	94.21
382.261	22.53
382.471	51.2
382.681	86.01
382.891	151.55
383.101	47.1
383.311	75.77
383.521	47.1
383.731	120.83
383.941	112.64
384.151	96.25
384.361	34.82
384.571	104.45
384.781	94.21
384.991	108.54
385.201	51.2
385.411	96.25
385.621	79.87
385.831	100.35
386.041	131.07
386.251	45.06
386.461	165.89
386.671	22.53
386.881	45.06
387.091	59.39
387.301	129.02
387.511	59.39
387.72	106.49
387.93	83.97
388.14	22.53
388.35	34.82
388.56	110.59
388.769	47.1
388.979	55.3
389.189	71.68
389.399	96.25
389.609	139.26
389.818	126.97
390.028	126.97
390.238	69.63
390.447	24.58
390.657	88.06
390.867	10.24
391.076	133.12
391.286	100.35
391.496	153.6
391.705	96.25
391.915	206.84
392.125	147.45
392.334	98.3
392.544	104.45
392.753	122.88
392.963	57.34
393.172	63.49
393.382	120.83
393.591	100.35
393.801	86.01
394.01	79.87
394.22	79.87
394.429	137.21
394.639	55.3
394.848	83.97
395.058	38.91
395.267	165.89
395.477	129.02
395.686	122.88
395.895	90.11
396.105	131.07
396.314	147.45
396.524	147.45
396.733	94.21
396.942	174.08
397.152	106.49
397.361	143.36
397.57	186.37
397.78	79.87
397.989	104.45
398.198	141.31
398.407	169.98
398.617	139.26
398.826	114.69
399.035	153.6
399.244	124.93
399.453	104.45
399.663	133.12
399.872	30.72
400.081	98.3
400.29	141.31
400.499	4.1
400.708	129.02
400.917	198.65
401.127	114.69
401.336	141.31
401.545	251.9
401.754	131.07
401.963	178.17
402.172	153.6
402.381	59.39
402.59	112.64
402.799	223.23
403.008	159.74
403.217	172.03
403.426	178.17
403.635	90.11
403.844	92.16
404.053	188.41
404.262	155.65
404.471	194.56
404.68	102.4
404.888	141.31
405.097	180.22
405.306	122.88
405.515	139.26
405.724	157.69
405.933	151.55
406.142	260.09
406.35	131.07
406.559	182.27
406.768	153.6
406.977	210.94
407.185	202.75
407.394	202.75
407.603	155.65
407.812	268.28
408.02	225.28
408.229	194.56
408.438	196.61
408.646	188.41
408.855	264.19
409.064	202.75
409.272	264.19
409.481	333.82
409.69	251.9
409.898	286.72
410.107	358.39
410.315	339.96
410.524	337.91
410.733	374.78
410.941	335.87
411.15	331.77
411.358	366.59
411.567	415.74
411.775	415.74
411.984	395.26
412.192	403.45
412.401	432.12
412.609	464.89
412.818	489.46
413.026	385.02
413.234	452.6
413.443	466.94
413.651	546.81
413.86	546.81
414.068	604.15
414.276	593.91
414.485	530.42
414.693	694.26
414.901	610.29
415.11	686.07
415.318	569.34
415.526	708.6
415.734	706.55
415.943	696.31
416.151	784.37
416.359	763.89
416.567	808.95
416.776	833.52
416.984	800.76
417.192	862.19
417.4	821.24
417.608	837.62
417.817	919.54
418.025	911.35
418.233	1105.9
418.441	1075.18
418.649	1071.09
418.857	1103.86
419.065	1251.31
419.273	1144.81
419.481	1239.02
419.689	1230.83
419.897	1259.5
420.105	1327.08
420.313	1394.67
420.521	1417.19
420.729	1380.33
420.937	1523.69
421.145	1619.94
421.353	1662.95
421.561	1687.53
421.769	1720.29
421.977	1771.49
422.185	1767.4
422.393	1949.67
422.601	2103.26
422.809	2015.2
423.017	2052.06
423.224	2144.22
423.432	2172.89
423.64	2199.52
423.848	2447.32
424.056	2265.05
424.263	2410.46
424.471	2525.15
424.679	2619.35
424.887	2635.74
425.094	2869.2
425.302	2865.11
425.51	2807.77
425.718	2852.82
425.925	2932.69
426.133	3028.95
426.341	3366.86
426.548	3389.39
426.756	3373
426.964	3518.41
427.171	3567.56
427.379	3815.37
427.586	3837.89
427.794	3870.66
428.001	4149.18
428.209	4302.78
428.417	4286.4
428.624	4519.87
428.832	4341.69
429.039	4472.76
429.247	4519.87
429.454	4931.51
429.662	5203.89
429.869	4929.46
430.076	5386.16
430.284	5169.07
430.491	5201.84
430.699	5554.09
430.906	5517.23
431.114	5644.2
431.321	5969.83
431.528	5920.68
431.736	6459.29
431.943	6567.84
432.15	6563.74
432.358	6614.94
432.565	6789.02
432.772	7012.24
432.979	7206.8
433.187	7229.33
433.394	7399.31
433.601	8034.18
433.808	7780.23
434.016	7649.16
434.223	8120.2
434.43	8806.27
434.637	8290.18
434.844	8996.73
435.052	9191.28
435.259	9103.22
435.466	9176.95
435.673	9017.21
435.88	9647.98
436.087	10143.59
436.294	10245.99
436.501	9924.46
436.708	10198.88
436.915	10610.53
437.122	11034.46
437.329	10807.13
437.537	11304.79
437.743	11485.01
437.95	11329.36
438.157	11937.61
438.364	12183.37
438.571	12459.84
438.778	12300.1
438.985	13514.55
439.192	12908.35
439.399	13297.46
439.606	13096.76
439.813	13846.32
440.02	14679.84
440.227	14149.42
440.433	14378.79
440.64	14878.49
440.847	14640.93
441.054	15185.69
441.261	15832.85
441.467	15816.46
441.674	15869.71
441.881	16654.08
442.088	16500.48
442.294	16525.06
442.501	16731.9
442.708	17315.58
442.914	17837.81
443.121	18642.66
443.328	18245.35
443.534	19592.92
443.741	18898.66
443.948	18790.11
444.154	19959.5
444.361	19879.63
444.568	19859.15
444.774	19783.38
444.981	20254.41
445.187	20721.35
445.394	21624.5
445.6	21288.64
445.807	23533.21
446.013	22640.29
446.22	22636.2
446.426	23721.62
446.633	23903.89
446.839	24872.58
447.046	23504.54
447.252	25122.43
447.459	25110.14
447.665	24934.02
447.871	26076.79
448.078	27102.82
448.284	26123.89
448.491	26627.69
448.697	27657.82
448.903	28255.82
449.11	28390.99
449.316	27756.12
449.522	28345.94
449.728	29042.24
449.935	29367.87
450.141	29718.07
450.347	29836.86
450.553	29152.84
450.76	29691.45
450.966	30453.3
451.172	29974.07
451.378	30873.13
451.584	30258.74
451.791	31202.85
451.997	31069.73
452.203	31327.78
452.409	31551.01
452.615	31411.74
452.821	29965.88
453.027	30031.41
453.233	31329.83
453.44	30240.31
453.646	30713.39
453.852	30879.27
454.058	31217.19
454.264	30322.23
454.47	31260.19
454.676	30371.38
454.882	31553.05
455.088	28407.37
455.294	29193.79
455.5	29795.9
455.705	29843
455.911	28624.46
456.117	28405.33
456.323	27868.76
456.529	26336.88
456.735	27817.56
456.941	26984.04
457.147	26650.22
457.352	25667.19
457.558	25724.54
457.764	25714.3
457.97	25190.02
458.176	24338.06
458.381	24884.87
458.587	23916.18
458.793	23428.76
458.999	22169.26
459.204	23983.76
459.41	23240.35
459.616	21771.96
459.821	21339.83
460.027	21800.63
460.233	21137.09
460.438	20385.48
460.644	20489.93
460.85	19375.83
461.055	19031.77
461.261	18988.77
461.466	17772.27
461.672	17086.2
461.878	18599.65
462.083	16969.47
462.289	16903.93
462.494	16766.72
462.7	15935.24
462.905	15347.48
463.111	16078.6
463.316	16088.84
463.522	15689.49
463.727	15783.7
463.932	15826.7
464.138	15277.85
464.343	15791.89
464.549	15128.35
464.754	15613.71
464.959	15509.27
465.165	15294.23
465.37	15058.71
465.575	14460.71
465.781	14923.55
465.986	15142.68
466.191	14561.06
466.397	14321.45
466.602	13512.5
466.807	13989.67
467.012	13999.91
467.218	14008.11
467.423	13924.14
467.628	14059.31
467.833	14346.02
468.038	13688.62
468.244	13412.15
468.449	14141.22
468.654	13606.7
468.859	13483.83
469.064	13399.86
469.269	13041.47
469.474	13037.37
469.679	13375.28
469.885	12902.2
470.09	12973.88
470.295	12928.83
470.5	12574.53
470.705	12924.73
470.91	12437.31
471.115	12351.3
471.32	12529.47
471.525	12478.27
471.73	12080.97
471.935	12187.46
472.139	11763.53
472.344	11990.86
472.549	11859.79
472.754	11704.14
472.959	11546.45
473.164	11071.32
473.369	11091.8
473.574	11550.54
473.778	11204.44
473.983	11280.21
474.188	11280.21
474.393	10465.12
474.598	10833.75
474.802	10499.94
475.007	10708.83
475.212	10491.74
475.417	10159.97
475.621	10219.36
475.826	10280.8
476.031	9967.46
476.235	9754.48
476.44	9985.9
476.645	9840.49
476.849	9705.32
477.054	9666.41
477.259	9578.35
477.463	9607.02
477.668	9168.76
477.872	9549.68
478.077	9222
478.282	9004.92
478.486	8929.14
478.691	8918.9
478.895	8966.01
479.1	8871.8
479.304	8853.37
479.509	8691.58
479.713	8664.96
479.918	8650.62
480.122	8327.04
480.326	8554.37
480.531	8632.19
480.735	8619.9
480.94	8488.83
481.144	8574.85
481.348	8312.71
481.553	8378.24
481.757	8238.98
481.961	8232.83
482.166	8337.28
482.37	8372.1
482.574	8208.26
482.778	8273.79
482.983	8435.58
483.187	8363.9
483.391	8339.33
483.595	8167.3
483.8	8189.83
484.004	8200.07
484.208	8271.75
484.412	8091.52
484.616	8322.94
484.821	8224.64
485.025	8083.33
485.229	8263.55
485.433	8062.85
485.637	8138.63
485.841	8025.99
486.045	8144.77
486.249	8243.07
486.453	7993.22
486.657	8185.73
486.861	8296.32
487.065	8028.04
487.269	8241.03
487.473	8095.62
487.677	8277.89
487.881	8353.66
488.085	8050.57
488.289	8107.91
488.493	8134.53
488.697	8155.01
488.901	8271.75
489.105	8261.51
489.309	8185.73
489.512	8175.49
489.716	8300.42
489.92	8361.86
490.124	8177.54
490.328	8544.13
490.531	8460.16
490.735	8345.47
490.939	8355.71
491.143	8359.81
491.346	8398.72
491.55	8384.38
491.754	8679.29
491.958	8365.95
492.161	8351.62
492.365	8628.09
492.569	8580.99
492.772	8611.71
492.976	8537.98
493.18	8574.85
493.383	8912.76
493.587	8791.93
493.79	8923
493.994	8873.85
494.197	9035.64
494.401	9168.76
494.605	8984.44
494.808	9033.59
495.012	9201.52
495.215	9344.88
495.419	9424.75
495.622	9361.27
495.825	9363.31
496.029	9674.6
496.232	9521.01
496.436	9441.14
496.639	9942.89
496.843	10026.85
497.046	10024.81
497.249	10110.82
497.453	10123.11
497.656	10303.33
497.859	10295.14
498.063	10286.95
498.266	10532.7
498.469	10491.74
498.673	10606.43
498.876	10966.87
499.079	11032.41
499.282	10839.9
499.485	11355.99
499.689	11237.2
499.892	11501.39
500.095	11235.16
500.298	11542.35
500.501	11648.85
500.705	11876.17
500.908	11835.21
501.111	12023.62
501.314	12101.45
501.517	12347.2
501.72	12721.98
501.923	12441.41
502.126	12648.25
502.329	12930.87
502.532	13166.39
502.735	13100.86
502.938	13489.97
503.141	13625.14
503.344	13764.4
503.547	13682.48
503.75	13995.82
503.953	14157.61
504.156	14186.28
504.359	14401.32
504.562	14612.26
504.765	14950.17
504.968	14833.44
505.17	14817.05
505.373	14999.32
505.576	15349.53
505.779	15652.63
505.982	15589.14
506.185	15935.24
506.387	16025.36
506.59	15789.84
506.793	16412.42
506.996	16475.91
507.198	16752.38
507.401	16617.22
507.604	17049.34
507.807	17237.75
508.009	17475.32
508.212	17356.54
508.415	17932.01
508.617	17788.66
508.82	17954.54
509.022	18122.48
509.225	18343.66
509.428	18562.79
509.63	18663.14
509.833	18708.19
510.035	19343.06
510.238	19121.88
510.44	19379.93
510.643	19554.01
510.845	19734.23
511.048	19814.1
511.25	20045.52
511.453	20483.78
511.655	20848.32
511.858	20874.95
512.06	21102.27
512.262	21356.22
512.465	21272.25
512.667	21741.24
512.87	21702.32
513.072	21696.18
513.274	22675.11
513.477	21941.94
513.679	22509.22
513.881	22853.28
514.084	22752.93
514.286	22988.45
514.488	23226.01
514.69	23586.46
514.893	23688.85
515.095	23881.36
515.297	24184.46
515.499	24587.91
515.701	24477.32
515.904	24987.27
516.106	25079.43
516.308	25185.92
516.51	25675.38
516.712	25536.12
516.914	26201.71
517.116	26304.11
517.318	26441.32
517.52	26627.69
517.722	27113.06
517.925	27297.38
518.127	27324
518.329	27551.32
518.531	27524.7
518.733	28245.58
518.935	28587.6
519.136	28137.04
519.338	28714.57
519.54	28884.55
519.742	29152.84
519.944	29009.48
520.146	29716.03
520.348	29771.32
520.55	29703.74
520.752	29972.02
520.954	30166.58
521.155	30084.66
521.357	31014.44
521.559	30660.14
521.761	31131.17
521.963	31235.62
522.164	31387.17
522.366	31497.76
522.568	31913.5
522.77	32101.91
522.971	32501.26
523.173	32093.72
523.375	32474.64
523.576	32601.61
523.778	32884.23
523.98	33103.37
524.181	33410.56
524.383	33273.35
524.584	34037.24
524.786	33549.82
524.988	34070.01
525.189	34434.55
525.391	34391.54
525.592	34637.3
525.794	34594.29
525.995	34608.62
526.197	35196.39
526.398	34928.11
526.6	35403.24
526.801	34903.53
527.003	35292.65
527.204	35321.32
527.406	35833.31
527.607	35661.28
527.808	35958.24
528.01	35421.67
528.211	35911.13
528.412	36525.52
528.614	36197.85
528.815	36253.14
529.016	36742.61
529.218	36367.83
529.419	36773.33
529.62	36910.54
529.822	36644.3
530.023	36713.94
530.224	36853.2
530.425	36255.19
530.626	36187.61
530.828	36320.73
531.029	37234.12
531.23	36912.59
531.431	37074.38
531.632	37074.38
531.833	37451.2
532.035	36908.49
532.236	36937.16
532.437	37414.34
532.638	37223.88
532.839	37338.57
533.04	37565.89
533.241	37203.4
533.442	37782.98
533.643	37486.02
533.844	37457.35
534.045	37287.37
534.246	37334.47
534.447	37748.16
534.648	37414.34
534.849	37291.46
535.05	37666.24
535.251	37883.33
535.451	37596.61
535.652	37895.61
535.853	37506.5
536.054	37690.82
536.255	37793.22
536.456	37039.56
536.657	37774.78
536.857	37230.02
537.058	37133.77
537.259	37934.53
537.46	37793.22
537.66	37289.42
537.861	37602.75
538.062	37488.07
538.263	37742.02
538.463	37416.39
538.664	37381.57
538.865	37660.1
539.065	37795.26
539.266	37109.19
539.466	37842.37
539.667	37432.77
539.868	37815.74
540.068	37488.07
540.269	37172.68
540.469	37543.36
540.67	37363.14
540.87	37350.85
541.071	37576.13
541.271	37387.72
541.472	37361.09
541.672	37455.3
541.873	36916.68
542.073	36916.68
542.274	37447.11
542.474	37567.94
542.675	36935.12
542.875	37367.24
543.075	37383.62
543.276	36842.96
543.476	37709.25
543.676	37010.89
543.877	37260.74
544.077	37137.87
544.277	37111.24
544.478	37029.32
544.678	37490.12
544.878	37328.33
545.078	36980.17
545.279	37490.12
545.479	36974.03
545.679	37064.14
545.879	37144.01
546.079	37004.75
546.28	37066.19
546.48	37148.11
546.68	37469.64
546.88	37000.65
547.08	37129.67
547.28	37103.05
547.48	36351.45
547.68	36756.94
547.88	36652.5
548.081	37289.42
548.281	36998.6
548.481	37160.39
548.681	37045.71
548.881	37221.83
549.081	36830.67
549.28	36820.43
549.48	36754.9
549.68	36629.97
549.88	37350.85
550.08	36711.89
550.28	36785.61
550.48	36830.67
550.68	37385.67
550.88	36851.15
551.08	36777.42
551.279	36922.83
551.479	36230.62
551.679	36449.75
551.879	36531.67
552.079	36640.21
552.278	36683.22
552.478	36750.8
552.678	36376.02
552.878	36699.6
553.077	36287.96
553.277	36324.82
553.477	36699.6
553.676	36695.5
553.876	36668.88
554.076	36441.56
554.275	36619.73
554.475	35948
554.674	36533.71
554.874	36406.74
555.074	36201.94
555.273	36201.94
555.473	36597.2
555.672	36261.33
555.872	36218.33
556.071	36416.98
556.271	36156.89
556.47	35976.67
556.67	35651.04
556.869	35964.38
557.068	36005.34
557.268	35700.19
557.467	36281.81
557.667	36163.03
557.866	35671.52
558.065	36390.36
558.265	35782.11
558.464	35716.57
558.663	36099.55
558.863	35556.83
559.062	36050.39
559.261	35405.28
559.461	35890.65
559.66	35057.13
559.859	35909.08
560.058	35292.65
560.258	35356.13
560.457	35050.99
560.656	35362.28
560.855	35438.05
561.054	35317.22
561.253	35165.67
561.453	35128.81
561.652	35562.98
561.851	35268.07
562.05	34844.14
562.249	34901.48
562.448	35147.24
562.647	34907.63
562.846	34811.37
563.045	34610.67
563.244	34285.04
563.443	34971.11
563.642	34041.34
563.841	34905.58
564.04	34078.2
564.239	35020.27
564.438	34407.92
564.637	34493.94
564.836	34424.31
565.035	34125.3
565.234	34403.83
565.432	34123.26
565.631	34156.02
565.83	34346.48
566.029	33955.32
566.228	33705.47
566.427	33785.34
566.625	33404.42
566.824	33117.7
567.023	33981.95
567.222	33183.24
567.42	33377.79
567.619	33492.48
567.818	33811.96
568.016	33480.19
568.215	33394.18
568.414	33295.88
568.612	33498.62
568.811	33275.4
569.01	33259.01
569.208	32706.06
569.407	33273.35
569.605	32671.25
569.804	32962.06
570.002	32634.38
570.201	32787.98
570.4	32828.94
570.598	32239.12
570.797	32194.07
570.995	32341.52
571.193	32112.15
571.392	32267.8
571.59	31979.03
571.789	32040.47
571.987	32116.25
572.186	32056.85
572.384	31567.39
572.582	32034.33
572.781	31886.87
572.979	31266.34
573.177	31690.27
573.376	31843.87
573.574	31477.28
573.772	31450.66
573.971	31198.76
574.169	31350.31
574.367	30989.86
574.565	31147.56
574.763	30957.1
574.962	30932.52
575.16	30469.68
575.358	31036.97
575.556	30205.49
575.754	30750.25
575.952	30711.34
576.151	30610.99
576.349	30211.64
576.547	30520.88
576.745	30045.75
576.943	30354.99
577.141	30330.42
577.339	30307.89
577.537	29982.26
577.735	30023.22
577.933	30135.86
578.131	29984.31
578.329	29863.48
578.527	29742.65
578.725	29857.34
578.923	29777.47
579.121	29341.25
579.319	29574.72
579.516	29791.8
579.714	29378.11
579.912	29158.98
580.11	29163.07
580.308	29218.37
580.506	29097.54
580.704	28280.4
580.901	29021.77
581.099	28968.52
581.297	28651.08
581.495	28614.22
581.692	28610.12
581.89	28018.26
582.088	28751.43
582.285	28329.55
582.483	28563.02
582.681	28329.55
582.878	28257.87
583.076	28163.67
583.274	28399.18
583.471	27811.42
583.669	27913.81
583.866	27905.62
584.064	27758.17
584.262	27250.27
584.459	27725.4
584.657	27508.32
584.854	27737.69
585.052	26895.97
585.249	27559.52
585.447	27280.99
585.644	26756.71
585.841	26893.93
586.039	27252.32
586.236	26725.99
586.434	26760.81
586.631	26691.18
586.828	26633.83
587.026	26582.63
587.223	26578.54
587.42	26373.74
587.618	26599.02
587.815	26199.66
588.012	26265.2
588.21	26099.31
588.407	26357.36
588.604	25986.68
588.801	25900.66
588.999	26082.93
589.196	25843.32
589.393	25726.58
589.59	25689.72
589.787	25595.51
589.984	25599.61
590.182	25472.64
590.379	25566.84
590.576	25278.08
590.773	25296.51
590.97	25147.01
591.167	25271.93
591.364	25144.96
591.561	25230.97
591.758	24635.02
591.955	24946.31
592.152	24669.83
592.349	24661.64
592.546	24645.26
592.743	24815.24
592.94	24424.08
593.137	24829.57
593.334	24624.78
593.531	23994
593.727	24571.53
593.924	24389.26
594.121	23918.23
594.318	24032.91
594.515	23770.77
594.712	24096.4
594.908	24247.95
595.105	23717.53
595.302	23594.65
595.499	23674.52
595.696	23391.9
595.892	23252.64
596.089	23623.32
596.286	23643.8
596.482	23062.18
596.679	23352.99
596.876	23060.13
597.072	23002.78
597.269	23211.68
597.466	22773.41
597.662	22898.34
597.859	23090.85
598.055	22875.81
598.252	22513.32
598.448	22541.99
598.645	22568.62
598.841	22314.67
599.038	22486.7
599.234	22533.8
599.431	22339.24
599.627	22027.95
599.824	22345.39
600.02	21960.37
600.217	22089.39
600.413	21937.84
600.609	21960.37
600.806	21948.08
601.002	22019.76
601.198	21362.36
601.395	21661.37
601.591	21151.42
601.787	21726.9
601.984	21466.81
602.18	21591.73
602.376	21470.9
602.572	21382.84
602.769	21130.94
602.965	21417.66
603.161	21128.89
603.357	20805.31
603.553	20829.89
603.75	20895.43
603.946	20477.64
604.142	20735.68
604.338	20412.1
604.534	20575.94
604.73	20494.02
604.926	20649.67
605.122	20829.89
605.318	20553.41
605.514	20184.78
605.71	20213.45
605.906	20209.36
606.102	20053.71
606.298	20278.99
606.494	20203.21
606.69	20287.18
606.886	19910.35
607.082	19744.47
607.278	20068.05
607.474	19736.27
607.67	19750.61
607.866	19453.66
608.062	19795.67
608.257	19486.42
608.453	19691.22
608.649	19691.22
608.845	19218.14
609.041	19525.33
609.236	19482.33
609.432	19224.28
609.628	19492.57
609.824	19320.54
610.019	19375.83
610.215	19093.21
610.411	19314.39
610.606	19193.56
610.802	18996.96
610.998	19228.38
611.193	19144.41
611.389	18994.91
611.584	18743.01
611.78	18691.81
611.976	18767.59
612.171	18800.35
612.367	18869.98
612.562	18665.19
612.758	18415.33
612.953	18548.45
613.149	18730.72
613.344	18396.9
613.539	18845.41
613.735	18456.29
613.93	18644.71
614.126	18421.48
614.321	18642.66
614.517	18398.95
614.712	18310.89
614.907	18208.49
615.103	18435.81
615.298	18169.58
615.493	18308.84
615.688	17966.83
615.884	18370.28
616.079	17706.74
616.274	18110.19
616.47	17897.2
616.665	18067.18
616.86	17721.07
617.055	17839.86
617.25	17766.13
617.445	17946.35
617.641	17676.02
617.836	17852.14
618.031	17479.41
618.226	17702.64
618.421	17493.75
618.616	17528.56
618.811	17204.99
619.006	17497.85
619.201	17448.69
619.396	17297.14
619.591	17055.48
619.786	17323.77
619.981	16903.93
620.176	17035
620.371	16559.88
620.566	16881.41
620.761	16817.92
620.956	16830.21
621.151	16533.25
621.346	16563.97
621.541	16340.74
621.735	16541.44
621.93	16228.1
622.125	16293.64
622.32	15996.68
622.515	15845.13
622.709	15795.98
622.904	15703.82
623.099	15810.32
623.294	15728.4
623.488	15619.86
623.683	15675.15
623.878	15447.83
624.072	15662.86
624.267	15343.38
624.462	15425.3
624.656	15056.67
624.851	14952.22
625.046	15206.17
625.24	15073.05
625.435	14784.29
625.629	15001.37
625.824	14663.46
626.018	14589.73
626.213	14393.12
626.407	14524.19
626.602	14137.13
626.796	14583.59
626.991	14450.47
627.185	14182.18
627.38	14112.55
627.574	13858.6
627.768	13721.39
627.963	13813.55
628.157	13678.38
628.352	13643.57
628.546	13829.93
628.74	13528.88
628.935	13459.25
629.129	13637.42
629.323	13319.99
629.517	13258.55
629.712	13107
629.906	12986.17
630.1	12842.81
630.294	13129.53
630.489	13119.29
630.683	12941.11
630.877	12861.24
631.071	12619.58
631.265	12580.67
631.459	12638.02
631.653	12498.75
631.848	12478.27
632.042	12482.37
632.236	12404.55
632.43	12123.98
632.624	12242.76
632.818	12191.56
633.012	12091.21
633.206	11980.62
633.4	12281.67
633.594	11796.3
633.788	12007.24
633.982	12056.39
634.176	11536.21
634.369	11706.19
634.563	11675.47
634.757	11663.18
634.951	11343.7
635.145	11460.43
635.339	11476.82
635.533	11218.77
635.726	11267.92
635.92	11274.07
636.114	11038.55
636.308	11245.4
636.501	11282.26
636.695	11067.22
636.889	10727.26
637.083	10843.99
637.276	10823.51
637.47	10616.67
637.664	10788.7
637.857	10710.88
638.051	10717.02
638.244	10604.38
638.438	10264.42
638.632	10397.54
638.825	10303.33
639.019	10213.22
639.212	10205.03
639.406	10145.64
639.599	10065.77
639.793	10213.22
639.986	9979.75
640.18	9930.6
640.373	9848.68
640.567	9926.5
640.76	9830.25
640.954	9643.88
641.147	9607.02
641.34	9568.11
641.534	9697.13
641.727	9787.24
641.92	9516.91
642.114	9389.94
642.307	9455.47
642.5	9512.81
642.694	9125.75
642.887	9326.45
643.08	9396.08
643.273	9209.72
643.467	9148.28
643.66	9066.36
643.853	8980.34
644.046	8894.33
644.239	8861.56
644.432	8728.44
644.626	8726.39
644.819	8705.92
645.012	8781.69
645.205	8609.66
645.398	8722.3
645.591	8591.23
645.784	8480.64
645.977	8509.31
646.17	8517.5
646.363	8519.55
646.556	8384.38
646.749	8402.82
646.942	8353.66
647.135	8130.44
647.328	8308.61
647.521	8105.86
647.714	8056.71
647.907	7884.68
648.099	8019.85
648.292	8173.44
648.485	8001.41
648.678	7903.11
648.871	7780.23
649.064	7874.44
649.256	7683.98
649.449	7702.41
649.642	7573.39
649.835	7788.43
650.027	7413.65
650.22	7436.17
650.413	7466.89
650.605	7548.81
650.798	7387.02
650.991	7415.69
651.183	7489.42
651.376	7255.95
651.568	7346.06
651.761	7315.34
651.954	7182.23
652.146	7075.73
652.339	7079.83
652.531	7114.64
652.724	7028.63
652.916	6895.51
653.109	6997.91
653.301	6911.89
653.494	6872.98
653.686	6733.72
653.879	6911.89
654.071	6838.17
654.263	6715.29
654.456	6807.45
654.648	6762.39
654.84	6604.7
655.033	6545.31
655.225	6707.1
655.417	6619.03
655.61	6602.65
655.802	6354.85
655.994	6277.02
656.186	6199.2
656.379	6365.09
656.571	6375.33
656.763	6313.89
656.955	6268.83
657.148	6188.96
657.34	6203.3
657.532	6125.47
657.724	5941.16
657.916	6137.76
658.108	6035.36
658.3	5975.97
658.492	5945.25
658.684	5939.11
658.876	6027.17
659.068	5879.72
659.26	5754.79
659.452	5822.38
659.644	5871.53
659.836	5959.59
660.028	5769.13
660.22	5629.87
660.412	5601.19
660.604	5724.07
660.796	5480.36
660.988	5576.62
661.18	5564.33
661.372	5455.79
661.563	5420.97
661.755	5496.75
661.947	5412.78
662.139	5515.18
662.331	5339.05
662.522	5390.25
662.714	5248.94
662.906	5300.14
663.097	5150.64
663.289	5142.45
663.481	5302.19
663.673	5101.49
663.864	5136.31
664.056	5093.3
664.247	5234.61
664.439	5029.81
664.631	4976.56
664.822	4966.32
665.014	4937.65
665.205	4986.8
665.397	4859.83
665.588	4835.25
665.78	4786.1
665.971	4788.15
666.163	4896.69
666.354	4753.34
666.546	4831.16
666.737	4779.96
666.929	4718.52
667.12	4734.9
667.311	4685.75
667.503	4593.59
667.694	4603.83
667.885	4577.21
668.077	4413.37
668.268	4505.53
668.459	4466.62
668.651	4521.91
668.842	4503.48
669.033	4464.57
669.224	4464.57
669.416	4523.96
669.607	4198.34
669.798	4401.08
669.989	4374.46
670.18	4335.55
670.371	4341.69
670.563	4257.73
670.754	4241.34
670.945	4151.23
671.136	4339.65
671.327	4224.96
671.518	4192.19
671.709	4286.4
671.9	4210.62
672.091	4040.64
672.282	4122.56
672.473	4011.97
672.664	4083.65
672.855	4065.22
673.046	3925.96
673.237	4069.31
673.428	4020.16
673.619	4073.41
673.809	3968.96
674	3852.23
674.191	4050.88
674.382	3841.99
674.573	3973.06
674.764	3925.96
674.954	3887.04
675.145	3915.72
675.336	3837.89
675.527	3792.84
675.717	3866.56
675.908	3768.26
676.099	3893.19
676.289	3815.37
676.48	3749.83
676.671	3766.21
676.861	3667.91
677.052	3618.76
677.243	3624.9
677.433	3719.11
677.624	3647.43
677.814	3635.14
678.005	3561.42
678.195	3676.1
678.386	3637.19
678.576	3661.77
678.767	3651.53
678.957	3581.9
679.148	3512.27
679.338	3692.49
679.529	3536.84
679.719	3420.11
679.909	3450.83
680.1	3467.21
680.29	3454.92
680.481	3432.4
680.671	3514.31
680.861	3405.77
681.052	3418.06
681.242	3391.44
681.432	3553.23
681.622	3348.43
681.813	3332.05
682.003	3446.73
682.193	3274.7
682.383	3389.39
682.573	3332.05
682.764	3276.75
682.954	3487.69
683.144	3381.2
683.334	3323.85
683.524	3373
683.714	3250.13
683.904	3315.66
684.094	3293.13
684.284	3170.26
684.474	3311.57
684.664	3348.43
684.854	3293.13
685.044	3176.4
685.234	3112.91
685.424	3233.74
685.614	3119.06
685.804	3192.78
685.994	3235.79
686.184	3166.16
686.374	3114.96
686.564	3127.25
686.753	3127.25
686.943	3137.49
687.133	3053.52
687.323	3155.92
687.513	3061.71
687.702	2977.75
687.892	2979.79
688.082	3071.95
688.272	2936.79
688.461	2949.07
688.651	3049.43
688.841	2990.03
689.03	2955.22
689.22	2906.07
689.41	2938.84
689.599	2899.92
689.789	2885.59
689.979	2861.01
690.168	2889.68
690.358	2746.33
690.547	2760.66
690.737	2883.54
690.926	2901.97
691.116	2795.48
691.305	2848.72
691.495	2791.38
691.684	2869.2
691.874	2662.36
692.063	2807.77
692.252	2836.44
692.442	2836.44
692.631	2742.23
692.82	2815.96
693.01	2701.27
693.199	2805.72
693.388	2684.89
693.578	2748.37
693.767	2693.08
693.956	2705.37
694.146	2691.03
694.335	2795.48
694.524	2621.4
694.713	2586.58
694.902	2611.16
695.092	2555.86
695.281	2701.27
695.47	2570.2
695.659	2529.24
695.848	2592.73
696.037	2578.39
696.226	2701.27
696.415	2463.71
696.604	2627.54
696.793	2484.19
696.982	2553.82
697.171	2512.86
697.36	2562.01
697.549	2549.72
697.738	2439.13
697.927	2480.09
698.116	2480.09
698.305	2467.8
698.494	2465.75
698.683	2414.56
698.872	2488.28
699.061	2402.27
699.25	2398.17
699.438	2430.94
699.627	2377.69
699.816	2480.09
700.005	2457.56
700.193	2412.51
700.382	2494.43
700.571	2269.15
700.76	2406.36
700.948	2432.99
701.137	2303.96
701.326	2389.98
701.514	2267.1
701.703	2277.34
701.892	2357.21
702.08	2349.02
702.269	2308.06
702.457	2312.16
702.646	2197.47
702.834	2389.98
703.023	2392.03
703.212	2422.75
703.4	2258.91
703.589	2392.03
703.777	2285.53
703.965	2314.2
704.154	2287.58
704.342	2250.72
704.531	2213.85
704.719	2185.18
704.907	2334.68
705.096	2232.29
705.284	2224.09
705.472	2332.64
705.661	2355.16
705.849	2271.2
706.037	2193.37
706.226	2303.96
706.414	2176.99
706.602	2326.49
706.79	2234.33
706.979	2160.61
707.167	2260.96
707.355	2265.05
707.543	2220
707.731	2142.18
707.919	2250.72
708.107	2213.85
708.296	2179.04
708.484	2115.55
708.672	2226.14
708.86	2121.7
709.048	2283.49
709.236	2197.47
709.424	2254.81
709.612	2193.37
709.8	2080.74
709.988	2170.85
710.176	2181.09
710.364	2148.32
710.551	2095.07
710.739	2150.37
710.927	2201.57
711.115	2213.85
711.303	2113.5
711.491	2140.13
711.679	2146.27
711.866	2246.62
712.054	2326.49
712.242	2215.9
712.43	2172.89
712.617	2084.83
712.805	2220
712.993	2168.8
713.181	2080.74
713.368	2066.4
713.556	2138.08
713.744	2172.89
713.931	2281.44
714.119	2170.85
714.306	2189.28
714.494	2066.4
714.682	2090.98
714.869	2201.57
715.057	1990.63
715.244	2054.11
715.432	2174.94
715.619	2090.98
715.807	2084.83
715.994	2197.47
716.182	2187.23
716.369	2039.78
716.556	2136.03
716.744	2078.69
716.931	2068.45
717.119	2086.88
717.306	2066.4
717.493	2070.5
717.681	2113.5
717.868	2078.69
718.055	2207.71
718.242	2045.92
718.43	2115.55
718.617	2105.31
718.804	2021.35
718.991	1941.47
719.179	2138.08
719.366	2131.94
719.553	2054.11
719.74	2058.21
719.927	2138.08
720.114	2213.85
720.301	2015.2
720.488	2136.03
720.676	2154.46
720.863	2070.5
721.05	2154.46
721.237	2029.54
721.424	2015.2
721.611	2121.7
721.798	2029.54
721.985	2113.5
722.172	2136.03
722.358	2054.11
722.545	2176.99
722.732	2023.39
722.919	2115.55
723.106	2160.61
723.293	2072.54
723.48	2115.55
723.667	2054.11
723.853	2050.02
724.04	2193.37
724.227	2117.6
724.414	2189.28
724.6	2103.26
724.787	1988.58
724.974	2189.28
725.161	1939.43
725.347	2029.54
725.534	2082.78
725.72	2074.59
725.907	2064.35
726.094	2045.92
726.28	2047.97
726.467	2125.79
726.653	2013.15
726.84	2115.55
727.027	2193.37
727.213	2088.93
727.4	2070.5
727.586	1972.19
727.773	2111.46
727.959	2066.4
728.145	2138.08
728.332	2064.35
728.518	2111.46
728.705	1972.19
728.891	2025.44
729.077	2056.16
729.264	2009.06
729.45	2056.16
729.636	2062.3
729.823	1966.05
730.009	1955.81
730.195	2121.7
730.382	2127.84
730.568	2009.06
730.754	2062.3
730.94	2054.11
731.126	2033.63
731.313	2039.78
731.499	2070.5
731.685	2078.69
731.871	2095.07
732.057	2107.36
732.243	1982.43
732.429	2119.65
732.615	2050.02
732.801	2193.37
732.987	2062.3
733.173	1988.58
733.359	1957.86
733.545	2025.44
733.731	2080.74
733.917	2070.5
734.103	1980.39
734.289	1986.53
734.475	2017.25
734.661	2011.11
734.847	2007.01
735.033	1925.09
735.219	1966.05
735.404	2084.83
735.59	2103.26
735.776	2045.92
735.962	1994.72
736.148	2031.59
736.333	1990.63
736.519	2107.36
736.705	2062.3
736.89	1943.52
737.076	2101.22
737.262	1890.28
737.447	2017.25
737.633	1955.81
737.819	2025.44
738.004	2013.15
738.19	2041.82
738.375	1955.81
738.561	2060.26
738.747	1972.19
738.932	1859.56
739.118	2066.4
739.303	2058.21
739.489	1923.04
739.674	1966.05
739.859	1861.6
740.045	2080.74
740.23	1966.05
740.416	1935.33
740.601	1834.98
740.786	1941.47
740.972	1867.75
741.157	1916.9
741.342	1882.08
741.528	1785.83
741.713	1865.7
741.898	1972.19
742.084	1892.32
742.269	1791.97
742.454	1900.51
742.639	1865.7
742.824	1851.36
743.01	1941.47
743.195	1933.28
743.38	1884.13
743.565	1828.84
743.75	1779.68
743.935	1767.4
744.12	1882.08
744.305	1834.98
744.49	1751.01
744.675	1785.83
744.86	1701.86
745.045	1783.78
745.23	1726.44
745.415	1779.68
745.6	1720.29
745.785	1787.88
745.97	1851.36
746.155	1724.39
746.34	1779.68
746.525	1710.05
746.71	1599.46
746.895	1693.67
747.079	1574.89
747.264	1628.14
747.449	1722.34
747.634	1644.52
747.819	1650.66
748.003	1574.89
748.188	1665
748.373	1742.82
748.557	1611.75
748.742	1648.61
748.927	1570.79
749.111	1703.91
749.296	1607.66
749.481	1644.52
749.665	1611.75
749.85	1558.5
750.034	1480.68
750.219	1613.8
750.404	1538.02
750.588	1501.16
750.773	1425.39
750.957	1521.64
751.141	1452.01
751.326	1570.79
751.51	1515.5
751.695	1441.77
751.879	1427.43
752.064	1501.16
752.248	1433.58
752.432	1501.16
752.617	1482.73
752.801	1406.95
752.985	1419.24
753.17	1452.01
753.354	1454.06
753.538	1302.51
753.722	1480.68
753.907	1337.32
754.091	1394.67
754.275	1404.91
754.459	1228.78
754.643	1316.84
754.828	1310.7
755.012	1245.16
755.196	1234.93
755.38	1294.32
755.564	1292.27
755.748	1226.73
755.932	1243.12
756.116	1230.83
756.3	1353.71
756.484	1269.74
756.668	1300.46
756.852	1236.97
757.036	1206.25
757.22	1208.3
757.404	1306.6
757.588	1218.54
757.772	1263.6
757.956	1185.77
758.14	1185.77
758.323	1179.63
758.507	1126.38
758.691	1189.87
758.875	1204.21
759.059	1081.33
759.242	1128.43
759.426	1120.24
759.61	1075.18
759.794	1085.42
759.977	1193.97
760.161	1144.81
760.345	1144.81
760.528	1196.01
760.712	1071.09
760.895	1112.05
761.079	1056.75
761.263	1103.86
761.446	1005.55
761.63	970.74
761.813	1040.37
761.997	1032.18
762.18	1062.9
762.364	1064.94
762.547	976.88
762.731	980.98
762.914	1019.89
763.098	1030.13
763.281	966.64
763.464	987.12
763.648	942.07
763.831	999.41
764.015	948.21
764.198	1034.22
764.381	909.3
764.564	1046.51
764.748	1077.23
764.931	997.36
765.114	944.11
765.297	886.77
765.481	931.83
765.664	923.63
765.847	948.21
766.03	1001.46
766.213	882.67
766.397	907.25
766.58	956.4
766.763	929.78
766.946	866.29
767.129	919.54
767.312	942.07
767.495	849.91
767.678	903.15
767.861	841.72
768.044	944.11
768.227	888.82
768.41	905.2
768.593	964.59
768.776	866.29
768.959	897.01
769.142	960.5
769.324	878.58
769.507	827.38
769.69	858.1
769.873	821.24
770.056	989.17
770.239	868.34
770.421	829.43
770.604	923.63
770.787	802.8
770.97	825.33
771.152	796.66
771.335	849.91
771.518	866.29
771.7	901.11
771.883	845.81
772.066	761.84
772.248	796.66
772.431	823.28
772.613	884.72
772.796	743.41
772.978	808.95
773.161	845.81
773.343	851.95
773.526	823.28
773.708	794.61
773.891	804.85
774.073	720.89
774.256	729.08
774.438	714.74
774.621	782.32
774.803	735.22
774.985	661.49
775.168	753.65
775.35	739.32
775.532	831.48
775.715	684.02
775.897	694.26
776.079	733.17
776.261	684.02
776.444	657.4
776.626	743.41
776.808	761.84
776.99	663.54
777.173	665.59
777.355	618.49
777.537	702.45
777.719	677.88
777.901	589.82
778.083	735.22
778.265	612.34
778.447	727.03
778.629	606.2
778.811	628.73
778.993	659.45
779.175	708.6
779.357	567.29
779.539	595.96
779.721	663.54
779.903	612.34
780.085	622.58
780.267	653.3
780.449	604.15
780.631	581.62
780.812	575.48
780.994	628.73
781.176	571.38
781.358	665.59
781.54	550.9
781.721	546.81
781.903	696.31
782.085	673.78
782.267	505.85
782.448	546.81
782.63	491.51
782.812	628.73
782.993	516.09
783.175	536.57
783.357	518.14
783.538	548.86
783.72	532.47
783.901	417.79
784.083	538.62
784.264	518.14
784.446	432.12
784.627	518.14
784.809	550.9
784.99	522.23
785.172	522.23
785.353	483.32
785.535	436.22
785.716	548.86
785.897	387.07
786.079	458.74
786.26	495.61
786.441	503.8
786.623	366.59
786.804	464.89
786.985	399.35
787.167	417.79
787.348	393.21
787.529	395.26
787.71	464.89
787.891	432.12
788.073	425.98
788.254	411.64
788.435	440.31
788.616	407.55
788.797	415.74
788.978	464.89
789.159	387.07
789.34	464.89
789.522	382.97
789.703	432.12
789.884	333.82
790.065	468.98
790.246	407.55
790.427	362.49
790.607	346.11
790.788	346.11
790.969	374.78
791.15	350.2
791.331	382.97
791.512	489.46
791.693	303.1
791.874	428.03
792.054	342.01
792.235	419.83
792.416	325.63
792.597	382.97
792.778	323.58
792.958	395.26
793.139	276.48
793.32	417.79
793.5	364.54
793.681	362.49
793.862	335.87
794.042	294.91
794.223	358.39
794.404	350.2
794.584	256
794.765	325.63
794.945	294.91
795.126	337.91
795.306	335.87
795.487	227.32
795.667	311.29
795.848	393.21
796.028	223.23
796.209	329.72
796.389	260.09
796.57	339.96
796.75	253.95
796.93	309.24
797.111	223.23
797.291	292.86
797.471	268.28
797.652	274.43
797.832	288.76
798.012	292.86
798.192	260.09
798.373	276.48
798.553	313.34
798.733	301.05
798.913	266.24
799.093	245.76
799.274	378.87
799.454	303.1
799.634	243.71
799.814	290.81
799.994	253.95
800.174	342.01
800.354	241.66
800.534	225.28
800.714	268.28
800.894	223.23
801.074	268.28
801.254	235.52
801.434	260.09
801.614	243.71
801.794	268.28
801.974	919.54
802.154	235.52
802.334	210.94
802.514	223.23
802.693	212.99
802.873	270.33
803.053	241.66
803.233	352.25
803.413	319.48
803.592	227.32
803.772	325.63
803.952	176.13
804.131	202.75
804.311	266.24
804.491	309.24
804.67	169.98
804.85	210.94
805.03	217.08
805.209	229.37
805.389	182.27
805.568	264.19
805.748	215.04
805.928	178.17
806.107	256
806.287	260.09
806.466	206.84
806.646	219.13
806.825	251.9
807.004	202.75
807.184	169.98
807.363	237.56
807.543	178.17
807.722	231.42
807.901	262.14
808.081	233.47
808.26	110.59
808.439	188.41
808.619	172.03
808.798	141.31
808.977	161.79
809.156	202.75
809.336	174.08
809.515	256
809.694	219.13
809.873	157.69
810.052	190.46
810.231	204.8
810.411	163.84
810.59	147.45
810.769	247.8
810.948	231.42
811.127	157.69
811.306	178.17
811.485	145.41
811.664	186.37
811.843	212.99
812.022	229.37
812.201	153.6
812.38	178.17
812.559	108.54
812.737	174.08
812.916	145.41
813.095	147.45
813.274	147.45
813.453	163.84
813.632	215.04
813.811	260.09
813.989	151.55
814.168	202.75
814.347	153.6
814.526	294.91
814.704	215.04
814.883	178.17
815.062	161.79
815.24	188.41
815.419	137.21
815.598	215.04
815.776	88.06
815.955	178.17
816.133	137.21
816.312	186.37
816.49	159.74
816.669	229.37
816.847	145.41
817.026	159.74
817.204	116.73
817.383	172.03
817.561	69.63
817.74	235.52
817.918	147.45
818.097	98.3
818.275	165.89
818.453	186.37
818.632	139.26
818.81	202.75
818.988	161.79
819.167	96.25
819.345	137.21
819.523	98.3
819.701	143.36
819.879	202.75
820.058	206.84
820.236	137.21
820.414	139.26
820.592	83.97
820.77	120.83
820.948	145.41
821.127	153.6
821.305	79.87
821.483	104.45
821.661	202.75
821.839	120.83
822.017	96.25
822.195	206.84
822.373	186.37
822.551	153.6
822.729	180.22
822.907	81.92
823.085	202.75
823.262	88.06
823.44	139.26
823.618	108.54
823.796	145.41
823.974	116.73
824.152	102.4
824.329	153.6
824.507	178.17
824.685	94.21
824.863	104.45
825.04	204.8
825.218	186.37
825.396	98.3
825.574	102.4
825.751	169.98
825.929	122.88
826.107	129.02
826.284	108.54
826.462	155.65
826.639	106.49
826.817	90.11
826.994	120.83
827.172	30.72
827.349	100.35
827.527	147.45
827.704	151.55
827.882	149.5
828.059	92.16
828.237	59.39
828.414	180.22
828.591	112.64
828.769	45.06
828.946	88.06
829.124	163.84
829.301	133.12
829.478	104.45
829.655	120.83
829.833	133.12
830.01	73.73
830.187	83.97
830.364	67.58
830.542	159.74
830.719	161.79
830.896	38.91
831.073	79.87
831.25	104.45
831.427	137.21
831.604	151.55
831.782	126.97
831.959	129.02
832.136	34.82
832.313	174.08
832.49	75.77
832.667	79.87
832.844	114.69
833.021	81.92
833.198	45.06
833.374	124.93
833.551	106.49
833.728	96.25
833.905	63.49
834.082	88.06
834.259	174.08
834.436	86.01
834.612	88.06
834.789	26.62
834.966	172.03
835.143	106.49
835.319	73.73
835.496	161.79
835.673	96.25
835.85	120.83
836.026	198.65
836.203	116.73
836.38	73.73
836.556	38.91
836.733	83.97
836.909	120.83
837.086	110.59
837.262	63.49
837.439	153.6
837.616	112.64
837.792	108.54
837.968	120.83
838.145	10.24
838.321	98.3
838.498	67.58
838.674	116.73
838.851	122.88
839.027	122.88
839.203	122.88
839.38	104.45
839.556	22.53
839.732	98.3
839.909	63.49
840.085	40.96
840.261	116.73
840.437	120.83
840.614	-6.14
840.79	112.64
840.966	106.49
841.142	141.31
841.318	133.12
841.494	22.53
841.671	73.73
841.847	63.49
842.023	63.49
842.199	96.25
842.375	71.68
842.551	47.1
842.727	14.34
842.903	155.65
843.079	-14.34
843.255	165.89
843.431	83.97
843.607	106.49
843.783	16.38
843.959	73.73
844.134	40.96
844.31	59.39
844.486	55.3
844.662	26.62
844.838	75.77
845.013	96.25
845.189	104.45
845.365	4.1
845.541	18.43
845.716	104.45
845.892	63.49
846.068	94.21
846.244	92.16
846.419	55.3
846.595	24.58
846.77	88.06
846.946	180.22
847.122	16.38
847.297	79.87
847.473	163.84
847.648	-2.05
847.824	18.43
847.999	4.1
848.175	157.69
848.35	112.64
848.526	96.25
848.701	79.87
848.876	83.97
849.052	34.82
849.227	53.25
849.403	-28.67
849.578	88.06
849.753	65.54
849.929	106.49
850.104	34.82
850.279	18.43
850.454	96.25
850.63	71.68
850.805	79.87
850.98	137.21
851.155	61.44
851.33	81.92
851.505	67.58
851.681	71.68
851.856	47.1
852.031	88.06
852.206	47.1
852.381	92.16
852.556	30.72
852.731	47.1
852.906	131.07
853.081	49.15
853.256	71.68
853.431	10.24
853.606	38.91
853.781	57.34
853.956	73.73
854.131	14.34
854.305	8.19
854.48	63.49
854.655	38.91
854.83	22.53
855.005	55.3
855.18	12.29
855.354	24.58
855.529	137.21
855.704	6.14
855.879	88.06
856.053	47.1
856.228	102.4
856.403	34.82
856.577	71.68
856.752	30.72
856.926	96.25
857.101	149.5
857.276	14.34
857.45	40.96
857.625	49.15
857.799	98.3
857.974	43.01
858.148	71.68
858.323	53.25
858.497	-26.62
858.672	34.82
858.846	24.58
859.02	116.73
859.195	26.62
859.369	88.06
859.543	75.77
859.718	108.54
859.892	73.73
860.066	65.54
860.241	30.72
860.415	22.53
860.589	32.77
860.763	38.91
860.938	43.01
861.112	79.87
861.286	110.59
861.46	30.72
861.634	79.87
861.808	129.02
861.982	30.72
862.157	26.62
862.331	63.49
862.505	-2.05
862.679	-26.62
862.853	88.06
863.027	0
863.201	98.3
863.375	6.14
863.549	49.15
863.722	55.3
863.896	38.91
864.07	-6.14
864.244	106.49
864.418	67.58
864.592	10.24
864.766	53.25
864.939	30.72
865.113	55.3
865.287	40.96
865.461	57.34
865.634	-8.19
865.808	2.05
865.982	-10.24
866.156	49.15
866.329	16.38
866.503	10.24
866.676	92.16
866.85	26.62
867.024	10.24
867.197	55.3
867.371	18.43
867.544	63.49
867.718	-2.05
867.891	18.43
868.065	67.58
868.238	-24.58
868.412	77.82
868.585	92.16
868.759	79.87
868.932	55.3
869.105	-2.05
869.279	55.3
869.452	16.38
869.625	73.73
869.799	73.73
869.972	16.38
870.145	88.06
870.319	43.01
870.492	47.1
870.665	-57.34
870.838	40.96
871.011	-32.77
871.185	26.62
871.358	22.53
871.531	24.58
871.704	40.96
871.877	55.3
872.05	28.67
872.223	38.91
872.396	90.11
872.569	57.34
872.742	53.25
872.915	38.91
873.088	51.2
873.261	6.14
873.434	104.45
873.607	6.14
873.78	-18.43
873.953	57.34
874.126	106.49
874.299	0
874.471	71.68
874.644	88.06
874.817	30.72
874.99	114.69
875.163	-16.38
875.335	30.72
875.508	4.1
875.681	67.58
875.853	75.77
876.026	63.49
876.199	32.77
876.371	34.82
876.544	81.92
876.717	47.1
876.889	67.58
877.062	30.72
877.234	124.93
877.407	55.3
877.579	22.53
877.752	71.68
877.924	30.72
878.097	71.68
878.269	-34.82
878.442	120.83
878.614	79.87
878.786	47.1
878.959	30.72
879.131	63.49
879.303	53.25
879.476	129.02
879.648	43.01
879.82	55.3
879.993	47.1
880.165	2.05
880.337	6.14
880.509	55.3
880.681	30.72
880.854	12.29
881.026	100.35
881.198	106.49
881.37	75.77
881.542	75.77
881.714	55.3
881.886	30.72
882.058	26.62
882.23	-2.05
882.402	16.38
882.574	65.54
882.746	96.25
882.918	55.3
883.09	49.15
883.262	30.72
883.434	55.3
883.606	65.54
883.778	-51.2
883.95	81.92
884.122	0
884.293	4.1
884.465	116.73
884.637	147.45
884.809	22.53
884.98	38.91
885.152	2.05
885.324	104.45
885.496	92.16
885.667	43.01
885.839	-24.58
886.011	104.45
886.182	-92.16
886.354	8.19
886.525	16.38
886.697	0
886.869	14.34
887.04	47.1
887.212	18.43
887.383	20.48
887.555	75.77
887.726	92.16
887.897	30.72
888.069	55.3
888.24	79.87
888.412	47.1
888.583	8.19
888.754	79.87
888.926	20.48
889.097	55.3
889.268	-65.53
889.44	65.54
889.611	0
889.782	2.05
889.953	-73.73
890.125	8.19
890.296	57.34
890.467	22.53
890.638	-10.24
890.809	40.96
890.98	73.73
891.151	-34.82
891.323	30.72
891.494	0
891.665	32.77
891.836	59.39
892.007	38.91
892.178	43.01
892.349	77.82
892.52	63.49
892.691	8.19
892.862	14.34
893.032	47.1
893.203	55.3
893.374	-10.24
893.545	69.63
893.716	63.49
893.887	49.15
894.057	-18.43
894.228	18.43
894.399	14.34
894.57	57.34
894.74	14.34
894.911	75.77
895.082	47.1
895.253	47.1
895.423	2.05
895.594	38.91
895.764	81.92
895.935	24.58
896.106	14.34
896.276	55.3
896.447	-10.24
896.617	-6.14
896.788	79.87
896.958	53.25
897.129	145.41
897.299	-2.05
897.47	-8.19
897.64	14.34
897.81	6.14
897.981	18.43
898.151	-53.25
898.322	47.1
898.492	2.05
898.662	73.73
898.832	16.38
899.003	57.34
899.173	47.1
899.343	47.1
899.513	0
