Data from USB4F104151__72__14-43-22-097.txt Node

Date: Thu Mar 13 14:43:22 EDT 2025
User: louis
Spectrometer: USB4F10415
Trigger mode: 4
Integration Time (sec): 2.000000E-2
Scans to average: 1
Electric dark correction enabled: true
Nonlinearity correction enabled: false
Boxcar width: 0
XAxis mode: Wavelengths
Number of Pixels in Spectrum: 3648
>>>>>Begin Spectral Data<<<<<
178.204	-37.72
178.424	-37.72
178.644	-37.72
178.864	-37.72
179.084	-113.49
179.304	15.53
179.524	58.54
179.744	27.82
179.964	74.92
180.184	-17.24
180.404	-0.85
180.624	-39.76
180.844	-29.52
181.064	-7
181.283	-2.9
181.503	-62.29
181.723	-17.24
181.943	-31.57
182.163	64.68
182.383	48.3
182.602	42.15
182.822	60.59
183.042	46.25
183.262	-19.29
183.482	-45.91
183.701	-39.76
183.921	25.77
184.141	-47.96
184.361	52.39
184.58	62.63
184.8	17.58
185.02	21.67
185.239	-9.05
185.459	36.01
185.679	160.94
185.898	7.34
186.118	91.31
186.338	-7
186.557	113.83
186.777	91.31
186.997	56.49
187.216	15.53
187.436	62.63
187.655	25.77
187.875	85.16
188.095	11.43
188.314	25.77
188.534	103.59
188.753	58.54
188.973	29.87
189.192	107.69
189.412	128.17
189.631	58.54
189.851	33.96
190.07	165.03
190.29	-15.19
190.509	-4.95
190.729	3.24
190.948	-4.95
191.168	210.09
191.387	76.97
191.607	-29.52
191.826	111.78
192.045	38.06
192.265	44.2
192.484	9.39
192.704	38.06
192.923	60.59
193.142	93.35
193.362	23.72
193.581	66.73
193.8	95.4
194.02	74.92
194.239	60.59
194.458	-39.76
194.678	-45.91
194.897	76.97
195.116	42.15
195.335	33.96
195.555	25.77
195.774	38.06
195.993	50.35
196.212	27.82
196.432	19.63
196.651	44.2
196.87	-31.57
197.089	66.73
197.308	42.15
197.528	-23.38
197.747	87.21
197.966	-15.19
198.185	74.92
198.404	-23.38
198.623	140.46
198.842	3.24
199.062	66.73
199.281	52.39
199.5	17.58
199.719	38.06
199.938	11.43
200.157	132.26
200.376	62.63
200.595	79.02
200.814	52.39
201.033	13.48
201.252	115.88
201.471	44.2
201.69	-9.05
201.909	91.31
202.128	-25.43
202.347	50.35
202.566	66.73
202.785	40.11
203.004	44.2
203.223	132.26
203.442	19.63
203.661	83.11
203.879	-35.67
204.098	91.31
204.317	21.67
204.536	83.11
204.755	-15.19
204.974	1.19
205.193	-31.57
205.411	126.12
205.63	25.77
205.849	-27.48
206.068	124.07
206.287	-29.52
206.505	-52.05
206.724	-23.38
206.943	13.48
207.162	31.91
207.381	46.25
207.599	23.72
207.818	17.58
208.037	9.39
208.255	5.29
208.474	-17.24
208.693	15.53
208.911	-7
209.13	36.01
209.349	-15.19
209.567	52.39
209.786	111.78
210.005	-7
210.223	9.39
210.442	15.53
210.661	95.4
210.879	42.15
211.098	62.63
211.316	44.2
211.535	44.2
211.753	50.35
211.972	76.97
212.191	83.11
212.409	-0.85
212.628	60.59
212.846	85.16
213.065	117.93
213.283	85.16
213.502	124.07
213.72	19.63
213.938	58.54
214.157	29.87
214.375	9.39
214.594	46.25
214.812	15.53
215.031	11.43
215.249	68.78
215.467	40.11
215.686	21.67
215.904	83.11
216.122	40.11
216.341	64.68
216.559	29.87
216.778	115.88
216.996	33.96
217.214	58.54
217.432	-23.38
217.651	76.97
217.869	99.5
218.087	115.88
218.306	74.92
218.524	46.25
218.742	-31.57
218.96	107.69
219.179	23.72
219.397	11.43
219.615	199.85
219.833	142.5
220.051	46.25
220.27	50.35
220.488	5.29
220.706	62.63
220.924	-21.33
221.142	66.73
221.36	115.88
221.578	91.31
221.796	27.82
222.015	42.15
222.233	11.43
222.451	117.93
222.669	1.19
222.887	95.4
223.105	42.15
223.323	85.16
223.541	42.15
223.759	103.59
223.977	66.73
224.195	107.69
224.413	40.11
224.631	17.58
224.849	27.82
225.067	132.26
225.285	91.31
225.503	-45.91
225.721	19.63
225.939	99.5
226.157	31.91
226.375	66.73
226.592	42.15
226.81	36.01
227.028	72.87
227.246	101.55
227.464	3.24
227.682	40.11
227.9	17.58
228.117	136.36
228.335	66.73
228.553	-43.86
228.771	87.21
228.989	-13.14
229.206	11.43
229.424	87.21
229.642	79.02
229.86	15.53
230.077	79.02
230.295	-33.62
230.513	66.73
230.731	48.3
230.948	136.36
231.166	107.69
231.384	17.58
231.601	-7
231.819	66.73
232.037	56.49
232.254	-9.05
232.472	113.83
232.689	17.58
232.907	33.96
233.125	42.15
233.342	17.58
233.56	25.77
233.777	36.01
233.995	17.58
234.213	17.58
234.43	29.87
234.648	117.93
234.865	50.35
235.083	93.35
235.3	107.69
235.518	-23.38
235.735	128.17
235.953	124.07
236.17	46.25
236.388	29.87
236.605	33.96
236.822	50.35
237.04	107.69
237.257	124.07
237.475	21.67
237.692	54.44
237.909	17.58
238.127	19.63
238.344	109.74
238.562	29.87
238.779	-7
238.996	13.48
239.214	66.73
239.431	3.24
239.648	46.25
239.865	91.31
240.083	74.92
240.3	1.19
240.517	50.35
240.735	3.24
240.952	58.54
241.169	113.83
241.386	21.67
241.603	42.15
241.821	50.35
242.038	58.54
242.255	117.93
242.472	17.58
242.689	58.54
242.907	68.78
243.124	56.49
243.341	46.25
243.558	-29.52
243.775	60.59
243.992	-7
244.209	-13.14
244.426	25.77
244.643	44.2
244.86	29.87
245.078	111.78
245.295	11.43
245.512	42.15
245.729	25.77
245.946	-52.05
246.163	9.39
246.38	27.82
246.597	99.5
246.814	74.92
247.031	85.16
247.248	93.35
247.464	40.11
247.681	58.54
247.898	46.25
248.115	95.4
248.332	-0.85
248.549	66.73
248.766	81.07
248.983	44.2
249.2	9.39
249.417	103.59
249.633	-60.24
249.85	68.78
250.067	44.2
250.284	99.5
250.501	101.55
250.717	44.2
250.934	25.77
251.151	1.19
251.368	29.87
251.585	5.29
251.801	29.87
252.018	68.78
252.235	74.92
252.451	-7
252.668	33.96
252.885	58.54
253.102	52.39
253.318	9.39
253.535	119.98
253.752	50.35
253.968	52.39
254.185	50.35
254.401	42.15
254.618	50.35
254.835	25.77
255.051	142.5
255.268	56.49
255.484	85.16
255.701	27.82
255.917	60.59
256.134	13.48
256.351	15.53
256.567	60.59
256.784	107.69
257	33.96
257.217	126.12
257.433	58.54
257.65	74.92
257.866	19.63
258.082	25.77
258.299	19.63
258.515	46.25
258.732	1.19
258.948	42.15
259.165	48.3
259.381	91.31
259.597	85.16
259.814	66.73
260.03	60.59
260.246	23.72
260.463	33.96
260.679	134.31
260.895	38.06
261.112	101.55
261.328	36.01
261.544	83.11
261.761	99.5
261.977	-4.95
262.193	7.34
262.409	42.15
262.626	33.96
262.842	17.58
263.058	-19.29
263.274	74.92
263.49	107.69
263.707	115.88
263.923	74.92
264.139	27.82
264.355	52.39
264.571	79.02
264.787	17.58
265.004	17.58
265.22	23.72
265.436	33.96
265.652	3.24
265.868	50.35
266.084	15.53
266.3	62.63
266.516	31.91
266.732	83.11
266.948	85.16
267.164	36.01
267.38	7.34
267.596	13.48
267.812	48.3
268.028	52.39
268.244	3.24
268.46	109.74
268.676	-2.9
268.892	42.15
269.108	-31.57
269.324	66.73
269.54	-31.57
269.756	-47.96
269.972	99.5
270.188	60.59
270.403	-7
270.619	54.44
270.835	36.01
271.051	54.44
271.267	-15.19
271.483	50.35
271.698	119.98
271.914	52.39
272.13	33.96
272.346	76.97
272.562	13.48
272.777	58.54
272.993	7.34
273.209	54.44
273.425	19.63
273.64	-29.52
273.856	40.11
274.072	87.21
274.287	-0.85
274.503	19.63
274.719	15.53
274.934	-15.19
275.15	-39.76
275.366	-2.9
275.581	21.67
275.797	95.4
276.012	50.35
276.228	52.39
276.444	-31.57
276.659	62.63
276.875	68.78
277.09	15.53
277.306	-4.95
277.521	85.16
277.737	-15.19
277.952	50.35
278.168	60.59
278.383	95.4
278.599	21.67
278.814	3.24
279.03	-17.24
279.245	89.26
279.461	-43.86
279.676	17.58
279.892	42.15
280.107	56.49
280.322	33.96
280.538	99.5
280.753	56.49
280.969	52.39
281.184	74.92
281.399	50.35
281.615	-54.1
281.83	42.15
282.045	25.77
282.26	38.06
282.476	44.2
282.691	60.59
282.906	52.39
283.122	3.24
283.337	-13.14
283.552	50.35
283.767	29.87
283.983	74.92
284.198	15.53
284.413	23.72
284.628	-29.52
284.843	70.83
285.058	62.63
285.274	11.43
285.489	46.25
285.704	33.96
285.919	42.15
286.134	58.54
286.349	13.48
286.564	-2.9
286.779	33.96
286.995	56.49
287.21	36.01
287.425	5.29
287.64	25.77
287.855	50.35
288.07	-31.57
288.285	36.01
288.5	79.02
288.715	130.22
288.93	17.58
289.145	56.49
289.36	95.4
289.575	-60.24
289.79	68.78
290.004	29.87
290.219	130.22
290.434	68.78
290.649	-2.9
290.864	119.98
291.079	-52.05
291.294	64.68
291.509	58.54
291.724	25.77
291.938	58.54
292.153	83.11
292.368	25.77
292.583	58.54
292.798	74.92
293.012	50.35
293.227	27.82
293.442	17.58
293.657	66.73
293.871	62.63
294.086	-17.24
294.301	101.55
294.516	29.87
294.73	9.39
294.945	-4.95
295.16	115.88
295.374	99.5
295.589	46.25
295.804	42.15
296.018	23.72
296.233	58.54
296.447	25.77
296.662	29.87
296.877	83.11
297.091	103.59
297.306	70.83
297.52	27.82
297.735	-13.14
297.949	50.35
298.164	68.78
298.378	115.88
298.593	42.15
298.807	91.31
299.022	17.58
299.236	83.11
299.451	95.4
299.665	38.06
299.88	38.06
300.094	-7
300.309	9.39
300.523	81.07
300.737	66.73
300.952	7.34
301.166	76.97
301.381	-2.9
301.595	-19.29
301.809	19.63
302.024	83.11
302.238	52.39
302.452	91.31
302.667	17.58
302.881	87.21
303.095	70.83
303.309	115.88
303.524	58.54
303.738	11.43
303.952	42.15
304.166	85.16
304.381	3.24
304.595	93.35
304.809	74.92
305.023	68.78
305.237	-52.05
305.452	25.77
305.666	-9.05
305.88	52.39
306.094	107.69
306.308	91.31
306.522	115.88
306.736	17.58
306.95	36.01
307.164	50.35
307.379	-11.09
307.593	58.54
307.807	13.48
308.021	93.35
308.235	54.44
308.449	33.96
308.663	33.96
308.877	124.07
309.091	50.35
309.305	46.25
309.519	-21.33
309.733	25.77
309.947	13.48
310.161	42.15
310.374	11.43
310.588	62.63
310.802	-29.52
311.016	19.63
311.23	87.21
311.444	46.25
311.658	13.48
311.872	103.59
312.085	66.73
312.299	19.63
312.513	-13.14
312.727	66.73
312.941	11.43
313.154	81.07
313.368	70.83
313.582	66.73
313.796	50.35
314.009	91.31
314.223	42.15
314.437	95.4
314.651	54.44
314.864	17.58
315.078	9.39
315.292	107.69
315.505	33.96
315.719	83.11
315.933	107.69
316.146	83.11
316.36	-39.76
316.573	40.11
316.787	85.16
317.001	44.2
317.214	17.58
317.428	17.58
317.641	-29.52
317.855	50.35
318.068	87.21
318.282	64.68
318.495	17.58
318.709	74.92
318.922	66.73
319.136	136.36
319.349	-19.29
319.563	46.25
319.776	62.63
319.99	-21.33
320.203	-4.95
320.417	44.2
320.63	76.97
320.843	146.6
321.057	21.67
321.27	5.29
321.483	68.78
321.697	89.26
321.91	89.26
322.124	60.59
322.337	33.96
322.55	42.15
322.763	68.78
322.977	107.69
323.19	-15.19
323.403	103.59
323.617	36.01
323.83	38.06
324.043	50.35
324.256	68.78
324.469	54.44
324.683	62.63
324.896	11.43
325.109	13.48
325.322	66.73
325.535	66.73
325.748	130.22
325.962	17.58
326.175	50.35
326.388	103.59
326.601	54.44
326.814	25.77
327.027	101.55
327.24	111.78
327.453	-7
327.666	1.19
327.879	42.15
328.092	66.73
328.305	115.88
328.518	-2.9
328.731	46.25
328.944	-31.57
329.157	54.44
329.37	42.15
329.583	72.87
329.796	70.83
330.009	13.48
330.222	68.78
330.435	79.02
330.648	44.2
330.861	60.59
331.073	142.5
331.286	68.78
331.499	87.21
331.712	60.59
331.925	-9.05
332.138	83.11
332.35	115.88
332.563	13.48
332.776	91.31
332.989	17.58
333.202	38.06
333.414	5.29
333.627	19.63
333.84	33.96
334.053	66.73
334.265	70.83
334.478	58.54
334.691	38.06
334.903	-72.53
335.116	46.25
335.329	33.96
335.541	83.11
335.754	60.59
335.966	50.35
336.179	13.48
336.392	60.59
336.604	38.06
336.817	19.63
337.029	76.97
337.242	33.96
337.454	5.29
337.667	76.97
337.88	9.39
338.092	38.06
338.305	83.11
338.517	117.93
338.729	66.73
338.942	126.12
339.154	46.25
339.367	23.72
339.579	-9.05
339.792	3.24
340.004	74.92
340.217	17.58
340.429	25.77
340.641	21.67
340.854	-2.9
341.066	31.91
341.278	44.2
341.491	99.5
341.703	56.49
341.915	-31.57
342.128	66.73
342.34	58.54
342.552	44.2
342.764	33.96
342.977	31.91
343.189	74.92
343.401	60.59
343.613	42.15
343.826	25.77
344.038	40.11
344.25	68.78
344.462	64.68
344.674	-7
344.886	1.19
345.099	56.49
345.311	95.4
345.523	66.73
345.735	17.58
345.947	25.77
346.159	117.93
346.371	58.54
346.583	38.06
346.795	52.39
347.007	42.15
347.219	83.11
347.431	38.06
347.643	66.73
347.855	21.67
348.067	87.21
348.279	-21.33
348.491	68.78
348.703	58.54
348.915	81.07
349.127	11.43
349.339	-64.34
349.551	1.19
349.763	5.29
349.975	105.64
350.187	50.35
350.399	91.31
350.61	83.11
350.822	5.29
351.034	99.5
351.246	25.77
351.458	74.92
351.669	17.58
351.881	58.54
352.093	68.78
352.305	83.11
352.517	50.35
352.728	66.73
352.94	68.78
353.152	-7
353.363	74.92
353.575	66.73
353.787	44.2
353.999	81.07
354.21	111.78
354.422	9.39
354.633	111.78
354.845	58.54
355.057	40.11
355.268	23.72
355.48	29.87
355.692	-15.19
355.903	29.87
356.115	36.01
356.326	58.54
356.538	142.5
356.749	17.58
356.961	50.35
357.172	17.58
357.384	68.78
357.595	89.26
357.807	38.06
358.018	54.44
358.23	72.87
358.441	81.07
358.653	11.43
358.864	103.59
359.075	48.3
359.287	5.29
359.498	33.96
359.709	-33.62
359.921	1.19
360.132	83.11
360.344	40.11
360.555	58.54
360.766	95.4
360.977	76.97
361.189	68.78
361.4	64.68
361.611	58.54
361.823	76.97
362.034	54.44
362.245	74.92
362.456	9.39
362.667	74.92
362.879	-19.29
363.09	124.07
363.301	113.83
363.512	42.15
363.723	74.92
363.935	91.31
364.146	68.78
364.357	33.96
364.568	109.74
364.779	46.25
364.99	99.5
365.201	-29.52
365.412	74.92
365.623	48.3
365.834	33.96
366.045	103.59
366.256	62.63
366.467	99.5
366.678	27.82
366.889	1.19
367.1	46.25
367.311	3.24
367.522	33.96
367.733	3.24
367.944	142.5
368.155	-7
368.366	99.5
368.577	144.55
368.788	83.11
368.999	17.58
369.209	91.31
369.42	36.01
369.631	66.73
369.842	-19.29
370.053	72.87
370.264	5.29
370.474	-19.29
370.685	17.58
370.896	-9.05
371.107	105.64
371.317	70.83
371.528	70.83
371.739	25.77
371.95	66.73
372.16	83.11
372.371	-41.81
372.582	66.73
372.792	107.69
373.003	25.77
373.214	50.35
373.424	74.92
373.635	9.39
373.846	-15.19
374.056	23.72
374.267	68.78
374.477	42.15
374.688	11.43
374.898	58.54
375.109	25.77
375.319	-7
375.53	52.39
375.74	-4.95
375.951	17.58
376.161	19.63
376.372	103.59
376.582	44.2
376.793	44.2
377.003	85.16
377.214	-4.95
377.424	91.31
377.635	66.73
377.845	25.77
378.055	25.77
378.266	38.06
378.476	11.43
378.686	1.19
378.897	81.07
379.107	44.2
379.317	46.25
379.528	58.54
379.738	107.69
379.948	74.92
380.158	115.88
380.369	62.63
380.579	58.54
380.789	44.2
380.999	25.77
381.21	156.84
381.42	58.54
381.63	68.78
381.84	46.25
382.05	40.11
382.261	60.59
382.471	165.03
382.681	42.15
382.891	60.59
383.101	74.92
383.311	58.54
383.521	29.87
383.731	5.29
383.941	79.02
384.151	13.48
384.361	52.39
384.571	38.06
384.781	29.87
384.991	79.02
385.201	175.27
385.411	81.07
385.621	19.63
385.831	11.43
386.041	72.87
386.251	58.54
386.461	33.96
386.671	107.69
386.881	95.4
387.091	9.39
387.301	58.54
387.511	52.39
387.72	-11.09
387.93	117.93
388.14	29.87
388.35	70.83
388.56	-0.85
388.769	58.54
388.979	105.64
389.189	13.48
389.399	1.19
389.609	89.26
389.818	191.66
390.028	-25.43
390.238	91.31
390.447	-47.96
390.657	-2.9
390.867	-19.29
391.076	-7
391.286	46.25
391.496	46.25
391.705	19.63
391.915	97.45
392.125	42.15
392.334	103.59
392.544	66.73
392.753	44.2
392.963	50.35
393.172	64.68
393.382	-25.43
393.591	111.78
393.801	36.01
394.01	99.5
394.22	87.21
394.429	25.77
394.639	-0.85
394.848	76.97
395.058	60.59
395.267	85.16
395.477	13.48
395.686	91.31
395.895	107.69
396.105	144.55
396.314	87.21
396.524	54.44
396.733	29.87
396.942	33.96
397.152	79.02
397.361	74.92
397.57	68.78
397.78	83.11
397.989	46.25
398.198	175.27
398.407	19.63
398.617	103.59
398.826	95.4
399.035	42.15
399.244	115.88
399.453	85.16
399.663	124.07
399.872	58.54
400.081	81.07
400.29	122.02
400.499	68.78
400.708	58.54
400.917	169.13
401.127	74.92
401.336	62.63
401.545	56.49
401.754	146.6
401.963	101.55
402.172	111.78
402.381	50.35
402.59	42.15
402.799	140.46
403.008	38.06
403.217	27.82
403.426	132.26
403.635	76.97
403.844	142.5
404.053	87.21
404.262	68.78
404.471	117.93
404.68	25.77
404.888	117.93
405.097	48.3
405.306	134.31
405.515	74.92
405.724	79.02
405.933	117.93
406.142	175.27
406.35	95.4
406.559	115.88
406.768	111.78
406.977	128.17
407.185	160.94
407.394	158.89
407.603	60.59
407.812	117.93
408.02	216.23
408.229	156.84
408.438	124.07
408.646	132.26
408.855	134.31
409.064	152.74
409.272	119.98
409.481	150.7
409.69	101.55
409.898	181.42
410.107	144.55
410.315	103.59
410.524	175.27
410.733	148.65
410.941	107.69
411.15	150.7
411.358	119.98
411.567	181.42
411.775	169.13
411.984	162.98
412.192	197.8
412.401	193.7
412.609	199.85
412.818	246.95
413.026	197.8
413.234	181.42
413.443	249
413.651	191.66
413.86	257.19
414.068	228.52
414.276	251.05
414.485	197.8
414.693	269.48
414.901	332.97
415.11	255.14
415.318	226.47
415.526	246.95
415.734	232.62
415.943	281.77
416.151	238.76
416.359	263.33
416.567	236.71
416.776	226.47
416.984	330.92
417.192	255.14
417.4	230.57
417.608	242.85
417.817	240.81
418.025	222.38
418.233	341.16
418.441	279.72
418.649	324.77
418.857	242.85
419.065	320.68
419.273	292.01
419.481	304.29
419.689	355.49
419.897	304.29
420.105	294.05
420.313	308.39
420.521	324.77
420.729	380.07
420.937	324.77
421.145	298.15
421.353	378.02
421.561	369.83
421.769	375.97
421.977	404.64
422.185	373.92
422.393	279.72
422.601	396.45
422.809	402.6
423.017	390.31
423.224	388.26
423.432	416.93
423.64	406.69
423.848	439.46
424.056	486.56
424.263	445.6
424.471	451.75
424.679	410.79
424.887	427.17
425.094	433.32
425.302	478.37
425.51	474.28
425.718	535.71
425.925	527.52
426.133	543.91
426.341	535.71
426.548	591.01
426.756	511.14
426.964	548
427.171	468.13
427.379	509.09
427.586	560.29
427.794	607.39
428.001	605.35
428.209	623.78
428.417	601.25
428.624	623.78
428.832	599.2
429.039	572.58
429.247	609.44
429.454	722.08
429.662	677.02
429.869	658.59
430.076	648.35
430.284	625.83
430.491	720.03
430.699	726.18
430.906	742.56
431.114	703.65
431.321	625.83
431.528	746.66
431.736	734.37
431.943	783.52
432.15	763.04
432.358	787.61
432.565	818.33
432.772	763.04
432.979	791.71
433.187	836.77
433.394	892.06
433.601	789.66
433.808	861.34
434.016	918.68
434.223	810.14
434.43	904.35
434.637	918.68
434.844	976.03
435.052	912.54
435.259	928.92
435.466	945.31
435.673	986.27
435.88	943.26
436.087	1074.33
436.294	1008.8
436.501	926.88
436.708	980.12
436.915	1066.14
437.122	1008.8
437.329	1115.29
437.537	1111.19
437.743	1135.77
437.95	1148.06
438.157	1166.49
438.364	1285.27
438.571	1215.64
438.778	1270.94
438.985	1221.78
439.192	1285.27
439.399	1336.47
439.606	1270.94
439.813	1373.33
440.02	1361.05
440.227	1295.51
440.433	1289.37
440.64	1352.85
440.847	1348.76
441.054	1365.14
441.261	1420.44
441.467	1461.4
441.674	1539.22
441.881	1549.46
442.088	1426.58
442.294	1463.44
442.501	1537.17
442.708	1541.27
442.914	1545.36
443.121	1758.35
443.328	1457.3
443.534	1660.05
443.741	1557.65
443.948	1627.28
444.154	1731.73
444.361	1778.83
444.568	1709.2
444.774	1614.99
444.981	1797.26
445.187	1735.82
445.394	1744.02
445.6	1746.06
445.807	1940.62
446.013	1928.33
446.22	1889.42
446.426	1985.68
446.633	2020.49
446.839	2143.37
447.046	2034.83
447.252	2118.79
447.459	2086.03
447.665	2067.6
447.871	2243.72
448.078	2401.41
448.284	2219.14
448.491	2129.03
448.697	2331.78
448.903	2262.15
449.11	2450.57
449.316	2243.72
449.522	2299.02
449.728	2380.93
449.935	2405.51
450.141	2370.69
450.347	2477.19
450.553	2395.27
450.76	2253.96
450.966	2477.19
451.172	2364.55
451.378	2499.72
451.584	2522.24
451.791	2567.3
451.997	2440.33
452.203	2657.41
452.409	2526.34
452.615	2606.21
452.821	2577.54
453.027	2389.13
453.233	2569.35
453.44	2462.85
453.646	2503.81
453.852	2385.03
454.058	2501.76
454.264	2466.95
454.47	2532.48
454.676	2534.53
454.882	2585.73
455.088	2313.35
455.294	2401.41
455.5	2458.76
455.705	2350.21
455.911	2419.85
456.117	2292.87
456.323	2303.11
456.529	2151.56
456.735	2270.34
456.941	2215.05
457.147	2106.51
457.352	2079.88
457.558	2040.97
457.764	2118.79
457.97	2122.89
458.176	2008.2
458.381	2057.36
458.587	1903.76
458.793	1924.24
458.999	1795.22
459.204	1995.92
459.41	1901.71
459.616	1856.65
459.821	1897.61
460.027	1721.49
460.233	1795.22
460.438	1688.72
460.644	1770.64
460.85	1623.19
461.055	1789.07
461.261	1627.28
461.466	1459.35
461.672	1516.69
461.878	1569.94
462.083	1379.48
462.289	1406.1
462.494	1510.55
462.7	1442.96
462.905	1363.09
463.111	1344.66
463.316	1438.87
463.522	1395.86
463.727	1414.29
463.932	1402.01
464.138	1418.39
464.343	1369.24
464.549	1356.95
464.754	1373.33
464.959	1418.39
465.165	1293.46
465.37	1361.05
465.575	1264.79
465.781	1361.05
465.986	1283.22
466.191	1213.59
466.397	1258.65
466.602	1369.24
466.807	1148.06
467.012	1369.24
467.218	1299.61
467.423	1377.43
467.628	1301.65
467.833	1217.69
468.038	1295.51
468.244	1254.55
468.449	1168.54
468.654	1250.46
468.859	1227.93
469.064	1135.77
469.269	1156.25
469.474	1301.65
469.679	1242.26
469.885	1164.44
470.09	1262.74
470.295	1225.88
470.5	1180.82
470.705	1223.83
470.91	1168.54
471.115	1131.67
471.32	1180.82
471.525	1201.3
471.73	1285.27
471.935	1311.89
472.139	1115.29
472.344	1103
472.549	1107.1
472.754	1158.3
472.959	1035.42
473.164	1109.15
473.369	1051.8
473.574	1221.78
473.778	1021.08
473.983	1174.68
474.188	1055.9
474.393	980.12
474.598	969.88
474.802	1059.99
475.007	1025.18
475.212	1037.47
475.417	1008.8
475.621	1043.61
475.826	1019.04
476.031	1074.33
476.235	984.22
476.44	1002.65
476.645	1045.66
476.849	1008.8
477.054	926.88
477.259	986.27
477.463	1002.65
477.668	1166.49
477.872	951.45
478.077	973.98
478.282	894.11
478.486	1016.99
478.691	930.97
478.895	890.01
479.1	963.74
479.304	1019.04
479.509	980.12
479.713	1012.89
479.918	935.07
480.122	943.26
480.326	939.16
480.531	976.03
480.735	873.63
480.94	914.59
481.144	928.92
481.348	869.53
481.553	986.27
481.757	861.34
481.961	828.57
482.166	935.07
482.37	933.02
482.574	887.97
482.778	847.01
482.983	855.2
483.187	844.96
483.391	871.58
483.595	885.92
483.8	869.53
484.004	912.54
484.208	806.05
484.412	914.59
484.616	986.27
484.821	853.15
485.025	869.53
485.229	978.08
485.433	945.31
485.637	861.34
485.841	896.16
486.045	847.01
486.249	890.01
486.453	930.97
486.657	912.54
486.861	894.11
487.065	926.88
487.269	990.36
487.473	877.73
487.677	912.54
487.881	861.34
488.085	971.93
488.289	912.54
488.493	879.77
488.697	976.03
488.901	939.16
489.105	844.96
489.309	914.59
489.512	1000.6
489.716	902.3
489.92	926.88
490.124	928.92
490.328	984.22
490.531	912.54
490.735	922.78
490.939	877.73
491.143	953.5
491.346	959.64
491.55	894.11
491.754	959.64
491.958	1025.18
492.161	992.41
492.365	1010.84
492.569	879.77
492.772	951.45
492.976	1070.23
493.18	990.36
493.383	910.49
493.587	910.49
493.79	955.55
493.994	996.51
494.197	971.93
494.401	1051.8
494.605	992.41
494.808	1035.42
495.012	935.07
495.215	1059.99
495.419	1023.13
495.622	1059.99
495.825	1021.08
496.029	1045.66
496.232	1053.85
496.436	1070.23
496.639	1051.8
496.843	1133.72
497.046	1029.27
497.249	1123.48
497.453	1055.9
497.656	1117.34
497.859	1086.62
498.063	1121.43
498.266	1143.96
498.469	1029.27
498.673	1117.34
498.876	1076.38
499.079	1129.63
499.282	1141.91
499.485	1262.74
499.689	1199.26
499.892	1170.58
500.095	1246.36
500.298	1229.98
500.501	1250.46
500.705	1221.78
500.908	1213.59
501.111	1229.98
501.314	1256.6
501.517	1324.18
501.72	1221.78
501.923	1240.22
502.126	1371.29
502.329	1344.66
502.532	1303.7
502.735	1385.62
502.938	1402.01
503.141	1412.25
503.344	1389.72
503.547	1432.72
503.75	1369.24
503.953	1408.15
504.156	1518.74
504.359	1442.96
504.562	1434.77
504.765	1451.16
504.968	1541.27
505.17	1625.23
505.373	1553.55
505.576	1584.27
505.779	1553.55
505.982	1582.23
506.185	1553.55
506.387	1625.23
506.59	1658
506.793	1637.52
506.996	1723.54
507.198	1692.82
507.401	1717.39
507.604	1793.17
507.807	1715.34
508.009	1660.05
508.212	1664.15
508.415	1666.19
508.617	1748.11
508.82	1780.88
509.022	1746.06
509.225	1813.65
509.428	1819.79
509.63	1848.46
509.833	1813.65
510.035	1844.37
510.238	1934.48
510.44	1930.38
510.643	1936.53
510.845	1975.44
511.048	1891.47
511.25	1889.42
511.453	1870.99
511.655	2018.44
511.858	2077.83
512.06	2053.26
512.262	2145.42
512.465	2110.6
512.667	2092.17
512.87	2063.5
513.072	2157.71
513.274	2116.75
513.477	2102.41
513.679	2061.45
513.881	2264.2
514.084	2194.57
514.286	2167.95
514.488	2258.06
514.69	2243.72
514.893	2313.35
515.095	2309.26
515.297	2241.67
515.499	2327.69
515.701	2321.54
515.904	2460.81
516.106	2364.55
516.308	2425.99
516.51	2452.61
516.712	2487.43
516.914	2450.57
517.116	2550.92
517.318	2512
517.52	2583.68
517.722	2436.23
517.925	2573.44
518.127	2714.75
518.329	2681.99
518.531	2507.91
518.733	2786.43
518.935	2692.23
519.136	2745.47
519.338	2772.1
519.54	2755.71
519.742	2716.8
519.944	2739.33
520.146	2784.38
520.348	2925.69
520.55	2770.05
520.752	2884.73
520.954	2899.07
521.155	2864.25
521.357	2868.35
521.559	2884.73
521.761	2954.37
521.963	3056.76
522.164	3058.81
522.366	3089.53
522.568	3122.3
522.77	3036.28
522.971	3056.76
523.173	3011.71
523.375	3189.88
523.576	3163.26
523.778	3046.52
523.98	3138.68
524.181	3216.51
524.383	3228.79
524.584	3140.73
524.786	3409.01
524.988	3163.26
525.189	3150.97
525.391	3185.79
525.592	3331.19
525.794	3312.76
525.995	3312.76
526.197	3388.53
526.398	3400.82
526.6	3349.62
526.801	3409.01
527.003	3406.97
527.204	3423.35
527.406	3517.56
527.607	3368.06
527.808	3470.45
528.01	3427.45
528.211	3433.59
528.412	3583.09
528.614	3495.03
528.815	3622
529.016	3490.93
529.218	3458.17
529.419	3484.79
529.62	3499.13
529.822	3605.62
530.023	3572.85
530.224	3523.7
530.425	3466.36
530.626	3593.33
530.828	3499.13
531.029	3529.84
531.23	3527.8
531.431	3515.51
531.632	3441.78
531.833	3617.91
532.035	3638.39
532.236	3613.81
532.437	3626.1
532.638	3357.82
532.839	3673.2
533.04	3548.28
533.241	3675.25
533.442	3527.8
533.643	3681.39
533.844	3587.19
534.045	3486.84
534.246	3658.87
534.447	3486.84
534.648	3576.95
534.849	3591.28
535.05	3689.59
535.251	3656.82
535.451	3667.06
535.652	3595.38
535.853	3622
536.054	3730.55
536.255	3701.87
536.456	3599.48
536.657	3695.73
536.857	3652.72
537.058	3839.09
537.259	3781.74
537.46	3622
537.66	3597.43
537.861	3542.13
538.062	3656.82
538.263	3445.88
538.463	3687.54
538.664	3568.76
538.865	3679.35
539.065	3513.46
539.266	3540.08
539.466	3605.62
539.667	3714.16
539.868	3755.12
540.068	3722.35
540.269	3728.5
540.469	3714.16
540.67	3781.74
540.87	3703.92
541.071	3708.02
541.271	3740.79
541.472	3613.81
541.672	3638.39
541.873	3685.49
542.073	3476.6
542.274	3710.07
542.474	3667.06
542.675	3533.94
542.875	3574.9
543.075	3513.46
543.276	3576.95
543.476	3683.44
543.676	3669.11
543.877	3789.94
544.077	3714.16
544.277	3669.11
544.478	3601.52
544.678	3513.46
544.878	3724.4
545.078	3638.39
545.279	3550.32
545.479	3519.6
545.679	3769.46
545.879	3439.73
546.079	3585.14
546.28	3671.15
546.48	3626.1
546.68	3732.59
546.88	3613.81
547.08	3542.13
547.28	3630.2
547.48	3505.27
547.68	3630.2
547.88	3638.39
548.081	3579
548.281	3499.13
548.481	3742.83
548.681	3654.77
548.881	3673.2
549.081	3499.13
549.28	3523.7
549.48	3716.21
549.68	3687.54
549.88	3736.69
550.08	3656.82
550.28	3613.81
550.48	3738.74
550.68	3679.35
550.88	3499.13
551.08	3587.19
551.279	3638.39
551.479	3517.56
551.679	3660.91
551.879	3609.72
552.079	3677.3
552.278	3548.28
552.478	3671.15
552.678	3552.37
552.878	3720.31
553.077	3648.63
553.277	3753.07
553.477	3796.08
553.676	3665.01
553.876	3718.26
554.076	3648.63
554.275	3542.13
554.475	3429.49
554.674	3662.96
554.874	3560.56
555.074	3576.95
555.273	3650.67
555.473	3773.55
555.672	3564.66
555.872	3458.17
556.071	3656.82
556.271	3658.87
556.47	3558.52
556.67	3507.32
556.869	3624.05
557.068	3617.91
557.268	3466.36
557.467	3529.84
557.667	3675.25
557.866	3484.79
558.065	3583.09
558.265	3501.17
558.464	3425.4
558.663	3542.13
558.863	3470.45
559.062	3613.81
559.261	3583.09
559.461	3677.3
559.66	3449.97
559.859	3384.44
560.058	3466.36
560.258	3474.55
560.457	3441.78
560.656	3490.93
560.855	3353.72
561.054	3599.48
561.253	3361.91
561.453	3460.21
561.652	3466.36
561.851	3499.13
562.05	3384.44
562.249	3458.17
562.448	3458.17
562.647	3427.45
562.846	3466.36
563.045	3511.41
563.244	3359.86
563.443	3314.81
563.642	3363.96
563.841	3452.02
564.04	3300.47
564.239	3366.01
564.438	3384.44
564.637	3312.76
564.836	3466.36
565.035	3318.9
565.234	3449.97
565.432	3368.06
565.631	3316.86
565.83	3353.72
566.029	3400.82
566.228	3370.1
566.427	3376.25
566.625	3236.99
566.824	3091.58
567.023	3310.71
567.222	3275.9
567.42	3241.08
567.619	3396.73
567.818	3204.22
568.016	3452.02
568.215	3247.23
568.414	3232.89
568.612	3245.18
568.811	3304.57
569.01	3351.67
569.208	3245.18
569.407	3175.55
569.605	3202.17
569.804	3228.79
570.002	3212.41
570.201	3150.97
570.4	3126.39
570.598	3144.83
570.797	3124.35
570.995	3138.68
571.193	3060.86
571.392	3228.79
571.59	2903.17
571.789	3077.24
571.987	3101.82
572.186	3122.3
572.384	2919.55
572.582	3163.26
572.781	2933.89
572.979	3058.81
573.177	3114.11
573.376	3069.05
573.574	2933.89
573.772	2950.27
573.971	3015.8
574.169	3056.76
574.367	3007.61
574.565	3101.82
574.763	2991.23
574.962	3026.04
575.16	3019.9
575.358	2931.84
575.556	2989.18
575.754	2921.6
575.952	2968.7
576.151	3001.47
576.349	2815.1
576.547	2903.17
576.745	2901.12
576.943	3093.63
577.141	2944.13
577.339	2937.98
577.537	2894.97
577.735	2950.27
577.933	2921.6
578.131	2950.27
578.329	2940.03
578.527	2884.73
578.725	2933.89
578.923	2856.06
579.121	2843.78
579.319	2806.91
579.516	2878.59
579.714	2872.45
579.912	2800.77
580.11	2796.67
580.308	2739.33
580.506	2851.97
580.704	2739.33
580.901	2835.58
581.099	2843.78
581.297	2720.9
581.495	2811.01
581.692	2784.38
581.89	2761.86
582.088	2839.68
582.285	2831.49
582.483	2755.71
582.681	2716.8
582.878	2786.43
583.076	2647.17
583.274	2788.48
583.471	2673.79
583.669	2722.95
583.866	2706.56
584.064	2718.85
584.262	2679.94
584.459	2698.37
584.657	2669.7
584.854	2634.88
585.052	2630.79
585.249	2706.56
585.447	2696.32
585.644	2698.37
585.841	2706.56
586.039	2628.74
586.236	2698.37
586.434	2657.41
586.631	2591.88
586.828	2632.83
587.026	2671.75
587.223	2397.32
587.42	2534.53
587.618	2473.09
587.815	2577.54
588.012	2462.85
588.21	2458.76
588.407	2679.94
588.604	2534.53
588.801	2436.23
588.999	2595.97
589.196	2571.4
589.393	2452.61
589.59	2440.33
589.787	2518.15
589.984	2399.37
590.182	2446.47
590.379	2548.87
590.576	2491.52
590.773	2401.41
590.97	2339.97
591.167	2530.44
591.364	2393.22
591.561	2458.76
591.758	2540.68
591.955	2421.89
592.152	2376.84
592.349	2458.76
592.546	2387.08
592.743	2409.61
592.94	2327.69
593.137	2282.63
593.334	2495.62
593.531	2401.41
593.727	2374.79
593.924	2456.71
594.121	2430.09
594.318	2378.89
594.515	2303.11
594.712	2331.78
594.908	2378.89
595.105	2294.92
595.302	2192.52
595.499	2385.03
595.696	2385.03
595.892	2313.35
596.089	2296.97
596.286	2286.73
596.482	2352.26
596.679	2303.11
596.876	2274.44
597.072	2274.44
597.269	2274.44
597.466	2288.78
597.662	2188.43
597.859	2147.47
598.055	2217.1
598.252	2208.9
598.448	2303.11
598.645	2268.3
598.841	2323.59
599.038	2335.88
599.234	2274.44
599.431	2141.32
599.627	2163.85
599.824	2137.23
600.02	2139.27
600.217	2114.7
600.413	2151.56
600.609	2157.71
600.806	2131.08
601.002	2153.61
601.198	2057.36
601.395	2190.47
601.591	2204.81
601.787	2122.89
601.984	2151.56
602.18	2151.56
602.376	2094.22
602.572	2129.03
602.769	2122.89
602.965	2057.36
603.161	2135.18
603.357	2098.31
603.553	2180.23
603.75	2102.41
603.946	2059.4
604.142	2075.79
604.338	2018.44
604.534	2053.26
604.73	1971.34
604.926	2024.59
605.122	2149.51
605.318	1993.87
605.514	2075.79
605.71	2014.35
605.906	2106.51
606.102	2022.54
606.298	1959.05
606.494	2047.12
606.69	2131.08
606.886	2026.64
607.082	2006.16
607.278	1967.24
607.474	1971.34
607.67	2028.68
607.866	1922.19
608.062	1948.81
608.257	2032.78
608.453	2057.36
608.649	1995.92
608.845	1805.46
609.041	1914
609.236	1901.71
609.432	1868.94
609.628	1985.68
609.824	1889.42
610.019	2024.59
610.215	1907.85
610.411	1924.24
610.606	1918.09
610.802	1850.51
610.998	1997.96
611.193	1901.71
611.389	1932.43
611.584	1852.56
611.78	1805.46
611.976	1846.41
612.171	1973.39
612.367	1928.33
612.562	1830.03
612.758	1791.12
612.953	1805.46
613.149	1825.93
613.344	1873.04
613.539	1885.33
613.735	1772.69
613.93	1762.45
614.126	1819.79
614.321	1811.6
614.517	1877.13
614.712	1832.08
614.907	1838.22
615.103	1770.64
615.298	1823.89
615.493	1778.83
615.688	1793.17
615.884	1819.79
616.079	1819.79
616.274	1811.6
616.47	1821.84
616.665	1701.01
616.86	1825.93
617.055	1778.83
617.25	1819.79
617.445	1811.6
617.641	1645.71
617.836	1758.35
618.031	1784.98
618.226	1750.16
618.421	1803.41
618.616	1690.77
618.811	1674.39
619.006	1713.3
619.201	1823.89
619.396	1778.83
619.591	1694.86
619.786	1793.17
619.981	1795.22
620.176	1748.11
620.371	1649.81
620.566	1754.26
620.761	1696.91
620.956	1729.68
621.151	1639.57
621.346	1715.34
621.541	1690.77
621.735	1645.71
621.93	1688.72
622.125	1574.03
622.32	1518.74
622.515	1551.51
622.709	1617.04
622.904	1682.58
623.099	1639.57
623.294	1533.08
623.488	1647.76
623.683	1666.19
623.878	1680.53
624.072	1598.61
624.267	1594.51
624.462	1668.24
624.656	1606.8
624.851	1582.23
625.046	1500.31
625.24	1549.46
625.435	1559.7
625.629	1537.17
625.824	1508.5
626.018	1504.4
626.213	1494.16
626.407	1582.23
626.602	1479.83
626.796	1459.35
626.991	1432.72
627.185	1447.06
627.38	1498.26
627.574	1379.48
627.768	1459.35
627.963	1445.01
628.157	1426.58
628.352	1367.19
628.546	1414.29
628.74	1465.49
628.935	1455.25
629.129	1422.48
629.323	1367.19
629.517	1432.72
629.712	1359
629.906	1402.01
630.1	1348.76
630.294	1377.43
630.489	1313.94
630.683	1256.6
630.877	1328.28
631.071	1311.89
631.265	1379.48
631.459	1391.77
631.653	1356.95
631.848	1279.13
632.042	1332.37
632.236	1369.24
632.43	1289.37
632.624	1279.13
632.818	1256.6
633.012	1348.76
633.206	1352.85
633.4	1348.76
633.594	1199.26
633.788	1303.7
633.982	1338.52
634.176	1254.55
634.369	1354.9
634.563	1162.39
634.757	1254.55
634.951	1272.98
635.145	1232.02
635.339	1139.87
635.533	1172.63
635.726	1307.8
635.92	1264.79
636.114	1189.02
636.308	1166.49
636.501	1123.48
636.695	1197.21
636.889	1162.39
637.083	1281.18
637.276	1096.86
637.47	1057.95
637.664	1152.15
637.857	1135.77
638.051	1209.5
638.244	1193.11
638.438	1232.02
638.632	1174.68
638.825	1125.53
639.019	1164.44
639.212	1129.63
639.406	1156.25
639.599	1184.92
639.793	1115.29
639.986	1109.15
640.18	1205.4
640.373	1090.71
640.567	1098.91
640.76	1156.25
640.954	1123.48
641.147	1057.95
641.34	1076.38
641.534	1074.33
641.727	1193.11
641.92	1076.38
642.114	1041.56
642.307	1100.95
642.5	1100.95
642.694	908.44
642.887	1016.99
643.08	961.69
643.273	1027.23
643.467	1002.65
643.66	1062.04
643.853	894.11
644.046	1025.18
644.239	1008.8
644.432	1037.47
644.626	996.51
644.819	1023.13
645.012	971.93
645.205	951.45
645.398	1086.62
645.591	1039.51
645.784	885.92
645.977	963.74
646.17	1002.65
646.363	930.97
646.556	922.78
646.749	963.74
646.942	1057.95
647.135	955.55
647.328	965.79
647.521	947.36
647.714	912.54
647.907	992.41
648.099	910.49
648.292	1025.18
648.485	849.05
648.678	933.02
648.871	976.03
649.064	990.36
649.256	965.79
649.449	930.97
649.642	898.2
649.835	879.77
650.027	844.96
650.22	953.5
650.413	877.73
650.605	951.45
650.798	789.66
650.991	939.16
651.183	861.34
651.376	887.97
651.568	894.11
651.761	908.44
651.954	840.86
652.146	910.49
652.339	838.81
652.531	830.62
652.724	840.86
652.916	879.77
653.109	750.75
653.301	832.67
653.494	892.06
653.686	738.46
653.879	791.71
654.071	902.3
654.263	844.96
654.456	830.62
654.648	840.86
654.84	847.01
655.033	779.42
655.225	871.58
655.417	806.05
655.61	830.62
655.802	824.48
655.994	904.35
656.186	765.09
656.379	763.04
656.571	736.42
656.763	754.85
656.955	715.94
657.148	775.33
657.34	834.72
657.532	808.09
657.724	799.9
657.916	824.48
658.108	840.86
658.3	785.57
658.492	767.13
658.684	822.43
658.876	742.56
659.068	822.43
659.26	717.98
659.452	765.09
659.644	793.76
659.836	779.42
660.028	771.23
660.22	750.75
660.412	697.5
660.604	717.98
660.796	746.66
660.988	746.66
661.18	754.85
661.372	730.27
661.563	652.45
661.755	715.94
661.947	709.79
662.139	808.09
662.331	668.83
662.522	724.13
662.714	664.74
662.906	738.46
663.097	634.02
663.289	734.37
663.481	615.59
663.673	722.08
663.864	672.93
664.056	705.7
664.247	670.88
664.439	623.78
664.631	625.83
664.822	701.6
665.014	730.27
665.205	746.66
665.397	634.02
665.588	666.78
665.78	656.54
665.971	681.12
666.163	664.74
666.354	722.08
666.546	674.98
666.737	640.16
666.929	664.74
667.12	591.01
667.311	599.2
667.503	715.94
667.694	640.16
667.885	664.74
668.077	631.97
668.268	582.82
668.459	660.64
668.651	568.48
668.842	591.01
669.033	636.06
669.224	644.26
669.416	697.5
669.607	617.63
669.798	625.83
669.989	601.25
670.18	658.59
670.371	615.59
670.563	634.02
670.754	654.5
670.945	640.16
671.136	517.28
671.327	615.59
671.518	625.83
671.709	689.31
671.9	582.82
672.091	681.12
672.282	623.78
672.473	541.86
672.664	580.77
672.855	642.21
673.046	562.34
673.237	672.93
673.428	578.72
673.619	648.35
673.809	615.59
674	568.48
674.191	605.35
674.382	677.02
674.573	625.83
674.764	564.39
674.954	636.06
675.145	558.24
675.336	591.01
675.527	533.67
675.717	562.34
675.908	574.63
676.099	545.95
676.289	576.67
676.48	527.52
676.671	615.59
676.861	588.96
677.052	660.64
677.243	599.2
677.433	615.59
677.624	613.54
677.814	554.15
678.005	672.93
678.195	674.98
678.386	560.29
678.576	480.42
678.767	543.91
678.957	593.06
679.148	527.52
679.338	566.43
679.529	484.52
679.719	566.43
679.909	615.59
680.1	611.49
680.29	570.53
680.481	627.87
680.671	570.53
680.861	541.86
681.052	533.67
681.242	566.43
681.432	582.82
681.622	603.3
681.813	502.95
682.003	550.05
682.193	500.9
682.383	478.37
682.573	566.43
682.764	601.25
682.954	548
683.144	543.91
683.334	558.24
683.524	566.43
683.714	496.8
683.904	541.86
684.094	631.97
684.284	572.58
684.474	492.71
684.664	517.28
684.854	556.19
685.044	525.47
685.234	550.05
685.424	500.9
685.614	431.27
685.804	521.38
685.994	523.43
686.184	500.9
686.374	533.67
686.564	593.06
686.753	474.28
686.943	543.91
687.133	591.01
687.323	525.47
687.513	453.8
687.702	525.47
687.892	484.52
688.082	525.47
688.272	539.81
688.461	500.9
688.651	550.05
688.841	500.9
689.03	484.52
689.22	511.14
689.41	496.8
689.599	396.45
689.789	500.9
689.979	500.9
690.168	531.62
690.358	615.59
690.547	591.01
690.737	576.67
690.926	480.42
691.116	476.32
691.305	437.41
691.495	421.03
691.684	492.71
691.874	486.56
692.063	457.89
692.252	521.38
692.442	496.8
692.631	517.28
692.82	537.76
693.01	461.99
693.199	523.43
693.388	445.6
693.578	410.79
693.767	535.71
693.956	498.85
694.146	496.8
694.335	435.36
694.524	492.71
694.713	537.76
694.902	525.47
695.092	533.67
695.281	490.66
695.47	464.04
695.659	476.32
695.848	492.71
696.037	453.8
696.226	478.37
696.415	492.71
696.604	517.28
696.793	494.76
696.982	447.65
697.171	488.61
697.36	451.75
697.549	461.99
697.738	435.36
697.927	453.8
698.116	461.99
698.305	447.65
698.494	502.95
698.683	511.14
698.872	455.84
699.061	412.84
699.25	488.61
699.438	478.37
699.627	517.28
699.816	545.95
700.005	412.84
700.193	435.36
700.382	447.65
700.571	484.52
700.76	408.74
700.948	500.9
701.137	412.84
701.326	478.37
701.514	457.89
701.703	486.56
701.892	408.74
702.08	461.99
702.269	461.99
702.457	445.6
702.646	480.42
702.834	535.71
703.023	324.77
703.212	439.46
703.4	421.03
703.589	484.52
703.777	447.65
703.965	410.79
704.154	418.98
704.342	435.36
704.531	386.21
704.719	492.71
704.907	478.37
705.096	472.23
705.284	437.41
705.472	447.65
705.661	435.36
705.849	451.75
706.037	521.38
706.226	455.84
706.414	472.23
706.602	459.94
706.79	394.4
706.979	414.88
707.167	439.46
707.355	435.36
707.543	445.6
707.731	494.76
707.919	529.57
708.107	502.95
708.296	449.7
708.484	484.52
708.672	447.65
708.86	439.46
709.048	410.79
709.236	468.13
709.424	443.56
709.612	498.85
709.8	404.64
709.988	433.32
710.176	466.08
710.364	550.05
710.551	410.79
710.739	414.88
710.927	476.32
711.115	404.64
711.303	441.51
711.491	498.85
711.679	492.71
711.866	472.23
712.054	396.45
712.242	443.56
712.43	537.76
712.617	490.66
712.805	441.51
712.993	468.13
713.181	408.74
713.368	472.23
713.556	488.61
713.744	478.37
713.931	533.67
714.119	464.04
714.306	410.79
714.494	455.84
714.682	451.75
714.869	445.6
715.057	410.79
715.244	500.9
715.432	447.65
715.619	435.36
715.807	367.78
715.994	435.36
716.182	525.47
716.369	470.18
716.556	437.41
716.744	470.18
716.931	351.4
717.119	509.09
717.306	492.71
717.493	476.32
717.681	455.84
717.868	390.31
718.055	418.98
718.242	504.99
718.43	453.8
718.617	492.71
718.804	421.03
718.991	492.71
719.179	437.41
719.366	539.81
719.553	527.52
719.74	513.19
719.927	437.41
720.114	431.27
720.301	486.56
720.488	412.84
720.676	435.36
720.863	476.32
721.05	441.51
721.237	423.08
721.424	543.91
721.611	511.14
721.798	461.99
721.985	478.37
722.172	384.16
722.358	394.4
722.545	459.94
722.732	494.76
722.919	439.46
723.106	470.18
723.293	402.6
723.48	423.08
723.667	416.93
723.853	445.6
724.04	500.9
724.227	504.99
724.414	418.98
724.6	525.47
724.787	502.95
724.974	476.32
725.161	451.75
725.347	435.36
725.534	494.76
725.72	543.91
725.907	474.28
726.094	492.71
726.28	406.69
726.467	537.76
726.653	459.94
726.84	509.09
727.027	484.52
727.213	500.9
727.4	435.36
727.586	369.83
727.773	500.9
727.959	525.47
728.145	439.46
728.332	591.01
728.518	478.37
728.705	527.52
728.891	459.94
729.077	447.65
729.264	443.56
729.45	459.94
729.636	451.75
729.823	443.56
730.009	496.8
730.195	492.71
730.382	484.52
730.568	445.6
730.754	504.99
730.94	509.09
731.126	414.88
731.313	509.09
731.499	525.47
731.685	445.6
731.871	550.05
732.057	550.05
732.243	486.56
732.429	423.08
732.615	500.9
732.801	455.84
732.987	418.98
733.173	476.32
733.359	425.12
733.545	484.52
733.731	468.13
733.917	435.36
734.103	531.62
734.289	496.8
734.475	455.84
734.661	539.81
734.847	472.23
735.033	464.04
735.219	488.61
735.404	488.61
735.59	431.27
735.776	488.61
735.962	441.51
736.148	486.56
736.333	521.38
736.519	447.65
736.705	445.6
736.89	427.17
737.076	480.42
737.262	404.64
737.447	492.71
737.633	468.13
737.819	459.94
738.004	494.76
738.19	464.04
738.375	480.42
738.561	418.98
738.747	574.63
738.932	445.6
739.118	502.95
739.303	406.69
739.489	486.56
739.674	545.95
739.859	472.23
740.045	443.56
740.23	445.6
740.416	443.56
740.601	511.14
740.786	421.03
740.972	464.04
741.157	396.45
741.342	445.6
741.528	511.14
741.713	537.76
741.898	437.41
742.084	470.18
742.269	427.17
742.454	470.18
742.639	459.94
742.824	394.4
743.01	427.17
743.195	494.76
743.38	384.16
743.565	398.5
743.75	416.93
743.935	461.99
744.12	423.08
744.305	410.79
744.49	466.08
744.675	431.27
744.86	314.53
745.045	451.75
745.23	451.75
745.415	380.07
745.6	470.18
745.785	504.99
745.97	431.27
746.155	494.76
746.34	406.69
746.525	425.12
746.71	453.8
746.895	398.5
747.079	373.92
747.264	517.28
747.449	423.08
747.634	414.88
747.819	357.54
748.003	494.76
748.188	394.4
748.373	451.75
748.557	533.67
748.742	431.27
748.927	500.9
749.111	445.6
749.296	443.56
749.481	425.12
749.665	433.32
749.85	365.73
750.034	435.36
750.219	459.94
750.404	347.3
750.588	468.13
750.773	402.6
750.957	435.36
751.141	345.25
751.326	412.84
751.51	341.16
751.695	394.4
751.879	425.12
752.064	451.75
752.248	371.88
752.432	390.31
752.617	410.79
752.801	439.46
752.985	349.35
753.17	402.6
753.354	429.22
753.538	404.64
753.722	318.63
753.907	353.45
754.091	361.64
754.275	339.11
754.459	328.87
754.643	431.27
754.828	324.77
755.012	394.4
755.196	304.29
755.38	386.21
755.564	289.96
755.748	296.1
755.932	304.29
756.116	357.54
756.3	388.26
756.484	330.92
756.668	330.92
756.852	378.02
757.036	298.15
757.22	330.92
757.404	353.45
757.588	359.59
757.772	320.68
757.956	371.88
758.14	322.73
758.323	304.29
758.507	298.15
758.691	355.49
758.875	363.69
759.059	388.26
759.242	240.81
759.426	390.31
759.61	394.4
759.794	332.97
759.977	365.73
760.161	396.45
760.345	326.82
760.528	353.45
760.712	337.06
760.895	369.83
761.079	347.3
761.263	259.24
761.446	312.49
761.63	300.2
761.813	367.78
761.997	265.38
762.18	320.68
762.364	324.77
762.547	320.68
762.731	306.34
762.914	265.38
763.098	394.4
763.281	312.49
763.464	304.29
763.648	263.33
763.831	322.73
764.015	304.29
764.198	330.92
764.381	330.92
764.564	363.69
764.748	279.72
764.931	246.95
765.114	341.16
765.297	298.15
765.481	300.2
765.664	263.33
765.847	402.6
766.03	357.54
766.213	263.33
766.397	322.73
766.58	324.77
766.763	314.53
766.946	337.06
767.129	236.71
767.312	287.91
767.495	357.54
767.678	324.77
767.861	328.87
768.044	296.1
768.227	341.16
768.41	283.81
768.593	289.96
768.776	343.21
768.959	273.57
769.142	310.44
769.324	343.21
769.507	298.15
769.69	324.77
769.873	230.57
770.056	408.74
770.239	228.52
770.421	328.87
770.604	287.91
770.787	339.11
770.97	205.99
771.152	324.77
771.335	306.34
771.518	320.68
771.7	371.88
771.883	292.01
772.066	242.85
772.248	257.19
772.431	357.54
772.613	337.06
772.796	226.47
772.978	251.05
773.161	316.58
773.343	277.67
773.526	326.82
773.708	246.95
773.891	251.05
774.073	322.73
774.256	298.15
774.438	351.4
774.621	263.33
774.803	296.1
774.985	345.25
775.168	263.33
775.35	279.72
775.532	246.95
775.715	230.57
775.897	402.6
776.079	275.62
776.261	298.15
776.444	304.29
776.626	230.57
776.808	275.62
776.99	330.92
777.173	263.33
777.355	326.82
777.537	226.47
777.719	257.19
777.901	277.67
778.083	257.19
778.265	246.95
778.447	251.05
778.629	230.57
778.811	304.29
778.993	298.15
779.175	246.95
779.357	201.9
779.539	201.9
779.721	249
779.903	246.95
780.085	232.62
780.267	289.96
780.449	224.42
780.631	232.62
780.812	314.53
780.994	222.38
781.176	224.42
781.358	263.33
781.54	205.99
781.721	275.62
781.903	271.53
782.085	181.42
782.267	302.25
782.448	263.33
782.63	203.94
782.812	183.46
782.993	246.95
783.175	214.18
783.357	261.29
783.538	238.76
783.72	199.85
783.901	292.01
784.083	251.05
784.264	240.81
784.446	171.18
784.627	205.99
784.809	205.99
784.99	193.7
785.172	181.42
785.353	205.99
785.535	222.38
785.716	242.85
785.897	191.66
786.079	222.38
786.26	251.05
786.441	175.27
786.623	210.09
786.804	173.22
786.985	173.22
787.167	259.24
787.348	208.04
787.529	183.46
787.71	181.42
787.891	205.99
788.073	173.22
788.254	208.04
788.435	160.94
788.616	134.31
788.797	273.57
788.978	177.32
789.159	128.17
789.34	205.99
789.522	214.18
789.703	181.42
789.884	205.99
790.065	205.99
790.246	257.19
790.427	185.51
790.607	201.9
790.788	195.75
790.969	189.61
791.15	162.98
791.331	185.51
791.512	251.05
791.693	148.65
791.874	212.14
792.054	242.85
792.235	148.65
792.416	181.42
792.597	117.93
792.778	126.12
792.958	140.46
793.139	160.94
793.32	269.48
793.5	122.02
793.681	203.94
793.862	181.42
794.042	189.61
794.223	119.98
794.404	162.98
794.584	189.61
794.765	165.03
794.945	128.17
795.126	189.61
795.306	208.04
795.487	103.59
795.667	201.9
795.848	134.31
796.028	175.27
796.209	195.75
796.389	230.57
796.57	119.98
796.75	167.08
796.93	158.89
797.111	175.27
797.291	210.09
797.471	175.27
797.652	173.22
797.832	128.17
798.012	173.22
798.192	140.46
798.373	107.69
798.553	91.31
798.733	101.55
798.913	89.26
799.093	122.02
799.274	46.25
799.454	216.23
799.634	185.51
799.814	124.07
799.994	191.66
800.174	107.69
800.354	126.12
800.534	115.88
800.714	107.69
800.894	126.12
801.074	132.26
801.254	50.35
801.434	138.41
801.614	181.42
801.794	109.74
801.974	660.64
802.154	68.78
802.334	97.45
802.514	101.55
802.693	132.26
802.873	68.78
803.053	169.13
803.233	132.26
803.413	183.46
803.592	115.88
803.772	99.5
803.952	181.42
804.131	130.22
804.311	148.65
804.491	117.93
804.67	138.41
804.85	128.17
805.03	107.69
805.209	208.04
805.389	185.51
805.568	136.36
805.748	152.74
805.928	132.26
806.107	101.55
806.287	228.52
806.466	124.07
806.646	140.46
806.825	76.97
807.004	144.55
807.184	152.74
807.363	54.44
807.543	148.65
807.722	95.4
807.901	150.7
808.081	197.8
808.26	126.12
808.439	216.23
808.619	138.41
808.798	95.4
808.977	189.61
809.156	160.94
809.336	81.07
809.515	189.61
809.694	101.55
809.873	85.16
810.052	214.18
810.231	62.63
810.411	197.8
810.59	148.65
810.769	99.5
810.948	91.31
811.127	107.69
811.306	124.07
811.485	126.12
811.664	173.22
811.843	85.16
812.022	103.59
812.201	74.92
812.38	42.15
812.559	93.35
812.737	150.7
812.916	136.36
813.095	107.69
813.274	72.87
813.453	103.59
813.632	140.46
813.811	132.26
813.989	107.69
814.168	158.89
814.347	91.31
814.526	130.22
814.704	150.7
814.883	97.45
815.062	126.12
815.24	124.07
815.419	91.31
815.598	177.32
815.776	56.49
815.955	107.69
816.133	101.55
816.312	87.21
816.49	93.35
816.669	64.68
816.847	95.4
817.026	72.87
817.204	13.48
817.383	117.93
817.561	52.39
817.74	165.03
817.918	115.88
818.097	150.7
818.275	40.11
818.453	99.5
818.632	91.31
818.81	93.35
818.988	38.06
819.167	99.5
819.345	74.92
819.523	122.02
819.701	68.78
819.879	107.69
820.058	79.02
820.236	140.46
820.414	107.69
820.592	70.83
820.77	195.75
820.948	93.35
821.127	-13.14
821.305	107.69
821.483	-2.9
821.661	68.78
821.839	150.7
822.017	74.92
822.195	91.31
822.373	107.69
822.551	46.25
822.729	158.89
822.907	99.5
823.085	140.46
823.262	17.58
823.44	115.88
823.618	27.82
823.796	58.54
823.974	50.35
824.152	111.78
824.329	33.96
824.507	107.69
824.685	95.4
824.863	79.02
825.04	68.78
825.218	124.07
825.396	83.11
825.574	128.17
825.751	83.11
825.929	156.84
826.107	15.53
826.284	93.35
826.462	124.07
826.639	117.93
826.817	13.48
826.994	128.17
827.172	85.16
827.349	83.11
827.527	62.63
827.704	46.25
827.882	99.5
828.059	58.54
828.237	-23.38
828.414	103.59
828.591	62.63
828.769	66.73
828.946	58.54
829.124	111.78
829.301	109.74
829.478	60.59
829.655	91.31
829.833	103.59
830.01	58.54
830.187	68.78
830.364	115.88
830.542	58.54
830.719	93.35
830.896	128.17
831.073	-2.9
831.25	74.92
831.427	132.26
831.604	124.07
831.782	83.11
831.959	119.98
832.136	58.54
832.313	115.88
832.49	33.96
832.667	70.83
832.844	87.21
833.021	99.5
833.198	38.06
833.374	44.2
833.551	91.31
833.728	33.96
833.905	134.31
834.082	50.35
834.259	124.07
834.436	140.46
834.612	44.2
834.789	107.69
834.966	126.12
835.143	126.12
835.319	29.87
835.496	93.35
835.673	107.69
835.85	62.63
836.026	58.54
836.203	148.65
836.38	19.63
836.556	74.92
836.733	44.2
836.909	91.31
837.086	25.77
837.262	60.59
837.439	66.73
837.616	17.58
837.792	36.01
837.968	29.87
838.145	85.16
838.321	54.44
838.498	50.35
838.674	167.08
838.851	29.87
839.027	56.49
839.203	15.53
839.38	66.73
839.556	-0.85
839.732	136.36
839.909	11.43
840.085	126.12
840.261	17.58
840.437	83.11
840.614	48.3
840.79	107.69
840.966	54.44
841.142	113.83
841.318	29.87
841.494	107.69
841.671	68.78
841.847	33.96
842.023	3.24
842.199	132.26
842.375	33.96
842.551	70.83
842.727	-17.24
842.903	70.83
843.079	-23.38
843.255	72.87
843.431	-2.9
843.607	99.5
843.783	44.2
843.959	11.43
844.134	-7
844.31	-7
844.486	15.53
844.662	11.43
844.838	74.92
845.013	54.44
845.189	58.54
845.365	85.16
845.541	11.43
845.716	58.54
845.892	50.35
846.068	58.54
846.244	5.29
846.419	95.4
846.595	-9.05
846.77	74.92
846.946	83.11
847.122	38.06
847.297	72.87
847.473	95.4
847.648	36.01
847.824	109.74
847.999	11.43
848.175	68.78
848.35	85.16
848.526	107.69
848.701	91.31
848.876	50.35
849.052	74.92
849.227	25.77
849.403	7.34
849.578	-7
849.753	31.91
849.929	58.54
850.104	25.77
850.279	-23.38
850.454	60.59
850.63	79.02
850.805	52.39
850.98	19.63
851.155	103.59
851.33	46.25
851.505	66.73
851.681	156.84
851.856	-45.91
852.031	33.96
852.206	60.59
852.381	-7
852.556	44.2
852.731	5.29
852.906	-0.85
853.081	87.21
853.256	50.35
853.431	99.5
853.606	-0.85
853.781	-50
853.956	3.24
854.131	1.19
854.305	29.87
854.48	58.54
854.655	44.2
854.83	17.58
855.005	107.69
855.18	87.21
855.354	42.15
855.529	99.5
855.704	36.01
855.879	85.16
856.053	76.97
856.228	1.19
856.403	-4.95
856.577	40.11
856.752	-15.19
856.926	91.31
857.101	60.59
857.276	33.96
857.45	-47.96
857.625	74.92
857.799	42.15
857.974	27.82
858.148	50.35
858.323	-15.19
858.497	-15.19
858.672	42.15
858.846	1.19
859.02	74.92
859.195	50.35
859.369	25.77
859.543	74.92
859.718	44.2
859.892	-13.14
860.066	83.11
860.241	-23.38
860.415	60.59
860.589	83.11
860.763	-4.95
860.938	115.88
861.112	93.35
861.286	25.77
861.46	36.01
861.634	79.02
861.808	85.16
861.982	13.48
862.157	-2.9
862.331	42.15
862.505	25.77
862.679	-2.9
862.853	50.35
863.027	27.82
863.201	19.63
863.375	58.54
863.549	99.5
863.722	117.93
863.896	11.43
864.07	-2.9
864.244	62.63
864.418	74.92
864.592	29.87
864.766	25.77
864.939	21.67
865.113	46.25
865.287	44.2
865.461	-58.2
865.634	85.16
865.808	-2.9
865.982	54.44
866.156	-15.19
866.329	91.31
866.503	-31.57
866.676	101.55
866.85	42.15
867.024	9.39
867.197	31.91
867.371	-21.33
867.544	-4.95
867.718	13.48
867.891	33.96
868.065	33.96
868.238	3.24
868.412	99.5
868.585	27.82
868.759	54.44
868.932	95.4
869.105	-47.96
869.279	-23.38
869.452	5.29
869.625	46.25
869.799	46.25
869.972	-13.14
870.145	38.06
870.319	54.44
870.492	68.78
870.665	9.39
870.838	76.97
871.011	-50
871.185	93.35
871.358	-4.95
871.531	85.16
871.704	52.39
871.877	38.06
872.05	27.82
872.223	-60.24
872.396	70.83
872.569	91.31
872.742	-2.9
872.915	13.48
873.088	3.24
873.261	85.16
873.434	36.01
873.607	-15.19
873.78	83.11
873.953	-21.33
874.126	109.74
874.299	33.96
874.471	42.15
874.644	1.19
874.817	95.4
874.99	87.21
875.163	9.39
875.335	50.35
875.508	58.54
875.681	62.63
875.853	-0.85
876.026	70.83
876.199	68.78
876.371	46.25
876.544	-62.29
876.717	-47.96
876.889	66.73
877.062	-2.9
877.234	27.82
877.407	17.58
877.579	74.92
877.752	25.77
877.924	-15.19
878.097	33.96
878.269	36.01
878.442	33.96
878.614	-13.14
878.786	52.39
878.959	-52.05
879.131	-9.05
879.303	-43.86
879.476	29.87
879.648	162.98
879.82	38.06
879.993	36.01
880.165	58.54
880.337	11.43
880.509	42.15
880.681	21.67
880.854	62.63
881.026	-31.57
881.198	111.78
881.37	1.19
881.542	25.77
881.714	33.96
881.886	5.29
882.058	-56.15
882.23	21.67
882.402	-19.29
882.574	58.54
882.746	27.82
882.918	42.15
883.09	-15.19
883.262	115.88
883.434	-11.09
883.606	21.67
883.778	-13.14
883.95	42.15
884.122	58.54
884.293	44.2
884.465	54.44
884.637	50.35
884.809	-13.14
884.98	19.63
885.152	93.35
885.324	83.11
885.496	-60.24
885.667	56.49
885.839	1.19
886.011	54.44
886.182	40.11
886.354	9.39
886.525	91.31
886.697	46.25
886.869	15.53
887.04	40.11
887.212	124.07
887.383	117.93
887.555	1.19
887.726	-7
887.897	9.39
888.069	58.54
888.24	58.54
888.412	-2.9
888.583	38.06
888.754	-54.1
888.926	-45.91
889.097	50.35
889.268	-13.14
889.44	9.39
889.611	-68.44
889.782	17.58
889.953	-23.38
890.125	74.92
890.296	25.77
890.467	-23.38
890.638	25.77
890.809	85.16
890.98	1.19
891.151	54.44
891.323	-29.52
891.494	44.2
891.665	50.35
891.836	25.77
892.007	99.5
892.178	-15.19
892.349	-19.29
892.52	-7
892.691	93.35
892.862	19.63
893.032	-29.52
893.203	31.91
893.374	29.87
893.545	27.82
893.716	42.15
893.887	44.2
894.057	17.58
894.228	-7
894.399	54.44
894.57	38.06
894.74	27.82
894.911	25.77
895.082	83.11
895.253	-27.48
895.423	50.35
895.594	36.01
895.764	66.73
895.935	79.02
896.106	40.11
896.276	50.35
896.447	17.58
896.617	5.29
896.788	-68.44
896.958	1.19
897.129	1.19
897.299	-2.9
897.47	66.73
897.64	103.59
897.81	-21.33
897.981	3.24
898.151	36.01
898.322	-21.33
898.492	-62.29
898.662	-2.9
898.832	70.83
899.003	9.39
899.173	7.34
899.343	-52.05
899.513	-54.1
