Data from USB4F104151__99__14-43-40-233.txt Node

Date: Thu Mar 13 14:43:40 EDT 2025
User: louis
Spectrometer: USB4F10415
Trigger mode: 4
Integration Time (sec): 2.000000E-2
Scans to average: 1
Electric dark correction enabled: true
Nonlinearity correction enabled: false
Boxcar width: 0
XAxis mode: Wavelengths
Number of Pixels in Spectrum: 3648
>>>>>Begin Spectral Data<<<<<
178.204	-136.87
178.424	-136.87
178.644	-136.87
178.864	-161.45
179.084	-95.91
179.304	-18.09
179.524	-13.99
179.744	-28.33
179.964	-5.8
180.184	59.73
180.404	-5.8
180.624	12.63
180.844	35.16
181.064	-42.67
181.283	29.01
181.503	-32.43
181.723	10.58
181.943	-30.38
182.163	59.73
182.383	-26.28
182.602	37.2
182.822	74.07
183.042	112.98
183.262	-26.28
183.482	-30.38
183.701	2.39
183.921	-5.8
184.141	49.49
184.361	35.16
184.58	-5.8
184.8	72.02
185.02	-32.43
185.239	43.35
185.459	47.44
185.679	35.16
185.898	-75.43
186.118	59.73
186.338	-22.19
186.557	20.82
186.777	55.64
186.997	4.44
187.216	29.01
187.436	72.02
187.655	31.06
187.875	20.82
188.095	49.49
188.314	14.68
188.534	98.64
188.753	59.73
188.973	-3.75
189.192	10.58
189.412	22.87
189.631	112.98
189.851	-30.38
190.07	31.06
190.29	-36.52
190.509	-77.48
190.729	33.11
190.948	104.79
191.168	166.23
191.387	-7.85
191.607	35.16
191.826	47.44
192.045	2.39
192.265	0.34
192.484	-11.95
192.704	67.92
192.923	-28.33
193.142	51.54
193.362	51.54
193.581	92.5
193.8	14.68
194.02	69.97
194.239	-71.34
194.458	59.73
194.678	-5.8
194.897	35.16
195.116	10.58
195.335	-16.04
195.555	0.34
195.774	33.11
195.993	59.73
196.212	63.83
196.432	-13.99
196.651	2.39
196.87	55.64
197.089	84.31
197.308	43.35
197.528	37.2
197.747	26.96
197.966	31.06
198.185	86.36
198.404	31.06
198.623	88.4
198.842	51.54
199.062	67.92
199.281	76.12
199.5	106.84
199.719	4.44
199.938	129.36
200.157	37.2
200.376	16.73
200.595	100.69
200.814	4.44
201.033	2.39
201.252	18.77
201.471	47.44
201.69	12.63
201.909	92.5
202.128	-3.75
202.347	80.21
202.566	18.77
202.785	-22.19
203.004	-20.14
203.223	61.78
203.442	49.49
203.661	-34.47
203.879	51.54
204.098	47.44
204.317	26.96
204.536	63.83
204.755	26.96
204.974	10.58
205.193	-26.28
205.411	59.73
205.63	69.97
205.849	47.44
206.068	-28.33
206.287	-5.8
206.505	51.54
206.724	57.68
206.943	20.82
207.162	18.77
207.381	31.06
207.599	4.44
207.818	41.3
208.037	18.77
208.255	67.92
208.474	67.92
208.693	45.4
208.911	43.35
209.13	10.58
209.349	26.96
209.567	26.96
209.786	106.84
210.005	29.01
210.223	22.87
210.442	24.92
210.661	-22.19
210.879	72.02
211.098	-7.85
211.316	18.77
211.535	69.97
211.753	10.58
211.972	-26.28
212.191	-18.09
212.409	43.35
212.628	12.63
212.846	-18.09
213.065	51.54
213.283	82.26
213.502	45.4
213.72	69.97
213.938	92.5
214.157	-42.67
214.375	18.77
214.594	-67.24
214.812	45.4
215.031	-9.9
215.249	-42.67
215.467	22.87
215.686	18.77
215.904	88.4
216.122	-16.04
216.341	57.68
216.559	26.96
216.778	84.31
216.996	18.77
217.214	45.4
217.432	55.64
217.651	31.06
217.869	10.58
218.087	6.49
218.306	31.06
218.524	67.92
218.742	-77.48
218.96	4.44
219.179	-22.19
219.397	6.49
219.615	20.82
219.833	76.12
220.051	-3.75
220.27	37.2
220.488	41.3
220.706	67.92
220.924	-26.28
221.142	29.01
221.36	35.16
221.578	47.44
221.796	-38.57
222.015	0.34
222.233	22.87
222.451	94.55
222.669	-50.86
222.887	59.73
223.105	20.82
223.323	-13.99
223.541	33.11
223.759	51.54
223.977	-46.76
224.195	86.36
224.413	-18.09
224.631	-13.99
224.849	-20.14
225.067	96.6
225.285	37.2
225.503	-5.8
225.721	-28.33
225.939	35.16
226.157	121.17
226.375	96.6
226.592	-54.95
226.81	47.44
227.028	43.35
227.246	67.92
227.464	-38.57
227.682	33.11
227.9	63.83
228.117	80.21
228.335	6.49
228.553	12.63
228.771	20.82
228.989	45.4
229.206	-16.04
229.424	2.39
229.642	63.83
229.86	20.82
230.077	63.83
230.295	-28.33
230.513	-18.09
230.731	108.88
230.948	65.88
231.166	53.59
231.384	80.21
231.601	6.49
231.819	12.63
232.037	35.16
232.254	-1.71
232.472	86.36
232.689	24.92
232.907	-1.71
233.125	26.96
233.342	-50.86
233.56	57.68
233.777	-22.19
233.995	49.49
234.213	61.78
234.43	67.92
234.648	20.82
234.865	-30.38
235.083	102.74
235.3	39.25
235.518	-3.75
235.735	94.55
235.953	98.64
236.17	18.77
236.388	-24.23
236.605	45.4
236.822	94.55
237.04	29.01
237.257	63.83
237.475	-22.19
237.692	86.36
237.909	29.01
238.127	-20.14
238.344	63.83
238.562	47.44
238.779	86.36
238.996	69.97
239.214	-13.99
239.431	53.59
239.648	-22.19
239.865	0.34
240.083	47.44
240.3	45.4
240.517	57.68
240.735	26.96
240.952	31.06
241.169	-30.38
241.386	35.16
241.603	10.58
241.821	35.16
242.038	39.25
242.255	14.68
242.472	-9.9
242.689	-5.8
242.907	-5.8
243.124	-20.14
243.341	88.4
243.558	2.39
243.775	35.16
243.992	-3.75
244.209	65.88
244.426	47.44
244.643	47.44
244.86	-20.14
245.078	-38.57
245.295	-3.75
245.512	41.3
245.729	-24.23
245.946	8.53
246.163	-13.99
246.38	-1.71
246.597	51.54
246.814	-11.95
247.031	-63.15
247.248	-5.8
247.464	96.6
247.681	-38.57
247.898	31.06
248.115	22.87
248.332	39.25
248.549	110.93
248.766	129.36
248.983	65.88
249.2	63.83
249.417	84.31
249.633	51.54
249.85	-13.99
250.067	22.87
250.284	29.01
250.501	76.12
250.717	110.93
250.934	-5.8
251.151	35.16
251.368	26.96
251.585	45.4
251.801	10.58
252.018	26.96
252.235	51.54
252.451	53.59
252.668	-22.19
252.885	55.64
253.102	18.77
253.318	-22.19
253.535	43.35
253.752	2.39
253.968	14.68
254.185	-79.53
254.401	35.16
254.618	14.68
254.835	-3.75
255.051	100.69
255.268	-48.81
255.484	92.5
255.701	31.06
255.917	61.78
256.134	-65.19
256.351	6.49
256.567	26.96
256.784	-50.86
257	-69.29
257.217	18.77
257.433	35.16
257.65	43.35
257.866	115.03
258.082	2.39
258.299	37.2
258.515	74.07
258.732	65.88
258.948	0.34
259.165	94.55
259.381	80.21
259.597	84.31
259.814	6.49
260.03	39.25
260.246	47.44
260.463	41.3
260.679	74.07
260.895	-5.8
261.112	37.2
261.328	10.58
261.544	37.2
261.761	51.54
261.977	84.31
262.193	-22.19
262.409	45.4
262.626	-9.9
262.842	4.44
263.058	51.54
263.274	10.58
263.49	92.5
263.707	51.54
263.923	102.74
264.139	22.87
264.355	2.39
264.571	84.31
264.787	53.59
265.004	59.73
265.22	10.58
265.436	47.44
265.652	-7.85
265.868	22.87
266.084	24.92
266.3	39.25
266.516	0.34
266.732	12.63
266.948	108.88
267.164	29.01
267.38	72.02
267.596	63.83
267.812	22.87
268.028	108.88
268.244	80.21
268.46	37.2
268.676	-81.58
268.892	96.6
269.108	-38.57
269.324	-63.15
269.54	4.44
269.756	84.31
269.972	-30.38
270.188	51.54
270.403	-34.47
270.619	-13.99
270.835	2.39
271.051	6.49
271.267	53.59
271.483	6.49
271.698	86.36
271.914	-20.14
272.13	39.25
272.346	92.5
272.562	-5.8
272.777	59.73
272.993	59.73
273.209	-32.43
273.425	4.44
273.64	20.82
273.856	43.35
274.072	59.73
274.287	8.53
274.503	-1.71
274.719	33.11
274.934	-5.8
275.15	-3.75
275.366	69.97
275.581	-5.8
275.797	2.39
276.012	49.49
276.228	-5.8
276.444	-20.14
276.659	-1.71
276.875	2.39
277.09	-28.33
277.306	67.92
277.521	18.77
277.737	69.97
277.952	55.64
278.168	102.74
278.383	59.73
278.599	55.64
278.814	18.77
279.03	4.44
279.245	67.92
279.461	57.68
279.676	-5.8
279.892	-5.8
280.107	29.01
280.322	-5.8
280.538	35.16
280.753	6.49
280.969	112.98
281.184	-13.99
281.399	-1.71
281.615	-28.33
281.83	-3.75
282.045	-36.52
282.26	33.11
282.476	-44.71
282.691	84.31
282.906	-13.99
283.122	4.44
283.337	4.44
283.552	43.35
283.767	37.2
283.983	43.35
284.198	-9.9
284.413	12.63
284.628	-52.91
284.843	59.73
285.058	74.07
285.274	10.58
285.489	-11.95
285.704	26.96
285.919	-46.76
286.134	47.44
286.349	-36.52
286.564	37.2
286.779	76.12
286.995	69.97
287.21	-52.91
287.425	119.12
287.64	63.83
287.855	-22.19
288.07	12.63
288.285	72.02
288.5	51.54
288.715	65.88
288.93	57.68
289.145	37.2
289.36	53.59
289.575	72.02
289.79	86.36
290.004	51.54
290.219	0.34
290.434	39.25
290.649	10.58
290.864	35.16
291.079	67.92
291.294	86.36
291.509	119.12
291.724	45.4
291.938	59.73
292.153	47.44
292.368	2.39
292.583	20.82
292.798	129.36
293.012	0.34
293.227	106.84
293.442	43.35
293.657	162.13
293.871	80.21
294.086	35.16
294.301	-9.9
294.516	41.3
294.73	37.2
294.945	-81.58
295.16	43.35
295.374	20.82
295.589	67.92
295.804	-5.8
296.018	51.54
296.233	76.12
296.447	18.77
296.662	10.58
296.877	76.12
297.091	35.16
297.306	-28.33
297.52	102.74
297.735	82.26
297.949	-20.14
298.164	14.68
298.378	14.68
298.593	55.64
298.807	-26.28
299.022	84.31
299.236	88.4
299.451	43.35
299.665	51.54
299.88	26.96
300.094	12.63
300.309	59.73
300.523	-28.33
300.737	-38.57
300.952	94.55
301.166	37.2
301.381	-38.57
301.595	10.58
301.809	53.59
302.024	10.58
302.238	24.92
302.452	55.64
302.667	-54.95
302.881	61.78
303.095	104.79
303.309	78.16
303.524	59.73
303.738	12.63
303.952	20.82
304.166	84.31
304.381	-5.8
304.595	127.32
304.809	37.2
305.023	16.73
305.237	92.5
305.452	18.77
305.666	39.25
305.88	67.92
306.094	76.12
306.308	61.78
306.522	43.35
306.736	14.68
306.95	76.12
307.164	43.35
307.379	29.01
307.593	59.73
307.807	49.49
308.021	100.69
308.235	37.2
308.449	10.58
308.663	-13.99
308.877	119.12
309.091	100.69
309.305	45.4
309.519	-18.09
309.733	51.54
309.947	-11.95
310.161	-24.23
310.374	43.35
310.588	84.31
310.802	10.58
311.016	43.35
311.23	47.44
311.444	67.92
311.658	18.77
311.872	63.83
312.085	51.54
312.299	-28.33
312.513	43.35
312.727	45.4
312.941	-30.38
313.154	31.06
313.368	86.36
313.582	29.01
313.796	6.49
314.009	-50.86
314.223	55.64
314.437	55.64
314.651	24.92
314.864	-11.95
315.078	-28.33
315.292	10.58
315.505	-20.14
315.719	47.44
315.933	78.16
316.146	-38.57
316.36	29.01
316.573	26.96
316.787	55.64
317.001	80.21
317.214	49.49
317.428	24.92
317.641	78.16
317.855	-30.38
318.068	53.59
318.282	45.4
318.495	121.17
318.709	53.59
318.922	14.68
319.136	67.92
319.349	57.68
319.563	4.44
319.776	29.01
319.99	0.34
320.203	76.12
320.417	26.96
320.63	72.02
320.843	43.35
321.057	59.73
321.27	59.73
321.483	86.36
321.697	-11.95
321.91	84.31
322.124	10.58
322.337	-24.23
322.55	20.82
322.763	29.01
322.977	-9.9
323.19	69.97
323.403	35.16
323.617	108.88
323.83	86.36
324.043	35.16
324.256	35.16
324.469	-38.57
324.683	39.25
324.896	-9.9
325.109	96.6
325.322	12.63
325.535	84.31
325.748	20.82
325.962	69.97
326.175	67.92
326.388	-36.52
326.601	133.46
326.814	-11.95
327.027	18.77
327.24	76.12
327.453	-26.28
327.666	176.47
327.879	90.45
328.092	74.07
328.305	14.68
328.518	53.59
328.731	65.88
328.944	100.69
329.157	-67.24
329.37	47.44
329.583	55.64
329.796	112.98
330.009	82.26
330.222	76.12
330.435	133.46
330.648	86.36
330.861	12.63
331.073	51.54
331.286	-11.95
331.499	26.96
331.712	78.16
331.925	45.4
332.138	86.36
332.35	76.12
332.563	-1.71
332.776	53.59
332.989	2.39
333.202	33.11
333.414	43.35
333.627	39.25
333.84	49.49
334.053	18.77
334.265	29.01
334.478	63.83
334.691	94.55
334.903	100.69
335.116	-28.33
335.329	-11.95
335.541	84.31
335.754	43.35
335.966	16.73
336.179	108.88
336.392	43.35
336.604	-5.8
336.817	82.26
337.029	100.69
337.242	10.58
337.454	59.73
337.667	31.06
337.88	31.06
338.092	133.46
338.305	67.92
338.517	37.2
338.729	26.96
338.942	-5.8
339.154	108.88
339.367	20.82
339.579	168.27
339.792	43.35
340.004	51.54
340.217	55.64
340.429	10.58
340.641	4.44
340.854	43.35
341.066	20.82
341.278	92.5
341.491	26.96
341.703	94.55
341.915	26.96
342.128	86.36
342.34	53.59
342.552	-34.47
342.764	-54.95
342.977	43.35
343.189	49.49
343.401	51.54
343.613	-54.95
343.826	16.73
344.038	-46.76
344.25	67.92
344.462	6.49
344.674	41.3
344.886	72.02
345.099	63.83
345.311	31.06
345.523	-13.99
345.735	55.64
345.947	84.31
346.159	26.96
346.371	31.06
346.583	20.82
346.795	117.08
347.007	43.35
347.219	53.59
347.431	-7.85
347.643	92.5
347.855	-22.19
348.067	108.88
348.279	-5.8
348.491	47.44
348.703	-54.95
348.915	-22.19
349.127	-9.9
349.339	51.54
349.551	119.12
349.763	108.88
349.975	-38.57
350.187	8.53
350.399	29.01
350.61	76.12
350.822	10.58
351.034	-16.04
351.246	4.44
351.458	18.77
351.669	104.79
351.881	-20.14
352.093	55.64
352.305	96.6
352.517	-7.85
352.728	67.92
352.94	76.12
353.152	18.77
353.363	61.78
353.575	84.31
353.787	43.35
353.999	53.59
354.21	125.27
354.422	-87.72
354.633	-42.67
354.845	59.73
355.057	-38.57
355.268	82.26
355.48	125.27
355.692	-5.8
355.903	26.96
356.115	39.25
356.326	-46.76
356.538	61.78
356.749	45.4
356.961	141.65
357.172	67.92
357.384	12.63
357.595	88.4
357.807	29.01
358.018	10.58
358.23	100.69
358.441	67.92
358.653	35.16
358.864	67.92
359.075	-1.71
359.287	20.82
359.498	43.35
359.709	22.87
359.921	10.58
360.132	29.01
360.344	53.59
360.555	-30.38
360.766	59.73
360.977	-5.8
361.189	22.87
361.4	-26.28
361.611	67.92
361.823	108.88
362.034	35.16
362.245	-22.19
362.456	8.53
362.667	67.92
362.879	61.78
363.09	76.12
363.301	-3.75
363.512	67.92
363.723	20.82
363.935	57.68
364.146	-11.95
364.357	35.16
364.568	59.73
364.779	-5.8
364.99	125.27
365.201	86.36
365.412	78.16
365.623	37.2
365.834	20.82
366.045	-38.57
366.256	37.2
366.467	86.36
366.678	86.36
366.889	51.54
367.1	-5.8
367.311	96.6
367.522	24.92
367.733	84.31
367.944	63.83
368.155	31.06
368.366	94.55
368.577	31.06
368.788	72.02
368.999	4.44
369.209	4.44
369.42	112.98
369.631	100.69
369.842	31.06
370.053	18.77
370.264	24.92
370.474	0.34
370.685	35.16
370.896	80.21
371.107	80.21
371.317	-5.8
371.528	10.58
371.739	84.31
371.95	33.11
372.16	14.68
372.371	18.77
372.582	18.77
372.792	31.06
373.003	65.88
373.214	26.96
373.424	10.58
373.635	-5.8
373.846	4.44
374.056	47.44
374.267	72.02
374.477	-18.09
374.688	14.68
374.898	76.12
375.109	43.35
375.319	43.35
375.53	59.73
375.74	67.92
375.951	35.16
376.161	-44.71
376.372	43.35
376.582	-18.09
376.793	47.44
377.003	10.58
377.214	-36.52
377.424	51.54
377.635	53.59
377.845	29.01
378.055	129.36
378.266	24.92
378.476	4.44
378.686	96.6
378.897	80.21
379.107	63.83
379.317	-13.99
379.528	51.54
379.738	8.53
379.948	51.54
380.158	18.77
380.369	117.08
380.579	84.31
380.789	55.64
380.999	59.73
381.21	112.98
381.42	78.16
381.63	-20.14
381.84	4.44
382.05	47.44
382.261	141.65
382.471	37.2
382.681	92.5
382.891	84.31
383.101	63.83
383.311	45.4
383.521	4.44
383.731	76.12
383.941	20.82
384.151	-71.34
384.361	53.59
384.571	10.58
384.781	22.87
384.991	45.4
385.201	84.31
385.411	51.54
385.621	78.16
385.831	14.68
386.041	84.31
386.251	37.2
386.461	55.64
386.671	10.58
386.881	94.55
387.091	35.16
387.301	65.88
387.511	51.54
387.72	164.18
387.93	51.54
388.14	0.34
388.35	47.44
388.56	59.73
388.769	82.26
388.979	51.54
389.189	22.87
389.399	47.44
389.609	-5.8
389.818	92.5
390.028	47.44
390.238	20.82
390.447	20.82
390.657	63.83
390.867	31.06
391.076	-54.95
391.286	53.59
391.496	18.77
391.705	-7.85
391.915	158.03
392.125	51.54
392.334	80.21
392.544	74.07
392.753	20.82
392.963	53.59
393.172	43.35
393.382	2.39
393.591	92.5
393.801	59.73
394.01	31.06
394.22	78.16
394.429	78.16
394.639	49.49
394.848	10.58
395.058	80.21
395.267	43.35
395.477	53.59
395.686	94.55
395.895	135.51
396.105	69.97
396.314	6.49
396.524	108.88
396.733	80.21
396.942	145.75
397.152	166.23
397.361	198.99
397.57	0.34
397.78	67.92
397.989	119.12
398.198	119.12
398.407	143.7
398.617	98.64
398.826	100.69
399.035	59.73
399.244	129.36
399.453	119.12
399.663	119.12
399.872	69.97
400.081	84.31
400.29	133.46
400.499	143.7
400.708	74.07
400.917	82.26
401.127	59.73
401.336	119.12
401.545	168.27
401.754	59.73
401.963	182.61
402.172	55.64
402.381	141.65
402.59	117.08
402.799	45.4
403.008	127.32
403.217	117.08
403.426	117.08
403.635	100.69
403.844	106.84
404.053	104.79
404.262	31.06
404.471	166.23
404.68	162.13
404.888	166.23
405.097	82.26
405.306	92.5
405.515	190.8
405.724	133.46
405.933	158.03
406.142	184.66
406.35	100.69
406.559	198.99
406.768	219.47
406.977	190.8
407.185	198.99
407.394	182.61
407.603	72.02
407.812	178.51
408.02	244.05
408.229	133.46
408.438	186.71
408.646	145.75
408.855	207.19
409.064	235.86
409.272	221.52
409.481	166.23
409.69	178.51
409.898	190.8
410.107	260.43
410.315	340.3
410.524	252.24
410.733	338.26
410.941	248.15
411.15	334.16
411.358	293.2
411.567	371.02
411.775	379.22
411.984	297.3
412.192	321.87
412.401	362.83
412.609	420.17
412.818	407.89
413.026	493.9
413.234	391.5
413.443	405.84
413.651	465.23
413.86	502.09
414.068	444.75
414.276	457.04
414.485	471.37
414.693	577.87
414.901	627.02
415.11	567.63
415.318	649.55
415.526	581.96
415.734	559.44
415.943	620.88
416.151	727.37
416.359	672.08
416.567	706.89
416.776	649.55
416.984	758.09
417.192	774.47
417.4	790.86
417.608	858.44
417.817	833.86
418.025	864.58
418.233	950.6
418.441	911.69
418.649	1034.57
418.857	1063.24
419.065	1120.58
419.273	1081.67
419.481	1063.24
419.689	1177.92
419.897	1165.64
420.105	1265.99
420.313	1313.09
420.521	1386.82
420.729	1378.62
420.937	1347.9
421.145	1491.26
421.353	1476.93
421.561	1542.46
421.769	1595.71
421.977	1716.54
422.185	1620.28
422.393	1794.36
422.601	1816.89
422.809	1788.22
423.017	1898.81
423.224	2013.49
423.432	2068.79
423.64	2144.56
423.848	2281.78
424.056	2189.62
424.263	2283.83
424.471	2281.78
424.679	2279.73
424.887	2470.19
425.094	2570.54
425.302	2548.01
425.51	2648.36
425.718	2715.95
425.925	2775.34
426.133	2830.63
426.341	3029.29
426.548	3098.92
426.756	3096.87
426.964	3299.62
427.171	3238.18
427.379	3434.78
427.586	3463.46
427.794	3627.29
428.001	3799.32
428.209	3934.49
428.417	3928.35
428.624	4192.53
428.832	4200.73
429.039	4122.9
429.247	4159.77
429.454	4573.46
429.662	4667.66
429.869	4585.74
430.076	4983.05
430.284	4673.81
430.491	4899.08
430.699	5255.43
430.906	5204.23
431.114	5230.85
431.321	5595.39
431.528	5595.39
431.736	5912.83
431.943	6131.96
432.15	5998.84
432.358	6138.1
432.565	6482.16
432.772	6334.71
432.979	6729.97
433.187	6818.03
433.394	6942.96
433.601	7461.09
433.808	7409.89
434.016	7301.35
434.223	7600.35
434.43	8073.43
434.637	7809.25
434.844	8450.26
435.052	8720.59
435.259	8321.24
435.466	8681.68
435.673	8437.97
435.88	9119.95
436.087	9414.85
436.294	9484.48
436.501	9251.02
436.708	9418.95
436.915	9818.3
437.122	10100.92
437.329	10119.35
437.537	10657.97
437.743	10672.31
437.95	10483.89
438.157	10862.77
438.364	11634.85
438.571	11333.8
438.778	11847.84
438.985	12683.41
439.192	12261.53
439.399	12662.93
439.606	12245.15
439.813	12691.6
440.02	13510.79
440.227	13451.4
440.433	13291.66
440.64	13748.36
440.847	13533.32
441.054	13930.62
441.261	15087.73
441.467	14594.17
441.674	15089.78
441.881	15544.42
442.088	15239.28
442.294	15315.05
442.501	15800.42
442.708	16320.6
442.914	16896.08
443.121	17238.09
443.328	16955.47
443.534	17952.84
443.741	17625.16
443.948	17393.74
444.154	18640.95
444.361	18559.03
444.568	18556.99
444.774	18487.36
444.981	18694.2
445.187	19236.91
445.394	20359.2
445.6	20039.72
445.807	21964.81
446.013	20883.48
446.22	21311.5
446.426	22177.79
446.633	22484.99
446.839	22956.02
447.046	22046.72
447.252	23537.65
447.459	23609.33
447.665	23807.98
447.871	24211.43
448.078	25429.97
448.284	24154.08
448.491	24698.84
448.697	26124.23
448.903	26597.31
449.11	26621.89
449.316	26187.72
449.522	26437.57
449.728	27269.05
449.935	27670.45
450.141	27133.88
450.347	28288.93
450.553	27295.67
450.76	27766.7
450.966	28825.5
451.172	28356.52
451.378	28727.2
451.584	28399.52
451.791	29312.92
451.997	29165.46
452.203	29314.97
452.409	29390.74
452.615	29675.41
452.821	28112.81
453.027	28137.38
453.233	29699.98
453.44	28405.67
453.646	28671.9
453.852	29079.45
454.058	29472.66
454.264	28551.07
454.47	29179.8
454.676	28549.03
454.882	29478.8
455.088	27035.58
455.294	27578.29
455.5	27805.61
455.705	28143.53
455.911	26808.25
456.117	26941.37
456.323	26036.17
456.529	25001.94
456.735	25903.05
456.941	25409.49
457.147	24909.79
457.352	24412.13
457.558	24059.88
457.764	23988.2
457.97	23590.89
458.176	22968.31
458.381	23130.1
458.587	22149.12
458.793	21989.38
458.999	20949.01
459.204	22480.89
459.41	21870.6
459.616	20615.19
459.821	20193.31
460.027	20156.45
460.233	19916.84
460.438	19009.59
460.644	19255.34
460.85	18141.25
461.055	17782.85
461.261	17692.74
461.466	16691.29
461.672	16181.34
461.878	17379.4
462.083	16265.31
462.289	15771.75
462.494	15612.01
462.7	15083.63
462.905	14592.12
463.111	15034.48
463.316	15224.94
463.522	14911.6
463.727	14846.07
463.932	14913.65
464.138	14805.11
464.343	14553.21
464.549	14239.87
464.754	14786.68
464.959	14485.62
465.165	14375.03
465.37	13936.77
465.575	13363.34
465.781	13799.55
465.986	13877.38
466.191	13559.94
466.397	13238.41
466.602	12548.25
466.807	13148.3
467.012	12939.41
467.218	12980.37
467.423	12855.44
467.628	12978.32
467.833	13314.19
468.038	12855.44
468.244	12605.59
468.449	13197.45
468.654	12851.35
468.859	12511.38
469.064	12478.61
469.269	11907.23
469.474	12064.93
469.679	12634.26
469.885	11888.8
470.09	12259.48
470.295	12273.82
470.5	11946.14
470.705	11962.53
470.91	11888.8
471.115	11511.97
471.32	11757.73
471.525	11847.84
471.73	11434.15
471.935	11339.94
472.139	10967.21
472.344	11075.76
472.549	10956.97
472.754	10944.69
472.959	10750.13
473.164	10500.28
473.369	10287.29
473.574	10866.86
473.778	10619.06
473.983	10676.4
474.188	10614.96
474.393	10074.3
474.598	10084.54
474.802	10006.72
475.007	9818.3
475.212	9892.03
475.417	9615.55
475.621	9603.27
475.826	9386.18
476.031	9341.13
476.235	9171.15
476.44	9390.28
476.645	9285.83
476.849	9189.58
477.054	9148.62
477.259	8968.4
477.463	9023.69
477.668	8786.13
477.872	8833.23
478.077	8566.99
478.282	8546.51
478.486	8374.49
478.691	8368.34
478.895	8376.53
479.1	8147.16
479.304	8415.44
479.509	8091.87
479.713	8296.66
479.918	8079.58
480.122	8038.62
480.326	8007.9
480.531	8030.43
480.735	7727.33
480.94	7778.53
481.144	7981.28
481.348	7780.57
481.553	7858.4
481.757	7649.5
481.961	7948.51
482.166	7809.25
482.37	7794.91
482.574	7571.68
482.778	7649.5
482.983	7737.57
483.187	7733.47
483.391	7600.35
483.595	7727.33
483.8	7418.08
484.004	7653.6
484.208	7878.88
484.412	7633.12
484.616	7489.76
484.821	7760.09
485.025	7516.39
485.229	7805.15
485.433	7452.9
485.637	7792.86
485.841	7420.13
486.045	7588.07
486.249	7686.37
486.453	7672.03
486.657	7661.79
486.861	7596.26
487.065	7346.41
487.269	7504.1
487.473	7469.28
487.677	7672.03
487.881	7641.31
488.085	7596.26
488.289	7727.33
488.493	7583.97
488.697	7784.67
488.901	7639.26
489.105	7637.22
489.309	7805.15
489.512	7809.25
489.716	7624.93
489.92	7510.24
490.124	7674.08
490.328	7878.88
490.531	7745.76
490.735	7882.97
490.939	7696.61
491.143	7731.42
491.346	7844.06
491.55	7821.53
491.754	7942.36
491.958	8110.3
492.161	8069.34
492.365	7936.22
492.569	8042.71
492.772	8012
492.976	8253.66
493.18	8239.32
493.383	8179.93
493.587	8399.06
493.79	8397.01
493.994	8468.69
494.197	8425.68
494.401	8603.86
494.605	8571.09
494.808	8655.06
495.012	8554.71
495.215	8714.45
495.419	8739.02
495.622	8603.86
495.825	9021.64
496.029	8927.44
496.232	9054.41
496.436	9033.93
496.639	9275.59
496.843	9144.52
497.046	9500.87
497.249	9476.29
497.453	9472.2
497.656	9494.72
497.859	9660.61
498.063	9777.34
498.266	10080.44
498.469	9930.94
498.673	10109.12
498.876	10066.11
499.079	10139.83
499.282	10191.03
499.485	10510.52
499.689	10533.04
499.892	10680.5
500.095	10743.99
500.298	10897.58
500.501	11077.8
500.705	11225.26
500.908	11331.75
501.111	11511.97
501.314	11483.3
501.517	11532.45
501.72	11696.29
501.923	11749.54
502.126	12030.11
502.329	12220.57
502.532	12288.15
502.735	12402.84
502.938	12535.96
503.141	12816.53
503.344	13019.28
503.547	13015.18
503.75	13488.26
503.953	13152.4
504.156	13435.02
504.359	13400.2
504.562	13518.98
504.765	13889.67
504.968	13955.2
505.17	13979.78
505.373	14176.38
505.576	14252.16
505.779	14471.29
505.982	14573.69
506.185	14712.95
506.387	14962.8
506.59	15229.04
506.793	15495.27
506.996	15575.14
507.198	15902.82
507.401	15751.27
507.604	15960.16
507.807	16531.55
508.009	16506.97
508.212	16476.25
508.415	16617.56
508.617	16832.6
508.82	16808.02
509.022	16916.56
509.225	17614.92
509.428	17551.43
509.63	17303.63
509.833	17741.89
510.035	18163.78
510.238	18346.05
510.44	18387
510.643	18905.14
510.845	18817.08
511.048	18569.27
511.25	18872.37
511.453	19083.31
511.655	19757.1
511.858	19634.22
512.06	19687.46
512.262	19939.37
512.465	19914.79
512.667	20592.67
512.87	20566.04
513.072	20711.45
513.274	21075.99
513.477	21262.35
513.679	21583.88
513.881	21821.45
514.084	21671.95
514.286	21729.29
514.488	22214.66
514.69	22431.74
514.893	22786.04
515.095	22816.76
515.297	22810.62
515.499	22982.65
515.701	23484.4
515.904	23283.7
516.106	23693.29
516.308	23939.05
516.51	24326.11
516.712	24612.83
516.914	24498.14
517.116	24958.94
517.318	25044.95
517.52	24846.3
517.722	25137.11
517.925	25655.25
518.127	25993.16
518.329	26363.84
518.531	26128.33
518.733	26195.91
518.935	26531.78
519.136	26628.03
519.338	27297.72
519.54	27103.16
519.742	27234.23
519.944	27852.72
520.146	28166.06
520.348	28106.66
520.55	28233.64
520.752	28487.59
520.954	28665.76
521.155	28483.49
521.357	29220.76
521.559	29403.03
521.761	29941.64
521.963	29593.49
522.164	29835.15
522.366	30021.52
522.568	30166.92
522.77	30269.32
522.971	30830.46
523.173	31125.37
523.375	30998.4
523.576	31041.4
523.778	30721.92
523.98	31324.02
524.181	31899.5
524.383	31747.95
524.584	32032.62
524.786	31919.98
524.988	32327.53
525.189	32497.51
525.391	32386.92
525.592	32788.32
525.794	32939.87
525.995	32882.53
526.197	32911.2
526.398	32931.68
526.6	33417.05
526.801	33668.95
527.003	33695.57
527.204	33539.93
527.406	33853.26
527.607	33754.96
527.808	34486.09
528.01	33777.49
528.211	34131.79
528.412	34492.23
528.614	34592.58
528.815	34318.15
529.016	34731.84
529.218	34404.17
529.419	34692.93
529.62	34647.88
529.822	34883.39
530.023	34803.52
530.224	35082.05
530.425	34885.44
530.626	34314.06
530.828	34871.11
531.029	35454.78
531.23	35034.94
531.431	34715.46
531.632	35327.8
531.833	35305.27
532.035	35151.68
532.236	35262.27
532.437	35637.05
532.638	35106.62
532.839	35704.63
533.04	35600.18
533.241	34969.41
533.442	35870.51
533.643	35577.65
533.844	35454.78
534.045	35843.89
534.246	35323.71
534.447	35751.73
534.648	35389.24
534.849	35743.54
535.05	35305.27
535.251	35591.99
535.451	35534.65
535.652	35723.06
535.853	35587.89
536.054	35831.6
536.255	35573.56
536.456	35571.51
536.657	35847.99
536.857	35546.93
537.058	35387.19
537.259	36024.11
537.46	35219.26
537.66	35503.93
537.861	35823.41
538.062	35270.46
538.263	35374.91
538.463	35389.24
538.664	35436.34
538.865	35635
539.065	35825.46
539.266	35321.66
539.466	35882.8
539.667	35376.95
539.868	35884.85
540.068	35209.02
540.269	35600.18
540.469	35749.68
540.67	35229.5
540.87	35366.71
541.071	35252.03
541.271	35888.95
541.472	35352.38
541.672	35317.56
541.873	35153.72
542.073	34930.5
542.274	35458.87
542.474	35245.88
542.675	35344.19
542.875	35604.28
543.075	35170.11
543.276	34955.07
543.476	35467.06
543.676	35350.33
543.877	35434.3
544.077	35215.16
544.277	35448.63
544.478	35389.24
544.678	35305.27
544.878	35016.51
545.078	35319.61
545.279	34955.07
545.479	34864.96
545.679	35389.24
545.879	35157.82
546.079	35258.17
546.28	34611.01
546.48	34873.15
546.68	34799.43
546.88	34862.91
547.08	35084.09
547.28	35166.01
547.48	34791.23
547.68	35217.21
547.88	35104.57
548.081	35288.89
548.281	34838.34
548.481	34574.15
548.681	35088.19
548.881	35094.33
549.081	35073.85
549.28	35084.09
549.48	34905.92
549.68	34776.9
549.88	35239.74
550.08	35051.33
550.28	34832.19
550.48	34963.26
550.68	35335.99
550.88	34840.39
551.08	35129.15
551.279	34576.2
551.479	34713.41
551.679	34971.46
551.879	34416.46
552.079	35020.61
552.278	34998.08
552.478	34666.31
552.678	34803.52
552.878	34996.03
553.077	34764.61
553.277	34471.75
553.477	35069.76
553.676	34492.23
553.876	34899.78
554.076	34715.46
554.275	34359.11
554.475	33994.57
554.674	34672.45
554.874	34481.99
555.074	34711.36
555.273	34305.87
555.473	34494.28
555.672	34137.93
555.872	34131.79
556.071	34713.41
556.271	34398.02
556.47	34066.25
556.67	34035.53
556.869	34062.16
557.068	34326.35
557.268	34301.77
557.467	34187.08
557.667	34051.92
557.866	33996.62
558.065	33926.99
558.265	33814.35
558.464	33623.89
558.663	34283.34
558.863	33507.16
559.062	34244.43
559.261	33554.26
559.461	34103.12
559.66	33521.49
559.859	33556.31
560.058	33290.07
560.258	33632.08
560.457	33228.63
560.656	33576.79
560.855	33072.99
561.054	33584.98
561.253	33017.69
561.453	32810.85
561.652	33269.59
561.851	33607.51
562.05	33167.2
562.249	32984.93
562.448	33132.38
562.647	33210.2
562.846	33154.91
563.045	32749.41
563.244	32694.11
563.443	33048.41
563.642	32487.27
563.841	32616.29
564.04	32276.33
564.239	32917.34
564.438	32366.44
564.637	32454.5
564.836	32522.09
565.035	32290.66
565.234	32405.35
565.432	32378.73
565.631	32345.96
565.83	32255.85
566.029	32196.46
566.228	31983.47
566.427	32112.49
566.625	31922.03
566.824	31680.37
567.023	32053.1
567.222	31350.65
567.42	31887.21
567.619	31623.03
567.818	31549.3
568.016	31659.89
568.215	31766.38
568.414	31438.71
568.612	31561.59
568.811	31371.13
569.01	31270.78
569.208	30885.76
569.407	31268.73
569.605	31057.79
569.804	31086.46
570.002	30699.39
570.201	31010.68
570.4	30508.93
570.598	30621.57
570.797	30248.84
570.995	30726.02
571.193	29955.98
571.392	30558.08
571.59	30076.81
571.789	30453.64
571.987	30138.25
572.186	29921.16
572.384	29882.25
572.582	30236.55
572.781	30091.15
572.979	29792.14
573.177	29689.74
573.376	30054.28
573.574	29681.55
573.772	29587.35
573.971	29437.84
574.169	29157.27
574.367	29366.17
574.565	29462.42
574.763	29151.13
574.962	29300.63
575.16	29079.45
575.358	29204.38
575.556	28977.05
575.754	29218.71
575.952	28786.59
576.151	29249.43
576.349	28966.81
576.547	28802.97
576.745	28800.93
576.943	28628.9
577.141	28331.94
577.339	28155.82
577.537	28204.97
577.735	28149.67
577.933	28243.88
578.131	28198.82
578.329	27879.34
578.527	27842.48
578.725	27987.88
578.923	27688.88
579.121	27541.43
579.319	27649.97
579.516	27598.77
579.714	27516.85
579.912	27555.76
580.11	27191.22
580.308	27129.78
580.506	27434.93
580.704	27011
580.901	26929.08
581.099	27072.44
581.297	26972.09
581.495	27183.03
581.692	27176.89
581.89	26628.03
582.088	26748.86
582.285	26732.48
582.483	26845.12
582.681	26599.36
582.878	26419.14
583.076	26265.54
583.274	26189.77
583.471	26177.48
583.669	26200.01
583.866	25997.26
584.064	26161.09
584.262	25880.52
584.459	26163.14
584.657	25857.99
584.854	26157
585.052	25505.74
585.249	25489.36
585.447	25688.01
585.644	25262.04
585.841	25616.33
586.039	25718.73
586.236	25159.64
586.434	25229.27
586.631	25214.93
586.828	25085.91
587.026	25268.18
587.223	25167.83
587.42	24877.02
587.618	24743.9
587.815	24653.79
588.012	24748
588.21	24621.02
588.407	24643.55
588.604	24471.52
588.801	24575.97
588.999	24700.89
589.196	24164.32
589.393	24119.27
589.59	23789.55
589.787	24246.24
589.984	24000.49
590.182	23689.2
590.379	23988.2
590.576	23574.51
590.773	23560.17
590.97	23902.18
591.167	23910.38
591.364	23504.88
591.561	23775.21
591.758	23224.31
591.955	23203.83
592.152	23502.83
592.349	23203.83
592.546	23271.41
592.743	23338.99
592.94	22767.61
593.137	23037.94
593.334	23189.49
593.531	22839.29
593.727	22702.07
593.924	22855.67
594.121	22591.48
594.318	22663.16
594.515	22300.67
594.712	22704.12
594.908	22130.69
595.105	22339.58
595.302	22151.17
595.499	22220.8
595.696	22235.14
595.892	22231.04
596.089	22437.89
596.286	22196.23
596.482	22016.01
596.679	21760.01
596.876	21639.18
597.072	21618.7
597.269	21495.82
597.466	21596.17
597.662	21555.21
597.859	21305.36
598.055	21788.68
598.252	21268.5
598.448	21237.78
598.645	21248.02
598.841	20891.67
599.038	20957.21
599.234	20967.45
599.431	20695.07
599.627	21141.52
599.824	20805.66
600.02	20707.35
600.217	20817.94
600.413	20660.25
600.609	20500.51
600.806	20074.53
601.002	20658.2
601.198	20168.74
601.395	20336.67
601.591	20221.98
601.787	20240.42
601.984	19925.03
602.18	20465.69
602.376	19900.45
602.572	19638.31
602.769	19892.26
602.965	19783.72
603.161	19898.41
603.357	19492.91
603.553	19525.68
603.75	19671.08
603.946	19556.39
604.142	19839.01
604.338	19417.13
604.534	19120.18
604.73	19259.44
604.926	19232.82
605.122	19318.83
605.318	19120.18
605.514	19019.83
605.71	19040.31
605.906	18630.71
606.102	19175.47
606.298	19111.99
606.494	18755.64
606.69	18552.89
606.886	18774.07
607.082	18464.83
607.278	18737.21
607.474	18475.07
607.67	18473.02
607.866	18184.26
608.062	18614.33
608.257	18122.82
608.453	18395.2
608.649	18479.16
608.845	18526.27
609.041	18133.06
609.236	18268.22
609.432	18106.43
609.628	18229.31
609.824	17969.22
610.019	17981.51
610.215	18157.63
610.411	18065.47
610.606	17875.01
610.802	17842.25
610.998	17881.16
611.193	17950.79
611.389	17647.69
611.584	17764.42
611.78	17537.1
611.976	17631.3
612.171	17872.96
612.367	17573.96
612.562	17557.58
612.758	17229.9
612.953	17506.38
613.149	17815.62
613.344	17281.1
613.539	17516.62
613.735	17199.18
613.93	17242.19
614.126	17240.14
614.321	17403.98
614.517	17401.93
614.712	17291.34
614.907	17256.53
615.103	17000.53
615.298	16934.99
615.493	17397.84
615.688	17188.94
615.884	17160.27
616.079	16793.69
616.274	16744.53
616.47	16769.11
616.665	16853.08
616.86	16660.57
617.055	16719.96
617.25	16717.91
617.445	16799.83
617.641	16644.18
617.836	16724.05
618.031	16435.29
618.226	16492.63
618.421	16328.8
618.616	16599.13
618.811	16361.56
619.006	16482.39
619.201	15992.93
619.396	16007.27
619.591	15808.61
619.786	16048.22
619.981	15710.31
620.176	15892.58
620.371	15685.73
620.566	15583.34
620.761	15663.21
620.956	15779.94
621.151	15396.97
621.346	15525.99
621.541	15468.65
621.735	15384.68
621.93	15263.85
622.125	15274.09
622.32	15085.68
622.515	14895.22
622.709	14614.65
622.904	14874.74
623.099	14631.03
623.294	14794.87
623.488	14749.81
623.683	14514.3
623.878	14420.09
624.072	14387.32
624.267	14422.14
624.462	14278.78
624.656	14108.8
624.851	14280.83
625.046	13990.02
625.24	13899.91
625.435	13731.97
625.629	13615.24
625.824	13863.04
626.018	13566.09
626.213	13652.1
626.407	13408.39
626.602	13359.24
626.796	13588.61
626.991	13125.77
627.185	13166.73
627.38	13252.75
627.574	13047.95
627.768	12974.22
627.963	13136.01
628.157	12683.41
628.352	12806.29
628.546	12621.97
628.74	12902.54
628.935	12570.77
629.129	12777.62
629.323	12474.52
629.517	12439.7
629.712	12460.18
629.906	12189.85
630.1	12073.12
630.294	12290.2
630.489	12019.87
630.683	12191.9
630.877	11901.09
631.071	12032.16
631.265	11860.13
631.459	11790.5
631.653	11604.13
631.848	11708.58
632.042	11763.87
632.236	11577.51
632.43	11284.65
632.624	11495.59
632.818	11223.21
633.012	11122.86
633.206	11249.83
633.4	11278.51
633.594	11090.09
633.788	11108.52
633.982	11063.47
634.176	10834.1
634.369	11024.56
634.563	10875.06
634.757	10770.61
634.951	10830
635.145	10803.38
635.339	10539.19
635.533	10655.92
635.726	10473.65
635.92	10440.89
636.114	10602.68
636.308	10205.37
636.501	10242.23
636.695	10297.53
636.889	10186.94
637.083	10119.35
637.276	9914.56
637.47	9965.76
637.664	10045.63
637.857	9976
638.051	9955.52
638.244	9701.57
638.438	9660.61
638.632	9775.3
638.825	9627.84
639.019	9709.76
639.212	9400.52
639.406	9507.01
639.599	9474.24
639.793	9539.78
639.986	9201.86
640.18	9310.41
640.373	9339.08
640.567	9144.52
640.76	9025.74
640.954	9070.79
641.147	9070.79
641.34	8878.29
641.534	8954.06
641.727	9042.12
641.92	9062.6
642.114	8825.04
642.307	8857.81
642.5	8698.06
642.694	8755.41
642.887	8605.91
643.08	8657.11
643.273	8521.94
643.467	8595.67
643.66	8474.84
643.853	8210.65
644.046	8149.21
644.239	8374.49
644.432	8210.65
644.626	8091.87
644.819	8280.28
645.012	8089.82
645.205	8181.98
645.398	8071.39
645.591	7983.32
645.784	8116.44
645.977	7915.74
646.17	7891.16
646.363	7792.86
646.556	7776.48
646.749	7852.25
646.942	7829.73
647.135	7727.33
647.328	7614.69
647.521	7416.04
647.714	7469.28
647.907	7551.2
648.099	7432.42
648.292	7522.53
648.485	7276.77
648.678	7366.88
648.871	7315.69
649.064	7334.12
649.256	7299.3
649.449	7139.56
649.642	7196.9
649.835	7229.67
650.027	7153.9
650.22	6967.53
650.413	7063.79
650.605	6988.01
650.798	6723.82
650.991	6846.7
651.183	6834.41
651.376	6809.84
651.568	6617.33
651.761	6750.45
651.954	6639.86
652.146	6738.16
652.339	6646
652.531	6473.97
652.724	6559.99
652.916	6392.05
653.109	6373.62
653.301	6564.08
653.494	6600.94
653.686	6312.18
653.879	6471.92
654.071	6424.82
654.263	6183.16
654.456	6211.83
654.648	6211.83
654.84	6172.92
655.033	6228.21
655.225	6162.68
655.417	6103.29
655.61	6181.11
655.802	5968.12
655.994	5869.82
656.186	5853.44
656.379	6025.47
656.571	5966.07
656.763	5947.64
656.955	5978.36
657.148	5818.62
657.34	5767.42
657.532	5695.74
657.724	5753.09
657.916	5667.07
658.108	5597.44
658.3	5558.53
658.492	5497.09
658.684	5511.43
658.876	5351.68
659.068	5632.26
659.26	5429.51
659.452	5411.07
659.644	5425.41
659.836	5531.9
660.028	5394.69
660.22	5200.13
660.412	5294.34
660.604	5249.29
660.796	5196.04
660.988	5282.05
661.18	5136.65
661.372	5103.88
661.563	5124.36
661.755	5124.36
661.947	5038.34
662.139	5017.86
662.331	5105.93
662.522	4921.61
662.714	4985.1
662.906	4698.38
663.097	4899.08
663.289	4942.09
663.481	4856.08
663.673	4788.49
663.864	4634.89
664.056	4749.58
664.247	4811.02
664.439	4712.72
664.631	4655.37
664.822	4565.26
665.014	4622.61
665.205	4638.99
665.397	4507.92
665.588	4452.63
665.78	4462.87
665.971	4493.58
666.163	4530.45
666.354	4436.24
666.546	4417.81
666.737	4454.67
666.929	4421.91
667.12	4426
667.311	4436.24
667.503	4270.36
667.694	4337.94
667.885	4282.64
668.077	4081.94
668.268	4362.51
668.459	4163.86
668.651	4256.02
668.842	4145.43
669.033	4108.57
669.224	4036.89
669.416	4114.71
669.607	4051.22
669.798	3967.26
669.989	4077.85
670.18	4094.23
670.371	3975.45
670.563	3942.68
670.754	3985.69
670.945	4000.02
671.136	4024.6
671.327	3897.63
671.518	3932.44
671.709	3903.77
671.9	3784.99
672.091	3918.11
672.282	3766.56
672.473	3961.11
672.664	3774.75
672.855	3723.55
673.046	3668.25
673.237	3860.76
673.428	3746.08
673.619	3774.75
673.809	3643.68
674	3770.65
674.191	3606.81
674.382	3588.38
674.573	3672.35
674.764	3692.83
674.954	3641.63
675.145	3569.95
675.336	3604.77
675.527	3606.81
675.717	3664.16
675.908	3492.13
676.099	3658.01
676.289	3557.66
676.48	3569.95
676.671	3475.74
676.861	3537.18
677.052	3387.68
677.243	3391.78
677.433	3442.98
677.624	3582.24
677.814	3324.19
678.005	3385.63
678.195	3465.5
678.386	3451.17
678.576	3307.81
678.767	3395.87
678.957	3279.14
679.148	3393.83
679.338	3365.15
679.529	3408.16
679.719	3490.08
679.909	3303.71
680.1	3273
680.29	3127.59
680.481	3303.71
680.671	3324.19
680.861	3246.37
681.052	3221.8
681.242	3311.91
681.432	3213.6
681.622	3164.45
681.813	3283.24
682.003	3203.36
682.193	3123.49
682.383	3258.66
682.573	3043.62
682.764	3115.3
682.954	3084.58
683.144	3348.77
683.334	3309.86
683.524	3103.01
683.714	3225.89
683.904	3176.74
684.094	3205.41
684.284	3221.8
684.474	2990.38
684.664	3078.44
684.854	3066.15
685.044	3049.77
685.234	3062.05
685.424	3133.73
685.614	3180.84
685.804	3010.86
685.994	3107.11
686.184	3074.34
686.374	3109.16
686.564	2926.89
686.753	3141.93
686.943	2986.28
687.133	2986.28
687.323	2898.22
687.513	2994.47
687.702	2951.46
687.892	2933.03
688.082	2818.35
688.272	3043.62
688.461	2887.98
688.651	2736.43
688.841	2687.28
689.03	2926.89
689.22	2822.44
689.41	2892.07
689.599	2795.82
689.789	2746.67
689.979	2804.01
690.168	2771.24
690.358	2910.5
690.547	2814.25
690.737	2781.48
690.926	2781.48
691.116	2722.09
691.305	2767.15
691.495	2715.95
691.684	2586.93
691.874	2761
692.063	2660.65
692.252	2662.7
692.442	2718
692.631	2459.95
692.82	2484.53
693.01	2699.56
693.199	2640.17
693.388	2605.36
693.578	2535.73
693.767	2595.12
693.956	2513.2
694.146	2494.77
694.335	2441.52
694.524	2533.68
694.713	2582.83
694.902	2552.11
695.092	2603.31
695.281	2466.1
695.47	2470.19
695.659	2408.75
695.848	2396.46
696.037	2410.8
696.226	2466.1
696.415	2359.6
696.604	2494.77
696.793	2412.85
696.982	2439.47
697.171	2443.57
697.36	2480.43
697.549	2455.86
697.738	2296.11
697.927	2427.18
698.116	2392.37
698.305	2421.04
698.494	2289.97
698.683	2386.22
698.872	2378.03
699.061	2296.11
699.25	2361.65
699.438	2339.12
699.627	2255.15
699.816	2312.5
700.005	2296.11
700.193	2326.83
700.382	2312.5
700.571	2234.68
700.76	2246.96
700.948	2287.92
701.137	2255.15
701.326	2369.84
701.514	2214.2
701.703	2283.83
701.892	2068.79
702.08	2208.05
702.269	2238.77
702.457	2210.1
702.646	2210.1
702.834	2169.14
703.023	2201.91
703.212	2181.43
703.4	2210.1
703.589	2230.58
703.777	2222.39
703.965	2076.98
704.154	2115.89
704.342	2068.79
704.531	2163
704.719	2119.99
704.907	2218.29
705.096	2160.95
705.284	2136.37
705.472	2156.85
705.661	2117.94
705.849	2076.98
706.037	2148.66
706.226	2132.28
706.414	2070.84
706.602	2101.56
706.79	2144.56
706.979	2115.89
707.167	2206
707.355	2025.78
707.543	2177.33
707.731	2132.28
707.919	2124.08
708.107	2117.94
708.296	2052.41
708.484	2107.7
708.672	2103.61
708.86	2083.13
709.048	2136.37
709.236	2136.37
709.424	2083.13
709.612	2083.13
709.8	2027.83
709.988	2076.98
710.176	2109.75
710.364	2009.4
710.551	2070.84
710.739	2085.17
710.927	2201.91
711.115	2038.07
711.303	2036.02
711.491	1993.01
711.679	2003.25
711.866	2050.36
712.054	1923.38
712.242	2091.32
712.43	2126.13
712.617	2046.26
712.805	2054.45
712.993	2124.08
713.181	1995.06
713.368	2246.96
713.556	2066.74
713.744	2019.64
713.931	2128.18
714.119	2134.32
714.306	2038.07
714.494	1990.97
714.682	1966.39
714.869	1937.72
715.057	2062.65
715.244	1984.82
715.432	1923.38
715.619	2009.4
715.807	1999.16
715.994	2085.17
716.182	2105.65
716.369	1941.82
716.556	1919.29
716.744	1937.72
716.931	2021.69
717.119	1978.68
717.306	1964.34
717.493	1954.1
717.681	1931.58
717.868	2117.94
718.055	2052.41
718.242	1886.52
718.43	1980.73
718.617	2048.31
718.804	1929.53
718.991	1984.82
719.179	1995.06
719.366	2038.07
719.553	2029.88
719.74	2025.78
719.927	2101.56
720.114	2054.45
720.301	2050.36
720.488	1937.72
720.676	2003.25
720.863	2140.47
721.05	2079.03
721.237	1902.9
721.424	1984.82
721.611	2058.55
721.798	1978.68
721.985	2003.25
722.172	1968.44
722.358	1960.25
722.545	2027.83
722.732	2068.79
722.919	2025.78
723.106	1814.84
723.293	1902.9
723.48	1980.73
723.667	1997.11
723.853	2027.83
724.04	2029.88
724.227	1902.9
724.414	2029.88
724.6	1982.78
724.787	1950.01
724.974	2038.07
725.161	1931.58
725.347	2036.02
725.534	1929.53
725.72	2081.08
725.907	2087.22
726.094	1972.54
726.28	1952.06
726.467	1980.73
726.653	2122.04
726.84	2095.41
727.027	2062.65
727.213	1894.71
727.4	1904.95
727.586	1915.19
727.773	1999.16
727.959	1964.34
728.145	1927.48
728.332	1919.29
728.518	1947.96
728.705	2036.02
728.891	1872.18
729.077	2099.51
729.264	1943.86
729.45	1960.25
729.636	2087.22
729.823	2076.98
730.009	2103.61
730.195	1923.38
730.382	2064.69
730.568	1900.86
730.754	1993.01
730.94	1964.34
731.126	1952.06
731.313	2025.78
731.499	1978.68
731.685	1937.72
731.871	1876.28
732.057	1972.54
732.243	1919.29
732.429	1947.96
732.615	1913.14
732.801	2025.78
732.987	1847.61
733.173	2048.31
733.359	1913.14
733.545	1943.86
733.731	1974.58
733.917	1968.44
734.103	1954.1
734.289	1919.29
734.475	1931.58
734.661	2019.64
734.847	1978.68
735.033	1913.14
735.219	1845.56
735.404	2042.17
735.59	1902.9
735.776	1863.99
735.962	1986.87
736.148	2052.41
736.333	2017.59
736.519	1941.82
736.705	1960.25
736.89	1943.86
737.076	1952.06
737.262	1806.65
737.447	1853.75
737.633	1911.1
737.819	2050.36
738.004	1866.04
738.19	1935.67
738.375	1909.05
738.561	1997.11
738.747	1945.91
738.932	1968.44
739.118	1911.1
739.303	1972.54
739.489	1831.23
739.674	1878.33
739.859	1861.94
740.045	1829.18
740.23	1796.41
740.416	1804.6
740.601	1913.14
740.786	1866.04
740.972	1851.71
741.157	1923.38
741.342	1759.55
741.528	1853.75
741.713	1804.6
741.898	1802.55
742.084	1757.5
742.269	1788.22
742.454	1784.12
742.639	1902.9
742.824	1784.12
743.01	1763.64
743.195	1886.52
743.38	1786.17
743.565	1700.16
743.75	1845.56
743.935	1757.5
744.12	1814.84
744.305	1702.2
744.49	1714.49
744.675	1616.19
744.86	1769.79
745.045	1806.65
745.23	1675.58
745.415	1732.92
745.6	1769.79
745.785	1706.3
745.97	1753.4
746.155	1659.2
746.34	1773.88
746.525	1653.05
746.71	1755.45
746.895	1718.59
747.079	1624.38
747.264	1546.56
747.449	1591.61
747.634	1562.94
747.819	1624.38
748.003	1610.04
748.188	1524.03
748.373	1642.81
748.557	1534.27
748.742	1575.23
748.927	1628.48
749.111	1478.97
749.296	1478.97
749.481	1542.46
749.665	1583.42
749.85	1478.97
750.034	1448.26
750.219	1407.3
750.404	1481.02
750.588	1511.74
750.773	1534.27
750.957	1495.36
751.141	1419.58
751.326	1476.93
751.51	1431.87
751.695	1509.69
751.879	1444.16
752.064	1503.55
752.248	1421.63
752.432	1364.29
752.617	1321.28
752.801	1280.32
752.985	1511.74
753.17	1399.1
753.354	1272.13
753.538	1352
753.722	1280.32
753.907	1288.51
754.091	1315.14
754.275	1358.14
754.459	1372.48
754.643	1245.51
754.828	1296.71
755.012	1263.94
755.196	1155.4
755.38	1227.07
755.564	1329.47
755.748	1194.31
755.932	1184.07
756.116	1233.22
756.3	1182.02
756.484	1206.59
756.668	1265.99
756.852	1116.48
757.036	1182.02
757.22	1132.87
757.404	1163.59
757.588	1141.06
757.772	1208.64
757.956	1175.88
758.14	1198.4
758.323	1093.96
758.507	1157.44
758.691	1075.52
758.875	1108.29
759.059	1126.72
759.242	1028.42
759.426	1063.24
759.61	1009.99
759.794	1139.01
759.977	1075.52
760.161	1190.21
760.345	1077.57
760.528	1059.14
760.712	1007.94
760.895	952.65
761.079	1009.99
761.263	887.11
761.446	964.93
761.63	989.51
761.813	1022.28
761.997	1001.8
762.18	1046.85
762.364	944.45
762.547	899.4
762.731	952.65
762.914	948.55
763.098	981.32
763.281	938.31
763.464	878.92
763.648	948.55
763.831	1018.18
764.015	891.21
764.198	889.16
764.381	866.63
764.564	1028.42
764.748	1024.33
764.931	862.54
765.114	868.68
765.297	975.17
765.481	840.01
765.664	880.97
765.847	954.69
766.03	872.78
766.213	866.63
766.397	878.92
766.58	905.54
766.763	895.3
766.946	915.78
767.129	864.58
767.312	897.35
767.495	846.15
767.678	870.73
767.861	850.25
768.044	858.44
768.227	797
768.41	870.73
768.593	868.68
768.776	950.6
768.959	856.39
769.142	885.06
769.324	807.24
769.507	842.06
769.69	797
769.873	883.02
770.056	903.5
770.239	821.58
770.421	829.77
770.604	758.09
770.787	868.68
770.97	747.85
771.152	772.43
771.335	872.78
771.518	780.62
771.7	895.3
771.883	887.11
772.066	829.77
772.248	803.15
772.431	739.66
772.613	739.66
772.796	764.23
772.978	760.14
773.161	797
773.343	727.37
773.526	731.47
773.708	643.4
773.891	627.02
774.073	747.85
774.256	756.04
774.438	790.86
774.621	723.27
774.803	715.08
774.985	725.32
775.168	680.27
775.35	635.21
775.532	778.57
775.715	674.12
775.897	768.33
776.079	688.46
776.261	688.46
776.444	665.93
776.626	702.79
776.808	719.18
776.99	653.64
777.173	676.17
777.355	633.16
777.537	684.36
777.719	659.79
777.901	618.83
778.083	575.82
778.265	670.03
778.447	627.02
778.629	555.34
778.811	577.87
778.993	637.26
779.175	579.92
779.357	635.21
779.539	590.16
779.721	608.59
779.903	682.31
780.085	545.1
780.267	575.82
780.449	479.57
780.631	682.31
780.812	573.77
780.994	538.96
781.176	555.34
781.358	561.48
781.54	504.14
781.721	534.86
781.903	620.88
782.085	567.63
782.267	567.63
782.448	557.39
782.63	485.71
782.812	534.86
782.993	506.19
783.175	487.76
783.357	452.94
783.538	498
783.72	534.86
783.901	473.42
784.083	481.61
784.264	487.76
784.446	391.5
784.627	457.04
784.809	448.85
784.99	422.22
785.172	397.65
785.353	471.37
785.535	469.33
785.716	479.57
785.897	313.68
786.079	469.33
786.26	461.13
786.441	452.94
786.623	432.46
786.804	436.56
786.985	391.5
787.167	397.65
787.348	420.17
787.529	362.83
787.71	448.85
787.891	395.6
788.073	381.26
788.254	368.98
788.435	420.17
788.616	366.93
788.797	323.92
788.978	362.83
789.159	346.45
789.34	348.5
789.522	383.31
789.703	364.88
789.884	459.09
790.065	297.3
790.246	434.51
790.427	375.12
790.607	338.26
790.788	414.03
790.969	373.07
791.15	287.06
791.331	360.78
791.512	303.44
791.693	366.93
791.874	332.11
792.054	342.35
792.235	346.45
792.416	332.11
792.597	313.68
792.778	289.1
792.958	373.07
793.139	289.1
793.32	289.1
793.5	346.45
793.681	405.84
793.862	272.72
794.042	354.64
794.223	303.44
794.404	231.76
794.584	215.38
794.765	289.1
794.945	297.3
795.126	291.15
795.306	299.34
795.487	256.34
795.667	307.54
795.848	248.15
796.028	256.34
796.209	301.39
796.389	248.15
796.57	250.19
796.75	307.54
796.93	291.15
797.111	248.15
797.291	344.4
797.471	321.87
797.652	254.29
797.832	280.91
798.012	268.63
798.192	250.19
798.373	192.85
798.553	239.95
798.733	305.49
798.913	256.34
799.093	211.28
799.274	221.52
799.454	272.72
799.634	227.67
799.814	305.49
799.994	293.2
800.174	252.24
800.354	227.67
800.534	264.53
800.714	186.71
800.894	231.76
801.074	147.8
801.254	184.66
801.434	305.49
801.614	264.53
801.794	213.33
801.974	854.34
802.154	133.46
802.334	268.63
802.514	223.57
802.693	186.71
802.873	242
803.053	325.97
803.233	198.99
803.413	160.08
803.592	184.66
803.772	147.8
803.952	186.71
804.131	219.47
804.311	184.66
804.491	207.19
804.67	205.14
804.85	252.24
805.03	168.27
805.209	194.9
805.389	174.42
805.568	172.37
805.748	151.89
805.928	160.08
806.107	229.71
806.287	233.81
806.466	239.95
806.646	231.76
806.825	194.9
807.004	125.27
807.184	231.76
807.363	223.57
807.543	180.56
807.722	198.99
807.901	217.43
808.081	250.19
808.26	207.19
808.439	151.89
808.619	145.75
808.798	88.4
808.977	182.61
809.156	190.8
809.336	170.32
809.515	186.71
809.694	184.66
809.873	201.04
810.052	158.03
810.231	153.94
810.411	125.27
810.59	84.31
810.769	174.42
810.948	145.75
811.127	127.32
811.306	182.61
811.485	112.98
811.664	201.04
811.843	192.85
812.022	69.97
812.201	166.23
812.38	168.27
812.559	137.56
812.737	166.23
812.916	94.55
813.095	98.64
813.274	117.08
813.453	137.56
813.632	133.46
813.811	143.7
813.989	104.79
814.168	141.65
814.347	123.22
814.526	170.32
814.704	201.04
814.883	125.27
815.062	137.56
815.24	164.18
815.419	100.69
815.598	78.16
815.776	125.27
815.955	160.08
816.133	123.22
816.312	164.18
816.49	117.08
816.669	108.88
816.847	203.09
817.026	141.65
817.204	137.56
817.383	110.93
817.561	100.69
817.74	153.94
817.918	155.99
818.097	125.27
818.275	108.88
818.453	162.13
818.632	51.54
818.81	143.7
818.988	104.79
819.167	125.27
819.345	141.65
819.523	102.74
819.701	31.06
819.879	196.95
820.058	143.7
820.236	135.51
820.414	47.44
820.592	143.7
820.77	90.45
820.948	84.31
821.127	100.69
821.305	29.01
821.483	12.63
821.661	194.9
821.839	104.79
822.017	76.12
822.195	131.41
822.373	63.83
822.551	125.27
822.729	72.02
822.907	94.55
823.085	92.5
823.262	35.16
823.44	158.03
823.618	92.5
823.796	127.32
823.974	72.02
824.152	102.74
824.329	59.73
824.507	137.56
824.685	149.84
824.863	94.55
825.04	18.77
825.218	153.94
825.396	143.7
825.574	82.26
825.751	119.12
825.929	125.27
826.107	16.73
826.284	180.56
826.462	94.55
826.639	119.12
826.817	43.35
826.994	76.12
827.172	125.27
827.349	164.18
827.527	94.55
827.704	129.36
827.882	86.36
828.059	117.08
828.237	57.68
828.414	86.36
828.591	29.01
828.769	102.74
828.946	0.34
829.124	92.5
829.301	55.64
829.478	117.08
829.655	141.65
829.833	125.27
830.01	51.54
830.187	164.18
830.364	119.12
830.542	117.08
830.719	76.12
830.896	22.87
831.073	43.35
831.25	133.46
831.427	127.32
831.604	47.44
831.782	67.92
831.959	14.68
832.136	45.4
832.313	26.96
832.49	67.92
832.667	76.12
832.844	43.35
833.021	69.97
833.198	117.08
833.374	78.16
833.551	53.59
833.728	67.92
833.905	135.51
834.082	-11.95
834.259	108.88
834.436	127.32
834.612	90.45
834.789	74.07
834.966	84.31
835.143	45.4
835.319	-22.19
835.496	102.74
835.673	112.98
835.85	149.84
836.026	100.69
836.203	110.93
836.38	-5.8
836.556	22.87
836.733	88.4
836.909	108.88
837.086	45.4
837.262	35.16
837.439	61.78
837.616	53.59
837.792	-65.19
837.968	94.55
838.145	86.36
838.321	10.58
838.498	92.5
838.674	67.92
838.851	47.44
839.027	26.96
839.203	47.44
839.38	49.49
839.556	53.59
839.732	59.73
839.909	-30.38
840.085	86.36
840.261	35.16
840.437	43.35
840.614	90.45
840.79	22.87
840.966	92.5
841.142	2.39
841.318	90.45
841.494	31.06
841.671	153.94
841.847	43.35
842.023	-22.19
842.199	69.97
842.375	72.02
842.551	-1.71
842.727	59.73
842.903	94.55
843.079	22.87
843.255	127.32
843.431	39.25
843.607	63.83
843.783	18.77
843.959	100.69
844.134	35.16
844.31	100.69
844.486	24.92
844.662	18.77
844.838	10.58
845.013	2.39
845.189	63.83
845.365	29.01
845.541	10.58
845.716	117.08
845.892	67.92
846.068	18.77
846.244	63.83
846.419	82.26
846.595	51.54
846.77	6.49
846.946	45.4
847.122	129.36
847.297	43.35
847.473	117.08
847.648	29.01
847.824	-22.19
847.999	-16.04
848.175	0.34
848.35	51.54
848.526	84.31
848.701	59.73
848.876	45.4
849.052	59.73
849.227	12.63
849.403	65.88
849.578	-1.71
849.753	59.73
849.929	67.92
850.104	-48.81
850.279	22.87
850.454	69.97
850.63	86.36
850.805	6.49
850.98	61.78
851.155	41.3
851.33	14.68
851.505	-22.19
851.681	135.51
851.856	84.31
852.031	125.27
852.206	55.64
852.381	35.16
852.556	43.35
852.731	4.44
852.906	63.83
853.081	37.2
853.256	41.3
853.431	76.12
853.606	69.97
853.781	-1.71
853.956	35.16
854.131	-3.75
854.305	-30.38
854.48	69.97
854.655	59.73
854.83	-16.04
855.005	26.96
855.18	18.77
855.354	0.34
855.529	59.73
855.704	-9.9
855.879	123.22
856.053	37.2
856.228	41.3
856.403	-30.38
856.577	65.88
856.752	14.68
856.926	-50.86
857.101	-28.33
857.276	37.2
857.45	-18.09
857.625	55.64
857.799	69.97
857.974	26.96
858.148	26.96
858.323	59.73
858.497	-1.71
858.672	-11.95
858.846	-11.95
859.02	102.74
859.195	22.87
859.369	80.21
859.543	102.74
859.718	92.5
859.892	121.17
860.066	10.58
860.241	26.96
860.415	-30.38
860.589	10.58
860.763	53.59
860.938	20.82
861.112	-26.28
861.286	2.39
861.46	51.54
861.634	-87.72
861.808	59.73
861.982	35.16
862.157	8.53
862.331	18.77
862.505	37.2
862.679	59.73
862.853	53.59
863.027	47.44
863.201	59.73
863.375	0.34
863.549	-46.76
863.722	51.54
863.896	29.01
864.07	26.96
864.244	-22.19
864.418	4.44
864.592	72.02
864.766	12.63
864.939	10.58
865.113	-18.09
865.287	10.58
865.461	-20.14
865.634	104.79
865.808	-11.95
865.982	55.64
866.156	-95.91
866.329	35.16
866.503	100.69
866.676	76.12
866.85	-9.9
867.024	-11.95
867.197	0.34
867.371	31.06
867.544	37.2
867.718	-24.23
867.891	84.31
868.065	-1.71
868.238	6.49
868.412	59.73
868.585	59.73
868.759	-30.38
868.932	59.73
869.105	16.73
869.279	45.4
869.452	-48.81
869.625	8.53
869.799	-9.9
869.972	35.16
870.145	16.73
870.319	53.59
870.492	20.82
870.665	-22.19
870.838	-30.38
871.011	-5.8
871.185	20.82
871.358	8.53
871.531	29.01
871.704	33.11
871.877	31.06
872.05	-46.76
872.223	59.73
872.396	-13.99
872.569	18.77
872.742	35.16
872.915	-36.52
873.088	-34.47
873.261	-9.9
873.434	35.16
873.607	-16.04
873.78	-1.71
873.953	18.77
874.126	4.44
874.299	61.78
874.471	20.82
874.644	-1.71
874.817	22.87
874.99	84.31
875.163	53.59
875.335	41.3
875.508	69.97
875.681	12.63
875.853	-106.15
876.026	-71.34
876.199	43.35
876.371	-34.47
876.544	10.58
876.717	31.06
876.889	10.58
877.062	51.54
877.234	-36.52
877.407	2.39
877.579	-54.95
877.752	-57
877.924	-13.99
878.097	76.12
878.269	20.82
878.442	14.68
878.614	78.16
878.786	67.92
878.959	-50.86
879.131	29.01
879.303	-71.34
879.476	-26.28
879.648	67.92
879.82	-18.09
879.993	10.58
880.165	-16.04
880.337	-3.75
880.509	12.63
880.681	-34.47
880.854	-5.8
881.026	29.01
881.198	26.96
881.37	-69.29
881.542	78.16
881.714	45.4
881.886	-52.91
882.058	47.44
882.23	-5.8
882.402	18.77
882.574	2.39
882.746	2.39
882.918	-22.19
883.09	22.87
883.262	74.07
883.434	-54.95
883.606	-46.76
883.778	26.96
883.95	78.16
884.122	-20.14
884.293	74.07
884.465	53.59
884.637	-11.95
884.809	-34.47
884.98	22.87
885.152	12.63
885.324	51.54
885.496	4.44
885.667	39.25
885.839	29.01
886.011	59.73
886.182	6.49
886.354	22.87
886.525	6.49
886.697	47.44
886.869	-24.23
887.04	-38.57
887.212	20.82
887.383	35.16
887.555	24.92
887.726	-5.8
887.897	-24.23
888.069	35.16
888.24	24.92
888.412	26.96
888.583	-7.85
888.754	43.35
888.926	-83.63
889.097	-38.57
889.268	-22.19
889.44	26.96
889.611	43.35
889.782	31.06
889.953	-5.8
890.125	35.16
890.296	-44.71
890.467	-13.99
890.638	-40.62
890.809	-36.52
890.98	-3.75
891.151	-50.86
891.323	6.49
891.494	-3.75
891.665	43.35
891.836	-46.76
892.007	-13.99
892.178	-18.09
892.349	-59.05
892.52	22.87
892.691	10.58
892.862	-18.09
893.032	-77.48
893.203	-5.8
893.374	22.87
893.545	78.16
893.716	-65.19
893.887	6.49
894.057	14.68
894.228	51.54
894.399	18.77
894.57	18.77
894.74	14.68
894.911	2.39
895.082	-13.99
895.253	-38.57
895.423	22.87
895.594	35.16
895.764	26.96
895.935	31.06
896.106	-13.99
896.276	26.96
896.447	4.44
896.617	0.34
896.788	-54.95
896.958	14.68
897.129	6.49
897.299	18.77
897.47	31.06
897.64	26.96
897.81	-36.52
897.981	-5.8
898.151	-5.8
898.322	-34.47
898.492	-38.57
898.662	-44.71
898.832	12.63
899.003	51.54
899.173	-13.99
899.343	18.77
899.513	0.34
