Data from USB4F104151__41__14-42-56-523.txt Node

Date: Thu Mar 13 14:42:56 EDT 2025
User: louis
Spectrometer: USB4F10415
Trigger mode: 4
Integration Time (sec): 2.000000E-2
Scans to average: 1
Electric dark correction enabled: true
Nonlinearity correction enabled: false
Boxcar width: 0
XAxis mode: Wavelengths
Number of Pixels in Spectrum: 3648
>>>>>Begin Spectral Data<<<<<
178.204	-136.19
178.424	-136.19
178.644	-136.19
178.864	-87.04
179.084	-164.86
179.304	33.79
179.524	21.5
179.744	-15.36
179.964	11.26
180.184	-35.84
180.404	29.7
180.624	50.18
180.844	-25.6
181.064	-17.41
181.283	15.36
181.503	-37.89
181.723	-29.7
181.943	-17.41
182.163	76.8
182.383	60.42
182.602	23.55
182.822	62.46
183.042	27.65
183.262	21.5
183.482	80.89
183.701	70.65
183.921	44.03
184.141	54.27
184.361	29.7
184.58	87.04
184.8	27.65
185.02	50.18
185.239	117.76
185.459	105.47
185.679	87.04
185.898	31.74
186.118	113.66
186.338	89.09
186.557	33.79
186.777	-68.61
186.997	46.08
187.216	-15.36
187.436	80.89
187.655	35.84
187.875	109.57
188.095	78.85
188.314	125.95
188.534	148.48
188.753	3.07
188.973	52.22
189.192	37.89
189.412	97.28
189.631	54.27
189.851	48.13
190.07	80.89
190.29	7.17
190.509	44.03
190.729	66.56
190.948	101.37
191.168	265.21
191.387	64.51
191.607	37.89
191.826	52.22
192.045	7.17
192.265	29.7
192.484	21.5
192.704	46.08
192.923	87.04
193.142	109.57
193.362	29.7
193.581	70.65
193.8	23.55
194.02	103.42
194.239	60.42
194.458	66.56
194.678	17.41
194.897	60.42
195.116	35.84
195.335	103.42
195.555	95.23
195.774	68.61
195.993	52.22
196.212	15.36
196.432	48.13
196.651	31.74
196.87	119.81
197.089	19.46
197.308	76.8
197.528	101.37
197.747	-17.41
197.966	31.74
198.185	82.94
198.404	84.99
198.623	60.42
198.842	76.8
199.062	52.22
199.281	48.13
199.5	19.46
199.719	39.94
199.938	84.99
200.157	62.46
200.376	54.27
200.595	66.56
200.814	121.85
201.033	5.12
201.252	74.75
201.471	17.41
201.69	76.8
201.909	13.31
202.128	84.99
202.347	76.8
202.566	11.26
202.785	-21.5
203.004	13.31
203.223	119.81
203.442	19.46
203.661	101.37
203.879	70.65
204.098	119.81
204.317	-7.17
204.536	48.13
204.755	-5.12
204.974	84.99
205.193	80.89
205.411	160.77
205.63	52.22
205.849	27.65
206.068	-33.79
206.287	11.26
206.505	56.32
206.724	84.99
206.943	-27.65
207.162	44.03
207.381	3.07
207.599	52.22
207.818	48.13
208.037	23.55
208.255	11.26
208.474	125.95
208.693	103.42
208.911	109.57
209.13	89.09
209.349	146.43
209.567	113.66
209.786	117.76
210.005	74.75
210.223	80.89
210.442	35.84
210.661	44.03
210.879	46.08
211.098	27.65
211.316	44.03
211.535	46.08
211.753	80.89
211.972	117.76
212.191	37.89
212.409	64.51
212.628	107.52
212.846	-19.46
213.065	21.5
213.283	173.05
213.502	46.08
213.72	60.42
213.938	72.7
214.157	37.89
214.375	84.99
214.594	46.08
214.812	64.51
215.031	60.42
215.249	-50.18
215.467	119.81
215.686	48.13
215.904	97.28
216.122	27.65
216.341	144.38
216.559	39.94
216.778	76.8
216.996	31.74
217.214	5.12
217.432	78.85
217.651	99.33
217.869	23.55
218.087	134.14
218.306	62.46
218.524	60.42
218.742	27.65
218.96	111.61
219.179	78.85
219.397	1.02
219.615	125.95
219.833	84.99
220.051	39.94
220.27	56.32
220.488	132.09
220.706	-15.36
220.924	35.84
221.142	54.27
221.36	13.31
221.578	62.46
221.796	7.17
222.015	72.7
222.233	-1.02
222.451	56.32
222.669	46.08
222.887	109.57
223.105	15.36
223.323	48.13
223.541	58.37
223.759	87.04
223.977	21.5
224.195	72.7
224.413	60.42
224.631	101.37
224.849	60.42
225.067	115.71
225.285	62.46
225.503	46.08
225.721	-29.7
225.939	52.22
226.157	64.51
226.375	117.76
226.592	113.66
226.81	62.46
227.028	68.61
227.246	68.61
227.464	68.61
227.682	-17.41
227.9	76.8
228.117	33.79
228.335	74.75
228.553	33.79
228.771	130.05
228.989	99.33
229.206	11.26
229.424	11.26
229.642	48.13
229.86	93.18
230.077	37.89
230.295	68.61
230.513	35.84
230.731	117.76
230.948	78.85
231.166	5.12
231.384	19.46
231.601	29.7
231.819	99.33
232.037	93.18
232.254	44.03
232.472	84.99
232.689	-68.61
232.907	130.05
233.125	44.03
233.342	76.8
233.56	103.42
233.777	21.5
233.995	97.28
234.213	76.8
234.43	52.22
234.648	72.7
234.865	80.89
235.083	54.27
235.3	1.02
235.518	125.95
235.735	62.46
235.953	117.76
236.17	101.37
236.388	-54.27
236.605	78.85
236.822	158.72
237.04	113.66
237.257	68.61
237.475	5.12
237.692	31.74
237.909	105.47
238.127	87.04
238.344	25.6
238.562	68.61
238.779	52.22
238.996	-11.26
239.214	60.42
239.431	111.61
239.648	-17.41
239.865	154.62
240.083	95.23
240.3	60.42
240.517	-17.41
240.735	109.57
240.952	70.65
241.169	52.22
241.386	19.46
241.603	35.84
241.821	35.84
242.038	66.56
242.255	80.89
242.472	27.65
242.689	117.76
242.907	66.56
243.124	46.08
243.341	78.85
243.558	56.32
243.775	31.74
243.992	7.17
244.209	93.18
244.426	103.42
244.643	39.94
244.86	101.37
245.078	44.03
245.295	111.61
245.512	117.76
245.729	56.32
245.946	158.72
246.163	60.42
246.38	52.22
246.597	39.94
246.814	25.6
247.031	68.61
247.248	101.37
247.464	89.09
247.681	66.56
247.898	60.42
248.115	70.65
248.332	62.46
248.549	82.94
248.766	87.04
248.983	119.81
249.2	44.03
249.417	115.71
249.633	76.8
249.85	68.61
250.067	37.89
250.284	91.13
250.501	46.08
250.717	35.84
250.934	-1.02
251.151	15.36
251.368	68.61
251.585	68.61
251.801	37.89
252.018	-9.22
252.235	125.95
252.451	5.12
252.668	62.46
252.885	54.27
253.102	78.85
253.318	76.8
253.535	11.26
253.752	95.23
253.968	103.42
254.185	-17.41
254.401	119.81
254.618	17.41
254.835	-11.26
255.051	37.89
255.268	91.13
255.484	-13.31
255.701	-21.5
255.917	84.99
256.134	35.84
256.351	72.7
256.567	33.79
256.784	60.42
257	11.26
257.217	136.19
257.433	37.89
257.65	84.99
257.866	111.61
258.082	54.27
258.299	27.65
258.515	109.57
258.732	35.84
258.948	105.47
259.165	121.85
259.381	74.75
259.597	44.03
259.814	50.18
260.03	19.46
260.246	119.81
260.463	109.57
260.679	152.57
260.895	11.26
261.112	3.07
261.328	44.03
261.544	19.46
261.761	89.09
261.977	3.07
262.193	21.5
262.409	105.47
262.626	52.22
262.842	166.91
263.058	103.42
263.274	68.61
263.49	150.53
263.707	134.14
263.923	35.84
264.139	44.03
264.355	17.41
264.571	87.04
264.787	56.32
265.004	109.57
265.22	64.51
265.436	35.84
265.652	68.61
265.868	35.84
266.084	52.22
266.3	119.81
266.516	89.09
266.732	68.61
266.948	66.56
267.164	50.18
267.38	68.61
267.596	95.23
267.812	125.95
268.028	39.94
268.244	56.32
268.46	52.22
268.676	87.04
268.892	109.57
269.108	58.37
269.324	15.36
269.54	29.7
269.756	80.89
269.972	46.08
270.188	44.03
270.403	31.74
270.619	37.89
270.835	138.24
271.051	87.04
271.267	113.66
271.483	44.03
271.698	84.99
271.914	101.37
272.13	70.65
272.346	35.84
272.562	-9.22
272.777	93.18
272.993	125.95
273.209	70.65
273.425	48.13
273.64	37.89
273.856	50.18
274.072	109.57
274.287	-13.31
274.503	44.03
274.719	39.94
274.934	78.85
275.15	44.03
275.366	15.36
275.581	-9.22
275.797	93.18
276.012	54.27
276.228	68.61
276.444	103.42
276.659	35.84
276.875	-66.56
277.09	70.65
277.306	27.65
277.521	152.57
277.737	7.17
277.952	62.46
278.168	58.37
278.383	128
278.599	48.13
278.814	23.55
279.03	7.17
279.245	74.75
279.461	70.65
279.676	44.03
279.892	105.47
280.107	64.51
280.322	44.03
280.538	101.37
280.753	41.98
280.969	109.57
281.184	84.99
281.399	78.85
281.615	56.32
281.83	44.03
282.045	-1.02
282.26	52.22
282.476	-5.12
282.691	84.99
282.906	44.03
283.122	56.32
283.337	52.22
283.552	60.42
283.767	41.98
283.983	-21.5
284.198	93.18
284.413	121.85
284.628	19.46
284.843	113.66
285.058	103.42
285.274	44.03
285.489	105.47
285.704	103.42
285.919	89.09
286.134	35.84
286.349	64.51
286.564	3.07
286.779	119.81
286.995	62.46
287.21	13.31
287.425	54.27
287.64	48.13
287.855	99.33
288.07	60.42
288.285	52.22
288.5	93.18
288.715	33.79
288.93	80.89
289.145	44.03
289.36	87.04
289.575	39.94
289.79	97.28
290.004	44.03
290.219	105.47
290.434	80.89
290.649	11.26
290.864	13.31
291.079	95.23
291.294	76.8
291.509	78.85
291.724	46.08
291.938	52.22
292.153	84.99
292.368	54.27
292.583	29.7
292.798	93.18
293.012	52.22
293.227	-50.18
293.442	-29.7
293.657	19.46
293.871	140.29
294.086	-13.31
294.301	125.95
294.516	50.18
294.73	39.94
294.945	89.09
295.16	76.8
295.374	128
295.589	146.43
295.804	-7.17
296.018	109.57
296.233	130.05
296.447	37.89
296.662	95.23
296.877	105.47
297.091	58.37
297.306	64.51
297.52	35.84
297.735	113.66
297.949	64.51
298.164	111.61
298.378	-5.12
298.593	27.65
298.807	-25.6
299.022	130.05
299.236	113.66
299.451	27.65
299.665	56.32
299.88	56.32
300.094	68.61
300.309	183.29
300.523	72.7
300.737	21.5
300.952	11.26
301.166	84.99
301.381	46.08
301.595	70.65
301.809	56.32
302.024	56.32
302.238	70.65
302.452	146.43
302.667	72.7
302.881	39.94
303.095	109.57
303.309	109.57
303.524	68.61
303.738	15.36
303.952	54.27
304.166	103.42
304.381	11.26
304.595	21.5
304.809	13.31
305.023	21.5
305.237	27.65
305.452	76.8
305.666	52.22
305.88	50.18
306.094	101.37
306.308	80.89
306.522	54.27
306.736	109.57
306.95	44.03
307.164	142.33
307.379	95.23
307.593	76.8
307.807	166.91
308.021	121.85
308.235	138.24
308.449	15.36
308.663	95.23
308.877	128
309.091	11.26
309.305	58.37
309.519	23.55
309.733	93.18
309.947	19.46
310.161	76.8
310.374	48.13
310.588	17.41
310.802	82.94
311.016	103.42
311.23	68.61
311.444	27.65
311.658	66.56
311.872	93.18
312.085	134.14
312.299	60.42
312.513	93.18
312.727	72.7
312.941	60.42
313.154	44.03
313.368	35.84
313.582	25.6
313.796	64.51
314.009	113.66
314.223	68.61
314.437	35.84
314.651	76.8
314.864	46.08
315.078	44.03
315.292	44.03
315.505	29.7
315.719	60.42
315.933	60.42
316.146	78.85
316.36	48.13
316.573	130.05
316.787	62.46
317.001	119.81
317.214	48.13
317.428	68.61
317.641	78.85
317.855	44.03
318.068	56.32
318.282	3.07
318.495	87.04
318.709	44.03
318.922	93.18
319.136	99.33
319.349	142.33
319.563	21.5
319.776	103.42
319.99	23.55
320.203	58.37
320.417	5.12
320.63	29.7
320.843	80.89
321.057	27.65
321.27	56.32
321.483	70.65
321.697	109.57
321.91	70.65
322.124	89.09
322.337	175.1
322.55	19.46
322.763	29.7
322.977	35.84
323.19	44.03
323.403	84.99
323.617	60.42
323.83	60.42
324.043	31.74
324.256	121.85
324.469	39.94
324.683	109.57
324.896	27.65
325.109	58.37
325.322	62.46
325.535	119.81
325.748	35.84
325.962	64.51
326.175	19.46
326.388	56.32
326.601	72.7
326.814	27.65
327.027	31.74
327.24	95.23
327.453	50.18
327.666	76.8
327.879	119.81
328.092	-60.42
328.305	84.99
328.518	3.07
328.731	76.8
328.944	35.84
329.157	80.89
329.37	80.89
329.583	91.13
329.796	134.14
330.009	35.84
330.222	91.13
330.435	19.46
330.648	109.57
330.861	78.85
331.073	62.46
331.286	64.51
331.499	119.81
331.712	35.84
331.925	-41.98
332.138	76.8
332.35	128
332.563	37.89
332.776	11.26
332.989	27.65
333.202	21.5
333.414	76.8
333.627	27.65
333.84	19.46
334.053	52.22
334.265	3.07
334.478	80.89
334.691	136.19
334.903	46.08
335.116	62.46
335.329	58.37
335.541	93.18
335.754	119.81
335.966	68.61
336.179	19.46
336.392	97.28
336.604	97.28
336.817	99.33
337.029	3.07
337.242	64.51
337.454	119.81
337.667	80.89
337.88	166.91
338.092	27.65
338.305	46.08
338.517	13.31
338.729	109.57
338.942	91.13
339.154	123.9
339.367	-29.7
339.579	78.85
339.792	7.17
340.004	48.13
340.217	68.61
340.429	68.61
340.641	80.89
340.854	-50.18
341.066	41.98
341.278	93.18
341.491	128
341.703	115.71
341.915	7.17
342.128	103.42
342.34	125.95
342.552	76.8
342.764	62.46
342.977	-7.17
343.189	99.33
343.401	60.42
343.613	72.7
343.826	27.65
344.038	70.65
344.25	54.27
344.462	-13.31
344.674	60.42
344.886	27.65
345.099	46.08
345.311	80.89
345.523	111.61
345.735	89.09
345.947	91.13
346.159	19.46
346.371	105.47
346.583	39.94
346.795	175.1
347.007	39.94
347.219	33.79
347.431	97.28
347.643	60.42
347.855	41.98
348.067	130.05
348.279	-9.22
348.491	78.85
348.703	64.51
348.915	95.23
349.127	48.13
349.339	80.89
349.551	72.7
349.763	35.84
349.975	1.02
350.187	72.7
350.399	82.94
350.61	138.24
350.822	52.22
351.034	72.7
351.246	11.26
351.458	17.41
351.669	76.8
351.881	44.03
352.093	27.65
352.305	115.71
352.517	144.38
352.728	25.6
352.94	107.52
353.152	80.89
353.363	62.46
353.575	113.66
353.787	125.95
353.999	19.46
354.21	105.47
354.422	70.65
354.633	3.07
354.845	31.74
355.057	142.33
355.268	84.99
355.48	68.61
355.692	-3.07
355.903	19.46
356.115	44.03
356.326	78.85
356.538	109.57
356.749	52.22
356.961	113.66
357.172	66.56
357.384	5.12
357.595	142.33
357.807	72.7
358.018	37.89
358.23	138.24
358.441	76.8
358.653	76.8
358.864	7.17
359.075	-70.65
359.287	60.42
359.498	39.94
359.709	93.18
359.921	48.13
360.132	70.65
360.344	72.7
360.555	101.37
360.766	44.03
360.977	44.03
361.189	95.23
361.4	21.5
361.611	125.95
361.823	111.61
362.034	121.85
362.245	93.18
362.456	93.18
362.667	-15.36
362.879	27.65
363.09	64.51
363.301	93.18
363.512	44.03
363.723	1.02
363.935	128
364.146	95.23
364.357	-11.26
364.568	29.7
364.779	35.84
364.99	91.13
365.201	107.52
365.412	89.09
365.623	37.89
365.834	103.42
366.045	48.13
366.256	87.04
366.467	76.8
366.678	35.84
366.889	72.7
367.1	13.31
367.311	93.18
367.522	48.13
367.733	68.61
367.944	99.33
368.155	52.22
368.366	142.33
368.577	138.24
368.788	130.05
368.999	60.42
369.209	134.14
369.42	89.09
369.631	121.85
369.842	48.13
370.053	23.55
370.264	177.15
370.474	-50.18
370.685	44.03
370.896	158.72
371.107	121.85
371.317	113.66
371.528	54.27
371.739	109.57
371.95	76.8
372.16	87.04
372.371	91.13
372.582	101.37
372.792	109.57
373.003	44.03
373.214	87.04
373.424	76.8
373.635	62.46
373.846	35.84
374.056	80.89
374.267	101.37
374.477	164.86
374.688	62.46
374.898	181.25
375.109	125.95
375.319	64.51
375.53	78.85
375.74	62.46
375.951	84.99
376.161	95.23
376.372	107.52
376.582	60.42
376.793	7.17
377.003	84.99
377.214	68.61
377.424	74.75
377.635	121.85
377.845	117.76
378.055	191.49
378.266	44.03
378.476	68.61
378.686	33.79
378.897	68.61
379.107	19.46
379.317	105.47
379.528	87.04
379.738	99.33
379.948	76.8
380.158	54.27
380.369	121.85
380.579	76.8
380.789	144.38
380.999	74.75
381.21	128
381.42	144.38
381.63	89.09
381.84	117.76
382.05	33.79
382.261	76.8
382.471	91.13
382.681	52.22
382.891	68.61
383.101	119.81
383.311	44.03
383.521	52.22
383.731	74.75
383.941	109.57
384.151	13.31
384.361	166.91
384.571	162.81
384.781	27.65
384.991	134.14
385.201	76.8
385.411	168.96
385.621	52.22
385.831	103.42
386.041	44.03
386.251	93.18
386.461	109.57
386.671	93.18
386.881	68.61
387.091	97.28
387.301	103.42
387.511	97.28
387.72	109.57
387.93	93.18
388.14	60.42
388.35	113.66
388.56	93.18
388.769	48.13
388.979	130.05
389.189	27.65
389.399	76.8
389.609	44.03
389.818	103.42
390.028	130.05
390.238	91.13
390.447	74.75
390.657	111.61
390.867	52.22
391.076	125.95
391.286	103.42
391.496	175.1
391.705	78.85
391.915	152.57
392.125	130.05
392.334	99.33
392.544	115.71
392.753	128
392.963	97.28
393.172	99.33
393.382	117.76
393.591	168.96
393.801	21.5
394.01	168.96
394.22	154.62
394.429	80.89
394.639	70.65
394.848	95.23
395.058	125.95
395.267	11.26
395.477	152.57
395.686	146.43
395.895	72.7
396.105	125.95
396.314	93.18
396.524	128
396.733	56.32
396.942	128
397.152	134.14
397.361	209.92
397.57	76.8
397.78	89.09
397.989	152.57
398.198	242.68
398.407	150.53
398.617	103.42
398.826	123.9
399.035	101.37
399.244	211.96
399.453	89.09
399.663	132.09
399.872	205.82
400.081	134.14
400.29	111.61
400.499	136.19
400.708	199.68
400.917	154.62
401.127	146.43
401.336	103.42
401.545	209.92
401.754	128
401.963	185.34
402.172	136.19
402.381	183.29
402.59	195.58
402.799	183.29
403.008	191.49
403.217	166.91
403.426	101.37
403.635	144.38
403.844	201.72
404.053	218.11
404.262	177.15
404.471	179.2
404.68	242.68
404.888	240.64
405.097	175.1
405.306	168.96
405.515	230.4
405.724	154.62
405.933	226.3
406.142	291.84
406.35	330.75
406.559	97.28
406.768	175.1
406.977	281.6
407.185	304.12
407.394	216.06
407.603	228.35
407.812	326.65
408.02	273.4
408.229	345.08
408.438	207.87
408.646	287.74
408.855	265.21
409.064	279.55
409.272	310.27
409.481	349.18
409.69	273.4
409.898	248.83
410.107	367.61
410.315	306.17
410.524	308.22
410.733	422.91
410.941	381.95
411.15	310.27
411.358	404.47
411.567	470.01
411.775	449.53
411.984	474.1
412.192	543.74
412.401	498.68
412.609	521.21
412.818	541.69
413.026	484.34
413.234	611.32
413.443	543.74
413.651	633.85
413.86	609.27
414.068	619.51
414.276	717.81
414.485	611.32
414.693	748.53
414.901	746.48
415.11	758.77
415.318	750.58
415.526	820.21
415.734	799.73
415.943	863.22
416.151	990.19
416.359	910.32
416.567	895.99
416.776	889.84
416.984	1070.06
417.192	998.38
417.4	1086.45
417.608	1025.01
417.817	1084.4
418.025	1151.98
418.233	1203.18
418.441	1272.81
418.649	1213.42
418.857	1493.99
419.065	1401.83
419.273	1420.27
419.481	1362.92
419.689	1522.66
419.897	1610.73
420.105	1543.14
420.313	1772.52
420.521	1612.78
420.729	1715.17
420.937	1817.57
421.145	1774.56
421.353	1962.98
421.561	1858.53
421.769	2079.71
421.977	2186.21
422.185	2137.06
422.393	2268.13
422.601	2526.17
422.809	2345.95
423.017	2460.63
423.224	2372.57
423.432	2522.07
423.64	2603.99
423.848	2814.93
424.056	2790.36
424.263	3060.69
424.471	2972.63
424.679	3044.31
424.887	3292.11
425.094	3310.54
425.302	3423.18
425.51	3476.43
425.718	3537.87
425.925	3705.8
426.133	3789.77
426.341	3918.79
426.548	4121.54
426.756	4019.14
426.964	4316.09
427.171	4346.81
427.379	4471.74
427.586	4660.15
427.794	4721.59
428.001	4912.05
428.209	5073.84
428.417	5049.27
428.624	5473.2
428.832	5510.06
429.039	5503.92
429.247	5385.13
429.454	5843.88
429.662	6319.01
429.869	5964.71
430.076	6419.36
430.284	6163.36
430.491	6421.41
430.699	6804.38
430.906	6828.95
431.114	6818.71
431.321	7091.09
431.528	7203.73
431.736	7850.89
431.943	8117.12
432.15	7844.74
432.358	7803.78
432.565	8403.84
432.772	8217.47
432.979	8774.52
433.187	8835.96
433.394	9038.71
433.601	9368.43
433.808	9526.13
434.016	9560.94
434.223	9925.48
434.43	10496.86
434.637	10533.73
434.844	10955.61
435.052	11053.91
435.259	11035.48
435.466	11207.51
435.673	11088.73
435.88	11531.09
436.087	12522.3
436.294	12507.97
436.501	12028.74
436.708	12436.29
436.915	12700.48
437.122	13439.79
437.329	13198.13
437.537	13652.78
437.743	14177.06
437.95	13984.55
438.157	14691.1
438.364	14979.87
438.571	14650.14
438.778	15229.72
438.985	16409.35
439.192	15743.76
439.399	16542.47
439.606	16104.2
439.813	17013.5
440.02	17955.57
440.227	17568.5
440.433	17486.58
440.64	18078.44
440.847	17738.48
441.054	18246.38
441.261	19509.97
441.467	19593.94
441.674	19958.48
441.881	20515.53
442.088	20468.42
442.294	20087.5
442.501	20669.12
442.708	21230.27
442.914	21711.54
443.121	22682.28
443.328	22389.42
443.534	23937.68
443.741	23247.52
443.948	22688.42
444.154	24644.23
444.361	24138.38
444.568	24494.73
444.774	24486.54
444.981	25008.77
445.187	25723.51
445.394	26897
445.6	26096.24
445.807	29071.94
446.013	27558.49
446.22	28234.32
446.426	29205.06
446.633	29614.65
446.839	30906.92
447.046	29348.42
447.252	30827.05
447.459	31185.44
447.665	31214.12
447.871	32371.22
448.078	33561.09
448.284	32121.37
448.491	32723.47
448.697	34345.46
448.903	34939.37
449.11	35250.66
449.316	34441.71
449.522	35068.39
449.728	36045.27
449.935	36667.86
450.141	36585.94
450.347	37351.88
450.553	36084.19
450.76	36747.73
450.966	37607.87
451.172	37102.03
451.378	38478.26
451.584	37474.76
451.791	38578.61
451.997	38435.25
452.203	39303.59
452.409	39045.55
452.615	38941.1
452.821	37802.43
453.027	37093.83
453.233	39088.56
453.44	37796.29
453.646	38105.53
453.852	38058.43
454.058	39436.71
454.264	37343.69
454.47	38650.29
454.676	37814.72
454.882	39215.53
455.088	35621.34
455.294	36504.02
455.5	36798.93
455.705	37349.83
455.911	35928.54
456.117	35086.82
456.323	34781.68
456.529	32883.21
456.735	34650.61
456.941	33890.81
457.147	32983.56
457.352	32039.45
457.558	31771.16
457.764	31658.52
457.97	31146.53
458.176	30868.01
458.381	30775.85
458.587	29366.85
458.793	29121.09
458.999	27841.11
459.204	29903.42
459.41	28887.62
459.616	27345.5
459.821	27312.74
460.027	27232.86
460.233	26831.46
460.438	25102.98
460.644	25467.52
460.85	24281.74
461.055	23671.45
461.261	23796.37
461.466	21985.97
461.672	21752.5
461.878	23028.38
462.083	21652.15
462.289	21111.49
462.494	20990.66
462.7	19964.62
462.905	19434.2
463.111	19911.38
463.316	20337.35
463.522	19759.83
463.727	19956.43
463.932	20005.58
464.138	19546.84
464.343	19804.88
464.549	19026.65
464.754	19770.07
464.959	19665.62
465.165	19630.8
465.37	18690.79
465.575	18070.25
465.781	19053.28
465.986	18928.35
466.191	18322.15
466.397	18006.77
466.602	17015.55
466.807	17806.06
467.012	17922.8
467.218	17826.54
467.423	17312.5
467.628	17863.41
467.833	18197.23
468.038	17474.29
468.244	16888.57
468.449	17867.5
468.654	17255.16
468.859	17017.6
469.064	16923.39
469.269	16395.01
469.474	16454.4
469.679	16993.02
469.885	16415.49
470.09	16327.43
470.295	16534.28
470.5	15956.75
470.705	16313.1
470.91	15903.5
471.115	15717.14
471.32	16126.73
471.525	15915.79
471.73	15733.52
471.935	15553.3
472.139	14895.9
472.344	15356.69
472.549	14883.61
472.754	14861.09
472.959	14519.07
473.164	14103.34
473.369	14191.4
473.574	14719.78
473.778	14291.75
473.983	14367.52
474.188	14306.09
474.393	13830.96
474.598	13722.41
474.802	13454.13
475.007	13474.61
475.212	13404.98
475.417	12964.67
475.621	13036.35
475.826	13073.21
476.031	12563.26
476.235	12571.46
476.44	12692.29
476.645	12759.87
476.849	12448.58
477.054	12389.19
477.259	12235.59
477.463	12233.54
477.668	12088.14
477.872	12020.55
478.077	11998.02
478.282	11516.75
478.486	11463.51
478.691	11416.4
478.895	11424.59
479.1	11420.5
479.304	11301.72
479.509	10783.58
479.713	11115.35
479.918	10812.25
480.122	10785.63
480.326	11033.43
480.531	10869.59
480.735	10656.61
480.94	10513.25
481.144	10840.92
481.348	10683.23
481.553	10793.82
481.757	10523.49
481.961	10584.93
482.166	10742.62
482.37	10439.52
482.574	10361.7
482.778	10388.32
482.983	10709.85
483.187	10429.28
483.391	10599.26
483.595	10404.71
483.8	10333.03
484.004	10244.96
484.208	10589.02
484.412	10341.22
484.616	10468.19
484.821	10656.61
485.025	10206.05
485.229	10638.17
485.433	10507.1
485.637	10445.66
485.841	10333.03
486.045	10343.27
486.249	10462.05
486.453	10386.27
486.657	10517.34
486.861	10398.56
487.065	10328.93
487.269	10353.51
487.473	10232.68
487.677	10447.71
487.881	10652.51
488.085	10472.29
488.289	10541.92
488.493	10496.86
488.697	10781.53
488.901	10556.25
489.105	10488.67
489.309	10767.2
489.512	10638.17
489.716	10679.13
489.92	10568.54
490.124	10591.07
490.328	10736.48
490.531	10734.43
490.735	10935.13
490.939	10978.14
491.143	10779.48
491.346	10703.71
491.55	10988.38
491.754	11094.87
491.958	10974.04
492.161	11094.87
492.365	11170.65
492.569	11299.67
492.772	11184.98
492.976	11320.15
493.18	11199.32
493.383	11549.52
493.587	11785.04
493.79	11588.43
493.994	11656.01
494.197	11483.98
494.401	11840.33
494.605	11801.42
494.808	12104.52
495.012	12061.51
495.215	12196.68
495.419	12317.51
495.622	12024.65
495.825	12401.47
496.029	12544.83
496.232	12753.73
496.436	12348.23
496.639	13237.05
496.843	13085.5
497.046	13108.02
497.249	13257.53
497.453	13286.2
497.656	13384.5
497.859	13650.74
498.063	13720.37
498.266	14273.32
498.469	14105.38
498.673	14045.99
498.876	14437.16
499.079	14547.75
499.282	14508.83
499.485	15123.23
499.689	14945.05
499.892	15256.34
500.095	15264.54
500.298	15655.7
500.501	15371.03
500.705	15823.63
500.908	16186.12
501.111	16227.08
501.314	16560.9
501.517	16612.1
501.72	16904.96
501.923	16720.64
502.126	17294.07
502.329	17550.07
502.532	17742.58
502.735	17640.18
502.938	18088.68
503.141	18141.93
503.344	18299.62
503.547	18629.35
503.75	18950.88
503.953	19208.92
504.156	19116.76
504.359	19806.93
504.562	19606.23
504.765	20122.32
504.968	20132.56
505.17	20429.51
505.373	20460.23
505.576	21000.9
505.779	21041.85
505.982	21287.61
506.185	21559.99
506.387	21324.47
506.59	21844.66
506.793	22440.62
506.996	22153.9
507.198	23028.38
507.401	22837.92
507.604	23046.82
507.807	23536.28
508.009	23661.21
508.212	24011.41
508.415	24189.58
508.617	24476.3
508.82	24865.41
509.022	24443.53
509.225	25131.65
509.428	25432.7
509.63	25563.77
509.833	25770.61
510.035	26917.48
510.238	26645.1
510.44	26622.57
510.643	27134.56
510.845	27521.63
511.048	27329.12
511.25	27771.48
511.453	27908.69
511.655	28889.67
511.858	28660.3
512.06	28906.05
512.262	29182.53
512.465	29442.62
512.667	29854.26
512.87	30372.4
513.072	30237.23
513.274	30978.6
513.477	31025.7
513.679	30812.71
513.881	31791.64
514.084	32256.53
514.286	31701.53
514.488	32451.09
514.69	33440.26
514.893	33325.57
515.095	33155.59
515.297	33817.08
515.499	34097.66
515.701	34394.61
515.904	34583.02
516.106	34802.16
516.308	35342.82
516.51	35938.78
516.712	35512.8
516.914	36055.51
517.116	37290.44
517.318	36694.48
517.52	36667.86
517.722	37337.54
517.925	37505.48
518.127	38144.44
518.329	38652.34
518.531	38654.39
518.733	39119.28
518.935	39324.07
519.136	39430.57
519.338	39780.77
519.54	40135.07
519.742	40763.79
519.944	40755.6
520.146	41146.76
520.348	41361.8
520.55	41972.1
520.752	41564.55
520.954	42383.74
521.155	42465.66
521.357	43024.75
521.559	43413.87
521.761	43716.96
521.963	43524.46
522.164	44054.88
522.366	44081.5
522.568	44613.98
522.77	44777.81
522.971	45248.85
523.173	45224.27
523.375	45621.58
523.576	45883.72
523.778	45904.2
523.98	46477.63
524.181	46539.07
524.383	46700.86
524.584	47329.58
524.786	47155.5
524.988	47522.09
525.189	47694.12
525.391	48191.78
525.592	48398.62
525.794	48441.63
525.995	48171.3
526.197	48384.29
526.398	48576.79
526.6	49191.19
526.801	49373.45
527.003	49770.76
527.204	49744.14
527.406	49840.39
527.607	49950.98
527.808	50381.06
528.01	49496.33
528.211	49881.35
528.412	50807.03
528.614	50518.27
528.815	50508.03
529.016	50880.76
529.218	50336
529.419	51058.93
529.62	51044.6
529.822	51020.02
530.023	51202.29
530.224	51099.89
530.425	50995.45
530.626	51224.82
530.828	50938.1
531.029	51917.03
531.23	51347.7
531.431	51056.88
531.632	51458.29
531.833	52029.67
532.035	51714.28
532.236	51957.99
532.437	52222.18
532.638	51941.61
532.839	52121.83
533.04	52232.42
533.241	51491.05
533.442	52762.84
533.643	52041.96
533.844	52338.91
534.045	51902.7
534.246	51808.49
534.447	52510.94
534.648	52025.57
534.849	52459.74
535.05	51925.22
535.251	52336.87
535.451	52365.54
535.652	52218.08
535.853	52512.99
536.054	52402.4
536.255	52560.09
536.456	52199.65
536.657	53012.7
536.857	52377.82
537.058	52093.16
537.259	52629.72
537.46	52375.78
537.66	52879.58
537.861	52375.78
538.062	52478.18
538.263	52353.25
538.463	52232.42
538.664	52400.35
538.865	52685.02
539.065	52736.22
539.266	51978.47
539.466	52666.59
539.667	52244.71
539.868	52746.46
540.068	52320.48
540.269	52314.34
540.469	52959.45
540.67	51953.9
540.87	52179.17
541.071	52467.94
541.271	52216.04
541.472	52050.15
541.672	51953.9
541.873	52199.65
542.073	51446
542.274	52467.94
542.474	52283.62
542.675	51843.3
542.875	52508.89
543.075	52420.83
543.276	51886.31
543.476	52951.26
543.676	51804.39
543.877	51976.42
544.077	52820.19
544.277	52277.47
544.478	52027.62
544.678	52195.56
544.878	52175.08
545.078	52256.99
545.279	51978.47
545.479	51945.7
545.679	52031.72
545.879	51792.11
546.079	52056.29
546.28	52107.49
546.48	51175.67
546.68	51802.35
546.88	52125.92
547.08	51945.7
547.28	51884.26
547.48	51572.97
547.68	51917.03
547.88	51527.92
548.081	51888.36
548.281	51833.07
548.481	51796.2
548.681	52154.6
548.881	51724.52
549.081	51747.05
549.28	51484.91
549.48	52076.77
549.68	51765.48
549.88	52551.9
550.08	51521.77
550.28	52068.58
550.48	51699.95
550.68	51665.13
550.88	51511.53
551.08	51179.76
551.279	51433.71
551.479	51036.41
551.679	51951.85
551.879	51552.49
552.079	52011.24
552.278	51468.53
552.478	51697.9
552.678	51572.97
552.878	51482.86
553.077	51575.02
553.277	51140.85
553.477	51761.39
553.676	51396.85
553.876	51474.67
554.076	51249.39
554.275	51210.48
554.475	50903.29
554.674	51144.95
554.874	51462.38
555.074	50964.73
555.273	51269.87
555.473	51476.72
555.672	50809.08
555.872	51050.74
556.071	51144.95
556.271	51290.35
556.47	50821.37
556.67	50589.95
556.869	50755.83
557.068	50702.59
557.268	50635
557.467	51011.83
557.667	50790.65
557.866	50991.35
558.065	50819.32
558.265	50200.83
558.464	50004.23
558.663	50921.72
558.863	49742.09
559.062	50772.22
559.261	50374.91
559.461	50579.71
559.66	50039.04
559.859	50127.11
560.058	49840.39
560.258	50397.44
560.457	49250.58
560.656	50280.7
560.855	49367.31
561.054	49611.02
561.253	49668.36
561.453	49950.98
561.652	50141.44
561.851	50010.37
562.05	49381.65
562.249	49441.04
562.448	49594.64
562.647	49324.3
562.846	49379.6
563.045	49160.47
563.244	49447.18
563.443	49651.98
563.642	48996.63
563.841	49369.36
564.04	49406.22
564.239	49445.13
564.438	48574.75
564.637	48931.09
564.836	48961.81
565.035	48509.21
565.234	48699.67
565.432	48300.32
565.631	48255.26
565.83	48720.15
566.029	48505.12
566.228	48380.19
566.427	47989.03
566.625	47661.35
566.824	47395.12
567.023	48087.33
567.222	47298.86
567.42	48503.07
567.619	47984.93
567.818	47649.06
568.016	47300.91
568.215	47821.09
568.414	47495.47
568.612	47618.35
568.811	47153.46
569.01	47440.17
569.208	47079.73
569.407	47034.67
569.605	46618.94
569.804	47059.25
570.002	46287.17
570.201	46993.71
570.4	46569.79
570.598	46379.32
570.797	46283.07
570.995	46678.33
571.193	45859.14
571.392	46471.48
571.59	45863.24
571.789	46258.49
571.987	46108.99
572.186	45513.03
572.384	45408.59
572.582	45865.28
572.781	45799.75
572.979	45183.31
573.177	45300.04
573.376	45367.63
573.574	45029.71
573.772	45441.35
573.971	45150.54
574.169	44466.52
574.367	44669.27
574.565	44898.64
574.763	44745.05
574.962	44360.03
575.16	44067.17
575.358	44456.28
575.556	43891.04
575.754	44634.45
575.952	43966.82
576.151	43958.63
576.349	43786.6
576.547	43313.52
576.745	43374.95
576.943	43522.41
577.141	43233.64
577.339	43759.97
577.537	43227.5
577.735	43311.47
577.933	42783.09
578.131	43137.39
578.329	42811.76
578.527	42424.7
578.725	42389.88
578.923	42525.05
579.121	42537.33
579.319	42457.46
579.516	42131.84
579.714	42570.1
579.912	41976.19
580.11	41988.48
580.308	42051.97
580.506	41898.37
580.704	41206.16
580.901	41722.24
581.099	41392.52
581.297	41154.96
581.495	40796.56
581.692	41296.27
581.89	41435.53
582.088	41343.37
582.285	40604.05
582.483	41200.01
582.681	40870.29
582.878	40483.22
583.076	40450.45
583.274	40716.69
583.471	39983.52
583.669	40391.06
583.866	39850.4
584.064	40346.01
584.262	39420.33
584.459	39748
584.657	39776.67
584.854	39711.14
585.052	38961.58
585.249	39616.93
585.447	39440.81
585.644	38945.2
585.841	39035.31
586.039	39410.09
586.236	38824.37
586.434	38660.53
586.631	38584.76
586.828	39000.49
587.026	38705.59
587.223	38709.68
587.42	38103.48
587.618	38236.6
587.815	37820.86
588.012	38019.52
588.21	37691.84
588.407	38199.74
588.604	37884.35
588.801	37423.56
588.999	37374.41
589.196	37603.78
589.393	37222.86
589.59	36942.28
589.787	37169.61
589.984	36682.19
590.182	36329.94
590.379	36717.01
590.576	36592.08
590.773	36764.11
590.97	36084.19
591.167	36723.15
591.364	36096.47
591.561	36336.09
591.758	35906.01
591.955	36127.19
592.152	36032.99
592.349	35592.67
592.546	35781.09
592.743	35477.99
592.94	35178.98
593.137	35166.7
593.334	35652.06
593.531	35064.3
593.727	35250.66
593.924	35385.83
594.121	34681.33
594.318	35193.32
594.515	34537.97
594.712	34931.18
594.908	34750.96
595.105	34679.28
595.302	34388.47
595.499	34171.38
595.696	34232.82
595.892	33952.25
596.089	33927.67
596.286	33776.12
596.482	33757.69
596.679	33737.21
596.876	33561.09
597.072	33286.66
597.269	33475.07
597.466	33229.32
597.662	33141.25
597.859	33186.31
598.055	33301
598.252	32887.31
598.448	32842.25
598.645	32803.34
598.841	32475.66
599.038	32520.72
599.234	32299.54
599.431	32180.76
599.627	32076.31
599.824	32272.92
600.02	32236.05
600.217	31676.96
600.413	32104.98
600.609	31818.27
600.806	31715.87
601.002	31758.88
601.198	31423.01
601.395	31476.26
601.591	31382.05
601.787	31425.06
601.984	31171.11
602.18	31169.06
602.376	31031.85
602.572	30986.79
602.769	30505.52
602.965	30677.55
603.161	30695.98
603.357	30530.09
603.553	30233.14
603.75	30474.8
603.946	30276.15
604.142	30212.66
604.338	29715
604.534	29940.28
604.73	29663.8
604.926	29585.98
605.122	29868.6
605.318	29336.13
605.514	29426.24
605.71	29323.84
605.906	29575.74
606.102	29047.36
606.298	29100.61
606.494	28785.22
606.69	29043.27
606.886	29137.48
607.082	28754.51
607.278	29098.56
607.474	28547.66
607.67	28885.58
607.866	28598.86
608.062	28600.91
608.257	28432.97
608.453	28437.07
608.649	28224.08
608.845	27945.56
609.041	28148.31
609.236	28078.68
609.432	27906.65
609.628	28148.31
609.824	27603.55
610.019	27920.98
610.215	27712.09
610.411	27873.88
610.606	27722.33
610.802	27914.84
610.998	27910.74
611.193	28074.58
611.389	27304.54
611.584	26974.82
611.78	26954.34
611.976	27384.41
612.171	27411.04
612.367	27142.75
612.562	27218.53
612.758	26892.9
612.953	26714.73
613.149	27028.07
613.344	26442.35
613.539	27097.7
613.735	26757.74
613.93	26976.87
614.126	26573.42
614.321	26782.31
614.517	26366.57
614.712	26554.99
614.907	26366.57
615.103	26686.06
615.298	26047.09
615.493	26372.72
615.688	26118.77
615.884	26608.23
616.079	25858.68
616.274	26143.35
616.47	25844.34
616.665	25887.35
616.86	25938.55
617.055	25918.07
617.25	25795.19
617.445	25854.58
617.641	25600.63
617.836	25930.36
618.031	25326.21
618.226	25827.96
618.421	25254.53
618.616	25502.33
618.811	24984.19
619.006	25195.14
619.201	24681.1
619.396	25205.38
619.591	24578.7
619.786	24599.18
619.981	24631.94
620.176	24556.17
620.371	24443.53
620.566	24111.76
620.761	24201.87
620.956	24281.74
621.151	23630.49
621.346	24285.84
621.541	23554.71
621.735	23968.4
621.93	23376.54
622.125	23517.85
622.32	23366.3
622.515	23339.68
622.709	22995.62
622.904	22678.18
623.099	22768.29
623.294	22743.72
623.488	22504.1
623.683	22690.47
623.878	22231.72
624.072	22463.15
624.267	21951.15
624.462	22264.49
624.656	21650.1
624.851	21990.06
625.046	21596.85
625.24	21494.46
625.435	21220.03
625.629	21328.57
625.824	21242.56
626.018	21031.62
626.213	20660.93
626.407	21205.69
626.602	20429.51
626.796	20841.15
626.991	20949.7
627.185	20560.58
627.38	20222.67
627.574	19894.99
627.768	19942.1
627.963	19958.48
628.157	19890.9
628.352	19839.7
628.546	19514.07
628.74	19753.68
628.935	19354.33
629.129	19237.59
629.323	19151.58
629.517	19038.94
629.712	18848.48
629.906	18959.07
630.1	18385.64
630.294	18735.84
630.489	18594.53
630.683	18612.96
630.877	18488.04
631.071	18344.68
631.265	18414.31
631.459	18205.42
631.653	18137.84
631.848	17971.95
632.042	18090.73
632.236	17740.53
632.43	17533.68
632.624	17744.63
632.818	17322.74
633.012	17320.7
633.206	17318.65
633.4	17521.4
633.594	17169.15
633.788	17275.64
633.982	17017.6
634.176	16882.43
634.369	16835.33
634.563	16870.14
634.757	16384.77
634.951	16421.64
635.145	16630.53
635.339	16399.11
635.533	16388.87
635.726	16511.75
635.92	15952.65
636.114	16253.7
636.308	16030.48
636.501	15852.3
636.695	15790.86
636.889	15676.18
637.083	15483.67
637.276	15553.3
637.47	15414.04
637.664	15510.29
637.857	15221.53
638.051	15186.71
638.244	15059.74
638.438	15096.6
638.632	15149.85
638.825	14842.65
639.019	14809.89
639.212	14807.84
639.406	14818.08
639.599	14488.35
639.793	14502.69
639.986	14289.7
640.18	14168.87
640.373	14267.17
640.567	13964.07
640.76	14211.88
640.954	14093.1
641.147	14056.23
641.34	14000.94
641.534	13914.92
641.727	13810.48
641.92	13755.18
642.114	13552.43
642.307	13488.95
642.5	13431.6
642.694	12970.81
642.887	13265.72
643.08	13159.22
643.273	13204.28
643.467	12915.51
643.66	12852.03
643.853	12954.43
644.046	12852.03
644.239	12817.21
644.432	12634.94
644.626	12710.72
644.819	12434.24
645.012	12493.63
645.205	12569.41
645.398	12317.51
645.591	12284.74
645.784	12323.65
645.977	12030.79
646.17	11989.83
646.363	11903.82
646.556	11834.19
646.749	11893.58
646.942	11887.43
647.135	11819.85
647.328	11901.77
647.521	11688.78
647.714	11516.75
647.907	11379.54
648.099	11336.53
648.292	11496.27
648.485	11213.65
648.678	10941.27
648.871	11127.64
649.064	11055.96
649.256	11033.43
649.449	11129.69
649.642	10658.65
649.835	10826.59
650.027	10763.1
650.22	10898.27
650.413	10656.61
650.605	10685.28
650.798	10460
650.991	10333.03
651.183	10328.93
651.376	10416.99
651.568	10281.83
651.761	10447.71
651.954	10201.96
652.146	10345.31
652.339	9980.78
652.531	10087.27
652.724	9925.48
652.916	10011.5
653.109	9900.9
653.301	9812.84
653.494	9839.47
653.686	9423.73
653.879	9825.13
654.071	9522.03
654.263	9309.04
654.456	9554.8
654.648	9536.37
654.84	9393.01
655.033	9212.79
655.225	9329.52
655.417	9182.07
655.61	9227.12
655.802	9096.05
655.994	9048.95
656.186	9169.78
656.379	8717.18
656.571	8862.58
656.763	8534.91
656.955	8563.58
657.148	8825.72
657.34	8598.4
657.532	8553.34
657.724	8682.36
657.916	8610.68
658.108	8502.14
658.3	8346.5
658.492	8344.45
658.684	8362.88
658.876	8295.3
659.068	8262.53
659.26	8180.61
659.452	8188.8
659.644	8221.57
659.836	8110.98
660.028	7971.72
660.22	7941
660.412	7910.28
660.604	7752.59
660.796	7797.64
660.988	7594.89
661.18	7768.97
661.372	7668.62
661.563	7674.76
661.755	7437.2
661.947	7670.67
662.139	7412.62
662.331	7363.47
662.522	7340.94
662.714	7392.14
662.906	7265.17
663.097	7199.63
663.289	7213.97
663.481	7000.98
663.673	7130
663.864	7058.32
664.056	7138.2
664.247	6984.6
664.439	6806.42
664.631	6898.58
664.822	6761.37
665.014	6814.62
665.205	6679.45
665.397	6734.75
665.588	6740.89
665.78	6658.97
665.971	6591.39
666.163	6636.44
666.354	6544.28
666.546	6491.04
666.737	6517.66
666.929	6491.04
667.12	6402.97
667.311	6450.08
667.503	6212.51
667.694	6259.62
667.885	6425.5
668.077	6245.28
668.268	6034.34
668.459	6214.56
668.651	6065.06
668.842	6200.23
669.033	6058.92
669.224	5944.23
669.416	5999.52
669.607	6011.81
669.798	5815.21
669.989	5968.8
670.18	5741.48
670.371	5911.46
670.563	5614.51
670.754	5747.62
670.945	5702.57
671.136	5671.85
671.327	5591.98
671.518	5411.76
671.709	5708.71
671.9	5575.59
672.091	5434.29
672.282	5483.44
672.473	5514.16
672.664	5405.61
672.855	5321.65
673.046	5413.81
673.237	5360.56
673.428	5544.88
673.619	5393.33
673.809	5270.45
674	5196.72
674.191	5036.98
674.382	5245.87
674.573	5229.49
674.764	5192.62
674.954	5174.19
675.145	5143.47
675.336	5120.95
675.527	5098.42
675.717	5170.1
675.908	5004.21
676.099	5018.55
676.289	5090.23
676.48	4991.92
676.671	5006.26
676.861	4828.09
677.052	4897.72
677.243	4858.81
677.433	4836.28
677.624	4996.02
677.814	4692.92
678.005	4895.67
678.195	4910.01
678.386	4764.6
678.576	4893.62
678.767	4758.46
678.957	4869.05
679.148	4758.46
679.338	4606.91
679.529	4774.84
679.719	4602.81
679.909	4578.23
680.1	4611
680.29	4617.15
680.481	4549.56
680.671	4475.84
680.861	4510.65
681.052	4522.94
681.242	4541.37
681.432	4578.23
681.622	4559.8
681.813	4418.49
682.003	4520.89
682.193	4338.62
682.383	4467.64
682.573	4318.14
682.764	4398.01
682.954	4316.09
683.144	4344.77
683.334	4320.19
683.524	4207.55
683.714	4295.61
683.904	4352.96
684.094	4281.28
684.284	4363.2
684.474	4344.77
684.664	4379.58
684.854	4277.18
685.044	4172.74
685.234	4225.98
685.424	4191.17
685.614	4225.98
685.804	4242.37
685.994	4199.36
686.184	4156.35
686.374	4113.35
686.564	4146.11
686.753	3976.13
686.943	4191.17
687.133	4240.32
687.323	4033.47
687.513	4074.43
687.702	4025.28
687.892	3996.61
688.082	3972.04
688.272	4010.95
688.461	3918.79
688.651	4010.95
688.841	3939.27
689.03	3947.46
689.22	3937.22
689.41	4041.67
689.599	3992.52
689.789	3853.25
689.979	3871.68
690.168	3992.52
690.358	3802.05
690.547	3902.4
690.737	3742.66
690.926	3922.88
691.116	3738.57
691.305	3867.59
691.495	3711.94
691.684	3881.92
691.874	3853.25
692.063	3724.23
692.252	3761.09
692.442	3824.58
692.631	3707.85
692.82	3697.61
693.01	3757
693.199	3800.01
693.388	3658.7
693.578	3648.46
693.767	3619.78
693.956	3527.63
694.146	3591.11
694.335	3492.81
694.524	3654.6
694.713	3689.42
694.902	3535.82
695.092	3509.19
695.281	3527.63
695.47	3386.32
695.659	3562.44
695.848	3519.43
696.037	3394.51
696.226	3400.65
696.415	3394.51
696.604	3562.44
696.793	3328.97
696.982	3527.63
697.171	3468.24
697.36	3412.94
697.549	3439.56
697.738	3427.28
697.927	3390.41
698.116	3230.67
698.305	3290.06
698.494	3419.08
698.683	3277.77
698.872	3283.92
699.061	3236.81
699.25	3140.56
699.438	3374.03
699.627	3341.26
699.816	3355.6
700.005	3193.81
700.193	3296.21
700.382	3247.05
700.571	3298.25
700.76	3249.1
700.948	3152.85
701.137	3257.29
701.326	3234.77
701.514	3177.42
701.703	3232.72
701.892	3095.5
702.08	3199.95
702.269	3142.61
702.457	3126.22
702.646	3130.32
702.834	3019.73
703.023	2991.06
703.212	3255.25
703.4	3134.42
703.589	3091.41
703.777	2993.11
703.965	2984.91
704.154	3077.07
704.342	3050.45
704.531	2956.24
704.719	3044.31
704.907	2966.48
705.096	2896.85
705.284	3036.11
705.472	3150.8
705.661	2917.33
705.849	2948.05
706.037	2993.11
706.226	2829.27
706.414	2931.67
706.602	3007.44
706.79	2964.43
706.979	2952.15
707.167	2993.11
707.355	2835.41
707.543	2903
707.731	2943.96
707.919	2872.28
708.107	2935.76
708.296	2857.94
708.484	2812.89
708.672	2784.21
708.86	2894.8
709.048	2747.35
709.236	2698.2
709.424	2958.29
709.612	2831.32
709.8	2878.42
709.988	2790.36
710.176	2755.54
710.364	2816.98
710.551	2776.02
710.739	2810.84
710.927	2792.41
711.115	2788.31
711.303	2690.01
711.491	2804.69
711.679	2669.53
711.866	2696.15
712.054	2816.98
712.242	2780.12
712.43	2706.39
712.617	2712.53
712.805	2743.25
712.993	2821.08
713.181	2669.53
713.368	2616.28
713.556	2665.43
713.744	2501.59
713.931	2608.09
714.119	2665.43
714.306	2700.25
714.494	2591.7
714.682	2558.94
714.869	2569.18
715.057	2575.32
715.244	2538.46
715.432	2472.92
715.619	2640.86
715.807	2655.19
715.994	2552.79
716.182	2515.93
716.369	2649.05
716.556	2507.74
716.744	2575.32
716.931	2534.36
717.119	2540.51
717.306	2513.88
717.493	2542.55
717.681	2526.17
717.868	2477.02
718.055	2528.22
718.242	2397.15
718.43	2493.4
718.617	2386.91
718.804	2450.39
718.991	2522.07
719.179	2372.57
719.366	2407.39
719.553	2427.87
719.74	2388.96
719.927	2468.83
720.114	2393.05
720.301	2444.25
720.488	2452.44
720.676	2358.24
720.863	2337.76
721.05	2421.72
721.237	2378.72
721.424	2313.18
721.611	2309.08
721.798	2354.14
721.985	2309.08
722.172	2257.89
722.358	2337.76
722.545	2272.22
722.732	2421.72
722.919	2302.94
723.106	2268.13
723.293	2231.26
723.48	2374.62
723.667	2200.54
723.853	2202.59
724.04	2393.05
724.227	2175.97
724.414	2165.73
724.6	2329.56
724.787	2194.4
724.974	2292.7
725.161	2053.09
725.347	2173.92
725.534	2239.45
725.72	2253.79
725.907	2235.36
726.094	2145.25
726.28	1999.84
726.467	2085.86
726.653	2182.11
726.84	2178.01
727.027	2198.49
727.213	2096.1
727.4	2141.15
727.586	2124.77
727.773	2083.81
727.959	2165.73
728.145	2198.49
728.332	2094.05
728.518	2067.42
728.705	2137.06
728.891	2067.42
729.077	2143.2
729.264	2114.53
729.45	2010.08
729.636	2067.42
729.823	1977.31
730.009	2194.4
730.195	1942.5
730.382	2132.96
730.568	2016.23
730.754	2051.04
730.94	1944.55
731.126	2145.25
731.313	1962.98
731.499	2116.58
731.685	1969.12
731.871	1991.65
732.057	2083.81
732.243	1952.74
732.429	1936.35
732.615	2034.66
732.801	1977.31
732.987	1928.16
733.173	2001.89
733.359	2051.04
733.545	1973.22
733.731	1962.98
733.917	1967.07
734.103	2012.13
734.289	1952.74
734.475	1930.21
734.661	2034.66
734.847	1981.41
735.033	1840.1
735.219	1864.68
735.404	1928.16
735.59	1971.17
735.776	1969.12
735.962	1950.69
736.148	1997.79
736.333	2010.08
736.519	1891.3
736.705	1899.49
736.89	1846.24
737.076	1924.07
737.262	1782.76
737.447	1805.28
737.633	1825.76
737.819	1870.82
738.004	1928.16
738.19	1852.39
738.375	1725.41
738.561	1987.55
738.747	1829.86
738.932	1850.34
739.118	1872.87
739.303	1743.85
739.489	1862.63
739.674	1790.95
739.859	1805.28
740.045	1754.09
740.23	1788.9
740.416	1756.13
740.601	1897.44
740.786	1790.95
740.972	1674.21
741.157	1686.5
741.342	1659.88
741.528	1709.03
741.713	1780.71
741.898	1719.27
742.084	1735.65
742.269	1635.3
742.454	1711.08
742.639	1700.84
742.824	1663.97
743.01	1657.83
743.195	1625.06
743.38	1577.96
743.565	1602.54
743.75	1657.83
743.935	1633.26
744.12	1690.6
744.305	1559.53
744.49	1551.34
744.675	1600.49
744.86	1608.68
745.045	1575.91
745.23	1551.34
745.415	1641.45
745.6	1475.56
745.785	1424.36
745.97	1444.84
746.155	1580.01
746.34	1518.57
746.525	1530.86
746.71	1567.72
746.895	1424.36
747.079	1594.34
747.264	1338.35
747.449	1471.47
747.634	1448.94
747.819	1461.23
748.003	1373.16
748.188	1450.99
748.373	1471.47
748.557	1432.55
748.742	1479.66
748.927	1403.88
749.111	1403.88
749.296	1414.12
749.481	1416.17
749.665	1399.79
749.85	1346.54
750.034	1330.16
750.219	1371.12
750.404	1340.4
750.588	1381.35
750.773	1285.1
750.957	1252.33
751.141	1256.43
751.326	1407.98
751.51	1289.2
751.695	1281
751.879	1301.48
752.064	1293.29
752.248	1256.43
752.432	1301.48
752.617	1217.52
752.801	1229.81
752.985	1166.32
753.17	1272.81
753.354	1223.66
753.538	1240.05
753.722	1223.66
753.907	1168.37
754.091	1141.74
754.275	1147.89
754.459	1123.31
754.643	1076.21
754.828	1141.74
755.012	1166.32
755.196	1217.52
755.38	1027.06
755.564	1039.34
755.748	1174.51
755.932	1180.65
756.116	1125.36
756.3	1068.02
756.484	1074.16
756.668	1102.83
756.852	1055.73
757.036	1094.64
757.22	1070.06
757.404	992.24
757.588	1070.06
757.772	1018.86
757.956	1055.73
758.14	1008.62
758.323	1072.11
758.507	1074.16
758.691	982
758.875	975.86
759.059	1006.58
759.242	920.56
759.426	945.14
759.61	900.08
759.794	969.71
759.977	1012.72
760.161	986.1
760.345	928.75
760.528	947.19
760.712	943.09
760.895	891.89
761.079	934.9
761.263	928.75
761.446	916.47
761.63	904.18
761.813	969.71
761.997	928.75
762.18	846.84
762.364	871.41
762.547	820.21
762.731	924.66
762.914	875.51
763.098	873.46
763.281	900.08
763.464	967.67
763.648	885.75
763.831	873.46
764.015	826.36
764.198	834.55
764.381	816.12
764.564	840.69
764.748	814.07
764.931	881.65
765.114	793.59
765.297	879.6
765.481	863.22
765.664	809.97
765.847	805.88
766.03	887.79
766.213	740.34
766.397	766.96
766.58	734.2
766.763	797.68
766.946	816.12
767.129	850.93
767.312	754.68
767.495	846.84
767.678	789.49
767.861	771.06
768.044	721.91
768.227	844.79
768.41	750.58
768.593	789.49
768.776	769.01
768.959	809.97
769.142	748.53
769.324	764.92
769.507	791.54
769.69	723.96
769.873	736.24
770.056	830.45
770.239	666.61
770.421	855.03
770.604	756.72
770.787	736.24
770.97	781.3
771.152	769.01
771.335	717.81
771.518	777.2
771.7	787.44
771.883	818.16
772.066	766.96
772.248	799.73
772.431	783.35
772.613	709.62
772.796	594.93
772.978	769.01
773.161	738.29
773.343	717.81
773.526	740.34
773.708	635.89
773.891	703.48
774.073	670.71
774.256	666.61
774.438	660.47
774.621	601.08
774.803	744.44
774.985	685.05
775.168	715.77
775.35	599.03
775.532	689.14
775.715	652.28
775.897	674.81
776.079	576.5
776.261	693.24
776.444	642.04
776.626	611.32
776.808	539.64
776.99	683
777.173	633.85
777.355	502.78
777.537	586.74
777.719	580.6
777.901	617.46
778.083	553.98
778.265	545.78
778.447	592.89
778.629	543.74
778.811	576.5
778.993	576.5
779.175	590.84
779.357	592.89
779.539	482.3
779.721	523.26
779.903	529.4
780.085	488.44
780.267	547.83
780.449	527.35
780.631	592.89
780.812	551.93
780.994	551.93
781.176	568.31
781.358	527.35
781.54	562.17
781.721	584.7
781.903	494.58
782.085	480.25
782.267	535.54
782.448	486.39
782.63	431.1
782.812	470.01
782.993	431.1
783.175	463.86
783.357	453.63
783.538	461.82
783.72	535.54
783.901	510.97
784.083	486.39
784.264	433.15
784.446	513.02
784.627	449.53
784.809	513.02
784.99	367.61
785.172	435.19
785.353	447.48
785.535	410.62
785.716	412.67
785.897	365.56
786.079	502.78
786.26	441.34
786.441	410.62
786.623	392.19
786.804	359.42
786.985	359.42
787.167	414.71
787.348	371.71
787.529	418.81
787.71	351.23
787.891	355.32
788.073	375.8
788.254	320.51
788.435	412.67
788.616	447.48
788.797	297.98
788.978	396.28
789.159	332.79
789.34	355.32
789.522	330.75
789.703	392.19
789.884	365.56
790.065	316.41
790.246	375.8
790.427	398.33
790.607	396.28
790.788	388.09
790.969	295.93
791.15	330.75
791.331	340.99
791.512	420.86
791.693	306.17
791.874	375.8
792.054	373.75
792.235	340.99
792.416	289.79
792.597	254.97
792.778	338.94
792.958	281.6
793.139	322.56
793.32	283.64
793.5	285.69
793.681	379.9
793.862	363.51
794.042	252.92
794.223	330.75
794.404	265.21
794.584	322.56
794.765	281.6
794.945	261.12
795.126	275.45
795.306	193.53
795.487	261.12
795.667	277.5
795.848	205.82
796.028	214.01
796.209	279.55
796.389	302.08
796.57	250.88
796.75	267.26
796.93	216.06
797.111	218.11
797.291	273.4
797.471	279.55
797.652	261.12
797.832	257.02
798.012	166.91
798.192	232.44
798.373	297.98
798.553	316.41
798.733	277.5
798.913	195.58
799.093	265.21
799.274	250.88
799.454	232.44
799.634	248.83
799.814	218.11
799.994	248.83
800.174	291.84
800.354	240.64
800.534	150.53
800.714	269.31
800.894	228.35
801.074	171.01
801.254	238.59
801.434	291.84
801.614	199.68
801.794	197.63
801.974	838.64
802.154	119.81
802.334	263.16
802.514	183.29
802.693	158.72
802.873	236.54
803.053	193.53
803.233	234.49
803.413	240.64
803.592	158.72
803.772	257.02
803.952	152.57
804.131	197.63
804.311	265.21
804.491	281.6
804.67	218.11
804.85	160.77
805.03	216.06
805.209	224.25
805.389	203.77
805.568	259.07
805.748	125.95
805.928	185.34
806.107	259.07
806.287	193.53
806.466	168.96
806.646	160.77
806.825	216.06
807.004	183.29
807.184	193.53
807.363	236.54
807.543	218.11
807.722	224.25
807.901	183.29
808.081	257.02
808.26	70.65
808.439	199.68
808.619	238.59
808.798	189.44
808.977	181.25
809.156	242.68
809.336	220.16
809.515	168.96
809.694	160.77
809.873	144.38
810.052	148.48
810.231	222.2
810.411	144.38
810.59	197.63
810.769	166.91
810.948	228.35
811.127	136.19
811.306	150.53
811.485	224.25
811.664	273.4
811.843	128
812.022	111.61
812.201	97.28
812.38	125.95
812.559	134.14
812.737	148.48
812.916	125.95
813.095	138.24
813.274	107.52
813.453	183.29
813.632	125.95
813.811	228.35
813.989	64.51
814.168	183.29
814.347	140.29
814.526	136.19
814.704	150.53
814.883	218.11
815.062	113.66
815.24	166.91
815.419	97.28
815.598	175.1
815.776	103.42
815.955	150.53
816.133	177.15
816.312	191.49
816.49	168.96
816.669	109.57
816.847	101.37
817.026	175.1
817.204	191.49
817.383	152.57
817.561	101.37
817.74	168.96
817.918	185.34
818.097	193.53
818.275	113.66
818.453	87.04
818.632	128
818.81	84.99
818.988	68.61
819.167	84.99
819.345	125.95
819.523	76.8
819.701	97.28
819.879	148.48
820.058	119.81
820.236	150.53
820.414	201.72
820.592	103.42
820.77	123.9
820.948	105.47
821.127	62.46
821.305	125.95
821.483	48.13
821.661	76.8
821.839	91.13
822.017	111.61
822.195	111.61
822.373	128
822.551	136.19
822.729	117.76
822.907	89.09
823.085	136.19
823.262	93.18
823.44	50.18
823.618	164.86
823.796	158.72
823.974	29.7
824.152	109.57
824.329	39.94
824.507	128
824.685	101.37
824.863	109.57
825.04	101.37
825.218	136.19
825.396	97.28
825.574	80.89
825.751	84.99
825.929	125.95
826.107	113.66
826.284	119.81
826.462	103.42
826.639	15.36
826.817	37.89
826.994	76.8
827.172	7.17
827.349	152.57
827.527	168.96
827.704	91.13
827.882	140.29
828.059	136.19
828.237	111.61
828.414	136.19
828.591	29.7
828.769	62.46
828.946	78.85
829.124	76.8
829.301	166.91
829.478	119.81
829.655	68.61
829.833	115.71
830.01	48.13
830.187	166.91
830.364	64.51
830.542	87.04
830.719	138.24
830.896	134.14
831.073	105.47
831.25	179.2
831.427	117.76
831.604	89.09
831.782	84.99
831.959	80.89
832.136	117.76
832.313	136.19
832.49	105.47
832.667	109.57
832.844	60.42
833.021	103.42
833.198	87.04
833.374	162.81
833.551	76.8
833.728	76.8
833.905	64.51
834.082	15.36
834.259	48.13
834.436	130.05
834.612	87.04
834.789	70.65
834.966	54.27
835.143	125.95
835.319	146.43
835.496	97.28
835.673	72.7
835.85	142.33
836.026	113.66
836.203	160.77
836.38	31.74
836.556	105.47
836.733	111.61
836.909	62.46
837.086	19.46
837.262	82.94
837.439	121.85
837.616	76.8
837.792	105.47
837.968	160.77
838.145	87.04
838.321	89.09
838.498	80.89
838.674	64.51
838.851	35.84
839.027	27.65
839.203	21.5
839.38	93.18
839.556	109.57
839.732	136.19
839.909	87.04
840.085	62.46
840.261	37.89
840.437	76.8
840.614	56.32
840.79	62.46
840.966	111.61
841.142	105.47
841.318	27.65
841.494	66.56
841.671	125.95
841.847	54.27
842.023	35.84
842.199	95.23
842.375	89.09
842.551	-7.17
842.727	95.23
842.903	111.61
843.079	93.18
843.255	154.62
843.431	15.36
843.607	29.7
843.783	48.13
843.959	82.94
844.134	84.99
844.31	70.65
844.486	70.65
844.662	76.8
844.838	84.99
845.013	68.61
845.189	111.61
845.365	54.27
845.541	35.84
845.716	52.22
845.892	39.94
846.068	93.18
846.244	37.89
846.419	105.47
846.595	-19.46
846.77	25.6
846.946	84.99
847.122	11.26
847.297	35.84
847.473	99.33
847.648	60.42
847.824	31.74
847.999	111.61
848.175	72.7
848.35	76.8
848.526	64.51
848.701	35.84
848.876	60.42
849.052	123.9
849.227	87.04
849.403	-19.46
849.578	142.33
849.753	39.94
849.929	119.81
850.104	-46.08
850.279	11.26
850.454	-13.31
850.63	152.57
850.805	11.26
850.98	64.51
851.155	48.13
851.33	37.89
851.505	25.6
851.681	29.7
851.856	80.89
852.031	103.42
852.206	64.51
852.381	-27.65
852.556	72.7
852.731	113.66
852.906	66.56
853.081	80.89
853.256	11.26
853.431	60.42
853.606	35.84
853.781	29.7
853.956	3.07
854.131	136.19
854.305	-9.22
854.48	66.56
854.655	-37.89
854.83	11.26
855.005	27.65
855.18	56.32
855.354	-21.5
855.529	125.95
855.704	44.03
855.879	93.18
856.053	58.37
856.228	84.99
856.403	50.18
856.577	109.57
856.752	33.79
856.926	31.74
857.101	74.75
857.276	39.94
857.45	44.03
857.625	70.65
857.799	103.42
857.974	64.51
858.148	60.42
858.323	76.8
858.497	23.55
858.672	46.08
858.846	68.61
859.02	19.46
859.195	78.85
859.369	-11.26
859.543	62.46
859.718	37.89
859.892	35.84
860.066	-1.02
860.241	136.19
860.415	11.26
860.589	37.89
860.763	84.99
860.938	-52.22
861.112	52.22
861.286	37.89
861.46	44.03
861.634	113.66
861.808	121.85
861.982	-23.55
862.157	41.98
862.331	68.61
862.505	44.03
862.679	-33.79
862.853	27.65
863.027	56.32
863.201	119.81
863.375	-13.31
863.549	37.89
863.722	66.56
863.896	35.84
864.07	97.28
864.244	84.99
864.418	66.56
864.592	29.7
864.766	21.5
864.939	19.46
865.113	52.22
865.287	76.8
865.461	7.17
865.634	52.22
865.808	84.99
865.982	54.27
866.156	72.7
866.329	7.17
866.503	21.5
866.676	52.22
866.85	11.26
867.024	-7.17
867.197	21.5
867.371	97.28
867.544	9.22
867.718	19.46
867.891	31.74
868.065	31.74
868.238	107.52
868.412	52.22
868.585	64.51
868.759	-29.7
868.932	5.12
869.105	74.75
869.279	44.03
869.452	52.22
869.625	13.31
869.799	5.12
869.972	31.74
870.145	11.26
870.319	-3.07
870.492	101.37
870.665	-11.26
870.838	41.98
871.011	-50.18
871.185	27.65
871.358	19.46
871.531	117.76
871.704	84.99
871.877	70.65
872.05	46.08
872.223	113.66
872.396	-1.02
872.569	-1.02
872.742	48.13
872.915	-21.5
873.088	33.79
873.261	56.32
873.434	11.26
873.607	9.22
873.78	87.04
873.953	-23.55
874.126	-29.7
874.299	54.27
874.471	60.42
874.644	11.26
874.817	13.31
874.99	68.61
875.163	-5.12
875.335	97.28
875.508	31.74
875.681	52.22
875.853	1.02
876.026	-17.41
876.199	-1.02
876.371	78.85
876.544	-33.79
876.717	9.22
876.889	46.08
877.062	56.32
877.234	-25.6
877.407	35.84
877.579	19.46
877.752	3.07
877.924	103.42
878.097	60.42
878.269	119.81
878.442	37.89
878.614	62.46
878.786	64.51
878.959	39.94
879.131	-5.12
879.303	-29.7
879.476	33.79
879.648	29.7
879.82	-27.65
879.993	-11.26
880.165	21.5
880.337	52.22
880.509	52.22
880.681	52.22
880.854	48.13
881.026	-52.22
881.198	39.94
881.37	64.51
881.542	-21.5
881.714	48.13
881.886	19.46
882.058	15.36
882.23	-11.26
882.402	44.03
882.574	-52.22
882.746	46.08
882.918	70.65
883.09	56.32
883.262	44.03
883.434	29.7
883.606	-58.37
883.778	54.27
883.95	142.33
884.122	56.32
884.293	101.37
884.465	74.75
884.637	35.84
884.809	68.61
884.98	7.17
885.152	39.94
885.324	54.27
885.496	9.22
885.667	66.56
885.839	35.84
886.011	117.76
886.182	25.6
886.354	130.05
886.525	-21.5
886.697	19.46
886.869	33.79
887.04	-5.12
887.212	93.18
887.383	68.61
887.555	44.03
887.726	3.07
887.897	13.31
888.069	54.27
888.24	-27.65
888.412	60.42
888.583	-31.74
888.754	27.65
888.926	1.02
889.097	-9.22
889.268	64.51
889.44	13.31
889.611	41.98
889.782	-11.26
889.953	-29.7
890.125	11.26
890.296	27.65
890.467	-29.7
890.638	-41.98
890.809	35.84
890.98	-13.31
891.151	-33.79
891.323	19.46
891.494	13.31
891.665	105.47
891.836	41.98
892.007	15.36
892.178	62.46
892.349	-54.27
892.52	60.42
892.691	39.94
892.862	-9.22
893.032	-29.7
893.203	56.32
893.374	35.84
893.545	89.09
893.716	-21.5
893.887	37.89
894.057	-5.12
894.228	80.89
894.399	-33.79
894.57	-44.03
894.74	76.8
894.911	52.22
895.082	23.55
895.253	27.65
895.423	-35.84
895.594	64.51
895.764	11.26
895.935	-33.79
896.106	-52.22
896.276	-7.17
896.447	-50.18
896.617	-21.5
896.788	3.07
896.958	37.89
897.129	-17.41
897.299	39.94
897.47	11.26
897.64	142.33
897.81	60.42
897.981	54.27
898.151	23.55
898.322	-37.89
898.492	56.32
898.662	35.84
898.832	29.7
899.003	35.84
899.173	95.23
899.343	13.31
899.513	-23.55
