Data from USB4F104151__10__14-42-34-429.txt Node

Date: Thu Mar 13 14:42:34 EDT 2025
User: louis
Spectrometer: USB4F10415
Trigger mode: 4
Integration Time (sec): 2.000000E-2
Scans to average: 1
Electric dark correction enabled: true
Nonlinearity correction enabled: false
Boxcar width: 0
XAxis mode: Wavelengths
Number of Pixels in Spectrum: 3648
>>>>>Begin Spectral Data<<<<<
178.204	-162.64
178.424	-162.64
178.644	-162.64
178.864	-88.92
179.084	-121.68
179.304	-27.48
179.524	15.53
179.744	19.63
179.964	70.83
180.184	9.39
180.404	-19.29
180.624	-11.09
180.844	-27.48
181.064	-39.76
181.283	-33.62
181.503	42.15
181.723	1.19
181.943	-31.57
182.163	36.01
182.383	-17.24
182.602	-19.29
182.822	31.91
183.042	31.91
183.262	-52.05
183.482	25.77
183.701	-54.1
183.921	-21.33
184.141	-76.63
184.361	31.91
184.58	42.15
184.8	-35.67
185.02	-39.76
185.239	58.54
185.459	-2.9
185.679	54.44
185.898	-11.09
186.118	15.53
186.338	9.39
186.557	46.25
186.777	50.35
186.997	13.48
187.216	-0.85
187.436	-2.9
187.655	-7
187.875	48.3
188.095	-27.48
188.314	-15.19
188.534	89.26
188.753	-31.57
188.973	21.67
189.192	-19.29
189.412	-11.09
189.631	5.29
189.851	25.77
190.07	-27.48
190.29	-0.85
190.509	-68.44
190.729	25.77
190.948	50.35
191.168	83.11
191.387	89.26
191.607	25.77
191.826	40.11
192.045	5.29
192.265	54.44
192.484	-66.39
192.704	15.53
192.923	-41.81
193.142	19.63
193.362	62.63
193.581	25.77
193.8	-2.9
194.02	17.58
194.239	46.25
194.458	-25.43
194.678	-35.67
194.897	5.29
195.116	56.49
195.335	-58.2
195.555	-31.57
195.774	-60.24
195.993	58.54
196.212	46.25
196.432	-39.76
196.651	-27.48
196.87	29.87
197.089	7.34
197.308	64.68
197.528	5.29
197.747	-41.81
197.966	44.2
198.185	33.96
198.404	23.72
198.623	-35.67
198.842	5.29
199.062	27.82
199.281	42.15
199.5	-11.09
199.719	-2.9
199.938	29.87
200.157	36.01
200.376	5.29
200.595	5.29
200.814	-11.09
201.033	15.53
201.252	36.01
201.471	-47.96
201.69	89.26
201.909	-13.14
202.128	38.06
202.347	-27.48
202.566	-43.86
202.785	-35.67
203.004	-82.77
203.223	58.54
203.442	5.29
203.661	-19.29
203.879	-9.05
204.098	25.77
204.317	11.43
204.536	36.01
204.755	54.44
204.974	3.24
205.193	36.01
205.411	40.11
205.63	38.06
205.849	23.72
206.068	1.19
206.287	-47.96
206.505	64.68
206.724	-52.05
206.943	-15.19
207.162	19.63
207.381	-43.86
207.599	23.72
207.818	36.01
208.037	-35.67
208.255	-15.19
208.474	54.44
208.693	-9.05
208.911	29.87
209.13	-7
209.349	-31.57
209.567	87.21
209.786	103.59
210.005	52.39
210.223	62.63
210.442	-23.38
210.661	58.54
210.879	23.72
211.098	36.01
211.316	33.96
211.535	70.83
211.753	46.25
211.972	7.34
212.191	74.92
212.409	-31.57
212.628	-25.43
212.846	-90.96
213.065	87.21
213.283	95.4
213.502	-2.9
213.72	-43.86
213.938	-0.85
214.157	-9.05
214.375	-2.9
214.594	-35.67
214.812	25.77
215.031	50.35
215.249	25.77
215.467	13.48
215.686	-15.19
215.904	3.24
216.122	-56.15
216.341	38.06
216.559	-0.85
216.778	36.01
216.996	-0.85
217.214	-66.39
217.432	-19.29
217.651	-13.14
217.869	7.34
218.087	-11.09
218.306	-58.2
218.524	-84.82
218.742	-41.81
218.96	13.48
219.179	13.48
219.397	-0.85
219.615	40.11
219.833	36.01
220.051	-17.24
220.27	5.29
220.488	23.72
220.706	95.4
220.924	-25.43
221.142	83.11
221.36	-2.9
221.578	29.87
221.796	-64.34
222.015	-37.72
222.233	15.53
222.451	1.19
222.669	-21.33
222.887	87.21
223.105	-35.67
223.323	21.67
223.541	-52.05
223.759	1.19
223.977	-23.38
224.195	29.87
224.413	15.53
224.631	-0.85
224.849	-2.9
225.067	128.17
225.285	-7
225.503	-29.52
225.721	5.29
225.939	40.11
226.157	-11.09
226.375	40.11
226.592	-35.67
226.81	-84.82
227.028	36.01
227.246	46.25
227.464	21.67
227.682	-2.9
227.9	-17.24
228.117	17.58
228.335	-17.24
228.553	-58.2
228.771	-31.57
228.989	70.83
229.206	-2.9
229.424	-11.09
229.642	-15.19
229.86	-2.9
230.077	48.3
230.295	21.67
230.513	-7
230.731	-45.91
230.948	128.17
231.166	31.91
231.384	-27.48
231.601	46.25
231.819	58.54
232.037	-11.09
232.254	-17.24
232.472	-47.96
232.689	-2.9
232.907	-31.57
233.125	-25.43
233.342	-7
233.56	-31.57
233.777	9.39
233.995	-56.15
234.213	29.87
234.43	46.25
234.648	-0.85
234.865	-50
235.083	46.25
235.3	1.19
235.518	36.01
235.735	40.11
235.953	46.25
236.17	-9.05
236.388	23.72
236.605	-27.48
236.822	31.91
237.04	-33.62
237.257	-52.05
237.475	-35.67
237.692	62.63
237.909	-7
238.127	13.48
238.344	23.72
238.562	54.44
238.779	-17.24
238.996	13.48
239.214	-11.09
239.431	-2.9
239.648	-7
239.865	-25.43
240.083	23.72
240.3	-19.29
240.517	-27.48
240.735	25.77
240.952	74.92
241.169	1.19
241.386	-23.38
241.603	62.63
241.821	-15.19
242.038	25.77
242.255	-4.95
242.472	48.3
242.689	-50
242.907	-9.05
243.124	21.67
243.341	-35.67
243.558	-33.62
243.775	66.73
243.992	7.34
244.209	-31.57
244.426	60.59
244.643	1.19
244.86	-23.38
245.078	-66.39
245.295	-7
245.512	58.54
245.729	-2.9
245.946	48.3
246.163	64.68
246.38	58.54
246.597	-39.76
246.814	25.77
247.031	-2.9
247.248	21.67
247.464	-15.19
247.681	62.63
247.898	-2.9
248.115	46.25
248.332	-52.05
248.549	5.29
248.766	15.53
248.983	9.39
249.2	-9.05
249.417	33.96
249.633	9.39
249.85	29.87
250.067	-9.05
250.284	25.77
250.501	9.39
250.717	1.19
250.934	-9.05
251.151	31.91
251.368	9.39
251.585	44.2
251.801	-9.05
252.018	-60.24
252.235	50.35
252.451	23.72
252.668	-17.24
252.885	-11.09
253.102	54.44
253.318	46.25
253.535	-64.34
253.752	-23.38
253.968	-52.05
254.185	5.29
254.401	5.29
254.618	46.25
254.835	-52.05
255.051	72.87
255.268	33.96
255.484	31.91
255.701	15.53
255.917	-66.39
256.134	3.24
256.351	87.21
256.567	-103.25
256.784	-43.86
257	29.87
257.217	13.48
257.433	11.43
257.65	-35.67
257.866	109.74
258.082	11.43
258.299	-43.86
258.515	36.01
258.732	-25.43
258.948	79.02
259.165	38.06
259.381	-19.29
259.597	64.68
259.814	-39.76
260.03	21.67
260.246	21.67
260.463	15.53
260.679	19.63
260.895	-43.86
261.112	27.82
261.328	-9.05
261.544	99.5
261.761	23.72
261.977	-7
262.193	-33.62
262.409	89.26
262.626	-27.48
262.842	29.87
263.058	-15.19
263.274	46.25
263.49	29.87
263.707	44.2
263.923	38.06
264.139	-0.85
264.355	-54.1
264.571	87.21
264.787	40.11
265.004	38.06
265.22	15.53
265.436	-17.24
265.652	-7
265.868	-7
266.084	66.73
266.3	21.67
266.516	-7
266.732	40.11
266.948	38.06
267.164	46.25
267.38	-7
267.596	5.29
267.812	-11.09
268.028	15.53
268.244	-60.24
268.46	-19.29
268.676	-2.9
268.892	-2.9
269.108	25.77
269.324	-29.52
269.54	-68.44
269.756	23.72
269.972	-29.52
270.188	40.11
270.403	38.06
270.619	15.53
270.835	23.72
271.051	21.67
271.267	-74.58
271.483	70.83
271.698	70.83
271.914	40.11
272.13	79.02
272.346	5.29
272.562	31.91
272.777	46.25
272.993	-72.53
273.209	-19.29
273.425	54.44
273.64	-50
273.856	50.35
274.072	40.11
274.287	-9.05
274.503	3.24
274.719	64.68
274.934	-115.54
275.15	-31.57
275.366	23.72
275.581	-43.86
275.797	-17.24
276.012	-11.09
276.228	21.67
276.444	9.39
276.659	21.67
276.875	-43.86
277.09	-2.9
277.306	-19.29
277.521	15.53
277.737	-39.76
277.952	13.48
278.168	23.72
278.383	-19.29
278.599	13.48
278.814	23.72
279.03	29.87
279.245	95.4
279.461	15.53
279.676	46.25
279.892	-72.53
280.107	74.92
280.322	-29.52
280.538	25.77
280.753	-43.86
280.969	9.39
281.184	-43.86
281.399	-17.24
281.615	15.53
281.83	15.53
282.045	-17.24
282.26	-0.85
282.476	21.67
282.691	-19.29
282.906	31.91
283.122	-60.24
283.337	-52.05
283.552	72.87
283.767	-27.48
283.983	-23.38
284.198	-11.09
284.413	29.87
284.628	-86.87
284.843	58.54
285.058	103.59
285.274	-19.29
285.489	-35.67
285.704	40.11
285.919	-11.09
286.134	-2.9
286.349	-15.19
286.564	58.54
286.779	13.48
286.995	13.48
287.21	-64.34
287.425	-23.38
287.64	5.29
287.855	76.97
288.07	11.43
288.285	103.59
288.5	62.63
288.715	70.83
288.93	21.67
289.145	-23.38
289.36	-7
289.575	-35.67
289.79	56.49
290.004	-19.29
290.219	64.68
290.434	7.34
290.649	-17.24
290.864	11.43
291.079	-19.29
291.294	40.11
291.509	-25.43
291.724	9.39
291.938	11.43
292.153	-21.33
292.368	23.72
292.583	5.29
292.798	-25.43
293.012	54.44
293.227	38.06
293.442	1.19
293.657	38.06
293.871	13.48
294.086	33.96
294.301	87.21
294.516	31.91
294.73	5.29
294.945	-41.81
295.16	103.59
295.374	-15.19
295.589	7.34
295.804	-39.76
296.018	21.67
296.233	44.2
296.447	46.25
296.662	-19.29
296.877	29.87
297.091	66.73
297.306	42.15
297.52	11.43
297.735	33.96
297.949	-21.33
298.164	15.53
298.378	144.55
298.593	-19.29
298.807	38.06
299.022	46.25
299.236	-17.24
299.451	9.39
299.665	21.67
299.88	1.19
300.094	31.91
300.309	1.19
300.523	-29.52
300.737	29.87
300.952	13.48
301.166	-27.48
301.381	23.72
301.595	52.39
301.809	66.73
302.024	-33.62
302.238	-43.86
302.452	-0.85
302.667	19.63
302.881	13.48
303.095	33.96
303.309	38.06
303.524	-101.2
303.738	54.44
303.952	5.29
304.166	44.2
304.381	31.91
304.595	15.53
304.809	-17.24
305.023	23.72
305.237	-11.09
305.452	134.31
305.666	21.67
305.88	9.39
306.094	-19.29
306.308	9.39
306.522	38.06
306.736	13.48
306.95	-2.9
307.164	40.11
307.379	9.39
307.593	56.49
307.807	-0.85
308.021	21.67
308.235	54.44
308.449	15.53
308.663	-11.09
308.877	31.91
309.091	-2.9
309.305	27.82
309.519	1.19
309.733	-17.24
309.947	-52.05
310.161	64.68
310.374	-31.57
310.588	87.21
310.802	46.25
311.016	60.59
311.23	21.67
311.444	-27.48
311.658	13.48
311.872	68.78
312.085	21.67
312.299	25.77
312.513	87.21
312.727	-25.43
312.941	-17.24
313.154	13.48
313.368	-66.39
313.582	-27.48
313.796	-39.76
314.009	-7
314.223	46.25
314.437	-11.09
314.651	33.96
314.864	23.72
315.078	-4.95
315.292	-27.48
315.505	-9.05
315.719	56.49
315.933	40.11
316.146	-17.24
316.36	5.29
316.573	5.29
316.787	9.39
317.001	-9.05
317.214	-41.81
317.428	21.67
317.641	-33.62
317.855	54.44
318.068	-9.05
318.282	56.49
318.495	68.78
318.709	38.06
318.922	13.48
319.136	62.63
319.349	48.3
319.563	13.48
319.776	-21.33
319.99	-27.48
320.203	89.26
320.417	48.3
320.63	58.54
320.843	-0.85
321.057	29.87
321.27	97.45
321.483	-23.38
321.697	-11.09
321.91	9.39
322.124	-19.29
322.337	66.73
322.55	-54.1
322.763	-43.86
322.977	5.29
323.19	-15.19
323.403	56.49
323.617	89.26
323.83	52.39
324.043	-11.09
324.256	29.87
324.469	-84.82
324.683	-25.43
324.896	-29.52
325.109	-11.09
325.322	-23.38
325.535	42.15
325.748	9.39
325.962	-31.57
326.175	29.87
326.388	-35.67
326.601	27.82
326.814	-9.05
327.027	-43.86
327.24	13.48
327.453	-52.05
327.666	7.34
327.879	13.48
328.092	38.06
328.305	62.63
328.518	1.19
328.731	21.67
328.944	-7
329.157	29.87
329.37	70.83
329.583	56.49
329.796	-2.9
330.009	-2.9
330.222	-2.9
330.435	40.11
330.648	64.68
330.861	-37.72
331.073	-13.14
331.286	-0.85
331.499	-0.85
331.712	-19.29
331.925	33.96
332.138	13.48
332.35	5.29
332.563	-33.62
332.776	33.96
332.989	-35.67
333.202	15.53
333.414	11.43
333.627	15.53
333.84	21.67
334.053	-7
334.265	5.29
334.478	29.87
334.691	50.35
334.903	-39.76
335.116	-35.67
335.329	7.34
335.541	9.39
335.754	36.01
335.966	-0.85
336.179	64.68
336.392	-31.57
336.604	-0.85
336.817	11.43
337.029	21.67
337.242	40.11
337.454	40.11
337.667	1.19
337.88	5.29
338.092	31.91
338.305	21.67
338.517	13.48
338.729	40.11
338.942	97.45
339.154	-17.24
339.367	25.77
339.579	-4.95
339.792	21.67
340.004	21.67
340.217	-43.86
340.429	5.29
340.641	-0.85
340.854	-64.34
341.066	-9.05
341.278	-52.05
341.491	70.83
341.703	-50
341.915	-84.82
342.128	54.44
342.34	-33.62
342.552	-25.43
342.764	9.39
342.977	17.58
343.189	-0.85
343.401	21.67
343.613	11.43
343.826	-50
344.038	-54.1
344.25	9.39
344.462	-4.95
344.674	79.02
344.886	11.43
345.099	-23.38
345.311	83.11
345.523	-17.24
345.735	-43.86
345.947	-33.62
346.159	-11.09
346.371	58.54
346.583	50.35
346.795	64.68
347.007	5.29
347.219	-27.48
347.431	-33.62
347.643	-19.29
347.855	3.24
348.067	62.63
348.279	-60.24
348.491	-25.43
348.703	54.44
348.915	-43.86
349.127	-4.95
349.339	66.73
349.551	-33.62
349.763	19.63
349.975	76.97
350.187	79.02
350.399	81.07
350.61	54.44
350.822	-29.52
351.034	89.26
351.246	15.53
351.458	15.53
351.669	50.35
351.881	38.06
352.093	13.48
352.305	97.45
352.517	81.07
352.728	54.44
352.94	-11.09
353.152	40.11
353.363	-64.34
353.575	91.31
353.787	58.54
353.999	-27.48
354.21	122.02
354.422	23.72
354.633	-45.91
354.845	-11.09
355.057	25.77
355.268	33.96
355.48	-9.05
355.692	42.15
355.903	1.19
356.115	40.11
356.326	17.58
356.538	72.87
356.749	50.35
356.961	13.48
357.172	-41.81
357.384	-35.67
357.595	156.84
357.807	29.87
358.018	-25.43
358.23	54.44
358.441	87.21
358.653	-25.43
358.864	-27.48
359.075	-64.34
359.287	81.07
359.498	93.35
359.709	-43.86
359.921	-29.52
360.132	70.83
360.344	-2.9
360.555	29.87
360.766	60.59
360.977	-39.76
361.189	31.91
361.4	-15.19
361.611	7.34
361.823	103.59
362.034	-19.29
362.245	-15.19
362.456	17.58
362.667	-86.87
362.879	23.72
363.09	42.15
363.301	29.87
363.512	-0.85
363.723	13.48
363.935	-7
364.146	38.06
364.357	54.44
364.568	70.83
364.779	21.67
364.99	40.11
365.201	70.83
365.412	-17.24
365.623	46.25
365.834	-9.05
366.045	-0.85
366.256	46.25
366.467	-0.85
366.678	72.87
366.889	-11.09
367.1	38.06
367.311	-13.14
367.522	-43.86
367.733	64.68
367.944	21.67
368.155	46.25
368.366	70.83
368.577	87.21
368.788	13.48
368.999	38.06
369.209	5.29
369.42	50.35
369.631	31.91
369.842	36.01
370.053	-25.43
370.264	-27.48
370.474	-60.24
370.685	79.02
370.896	-0.85
371.107	19.63
371.317	21.67
371.528	79.02
371.739	-4.95
371.95	36.01
372.16	7.34
372.371	-7
372.582	1.19
372.792	-43.86
373.003	29.87
373.214	-11.09
373.424	36.01
373.635	-35.67
373.846	58.54
374.056	52.39
374.267	40.11
374.477	103.59
374.688	21.67
374.898	-27.48
375.109	87.21
375.319	-52.05
375.53	81.07
375.74	-39.76
375.951	7.34
376.161	113.83
376.372	15.53
376.582	-19.29
376.793	27.82
377.003	17.58
377.214	-23.38
377.424	50.35
377.635	119.98
377.845	25.77
378.055	27.82
378.266	58.54
378.476	40.11
378.686	36.01
378.897	-11.09
379.107	42.15
379.317	5.29
379.528	-66.39
379.738	-11.09
379.948	-27.48
380.158	54.44
380.369	19.63
380.579	-11.09
380.789	-56.15
380.999	48.3
381.21	15.53
381.42	15.53
381.63	68.78
381.84	-19.29
382.05	33.96
382.261	38.06
382.471	-13.14
382.681	23.72
382.891	54.44
383.101	62.63
383.311	29.87
383.521	50.35
383.731	40.11
383.941	17.58
384.151	13.48
384.361	29.87
384.571	-58.2
384.781	54.44
384.991	76.97
385.201	54.44
385.411	-2.9
385.621	23.72
385.831	-35.67
386.041	-19.29
386.251	-35.67
386.461	29.87
386.671	-33.62
386.881	-11.09
387.091	48.3
387.301	23.72
387.511	5.29
387.72	-2.9
387.93	105.64
388.14	29.87
388.35	36.01
388.56	54.44
388.769	-11.09
388.979	-11.09
389.189	-35.67
389.399	40.11
389.609	83.11
389.818	40.11
390.028	83.11
390.238	52.39
390.447	-0.85
390.657	-60.24
390.867	42.15
391.076	-17.24
391.286	9.39
391.496	42.15
391.705	31.91
391.915	-9.05
392.125	89.26
392.334	38.06
392.544	29.87
392.753	33.96
392.963	-9.05
393.172	9.39
393.382	-2.9
393.591	89.26
393.801	54.44
394.01	46.25
394.22	52.39
394.429	29.87
394.639	21.67
394.848	54.44
395.058	13.48
395.267	48.3
395.477	46.25
395.686	13.48
395.895	74.92
396.105	87.21
396.314	58.54
396.524	3.24
396.733	36.01
396.942	128.17
397.152	56.49
397.361	107.69
397.57	-13.14
397.78	-2.9
397.989	60.59
398.198	91.31
398.407	21.67
398.617	-25.43
398.826	70.83
399.035	54.44
399.244	93.35
399.453	62.63
399.663	79.02
399.872	48.3
400.081	38.06
400.29	40.11
400.499	9.39
400.708	-2.9
400.917	66.73
401.127	48.3
401.336	29.87
401.545	79.02
401.754	130.22
401.963	21.67
402.172	-15.19
402.381	117.93
402.59	31.91
402.799	-9.05
403.008	66.73
403.217	87.21
403.426	81.07
403.635	5.29
403.844	99.5
404.053	46.25
404.262	72.87
404.471	52.39
404.68	111.78
404.888	58.54
405.097	79.02
405.306	132.26
405.515	42.15
405.724	62.63
405.933	70.83
406.142	81.07
406.35	111.78
406.559	136.36
406.768	148.65
406.977	138.41
407.185	95.4
407.394	111.78
407.603	107.69
407.812	175.27
408.02	38.06
408.229	128.17
408.438	179.37
408.646	130.22
408.855	124.07
409.064	128.17
409.272	136.36
409.481	150.7
409.69	183.46
409.898	146.6
410.107	136.36
410.315	236.71
410.524	128.17
410.733	212.14
410.941	158.89
411.15	251.05
411.358	236.71
411.567	271.53
411.775	169.13
411.984	261.29
412.192	267.43
412.401	208.04
412.609	275.62
412.818	242.85
413.026	267.43
413.234	271.53
413.443	349.35
413.651	332.97
413.86	343.21
414.068	294.05
414.276	380.07
414.485	464.04
414.693	425.12
414.901	431.27
415.11	390.31
415.318	308.39
415.526	425.12
415.734	394.4
415.943	443.56
416.151	504.99
416.359	474.28
416.567	468.13
416.776	537.76
416.984	554.15
417.192	531.62
417.4	513.19
417.608	521.38
417.817	611.49
418.025	693.41
418.233	578.72
418.441	611.49
418.649	660.64
418.857	664.74
419.065	881.82
419.273	732.32
419.481	793.76
419.689	890.01
419.897	881.82
420.105	779.42
420.313	990.36
420.521	922.78
420.729	914.59
420.937	941.21
421.145	1006.75
421.353	1076.38
421.561	1176.73
421.769	1088.67
421.977	1195.16
422.185	1135.77
422.393	1275.03
422.601	1254.55
422.809	1373.33
423.017	1344.66
423.224	1545.36
423.432	1418.39
423.64	1504.4
423.848	1621.14
424.056	1606.8
424.263	1698.96
424.471	1668.24
424.679	1733.78
424.887	1848.46
425.094	1866.89
425.302	1844.37
425.51	1842.32
425.718	2055.31
425.925	1944.72
426.133	2028.68
426.341	2169.99
426.548	2157.71
426.756	2237.58
426.964	2397.32
427.171	2438.28
427.379	2520.2
427.586	2606.21
427.794	2692.23
428.001	2675.84
428.209	2765.95
428.417	2761.86
428.624	3015.8
428.832	3060.86
429.039	3021.95
429.247	3134.59
429.454	3273.85
429.662	3654.77
429.869	3226.75
430.076	3548.28
430.284	3484.79
430.491	3687.54
430.699	3687.54
430.906	3886.19
431.114	3691.63
431.321	3894.38
431.528	4062.32
431.736	4209.77
431.943	4559.97
432.15	4314.22
432.358	4330.6
432.565	4686.95
432.772	4598.88
432.979	4889.7
433.187	4824.16
433.394	4883.55
433.601	5446.74
433.808	5368.92
434.016	5477.46
434.223	5405.78
434.43	5905.49
434.637	5774.42
434.844	6124.62
435.052	6243.4
435.259	6149.2
435.466	6343.75
435.673	6128.72
435.88	6689.86
436.087	7015.49
436.294	6851.65
436.501	6855.75
436.708	6935.62
436.915	7218.24
437.122	7255.1
437.329	7363.64
437.537	7455.8
437.743	7627.83
437.95	7668.79
438.157	8090.67
438.364	8285.23
438.571	8238.12
438.778	8414.25
438.985	9393.18
439.192	8823.84
439.399	9126.94
439.606	9040.93
439.813	9337.88
440.02	9894.93
440.227	9720.85
440.433	9675.8
440.64	9843.73
440.847	9909.27
441.054	10155.02
441.261	10714.12
441.467	10830.85
441.674	11031.55
441.881	11355.13
442.088	11164.67
442.294	10902.53
442.501	11342.85
442.708	11838.45
442.914	12127.22
443.121	12667.88
443.328	12415.98
443.534	13186.02
443.741	12489.71
443.948	12532.72
444.154	13450.21
444.361	13396.96
444.568	13507.55
444.774	13431.77
444.981	13661.15
445.187	14009.3
445.394	14754.76
445.6	14492.62
445.807	15938.49
446.013	15389.63
446.22	15383.49
446.426	15854.52
446.633	16343.99
446.839	17062.82
447.046	15999.93
447.252	17060.77
447.459	16991.14
447.665	16901.03
447.871	17863.58
448.078	18424.72
448.284	17548.19
448.491	18439.06
448.697	18746.25
448.903	19276.68
449.11	19143.56
449.316	19008.39
449.522	19352.45
449.728	19839.87
449.935	19755.9
450.141	19729.28
450.347	20599.66
450.553	19962.75
450.76	19997.56
450.966	20921.2
451.172	20503.41
451.378	20970.35
451.584	20593.52
451.791	21326.69
451.997	20915.05
452.203	21394.28
452.409	21508.96
452.615	21113.7
452.821	20730.73
453.027	20550.51
453.233	21298.02
453.44	20593.52
453.646	21203.82
453.852	20804.46
454.058	21359.46
454.264	20667.25
454.47	21144.42
454.676	20616.05
454.882	21164.9
455.088	19325.83
455.294	19712.89
455.5	19893.12
455.705	20347.76
455.911	19276.68
456.117	19094.41
456.323	19100.55
456.529	17863.58
456.735	18813.84
456.941	18402.19
457.147	18002.84
457.352	17388.45
457.558	17257.38
457.764	17310.63
457.97	16794.54
458.176	16577.45
458.381	16612.27
458.587	15938.49
458.793	15745.98
458.999	14973.89
459.204	15883.19
459.41	15428.54
459.616	14613.45
459.821	14545.87
460.027	14664.65
460.233	14250.96
460.438	13587.42
460.644	13833.18
460.85	13091.81
461.055	12768.23
461.261	12786.66
461.466	11795.45
461.672	11465.72
461.878	12485.61
462.083	11600.89
462.289	11531.26
462.494	10914.82
462.7	10675.21
462.905	10343.44
463.111	10759.17
463.316	10755.08
463.522	10843.14
463.727	10703.88
463.932	10712.07
464.138	10413.07
464.343	10650.63
464.549	10236.94
464.754	10490.89
464.959	10507.27
465.165	10439.69
465.37	10044.43
465.575	9767.96
465.781	10081.3
465.986	10155.02
466.191	9880.6
466.397	9491.48
466.602	8991.78
466.807	9501.72
467.012	9608.22
467.218	9372.7
467.423	9427.99
467.628	9075.74
467.833	9544.73
468.038	9417.75
468.244	9163.81
468.449	9542.68
468.654	9147.42
468.859	9153.57
469.064	9040.93
469.269	8729.64
469.474	8623.14
469.679	9026.59
469.885	8713.25
470.09	8975.39
470.295	8733.73
470.5	8506.41
470.705	8610.86
470.91	8311.85
471.115	8381.48
471.32	8483.88
471.525	8272.94
471.73	8201.26
471.935	8156.21
472.139	7871.54
472.344	8047.66
472.549	8025.14
472.754	7846.96
472.959	7566.39
473.164	7590.97
473.369	7369.79
473.574	7713.84
473.778	7525.43
473.983	7461.94
474.188	7541.82
474.393	7009.34
474.598	7226.43
474.802	7150.65
475.007	7124.03
475.212	7255.1
475.417	6739.01
475.621	7074.88
475.826	6908.99
476.031	6814.79
476.235	6491.21
476.44	6743.11
476.645	6575.17
476.849	6677.57
477.054	6648.9
477.259	6417.48
477.463	6394.95
477.668	6206.54
477.872	6300.75
478.077	6308.94
478.282	6069.33
478.486	6118.48
478.691	5971.02
478.895	5993.55
479.1	6014.03
479.304	5948.5
479.509	5919.82
479.713	5952.59
479.918	5880.91
480.122	5690.45
480.326	5657.68
480.531	5815.38
480.735	5579.86
480.94	5669.97
481.144	5727.32
481.348	5553.24
481.553	5676.12
481.757	5452.89
481.961	5502.04
482.166	5618.77
482.37	5448.79
482.574	5303.39
482.778	5579.86
482.983	5610.58
483.187	5536.85
483.391	5479.51
483.595	5602.39
483.8	5723.22
484.004	5575.77
484.208	5553.24
484.412	5569.62
484.616	5631.06
484.821	5649.49
485.025	5436.5
485.229	5581.91
485.433	5555.29
485.637	5543
485.841	5381.21
486.045	5522.52
486.249	5395.54
486.453	5368.92
486.657	5506.13
486.861	5692.5
487.065	5477.46
487.269	5473.37
487.473	5215.32
487.677	5493.85
487.881	5674.07
488.085	5635.16
488.289	5534.81
488.493	5551.19
488.697	5680.21
488.901	5655.64
489.105	5631.06
489.309	5579.86
489.512	5751.89
489.716	5641.3
489.92	5504.09
490.124	5651.54
490.328	5661.78
490.531	5702.74
490.735	5758.03
490.939	5665.88
491.143	5747.79
491.346	5581.91
491.55	5725.27
491.754	5741.65
491.958	5770.32
492.161	5956.69
492.365	5626.96
492.569	5751.89
492.772	5817.43
492.976	5948.5
493.18	5960.78
493.383	6018.13
493.587	5928.02
493.79	6100.05
493.994	5905.49
494.197	6220.88
494.401	6124.62
494.605	6173.77
494.808	6485.06
495.012	6329.42
495.215	6200.4
495.419	6464.58
495.622	6290.51
495.825	6442.06
496.029	6386.76
496.232	6640.71
496.436	6462.54
496.639	6700.1
496.843	6730.82
497.046	6976.58
497.249	6960.19
497.453	6859.84
497.656	6947.9
497.859	6921.28
498.063	7027.78
498.266	7316.54
498.469	7150.65
498.673	7234.62
498.876	7423.03
499.079	7541.82
499.282	7644.21
499.485	7734.32
499.689	7556.15
499.892	7748.66
500.095	7789.62
500.298	8004.66
500.501	7887.92
500.705	8053.81
500.908	8238.12
501.111	8467.5
501.314	8530.98
501.517	8508.46
501.72	8539.18
501.923	8684.58
502.126	8887.33
502.329	8985.63
502.532	9008.16
502.735	9094.18
502.938	9235.49
503.141	9045.02
503.344	9567.26
503.547	9692.18
503.75	9509.91
503.953	9575.45
504.156	9888.79
504.359	9939.99
504.562	10015.76
504.765	10091.54
504.968	10216.46
505.17	10413.07
505.373	10232.85
505.576	10564.62
505.779	10793.99
505.982	10869.76
506.185	11179.01
506.387	10955.78
506.59	11052.03
506.793	11346.94
506.996	11502.59
507.198	11678.71
507.401	11621.37
507.604	11858.93
507.807	12014.58
508.009	12164.08
508.212	12317.68
508.415	12250.1
508.617	12426.22
508.82	12506.09
509.022	12477.42
509.225	12946.41
509.428	13009.89
509.63	13009.89
509.833	13069.28
510.035	13442.01
510.238	13274.08
510.44	13548.51
510.643	13761.5
510.845	14021.59
511.048	13958.1
511.25	14095.32
511.453	14234.58
511.655	14750.67
511.858	14463.95
512.06	14820.3
512.262	14797.77
512.465	15004.61
512.667	15127.49
512.87	15238.08
513.072	15295.43
513.274	15631.29
513.477	15758.27
513.679	15756.22
513.881	16026.55
514.084	16327.6
514.286	16403.38
514.488	16382.9
514.69	16931.75
514.893	16823.21
515.095	16755.63
515.297	17384.35
515.499	17464.22
515.701	17161.12
515.904	17664.93
516.106	17888.15
516.308	17947.54
516.51	18226.07
516.712	18346.9
516.914	18615.18
517.116	18785.16
517.318	18981.77
517.52	19012.49
517.722	19200.9
517.925	19635.07
518.127	19514.24
518.329	19659.65
518.531	19811.2
518.733	20315
518.935	20255.61
519.136	20444.02
519.338	20743.02
519.54	20982.63
519.742	21101.42
519.944	21011.31
520.146	21322.6
520.348	21533.54
520.55	21463.91
520.752	21599.07
520.954	21932.89
521.155	21908.32
521.357	22354.77
521.559	22586.19
521.761	22782.8
521.963	22834
522.164	22854.48
522.366	23460.68
522.568	23321.41
522.77	23608.13
522.971	23911.23
523.173	23534.4
523.375	23860.03
523.576	24085.31
523.778	24142.65
523.98	24630.07
524.181	24773.42
524.383	24390.45
524.584	25090.86
524.786	24869.68
524.988	24877.87
525.189	25228.07
525.391	25262.89
525.592	25430.82
525.794	25828.13
525.995	25772.83
526.197	25836.32
526.398	25864.99
526.6	26147.61
526.801	26170.14
527.003	26307.35
527.204	26323.74
527.406	26516.25
527.607	26565.4
527.808	26843.92
528.01	26372.89
528.211	26596.12
528.412	27108.11
528.614	26936.08
528.815	27214.6
529.016	27384.58
529.218	26718.99
529.419	27745.03
529.62	27439.88
529.822	27065.1
530.023	27652.87
530.224	27726.6
530.425	27648.77
530.626	27286.28
530.828	27609.86
531.029	27812.61
531.23	27763.46
531.431	27941.63
531.632	27925.25
531.833	28060.41
532.035	28216.06
532.236	28107.52
532.437	28236.54
532.638	28261.12
532.839	28142.33
533.04	28095.23
533.241	27912.96
533.442	28730.1
533.643	28275.45
533.844	28177.15
534.045	28156.67
534.246	28066.56
534.447	28326.65
534.648	28408.57
534.849	28093.18
535.05	27998.98
535.251	28185.34
535.451	28357.37
535.652	28644.09
535.853	28437.24
536.054	28578.55
536.255	28513.02
536.456	28039.93
536.657	28891.89
536.857	28420.86
537.058	27777.79
537.259	28533.5
537.46	28629.75
537.66	28527.35
537.861	28437.24
538.062	28297.98
538.263	28652.28
538.463	28277.5
538.664	28160.76
538.865	28214.01
539.065	28656.37
539.266	28119.81
539.466	28760.82
539.667	28531.45
539.868	28799.73
540.068	28566.26
540.269	28447.48
540.469	28459.77
540.67	28283.64
540.87	28496.63
541.071	28433.14
541.271	28556.02
541.472	28228.35
541.672	28353.27
541.873	28150.53
542.073	28414.71
542.274	28463.86
542.474	28318.46
542.675	28121.85
542.875	28549.88
543.075	28187.39
543.276	28144.38
543.476	28547.83
543.676	28283.64
543.877	28193.53
544.077	28144.38
544.277	28171
544.478	28119.81
544.678	28189.44
544.878	28029.69
545.078	28230.4
545.279	28164.86
545.479	28160.76
545.679	28162.81
545.879	28330.75
546.079	28328.7
546.28	28300.03
546.48	27986.69
546.68	28455.67
546.88	28271.36
547.08	28392.19
547.28	28130.05
547.48	27751.17
547.68	28265.21
547.88	28160.76
548.081	28185.34
548.281	28046.08
548.481	28189.44
548.681	28373.75
548.881	28326.65
549.081	28173.05
549.28	28160.76
549.48	28234.49
549.68	27953.92
549.88	28383.99
550.08	28046.08
550.28	28121.85
550.48	28113.66
550.68	28164.86
550.88	27964.16
551.08	27978.5
551.279	27951.87
551.479	27951.87
551.679	28064.51
551.879	27800.32
552.079	27863.81
552.278	27972.35
552.478	28195.58
552.678	28211.96
552.878	28013.31
553.077	28070.65
553.277	27912.96
553.477	28226.3
553.676	27650.82
553.876	28207.87
554.076	27845.38
554.275	27562.76
554.475	27247.37
554.674	27794.18
554.874	27593.48
555.074	27507.46
555.273	27806.47
555.473	27929.34
555.672	27632.39
555.872	27548.42
556.071	27626.25
556.271	27718.4
556.47	27800.32
556.67	27269.9
556.869	27745.03
557.068	27560.71
557.268	27280.14
557.467	27583.24
557.667	27317
557.866	27869.95
558.065	27169.55
558.265	27187.98
558.464	27093.77
558.663	27706.12
558.863	27237.13
559.062	27648.77
559.261	27259.66
559.461	27493.13
559.66	26983.18
559.859	27087.63
560.058	26870.54
560.258	26786.58
560.457	26618.64
560.656	26776.34
560.855	26704.66
561.054	26964.75
561.253	26604.31
561.453	26657.56
561.652	26800.91
561.851	27022.09
562.05	26495.77
562.249	26346.26
562.448	26540.82
562.647	26737.43
562.846	26434.33
563.045	26401.56
563.244	26186.52
563.443	26714.9
563.642	26000.16
563.841	25936.67
564.04	26077.98
564.239	25885.47
564.438	25707.3
564.637	26051.36
564.836	25901.86
565.035	25572.13
565.234	25867.04
565.432	25711.39
565.631	25361.19
565.83	25475.88
566.029	25553.7
566.228	25377.58
566.427	25402.15
566.625	25361.19
566.824	25260.84
567.023	25174.83
567.222	24884.01
567.42	25312.04
567.619	25152.3
567.818	24789.81
568.016	24986.41
568.215	25170.73
568.414	24689.46
568.612	24724.27
568.811	24703.79
569.01	24681.27
569.208	24249.14
569.407	24677.17
569.605	24161.08
569.804	24415.03
570.002	24441.65
570.201	24277.82
570.4	24050.49
570.598	24159.03
570.797	23683.91
570.995	24271.67
571.193	23636.8
571.392	24122.17
571.59	23518.02
571.789	23569.22
571.987	23923.52
572.186	23626.56
572.384	23294.79
572.582	23432.01
572.781	23403.33
572.979	22915.92
573.177	23403.33
573.376	23327.56
573.574	22956.88
573.772	23022.41
573.971	22807.37
574.169	23065.42
574.367	22932.3
574.565	22709.07
574.763	22887.25
574.962	22725.46
575.16	22260.57
575.358	22590.29
575.556	22266.71
575.754	22739.79
575.952	22303.57
576.151	22152.02
576.349	22176.6
576.547	22231.9
576.745	22217.56
576.943	22063.96
577.141	21658.46
577.339	22072.15
577.537	21865.31
577.735	21756.77
577.933	21576.55
578.131	21810.01
578.329	21646.18
578.527	21437.28
578.725	21740.38
578.923	21662.56
579.121	21429.09
579.319	21181.29
579.516	21300.07
579.714	21277.54
579.912	21107.56
580.11	21388.13
580.308	21271.4
580.506	21332.84
580.704	20716.4
580.901	20915.05
581.099	21029.74
581.297	21005.16
581.495	20829.04
581.692	20796.27
581.89	20341.62
582.088	20796.27
582.285	20628.34
582.483	20575.09
582.681	20435.83
582.878	20372.34
583.076	20038.52
583.274	20521.84
583.471	20132.73
583.669	20181.88
583.866	20108.15
584.064	20079.48
584.262	19551.1
584.459	19886.97
584.657	19839.87
584.854	20151.16
585.052	19460.99
585.249	19764.09
585.447	19522.43
585.644	19571.58
585.841	19618.69
586.039	19852.16
586.236	19297.16
586.434	19151.75
586.631	19037.06
586.828	19424.13
587.026	19260.29
587.223	19125.13
587.42	18840.46
587.618	18807.69
587.815	18846.6
588.012	18856.84
588.21	18922.38
588.407	19024.78
588.604	18789.26
588.801	18504.59
588.999	18363.28
589.196	18590.61
589.393	18318.23
589.59	18318.23
589.787	18363.28
589.984	18299.8
590.182	18138.01
590.379	18310.04
590.576	18224.02
590.773	18281.36
590.97	18189.21
591.167	18174.87
591.364	17855.39
591.561	17906.59
591.758	18086.81
591.955	18025.37
592.152	17888.15
592.349	17566.62
592.546	17847.19
592.743	17652.64
592.94	17525.66
593.137	17609.63
593.334	17513.38
593.531	17367.97
593.727	17439.65
593.924	17626.01
594.121	17255.33
594.318	17478.56
594.515	16919.46
594.712	17400.74
594.908	16972.71
595.105	16812.97
595.302	16964.52
595.499	16989.1
595.696	16606.13
595.892	16898.98
596.089	16741.29
596.286	16929.7
596.482	16636.84
596.679	16655.28
596.876	16528.3
597.072	16573.36
597.269	16374.7
597.466	16182.2
597.662	16270.26
597.859	16161.72
598.055	16233.39
598.252	16282.55
598.448	16384.94
598.645	16157.62
598.841	15942.58
599.038	16155.57
599.234	16128.95
599.431	15692.73
599.627	15891.38
599.824	15686.59
600.02	15608.76
600.217	15991.73
600.413	15549.37
600.609	15346.62
600.806	15569.85
601.002	15629.24
601.198	15528.89
601.395	15256.51
601.591	15334.34
601.787	15346.62
601.984	15197.12
602.18	15463.36
602.376	15047.62
602.572	14971.85
602.769	14898.12
602.965	14910.41
603.161	14980.04
603.357	15082.44
603.553	15041.48
603.75	14746.57
603.946	14838.73
604.142	14916.55
604.338	14984.13
604.534	14646.22
604.73	14666.7
604.926	14429.13
605.122	14586.83
605.318	14529.48
605.514	14230.48
605.71	14363.6
605.906	14420.94
606.102	14334.93
606.298	14339.02
606.494	14300.11
606.69	14394.32
606.886	14093.27
607.082	13843.42
607.278	14142.42
607.474	13956.05
607.67	14095.32
607.866	13638.62
608.062	14013.4
608.257	13923.29
608.453	13843.42
608.649	13775.83
608.845	13943.77
609.041	13931.48
609.236	13949.91
609.432	13675.48
609.628	13689.82
609.824	13716.44
610.019	13624.28
610.215	13429.73
610.411	13599.71
610.606	13519.84
610.802	13538.27
610.998	13390.81
611.193	13310.94
611.389	13341.66
611.584	13358.05
611.78	13351.9
611.976	13239.26
612.171	13364.19
612.367	13276.13
612.562	13173.73
612.758	13063.14
612.953	12981.22
613.149	13104.1
613.344	12823.53
613.539	13284.32
613.735	12917.73
613.93	13097.95
614.126	13210.59
614.321	12989.41
614.517	13128.67
614.712	13007.84
614.907	12770.28
615.103	13020.13
615.298	12770.28
615.493	12954.6
615.688	12461.04
615.884	12907.49
616.079	12442.6
616.274	12899.3
616.47	12606.44
616.665	12737.51
616.86	12604.39
617.055	12508.14
617.25	12395.5
617.445	12563.43
617.641	12352.49
617.836	12530.67
618.031	12211.18
618.226	12346.35
618.421	12458.99
618.616	12415.98
618.811	12051.44
619.006	12436.46
619.201	12069.87
619.396	12215.28
619.591	11979.76
619.786	12104.69
619.981	11799.54
620.176	11842.55
620.371	11908.08
620.566	11842.55
620.761	11965.43
620.956	11799.54
621.151	11490.3
621.346	11867.13
621.541	11498.49
621.735	11727.86
621.93	11332.61
622.125	11342.85
622.32	11289.6
622.515	11213.82
622.709	11228.16
622.904	11168.77
623.099	11056.13
623.294	11252.73
623.488	10935.3
623.683	10859.52
623.878	10761.22
624.072	10822.66
624.267	10730.5
624.462	10667.02
624.656	10550.28
624.851	10554.38
625.046	10462.22
625.24	10443.79
625.435	10531.85
625.629	10331.15
625.824	10427.4
626.018	10212.37
626.213	10183.7
626.407	10023.95
626.602	9925.65
626.796	10191.89
626.991	10089.49
627.185	9819.16
627.38	10064.91
627.574	9839.64
627.768	9528.35
627.963	9595.93
628.157	9485.34
628.352	9497.63
628.546	9352.22
628.74	9442.33
628.935	9356.32
629.129	9294.88
629.323	9294.88
629.517	9165.85
629.712	9206.81
629.906	9229.34
630.1	9024.54
630.294	8979.49
630.489	9036.83
630.683	9053.22
630.877	8873
631.071	8973.35
631.265	9053.22
631.459	8678.44
631.653	8737.83
631.848	8678.44
632.042	8590.38
632.236	8672.29
632.43	8762.4
632.624	8590.38
632.818	8361
633.012	8369.19
633.206	8422.44
633.4	8457.26
633.594	8260.65
633.788	8174.64
633.982	8258.6
634.176	8178.73
634.369	8139.82
634.563	8041.52
634.757	7822.39
634.951	8094.77
635.145	8021.04
635.339	8090.67
635.533	7777.33
635.726	7775.28
635.92	7783.48
636.114	7683.13
636.308	7738.42
636.501	7713.84
636.695	7685.17
636.889	7619.64
637.083	7644.21
637.276	7420.99
637.47	7437.37
637.664	7599.16
637.857	7208
638.051	7449.66
638.244	7332.92
638.438	7263.29
638.632	7074.88
638.825	7255.1
639.019	7095.36
639.212	7101.5
639.406	7060.54
639.599	6972.48
639.793	7068.73
639.986	6722.63
640.18	6960.19
640.373	6880.32
640.567	6874.18
640.76	7021.63
640.954	6798.4
641.147	6653
641.34	6626.37
641.534	6653
641.727	6708.29
641.92	6689.86
642.114	6550.6
642.307	6560.84
642.5	6399.05
642.694	6554.69
642.887	6177.87
643.08	6548.55
643.273	6274.12
643.467	6323.27
643.66	6136.91
643.853	6292.55
644.046	6177.87
644.239	6087.76
644.432	6128.72
644.626	6104.14
644.819	6222.92
645.012	6042.7
645.205	6071.37
645.398	6007.89
645.591	5925.97
645.784	5893.2
645.977	5887.06
646.17	5956.69
646.363	5782.61
646.556	5698.64
646.749	5747.79
646.942	5737.56
647.135	5815.38
647.328	5590.1
647.521	5588.05
647.714	5569.62
647.907	5528.66
648.099	5454.94
648.292	5639.25
648.485	5487.7
648.678	5393.5
648.871	5287
649.064	5325.91
649.256	5567.57
649.449	5381.21
649.642	5258.33
649.835	5149.79
650.027	5002.33
650.22	5241.95
650.413	5157.98
650.605	5090.4
650.798	5059.68
650.991	5043.29
651.183	5004.38
651.376	5117.02
651.568	5143.64
651.761	4916.32
651.954	4953.18
652.146	4936.8
652.339	4969.57
652.531	4727.91
652.724	4885.6
652.916	4783.2
653.109	4645.99
653.301	4711.52
653.494	4772.96
653.686	4627.56
653.879	4727.91
654.071	4715.62
654.263	4713.57
654.456	4566.12
654.648	4588.64
654.84	4492.39
655.033	4578.4
655.225	4562.02
655.417	4445.29
655.61	4498.53
655.802	4414.57
655.994	4449.38
656.186	4414.57
656.379	4400.23
656.571	4293.74
656.763	4211.82
656.955	4379.75
657.148	4330.6
657.34	4240.49
657.532	4134
657.724	4265.07
657.916	4207.72
658.108	4111.47
658.3	4127.85
658.492	4138.09
658.684	4097.13
658.876	4093.04
659.068	4009.07
659.26	3822.7
659.452	4066.41
659.644	4019.31
659.836	3953.77
660.028	3871.86
660.22	3855.47
660.412	3773.55
660.604	3927.15
660.796	3814.51
660.988	3794.03
661.18	3863.66
661.372	3693.68
661.563	3716.21
661.755	3662.96
661.947	3814.51
662.139	3677.3
662.331	3662.96
662.522	3531.89
662.714	3501.17
662.906	3513.46
663.097	3595.38
663.289	3511.41
663.481	3576.95
663.673	3599.48
663.864	3484.79
664.056	3503.22
664.247	3515.51
664.439	3488.89
664.631	3443.83
664.822	3495.03
665.014	3466.36
665.205	3386.49
665.397	3318.9
665.588	3449.97
665.78	3290.23
665.971	3472.5
666.163	3392.63
666.354	3284.09
666.546	3249.27
666.737	3191.93
666.929	3243.13
667.12	3298.42
667.311	3261.56
667.503	3144.83
667.694	3150.97
667.885	3052.67
668.077	3052.67
668.268	3103.87
668.459	3161.21
668.651	3075.2
668.842	3142.78
669.033	3097.72
669.224	3175.55
669.416	2980.99
669.607	3046.52
669.798	3077.24
669.989	3019.9
670.18	3054.72
670.371	2980.99
670.563	2913.41
670.754	2946.17
670.945	2987.13
671.136	3021.95
671.327	2872.45
671.518	2962.56
671.709	3040.38
671.9	2892.93
672.091	2960.51
672.282	2847.87
672.473	2776.19
672.664	2849.92
672.855	2874.49
673.046	2927.74
673.237	2841.73
673.428	2765.95
673.619	2729.09
673.809	2776.19
674	2856.06
674.191	2757.76
674.382	2776.19
674.573	2753.66
674.764	2741.38
674.954	2677.89
675.145	2663.55
675.336	2643.07
675.527	2720.9
675.717	2688.13
675.908	2716.8
676.099	2526.34
676.289	2571.4
676.48	2563.2
676.671	2724.99
676.861	2755.71
677.052	2602.11
677.243	2632.83
677.433	2602.11
677.624	2663.55
677.814	2503.81
678.005	2585.73
678.195	2577.54
678.386	2708.61
678.576	2606.21
678.767	2581.64
678.957	2630.79
679.148	2692.23
679.338	2446.47
679.529	2589.83
679.719	2585.73
679.909	2643.07
680.1	2524.29
680.29	2587.78
680.481	2581.64
680.671	2497.67
680.861	2608.26
681.052	2561.16
681.242	2571.4
681.432	2473.09
681.622	2479.24
681.813	2536.58
682.003	2503.81
682.193	2407.56
682.383	2434.18
682.573	2436.23
682.764	2397.32
682.954	2473.09
683.144	2604.16
683.334	2425.99
683.524	2548.87
683.714	2548.87
683.904	2397.32
684.094	2573.44
684.284	2581.64
684.474	2565.25
684.664	2438.28
684.854	2503.81
685.044	2401.41
685.234	2348.17
685.424	2495.62
685.614	2364.55
685.804	2438.28
685.994	2512
686.184	2311.3
686.374	2430.09
686.564	2360.45
686.753	2342.02
686.943	2284.68
687.133	2417.8
687.323	2327.69
687.513	2481.28
687.702	2425.99
687.892	2331.78
688.082	2225.29
688.272	2368.65
688.461	2270.34
688.651	2352.26
688.841	2276.49
689.03	2294.92
689.22	2225.29
689.41	2294.92
689.599	2200.71
689.789	2251.91
689.979	2307.21
690.168	2233.48
690.358	2249.86
690.547	2032.78
690.737	2190.47
690.926	2176.14
691.116	2282.63
691.305	2274.44
691.495	2233.48
691.684	2194.57
691.874	2172.04
692.063	2188.43
692.252	2176.14
692.442	2249.86
692.631	2110.6
692.82	2040.97
693.01	2038.92
693.199	2004.11
693.388	2063.5
693.578	2090.12
693.767	2090.12
693.956	2063.5
694.146	2016.4
694.335	2045.07
694.524	1991.82
694.713	2112.65
694.902	2086.03
695.092	2028.68
695.281	2100.36
695.47	2022.54
695.659	2045.07
695.848	2000.01
696.037	2063.5
696.226	1924.24
696.415	1901.71
696.604	2063.5
696.793	1971.34
696.982	2049.16
697.171	2030.73
697.36	2004.11
697.549	2002.06
697.738	1891.47
697.927	1928.33
698.116	1971.34
698.305	1924.24
698.494	2022.54
698.683	2028.68
698.872	2102.41
699.061	1967.24
699.25	1977.48
699.438	1873.04
699.627	1954.96
699.816	1905.81
700.005	1963.15
700.193	1834.13
700.382	1973.39
700.571	1889.42
700.76	1963.15
700.948	1883.28
701.137	1954.96
701.326	1985.68
701.514	1957
701.703	1995.92
701.892	1932.43
702.08	2016.4
702.269	1942.67
702.457	1924.24
702.646	1934.48
702.834	1946.76
703.023	1897.61
703.212	2028.68
703.4	1848.46
703.589	1971.34
703.777	1909.9
703.965	1879.18
704.154	1930.38
704.342	1889.42
704.531	1903.76
704.719	1899.66
704.907	1952.91
705.096	1899.66
705.284	1860.75
705.472	1877.13
705.661	1981.58
705.849	1897.61
706.037	1924.24
706.226	1934.48
706.414	1909.9
706.602	1948.81
706.79	2069.64
706.979	1854.61
707.167	1922.19
707.355	1852.56
707.543	2012.3
707.731	1991.82
707.919	2061.45
708.107	1942.67
708.296	1866.89
708.484	1832.08
708.672	1895.57
708.86	1963.15
709.048	1987.72
709.236	2036.88
709.424	1957
709.612	1918.09
709.8	1862.8
709.988	1868.94
710.176	1938.57
710.364	1965.2
710.551	1858.7
710.739	1975.44
710.927	1883.28
711.115	2002.06
711.303	1897.61
711.491	1948.81
711.679	1889.42
711.866	1819.79
712.054	1905.81
712.242	1889.42
712.43	2102.41
712.617	1918.09
712.805	1985.68
712.993	1854.61
713.181	1954.96
713.368	1963.15
713.556	1897.61
713.744	1893.52
713.931	1967.24
714.119	1977.48
714.306	1959.05
714.494	1991.82
714.682	1899.66
714.869	1817.74
715.057	1932.43
715.244	1905.81
715.432	2000.01
715.619	1979.53
715.807	1963.15
715.994	1940.62
716.182	1922.19
716.369	1883.28
716.556	2036.88
716.744	1971.34
716.931	1950.86
717.119	1981.58
717.306	1881.23
717.493	1981.58
717.681	1963.15
717.868	2008.2
718.055	1965.2
718.242	1948.81
718.43	1957
718.617	1881.23
718.804	1979.53
718.991	2016.4
719.179	1959.05
719.366	1985.68
719.553	1905.81
719.74	1838.22
719.927	1969.29
720.114	1858.7
720.301	1881.23
720.488	1881.23
720.676	1932.43
720.863	1975.44
721.05	2026.64
721.237	2020.49
721.424	2034.83
721.611	1965.2
721.798	1832.08
721.985	1856.65
722.172	1995.92
722.358	1959.05
722.545	1934.48
722.732	1961.1
722.919	2020.49
723.106	1924.24
723.293	1934.48
723.48	1920.14
723.667	1881.23
723.853	2012.3
724.04	2047.12
724.227	1901.71
724.414	1873.04
724.6	1954.96
724.787	1995.92
724.974	1881.23
725.161	1918.09
725.347	1957
725.534	1950.86
725.72	1836.17
725.907	1934.48
726.094	1905.81
726.28	1914
726.467	1934.48
726.653	1969.29
726.84	1963.15
727.027	1989.77
727.213	2030.73
727.4	1967.24
727.586	1889.42
727.773	1903.76
727.959	1905.81
728.145	1924.24
728.332	2016.4
728.518	1875.09
728.705	1959.05
728.891	1963.15
729.077	1883.28
729.264	1864.85
729.45	1979.53
729.636	2069.64
729.823	2022.54
730.009	1893.52
730.195	1926.29
730.382	1973.39
730.568	1924.24
730.754	1932.43
730.94	1883.28
731.126	2122.89
731.313	1934.48
731.499	1905.81
731.685	1922.19
731.871	1961.1
732.057	1977.48
732.243	1995.92
732.429	2016.4
732.615	1946.76
732.801	2094.22
732.987	2065.55
733.173	1897.61
733.359	1907.85
733.545	1985.68
733.731	1926.29
733.917	2061.45
734.103	1897.61
734.289	1963.15
734.475	1987.72
734.661	1979.53
734.847	2008.2
735.033	1965.2
735.219	1957
735.404	1971.34
735.59	1926.29
735.776	1954.96
735.962	1885.33
736.148	2020.49
736.333	1971.34
736.519	1840.27
736.705	1889.42
736.89	1889.42
737.076	1848.46
737.262	1965.2
737.447	1811.6
737.633	1895.57
737.819	2008.2
738.004	1971.34
738.19	1946.76
738.375	1893.52
738.561	1852.56
738.747	1875.09
738.932	1803.41
739.118	1907.85
739.303	1875.09
739.489	1889.42
739.674	1873.04
739.859	1832.08
740.045	1827.98
740.23	1942.67
740.416	1778.83
740.601	1930.38
740.786	1848.46
740.972	1842.32
741.157	1791.12
741.342	1877.13
741.528	1709.2
741.713	1725.58
741.898	1832.08
742.084	1799.31
742.269	1782.93
742.454	1741.97
742.639	1819.79
742.824	1694.86
743.01	1696.91
743.195	1719.44
743.38	1703.06
743.565	1791.12
743.75	1719.44
743.935	1725.58
744.12	1776.78
744.305	1727.63
744.49	1672.34
744.675	1717.39
744.86	1711.25
745.045	1678.48
745.23	1735.82
745.415	1715.34
745.6	1678.48
745.785	1619.09
745.97	1653.91
746.155	1584.27
746.34	1668.24
746.525	1639.57
746.71	1676.43
746.895	1602.71
747.079	1594.51
747.264	1535.12
747.449	1629.33
747.634	1571.99
747.819	1578.13
748.003	1455.25
748.188	1531.03
748.373	1569.94
748.557	1543.32
748.742	1496.21
748.927	1475.73
749.111	1524.88
749.296	1453.2
749.481	1522.84
749.665	1549.46
749.85	1397.91
750.034	1463.44
750.219	1426.58
750.404	1356.95
750.588	1254.55
750.773	1389.72
750.957	1475.73
751.141	1424.53
751.326	1356.95
751.51	1424.53
751.695	1397.91
751.879	1381.53
752.064	1467.54
752.248	1283.22
752.432	1287.32
752.617	1342.61
752.801	1406.1
752.985	1199.26
753.17	1340.57
753.354	1283.22
753.538	1293.46
753.722	1326.23
753.907	1201.3
754.091	1260.7
754.275	1277.08
754.459	1160.34
754.643	1266.84
754.828	1129.63
755.012	1164.44
755.196	1285.27
755.38	1189.02
755.564	1139.87
755.748	1137.82
755.932	1197.21
756.116	1105.05
756.3	1211.54
756.484	1123.48
756.668	1082.52
756.852	1086.62
757.036	1076.38
757.22	1115.29
757.404	1041.56
757.588	1152.15
757.772	1127.58
757.956	1051.8
758.14	1139.87
758.323	1127.58
758.507	1072.28
758.691	1111.19
758.875	1094.81
759.059	1078.43
759.242	937.12
759.426	1053.85
759.61	971.93
759.794	963.74
759.977	1023.13
760.161	947.36
760.345	933.02
760.528	1045.66
760.712	955.55
760.895	1002.65
761.079	1012.89
761.263	998.56
761.446	906.4
761.63	906.4
761.813	996.51
761.997	875.68
762.18	930.97
762.364	926.88
762.547	885.92
762.731	916.64
762.914	875.68
763.098	924.83
763.281	912.54
763.464	834.72
763.648	853.15
763.831	916.64
764.015	912.54
764.198	971.93
764.381	894.11
764.564	935.07
764.748	873.63
764.931	830.62
765.114	865.44
765.297	873.63
765.481	826.53
765.664	892.06
765.847	857.25
766.03	779.42
766.213	808.09
766.397	861.34
766.58	816.29
766.763	851.1
766.946	795.81
767.129	892.06
767.312	742.56
767.495	816.29
767.678	758.94
767.861	734.37
768.044	799.9
768.227	830.62
768.41	816.29
768.593	816.29
768.776	767.13
768.959	722.08
769.142	824.48
769.324	734.37
769.507	754.85
769.69	734.37
769.873	754.85
770.056	879.77
770.239	760.99
770.421	892.06
770.604	744.61
770.787	666.78
770.97	760.99
771.152	785.57
771.335	752.8
771.518	652.45
771.7	754.85
771.883	705.7
772.066	748.7
772.248	722.08
772.431	715.94
772.613	736.42
772.796	685.22
772.978	693.41
773.161	677.02
773.343	720.03
773.526	681.12
773.708	648.35
773.891	683.17
774.073	611.49
774.256	613.54
774.438	746.66
774.621	631.97
774.803	687.26
774.985	652.45
775.168	701.6
775.35	703.65
775.532	695.46
775.715	652.45
775.897	670.88
776.079	660.64
776.261	570.53
776.444	605.35
776.626	629.92
776.808	541.86
776.99	554.15
777.173	613.54
777.355	586.91
777.537	679.07
777.719	586.91
777.901	619.68
778.083	595.11
778.265	529.57
778.447	629.92
778.629	472.23
778.811	504.99
778.993	525.47
779.175	572.58
779.357	593.06
779.539	464.04
779.721	513.19
779.903	531.62
780.085	531.62
780.267	498.85
780.449	556.19
780.631	515.23
780.812	482.47
780.994	464.04
781.176	439.46
781.358	453.8
781.54	548
781.721	496.8
781.903	474.28
782.085	435.36
782.267	476.32
782.448	427.17
782.63	496.8
782.812	390.31
782.993	484.52
783.175	386.21
783.357	398.5
783.538	402.6
783.72	373.92
783.901	414.88
784.083	406.69
784.264	337.06
784.446	388.26
784.627	375.97
784.809	410.79
784.99	472.23
785.172	427.17
785.353	351.4
785.535	398.5
785.716	414.88
785.897	392.36
786.079	410.79
786.26	406.69
786.441	363.69
786.623	345.25
786.804	341.16
786.985	384.16
787.167	308.39
787.348	345.25
787.529	351.4
787.71	394.4
787.891	351.4
788.073	373.92
788.254	326.82
788.435	416.93
788.616	349.35
788.797	283.81
788.978	316.58
789.159	384.16
789.34	314.53
789.522	265.38
789.703	259.24
789.884	365.73
790.065	308.39
790.246	271.53
790.427	300.2
790.607	332.97
790.788	271.53
790.969	324.77
791.15	253.09
791.331	193.7
791.512	277.67
791.693	318.63
791.874	267.43
792.054	339.11
792.235	320.68
792.416	238.76
792.597	269.48
792.778	300.2
792.958	324.77
793.139	300.2
793.32	357.54
793.5	273.57
793.681	332.97
793.862	267.43
794.042	259.24
794.223	222.38
794.404	226.47
794.584	199.85
794.765	283.81
794.945	261.29
795.126	242.85
795.306	349.35
795.487	242.85
795.667	263.33
795.848	246.95
796.028	216.23
796.209	275.62
796.389	232.62
796.57	242.85
796.75	242.85
796.93	251.05
797.111	226.47
797.291	228.52
797.471	181.42
797.652	271.53
797.832	181.42
798.012	253.09
798.192	185.51
798.373	187.56
798.553	212.14
798.733	179.37
798.913	214.18
799.093	261.29
799.274	205.99
799.454	220.33
799.634	324.77
799.814	236.71
799.994	238.76
800.174	189.61
800.354	148.65
800.534	220.33
800.714	201.9
800.894	95.4
801.074	158.89
801.254	136.36
801.434	228.52
801.614	222.38
801.794	158.89
801.974	709.79
802.154	193.7
802.334	185.51
802.514	171.18
802.693	173.22
802.873	193.7
803.053	201.9
803.233	181.42
803.413	226.47
803.592	124.07
803.772	189.61
803.952	216.23
804.131	136.36
804.311	171.18
804.491	146.6
804.67	171.18
804.85	205.99
805.03	152.74
805.209	162.98
805.389	173.22
805.568	189.61
805.748	140.46
805.928	136.36
806.107	201.9
806.287	185.51
806.466	173.22
806.646	89.26
806.825	162.98
807.004	203.94
807.184	148.65
807.363	236.71
807.543	144.55
807.722	187.56
807.901	152.74
808.081	185.51
808.26	111.78
808.439	111.78
808.619	74.92
808.798	167.08
808.977	91.31
809.156	214.18
809.336	93.35
809.515	187.56
809.694	81.07
809.873	122.02
810.052	169.13
810.231	238.76
810.411	152.74
810.59	218.28
810.769	179.37
810.948	124.07
811.127	97.45
811.306	91.31
811.485	140.46
811.664	158.89
811.843	29.87
812.022	136.36
812.201	124.07
812.38	146.6
812.559	103.59
812.737	160.94
812.916	52.39
813.095	169.13
813.274	144.55
813.453	152.74
813.632	152.74
813.811	128.17
813.989	79.02
814.168	122.02
814.347	66.73
814.526	132.26
814.704	107.69
814.883	222.38
815.062	95.4
815.24	136.36
815.419	109.74
815.598	136.36
815.776	70.83
815.955	119.98
816.133	89.26
816.312	208.04
816.49	111.78
816.669	119.98
816.847	138.41
817.026	152.74
817.204	132.26
817.383	113.83
817.561	40.11
817.74	79.02
817.918	130.22
818.097	62.63
818.275	-23.38
818.453	36.01
818.632	128.17
818.81	119.98
818.988	17.58
819.167	87.21
819.345	130.22
819.523	70.83
819.701	70.83
819.879	40.11
820.058	119.98
820.236	48.3
820.414	107.69
820.592	54.44
820.77	107.69
820.948	56.49
821.127	31.91
821.305	21.67
821.483	107.69
821.661	109.74
821.839	29.87
822.017	81.07
822.195	91.31
822.373	74.92
822.551	117.93
822.729	124.07
822.907	58.54
823.085	91.31
823.262	-2.9
823.44	105.64
823.618	64.68
823.796	89.26
823.974	50.35
824.152	48.3
824.329	54.44
824.507	62.63
824.685	50.35
824.863	81.07
825.04	5.29
825.218	128.17
825.396	93.35
825.574	79.02
825.751	46.25
825.929	38.06
826.107	40.11
826.284	79.02
826.462	81.07
826.639	111.78
826.817	5.29
826.994	70.83
827.172	-2.9
827.349	50.35
827.527	21.67
827.704	33.96
827.882	64.68
828.059	62.63
828.237	54.44
828.414	42.15
828.591	52.39
828.769	29.87
828.946	31.91
829.124	54.44
829.301	42.15
829.478	31.91
829.655	33.96
829.833	107.69
830.01	7.34
830.187	50.35
830.364	23.72
830.542	115.88
830.719	70.83
830.896	1.19
831.073	54.44
831.25	87.21
831.427	58.54
831.604	56.49
831.782	38.06
831.959	-2.9
832.136	48.3
832.313	89.26
832.49	15.53
832.667	46.25
832.844	36.01
833.021	38.06
833.198	25.77
833.374	111.78
833.551	89.26
833.728	17.58
833.905	93.35
834.082	5.29
834.259	79.02
834.436	111.78
834.612	48.3
834.789	111.78
834.966	48.3
835.143	64.68
835.319	54.44
835.496	29.87
835.673	70.83
835.85	95.4
836.026	79.02
836.203	58.54
836.38	54.44
836.556	7.34
836.733	-4.95
836.909	9.39
837.086	50.35
837.262	-19.29
837.439	-19.29
837.616	13.48
837.792	-60.24
837.968	46.25
838.145	46.25
838.321	-11.09
838.498	144.55
838.674	54.44
838.851	54.44
839.027	-62.29
839.203	27.82
839.38	54.44
839.556	54.44
839.732	54.44
839.909	-25.43
840.085	38.06
840.261	-33.62
840.437	-2.9
840.614	5.29
840.79	95.4
840.966	5.29
841.142	-0.85
841.318	70.83
841.494	9.39
841.671	68.78
841.847	66.73
842.023	-4.95
842.199	79.02
842.375	46.25
842.551	48.3
842.727	-35.67
842.903	162.98
843.079	-19.29
843.255	87.21
843.431	-11.09
843.607	40.11
843.783	-2.9
843.959	138.41
844.134	46.25
844.31	54.44
844.486	-21.33
844.662	40.11
844.838	-19.29
845.013	15.53
845.189	79.02
845.365	54.44
845.541	9.39
845.716	70.83
845.892	13.48
846.068	-23.38
846.244	-60.24
846.419	42.15
846.595	-7
846.77	13.48
846.946	-11.09
847.122	95.4
847.297	66.73
847.473	5.29
847.648	-76.63
847.824	-37.72
847.999	29.87
848.175	-35.67
848.35	56.49
848.526	-9.05
848.701	21.67
848.876	79.02
849.052	15.53
849.227	-27.48
849.403	-23.38
849.578	38.06
849.753	38.06
849.929	1.19
850.104	-23.38
850.279	29.87
850.454	31.91
850.63	-31.57
850.805	-68.44
850.98	74.92
851.155	-17.24
851.33	9.39
851.505	-2.9
851.681	74.92
851.856	42.15
852.031	103.59
852.206	-39.76
852.381	21.67
852.556	-60.24
852.731	50.35
852.906	19.63
853.081	103.59
853.256	48.3
853.431	31.91
853.606	-25.43
853.781	64.68
853.956	-84.82
854.131	54.44
854.305	-45.91
854.48	46.25
854.655	23.72
854.83	-25.43
855.005	-27.48
855.18	36.01
855.354	54.44
855.529	5.29
855.704	29.87
855.879	48.3
856.053	-19.29
856.228	38.06
856.403	-39.76
856.577	-0.85
856.752	-82.77
856.926	42.15
857.101	-2.9
857.276	-7
857.45	64.68
857.625	21.67
857.799	17.58
857.974	23.72
858.148	-99.16
858.323	-19.29
858.497	-43.86
858.672	-68.44
858.846	-43.86
859.02	3.24
859.195	-56.15
859.369	-68.44
859.543	17.58
859.718	40.11
859.892	-19.29
860.066	1.19
860.241	40.11
860.415	-25.43
860.589	-2.9
860.763	-17.24
860.938	-35.67
861.112	42.15
861.286	-64.34
861.46	31.91
861.634	23.72
861.808	-17.24
861.982	-41.81
862.157	-15.19
862.331	-52.05
862.505	5.29
862.679	-31.57
862.853	-7
863.027	-31.57
863.201	38.06
863.375	29.87
863.549	3.24
863.722	13.48
863.896	15.53
864.07	5.29
864.244	-33.62
864.418	-39.76
864.592	-52.05
864.766	-2.9
864.939	7.34
865.113	-66.39
865.287	85.16
865.461	40.11
865.634	-47.96
865.808	23.72
865.982	13.48
866.156	-52.05
866.329	5.29
866.503	21.67
866.676	-23.38
866.85	21.67
867.024	-11.09
867.197	15.53
867.371	-29.52
867.544	-84.82
867.718	-19.29
867.891	13.48
868.065	-72.53
868.238	21.67
868.412	44.2
868.585	21.67
868.759	-64.34
868.932	-25.43
869.105	-27.48
869.279	-35.67
869.452	17.58
869.625	33.96
869.799	-68.44
869.972	-58.2
870.145	-60.24
870.319	-9.05
870.492	-23.38
870.665	-0.85
870.838	13.48
871.011	-82.77
871.185	-35.67
871.358	-64.34
871.531	5.29
871.704	15.53
871.877	-39.76
872.05	15.53
872.223	-2.9
872.396	79.02
872.569	23.72
872.742	-27.48
872.915	15.53
873.088	-43.86
873.261	7.34
873.434	29.87
873.607	13.48
873.78	-19.29
873.953	-76.63
874.126	-68.44
874.299	-37.72
874.471	5.29
874.644	72.87
874.817	33.96
874.99	138.41
875.163	-17.24
875.335	7.34
875.508	-11.09
875.681	99.5
875.853	27.82
876.026	-0.85
876.199	70.83
876.371	-15.19
876.544	60.59
876.717	-17.24
876.889	-60.24
877.062	-60.24
877.234	-78.68
877.407	42.15
877.579	19.63
877.752	-23.38
877.924	-50
878.097	31.91
878.269	-47.96
878.442	38.06
878.614	31.91
878.786	21.67
878.959	25.77
879.131	40.11
879.303	-101.2
879.476	-60.24
879.648	-2.9
879.82	-17.24
879.993	-7
880.165	29.87
880.337	-82.77
880.509	17.58
880.681	27.82
880.854	23.72
881.026	1.19
881.198	99.5
881.37	11.43
881.542	-2.9
881.714	-0.85
881.886	-99.16
882.058	-19.29
882.23	-74.58
882.402	-17.24
882.574	25.77
882.746	-66.39
882.918	7.34
883.09	-47.96
883.262	17.58
883.434	-7
883.606	-11.09
883.778	-50
883.95	54.44
884.122	-19.29
884.293	87.21
884.465	-68.44
884.637	38.06
884.809	1.19
884.98	5.29
885.152	31.91
885.324	1.19
885.496	-76.63
885.667	-82.77
885.839	13.48
886.011	33.96
886.182	40.11
886.354	23.72
886.525	-11.09
886.697	-0.85
886.869	-47.96
887.04	9.39
887.212	29.87
887.383	64.68
887.555	-66.39
887.726	42.15
887.897	-56.15
888.069	29.87
888.24	-15.19
888.412	105.64
888.583	-23.38
888.754	-88.92
888.926	-76.63
889.097	-68.44
889.268	-2.9
889.44	23.72
889.611	-56.15
889.782	-13.14
889.953	-97.11
890.125	7.34
890.296	-35.67
890.467	-11.09
890.638	-33.62
890.809	13.48
890.98	-31.57
891.151	-25.43
891.323	-13.14
891.494	1.19
891.665	42.15
891.836	44.2
892.007	-9.05
892.178	46.25
892.349	-88.92
892.52	-68.44
892.691	-60.24
892.862	21.67
893.032	13.48
893.203	-27.48
893.374	-64.34
893.545	46.25
893.716	-23.38
893.887	-2.9
894.057	-17.24
894.228	-41.81
894.399	3.24
894.57	-11.09
894.74	-47.96
894.911	17.58
895.082	-35.67
895.253	3.24
895.423	-52.05
895.594	29.87
895.764	-35.67
895.935	-84.82
896.106	33.96
896.276	-68.44
896.447	-58.2
896.617	-41.81
896.788	-88.92
896.958	-27.48
897.129	-45.91
897.299	-58.2
897.47	-78.68
897.64	-27.48
897.81	-31.57
897.981	21.67
898.151	-33.62
898.322	15.53
898.492	-80.72
898.662	-68.44
898.832	13.48
899.003	-37.72
899.173	-7
899.343	-90.96
899.513	17.58
