Data from USB4F104151__251__14-45-54-641.txt Node

Date: Thu Mar 13 14:45:54 EDT 2025
User: louis
Spectrometer: USB4F10415
Trigger mode: 4
Integration Time (sec): 2.000000E-2
Scans to average: 1
Electric dark correction enabled: true
Nonlinearity correction enabled: false
Boxcar width: 0
XAxis mode: Wavelengths
Number of Pixels in Spectrum: 3648
>>>>>Begin Spectral Data<<<<<
178.204	-106.84
178.424	-106.84
178.644	-106.84
178.864	-47.44
179.084	-115.03
179.304	44.71
179.524	-33.11
179.744	-2.39
179.964	24.23
180.184	5.8
180.404	-16.73
180.624	-14.68
180.844	40.62
181.064	-80.21
181.283	7.85
181.503	-6.49
181.723	30.38
181.943	18.09
182.163	7.85
182.383	54.95
182.602	28.33
182.822	48.81
183.042	46.76
183.262	46.76
183.482	38.57
183.701	46.76
183.921	3.75
184.141	18.09
184.361	104.11
184.58	-35.16
184.8	22.19
185.02	16.04
185.239	13.99
185.459	77.48
185.679	54.95
185.898	-51.54
186.118	30.38
186.338	11.95
186.557	28.33
186.777	-2.39
186.997	22.19
187.216	-2.39
187.436	42.67
187.655	7.85
187.875	-31.06
188.095	16.04
188.314	63.15
188.534	67.24
188.753	-8.53
188.973	1.71
189.192	22.19
189.412	85.67
189.631	-24.92
189.851	7.85
190.07	130.73
190.29	-6.49
190.509	79.53
190.729	1.71
190.948	71.34
191.168	73.39
191.387	57
191.607	46.76
191.826	26.28
192.045	-37.2
192.265	-10.58
192.484	38.57
192.704	24.23
192.923	-26.96
193.142	18.09
193.362	3.75
193.581	28.33
193.8	67.24
194.02	71.34
194.239	81.58
194.458	73.39
194.678	-31.06
194.897	-31.06
195.116	-18.77
195.335	20.14
195.555	30.38
195.774	1.71
195.993	20.14
196.212	42.67
196.432	24.23
196.651	-35.16
196.87	3.75
197.089	57
197.308	112.3
197.528	-0.34
197.747	-0.34
197.966	63.15
198.185	-26.96
198.404	38.57
198.623	24.23
198.842	46.76
199.062	16.04
199.281	38.57
199.5	-10.58
199.719	57
199.938	38.57
200.157	-14.68
200.376	46.76
200.595	71.34
200.814	18.09
201.033	16.04
201.252	38.57
201.471	38.57
201.69	112.3
201.909	36.52
202.128	91.82
202.347	18.09
202.566	-16.73
202.785	20.14
203.004	13.99
203.223	63.15
203.442	69.29
203.661	5.8
203.879	16.04
204.098	-24.92
204.317	-10.58
204.536	-6.49
204.755	-0.34
204.974	59.05
205.193	71.34
205.411	61.1
205.63	28.33
205.849	71.34
206.068	5.8
206.287	16.04
206.505	40.62
206.724	-22.87
206.943	40.62
207.162	28.33
207.381	24.23
207.599	13.99
207.818	11.95
208.037	1.71
208.255	5.8
208.474	22.19
208.693	22.19
208.911	3.75
209.13	18.09
209.349	32.43
209.567	22.19
209.786	46.76
210.005	38.57
210.223	-45.4
210.442	30.38
210.661	63.15
210.879	-43.35
211.098	48.81
211.316	24.23
211.535	63.15
211.753	30.38
211.972	65.19
212.191	5.8
212.409	-8.53
212.628	-10.58
212.846	-76.12
213.065	71.34
213.283	34.47
213.502	24.23
213.72	57
213.938	71.34
214.157	36.52
214.375	5.8
214.594	46.76
214.812	106.15
215.031	36.52
215.249	-20.82
215.467	75.43
215.686	46.76
215.904	71.34
216.122	16.04
216.341	32.43
216.559	46.76
216.778	95.91
216.996	69.29
217.214	42.67
217.432	-47.44
217.651	38.57
217.869	30.38
218.087	67.24
218.306	22.19
218.524	24.23
218.742	-6.49
218.96	54.95
219.179	5.8
219.397	-18.77
219.615	61.1
219.833	22.19
220.051	16.04
220.27	11.95
220.488	20.14
220.706	38.57
220.924	3.75
221.142	-31.06
221.36	-33.11
221.578	-18.77
221.796	-39.25
222.015	104.11
222.233	67.24
222.451	57
222.669	40.62
222.887	50.86
223.105	13.99
223.323	-26.96
223.541	-16.73
223.759	32.43
223.977	42.67
224.195	5.8
224.413	79.53
224.631	106.15
224.849	3.75
225.067	32.43
225.285	13.99
225.503	13.99
225.721	-29.01
225.939	63.15
226.157	-16.73
226.375	32.43
226.592	-26.96
226.81	11.95
227.028	13.99
227.246	38.57
227.464	30.38
227.682	97.96
227.9	-18.77
228.117	71.34
228.335	5.8
228.553	3.75
228.771	-8.53
228.989	38.57
229.206	-12.63
229.424	-10.58
229.642	-2.39
229.86	-45.4
230.077	48.81
230.295	46.76
230.513	46.76
230.731	9.9
230.948	95.91
231.166	38.57
231.384	26.28
231.601	32.43
231.819	122.54
232.037	38.57
232.254	-59.73
232.472	28.33
232.689	-10.58
232.907	-2.39
233.125	-2.39
233.342	16.04
233.56	-29.01
233.777	7.85
233.995	38.57
234.213	38.57
234.43	42.67
234.648	63.15
234.865	30.38
235.083	24.23
235.3	57
235.518	79.53
235.735	9.9
235.953	71.34
236.17	50.86
236.388	26.28
236.605	13.99
236.822	59.05
237.04	40.62
237.257	54.95
237.475	-22.87
237.692	81.58
237.909	30.38
238.127	48.81
238.344	13.99
238.562	26.28
238.779	-26.96
238.996	30.38
239.214	34.47
239.431	77.48
239.648	24.23
239.865	5.8
240.083	38.57
240.3	18.09
240.517	-39.25
240.735	38.57
240.952	81.58
241.169	71.34
241.386	26.28
241.603	-31.06
241.821	-59.73
242.038	48.81
242.255	1.71
242.472	-0.34
242.689	50.86
242.907	97.96
243.124	34.47
243.341	48.81
243.558	-16.73
243.775	-14.68
243.992	-43.35
244.209	-10.58
244.426	81.58
244.643	38.57
244.86	-2.39
245.078	106.15
245.295	22.19
245.512	46.76
245.729	-33.11
245.946	40.62
246.163	1.71
246.38	13.99
246.597	48.81
246.814	-33.11
247.031	22.19
247.248	32.43
247.464	34.47
247.681	-6.49
247.898	11.95
248.115	-6.49
248.332	18.09
248.549	63.15
248.766	30.38
248.983	138.92
249.2	63.15
249.417	30.38
249.633	42.67
249.85	87.72
250.067	-47.44
250.284	-82.26
250.501	57
250.717	104.11
250.934	-51.54
251.151	-37.2
251.368	26.28
251.585	120.49
251.801	1.71
252.018	18.09
252.235	44.71
252.451	1.71
252.668	26.28
252.885	13.99
253.102	-26.96
253.318	-14.68
253.535	-6.49
253.752	122.54
253.968	-4.44
254.185	7.85
254.401	5.8
254.618	-16.73
254.835	75.43
255.051	69.29
255.268	40.62
255.484	-0.34
255.701	7.85
255.917	79.53
256.134	-6.49
256.351	54.95
256.567	52.91
256.784	-2.39
257	26.28
257.217	18.09
257.433	26.28
257.65	24.23
257.866	-22.87
258.082	30.38
258.299	16.04
258.515	32.43
258.732	30.38
258.948	79.53
259.165	26.28
259.381	7.85
259.597	32.43
259.814	-4.44
260.03	54.95
260.246	-8.53
260.463	-10.58
260.679	1.71
260.895	38.57
261.112	20.14
261.328	-37.2
261.544	67.24
261.761	57
261.977	81.58
262.193	-8.53
262.409	89.77
262.626	57
262.842	75.43
263.058	16.04
263.274	26.28
263.49	54.95
263.707	65.19
263.923	104.11
264.139	-18.77
264.355	13.99
264.571	-10.58
264.787	1.71
265.004	28.33
265.22	40.62
265.436	7.85
265.652	-18.77
265.868	34.47
266.084	3.75
266.3	-10.58
266.516	-8.53
266.732	93.87
266.948	-4.44
267.164	11.95
267.38	-35.16
267.596	54.95
267.812	83.63
268.028	-6.49
268.244	57
268.46	71.34
268.676	-92.5
268.892	95.91
269.108	9.9
269.324	63.15
269.54	63.15
269.756	30.38
269.972	50.86
270.188	13.99
270.403	54.95
270.619	30.38
270.835	46.76
271.051	34.47
271.267	34.47
271.483	-0.34
271.698	1.71
271.914	85.67
272.13	1.71
272.346	7.85
272.562	81.58
272.777	46.76
272.993	-10.58
273.209	-31.06
273.425	32.43
273.64	-47.44
273.856	18.09
274.072	-35.16
274.287	40.62
274.503	57
274.719	18.09
274.934	7.85
275.15	48.81
275.366	104.11
275.581	-10.58
275.797	7.85
276.012	1.71
276.228	38.57
276.444	54.95
276.659	54.95
276.875	-10.58
277.09	24.23
277.306	-18.77
277.521	104.11
277.737	57
277.952	5.8
278.168	40.62
278.383	-69.97
278.599	3.75
278.814	-16.73
279.03	38.57
279.245	67.24
279.461	-14.68
279.676	34.47
279.892	16.04
280.107	-59.73
280.322	79.53
280.538	63.15
280.753	-8.53
280.969	24.23
281.184	9.9
281.399	44.71
281.615	-35.16
281.83	73.39
282.045	24.23
282.26	22.19
282.476	20.14
282.691	52.91
282.906	32.43
283.122	63.15
283.337	46.76
283.552	48.81
283.767	-18.77
283.983	112.3
284.198	-10.58
284.413	-14.68
284.628	3.75
284.843	54.95
285.058	26.28
285.274	-37.2
285.489	50.86
285.704	95.91
285.919	9.9
286.134	79.53
286.349	-10.58
286.564	32.43
286.779	22.19
286.995	-24.92
287.21	77.48
287.425	30.38
287.64	50.86
287.855	63.15
288.07	24.23
288.285	-31.06
288.5	30.38
288.715	54.95
288.93	73.39
289.145	71.34
289.36	30.38
289.575	83.63
289.79	77.48
290.004	54.95
290.219	71.34
290.434	-8.53
290.649	24.23
290.864	13.99
291.079	-37.2
291.294	-41.3
291.509	5.8
291.724	-0.34
291.938	-26.96
292.153	30.38
292.368	38.57
292.583	65.19
292.798	97.96
293.012	38.57
293.227	-41.3
293.442	63.15
293.657	38.57
293.871	130.73
294.086	-8.53
294.301	67.24
294.516	13.99
294.73	32.43
294.945	91.82
295.16	-8.53
295.374	32.43
295.589	110.25
295.804	48.81
296.018	71.34
296.233	-16.73
296.447	46.76
296.662	7.85
296.877	69.29
297.091	16.04
297.306	40.62
297.52	87.72
297.735	54.95
297.949	24.23
298.164	24.23
298.378	48.81
298.593	20.14
298.807	30.38
299.022	136.87
299.236	-0.34
299.451	-8.53
299.665	-6.49
299.88	-31.06
300.094	63.15
300.309	-10.58
300.523	32.43
300.737	36.52
300.952	-6.49
301.166	30.38
301.381	5.8
301.595	-10.58
301.809	-22.87
302.024	26.28
302.238	7.85
302.452	104.11
302.667	34.47
302.881	-10.58
303.095	38.57
303.309	7.85
303.524	52.91
303.738	54.95
303.952	28.33
304.166	54.95
304.381	11.95
304.595	83.63
304.809	-8.53
305.023	-2.39
305.237	-8.53
305.452	40.62
305.666	5.8
305.88	3.75
306.094	13.99
306.308	95.91
306.522	16.04
306.736	52.91
306.95	-6.49
307.164	16.04
307.379	-0.34
307.593	79.53
307.807	13.99
308.021	102.06
308.235	5.8
308.449	81.58
308.663	54.95
308.877	106.15
309.091	13.99
309.305	-8.53
309.519	-2.39
309.733	71.34
309.947	26.28
310.161	63.15
310.374	50.86
310.588	54.95
310.802	50.86
311.016	67.24
311.23	-29.01
311.444	-10.58
311.658	95.91
311.872	87.72
312.085	46.76
312.299	95.91
312.513	-33.11
312.727	22.19
312.941	-39.25
313.154	73.39
313.368	-37.2
313.582	20.14
313.796	7.85
314.009	46.76
314.223	5.8
314.437	9.9
314.651	-2.39
314.864	95.91
315.078	3.75
315.292	9.9
315.505	-18.77
315.719	1.71
315.933	26.28
316.146	30.38
316.36	63.15
316.573	73.39
316.787	-29.01
317.001	50.86
317.214	-12.63
317.428	63.15
317.641	-14.68
317.855	46.76
318.068	-24.92
318.282	24.23
318.495	28.33
318.709	57
318.922	16.04
319.136	95.91
319.349	16.04
319.563	46.76
319.776	-10.58
319.99	65.19
320.203	61.1
320.417	79.53
320.63	-16.73
320.843	83.63
321.057	110.25
321.27	9.9
321.483	30.38
321.697	32.43
321.91	-35.16
322.124	11.95
322.337	75.43
322.55	16.04
322.763	11.95
322.977	24.23
323.19	22.19
323.403	42.67
323.617	54.95
323.83	38.57
324.043	83.63
324.256	-10.58
324.469	-18.77
324.683	112.3
324.896	46.76
325.109	16.04
325.322	-8.53
325.535	5.8
325.748	34.47
325.962	-10.58
326.175	24.23
326.388	36.52
326.601	1.71
326.814	30.38
327.027	65.19
327.24	11.95
327.453	22.19
327.666	-18.77
327.879	112.3
328.092	83.63
328.305	30.38
328.518	-59.73
328.731	69.29
328.944	44.71
329.157	71.34
329.37	24.23
329.583	50.86
329.796	16.04
330.009	24.23
330.222	34.47
330.435	22.19
330.648	91.82
330.861	-20.82
331.073	46.76
331.286	61.1
331.499	44.71
331.712	16.04
331.925	-8.53
332.138	106.15
332.35	50.86
332.563	-22.87
332.776	73.39
332.989	-41.3
333.202	34.47
333.414	77.48
333.627	48.81
333.84	16.04
334.053	36.52
334.265	59.05
334.478	63.15
334.691	63.15
334.903	63.15
335.116	46.76
335.329	7.85
335.541	63.15
335.754	75.43
335.966	22.19
336.179	7.85
336.392	11.95
336.604	-4.44
336.817	87.72
337.029	-20.82
337.242	52.91
337.454	104.11
337.667	-2.39
337.88	77.48
338.092	95.91
338.305	71.34
338.517	30.38
338.729	63.15
338.942	67.24
339.154	-0.34
339.367	16.04
339.579	38.57
339.792	34.47
340.004	69.29
340.217	48.81
340.429	13.99
340.641	-10.58
340.854	-6.49
341.066	54.95
341.278	75.43
341.491	85.67
341.703	7.85
341.915	-51.54
342.128	73.39
342.34	48.81
342.552	46.76
342.764	-65.88
342.977	30.38
343.189	-10.58
343.401	87.72
343.613	32.43
343.826	42.67
344.038	22.19
344.25	50.86
344.462	-41.3
344.674	16.04
344.886	50.86
345.099	59.05
345.311	91.82
345.523	-18.77
345.735	-39.25
345.947	44.71
346.159	42.67
346.371	79.53
346.583	-2.39
346.795	22.19
347.007	38.57
347.219	106.15
347.431	122.54
347.643	1.71
347.855	26.28
348.067	165.54
348.279	34.47
348.491	38.57
348.703	63.15
348.915	57
349.127	-35.16
349.339	52.91
349.551	-6.49
349.763	38.57
349.975	81.58
350.187	-2.39
350.399	46.76
350.61	73.39
350.822	-55.64
351.034	13.99
351.246	26.28
351.458	5.8
351.669	63.15
351.881	128.68
352.093	67.24
352.305	24.23
352.517	16.04
352.728	13.99
352.94	73.39
353.152	-41.3
353.363	-8.53
353.575	63.15
353.787	77.48
353.999	81.58
354.21	48.81
354.422	7.85
354.633	26.28
354.845	40.62
355.057	24.23
355.268	57
355.48	79.53
355.692	54.95
355.903	9.9
356.115	-35.16
356.326	-8.53
356.538	65.19
356.749	38.57
356.961	30.38
357.172	46.76
357.384	57
357.595	155.3
357.807	16.04
358.018	16.04
358.23	22.19
358.441	67.24
358.653	46.76
358.864	22.19
359.075	7.85
359.287	75.43
359.498	59.05
359.709	89.77
359.921	-0.34
360.132	36.52
360.344	46.76
360.555	5.8
360.766	-0.34
360.977	42.67
361.189	114.34
361.4	75.43
361.611	9.9
361.823	106.15
362.034	63.15
362.245	5.8
362.456	71.34
362.667	81.58
362.879	5.8
363.09	-6.49
363.301	54.95
363.512	95.91
363.723	-35.16
363.935	26.28
364.146	24.23
364.357	38.57
364.568	32.43
364.779	-26.96
364.99	81.58
365.201	54.95
365.412	46.76
365.623	89.77
365.834	46.76
366.045	59.05
366.256	46.76
366.467	79.53
366.678	24.23
366.889	85.67
367.1	7.85
367.311	71.34
367.522	36.52
367.733	59.05
367.944	38.57
368.155	-24.92
368.366	116.39
368.577	87.72
368.788	63.15
368.999	5.8
369.209	71.34
369.42	79.53
369.631	100.01
369.842	54.95
370.053	-14.68
370.264	59.05
370.474	-14.68
370.685	34.47
370.896	34.47
371.107	89.77
371.317	61.1
371.528	-10.58
371.739	46.76
371.95	65.19
372.16	75.43
372.371	18.09
372.582	44.71
372.792	34.47
373.003	69.29
373.214	106.15
373.424	87.72
373.635	63.15
373.846	85.67
374.056	46.76
374.267	18.09
374.477	112.3
374.688	-2.39
374.898	9.9
375.109	13.99
375.319	87.72
375.53	42.67
375.74	106.15
375.951	5.8
376.161	50.86
376.372	97.96
376.582	63.15
376.793	-2.39
377.003	54.95
377.214	-31.06
377.424	93.87
377.635	69.29
377.845	102.06
378.055	95.91
378.266	-8.53
378.476	-0.34
378.686	40.62
378.897	91.82
379.107	20.14
379.317	52.91
379.528	57
379.738	63.15
379.948	26.28
380.158	77.48
380.369	93.87
380.579	112.3
380.789	-51.54
380.999	-10.58
381.21	24.23
381.42	91.82
381.63	50.86
381.84	87.72
382.05	65.19
382.261	97.96
382.471	91.82
382.681	77.48
382.891	79.53
383.101	-0.34
383.311	-2.39
383.521	83.63
383.731	108.2
383.941	63.15
384.151	71.34
384.361	26.28
384.571	138.92
384.781	54.95
384.991	73.39
385.201	81.58
385.411	26.28
385.621	28.33
385.831	13.99
386.041	83.63
386.251	63.15
386.461	24.23
386.671	-10.58
386.881	50.86
387.091	73.39
387.301	13.99
387.511	71.34
387.72	104.11
387.93	22.19
388.14	5.8
388.35	46.76
388.56	-2.39
388.769	79.53
388.979	120.49
389.189	40.62
389.399	79.53
389.609	116.39
389.818	91.82
390.028	5.8
390.238	52.91
390.447	-2.39
390.657	54.95
390.867	104.11
391.076	42.67
391.286	87.72
391.496	-10.58
391.705	40.62
391.915	65.19
392.125	48.81
392.334	50.86
392.544	13.99
392.753	32.43
392.963	32.43
393.172	69.29
393.382	87.72
393.591	81.58
393.801	38.57
394.01	128.68
394.22	87.72
394.429	30.38
394.639	16.04
394.848	114.34
395.058	3.75
395.267	73.39
395.477	128.68
395.686	112.3
395.895	13.99
396.105	143.02
396.314	120.49
396.524	46.76
396.733	79.53
396.942	128.68
397.152	67.24
397.361	138.92
397.57	128.68
397.78	38.57
397.989	112.3
398.198	106.15
398.407	87.72
398.617	83.63
398.826	112.3
399.035	87.72
399.244	120.49
399.453	95.91
399.663	153.26
399.872	153.26
400.081	87.72
400.29	30.38
400.499	-18.77
400.708	138.92
400.917	40.62
401.127	108.2
401.336	128.68
401.545	169.64
401.754	83.63
401.963	116.39
402.172	32.43
402.381	89.77
402.59	67.24
402.799	108.2
403.008	91.82
403.217	114.34
403.426	97.96
403.635	50.86
403.844	204.46
404.053	157.35
404.262	104.11
404.471	136.87
404.68	173.74
404.888	183.98
405.097	79.53
405.306	122.54
405.515	57
405.724	190.12
405.933	149.16
406.142	153.26
406.35	165.54
406.559	171.69
406.768	194.22
406.977	155.3
407.185	186.02
407.394	175.78
407.603	173.74
407.812	149.16
408.02	226.98
408.229	177.83
408.438	251.56
408.646	120.49
408.855	212.65
409.064	243.37
409.272	204.46
409.481	251.56
409.69	233.13
409.898	226.98
410.107	163.5
410.315	317.09
410.524	243.37
410.733	280.23
410.941	263.85
411.15	276.13
411.358	384.68
411.567	313
411.775	323.24
411.984	401.06
412.192	280.23
412.401	358.05
412.609	399.01
412.818	442.02
413.026	378.53
413.234	480.93
413.443	425.64
413.651	380.58
413.86	409.25
414.068	495.27
414.276	519.84
414.485	523.94
414.693	513.7
414.901	636.58
415.11	554.66
415.318	521.89
415.526	636.58
415.734	622.24
415.943	673.44
416.151	630.43
416.359	702.11
416.567	734.88
416.776	718.5
416.984	771.74
417.192	853.66
417.4	843.42
417.608	906.91
417.817	898.72
418.025	890.53
418.233	990.88
418.441	917.15
418.649	935.58
418.857	1035.93
419.065	1070.75
419.273	1042.07
419.481	1154.71
419.689	1253.02
419.897	1218.2
420.105	1222.3
420.313	1167
420.521	1328.79
420.729	1367.7
420.937	1425.04
421.145	1492.63
421.353	1517.2
421.561	1580.69
421.769	1611.41
421.977	1685.14
422.185	1662.61
422.393	1758.86
422.601	1859.21
422.809	1969.8
423.017	1916.56
423.224	2027.15
423.432	2111.11
423.64	2012.81
423.848	2238.09
424.056	2131.59
424.263	2365.06
424.471	2465.41
424.679	2262.66
424.887	2516.61
425.094	2561.67
425.302	2666.11
425.51	2676.35
425.718	2791.04
425.925	2795.14
426.133	2909.82
426.341	3192.44
426.548	3118.72
426.756	3180.15
426.964	3268.22
427.171	3440.25
427.379	3499.64
427.586	3565.17
427.794	3628.66
428.001	3851.89
428.209	4032.11
428.417	4077.16
428.624	4306.54
428.832	4204.14
429.039	4249.19
429.247	4300.39
429.454	4638.31
429.662	4961.89
429.869	4675.17
430.076	4896.35
430.284	4718.18
430.491	4994.65
430.699	5359.19
430.906	5305.95
431.114	5396.06
431.321	5480.02
431.528	5633.62
431.736	6051.41
431.943	6350.41
432.15	6207.05
432.358	6239.82
432.565	6350.41
432.772	6485.58
432.979	6798.91
433.187	6962.75
433.394	7009.86
433.601	7484.98
433.808	7448.12
434.016	7530.04
434.223	7724.6
434.43	8345.13
434.637	7820.85
434.844	8650.28
435.052	8734.25
435.259	8752.68
435.466	8689.19
435.673	8644.13
435.88	9162.27
436.087	9704.98
436.294	9692.69
436.501	9578.01
436.708	9614.87
436.915	10173.97
437.122	10503.69
437.329	10409.48
437.537	10767.88
437.743	11015.68
437.95	10835.46
438.157	11376.13
438.364	11828.73
438.571	11785.72
438.778	11802.1
438.985	13182.43
439.192	12424.69
439.399	12697.06
439.606	12735.98
439.813	13315.55
440.02	14153.17
440.227	13694.43
440.433	13798.87
440.64	14247.38
440.847	14177.75
441.054	14601.68
441.261	15373.76
441.467	15168.96
441.674	15457.73
441.881	15885.75
442.088	16074.17
442.294	15840.7
442.501	16213.43
442.708	16842.15
442.914	17257.89
443.121	18132.37
443.328	17651.1
443.534	18869.64
443.741	18068.89
443.948	17896.86
444.154	19101.06
444.361	19178.89
444.568	19461.51
444.774	19330.44
444.981	19504.51
445.187	20127.1
445.394	20890.99
445.6	20770.16
445.807	22959.44
446.013	21697.89
446.22	22283.61
446.426	22820.17
446.633	23166.28
446.839	24233.27
447.046	23074.12
447.252	24413.49
447.459	24407.35
447.665	24460.6
447.871	25107.76
448.078	26414.36
448.284	25199.91
448.491	26223.9
448.697	27127.05
448.903	27362.57
449.11	28030.21
449.316	27237.64
449.522	27755.78
449.728	28689.65
449.935	28790
450.141	28718.32
450.347	29699.3
450.553	28507.38
450.76	28777.72
450.966	29756.64
451.172	29568.23
451.378	30584.02
451.584	29789.41
451.791	30586.07
451.997	30301.4
452.203	30991.57
452.409	31003.86
452.615	30682.33
452.821	29646.05
453.027	29426.92
453.233	30891.22
453.44	29601
453.646	30067.94
453.852	30184.67
454.058	30989.52
454.264	30110.94
454.47	30588.12
454.676	29709.54
454.882	30883.03
455.088	27938.05
455.294	28982.51
455.5	29320.43
455.705	29529.32
455.911	28241.15
456.117	27892.99
456.323	27503.88
456.529	26156.32
456.735	27114.76
456.941	26381.59
457.147	26131.74
457.352	25318.7
457.558	25115.95
457.764	25025.84
457.97	24632.63
458.176	24145.21
458.381	24499.51
458.587	23090.51
458.793	23135.56
458.999	21824.86
459.204	23377.22
459.41	22828.37
459.616	21378.4
459.821	21362.02
460.027	21288.29
460.233	20639.09
460.438	20129.14
460.644	20018.55
460.85	18969.99
461.055	18947.47
461.261	19148.17
461.466	17554.85
461.672	16876.97
461.878	18333.07
462.083	17259.94
462.289	16836.01
462.494	16528.81
462.7	15748.54
462.905	15209.92
463.111	16182.71
463.316	16084.41
463.522	15711.67
463.727	15758.78
463.932	15793.59
464.138	15644.09
464.343	15513.02
464.549	15388.1
464.754	15621.56
464.959	15412.67
465.165	15357.38
465.37	14702.03
465.575	14214.61
465.781	14904.78
465.986	15048.13
466.191	14317.01
466.397	14175.7
466.602	13714.91
466.807	13958.61
467.012	14095.83
467.218	13872.6
467.423	13784.54
467.628	13923.8
467.833	14669.26
468.038	14044.63
468.244	13661.66
468.449	13962.71
468.654	13622.75
468.859	13540.83
469.064	13395.42
469.269	12938.73
469.474	13186.53
469.679	13473.25
469.885	12877.29
470.09	13215.2
470.295	13164
470.5	12830.18
470.705	13020.64
470.91	12520.94
471.115	12492.27
471.32	12654.06
471.525	12690.92
471.73	12113.39
471.935	12359.15
472.139	11924.98
472.344	12080.63
472.549	11877.88
472.754	11750.9
472.959	11587.07
473.164	11374.08
473.369	11171.33
473.574	11650.55
473.778	11474.43
473.983	11240.96
474.188	11281.92
474.393	10958.34
474.598	10786.31
474.802	10796.55
475.007	10634.76
475.212	10737.16
475.417	10321.42
475.621	10522.12
475.826	10434.06
476.031	10130.96
476.235	9934.36
476.44	10319.37
476.645	9938.45
476.849	9827.86
477.054	9942.55
477.259	9672.22
477.463	9592.34
477.668	9424.41
477.872	9461.27
478.077	9260.57
478.282	9084.45
478.486	9123.36
478.691	9016.87
478.895	8980
479.1	8828.45
479.304	8984.1
479.509	8760.87
479.713	9078.3
479.918	8568.36
480.122	8619.56
480.326	8742.44
480.531	8816.16
480.735	8619.56
480.94	8578.6
481.144	8807.97
481.348	8420.91
481.553	8427.05
481.757	8295.98
481.961	8463.91
482.166	8580.65
482.37	8599.08
482.574	8291.88
482.778	8242.73
482.983	8443.43
483.187	8181.29
483.391	8486.44
483.595	8390.19
483.8	8255.02
484.004	8300.08
484.208	8257.07
484.412	8353.32
484.616	8379.95
484.821	8392.23
485.025	8275.5
485.229	8410.67
485.433	8312.36
485.637	8173.1
485.841	8158.77
486.045	8295.98
486.249	8435.24
486.453	8259.12
486.657	8318.51
486.861	8447.53
487.065	8099.38
487.269	8263.21
487.473	8285.74
487.677	8320.56
487.881	8631.85
488.085	8468.01
488.289	8502.82
488.493	8392.23
488.697	8472.11
488.901	8494.63
489.105	8298.03
489.309	8402.47
489.512	8521.26
489.716	8465.96
489.92	8615.46
490.124	8502.82
490.328	8683.05
490.531	8476.2
490.735	8703.53
490.939	8879.65
491.143	8695.33
491.346	8623.66
491.55	8826.4
491.754	8939.04
491.958	8918.56
492.161	8783.4
492.365	8799.78
492.569	8877.6
492.772	8724.01
492.976	9192.99
493.18	9000.48
493.383	9197.09
493.587	9371.16
493.79	9401.88
493.994	9176.61
494.197	9373.21
494.401	9369.12
494.605	9397.79
494.808	9578.01
495.012	9717.27
495.215	9604.63
495.419	9850.39
495.622	9690.65
495.825	9852.44
496.029	10085.9
496.232	10116.62
496.436	10216.97
496.639	10466.83
496.843	10358.28
497.046	10632.71
497.249	10757.64
497.453	10696.2
497.656	10946.05
497.859	10941.96
498.063	11312.64
498.266	11277.82
498.469	11292.16
498.673	11376.13
498.876	11779.57
499.079	11728.38
499.282	11601.4
499.485	12107.25
499.689	11970.04
499.892	12303.85
500.095	12230.13
500.298	12670.44
500.501	12439.02
500.705	12885.48
500.908	12981.73
501.111	13098.47
501.314	13452.77
501.517	13639.13
501.72	13579.74
501.923	13630.94
502.126	13958.61
502.329	14130.64
502.532	14216.66
502.735	14423.5
502.938	14788.04
503.141	14673.35
503.344	14853.58
503.547	15015.37
503.75	15396.29
503.953	15513.02
504.156	15848.89
504.359	15758.78
504.562	16008.63
504.765	16227.76
504.968	16414.13
505.17	16653.74
505.373	16655.79
505.576	17030.57
505.779	17143.21
505.982	17362.34
506.185	17577.37
506.387	17626.53
506.59	17888.67
506.793	18240.92
506.996	18122.13
507.198	18769.29
507.401	18781.58
507.604	19002.76
507.807	19119.49
508.009	19469.7
508.212	19721.6
508.415	19891.58
508.617	20237.69
508.82	20387.19
509.022	20338.04
509.225	21007.72
509.428	20974.95
509.63	21149.03
509.833	21146.98
510.035	21839.2
510.238	21720.42
510.44	22091.1
510.643	22164.82
510.845	22539.6
511.048	22658.38
511.25	22992.2
511.453	22967.63
511.655	23991.61
511.858	23790.91
512.06	24032.57
512.262	24046.91
512.465	24225.08
512.667	24792.37
512.87	24825.14
513.072	24941.87
513.274	25611.56
513.477	25822.5
513.679	25847.07
513.881	26416.41
514.084	26598.68
514.286	26631.44
514.488	26836.24
514.69	27739.4
514.893	27522.31
515.095	27686.15
515.297	28224.76
515.499	28214.52
515.701	28341.5
515.904	28859.63
516.106	29394.15
516.308	29363.43
516.51	29828.32
516.712	30074.08
516.914	29951.2
517.116	30903.51
517.318	30702.81
517.52	30950.61
517.722	31186.13
517.925	31485.13
518.127	32093.38
518.329	32318.65
518.531	32220.35
518.733	32926.9
518.935	33047.73
519.136	33086.64
519.338	33598.63
519.54	33758.38
519.742	33782.95
519.944	34208.93
520.146	34772.12
520.348	35064.98
520.55	34745.5
520.752	35251.34
520.954	36195.46
521.155	35529.87
521.357	36179.07
521.559	36156.55
521.761	36797.56
521.963	37219.44
522.164	36973.69
522.366	37205.11
522.568	37760.11
522.77	37753.96
522.971	38425.7
523.173	38288.48
523.375	38628.45
523.576	38634.59
523.778	38550.62
523.98	39216.21
524.181	39547.98
524.383	39515.22
524.584	39910.47
524.786	40006.73
524.988	39742.54
525.189	40811.58
525.391	40604.74
525.592	40778.81
525.794	41036.86
525.995	40963.13
526.197	41034.81
526.398	41352.24
526.6	41546.8
526.801	41430.07
527.003	41542.7
527.204	41839.66
527.406	42212.39
527.607	42091.56
527.808	42632.22
528.01	42310.69
528.211	42200.1
528.412	43133.98
528.614	42814.49
528.815	42593.31
529.016	43002.91
529.218	42748.96
529.419	43103.26
529.62	43205.66
529.822	43125.78
530.023	43183.13
530.224	43443.22
530.425	43420.69
530.626	43170.84
530.828	43011.1
531.029	43979.79
531.23	44067.85
531.431	43613.2
531.632	43695.12
531.833	44215.3
532.035	43887.63
532.236	44088.33
532.437	44248.07
532.638	44131.34
532.839	44286.98
533.04	44411.91
533.241	43815.95
533.442	44919.81
533.643	44121.1
533.844	44403.72
534.045	44246.02
534.246	43828.24
534.447	44497.92
534.648	44368.9
534.849	44534.79
535.05	44256.26
535.251	44737.54
535.451	44274.7
535.652	44805.12
535.853	44631.04
536.054	44424.2
536.255	44694.53
536.456	43891.72
536.657	44921.85
536.857	44706.82
537.058	44026.89
537.259	44940.28
537.46	44508.16
537.66	44864.51
537.861	44768.26
538.062	44301.32
538.263	44911.61
538.463	44565.51
538.664	44467.2
538.865	44608.51
539.065	44614.66
539.266	44104.71
539.466	44997.63
539.667	44164.1
539.868	44991.48
540.068	44760.06
540.269	44428.29
540.469	44741.63
540.67	44467.2
540.87	44729.34
541.071	44422.15
541.271	44772.35
541.472	44551.17
541.672	44344.33
541.873	44499.97
542.073	43996.17
542.274	44932.09
542.474	44377.09
542.675	44346.37
542.875	44628.99
543.075	44530.69
543.276	44014.6
543.476	44452.87
543.676	44401.67
543.877	44764.16
544.077	44573.7
544.277	44182.54
544.478	44483.59
544.678	44444.68
544.878	44469.25
545.078	44659.71
545.279	44198.92
545.479	44622.85
545.679	44743.68
545.879	44051.47
546.079	44096.52
546.28	44454.92
546.48	44166.15
546.68	44919.81
546.88	44524.55
547.08	44366.85
547.28	44049.42
547.48	44264.46
547.68	44059.66
547.88	44211.21
548.081	44491.78
548.281	44395.53
548.481	44280.84
548.681	44706.82
548.881	44205.06
549.081	44358.66
549.28	44145.67
549.48	44162.06
549.68	43955.21
549.88	44641.28
550.08	43944.97
550.28	44280.84
550.48	44131.34
550.68	44536.84
550.88	43879.44
551.08	44096.52
551.279	44026.89
551.479	43695.12
551.679	44028.94
551.879	43875.34
552.079	44739.58
552.278	43746.32
552.478	44043.27
552.678	43992.08
552.878	44241.93
553.077	44051.47
553.277	43666.45
553.477	44329.99
553.676	43740.18
553.876	43979.79
554.076	43275.29
554.275	43836.43
554.475	43215.9
554.674	43605.01
554.874	43715.6
555.074	43838.48
555.273	43695.12
555.473	43643.92
555.672	43777.04
555.872	43381.78
556.071	43736.08
556.271	43803.66
556.47	43353.11
556.67	43224.09
556.869	43095.07
557.068	43529.23
557.268	42953.76
557.467	43340.82
557.667	43093.02
557.866	43277.33
558.065	43047.96
558.265	42826.78
558.464	42558.5
558.663	43736.08
558.863	42386.47
559.062	43365.4
559.261	42667.04
559.461	43269.14
559.66	42568.74
559.859	42785.82
560.058	42589.22
560.258	42685.47
560.457	42122.28
560.656	42896.41
560.855	42404.9
561.054	42791.97
561.253	42331.17
561.453	42318.88
561.652	42441.76
561.851	42507.3
562.05	42585.12
562.249	42153
562.448	42458.15
562.647	42140.71
562.846	41839.66
563.045	42077.22
563.244	41944.11
563.443	42175.53
563.642	41804.84
563.841	41790.51
564.04	41468.98
564.239	41782.32
564.438	41505.84
564.637	41221.17
564.836	41929.77
565.035	41219.13
565.234	41493.55
565.432	41524.27
565.631	40971.32
565.83	41411.63
566.029	41333.81
566.228	41081.91
566.427	40995.9
566.625	40498.24
566.824	40516.67
567.023	40993.85
567.222	40412.23
567.42	40551.49
567.619	40584.26
567.818	40477.76
568.016	40555.58
568.215	40102.98
568.414	40393.79
568.612	40373.31
568.811	40176.71
569.01	39969.86
569.208	39855.18
569.407	40098.89
569.605	39767.12
569.804	40029.26
570.002	39330.9
570.201	39547.98
570.4	39035.99
570.598	39361.62
570.797	39304.27
570.995	39306.32
571.193	38595.68
571.392	39363.67
571.59	38679.64
571.789	39144.53
571.987	39017.56
572.186	38718.56
572.384	38736.99
572.582	38593.63
572.781	38685.79
572.979	38151.27
573.177	38149.22
573.376	38530.14
573.574	38134.88
573.772	38003.81
573.971	38122.6
574.169	37835.88
574.367	37776.49
574.565	37954.66
574.763	38032.49
574.962	37667.95
575.16	37194.87
575.358	37418.1
575.556	37051.51
575.754	37309.55
575.952	36883.58
576.151	37438.58
576.349	36652.16
576.547	36584.57
576.745	36768.89
576.943	36979.83
577.141	36711.55
577.339	37014.65
577.537	36121.73
577.735	36443.26
577.933	36404.35
578.131	36293.76
578.329	36457.6
578.527	35781.77
578.725	36129.92
578.923	36273.28
579.121	35871.88
579.319	35468.43
579.516	35929.22
579.714	35605.64
579.912	35374.22
580.11	35357.84
580.308	35038.36
580.506	35306.64
580.704	34954.39
580.901	34634.91
581.099	35228.82
581.297	34505.88
581.495	34639
581.692	34667.67
581.89	34415.77
582.088	34860.18
582.285	34270.37
582.483	34772.12
582.681	34329.76
582.878	34294.94
583.076	33989.8
583.274	34426.01
583.471	33602.73
583.669	33914.02
583.866	33498.28
584.064	33737.9
584.262	33051.83
584.459	33445.04
584.657	32928.95
584.854	33498.28
585.052	33135.79
585.249	33000.63
585.447	33418.41
585.644	32732.34
585.841	33248.43
586.039	33301.68
586.236	32527.55
586.434	32509.11
586.631	32634.04
586.828	32402.62
587.026	32255.17
587.223	32314.56
587.42	32001.22
587.618	31861.96
587.815	31956.16
588.012	31855.81
588.21	31995.07
588.407	32019.65
588.604	31630.54
588.801	31296.72
588.999	31323.34
589.196	31364.3
589.393	31321.29
589.59	31397.07
589.787	31024.34
589.984	30938.32
590.182	30536.92
590.379	31055.06
590.576	30325.98
590.773	30774.49
590.97	30667.99
591.167	30608.6
591.364	30221.53
591.561	30698.71
591.758	29961.44
591.955	29705.45
592.152	30446.81
592.349	29615.33
592.546	30076.13
592.743	29936.87
592.94	29105.39
593.137	29531.37
593.334	29709.54
593.531	29119.73
593.727	29474.02
593.924	29336.81
594.121	29117.68
594.318	29273.32
594.515	28665.08
594.712	29261.04
594.908	28572.92
595.105	28992.75
595.302	28710.13
595.499	28982.51
595.696	28599.54
595.892	28372.22
596.089	28529.91
596.286	28861.68
596.482	28083.45
596.679	27835.65
596.876	27794.69
597.072	27936
597.269	28067.07
597.466	27733.25
597.662	27641.09
597.859	27753.73
598.055	27780.35
598.252	27733.25
598.448	27749.64
598.645	27415.82
598.841	26891.54
599.038	27161.87
599.234	27084.05
599.431	26920.21
599.627	27108.62
599.824	27122.96
600.02	26817.81
600.217	26940.69
600.413	26840.34
600.609	26842.39
600.806	26477.85
601.002	26574.1
601.198	26504.47
601.395	26479.89
601.591	25896.22
601.787	26121.5
601.984	26146.08
602.18	26199.32
602.376	25898.27
602.572	25531.69
602.769	25642.28
602.965	25238.83
603.161	25554.21
603.357	25322.79
603.553	25460.01
603.75	25550.12
603.946	25355.56
604.142	25410.85
604.338	24778.03
604.534	25308.46
604.73	24630.58
604.926	24962.35
605.122	24769.84
605.318	24698.16
605.514	24366.39
605.71	24370.49
605.906	24436.02
606.102	24372.53
606.298	24509.75
606.494	24268.09
606.69	24261.94
606.886	24192.31
607.082	23786.82
607.278	24030.52
607.474	23403.85
607.67	24110.39
607.866	23571.78
608.062	23786.82
608.257	23926.08
608.453	23545.16
608.649	23881.02
608.845	23334.21
609.041	23706.94
609.236	23596.35
609.432	23747.9
609.628	23393.61
609.824	22938.96
610.019	22955.34
610.215	23336.26
610.411	23174.47
610.606	23002.44
610.802	23135.56
610.998	22963.53
611.193	22910.29
611.389	22732.11
611.584	22455.64
611.78	22617.43
611.976	22664.53
612.171	22766.93
612.367	22510.93
612.562	22453.59
612.758	22211.93
612.953	22525.27
613.149	22461.78
613.344	22213.98
613.539	22601.04
613.735	22195.54
613.93	22230.36
614.126	22273.37
614.321	22340.95
614.517	21847.39
614.712	22025.56
614.907	21775.71
615.103	21863.77
615.298	21751.13
615.493	21992.8
615.688	21603.68
615.884	21691.74
616.079	21501.28
616.274	21532
616.47	21431.65
616.665	21601.63
616.86	21394.79
617.055	21220.71
617.25	21179.75
617.445	21339.49
617.641	20901.23
617.836	21370.21
618.031	20680.05
618.226	20999.53
618.421	20882.8
618.616	21161.32
618.811	20655.47
619.006	20972.91
619.201	20450.67
619.396	20759.92
619.591	20104.57
619.786	20479.35
619.981	20032.89
620.176	20241.78
620.371	20108.66
620.566	20002.17
620.761	19989.88
620.956	20059.51
621.151	19746.17
621.346	19789.18
621.541	19555.71
621.735	19590.53
621.93	19357.06
622.125	19258.76
622.32	18886.03
622.515	19230.09
622.709	18969.99
622.904	18898.31
623.099	18679.18
623.294	18711.95
623.488	18718.09
623.683	18736.52
623.878	18464.14
624.072	18570.64
624.267	18285.97
624.462	18128.28
624.656	17790.36
624.851	18029.98
625.046	18013.59
625.24	17581.47
625.435	17753.5
625.629	17698.2
625.824	17524.13
626.018	17366.43
626.213	17003.94
626.407	17421.73
626.602	17071.53
626.796	17108.39
626.991	17083.81
627.185	16940.46
627.38	16717.23
627.574	16860.59
627.768	16508.33
627.963	16115.12
628.157	16311.73
628.352	16133.56
628.546	16219.57
628.74	16088.5
628.935	15920.57
629.129	16145.84
629.323	15838.65
629.517	15928.76
629.712	15924.66
629.906	15590.84
630.1	15318.46
630.294	15599.04
630.489	15269.31
630.683	15300.03
630.877	15123.91
631.071	15056.32
631.265	15228.35
631.459	15007.17
631.653	14722.51
631.848	14730.7
632.042	14689.74
632.236	14915.02
632.43	14669.26
632.624	14712.27
632.818	14460.37
633.012	14335.44
633.206	14335.44
633.4	14394.83
633.594	14163.41
633.788	14173.65
633.982	14015.96
634.176	13891.03
634.369	13786.58
634.563	13962.71
634.757	13516.25
634.951	13983.19
635.145	13716.95
635.339	13542.88
635.533	13383.13
635.726	13301.22
635.92	13196.77
636.114	13465.05
636.308	13409.76
636.501	13123.04
636.695	13186.53
636.889	12971.49
637.083	12717.54
637.276	12821.99
637.47	12787.18
637.664	12641.77
637.857	12631.53
638.051	12555.76
638.244	12473.84
638.438	12201.46
638.632	12617.19
638.825	12258.8
639.019	12142.07
639.212	12013.04
639.406	12248.56
639.599	11884.02
639.793	12101.11
639.986	11585.02
640.18	11892.21
640.373	11533.82
640.567	11746.81
640.76	11736.57
640.954	11369.98
641.147	11326.97
641.34	11523.58
641.534	11519.48
641.727	11226.62
641.92	11427.32
642.114	11152.9
642.307	11081.22
642.5	10909.19
642.694	11025.92
642.887	10769.93
643.08	11042.31
643.273	10872.32
643.467	10610.18
643.66	10532.36
643.853	10712.58
644.046	10376.72
644.239	10491.4
644.432	10434.06
644.626	10253.84
644.819	10255.89
645.012	10380.81
645.205	10214.93
645.398	10202.64
645.591	10094.1
645.784	10087.95
645.977	9899.54
646.17	9846.29
646.363	9678.36
646.556	9629.21
646.749	9889.3
646.942	9623.06
647.135	9506.33
647.328	9598.49
647.521	9463.32
647.714	9340.44
647.907	9369.12
648.099	9426.46
648.292	9223.71
648.485	9360.92
648.678	9158.17
648.871	9092.64
649.064	9127.46
649.256	9192.99
649.449	8871.46
649.642	8846.88
649.835	8742.44
650.027	8764.96
650.22	8721.96
650.413	8689.19
650.605	8584.74
650.798	8554.02
650.991	8412.71
651.183	8388.14
651.376	8504.87
651.568	8527.4
651.761	8336.94
651.954	8447.53
652.146	8164.91
652.339	8042.03
652.531	8300.08
652.724	8136.24
652.916	7927.35
653.109	7888.43
653.301	8011.31
653.494	7874.1
653.686	7755.32
653.879	7958.07
654.071	7749.17
654.263	7902.77
654.456	7720.5
654.648	7767.6
654.84	7566.9
655.033	7493.18
655.225	7640.63
655.417	7573.05
655.61	7652.92
655.802	7319.1
655.994	7253.56
656.186	7286.33
656.379	7241.28
656.571	7349.82
656.763	7151.17
656.955	7210.56
657.148	7167.55
657.34	6962.75
657.532	6970.94
657.724	7036.48
657.916	7059.01
658.108	7046.72
658.3	6698.56
658.492	6835.78
658.684	6682.18
658.876	6682.18
659.068	6567.49
659.26	6606.41
659.452	6645.32
659.644	6553.16
659.836	6479.43
660.028	6612.55
660.22	6362.7
660.412	6391.37
660.604	6252.11
660.796	6272.59
660.988	6252.11
661.18	6286.92
661.372	5996.11
661.563	6248.01
661.755	6053.45
661.947	6209.1
662.139	5955.15
662.331	5953.1
662.522	5873.23
662.714	5727.83
662.906	5895.76
663.097	5813.84
663.289	5854.8
663.481	5856.85
663.673	5725.78
663.864	5719.64
664.056	5555.8
664.247	5502.55
664.439	5453.4
664.631	5551.7
664.822	5736.02
665.014	5394.01
665.205	5441.11
665.397	5338.71
665.588	5404.25
665.78	5391.96
665.971	5260.89
666.163	5256.79
666.354	5183.07
666.546	5232.22
666.737	5176.92
666.929	5058.14
667.12	5058.14
667.311	5158.49
667.503	5138.01
667.694	5082.72
667.885	5031.52
668.077	5092.96
668.268	4920.93
668.459	4972.13
668.651	4851.3
668.842	4939.36
669.033	4728.42
669.224	4757.09
669.416	4826.72
669.607	4789.86
669.798	4660.84
669.989	4777.57
670.18	4763.23
670.371	4603.49
670.563	4597.35
670.754	4716.13
670.945	4380.26
671.136	4546.15
671.327	4494.95
671.518	4408.94
671.709	4437.61
671.9	4511.33
672.091	4367.98
672.282	4527.72
672.473	4370.02
672.664	4347.5
672.855	4601.44
673.046	4374.12
673.237	4529.77
673.428	4374.12
673.619	4265.58
673.809	4300.39
674	4273.77
674.191	4228.71
674.382	4249.19
674.573	4234.86
674.764	4206.19
674.954	4189.8
675.145	4103.79
675.336	4101.74
675.527	4195.95
675.717	4077.16
675.908	4015.73
676.099	4200.04
676.289	4093.55
676.48	3980.91
676.671	3804.78
676.861	4093.55
677.052	4134.51
677.243	3993.2
677.433	4007.53
677.624	3896.94
677.814	3939.95
678.005	3868.27
678.195	4030.06
678.386	3954.29
678.576	3864.18
678.767	3872.37
678.957	3855.98
679.148	3890.8
679.338	3819.12
679.529	3903.09
679.719	3757.68
679.909	3765.87
680.1	3731.06
680.29	3864.18
680.481	3692.15
680.671	3872.37
680.861	3708.53
681.052	3884.66
681.242	3733.11
681.432	3790.45
681.622	3643
681.813	3661.43
682.003	3692.15
682.193	3778.16
682.383	3546.74
682.573	3743.35
682.764	3720.82
682.954	3573.36
683.144	3696.24
683.334	3718.77
683.524	3657.33
683.714	3585.65
683.904	3561.08
684.094	3593.84
684.284	3538.55
684.474	3561.08
684.664	3647.09
684.854	3589.75
685.044	3548.79
685.234	3538.55
685.424	3575.41
685.614	3556.98
685.804	3585.65
685.994	3481.21
686.184	3528.31
686.374	3380.86
686.564	3391.09
686.753	3548.79
686.943	3513.97
687.133	3497.59
687.323	3348.09
687.513	3511.93
687.702	3466.87
687.892	3528.31
688.082	3417.72
688.272	3442.29
688.461	3434.1
688.651	3481.21
688.841	3380.86
689.03	3421.81
689.22	3227.26
689.41	3374.71
689.599	3380.86
689.789	3339.9
689.979	3368.57
690.168	3399.29
690.358	3387
690.547	3337.85
690.737	3341.94
690.926	3237.5
691.116	3241.59
691.305	3327.61
691.495	3233.4
691.684	3206.78
691.874	3323.51
692.063	3085.95
692.252	3266.17
692.442	3264.12
692.631	3090.04
692.82	3194.49
693.01	3128.95
693.199	3147.39
693.388	3135.1
693.578	3112.57
693.767	3137.15
693.956	3182.2
694.146	3085.95
694.335	3231.35
694.524	3210.87
694.713	3176.06
694.902	3071.61
695.092	3081.85
695.281	3053.18
695.47	3077.76
695.659	2942.59
695.848	3028.6
696.037	3063.42
696.226	3004.03
696.415	2907.77
696.604	3047.04
696.793	2979.45
696.982	2983.55
697.171	3018.36
697.36	3077.76
697.549	2889.34
697.738	2940.54
697.927	2913.92
698.116	2932.35
698.305	2934.4
698.494	3047.04
698.683	2997.88
698.872	2872.96
699.061	2860.67
699.25	2924.16
699.438	2799.23
699.627	2922.11
699.816	2928.25
700.005	2788.99
700.193	2834.05
700.382	2793.09
700.571	2815.62
700.76	2752.13
700.948	2819.71
701.137	2725.51
701.326	2770.56
701.514	2733.7
701.703	2758.27
701.892	2815.62
702.08	2905.73
702.269	2670.21
702.457	2774.66
702.646	2705.03
702.834	2717.31
703.023	2682.5
703.212	2702.98
703.4	2723.46
703.589	2709.12
703.777	2741.89
703.965	2721.41
704.154	2778.75
704.342	2676.35
704.531	2627.2
704.719	2743.94
704.907	2631.3
705.096	2619.01
705.284	2655.87
705.472	2553.48
705.661	2641.54
705.849	2676.35
706.037	2537.09
706.226	2688.64
706.414	2557.57
706.602	2739.84
706.79	2561.67
706.979	2635.39
707.167	2528.9
707.355	2512.52
707.543	2508.42
707.731	2522.76
707.919	2522.76
708.107	2594.44
708.296	2414.21
708.484	2377.35
708.672	2492.04
708.86	2573.96
709.048	2424.45
709.236	2367.11
709.424	2600.58
709.612	2481.8
709.8	2504.32
709.988	2455.17
710.176	2606.72
710.364	2426.5
710.551	2500.23
710.739	2500.23
710.927	2539.14
711.115	2463.37
711.303	2438.79
711.491	2360.97
711.679	2336.39
711.866	2422.41
712.054	2489.99
712.242	2399.88
712.43	2471.56
712.617	2246.28
712.805	2381.45
712.993	2352.77
713.181	2422.41
713.368	2369.16
713.556	2307.72
713.744	2354.82
713.931	2573.96
714.119	2342.53
714.306	2289.29
714.494	2391.69
714.682	2311.82
714.869	2332.3
715.057	2272.9
715.244	2309.77
715.432	2311.82
715.619	2432.65
715.807	2424.45
715.994	2287.24
716.182	2141.83
716.369	2164.36
716.556	2383.49
716.744	2254.47
716.931	2133.64
717.119	2205.32
717.306	2221.7
717.493	2240.14
717.681	2209.42
717.868	2094.73
718.055	2135.69
718.242	2164.36
718.43	2131.59
718.617	2164.36
718.804	2129.55
718.991	2178.7
719.179	2156.17
719.366	2219.66
719.553	2274.95
719.74	2145.93
719.927	2170.51
720.114	2156.17
720.301	2139.79
720.488	2119.31
720.676	2127.5
720.863	2176.65
721.05	2102.92
721.237	2176.65
721.424	2119.31
721.611	2217.61
721.798	2061.96
721.985	2053.77
722.172	2096.78
722.358	2047.63
722.545	2102.92
722.732	2084.49
722.919	2176.65
723.106	1980.04
723.293	1998.48
723.48	2025.1
723.667	1947.28
723.853	1973.9
724.04	2070.16
724.227	2172.55
724.414	2016.91
724.6	2082.44
724.787	2139.79
724.974	2113.16
725.161	2000.52
725.347	2008.72
725.534	2000.52
725.72	1965.71
725.907	2047.63
726.094	2025.1
726.28	1988.24
726.467	1996.43
726.653	1984.14
726.84	1994.38
727.027	2045.58
727.213	1961.61
727.4	1973.9
727.586	1912.46
727.773	2055.82
727.959	2037.39
728.145	2053.77
728.332	1934.99
728.518	1894.03
728.705	1932.94
728.891	1939.09
729.077	2027.15
729.264	1894.03
729.45	1832.59
729.636	1959.56
729.823	2006.67
730.009	1941.13
730.195	1900.17
730.382	1990.28
730.568	1881.74
730.754	1918.61
730.94	1939.09
731.126	1996.43
731.313	1881.74
731.499	1980.04
731.685	1803.92
731.871	1846.93
732.057	1894.03
732.243	1877.65
732.429	1869.45
732.615	1910.41
732.801	1867.41
732.987	1932.94
733.173	1949.32
733.359	1920.65
733.545	1851.02
733.731	1808.02
733.917	1941.13
734.103	1824.4
734.289	1791.63
734.475	1820.3
734.661	1842.83
734.847	1867.41
735.033	1652.37
735.219	1869.45
735.404	1826.45
735.59	1853.07
735.776	1832.59
735.962	1861.26
736.148	1859.21
736.333	1877.65
736.519	1707.66
736.705	1838.73
736.89	1713.81
737.076	1756.82
737.262	1664.66
737.447	1767.06
737.633	1818.25
737.819	1816.21
738.004	1691.28
738.19	1674.9
738.375	1705.62
738.561	1760.91
738.747	1685.14
738.932	1779.34
739.118	1752.72
739.303	1765.01
739.489	1785.49
739.674	1590.93
739.859	1769.1
740.045	1640.08
740.23	1619.6
740.416	1554.07
740.601	1627.79
740.786	1597.07
740.972	1574.55
741.157	1558.16
741.342	1660.56
741.528	1640.08
741.713	1685.14
741.898	1523.35
742.084	1570.45
742.269	1574.55
742.454	1572.5
742.639	1558.16
742.824	1590.93
743.01	1515.16
743.195	1668.75
743.38	1498.77
743.565	1621.65
743.75	1533.59
743.935	1607.31
744.12	1611.41
744.305	1472.15
744.49	1535.64
744.675	1498.77
744.86	1488.53
745.045	1488.53
745.23	1488.53
745.415	1570.45
745.6	1406.61
745.785	1502.87
745.97	1504.92
746.155	1480.34
746.34	1466
746.525	1447.57
746.71	1472.15
746.895	1457.81
747.079	1425.04
747.264	1441.43
747.449	1404.57
747.634	1304.21
747.819	1410.71
748.003	1312.41
748.188	1341.08
748.373	1324.69
748.557	1455.76
748.742	1408.66
748.927	1320.6
749.111	1351.32
749.296	1291.93
749.481	1197.72
749.665	1224.34
749.85	1306.26
750.034	1228.44
750.219	1300.12
750.404	1234.58
750.588	1343.13
750.773	1222.3
750.957	1298.07
751.141	1300.12
751.326	1248.92
751.51	1218.2
751.695	1201.82
751.879	1183.38
752.064	1224.34
752.248	1218.2
752.432	1177.24
752.617	1232.54
752.801	1164.95
752.985	1169.05
753.17	1164.95
753.354	1136.28
753.538	1250.97
753.722	1156.76
753.907	1142.43
754.091	1142.43
754.275	1089.18
754.459	1169.05
754.643	1113.75
754.828	1099.42
755.012	1103.51
755.196	1054.36
755.38	1025.69
755.564	1046.17
755.748	1048.22
755.932	1050.27
756.116	1083.03
756.3	1056.41
756.484	1005.21
756.668	958.11
756.852	1083.03
757.036	972.44
757.22	954.01
757.404	968.35
757.588	1021.6
757.772	1023.64
757.956	958.11
758.14	984.73
758.323	964.25
758.507	939.68
758.691	945.82
758.875	923.29
759.059	919.2
759.242	900.76
759.426	863.9
759.61	911
759.794	882.33
759.977	943.77
760.161	972.44
760.345	878.24
760.528	874.14
760.712	896.67
760.895	935.58
761.079	837.28
761.263	898.72
761.446	849.57
761.63	882.33
761.813	921.24
761.997	835.23
762.18	882.33
762.364	818.85
762.547	792.22
762.731	806.56
762.914	841.37
763.098	792.22
763.281	691.87
763.464	736.93
763.648	818.85
763.831	738.98
764.015	806.56
764.198	827.04
764.381	818.85
764.564	833.18
764.748	820.89
764.931	794.27
765.114	767.65
765.297	818.85
765.481	777.89
765.664	683.68
765.847	792.22
766.03	808.61
766.213	775.84
766.397	736.93
766.58	806.56
766.763	792.22
766.946	753.31
767.129	784.03
767.312	640.67
767.495	751.26
767.678	784.03
767.861	849.57
768.044	751.26
768.227	769.69
768.41	749.22
768.593	741.02
768.776	751.26
768.959	736.93
769.142	796.32
769.324	720.54
769.507	695.97
769.69	792.22
769.873	753.31
770.056	771.74
770.239	673.44
770.421	814.75
770.604	773.79
770.787	646.82
770.97	702.11
771.152	628.39
771.335	698.02
771.518	663.2
771.7	693.92
771.883	724.64
772.066	679.58
772.248	646.82
772.431	724.64
772.613	652.96
772.796	722.59
772.978	595.62
773.161	622.24
773.343	659.1
773.526	673.44
773.708	609.95
773.891	587.43
774.073	571.04
774.256	573.09
774.438	722.59
774.621	620.19
774.803	663.2
774.985	620.19
775.168	644.77
775.35	575.14
775.532	669.34
775.715	581.28
775.897	626.34
776.079	599.71
776.261	603.81
776.444	530.08
776.626	554.66
776.808	493.22
776.99	614.05
777.173	540.32
777.355	554.66
777.537	550.56
777.719	554.66
777.901	505.51
778.083	564.9
778.265	485.03
778.447	589.47
778.629	612
778.811	478.88
778.993	482.98
779.175	554.66
779.357	482.98
779.539	390.82
779.721	450.21
779.903	493.22
780.085	476.84
780.267	513.7
780.449	480.93
780.631	554.66
780.812	480.93
780.994	431.78
781.176	468.64
781.358	532.13
781.54	513.7
781.721	540.32
781.903	482.98
782.085	433.83
782.267	497.32
782.448	423.59
782.63	431.78
782.812	450.21
782.993	384.68
783.175	511.65
783.357	337.57
783.538	450.21
783.72	472.74
783.901	464.55
784.083	431.78
784.264	358.05
784.446	366.25
784.627	351.91
784.809	448.16
784.99	366.25
785.172	415.4
785.353	333.48
785.535	415.4
785.716	415.4
785.897	302.76
786.079	345.77
786.26	341.67
786.441	448.16
786.623	362.15
786.804	341.67
786.985	376.48
787.167	358.05
787.348	390.82
787.529	362.15
787.71	329.38
787.891	409.25
788.073	374.44
788.254	300.71
788.435	390.82
788.616	317.09
788.797	315.05
788.978	317.09
789.159	368.29
789.34	276.13
789.522	288.42
789.703	399.01
789.884	269.99
790.065	308.9
790.246	267.94
790.427	306.85
790.607	304.81
790.788	374.44
790.969	292.52
791.15	351.91
791.331	282.28
791.512	278.18
791.693	222.89
791.874	321.19
792.054	351.91
792.235	294.57
792.416	255.65
792.597	341.67
792.778	272.04
792.958	339.62
793.139	353.96
793.32	235.18
793.5	229.03
793.681	423.59
793.862	267.94
794.042	220.84
794.223	269.99
794.404	247.46
794.584	163.5
794.765	253.61
794.945	239.27
795.126	319.14
795.306	376.48
795.487	292.52
795.667	226.98
795.848	345.77
796.028	259.75
796.209	284.33
796.389	245.41
796.57	181.93
796.75	220.84
796.93	196.26
797.111	198.31
797.291	204.46
797.471	210.6
797.652	229.03
797.832	157.35
798.012	288.42
798.192	179.88
798.373	245.41
798.553	222.89
798.733	196.26
798.913	212.65
799.093	196.26
799.274	198.31
799.454	280.23
799.634	269.99
799.814	177.83
799.994	253.61
800.174	220.84
800.354	204.46
800.534	276.13
800.714	239.27
800.894	147.11
801.074	224.94
801.254	272.04
801.434	153.26
801.614	239.27
801.794	251.56
801.974	769.69
802.154	181.93
802.334	220.84
802.514	120.49
802.693	167.59
802.873	155.3
803.053	237.22
803.233	198.31
803.413	179.88
803.592	145.06
803.772	186.02
803.952	186.02
804.131	169.64
804.311	165.54
804.491	186.02
804.67	106.15
804.85	218.79
805.03	210.6
805.209	206.5
805.389	222.89
805.568	136.87
805.748	104.11
805.928	206.5
806.107	188.07
806.287	155.3
806.466	186.02
806.646	136.87
806.825	165.54
807.004	91.82
807.184	186.02
807.363	112.3
807.543	177.83
807.722	114.34
807.901	255.65
808.081	169.64
808.26	79.53
808.439	106.15
808.619	136.87
808.798	153.26
808.977	169.64
809.156	235.18
809.336	202.41
809.515	188.07
809.694	159.4
809.873	140.97
810.052	169.64
810.231	161.45
810.411	112.3
810.59	145.06
810.769	112.3
810.948	194.22
811.127	136.87
811.306	177.83
811.485	153.26
811.664	163.5
811.843	120.49
812.022	120.49
812.201	87.72
812.38	140.97
812.559	188.07
812.737	194.22
812.916	128.68
813.095	104.11
813.274	161.45
813.453	140.97
813.632	132.78
813.811	179.88
813.989	112.3
814.168	175.78
814.347	87.72
814.526	95.91
814.704	97.96
814.883	169.64
815.062	171.69
815.24	132.78
815.419	95.91
815.598	73.39
815.776	138.92
815.955	165.54
816.133	73.39
816.312	32.43
816.49	106.15
816.669	147.11
816.847	38.57
817.026	145.06
817.204	77.48
817.383	177.83
817.561	122.54
817.74	79.53
817.918	175.78
818.097	95.91
818.275	46.76
818.453	161.45
818.632	83.63
818.81	26.28
818.988	89.77
819.167	130.73
819.345	104.11
819.523	63.15
819.701	67.24
819.879	110.25
820.058	128.68
820.236	106.15
820.414	75.43
820.592	122.54
820.77	104.11
820.948	108.2
821.127	91.82
821.305	165.54
821.483	149.16
821.661	126.63
821.839	87.72
822.017	9.9
822.195	73.39
822.373	126.63
822.551	138.92
822.729	100.01
822.907	79.53
823.085	71.34
823.262	120.49
823.44	61.1
823.618	104.11
823.796	87.72
823.974	5.8
824.152	-12.63
824.329	48.81
824.507	65.19
824.685	81.58
824.863	50.86
825.04	95.91
825.218	83.63
825.396	100.01
825.574	91.82
825.751	132.78
825.929	100.01
826.107	9.9
826.284	118.44
826.462	122.54
826.639	97.96
826.817	5.8
826.994	7.85
827.172	108.2
827.349	167.59
827.527	161.45
827.704	81.58
827.882	63.15
828.059	73.39
828.237	79.53
828.414	50.86
828.591	59.05
828.769	67.24
828.946	20.14
829.124	202.41
829.301	67.24
829.478	124.58
829.655	26.28
829.833	87.72
830.01	112.3
830.187	-14.68
830.364	24.23
830.542	71.34
830.719	97.96
830.896	83.63
831.073	118.44
831.25	38.57
831.427	153.26
831.604	30.38
831.782	-24.92
831.959	63.15
832.136	-24.92
832.313	65.19
832.49	46.76
832.667	100.01
832.844	40.62
833.021	30.38
833.198	44.71
833.374	69.29
833.551	85.67
833.728	46.76
833.905	59.05
834.082	40.62
834.259	20.14
834.436	63.15
834.612	46.76
834.789	97.96
834.966	48.81
835.143	22.19
835.319	34.47
835.496	24.23
835.673	26.28
835.85	87.72
836.026	54.95
836.203	65.19
836.38	-35.16
836.556	24.23
836.733	38.57
836.909	120.49
837.086	7.85
837.262	57
837.439	22.19
837.616	7.85
837.792	38.57
837.968	34.47
838.145	48.81
838.321	89.77
838.498	87.72
838.674	34.47
838.851	-8.53
839.027	22.19
839.203	71.34
839.38	22.19
839.556	57
839.732	46.76
839.909	3.75
840.085	65.19
840.261	-18.77
840.437	24.23
840.614	120.49
840.79	91.82
840.966	22.19
841.142	40.62
841.318	-41.3
841.494	7.85
841.671	-2.39
841.847	87.72
842.023	11.95
842.199	-22.87
842.375	65.19
842.551	-67.92
842.727	-51.54
842.903	85.67
843.079	5.8
843.255	95.91
843.431	106.15
843.607	54.95
843.783	-0.34
843.959	54.95
844.134	-31.06
844.31	57
844.486	-24.92
844.662	42.67
844.838	7.85
845.013	71.34
845.189	97.96
845.365	54.95
845.541	48.81
845.716	16.04
845.892	18.09
846.068	95.91
846.244	16.04
846.419	34.47
846.595	16.04
846.77	54.95
846.946	34.47
847.122	79.53
847.297	-18.77
847.473	73.39
847.648	-22.87
847.824	26.28
847.999	40.62
848.175	26.28
848.35	71.34
848.526	104.11
848.701	40.62
848.876	18.09
849.052	136.87
849.227	48.81
849.403	1.71
849.578	1.71
849.753	54.95
849.929	44.71
850.104	87.72
850.279	48.81
850.454	18.09
850.63	36.52
850.805	67.24
850.98	63.15
851.155	13.99
851.33	65.19
851.505	9.9
851.681	87.72
851.856	-59.73
852.031	32.43
852.206	-0.34
852.381	34.47
852.556	11.95
852.731	-8.53
852.906	24.23
853.081	5.8
853.256	46.76
853.431	-41.3
853.606	-35.16
853.781	-31.06
853.956	-72.02
854.131	71.34
854.305	16.04
854.48	71.34
854.655	-6.49
854.83	50.86
855.005	34.47
855.18	13.99
855.354	22.19
855.529	7.85
855.704	-16.73
855.879	-8.53
856.053	13.99
856.228	87.72
856.403	54.95
856.577	34.47
856.752	-63.83
856.926	93.87
857.101	79.53
857.276	-8.53
857.45	-2.39
857.625	26.28
857.799	57
857.974	36.52
858.148	-31.06
858.323	34.47
858.497	-14.68
858.672	-10.58
858.846	73.39
859.02	50.86
859.195	1.71
859.369	38.57
859.543	42.67
859.718	50.86
859.892	-10.58
860.066	24.23
860.241	-18.77
860.415	22.19
860.589	-18.77
860.763	42.67
860.938	-57.68
861.112	69.29
861.286	-2.39
861.46	93.87
861.634	5.8
861.808	54.95
861.982	18.09
862.157	5.8
862.331	-84.31
862.505	57
862.679	-49.49
862.853	-26.96
863.027	5.8
863.201	-6.49
863.375	-2.39
863.549	-31.06
863.722	-8.53
863.896	67.24
864.07	104.11
864.244	71.34
864.418	38.57
864.592	54.95
864.766	-47.44
864.939	-8.53
865.113	24.23
865.287	38.57
865.461	13.99
865.634	42.67
865.808	13.99
865.982	-2.39
866.156	-43.35
866.329	59.05
866.503	13.99
866.676	34.47
866.85	24.23
867.024	-10.58
867.197	73.39
867.371	16.04
867.544	34.47
867.718	69.29
867.891	-26.96
868.065	13.99
868.238	-18.77
868.412	-6.49
868.585	46.76
868.759	-24.92
868.932	-18.77
869.105	40.62
869.279	-6.49
869.452	108.2
869.625	-10.58
869.799	-22.87
869.972	-112.98
870.145	30.38
870.319	22.19
870.492	30.38
870.665	-117.08
870.838	-26.96
871.011	-39.25
871.185	54.95
871.358	-88.4
871.531	24.23
871.704	42.67
871.877	91.82
872.05	18.09
872.223	-18.77
872.396	30.38
872.569	3.75
872.742	57
872.915	-0.34
873.088	-6.49
873.261	42.67
873.434	59.05
873.607	106.15
873.78	-24.92
873.953	13.99
874.126	-0.34
874.299	13.99
874.471	22.19
874.644	5.8
874.817	-0.34
874.99	54.95
875.163	-24.92
875.335	48.81
875.508	-6.49
875.681	-10.58
875.853	-18.77
876.026	30.38
876.199	5.8
876.371	97.96
876.544	7.85
876.717	42.67
876.889	-35.16
877.062	73.39
877.234	5.8
877.407	69.29
877.579	-76.12
877.752	57
877.924	87.72
878.097	40.62
878.269	7.85
878.442	5.8
878.614	-53.59
878.786	48.81
878.959	34.47
879.131	13.99
879.303	24.23
879.476	-26.96
879.648	1.71
879.82	26.28
879.993	38.57
880.165	54.95
880.337	-106.84
880.509	7.85
880.681	-35.16
880.854	-39.25
881.026	24.23
881.198	63.15
881.37	18.09
881.542	40.62
881.714	30.38
881.886	13.99
882.058	7.85
882.23	-16.73
882.402	-26.96
882.574	67.24
882.746	-0.34
882.918	-33.11
883.09	-10.58
883.262	-6.49
883.434	-59.73
883.606	7.85
883.778	1.71
883.95	50.86
884.122	36.52
884.293	52.91
884.465	-67.92
884.637	-2.39
884.809	-18.77
884.98	24.23
885.152	5.8
885.324	-41.3
885.496	-108.88
885.667	16.04
885.839	-35.16
886.011	63.15
886.182	-24.92
886.354	30.38
886.525	30.38
886.697	40.62
886.869	48.81
887.04	13.99
887.212	-16.73
887.383	13.99
887.555	-18.77
887.726	-59.73
887.897	3.75
888.069	-2.39
888.24	-35.16
888.412	-43.35
888.583	-35.16
888.754	-18.77
888.926	-18.77
889.097	-100.69
889.268	-35.16
889.44	32.43
889.611	-31.06
889.782	-18.77
889.953	46.76
890.125	22.19
890.296	5.8
890.467	32.43
890.638	-22.87
890.809	-18.77
890.98	26.28
891.151	57
891.323	63.15
891.494	-41.3
891.665	-29.01
891.836	32.43
892.007	-10.58
892.178	26.28
892.349	-6.49
892.52	-18.77
892.691	40.62
892.862	-29.01
893.032	16.04
893.203	44.71
893.374	-10.58
893.545	-2.39
893.716	-31.06
893.887	71.34
894.057	-14.68
894.228	-16.73
894.399	-26.96
894.57	48.81
894.74	-12.63
894.911	-67.92
895.082	24.23
895.253	9.9
895.423	95.91
895.594	-26.96
895.764	-6.49
895.935	24.23
896.106	38.57
896.276	13.99
896.447	-0.34
896.617	-18.77
896.788	11.95
896.958	-26.96
897.129	18.09
897.299	-31.06
897.47	-10.58
897.64	38.57
897.81	-115.03
897.981	50.86
898.151	-88.4
898.322	-49.49
898.492	13.99
898.662	59.05
898.832	22.19
899.003	7.85
899.173	5.8
899.343	-4.44
899.513	-24.92
