Data from USB4F104151__203__14-45-20-589.txt Node

Date: Thu Mar 13 14:45:20 EDT 2025
User: louis
Spectrometer: USB4F10415
Trigger mode: 4
Integration Time (sec): 2.000000E-2
Scans to average: 1
Electric dark correction enabled: true
Nonlinearity correction enabled: false
Boxcar width: 0
XAxis mode: Wavelengths
Number of Pixels in Spectrum: 3648
>>>>>Begin Spectral Data<<<<<
178.204	-80.04
178.424	-80.04
178.644	-80.04
178.864	-116.9
179.084	-149.67
179.304	18.26
179.524	-10.41
179.744	59.22
179.964	3.93
180.184	30.55
180.404	-67.75
180.624	-4.27
180.844	-34.99
181.064	-47.27
181.283	-6.31
181.503	3.93
181.723	55.12
181.943	-14.51
182.163	28.5
182.383	10.07
182.602	36.69
182.822	-4.27
183.042	-4.27
183.262	-65.71
183.482	-47.27
183.701	28.5
183.921	-49.32
184.141	-65.71
184.361	26.45
184.58	-2.22
184.8	42.84
185.02	-14.51
185.239	63.32
185.459	81.75
185.679	53.08
185.898	-28.84
186.118	91.99
186.338	30.55
186.557	20.31
186.777	10.07
186.997	44.88
187.216	-22.7
187.436	38.74
187.655	42.84
187.875	-39.08
188.095	26.45
188.314	55.12
188.534	16.21
188.753	44.88
188.973	20.31
189.192	38.74
189.412	-4.27
189.631	75.6
189.851	53.08
190.07	-14.51
190.29	-49.32
190.509	75.6
190.729	-10.41
190.948	75.6
191.168	128.85
191.387	63.32
191.607	20.31
191.826	53.08
192.045	75.6
192.265	-14.51
192.484	-6.31
192.704	-59.56
192.923	-61.61
193.142	108.37
193.362	100.18
193.581	116.56
193.8	53.08
194.02	34.64
194.239	34.64
194.458	10.07
194.678	18.26
194.897	67.41
195.116	48.98
195.335	5.97
195.555	10.07
195.774	-22.7
195.993	10.07
196.212	30.55
196.432	-6.31
196.651	-47.27
196.87	63.32
197.089	28.5
197.308	30.55
197.528	-30.89
197.747	55.12
197.966	59.22
198.185	-22.7
198.404	-6.31
198.623	18.26
198.842	24.4
199.062	12.12
199.281	59.22
199.5	28.5
199.719	108.37
199.938	46.93
200.157	42.84
200.376	34.64
200.595	112.47
200.814	38.74
201.033	26.45
201.252	61.27
201.471	61.27
201.69	75.6
201.909	61.27
202.128	-28.84
202.347	87.89
202.566	-51.37
202.785	38.74
203.004	-34.99
203.223	85.84
203.442	32.6
203.661	55.12
203.879	8.02
204.098	67.41
204.317	40.79
204.536	55.12
204.755	-45.23
204.974	1.88
205.193	22.36
205.411	18.26
205.63	96.08
205.849	44.88
206.068	100.18
206.287	55.12
206.505	28.5
206.724	30.55
206.943	-88.23
207.162	51.03
207.381	91.99
207.599	34.64
207.818	18.26
208.037	3.93
208.255	-43.18
208.474	73.56
208.693	26.45
208.911	51.03
209.13	42.84
209.349	51.03
209.567	30.55
209.786	51.03
210.005	42.84
210.223	122.71
210.442	55.12
210.661	-6.31
210.879	51.03
211.098	69.46
211.316	51.03
211.535	83.8
211.753	42.84
211.972	85.84
212.191	-30.89
212.409	46.93
212.628	20.31
212.846	51.03
213.065	51.03
213.283	46.93
213.502	-73.9
213.72	46.93
213.938	10.07
214.157	38.74
214.375	-14.51
214.594	-2.22
214.812	-30.89
215.031	36.69
215.249	-6.31
215.467	67.41
215.686	-4.27
215.904	42.84
216.122	30.55
216.341	94.04
216.559	26.45
216.778	30.55
216.996	116.56
217.214	55.12
217.432	18.26
217.651	55.12
217.869	-18.6
218.087	71.51
218.306	32.6
218.524	96.08
218.742	-2.22
218.96	67.41
219.179	26.45
219.397	89.94
219.615	51.03
219.833	3.93
220.051	-8.36
220.27	30.55
220.488	-4.27
220.706	8.02
220.924	-75.95
221.142	51.03
221.36	51.03
221.578	10.07
221.796	79.7
222.015	67.41
222.233	59.22
222.451	96.08
222.669	34.64
222.887	51.03
223.105	59.22
223.323	-12.46
223.541	55.12
223.759	79.7
223.977	-39.08
224.195	67.41
224.413	22.36
224.631	59.22
224.849	42.84
225.067	132.95
225.285	10.07
225.503	42.84
225.721	-22.7
225.939	28.5
226.157	83.8
226.375	132.95
226.592	-39.08
226.81	61.27
227.028	51.03
227.246	96.08
227.464	51.03
227.682	10.07
227.9	40.79
228.117	59.22
228.335	-32.94
228.553	83.8
228.771	77.65
228.989	81.75
229.206	26.45
229.424	12.12
229.642	-12.46
229.86	10.07
230.077	67.41
230.295	63.32
230.513	48.98
230.731	91.99
230.948	132.95
231.166	120.66
231.384	57.17
231.601	-6.31
231.819	1.88
232.037	-61.61
232.254	-45.23
232.472	36.69
232.689	28.5
232.907	-0.17
233.125	28.5
233.342	61.27
233.56	67.41
233.777	34.64
233.995	22.36
234.213	22.36
234.43	83.8
234.648	100.18
234.865	38.74
235.083	116.56
235.3	5.97
235.518	1.88
235.735	34.64
235.953	28.5
236.17	67.41
236.388	10.07
236.605	65.36
236.822	83.8
237.04	-4.27
237.257	18.26
237.475	34.64
237.692	10.07
237.909	5.97
238.127	59.22
238.344	71.51
238.562	36.69
238.779	5.97
238.996	36.69
239.214	12.12
239.431	42.84
239.648	85.84
239.865	42.84
240.083	36.69
240.3	59.22
240.517	12.12
240.735	-2.22
240.952	46.93
241.169	14.17
241.386	63.32
241.603	108.37
241.821	-73.9
242.038	-45.23
242.255	-10.41
242.472	-24.75
242.689	91.99
242.907	44.88
243.124	3.93
243.341	18.26
243.558	3.93
243.775	3.93
243.992	-53.42
244.209	14.17
244.426	100.18
244.643	-41.13
244.86	-14.51
245.078	14.17
245.295	73.56
245.512	42.84
245.729	-2.22
245.946	36.69
246.163	42.84
246.38	-30.89
246.597	42.84
246.814	32.6
247.031	-14.51
247.248	51.03
247.464	55.12
247.681	-2.22
247.898	63.32
248.115	38.74
248.332	18.26
248.549	102.23
248.766	42.84
248.983	67.41
249.2	-37.03
249.417	3.93
249.633	3.93
249.85	65.36
250.067	30.55
250.284	65.36
250.501	94.04
250.717	36.69
250.934	67.41
251.151	46.93
251.368	12.12
251.585	102.23
251.801	51.03
252.018	22.36
252.235	42.84
252.451	-28.84
252.668	55.12
252.885	46.93
253.102	32.6
253.318	34.64
253.535	10.07
253.752	46.93
253.968	-10.41
254.185	20.31
254.401	-55.47
254.618	22.36
254.835	36.69
255.051	96.08
255.268	38.74
255.484	20.31
255.701	46.93
255.917	34.64
256.134	-2.22
256.351	42.84
256.567	16.21
256.784	42.84
257	-63.66
257.217	59.22
257.433	83.8
257.65	-10.41
257.866	55.12
258.082	3.93
258.299	1.88
258.515	12.12
258.732	-10.41
258.948	-4.27
259.165	63.32
259.381	36.69
259.597	42.84
259.814	-14.51
260.03	71.51
260.246	12.12
260.463	63.32
260.679	34.64
260.895	40.79
261.112	59.22
261.328	22.36
261.544	-34.99
261.761	79.7
261.977	10.07
262.193	3.93
262.409	42.84
262.626	73.56
262.842	94.04
263.058	-20.65
263.274	79.7
263.49	26.45
263.707	71.51
263.923	22.36
264.139	-26.79
264.355	18.26
264.571	61.27
264.787	20.31
265.004	98.13
265.22	69.46
265.436	34.64
265.652	22.36
265.868	34.64
266.084	22.36
266.3	75.6
266.516	-47.27
266.732	67.41
266.948	34.64
267.164	14.17
267.38	53.08
267.596	3.93
267.812	67.41
268.028	61.27
268.244	-4.27
268.46	42.84
268.676	71.51
268.892	71.51
269.108	-12.46
269.324	51.03
269.54	28.5
269.756	26.45
269.972	-49.32
270.188	26.45
270.403	-30.89
270.619	61.27
270.835	26.45
271.051	85.84
271.267	12.12
271.483	34.64
271.698	3.93
271.914	51.03
272.13	10.07
272.346	-22.7
272.562	55.12
272.777	87.89
272.993	24.4
273.209	59.22
273.425	51.03
273.64	-47.27
273.856	69.46
274.072	75.6
274.287	10.07
274.503	18.26
274.719	8.02
274.934	-14.51
275.15	-2.22
275.366	34.64
275.581	12.12
275.797	44.88
276.012	18.26
276.228	57.17
276.444	14.17
276.659	28.5
276.875	-14.51
277.09	110.42
277.306	57.17
277.521	-22.7
277.737	63.32
277.952	94.04
278.168	30.55
278.383	46.93
278.599	-10.41
278.814	-4.27
279.03	3.93
279.245	3.93
279.461	-6.31
279.676	132.95
279.892	-59.56
280.107	34.64
280.322	-55.47
280.538	28.5
280.753	63.32
280.969	100.18
281.184	34.64
281.399	126.8
281.615	-34.99
281.83	40.79
282.045	5.97
282.26	-53.42
282.476	-39.08
282.691	63.32
282.906	36.69
283.122	83.8
283.337	42.84
283.552	69.46
283.767	53.08
283.983	30.55
284.198	10.07
284.413	51.03
284.628	-28.84
284.843	12.12
285.058	10.07
285.274	-6.31
285.489	-34.99
285.704	85.84
285.919	-45.23
286.134	10.07
286.349	57.17
286.564	91.99
286.779	30.55
286.995	-77.99
287.21	36.69
287.425	53.08
287.64	-112.81
287.855	-14.51
288.07	14.17
288.285	51.03
288.5	42.84
288.715	44.88
288.93	83.8
289.145	-0.17
289.36	51.03
289.575	-20.65
289.79	26.45
290.004	-14.51
290.219	87.89
290.434	53.08
290.649	-43.18
290.864	87.89
291.079	38.74
291.294	46.93
291.509	8.02
291.724	46.93
291.938	10.07
292.153	79.7
292.368	-0.17
292.583	1.88
292.798	48.98
293.012	3.93
293.227	3.93
293.442	26.45
293.657	137.04
293.871	40.79
294.086	59.22
294.301	132.95
294.516	34.64
294.73	26.45
294.945	12.12
295.16	30.55
295.374	53.08
295.589	36.69
295.804	18.26
296.018	24.4
296.233	26.45
296.447	26.45
296.662	51.03
296.877	18.26
297.091	10.07
297.306	59.22
297.52	71.51
297.735	-14.51
297.949	12.12
298.164	55.12
298.378	-10.41
298.593	-67.75
298.807	55.12
299.022	40.79
299.236	51.03
299.451	102.23
299.665	83.8
299.88	94.04
300.094	-6.31
300.309	55.12
300.523	69.46
300.737	42.84
300.952	51.03
301.166	69.46
301.381	59.22
301.595	26.45
301.809	53.08
302.024	-14.51
302.238	53.08
302.452	42.84
302.667	34.64
302.881	3.93
303.095	67.41
303.309	26.45
303.524	34.64
303.738	61.27
303.952	16.21
304.166	-14.51
304.381	5.97
304.595	-14.51
304.809	28.5
305.023	20.31
305.237	-28.84
305.452	42.84
305.666	-0.17
305.88	28.5
306.094	30.55
306.308	106.32
306.522	67.41
306.736	87.89
306.95	114.52
307.164	36.69
307.379	51.03
307.593	30.55
307.807	128.85
308.021	79.7
308.235	26.45
308.449	10.07
308.663	26.45
308.877	94.04
309.091	20.31
309.305	36.69
309.519	26.45
309.733	100.18
309.947	-12.46
310.161	75.6
310.374	67.41
310.588	38.74
310.802	75.6
311.016	-10.41
311.23	30.55
311.444	3.93
311.658	3.93
311.872	118.61
312.085	26.45
312.299	79.7
312.513	22.36
312.727	114.52
312.941	-8.36
313.154	46.93
313.368	89.94
313.582	53.08
313.796	87.89
314.009	8.02
314.223	83.8
314.437	-14.51
314.651	26.45
314.864	69.46
315.078	85.84
315.292	10.07
315.505	42.84
315.719	34.64
315.933	16.21
316.146	-22.7
316.36	-12.46
316.573	34.64
316.787	63.32
317.001	87.89
317.214	12.12
317.428	24.4
317.641	26.45
317.855	34.64
318.068	59.22
318.282	34.64
318.495	104.28
318.709	-22.7
318.922	34.64
319.136	69.46
319.349	91.99
319.563	51.03
319.776	53.08
319.99	51.03
320.203	-16.55
320.417	94.04
320.63	-24.75
320.843	89.94
321.057	-39.08
321.27	22.36
321.483	75.6
321.697	83.8
321.91	-34.99
322.124	63.32
322.337	85.84
322.55	5.97
322.763	51.03
322.977	36.69
323.19	51.03
323.403	-28.84
323.617	108.37
323.83	34.64
324.043	91.99
324.256	5.97
324.469	-14.51
324.683	26.45
324.896	85.84
325.109	102.23
325.322	-18.6
325.535	77.65
325.748	110.42
325.962	-6.31
326.175	51.03
326.388	42.84
326.601	63.32
326.814	61.27
327.027	28.5
327.24	91.99
327.453	-6.31
327.666	46.93
327.879	30.55
328.092	51.03
328.305	55.12
328.518	75.6
328.731	38.74
328.944	61.27
329.157	73.56
329.37	5.97
329.583	67.41
329.796	34.64
330.009	10.07
330.222	159.57
330.435	5.97
330.648	102.23
330.861	-26.79
331.073	5.97
331.286	40.79
331.499	34.64
331.712	42.84
331.925	32.6
332.138	-2.22
332.35	69.46
332.563	20.31
332.776	59.22
332.989	-6.31
333.202	55.12
333.414	-12.46
333.627	26.45
333.84	51.03
334.053	61.27
334.265	-47.27
334.478	91.99
334.691	-4.27
334.903	-18.6
335.116	59.22
335.329	67.41
335.541	79.7
335.754	87.89
335.966	-4.27
336.179	-28.84
336.392	-6.31
336.604	36.69
336.817	44.88
337.029	75.6
337.242	85.84
337.454	26.45
337.667	71.51
337.88	77.65
338.092	38.74
338.305	141.14
338.517	34.64
338.729	59.22
338.942	26.45
339.154	28.5
339.367	-2.22
339.579	-4.27
339.792	10.07
340.004	36.69
340.217	-10.41
340.429	-67.75
340.641	-39.08
340.854	14.17
341.066	51.03
341.278	59.22
341.491	69.46
341.703	42.84
341.915	42.84
342.128	30.55
342.34	34.64
342.552	30.55
342.764	20.31
342.977	44.88
343.189	59.22
343.401	32.6
343.613	53.08
343.826	94.04
344.038	20.31
344.25	44.88
344.462	36.69
344.674	91.99
344.886	10.07
345.099	53.08
345.311	28.5
345.523	42.84
345.735	24.4
345.947	91.99
346.159	38.74
346.371	26.45
346.583	48.98
346.795	85.84
347.007	69.46
347.219	51.03
347.431	20.31
347.643	71.51
347.855	16.21
348.067	83.8
348.279	42.84
348.491	38.74
348.703	-14.51
348.915	94.04
349.127	42.84
349.339	1.88
349.551	-22.7
349.763	55.12
349.975	51.03
350.187	1.88
350.399	67.41
350.61	83.8
350.822	91.99
351.034	71.51
351.246	42.84
351.458	42.84
351.669	53.08
351.881	91.99
352.093	42.84
352.305	85.84
352.517	3.93
352.728	94.04
352.94	30.55
353.152	44.88
353.363	53.08
353.575	-0.17
353.787	34.64
353.999	1.88
354.21	42.84
354.422	20.31
354.633	75.6
354.845	89.94
355.057	42.84
355.268	81.75
355.48	22.36
355.692	3.93
355.903	53.08
356.115	-12.46
356.326	61.27
356.538	42.84
356.749	141.14
356.961	104.28
357.172	42.84
357.384	8.02
357.595	87.89
357.807	-30.89
358.018	38.74
358.23	42.84
358.441	32.6
358.653	79.7
358.864	42.84
359.075	42.84
359.287	104.28
359.498	18.26
359.709	24.4
359.921	12.12
360.132	67.41
360.344	-28.84
360.555	91.99
360.766	55.12
360.977	53.08
361.189	83.8
361.4	69.46
361.611	69.46
361.823	40.79
362.034	102.23
362.245	14.17
362.456	10.07
362.667	36.69
362.879	44.88
363.09	83.8
363.301	75.6
363.512	67.41
363.723	-22.7
363.935	-2.22
364.146	-12.46
364.357	55.12
364.568	28.5
364.779	40.79
364.99	67.41
365.201	34.64
365.412	83.8
365.623	-10.41
365.834	69.46
366.045	59.22
366.256	42.84
366.467	14.17
366.678	122.71
366.889	34.64
367.1	-24.75
367.311	38.74
367.522	85.84
367.733	44.88
367.944	71.51
368.155	141.14
368.366	14.17
368.577	116.56
368.788	69.46
368.999	36.69
369.209	30.55
369.42	63.32
369.631	132.95
369.842	98.13
370.053	61.27
370.264	59.22
370.474	73.56
370.685	-39.08
370.896	73.56
371.107	1.88
371.317	100.18
371.528	-47.27
371.739	67.41
371.95	-2.22
372.16	34.64
372.371	-22.7
372.582	-4.27
372.792	26.45
373.003	118.61
373.214	85.84
373.424	85.84
373.635	48.98
373.846	59.22
374.056	34.64
374.267	61.27
374.477	51.03
374.688	28.5
374.898	-4.27
375.109	-14.51
375.319	110.42
375.53	126.8
375.74	71.51
375.951	63.32
376.161	51.03
376.372	83.8
376.582	18.26
376.793	63.32
377.003	30.55
377.214	-6.31
377.424	67.41
377.635	42.84
377.845	22.36
378.055	89.94
378.266	5.97
378.476	10.07
378.686	34.64
378.897	69.46
379.107	-20.65
379.317	108.37
379.528	79.7
379.738	124.76
379.948	44.88
380.158	110.42
380.369	79.7
380.579	65.36
380.789	-14.51
380.999	79.7
381.21	67.41
381.42	69.46
381.63	96.08
381.84	100.18
382.05	151.38
382.261	48.98
382.471	10.07
382.681	8.02
382.891	63.32
383.101	63.32
383.311	63.32
383.521	44.88
383.731	59.22
383.941	79.7
384.151	94.04
384.361	79.7
384.571	104.28
384.781	34.64
384.991	94.04
385.201	91.99
385.411	67.41
385.621	83.8
385.831	28.5
386.041	83.8
386.251	61.27
386.461	153.43
386.671	57.17
386.881	147.28
387.091	51.03
387.301	36.69
387.511	10.07
387.72	67.41
387.93	38.74
388.14	30.55
388.35	85.84
388.56	36.69
388.769	67.41
388.979	28.5
389.189	46.93
389.399	79.7
389.609	67.41
389.818	57.17
390.028	116.56
390.238	69.46
390.447	61.27
390.657	102.23
390.867	42.84
391.076	53.08
391.286	128.85
391.496	44.88
391.705	53.08
391.915	128.85
392.125	114.52
392.334	81.75
392.544	30.55
392.753	53.08
392.963	28.5
393.172	137.04
393.382	79.7
393.591	108.37
393.801	87.89
394.01	120.66
394.22	61.27
394.429	44.88
394.639	81.75
394.848	77.65
395.058	67.41
395.267	22.36
395.477	77.65
395.686	128.85
395.895	36.69
396.105	63.32
396.314	85.84
396.524	71.51
396.733	106.32
396.942	126.8
397.152	100.18
397.361	190.29
397.57	77.65
397.78	83.8
397.989	196.43
398.198	116.56
398.407	108.37
398.617	102.23
398.826	132.95
399.035	73.56
399.244	96.08
399.453	112.47
399.663	28.5
399.872	91.99
400.081	10.07
400.29	157.52
400.499	104.28
400.708	165.71
400.917	79.7
401.127	130.9
401.336	75.6
401.545	128.85
401.754	130.9
401.963	145.24
402.172	208.72
402.381	79.7
402.59	71.51
402.799	143.19
403.008	77.65
403.217	59.22
403.426	118.61
403.635	175.95
403.844	161.62
404.053	24.4
404.262	157.52
404.471	186.19
404.68	175.95
404.888	141.14
405.097	235.35
405.306	83.8
405.515	214.87
405.724	218.96
405.933	143.19
406.142	200.53
406.35	264.02
406.559	216.91
406.768	192.34
406.977	214.87
407.185	198.48
407.394	255.83
407.603	210.77
407.812	292.69
408.02	184.15
408.229	223.06
408.438	231.25
408.646	218.96
408.855	204.63
409.064	243.54
409.272	304.98
409.481	296.78
409.69	298.83
409.898	264.02
410.107	317.26
410.315	329.55
410.524	274.26
410.733	370.51
410.941	296.78
411.15	413.52
411.358	429.9
411.567	429.9
411.775	462.67
411.984	444.24
412.192	462.67
412.401	431.95
412.609	450.38
412.818	509.77
413.026	440.14
413.234	538.45
413.443	495.44
413.651	544.59
413.86	599.88
414.068	720.71
414.276	587.6
414.485	626.51
414.693	634.7
414.901	763.72
415.11	735.05
415.318	673.61
415.526	788.3
415.734	722.76
415.943	923.46
416.151	823.11
416.359	870.22
416.567	886.6
416.776	872.26
416.984	978.76
417.192	1019.72
417.4	1009.48
417.608	945.99
417.817	1023.81
418.025	1140.55
418.233	1283.91
418.441	1197.89
418.649	1273.67
418.857	1328.96
419.065	1265.47
419.273	1230.66
419.481	1417.02
419.689	1505.09
419.897	1509.18
420.105	1627.96
420.313	1677.12
420.521	1705.79
420.729	1656.64
420.937	1738.55
421.145	1750.84
421.353	1791.8
421.561	1984.31
421.769	2053.94
421.977	2074.42
422.185	2090.81
422.393	2256.69
422.601	2379.57
422.809	2322.23
423.017	2365.23
423.224	2455.34
423.432	2441.01
423.64	2459.44
423.848	2748.2
424.056	2705.2
424.263	2889.51
424.471	2959.14
424.679	3028.78
424.887	3077.93
425.094	3155.75
425.302	3254.05
425.51	3376.93
425.718	3499.81
425.925	3477.28
426.133	3667.74
426.341	3901.21
426.548	4073.24
426.756	4081.43
426.964	3950.36
427.171	4275.99
427.379	4359.95
427.586	4511.5
427.794	4589.33
428.001	4863.76
428.209	5084.94
428.417	4925.19
428.624	5355.27
428.832	5517.06
429.039	5113.61
429.247	5232.39
429.454	5781.25
429.662	6262.52
429.869	5607.17
430.076	6024.95
430.284	5959.42
430.491	6209.27
430.699	6670.06
430.906	6588.14
431.114	6743.79
431.321	6979.31
431.528	6989.55
431.736	7630.56
431.943	8109.79
432.15	7507.68
432.358	7952.09
432.565	8183.51
432.772	8163.03
432.979	8701.65
433.187	8556.24
433.394	8812.24
433.601	9393.86
433.808	9307.85
434.016	9234.12
434.223	9694.91
434.43	10282.68
434.637	10186.43
434.844	10645.17
435.052	10868.4
435.259	10727.09
435.466	10929.84
435.673	10700.47
435.88	11466.41
436.087	11986.59
436.294	12220.06
436.501	11884.19
436.708	12125.85
436.915	12367.51
437.122	13133.45
437.329	13211.28
437.537	13483.66
437.743	13608.58
437.95	13633.16
438.157	14177.92
438.364	14757.49
438.571	14841.46
438.778	14702.2
438.985	16045.66
439.192	15353.45
439.399	15976.03
439.606	15568.49
439.813	16682.58
440.02	17454.67
440.227	17286.73
440.433	16762.45
440.64	17667.66
440.847	17348.17
441.054	17892.93
441.261	18918.96
441.467	18855.48
441.674	19172.91
441.881	19977.76
442.088	19955.24
442.294	19877.41
442.501	20174.37
442.708	20653.59
442.914	21091.86
443.121	22451.71
443.328	21554.7
443.534	23309.81
443.741	22523.39
443.948	22425.09
444.154	23973.35
444.361	23580.14
444.568	23948.78
444.774	23834.09
444.981	24237.54
445.187	24733.15
445.394	26133.96
445.6	25748.94
445.807	28089.77
446.013	26811.84
446.22	27221.43
446.426	28591.52
446.633	28997.02
446.839	29816.21
447.046	28542.37
447.252	30358.92
447.459	30328.2
447.665	29943.18
447.871	31556.98
448.078	32972.13
448.284	31161.72
448.491	32120.17
448.697	33391.96
448.903	34104.65
449.11	34155.85
449.316	33469.78
449.522	34082.13
449.728	35474.74
449.935	35546.42
450.141	35571
450.347	36281.64
450.553	34745.67
450.76	35982.64
450.966	36904.23
451.172	36316.46
451.378	37512.47
451.584	36773.16
451.791	37698.84
451.997	37451.03
452.203	38163.73
452.409	38143.25
452.615	38284.56
452.821	36392.23
453.027	36568.36
453.233	38341.9
453.44	37272.86
453.646	37287.2
453.852	37266.72
454.058	37821.72
454.264	36631.85
454.47	37631.26
454.676	37356.83
454.882	38120.72
455.088	34786.63
455.294	35398.97
455.5	35917.11
455.705	36678.95
455.911	34671.94
456.117	34096.46
456.323	33889.62
456.529	31864.18
456.735	33557.85
456.941	32453.99
457.147	32394.6
457.352	31448.44
457.558	31053.18
457.764	31016.32
457.97	30477.7
458.176	29666.7
458.381	29865.36
458.587	28190.12
458.793	28827.04
458.999	27018.68
459.204	28884.38
459.41	28007.85
459.616	26445.25
459.821	26389.95
460.027	26314.18
460.233	25587.15
460.438	24315.36
460.644	24896.99
460.85	23797.23
461.055	23539.18
461.261	23361.01
461.466	21407.25
461.672	20780.57
461.878	22369.79
462.083	20852.25
462.289	20481.56
462.494	20305.44
462.7	19428.91
462.905	19090.99
463.111	19682.86
463.316	19734.06
463.522	19369.52
463.727	19301.93
463.932	19467.82
464.138	19111.47
464.343	19297.84
464.549	18679.35
464.754	19324.46
464.959	19168.82
465.165	18736.7
465.37	18056.77
465.575	17696.33
465.781	18239.04
465.986	18652.73
466.191	17860.16
466.397	17655.37
466.602	16606.81
466.807	17122.9
467.012	17270.35
467.218	17296.97
467.423	17002.07
467.628	17141.33
467.833	17821.25
468.038	17323.6
468.244	16791.13
468.449	17462.86
468.654	16715.35
468.859	16580.18
469.064	16537.18
469.269	16053.86
469.474	16193.12
469.679	16555.61
469.885	15812.2
470.09	16201.31
470.295	15980.13
470.5	15576.68
470.705	15871.59
470.91	15713.89
471.115	15306.35
471.32	15654.5
471.525	15509.1
471.73	14798.45
471.935	14859.89
472.139	14450.3
472.344	14861.94
472.549	14698.1
472.754	14577.27
472.959	14206.59
473.164	13772.42
473.369	13809.28
473.574	14079.61
473.778	14065.28
473.983	13835.91
474.188	13735.56
474.393	13080.21
474.598	13401.74
474.802	13100.69
475.007	12912.27
475.212	13112.97
475.417	12752.53
475.621	12658.32
475.826	12840.59
476.031	12387.99
476.235	12306.07
476.44	12424.86
476.645	12111.52
476.849	12258.97
477.054	12074.65
477.259	11810.47
477.463	11828.9
477.668	11503.27
477.872	11880.1
478.077	11419.3
478.282	11101.87
478.486	11126.44
478.691	11065
478.895	11142.83
479.1	11116.2
479.304	11062.96
479.509	10696.37
479.713	10897.07
479.918	10514.1
480.122	10421.94
480.326	10544.82
480.531	10579.64
480.735	10372.79
480.94	10337.98
481.144	10589.88
481.348	10307.26
481.553	10342.07
481.757	10065.6
481.961	10376.89
482.166	10489.53
482.37	10286.78
482.574	10110.65
482.778	10045.12
482.983	10407.61
483.187	10139.32
483.391	10247.86
483.595	10221.24
483.8	10045.12
484.004	10309.3
484.208	10135.23
484.412	10141.37
484.616	10122.94
484.821	10073.79
485.025	9944.77
485.229	10346.17
485.433	10374.84
485.637	9969.34
485.841	9989.82
486.045	10194.62
486.249	10200.76
486.453	10118.84
486.657	10192.57
486.861	10479.29
487.065	9795.26
487.269	10208.95
487.473	10079.93
487.677	10100.41
487.881	10229.43
488.085	10278.58
488.289	10159.8
488.493	10311.35
488.697	10423.99
488.901	10323.64
489.105	10204.86
489.309	10235.58
489.512	10430.13
489.716	10167.99
489.92	10243.77
490.124	10419.89
490.328	10794.67
490.531	10274.49
490.735	10778.29
490.939	10507.96
491.143	10626.74
491.346	10692.27
491.55	10682.03
491.754	10647.22
491.958	10938.03
492.161	10708.66
492.365	10798.77
492.569	10854.06
492.772	10964.65
492.976	10929.84
493.18	11151.02
493.383	11232.94
493.587	11335.34
493.79	11257.51
493.994	11404.97
494.197	11087.53
494.401	11413.16
494.605	11589.28
494.808	11476.65
495.012	11912.86
495.215	11677.35
495.419	11759.27
495.622	11673.25
495.825	12060.32
496.029	12127.9
496.232	12326.55
496.436	12148.38
496.639	12711.57
496.843	12557.97
497.046	12789.39
497.249	12744.34
497.453	13022.86
497.656	13008.53
497.859	13127.31
498.063	13360.78
498.266	13491.85
498.469	13616.77
498.673	13690.5
498.876	13833.86
499.079	14093.95
499.282	14196.35
499.485	14599.8
499.689	14458.49
499.892	14777.97
500.095	14780.02
500.298	15222.38
500.501	15128.17
500.705	15625.83
500.908	15724.13
501.111	15472.23
501.314	16125.54
501.517	15959.65
501.72	16264.8
501.923	15961.7
502.126	16537.18
502.329	17102.42
502.532	17278.54
502.735	17223.25
502.938	17512.01
503.141	17600.07
503.344	17937.99
503.547	18075.2
503.75	18193.98
503.953	18495.04
504.156	18652.73
504.359	18636.34
504.562	18826.81
504.765	19115.57
504.968	19525.16
505.17	19795.5
505.373	19711.53
505.576	20293.15
505.779	20260.38
505.982	20287.01
506.185	21073.43
506.387	21122.58
506.59	21132.82
506.793	21581.32
506.996	21571.08
507.198	22283.78
507.401	22246.91
507.604	22486.53
507.807	22593.02
508.009	22961.65
508.212	23090.68
508.415	23582.19
508.617	23643.63
508.82	23956.97
509.022	23864.81
509.225	24497.63
509.428	24581.6
509.63	24972.76
509.833	24876.51
510.035	25488.85
510.238	25822.67
510.44	25990.6
510.643	26443.2
510.845	26789.31
511.048	26496.45
511.25	27168.18
511.453	26754.49
511.655	28192.17
511.858	27719.09
512.06	28018.09
512.262	28282.28
512.465	28423.59
512.667	28929.44
512.87	29242.78
513.072	29253.01
513.274	29722
513.477	30264.71
513.679	30500.23
513.881	30578.05
514.084	30850.43
514.286	30993.79
514.488	31597.94
514.69	32146.79
514.893	32228.71
515.095	32144.75
515.297	32740.71
515.499	32732.51
515.701	33217.88
515.904	33596.76
516.106	33895.76
516.308	34172.24
516.51	34671.94
516.712	34168.14
516.914	35046.72
517.116	35659.06
517.318	35519.8
517.52	36128.05
517.722	35992.88
517.925	36515.11
518.127	37033.25
518.329	37133.6
518.531	37002.53
518.733	38073.62
518.935	38335.76
519.136	38053.14
519.338	38780.17
519.54	38792.45
519.742	39030.02
519.944	39390.46
520.146	40123.63
520.348	40414.44
520.55	40914.15
520.752	40649.96
520.954	41157.86
521.155	41120.99
521.357	41448.67
521.559	41819.35
521.761	42613.96
521.963	42325.2
522.164	42808.52
522.366	42804.42
522.568	43095.24
522.77	43214.02
522.971	44090.55
523.173	43674.81
523.375	43951.29
523.576	43773.11
523.778	44811.43
523.98	45100.2
524.181	44887.21
524.383	45204.64
524.584	45929.62
524.786	45808.79
524.988	45909.14
525.189	45909.14
525.391	46675.09
525.592	46650.51
525.794	46752.91
525.995	47019.14
526.197	47090.82
526.398	46875.79
526.6	47383.68
526.801	47250.56
527.003	47785.08
527.204	47905.91
527.406	48307.32
527.607	48239.73
527.808	49108.07
528.01	48180.34
528.211	48297.08
528.412	49280.1
528.614	49116.26
528.815	48825.45
529.016	49632.35
529.218	48786.54
529.419	49044.58
529.62	49433.7
529.822	49419.36
530.023	49624.16
530.224	49869.92
530.425	49765.47
530.626	49728.61
530.828	49599.58
531.029	50515.03
531.23	49736.8
531.431	49919.07
531.632	49779.81
531.833	50287.7
532.035	50158.68
532.236	50281.56
532.437	50609.23
532.638	50099.29
532.839	50109.53
533.04	50408.53
533.241	49763.42
533.442	50867.28
533.643	50328.66
533.844	49962.07
534.045	50465.88
534.246	49998.94
534.447	50713.68
534.648	50099.29
534.849	50723.92
535.05	50134.1
535.251	50594.9
535.451	50535.51
535.652	50748.49
535.853	50871.37
536.054	51158.09
536.255	50723.92
536.456	50410.58
536.657	51348.55
536.857	50482.26
537.058	50209.88
537.259	51240.01
537.46	50691.15
537.66	50541.65
537.861	50895.95
538.062	50138.2
538.263	50793.55
538.463	50519.12
538.664	50498.64
538.865	50551.89
539.065	50932.81
539.266	50469.97
539.466	50740.3
539.667	49923.16
539.868	50881.61
540.068	50314.33
540.269	50244.69
540.469	50932.81
540.67	50226.26
540.87	50373.72
541.071	50318.42
541.271	50838.61
541.472	50639.95
541.672	50322.52
541.873	49929.31
542.073	49992.79
542.274	50494.55
542.474	50449.49
542.675	49972.31
542.875	50517.07
543.075	50261.08
543.276	49968.22
543.476	50728.02
543.676	50345.05
543.877	50586.71
544.077	50654.29
544.277	49949.79
544.478	50254.93
544.678	50895.95
544.878	50467.92
545.078	50302.04
545.279	49984.6
545.479	50105.43
545.679	50564.18
545.879	50625.62
546.079	50119.77
546.28	50193.5
546.48	49761.37
546.68	50357.33
546.88	50570.32
547.08	50271.32
547.28	49818.72
547.48	49914.97
547.68	49894.49
547.88	49534.05
548.081	50033.75
548.281	50230.36
548.481	50113.62
548.681	50148.44
548.881	49914.97
549.081	49937.5
549.28	49847.39
549.48	50461.78
549.68	50142.3
549.88	50265.17
550.08	49767.52
550.28	50187.35
550.48	50021.47
550.68	50123.86
550.88	49937.5
551.08	49785.95
551.279	49917.02
551.479	49677.41
551.679	50015.32
551.879	50062.43
552.079	49992.79
552.278	49853.53
552.478	49665.12
552.678	49519.71
552.878	50041.95
553.077	49583.2
553.277	49353.83
553.477	50250.84
553.676	49615.97
553.876	49921.12
554.076	49724.51
554.275	49671.26
554.475	49001.58
554.674	49624.16
554.874	49405.03
555.074	49491.04
555.273	49568.86
555.473	49742.94
555.672	49077.35
555.872	49765.47
556.071	49292.39
556.271	49448.03
556.47	49261.67
556.67	48850.03
556.869	49323.11
557.068	49073.26
557.268	48667.76
557.467	48753.77
557.667	49149.03
557.866	48888.94
558.065	48264.31
558.265	48817.26
558.464	48469.11
558.663	48999.53
558.863	48295.03
559.062	49331.3
559.261	48147.57
559.461	48819.31
559.66	48004.22
559.859	48256.12
560.058	48159.86
560.258	48645.23
560.457	47867
560.656	48227.45
560.855	48223.35
561.054	47920.25
561.253	48196.73
561.453	48280.69
561.652	48053.37
561.851	48491.63
562.05	47895.67
562.249	47916.15
562.448	47979.64
562.647	47410.31
562.846	47608.96
563.045	48026.74
563.244	47608.96
563.443	47662.21
563.642	46900.36
563.841	47484.03
564.04	47246.47
564.239	47783.04
564.438	46965.9
564.637	47355.01
564.836	47346.82
565.035	46847.11
565.234	47277.19
565.432	47275.14
565.631	46724.24
565.83	46873.74
566.029	46591.12
566.228	46398.61
566.427	46472.34
566.625	46296.21
566.824	45761.69
567.023	46441.62
567.222	45587.61
567.42	46470.29
567.619	46060.69
567.818	45937.82
568.016	46009.5
568.215	46021.78
568.414	45585.57
568.612	45610.14
568.811	45474.98
569.01	45620.38
569.208	45112.48
569.407	45520.03
569.605	44743.85
569.804	45560.99
570.002	44946.6
570.201	45438.11
570.4	44876.97
570.598	44997.8
570.797	44532.91
570.995	44395.7
571.193	44407.98
571.392	44676.27
571.59	44221.62
571.789	44522.67
571.987	44072.12
572.186	44182.71
572.384	43949.24
572.582	44113.08
572.781	44233.91
572.979	43568.32
573.177	44006.58
573.376	43900.09
573.574	43451.58
573.772	43973.81
573.971	43343.04
574.169	43171.01
574.367	43218.11
574.565	43283.65
574.763	42968.26
574.962	42921.16
575.16	42736.84
575.358	42822.86
575.556	41999.57
575.754	42915.01
575.952	42110.16
576.151	42265.81
576.349	41862.36
576.547	42038.48
576.745	42321.1
576.943	42001.62
577.141	41798.87
577.339	42028.24
577.537	41645.27
577.735	41297.12
577.933	41299.17
578.131	41653.47
578.329	41290.98
578.527	41110.75
578.725	40805.61
578.923	41039.08
579.121	40826.09
579.319	40934.63
579.516	40719.59
579.714	40961.25
579.912	40000.75
580.11	40330.48
580.308	40238.32
580.506	40498.41
580.704	40193.26
580.901	39980.28
581.099	39951.6
581.297	39671.03
581.495	39621.88
581.692	39855.35
581.89	39767.29
582.088	39873.78
582.285	39486.71
582.483	39689.46
582.681	39181.57
582.878	39206.14
583.076	38655.24
583.274	39296.25
583.471	38370.57
583.669	38485.26
583.866	38710.53
584.064	38868.23
584.262	38300.94
584.459	38544.65
584.657	38083.86
584.854	38346
585.052	37747.99
585.249	38001.94
585.447	38124.82
585.644	37158.17
585.841	38120.72
586.039	37866.77
586.236	37334.3
586.434	37389.59
586.631	37303.58
586.828	37041.44
587.026	36947.23
587.223	37217.57
587.42	36969.76
587.618	36549.93
587.815	36713.77
588.012	36470.06
588.21	36574.5
588.407	36425
588.604	36082.99
588.801	36107.57
588.999	36007.22
589.196	35923.25
589.393	36058.42
589.59	35511.61
589.787	35675.44
589.984	35405.11
590.182	35284.28
590.379	35620.15
590.576	35018.05
590.773	35108.16
590.97	34776.39
591.167	35083.58
591.364	34483.53
591.561	34669.89
591.758	34344.27
591.955	34561.35
592.152	34954.56
592.349	34223.44
592.546	34565.45
592.743	34374.98
592.94	33797.46
593.137	34127.18
593.334	33813.84
593.531	33277.27
593.727	33641.81
593.924	33881.42
594.121	33221.98
594.318	33731.92
594.515	33232.22
594.712	33619.28
594.908	33031.52
595.105	32941.41
595.302	32847.2
595.499	33037.66
595.696	32732.51
595.892	32441.7
596.089	32705.89
596.286	32417.13
596.482	32488.81
596.679	32437.61
596.876	32341.35
597.072	32154.99
597.269	32402.79
597.466	31868.27
597.662	31446.39
597.859	31817.07
598.055	31581.56
598.252	31651.19
598.448	31442.29
598.645	31321.46
598.841	30989.69
599.038	31358.33
599.234	31104.38
599.431	30956.92
599.627	30895.49
599.824	30946.69
600.02	30920.06
600.217	30752.13
600.413	30582.15
600.609	30430.6
600.806	30072.2
601.002	30463.36
601.198	30131.59
601.395	29803.92
601.591	30154.12
601.787	29765.01
601.984	29912.46
602.18	30147.98
602.376	29642.13
602.572	29304.21
602.769	29566.35
602.965	29107.61
603.161	29255.06
603.357	29300.12
603.553	28925.34
603.75	29160.86
603.946	28951.96
604.142	29148.57
604.338	28644.77
604.534	28855.71
604.73	28730.78
604.926	28347.81
605.122	28513.7
605.318	28089.77
605.514	28251.56
605.71	28081.58
605.906	28069.29
606.102	28188.07
606.298	28229.03
606.494	27948.46
606.69	27739.57
606.886	28013.99
607.082	27704.75
607.278	27850.16
607.474	27166.13
607.67	27526.58
607.866	27049.4
608.062	27303.35
608.257	27444.66
608.453	27577.78
608.649	27196.85
608.845	27063.74
609.041	27129.27
609.236	27241.91
609.432	26865.08
609.628	26488.26
609.824	26985.91
610.019	26600.9
610.215	26658.24
610.411	26502.59
610.606	26525.12
610.802	26871.23
610.998	26570.18
611.193	26492.35
611.389	26381.76
611.584	26041.8
611.78	26105.29
611.976	26353.09
612.171	26054.09
612.367	26250.69
612.562	25955.79
612.758	25738.7
612.953	25552.34
613.149	26115.53
613.344	25607.63
613.539	26029.51
613.735	25951.69
613.93	25648.59
614.126	25220.56
614.321	25927.11
614.517	25349.59
614.712	25349.59
614.907	25220.56
615.103	25370.07
615.298	25382.35
615.493	25830.86
615.688	25185.75
615.884	25288.15
616.079	24939.99
616.274	25261.52
616.47	24983
616.665	25130.45
616.86	24696.28
617.055	24849.88
617.25	24501.73
617.445	24907.23
617.641	24243.68
617.836	24735.2
618.031	24098.28
618.226	24499.68
618.421	24251.88
618.616	24298.98
618.811	23985.64
619.006	24458.72
619.201	23883.24
619.396	24149.48
619.591	23408.11
619.786	23762.41
619.981	23281.14
620.176	23862.76
620.371	23254.51
620.566	23336.43
620.761	23139.83
620.956	23266.8
621.151	22980.09
621.346	22978.04
621.541	22543.87
621.735	23084.53
621.93	22324.74
622.125	22449.66
622.32	22226.43
622.515	22480.38
622.709	22099.46
622.904	22103.56
623.099	21915.14
623.294	21937.67
623.488	21237.27
623.683	21792.26
623.878	20989.46
624.072	21431.82
624.267	21214.74
624.462	21046.8
624.656	20897.3
624.851	21175.83
625.046	20782.62
625.24	20649.5
625.435	20626.97
625.629	20530.72
625.824	20364.83
626.018	20125.22
626.213	19992.1
626.407	20180.51
626.602	19885.61
626.796	19914.28
626.991	19848.74
627.185	19303.98
627.38	19433
627.574	19568.17
627.768	19314.22
627.963	18890.29
628.157	18824.76
628.352	18968.12
628.546	18703.93
628.74	18927.16
628.935	18458.17
629.129	18767.41
629.323	18480.7
629.517	18183.74
629.712	18327.1
629.906	18191.94
630.1	17997.38
630.294	17866.31
630.489	17774.15
630.683	18026.05
630.877	17671.75
631.071	17667.66
631.265	17550.92
631.459	17647.18
631.653	17167.95
631.848	17122.9
632.042	17258.06
632.236	17020.5
632.43	16758.36
632.624	17083.98
632.818	16827.99
633.012	16619.1
633.206	16807.51
633.4	16639.58
633.594	16352.86
633.788	16580.18
633.982	16477.79
634.176	16361.05
634.369	16219.74
634.563	15877.73
634.757	15902.31
634.951	16021.09
635.145	15836.77
635.339	15877.73
635.533	15660.65
635.726	15588.97
635.92	15531.62
636.114	15433.32
636.308	15318.64
636.501	15429.23
636.695	15191.66
636.889	14960.24
637.083	14669.43
637.276	14900.85
637.47	14866.03
637.664	14720.63
637.857	14624.37
638.051	14702.2
638.244	14503.54
638.438	14509.69
638.632	14339.71
638.825	14311.03
639.019	14116.48
639.212	13958.78
639.406	14020.22
639.599	13981.31
639.793	13991.55
639.986	13667.97
640.18	13864.58
640.373	13866.63
640.567	13555.33
640.76	13649.54
640.954	13266.57
641.147	13207.18
641.34	13088.4
641.534	13416.07
641.727	13250.19
641.92	13278.86
642.114	13112.97
642.307	12938.9
642.5	12912.27
642.694	12652.18
642.887	12854.93
643.08	12705.43
643.273	12723.86
643.467	12576.41
643.66	12242.59
643.853	12433.05
644.046	12349.08
644.239	12312.22
644.432	12084.89
644.626	12076.7
644.819	12170.91
645.012	11919.01
645.205	11906.72
645.398	11732.64
645.591	11558.56
645.784	11572.9
645.977	11427.49
646.17	11853.47
646.363	11425.45
646.556	11357.86
646.749	11450.02
646.942	11572.9
647.135	11316.9
647.328	11110.06
647.521	10997.42
647.714	10987.18
647.907	10856.11
648.099	11003.57
648.292	11144.88
648.485	10757.81
648.678	10622.64
648.871	10452.66
649.064	10413.75
649.256	10792.62
649.449	10577.59
649.642	10514.1
649.835	10399.41
650.027	10376.89
650.22	10231.48
650.413	10254.01
650.605	10081.98
650.798	10024.64
650.991	9922.24
651.183	9987.77
651.376	9955.01
651.568	10053.31
651.761	9737.92
651.954	9776.83
652.146	9801.41
652.339	9828.03
652.531	9684.67
652.724	9582.28
652.916	9471.68
653.109	9393.86
653.301	9461.44
653.494	9273.03
653.686	9156.3
653.879	9406.15
654.071	9340.61
654.263	9223.88
654.456	9139.91
654.648	9047.76
654.84	8910.54
655.033	8926.93
655.225	8951.5
655.417	8754.9
655.61	8888.01
655.802	8795.86
655.994	8685.26
656.186	8648.4
656.379	8687.31
656.571	8459.99
656.763	8488.66
656.955	8466.13
657.148	8359.64
657.34	8455.89
657.532	8234.71
657.724	8179.42
657.916	8122.07
658.108	7982.81
658.3	8171.22
658.492	8062.68
658.684	7843.55
658.876	8095.45
659.068	7794.4
659.26	7759.58
659.452	7890.65
659.644	7677.66
659.836	7513.83
660.028	7644.9
660.22	7599.84
660.412	7689.95
660.604	7513.83
660.796	7538.4
660.988	7493.35
661.18	7304.93
661.372	7390.95
661.563	7333.61
661.755	7231.21
661.947	7214.82
662.139	7032.55
662.331	7038.7
662.522	7003.88
662.714	7102.18
662.906	6942.44
663.097	6905.58
663.289	6702.83
663.481	6797.04
663.673	7046.89
663.864	6891.24
664.056	6704.88
664.247	6678.26
664.439	6534.9
664.631	6485.75
664.822	6532.85
665.014	6770.41
665.205	6579.95
665.397	6467.31
665.588	6440.69
665.78	6412.02
665.971	6395.64
666.163	6321.91
666.354	6129.4
666.546	6231.8
666.737	6100.73
666.929	6084.34
667.12	6067.96
667.311	6043.39
667.503	5969.66
667.694	6014.71
667.885	6063.86
668.077	5728
668.268	5883.64
668.459	6014.71
668.651	5807.87
668.842	5861.12
669.033	5762.81
669.224	5738.24
669.416	5834.49
669.607	5658.37
669.798	5510.91
669.989	5666.56
670.18	5605.12
670.371	5359.36
670.563	5494.53
670.754	5596.93
670.945	5566.21
671.136	5547.78
671.327	5310.21
671.518	5383.94
671.709	5418.75
671.9	5465.86
672.091	5342.98
672.282	5336.84
672.473	5269.25
672.664	5261.06
672.855	5097.22
673.046	5162.76
673.237	5277.44
673.428	5132.04
673.619	5211.91
673.809	5007.11
674	4953.87
674.191	4970.25
674.382	4933.39
674.573	4908.81
674.764	4906.76
674.954	4960.01
675.145	4812.56
675.336	4886.28
675.527	4939.53
675.717	4744.97
675.908	4863.76
676.099	4777.74
676.289	4761.36
676.48	4714.25
676.671	4761.36
676.861	4769.55
677.052	4726.54
677.243	4640.53
677.433	4630.29
677.624	4628.24
677.814	4579.09
678.005	4474.64
678.195	4511.5
678.386	4607.76
678.576	4454.16
678.767	4525.84
678.957	4429.59
679.148	4443.92
679.338	4634.38
679.529	4509.46
679.719	4417.3
679.909	4626.19
680.1	4437.78
680.29	4523.79
680.481	4405.01
680.671	4345.62
680.861	4224.79
681.052	4425.49
681.242	4327.19
681.432	4427.54
681.622	4263.7
681.813	4210.45
682.003	4194.07
682.193	4249.36
682.383	4247.32
682.573	4165.4
682.764	4149.01
682.954	4228.88
683.144	4323.09
683.334	4181.78
683.524	4187.93
683.714	4237.08
683.904	4103.96
684.094	4116.25
684.284	4028.18
684.474	4163.35
684.664	3983.13
684.854	4065.05
685.044	4214.55
685.234	4019.99
685.424	4110.1
685.614	3968.79
685.804	4042.52
685.994	4003.61
686.184	4122.39
686.374	3942.17
686.564	3870.49
686.753	4024.09
686.943	3755.8
687.133	3919.64
687.323	3981.08
687.513	3864.35
687.702	3815.2
687.892	3952.41
688.082	3747.61
688.272	3796.76
688.461	3901.21
688.651	3856.15
688.841	3835.67
689.03	3950.36
689.22	3757.85
689.41	3659.55
689.599	3651.36
689.789	3788.57
689.979	3598.11
690.168	3712.8
690.358	3753.76
690.547	3725.08
690.737	3657.5
690.926	3663.65
691.116	3548.96
691.305	3655.45
691.495	3594.01
691.684	3622.69
691.874	3563.29
692.063	3581.73
692.252	3575.58
692.442	3616.54
692.631	3442.46
692.82	3438.37
693.01	3520.29
693.199	3551.01
693.388	3530.53
693.578	3526.43
693.767	3606.3
693.956	3614.49
694.146	3452.7
694.335	3481.38
694.524	3450.66
694.713	3467.04
694.902	3452.7
695.092	3376.93
695.281	3243.81
695.47	3458.85
695.659	3479.33
695.848	3241.76
696.037	3290.92
696.226	3385.12
696.415	3245.86
696.604	3329.83
696.793	3329.83
696.982	3319.59
697.171	3274.53
697.36	3288.87
697.549	3249.96
697.738	3174.18
697.927	3155.75
698.116	3172.13
698.305	3295.01
698.494	3346.21
698.683	3249.96
698.872	3108.65
699.061	3299.11
699.25	3249.96
699.438	3157.8
699.627	3116.84
699.816	3174.18
700.005	3155.75
700.193	3067.69
700.382	2991.91
700.571	3118.89
700.76	3235.62
700.948	3196.71
701.137	3151.65
701.326	3247.91
701.514	3061.54
701.703	3092.26
701.892	3047.21
702.08	3125.03
702.269	3051.3
702.457	2934.57
702.646	2887.47
702.834	2901.8
703.023	3055.4
703.212	3133.22
703.4	2881.32
703.589	2860.84
703.777	2862.89
703.965	2860.84
704.154	2936.62
704.342	3024.68
704.531	2993.96
704.719	2840.36
704.907	2928.42
705.096	2899.75
705.284	2940.71
705.472	2787.11
705.661	2934.57
705.849	2850.6
706.037	2907.94
706.226	2885.42
706.414	2838.31
706.602	2895.66
706.79	2963.24
706.979	2840.36
707.167	2856.75
707.355	2895.66
707.543	2821.93
707.731	2778.92
707.919	2807.59
708.107	2799.4
708.296	2776.87
708.484	2672.43
708.672	2684.72
708.86	2762.54
709.048	2598.7
709.236	2690.86
709.424	2787.11
709.612	2754.35
709.8	2795.31
709.988	2684.72
710.176	2699.05
710.364	2672.43
710.551	2690.86
710.739	2633.52
710.927	2686.76
711.115	2656.04
711.303	2680.62
711.491	2533.17
711.679	2574.13
711.866	2746.16
712.054	2623.28
712.242	2598.7
712.43	2647.85
712.617	2582.32
712.805	2578.22
712.993	2553.65
713.181	2604.85
713.368	2527.02
713.556	2527.02
713.744	2463.54
713.931	2672.43
714.119	2555.69
714.306	2598.7
714.494	2361.14
714.682	2496.3
714.869	2438.96
715.057	2467.63
715.244	2434.86
715.432	2549.55
715.619	2557.74
715.807	2426.67
715.994	2438.96
716.182	2512.69
716.369	2557.74
716.556	2504.5
716.744	2361.14
716.931	2463.54
717.119	2592.56
717.306	2416.43
717.493	2418.48
717.681	2455.34
717.868	2346.8
718.055	2453.3
718.242	2342.71
718.43	2369.33
718.617	2418.48
718.804	2436.91
718.991	2363.19
719.179	2426.67
719.366	2309.94
719.553	2373.43
719.74	2430.77
719.927	2410.29
720.114	2326.32
720.301	2328.37
720.488	2344.75
720.676	2176.82
720.863	2352.95
721.05	2387.76
721.237	2254.64
721.424	2215.73
721.611	2336.56
721.798	2191.16
721.985	2215.73
722.172	2197.3
722.358	2271.03
722.545	2230.07
722.732	2230.07
722.919	2246.45
723.106	2148.15
723.293	2273.07
723.48	2127.67
723.667	2172.72
723.853	2131.76
724.04	2221.88
724.227	2144.05
724.414	2211.64
724.6	2160.44
724.787	2160.44
724.974	2266.93
725.161	2240.31
725.347	2230.07
725.534	2230.07
725.72	2168.63
725.907	2123.57
726.094	2139.96
726.28	2080.57
726.467	2109.24
726.653	2109.24
726.84	2062.13
727.027	2248.5
727.213	2031.41
727.4	2146.1
727.586	2096.95
727.773	2086.71
727.959	2076.47
728.145	2027.32
728.332	2115.38
728.518	2021.17
728.705	2096.95
728.891	1978.17
729.077	2070.33
729.264	2000.69
729.45	2099
729.636	2084.66
729.823	2109.24
730.009	2131.76
730.195	2099
730.382	2094.9
730.568	1986.36
730.754	2025.27
730.94	1996.6
731.126	1943.35
731.313	2043.7
731.499	2006.84
731.685	1980.22
731.871	2033.46
732.057	1992.5
732.243	1902.39
732.429	1877.82
732.615	1959.74
732.801	1914.68
732.987	1967.93
733.173	2017.08
733.359	1935.16
733.545	1943.35
733.731	1877.82
733.917	2002.74
734.103	1935.16
734.289	1914.68
734.475	1912.63
734.661	2058.04
734.847	1994.55
735.033	1900.34
735.219	1914.68
735.404	1939.26
735.59	1918.78
735.776	1904.44
735.962	1820.47
736.148	1898.3
736.333	1886.01
736.519	1861.43
736.705	1910.58
736.89	1900.34
737.076	1904.44
737.262	1724.22
737.447	1894.2
737.633	1855.29
737.819	1888.06
738.004	1853.24
738.19	1832.76
738.375	1793.85
738.561	1961.78
738.747	1748.79
738.932	1716.03
739.118	1699.64
739.303	1730.36
739.489	1767.23
739.674	1836.86
739.859	1713.98
740.045	1771.32
740.23	1664.83
740.416	1713.98
740.601	1804.09
740.786	1697.6
740.972	1646.4
741.157	1713.98
741.342	1589.05
741.528	1675.07
741.713	1638.2
741.898	1613.63
742.084	1666.88
742.269	1673.02
742.454	1689.4
742.639	1478.46
742.824	1632.06
743.01	1689.4
743.195	1664.83
743.38	1566.53
743.565	1656.64
743.75	1689.4
743.935	1632.06
744.12	1654.59
744.305	1535.81
744.49	1525.57
744.675	1580.86
744.86	1509.18
745.045	1550.14
745.23	1591.1
745.415	1537.85
745.6	1625.92
745.785	1505.09
745.97	1615.68
746.155	1474.37
746.34	1521.47
746.525	1539.9
746.71	1541.95
746.895	1505.09
747.079	1443.65
747.264	1554.24
747.449	1562.43
747.634	1443.65
747.819	1468.22
748.003	1449.79
748.188	1380.16
748.373	1439.55
748.557	1365.82
748.742	1310.53
748.927	1374.02
749.111	1234.75
749.296	1376.06
749.481	1408.83
749.665	1333.06
749.85	1331.01
750.034	1306.43
750.219	1283.91
750.404	1267.52
750.588	1427.26
750.773	1249.09
750.957	1296.19
751.141	1382.21
751.326	1328.96
751.51	1193.8
751.695	1257.28
751.879	1169.22
752.064	1337.15
752.248	1238.85
752.432	1320.77
752.617	1255.23
752.801	1156.93
752.985	1224.51
753.17	1292.1
753.354	1273.67
753.538	1263.43
753.722	1154.88
753.907	1257.28
754.091	1038.15
754.275	1316.67
754.459	1144.64
754.643	1118.02
754.828	1130.31
755.012	1111.88
755.196	1085.25
755.38	1136.45
755.564	1167.17
755.748	1083.2
755.932	1095.49
756.116	1072.96
756.3	1023.81
756.484	1109.83
756.668	1081.16
756.852	1058.63
757.036	1083.2
757.22	962.37
757.404	958.28
757.588	1034.05
757.772	1042.25
757.956	995.14
758.14	1052.49
758.323	968.52
758.507	1021.77
758.691	929.61
758.875	1042.25
759.059	1001.29
759.242	902.98
759.426	964.42
759.61	929.61
759.794	862.02
759.977	943.94
760.161	1128.26
760.345	892.74
760.528	984.9
760.712	829.26
760.895	927.56
761.079	917.32
761.263	845.64
761.446	972.61
761.63	823.11
761.813	902.98
761.997	931.66
762.18	755.53
762.364	896.84
762.547	878.41
762.731	823.11
762.914	882.5
763.098	796.49
763.281	894.79
763.464	853.83
763.648	800.59
763.831	829.26
764.015	894.79
764.198	790.35
764.381	870.22
764.564	786.25
764.748	831.3
764.931	816.97
765.114	733
765.297	812.87
765.481	745.29
765.664	849.74
765.847	771.91
766.03	798.54
766.213	763.72
766.397	849.74
766.58	808.78
766.763	814.92
766.946	765.77
767.129	798.54
767.312	804.68
767.495	741.19
767.678	747.34
767.861	739.15
768.044	829.26
768.227	814.92
768.41	749.39
768.593	757.58
768.776	798.54
768.959	812.87
769.142	798.54
769.324	790.35
769.507	855.88
769.69	708.43
769.873	747.34
770.056	814.92
770.239	724.81
770.421	728.91
770.604	735.05
770.787	765.77
770.97	728.91
771.152	612.17
771.335	632.65
771.518	665.42
771.7	718.67
771.883	769.87
772.066	644.94
772.248	739.15
772.431	757.58
772.613	673.61
772.796	651.08
772.978	644.94
773.161	759.63
773.343	706.38
773.526	640.84
773.708	620.36
773.891	685.9
774.073	683.85
774.256	657.23
774.438	698.19
774.621	583.5
774.803	726.86
774.985	567.12
775.168	620.36
775.35	673.61
775.532	640.84
775.715	585.55
775.897	599.88
776.079	616.27
776.261	610.12
776.444	585.55
776.626	544.59
776.808	601.93
776.99	563.02
777.173	585.55
777.355	603.98
777.537	603.98
777.719	579.4
777.901	640.84
778.083	497.49
778.265	501.58
778.447	608.08
778.629	542.54
778.811	601.93
778.993	599.88
779.175	558.92
779.357	608.08
779.539	522.06
779.721	538.45
779.903	554.83
780.085	495.44
780.267	505.68
780.449	501.58
780.631	626.51
780.812	503.63
780.994	522.06
781.176	544.59
781.358	462.67
781.54	499.53
781.721	501.58
781.903	520.01
782.085	472.91
782.267	456.53
782.448	442.19
782.63	411.47
782.812	505.68
782.993	472.91
783.175	495.44
783.357	405.33
783.538	495.44
783.72	454.48
783.901	493.39
784.083	440.14
784.264	511.82
784.446	452.43
784.627	450.38
784.809	493.39
784.99	411.47
785.172	425.81
785.353	370.51
785.535	419.66
785.716	407.38
785.897	423.76
786.079	368.46
786.26	382.8
786.441	315.22
786.623	329.55
786.804	284.5
786.985	421.71
787.167	395.09
787.348	376.66
787.529	347.98
787.71	329.55
787.891	479.05
788.073	358.22
788.254	374.61
788.435	411.47
788.616	313.17
788.797	280.4
788.978	366.42
789.159	343.89
789.34	345.94
789.522	333.65
789.703	296.78
789.884	337.74
790.065	364.37
790.246	425.81
790.427	317.26
790.607	288.59
790.788	298.83
790.969	286.54
791.15	249.68
791.331	317.26
791.512	317.26
791.693	313.17
791.874	268.11
792.054	278.35
792.235	298.83
792.416	329.55
792.597	239.44
792.778	313.17
792.958	317.26
793.139	298.83
793.32	325.46
793.5	290.64
793.681	366.42
793.862	307.02
794.042	356.18
794.223	276.31
794.404	239.44
794.584	249.68
794.765	304.98
794.945	321.36
795.126	167.76
795.306	329.55
795.487	300.88
795.667	268.11
795.848	243.54
796.028	233.3
796.209	249.68
796.389	337.74
796.57	323.41
796.75	231.25
796.93	251.73
797.111	214.87
797.291	253.78
797.471	278.35
797.652	257.87
797.832	182.1
798.012	284.5
798.192	309.07
798.373	223.06
798.553	311.12
798.733	132.95
798.913	204.63
799.093	182.1
799.274	223.06
799.454	225.11
799.634	192.34
799.814	358.22
799.994	200.53
800.174	202.58
800.354	186.19
800.534	206.67
800.714	239.44
800.894	259.92
801.074	145.24
801.254	218.96
801.434	288.59
801.614	214.87
801.794	210.77
801.974	802.63
802.154	204.63
802.334	214.87
802.514	169.81
802.693	178
802.873	167.76
803.053	214.87
803.233	175.95
803.413	210.77
803.592	182.1
803.772	153.43
803.952	225.11
804.131	120.66
804.311	206.67
804.491	190.29
804.67	221.01
804.85	210.77
805.03	159.57
805.209	192.34
805.389	141.14
805.568	196.43
805.748	94.04
805.928	237.39
806.107	180.05
806.287	257.87
806.466	184.15
806.646	182.1
806.825	132.95
807.004	216.91
807.184	167.76
807.363	178
807.543	163.67
807.722	198.48
807.901	196.43
808.081	171.86
808.26	104.28
808.439	161.62
808.619	210.77
808.798	75.6
808.977	94.04
809.156	128.85
809.336	192.34
809.515	247.63
809.694	241.49
809.873	204.63
810.052	163.67
810.231	241.49
810.411	135
810.59	190.29
810.769	149.33
810.948	231.25
811.127	169.81
811.306	175.95
811.485	102.23
811.664	208.72
811.843	132.95
812.022	128.85
812.201	184.15
812.38	120.66
812.559	151.38
812.737	135
812.916	137.04
813.095	124.76
813.274	120.66
813.453	42.84
813.632	167.76
813.811	169.81
813.989	116.56
814.168	91.99
814.347	143.19
814.526	173.91
814.704	167.76
814.883	153.43
815.062	124.76
815.24	141.14
815.419	122.71
815.598	108.37
815.776	161.62
815.955	167.76
816.133	91.99
816.312	83.8
816.49	61.27
816.669	145.24
816.847	161.62
817.026	89.94
817.204	130.9
817.383	83.8
817.561	169.81
817.74	79.7
817.918	114.52
818.097	116.56
818.275	69.46
818.453	102.23
818.632	112.47
818.81	79.7
818.988	87.89
819.167	108.37
819.345	116.56
819.523	87.89
819.701	44.88
819.879	108.37
820.058	51.03
820.236	151.38
820.414	100.18
820.592	91.99
820.77	124.76
820.948	114.52
821.127	53.08
821.305	79.7
821.483	75.6
821.661	132.95
821.839	81.75
822.017	26.45
822.195	42.84
822.373	108.37
822.551	83.8
822.729	83.8
822.907	14.17
823.085	112.47
823.262	34.64
823.44	3.93
823.618	96.08
823.796	157.52
823.974	110.42
824.152	67.41
824.329	69.46
824.507	61.27
824.685	42.84
824.863	34.64
825.04	38.74
825.218	151.38
825.396	75.6
825.574	85.84
825.751	14.17
825.929	96.08
826.107	-2.22
826.284	59.22
826.462	108.37
826.639	22.36
826.817	28.5
826.994	104.28
827.172	26.45
827.349	126.8
827.527	124.76
827.704	110.42
827.882	1.88
828.059	44.88
828.237	46.93
828.414	180.05
828.591	108.37
828.769	124.76
828.946	34.64
829.124	69.46
829.301	69.46
829.478	67.41
829.655	34.64
829.833	94.04
830.01	5.97
830.187	36.69
830.364	91.99
830.542	91.99
830.719	91.99
830.896	91.99
831.073	112.47
831.25	44.88
831.427	182.1
831.604	67.41
831.782	36.69
831.959	141.14
832.136	26.45
832.313	-0.17
832.49	44.88
832.667	96.08
832.844	71.51
833.021	128.85
833.198	26.45
833.374	87.89
833.551	91.99
833.728	61.27
833.905	10.07
834.082	42.84
834.259	122.71
834.436	110.42
834.612	-20.65
834.789	42.84
834.966	91.99
835.143	-51.37
835.319	96.08
835.496	77.65
835.673	67.41
835.85	116.56
836.026	26.45
836.203	102.23
836.38	180.05
836.556	53.08
836.733	87.89
836.909	59.22
837.086	-26.79
837.262	28.5
837.439	53.08
837.616	128.85
837.792	10.07
837.968	102.23
838.145	36.69
838.321	77.65
838.498	51.03
838.674	75.6
838.851	79.7
839.027	20.31
839.203	38.74
839.38	44.88
839.556	46.93
839.732	110.42
839.909	42.84
840.085	26.45
840.261	51.03
840.437	-14.51
840.614	5.97
840.79	161.62
840.966	-12.46
841.142	126.8
841.318	32.6
841.494	-4.27
841.671	10.07
841.847	10.07
842.023	18.26
842.199	46.93
842.375	79.7
842.551	-47.27
842.727	-20.65
842.903	141.14
843.079	38.74
843.255	18.26
843.431	-47.27
843.607	30.55
843.783	30.55
843.959	18.26
844.134	-30.89
844.31	18.26
844.486	-39.08
844.662	14.17
844.838	59.22
845.013	77.65
845.189	18.26
845.365	51.03
845.541	26.45
845.716	69.46
845.892	94.04
846.068	-6.31
846.244	44.88
846.419	100.18
846.595	12.12
846.77	61.27
846.946	8.02
847.122	34.64
847.297	42.84
847.473	108.37
847.648	20.31
847.824	51.03
847.999	-8.36
848.175	65.36
848.35	-53.42
848.526	53.08
848.701	55.12
848.876	157.52
849.052	67.41
849.227	30.55
849.403	-6.31
849.578	14.17
849.753	5.97
849.929	20.31
850.104	3.93
850.279	79.7
850.454	26.45
850.63	26.45
850.805	44.88
850.98	20.31
851.155	59.22
851.33	40.79
851.505	126.8
851.681	77.65
851.856	38.74
852.031	-6.31
852.206	34.64
852.381	59.22
852.556	100.18
852.731	30.55
852.906	5.97
853.081	112.47
853.256	12.12
853.431	36.69
853.606	-2.22
853.781	65.36
853.956	5.97
854.131	46.93
854.305	42.84
854.48	38.74
854.655	1.88
854.83	53.08
855.005	-10.41
855.18	83.8
855.354	1.88
855.529	-53.42
855.704	28.5
855.879	87.89
856.053	-39.08
856.228	28.5
856.403	10.07
856.577	12.12
856.752	22.36
856.926	46.93
857.101	59.22
857.276	-4.27
857.45	-2.22
857.625	106.32
857.799	-28.84
857.974	104.28
858.148	-24.75
858.323	102.23
858.497	-0.17
858.672	36.69
858.846	8.02
859.02	79.7
859.195	-8.36
859.369	44.88
859.543	1.88
859.718	44.88
859.892	12.12
860.066	5.97
860.241	65.36
860.415	-28.84
860.589	38.74
860.763	3.93
860.938	46.93
861.112	30.55
861.286	46.93
861.46	22.36
861.634	30.55
861.808	26.45
861.982	-4.27
862.157	-14.51
862.331	1.88
862.505	-73.9
862.679	-71.85
862.853	-6.31
863.027	20.31
863.201	28.5
863.375	-2.22
863.549	51.03
863.722	-6.31
863.896	124.76
864.07	-2.22
864.244	55.12
864.418	51.03
864.592	-14.51
864.766	67.41
864.939	59.22
865.113	-45.23
865.287	81.75
865.461	-63.66
865.634	63.32
865.808	36.69
865.982	-22.7
866.156	26.45
866.329	-18.6
866.503	-12.46
866.676	79.7
866.85	14.17
867.024	5.97
867.197	34.64
867.371	26.45
867.544	48.98
867.718	38.74
867.891	24.4
868.065	-14.51
868.238	87.89
868.412	38.74
868.585	22.36
868.759	-18.6
868.932	26.45
869.105	-20.65
869.279	18.26
869.452	5.97
869.625	-6.31
869.799	10.07
869.972	-57.51
870.145	12.12
870.319	-4.27
870.492	-18.6
870.665	26.45
870.838	34.64
871.011	-30.89
871.185	12.12
871.358	-22.7
871.531	34.64
871.704	1.88
871.877	-30.89
872.05	-22.7
872.223	-71.85
872.396	22.36
872.569	91.99
872.742	46.93
872.915	28.5
873.088	40.79
873.261	42.84
873.434	1.88
873.607	-53.42
873.78	1.88
873.953	-30.89
874.126	-14.51
874.299	28.5
874.471	-49.32
874.644	14.17
874.817	-26.79
874.99	-12.46
875.163	18.26
875.335	-14.51
875.508	32.6
875.681	22.36
875.853	-18.6
876.026	79.7
876.199	46.93
876.371	-55.47
876.544	-30.89
876.717	36.69
876.889	3.93
877.062	91.99
877.234	-18.6
877.407	26.45
877.579	-47.27
877.752	3.93
877.924	44.88
878.097	34.64
878.269	67.41
878.442	104.28
878.614	44.88
878.786	-4.27
878.959	34.64
879.131	-10.41
879.303	24.4
879.476	36.69
879.648	-0.17
879.82	20.31
879.993	-22.7
880.165	22.36
880.337	-24.75
880.509	1.88
880.681	-26.79
880.854	-10.41
881.026	59.22
881.198	102.23
881.37	-18.6
881.542	10.07
881.714	-51.37
881.886	-6.31
882.058	-67.75
882.23	30.55
882.402	-6.31
882.574	-8.36
882.746	22.36
882.918	-26.79
883.09	16.21
883.262	67.41
883.434	18.26
883.606	53.08
883.778	16.21
883.95	120.66
884.122	-30.89
884.293	30.55
884.465	1.88
884.637	34.64
884.809	-73.9
884.98	-6.31
885.152	3.93
885.324	46.93
885.496	79.7
885.667	16.21
885.839	-61.61
886.011	59.22
886.182	57.17
886.354	59.22
886.525	-63.66
886.697	67.41
886.869	-14.51
887.04	26.45
887.212	-10.41
887.383	34.64
887.555	-39.08
887.726	-4.27
887.897	-14.51
888.069	-6.31
888.24	-16.55
888.412	1.88
888.583	34.64
888.754	1.88
888.926	-67.75
889.097	69.46
889.268	-28.84
889.44	26.45
889.611	-10.41
889.782	18.26
889.953	-2.22
890.125	59.22
890.296	-12.46
890.467	-30.89
890.638	-22.7
890.809	61.27
890.98	-43.18
891.151	-45.23
891.323	-14.51
891.494	-55.47
891.665	34.64
891.836	18.26
892.007	-12.46
892.178	63.32
892.349	51.03
892.52	26.45
892.691	-2.22
892.862	42.84
893.032	20.31
893.203	-30.89
893.374	-47.27
893.545	1.88
893.716	-37.03
893.887	-20.65
894.057	1.88
894.228	51.03
894.399	-20.65
894.57	36.69
894.74	-14.51
894.911	-10.41
895.082	-41.13
895.253	-39.08
895.423	-51.37
895.594	3.93
895.764	81.75
895.935	-20.65
896.106	-37.03
896.276	-14.51
896.447	20.31
896.617	-32.94
896.788	-55.47
896.958	-47.27
897.129	30.55
897.299	-53.42
897.47	38.74
897.64	102.23
897.81	32.6
897.981	61.27
898.151	1.88
898.322	-30.89
898.492	81.75
898.662	-47.27
898.832	-53.42
899.003	73.56
899.173	-12.46
899.343	-30.89
899.513	12.12
