Data from USB4F104151__206__14-45-23-629.txt Node

Date: Thu Mar 13 14:45:23 EDT 2025
User: louis
Spectrometer: USB4F10415
Trigger mode: 4
Integration Time (sec): 2.000000E-2
Scans to average: 1
Electric dark correction enabled: true
Nonlinearity correction enabled: false
Boxcar width: 0
XAxis mode: Wavelengths
Number of Pixels in Spectrum: 3648
>>>>>Begin Spectral Data<<<<<
178.204	-181.42
178.424	-181.42
178.644	-181.42
178.864	-162.98
179.084	-97.45
179.304	-11.43
179.524	-52.39
179.744	-60.59
179.964	31.57
180.184	37.72
180.404	15.19
180.624	33.62
180.844	47.96
181.064	-19.63
181.283	-15.53
181.503	29.52
181.723	-36.01
181.943	-11.43
182.163	13.14
182.383	23.38
182.602	56.15
182.822	-15.53
183.042	13.14
183.262	-107.69
183.482	7
183.701	-66.73
183.921	-11.43
184.141	-44.2
184.361	58.2
184.58	-27.82
184.8	-3.24
185.02	62.29
185.239	-3.24
185.459	-23.72
185.679	-5.29
185.898	-81.07
186.118	39.76
186.338	-52.39
186.557	68.44
186.777	-1.19
186.997	-27.82
187.216	68.44
187.436	97.11
187.655	9.05
187.875	29.52
188.095	-19.63
188.314	37.72
188.534	97.11
188.753	-66.73
188.973	-46.25
189.192	25.43
189.412	-1.19
189.631	33.62
189.851	29.52
190.07	9.05
190.29	-3.24
190.509	-27.82
190.729	-19.63
190.948	-29.87
191.168	50
191.387	23.38
191.607	-15.53
191.826	-23.72
192.045	-5.29
192.265	-17.58
192.484	-11.43
192.704	37.72
192.923	-3.24
193.142	50
193.362	66.39
193.581	70.48
193.8	23.38
194.02	-19.63
194.239	-50.35
194.458	-11.43
194.678	-44.2
194.897	0.85
195.116	0.85
195.335	62.29
195.555	-38.06
195.774	4.95
195.993	39.76
196.212	-58.54
196.432	-13.48
196.651	-19.63
196.87	-11.43
197.089	39.76
197.308	47.96
197.528	-3.24
197.747	-13.48
197.966	-3.24
198.185	-27.82
198.404	54.1
198.623	-52.39
198.842	-11.43
199.062	82.77
199.281	13.14
199.5	4.95
199.719	74.58
199.938	-5.29
200.157	37.72
200.376	-42.15
200.595	-27.82
200.814	-21.67
201.033	-87.21
201.252	27.48
201.471	-3.24
201.69	13.14
201.909	23.38
202.128	-15.53
202.347	41.81
202.566	4.95
202.785	-19.63
203.004	-64.68
203.223	9.05
203.442	-7.34
203.661	-72.87
203.879	-36.01
204.098	-25.77
204.317	23.38
204.536	13.14
204.755	31.57
204.974	-44.2
205.193	-27.82
205.411	-7.34
205.63	90.96
205.849	45.91
206.068	21.33
206.287	-76.97
206.505	-56.49
206.724	0.85
206.943	-56.49
207.162	-11.43
207.381	35.67
207.599	-13.48
207.818	27.48
208.037	-46.25
208.255	-23.72
208.474	-17.58
208.693	0.85
208.911	15.19
209.13	37.72
209.349	31.57
209.567	47.96
209.786	70.48
210.005	21.33
210.223	-19.63
210.442	21.33
210.661	-1.19
210.879	-36.01
211.098	4.95
211.316	17.24
211.535	-33.96
211.753	-25.77
211.972	-19.63
212.191	4.95
212.409	-23.72
212.628	19.29
212.846	4.95
213.065	-3.24
213.283	4.95
213.502	-9.39
213.72	43.86
213.938	41.81
214.157	45.91
214.375	86.87
214.594	-13.48
214.812	-52.39
215.031	-36.01
215.249	-5.29
215.467	-46.25
215.686	-17.58
215.904	19.29
216.122	33.62
216.341	76.63
216.559	9.05
216.778	-15.53
216.996	-36.01
217.214	-19.63
217.432	-40.11
217.651	-25.77
217.869	50
218.087	-122.02
218.306	39.76
218.524	-11.43
218.742	-48.3
218.96	78.68
219.179	39.76
219.397	4.95
219.615	-15.53
219.833	-52.39
220.051	-23.72
220.27	37.72
220.488	39.76
220.706	-36.01
220.924	-42.15
221.142	-5.29
221.36	-13.48
221.578	-36.01
221.796	-5.29
222.015	-11.43
222.233	-3.24
222.451	17.24
222.669	-40.11
222.887	-13.48
223.105	23.38
223.323	-3.24
223.541	9.05
223.759	-1.19
223.977	-38.06
224.195	37.72
224.413	-27.82
224.631	-7.34
224.849	-44.2
225.067	-1.19
225.285	-76.97
225.503	45.91
225.721	-36.01
225.939	-11.43
226.157	-36.01
226.375	78.68
226.592	17.24
226.81	-11.43
227.028	29.52
227.246	70.48
227.464	4.95
227.682	23.38
227.9	29.52
228.117	39.76
228.335	-11.43
228.553	58.2
228.771	-9.39
228.989	64.34
229.206	21.33
229.424	21.33
229.642	-83.11
229.86	-19.63
230.077	78.68
230.295	70.48
230.513	13.14
230.731	-1.19
230.948	29.52
231.166	17.24
231.384	9.05
231.601	41.81
231.819	33.62
232.037	88.92
232.254	-19.63
232.472	0.85
232.689	-101.55
232.907	-13.48
233.125	-27.82
233.342	-25.77
233.56	-17.58
233.777	-27.82
233.995	27.48
234.213	-3.24
234.43	-3.24
234.648	17.24
234.865	15.19
235.083	95.06
235.3	88.92
235.518	15.19
235.735	29.52
235.953	4.95
236.17	-50.35
236.388	-3.24
236.605	13.14
236.822	29.52
237.04	25.43
237.257	-7.34
237.475	58.2
237.692	25.43
237.909	-3.24
238.127	7
238.344	-99.5
238.562	-25.77
238.779	-40.11
238.996	17.24
239.214	-17.58
239.431	45.91
239.648	-13.48
239.865	-3.24
240.083	45.91
240.3	2.9
240.517	-54.44
240.735	-44.2
240.952	41.81
241.169	54.1
241.386	25.43
241.603	-19.63
241.821	-13.48
242.038	50
242.255	45.91
242.472	-1.19
242.689	74.58
242.907	-3.24
243.124	17.24
243.341	-83.11
243.558	-1.19
243.775	21.33
243.992	-76.97
244.209	-52.39
244.426	111.44
244.643	37.72
244.86	29.52
245.078	21.33
245.295	45.91
245.512	54.1
245.729	-52.39
245.946	-1.19
246.163	-44.2
246.38	-76.97
246.597	13.14
246.814	-74.92
247.031	4.95
247.248	-7.34
247.464	50
247.681	-101.55
247.898	27.48
248.115	80.72
248.332	-68.78
248.549	76.63
248.766	41.81
248.983	33.62
249.2	-19.63
249.417	56.15
249.633	-15.53
249.85	13.14
250.067	-11.43
250.284	-19.63
250.501	-29.87
250.717	29.52
250.934	4.95
251.151	-5.29
251.368	-101.55
251.585	23.38
251.801	25.43
252.018	74.58
252.235	56.15
252.451	-40.11
252.668	-48.3
252.885	23.38
253.102	33.62
253.318	-27.82
253.535	-3.24
253.752	-3.24
253.968	-122.02
254.185	27.48
254.401	-19.63
254.618	-7.34
254.835	13.14
255.051	9.05
255.268	-9.39
255.484	27.48
255.701	54.1
255.917	47.96
256.134	9.05
256.351	54.1
256.567	45.91
256.784	80.72
257	-81.07
257.217	21.33
257.433	9.05
257.65	54.1
257.866	66.39
258.082	-5.29
258.299	-5.29
258.515	80.72
258.732	-81.07
258.948	58.2
259.165	-23.72
259.381	-50.35
259.597	0.85
259.814	21.33
260.03	4.95
260.246	21.33
260.463	-3.24
260.679	78.68
260.895	25.43
261.112	-23.72
261.328	-60.59
261.544	-54.44
261.761	72.53
261.977	-58.54
262.193	-5.29
262.409	0.85
262.626	21.33
262.842	-25.77
263.058	23.38
263.274	-19.63
263.49	-36.01
263.707	19.29
263.923	45.91
264.139	-60.59
264.355	-21.67
264.571	23.38
264.787	27.48
265.004	45.91
265.22	21.33
265.436	-23.72
265.652	9.05
265.868	-19.63
266.084	-27.82
266.3	-44.2
266.516	-25.77
266.732	31.57
266.948	-5.29
267.164	-60.59
267.38	21.33
267.596	-17.58
267.812	37.72
268.028	47.96
268.244	0.85
268.46	37.72
268.676	2.9
268.892	4.95
269.108	-36.01
269.324	37.72
269.54	-68.78
269.756	64.34
269.972	15.19
270.188	29.52
270.403	9.05
270.619	-117.93
270.835	45.91
271.051	54.1
271.267	7
271.483	7
271.698	13.14
271.914	29.52
272.13	-27.82
272.346	-68.78
272.562	58.2
272.777	-5.29
272.993	-7.34
273.209	-19.63
273.425	45.91
273.64	-27.82
273.856	15.19
274.072	70.48
274.287	-31.91
274.503	19.29
274.719	-54.44
274.934	-27.82
275.15	-3.24
275.366	-60.59
275.581	-31.91
275.797	-21.67
276.012	15.19
276.228	-42.15
276.444	0.85
276.659	47.96
276.875	-38.06
277.09	50
277.306	-58.54
277.521	21.33
277.737	15.19
277.952	37.72
278.168	-9.39
278.383	-17.58
278.599	43.86
278.814	-27.82
279.03	-50.35
279.245	50
279.461	21.33
279.676	15.19
279.892	-60.59
280.107	-23.72
280.322	-11.43
280.538	33.62
280.753	25.43
280.969	13.14
281.184	45.91
281.399	-19.63
281.615	-40.11
281.83	7
282.045	0.85
282.26	-93.35
282.476	-48.3
282.691	21.33
282.906	-46.25
283.122	25.43
283.337	-17.58
283.552	2.9
283.767	-56.49
283.983	95.06
284.198	19.29
284.413	62.29
284.628	-1.19
284.843	-15.53
285.058	62.29
285.274	4.95
285.489	-56.49
285.704	-58.54
285.919	27.48
286.134	35.67
286.349	13.14
286.564	-64.68
286.779	66.39
286.995	-38.06
287.21	-17.58
287.425	-52.39
287.64	-1.19
287.855	-60.59
288.07	-60.59
288.285	54.1
288.5	9.05
288.715	-60.59
288.93	-29.87
289.145	-11.43
289.36	103.25
289.575	-3.24
289.79	41.81
290.004	33.62
290.219	31.57
290.434	-9.39
290.649	-42.15
290.864	72.53
291.079	-48.3
291.294	47.96
291.509	-19.63
291.724	-66.73
291.938	21.33
292.153	-11.43
292.368	39.76
292.583	29.52
292.798	13.14
293.012	13.14
293.227	54.1
293.442	4.95
293.657	74.58
293.871	78.68
294.086	-9.39
294.301	37.72
294.516	29.52
294.73	-31.91
294.945	-19.63
295.16	25.43
295.374	-3.24
295.589	-15.53
295.804	-40.11
296.018	-9.39
296.233	41.81
296.447	29.52
296.662	-3.24
296.877	121.68
297.091	-9.39
297.306	21.33
297.52	33.62
297.735	-42.15
297.949	15.19
298.164	56.15
298.378	27.48
298.593	-36.01
298.807	-23.72
299.022	80.72
299.236	35.67
299.451	-42.15
299.665	-107.69
299.88	70.48
300.094	9.05
300.309	72.53
300.523	4.95
300.737	54.1
300.952	4.95
301.166	-44.2
301.381	9.05
301.595	-60.59
301.809	-21.67
302.024	-40.11
302.238	-25.77
302.452	-27.82
302.667	-50.35
302.881	54.1
303.095	13.14
303.309	33.62
303.524	41.81
303.738	-36.01
303.952	-1.19
304.166	23.38
304.381	-33.96
304.595	62.29
304.809	21.33
305.023	15.19
305.237	78.68
305.452	-44.2
305.666	17.24
305.88	72.53
306.094	29.52
306.308	-11.43
306.522	-3.24
306.736	-1.19
306.95	-25.77
307.164	-7.34
307.379	41.81
307.593	45.91
307.807	37.72
308.021	-27.82
308.235	-27.82
308.449	-27.82
308.663	-17.58
308.877	4.95
309.091	27.48
309.305	-15.53
309.519	-42.15
309.733	54.1
309.947	-27.82
310.161	-33.96
310.374	-50.35
310.588	45.91
310.802	23.38
311.016	-17.58
311.23	7
311.444	-62.63
311.658	-3.24
311.872	-36.01
312.085	107.35
312.299	0.85
312.513	47.96
312.727	47.96
312.941	-1.19
313.154	43.86
313.368	-56.49
313.582	-11.43
313.796	-19.63
314.009	-7.34
314.223	56.15
314.437	66.39
314.651	-5.29
314.864	13.14
315.078	-17.58
315.292	-29.87
315.505	-27.82
315.719	-58.54
315.933	4.95
316.146	-83.11
316.36	-23.72
316.573	-25.77
316.787	37.72
317.001	-15.53
317.214	-27.82
317.428	-1.19
317.641	29.52
317.855	-7.34
318.068	-64.68
318.282	13.14
318.495	88.92
318.709	-7.34
318.922	-29.87
319.136	127.83
319.349	-3.24
319.563	-1.19
319.776	29.52
319.99	13.14
320.203	-19.63
320.417	-83.11
320.63	4.95
320.843	29.52
321.057	21.33
321.27	17.24
321.483	21.33
321.697	68.44
321.91	31.57
322.124	-36.01
322.337	4.95
322.55	-33.96
322.763	-48.3
322.977	25.43
323.19	-27.82
323.403	-23.72
323.617	64.34
323.83	37.72
324.043	-1.19
324.256	78.68
324.469	-21.67
324.683	62.29
324.896	-3.24
325.109	11.09
325.322	-105.64
325.535	-3.24
325.748	23.38
325.962	70.48
326.175	21.33
326.388	-25.77
326.601	11.09
326.814	-58.54
327.027	7
327.24	-52.39
327.453	-17.58
327.666	-15.53
327.879	45.91
328.092	47.96
328.305	54.1
328.518	-19.63
328.731	-23.72
328.944	7
329.157	-3.24
329.37	23.38
329.583	9.05
329.796	41.81
330.009	-81.07
330.222	13.14
330.435	35.67
330.648	43.86
330.861	0.85
331.073	41.81
331.286	47.96
331.499	-79.02
331.712	33.62
331.925	78.68
332.138	70.48
332.35	70.48
332.563	-9.39
332.776	-56.49
332.989	37.72
333.202	4.95
333.414	58.2
333.627	21.33
333.84	13.14
334.053	47.96
334.265	54.1
334.478	-56.49
334.691	-60.59
334.903	54.1
335.116	64.34
335.329	-33.96
335.541	68.44
335.754	90.96
335.966	86.87
336.179	-25.77
336.392	39.76
336.604	-3.24
336.817	29.52
337.029	62.29
337.242	-50.35
337.454	-11.43
337.667	52.05
337.88	47.96
338.092	54.1
338.305	66.39
338.517	29.52
338.729	43.86
338.942	31.57
339.154	-9.39
339.367	-36.01
339.579	72.53
339.792	4.95
340.004	45.91
340.217	-23.72
340.429	13.14
340.641	-66.73
340.854	-56.49
341.066	-19.63
341.278	31.57
341.491	88.92
341.703	-27.82
341.915	21.33
342.128	72.53
342.34	54.1
342.552	9.05
342.764	9.05
342.977	39.76
343.189	25.43
343.401	74.58
343.613	-27.82
343.826	21.33
344.038	-7.34
344.25	17.24
344.462	29.52
344.674	11.09
344.886	4.95
345.099	37.72
345.311	13.14
345.523	4.95
345.735	-72.87
345.947	47.96
346.159	-23.72
346.371	21.33
346.583	52.05
346.795	84.82
347.007	17.24
347.219	29.52
347.431	-38.06
347.643	27.48
347.855	7
348.067	45.91
348.279	-3.24
348.491	-36.01
348.703	-25.77
348.915	-11.43
349.127	-3.24
349.339	-36.01
349.551	11.09
349.763	4.95
349.975	-17.58
350.187	52.05
350.399	-11.43
350.61	-23.72
350.822	-21.67
351.034	21.33
351.246	-3.24
351.458	41.81
351.669	4.95
351.881	13.14
352.093	2.9
352.305	54.1
352.517	-29.87
352.728	13.14
352.94	-7.34
353.152	29.52
353.363	-74.92
353.575	-7.34
353.787	-11.43
353.999	2.9
354.21	19.29
354.422	7
354.633	-19.63
354.845	31.57
355.057	50
355.268	54.1
355.48	-11.43
355.692	-25.77
355.903	4.95
356.115	-58.54
356.326	-36.01
356.538	4.95
356.749	2.9
356.961	-58.54
357.172	17.24
357.384	-11.43
357.595	62.29
357.807	-1.19
358.018	-17.58
358.23	37.72
358.441	50
358.653	45.91
358.864	7
359.075	-7.34
359.287	35.67
359.498	99.16
359.709	-40.11
359.921	25.43
360.132	13.14
360.344	2.9
360.555	13.14
360.766	45.91
360.977	-7.34
361.189	45.91
361.4	-15.53
361.611	-19.63
361.823	31.57
362.034	29.52
362.245	9.05
362.456	-11.43
362.667	-40.11
362.879	19.29
363.09	-3.24
363.301	-60.59
363.512	7
363.723	21.33
363.935	23.38
364.146	50
364.357	37.72
364.568	29.52
364.779	-42.15
364.99	21.33
365.201	29.52
365.412	103.25
365.623	25.43
365.834	68.44
366.045	-7.34
366.256	68.44
366.467	70.48
366.678	4.95
366.889	-17.58
367.1	-52.39
367.311	27.48
367.522	-50.35
367.733	-1.19
367.944	-42.15
368.155	-44.2
368.366	60.24
368.577	72.53
368.788	45.91
368.999	17.24
369.209	7
369.42	111.44
369.631	136.02
369.842	-72.87
370.053	-44.2
370.264	-3.24
370.474	62.29
370.685	29.52
370.896	-3.24
371.107	68.44
371.317	21.33
371.528	-64.68
371.739	9.05
371.95	-50.35
372.16	62.29
372.371	-1.19
372.582	17.24
372.792	-5.29
373.003	-3.24
373.214	13.14
373.424	-3.24
373.635	-1.19
373.846	0.85
374.056	-15.53
374.267	62.29
374.477	-3.24
374.688	-1.19
374.898	-7.34
375.109	11.09
375.319	15.19
375.53	33.62
375.74	11.09
375.951	45.91
376.161	13.14
376.372	47.96
376.582	31.57
376.793	-25.77
377.003	13.14
377.214	21.33
377.424	9.05
377.635	-74.92
377.845	-38.06
378.055	29.52
378.266	-68.78
378.476	-11.43
378.686	31.57
378.897	-27.82
379.107	37.72
379.317	-9.39
379.528	136.02
379.738	90.96
379.948	-33.96
380.158	-3.24
380.369	19.29
380.579	86.87
380.789	-25.77
380.999	60.24
381.21	9.05
381.42	78.68
381.63	50
381.84	107.35
382.05	37.72
382.261	27.48
382.471	7
382.681	-40.11
382.891	56.15
383.101	-27.82
383.311	70.48
383.521	37.72
383.731	-50.35
383.941	72.53
384.151	-29.87
384.361	82.77
384.571	-3.24
384.781	62.29
384.991	74.58
385.201	88.92
385.411	70.48
385.621	62.29
385.831	13.14
386.041	4.95
386.251	-15.53
386.461	119.64
386.671	62.29
386.881	37.72
387.091	45.91
387.301	43.86
387.511	23.38
387.72	0.85
387.93	27.48
388.14	-42.15
388.35	45.91
388.56	-66.73
388.769	23.38
388.979	45.91
389.189	-9.39
389.399	50
389.609	152.4
389.818	54.1
390.028	64.34
390.238	-5.29
390.447	41.81
390.657	-3.24
390.867	31.57
391.076	23.38
391.286	-52.39
391.496	17.24
391.705	72.53
391.915	86.87
392.125	21.33
392.334	136.02
392.544	45.91
392.753	9.05
392.963	-25.77
393.172	78.68
393.382	4.95
393.591	95.06
393.801	-19.63
394.01	105.3
394.22	-29.87
394.429	97.11
394.639	82.77
394.848	21.33
395.058	68.44
395.267	15.19
395.477	-7.34
395.686	-25.77
395.895	31.57
396.105	45.91
396.314	23.38
396.524	7
396.733	-11.43
396.942	90.96
397.152	56.15
397.361	17.24
397.57	-15.53
397.78	97.11
397.989	86.87
398.198	23.38
398.407	68.44
398.617	54.1
398.826	109.4
399.035	90.96
399.244	39.76
399.453	101.2
399.663	4.95
399.872	52.05
400.081	25.43
400.29	21.33
400.499	78.68
400.708	90.96
400.917	56.15
401.127	-3.24
401.336	62.29
401.545	144.21
401.754	50
401.963	99.16
402.172	39.76
402.381	11.09
402.59	90.96
402.799	82.77
403.008	123.73
403.217	64.34
403.426	64.34
403.635	45.91
403.844	160.59
404.053	84.82
404.262	64.34
404.471	103.25
404.68	80.72
404.888	54.1
405.097	93.01
405.306	70.48
405.515	170.83
405.724	76.63
405.933	142.16
406.142	88.92
406.35	176.98
406.559	140.12
406.768	154.45
406.977	260.95
407.185	138.07
407.394	209.75
407.603	160.59
407.812	156.5
408.02	154.45
408.229	121.68
408.438	164.69
408.646	119.64
408.855	187.22
409.064	156.5
409.272	156.5
409.481	219.99
409.69	195.41
409.898	217.94
410.107	213.84
410.315	193.36
410.524	234.32
410.733	234.32
410.941	279.38
411.15	234.32
411.358	277.33
411.567	316.24
411.775	258.9
411.984	363.34
412.192	357.2
412.401	254.8
412.609	377.68
412.818	400.21
413.026	385.87
413.234	328.53
413.443	480.08
413.651	387.92
413.86	367.44
414.068	432.97
414.276	471.89
414.485	506.7
414.693	580.43
414.901	504.65
415.11	580.43
415.318	523.09
415.526	598.86
415.734	613.2
415.943	586.57
416.151	645.96
416.359	580.43
416.567	627.53
416.776	652.11
416.984	670.54
417.192	787.27
417.4	721.74
417.608	766.79
417.817	811.85
418.025	832.33
418.233	914.25
418.441	861
418.649	1039.17
418.857	965.45
419.065	1045.32
419.273	1117
419.481	1059.65
419.689	1098.56
419.897	1129.28
420.105	1123.14
420.313	1180.48
420.521	1297.22
420.729	1350.46
420.937	1227.59
421.145	1379.14
421.353	1477.44
421.561	1479.49
421.769	1610.56
421.977	1461.06
422.185	1524.54
422.393	1825.59
422.601	1858.36
422.809	1899.32
423.017	1733.43
423.224	1835.83
423.432	1946.42
423.64	1946.42
423.848	2196.28
424.056	2026.29
424.263	2286.39
424.471	2145.08
424.679	2224.95
424.887	2376.5
425.094	2519.85
425.302	2310.96
425.51	2425.65
425.718	2675.5
425.925	2708.27
426.133	2806.57
426.341	2974.5
426.548	3070.76
426.756	3056.42
426.964	3046.18
427.171	3226.4
427.379	3214.12
427.586	3603.23
427.794	3453.73
428.001	3701.53
428.209	3781.4
428.417	3810.08
428.624	3998.49
428.832	4096.79
429.039	3822.36
429.247	4000.54
429.454	4383.51
429.662	4743.95
429.869	4403.99
430.076	4887.31
430.284	4469.52
430.491	4741.9
430.699	5122.82
430.906	5073.67
431.114	5110.54
431.321	5243.65
431.528	5415.68
431.736	5841.66
431.943	6093.56
432.15	5683.97
432.358	6019.83
432.565	6218.49
432.772	6241.01
432.979	6566.64
433.187	6574.83
433.394	6693.62
433.601	7234.28
433.808	7156.46
434.016	7242.47
434.223	7514.85
434.43	7983.84
434.637	7699.17
434.844	8110.81
435.052	8428.24
435.259	8192.73
435.466	8311.51
435.673	8331.99
435.88	8872.65
436.087	9331.4
436.294	9292.49
436.501	9210.57
436.708	9384.65
436.915	9513.67
437.122	9974.46
437.329	10009.28
437.537	10343.1
437.743	10367.67
437.95	10326.71
438.157	10787.5
438.364	11248.3
438.571	11264.68
438.778	11184.81
438.985	12354.2
439.192	11963.04
439.399	12212.89
439.606	11973.28
439.813	12622.48
440.02	13400.71
440.227	13322.89
440.433	13091.47
440.64	13347.47
440.847	13355.66
441.054	13742.72
441.261	14617.21
441.467	14250.62
441.674	14805.62
441.881	15168.11
442.088	15266.41
442.294	15143.53
442.501	15301.23
442.708	15766.12
442.914	16370.27
443.121	17039.95
443.328	16699.99
443.534	17824.33
443.741	17257.04
443.948	16962.13
444.154	18207.3
444.361	18217.54
444.568	18383.42
444.774	18422.33
444.981	18397.76
445.187	18897.46
445.394	19567.15
445.6	19718.7
445.807	21291.54
446.013	20619.8
446.22	20689.43
446.426	21611.02
446.633	21733.9
446.839	22596.09
447.046	21651.98
447.252	22831.61
447.459	22751.74
447.665	22708.73
447.871	23724.52
448.078	24654.3
448.284	23734.76
448.491	24654.3
448.697	25143.77
448.903	25719.24
449.11	26026.44
449.316	25344.47
449.522	25971.15
449.728	26872.25
449.935	27183.54
450.141	26804.67
450.347	27271.61
450.553	26882.49
450.76	26915.26
450.966	28000.68
451.172	27271.61
451.378	28432.8
451.584	27863.47
451.791	28408.23
451.997	28551.59
452.203	28555.68
452.409	28909.98
452.615	28422.56
452.821	27376.05
453.027	27201.97
453.233	29108.63
453.44	28012.97
453.646	27894.19
453.852	27924.91
454.058	28764.57
454.264	27558.32
454.47	28711.33
454.676	27771.31
454.882	28643.74
455.088	26221
455.294	26583.49
455.5	27107.77
455.705	27253.17
455.911	26141.13
456.117	25305.56
456.323	25596.37
456.529	24232.42
456.735	25356.75
456.941	24340.96
457.147	24332.77
457.352	23509.49
457.558	23103.99
457.764	23372.27
457.97	22528.51
458.176	22407.68
458.381	22075.91
458.587	21223.95
458.793	21160.47
458.999	20101.67
459.204	21527.05
459.41	20918.81
459.616	19599.91
459.821	19821.09
460.027	19380.78
460.233	19092.02
460.438	18256.45
460.644	18467.39
460.85	17498.7
461.055	17250.89
461.261	17203.79
461.466	16101.98
461.672	15415.91
461.878	16710.23
462.083	15620.71
462.289	15000.18
462.494	15188.59
462.7	14434.94
462.905	13996.67
463.111	14486.14
463.316	14217.85
463.522	14389.88
463.727	14267
463.932	14488.18
464.138	14185.08
464.343	14267
464.549	13746.82
464.754	14209.66
464.959	13894.27
465.165	13814.4
465.37	13380.23
465.575	12999.31
465.781	13613.7
465.986	13507.21
466.191	13306.51
466.397	13001.36
466.602	12259.99
466.807	12814.99
467.012	12599.96
467.218	12630.68
467.423	12585.62
467.628	12397.21
467.833	12864.15
468.038	12544.66
468.244	12239.51
468.449	12659.35
468.654	12188.32
468.859	12065.44
469.064	12141.21
469.269	11657.89
469.474	11735.71
469.679	12145.31
469.885	11840.16
470.09	11885.22
470.295	11760.29
470.5	11303.59
470.705	11645.6
470.91	11557.54
471.115	11221.67
471.32	11498.15
471.525	11328.17
471.73	11145.9
471.935	10873.52
472.139	10687.15
472.344	10998.45
472.549	10664.63
472.754	10457.78
472.959	10465.97
473.164	10162.87
473.369	10097.34
473.574	10439.35
473.778	10320.57
473.983	10341.05
474.188	10226.36
474.393	9640.64
474.598	9784
474.802	9747.14
475.007	9648.83
475.212	9575.11
475.417	9147.08
475.621	9421.51
475.826	9220.81
476.031	9188.04
476.235	8829.65
476.44	9102.03
476.645	8803.02
476.849	8891.09
477.054	8788.69
477.259	8708.82
477.463	8526.55
477.668	8270.55
477.872	8473.3
478.077	8418
478.282	8270.55
478.486	8106.71
478.691	8153.82
478.895	8098.52
479.1	8010.46
479.304	7955.16
479.509	7713.5
479.713	7836.38
479.918	7598.82
480.122	7668.45
480.326	7863.01
480.531	7885.53
480.735	7484.13
480.94	7439.08
481.144	7983.84
481.348	7324.39
481.553	7543.52
481.757	7398.12
481.961	7518.95
482.166	7394.02
482.37	7342.82
482.574	7217.9
482.778	7367.4
482.983	7525.09
483.187	7459.56
483.391	7385.83
483.595	7381.73
483.8	7291.62
484.004	7461.6
484.208	7543.52
484.412	7365.35
484.616	7453.41
484.821	7486.18
485.025	7248.61
485.229	7375.59
485.433	7410.4
485.637	7391.97
485.841	7287.53
486.045	7344.87
486.249	7320.29
486.453	7394.02
486.657	7426.79
486.861	7336.68
487.065	7092.97
487.269	7377.64
487.473	7031.53
487.677	7291.62
487.881	7475.94
488.085	7426.79
488.289	7469.8
488.493	7389.92
488.697	7598.82
488.901	7420.64
489.105	7430.88
489.309	7396.07
489.512	7496.42
489.716	7494.37
489.92	7461.6
490.124	7527.14
490.328	7564
490.531	7477.99
490.735	7424.74
490.939	7674.59
491.143	7588.58
491.346	7570.15
491.55	7709.41
491.754	7645.92
491.958	7781.09
492.161	7756.51
492.365	7623.39
492.569	7617.25
492.772	7668.45
492.976	7856.86
493.18	7770.85
493.383	8016.6
493.587	7928.54
493.79	8139.48
493.994	7846.62
494.197	7963.36
494.401	8344.28
494.605	8237.78
494.808	8258.26
495.012	8282.84
495.215	8469.2
495.419	8571.6
495.622	8501.97
495.825	8600.27
496.029	8565.46
496.232	8674
496.436	8637.14
496.639	8886.99
496.843	8968.91
497.046	8942.28
497.249	9216.71
497.453	9171.66
497.656	9208.52
497.859	9239.24
498.063	9321.16
498.266	9646.79
498.469	9482.95
498.673	9585.35
498.876	9757.38
499.079	9839.3
499.282	9888.45
499.485	10017.47
499.689	10230.46
499.892	10244.79
500.095	10361.53
500.298	10732.21
500.501	10379.96
500.705	10695.35
500.908	10842.8
501.111	10896.05
501.314	10984.11
501.517	11094.7
501.72	11479.72
501.923	11084.46
502.126	11563.68
502.329	11586.21
502.532	11676.32
502.735	12030.62
502.938	12069.53
503.141	11907.74
503.344	12317.34
503.547	12137.12
503.75	12579.48
503.953	12919.44
504.156	12735.12
504.359	12954.26
504.562	13128.33
504.765	13359.75
504.968	13458.06
505.17	13433.48
505.373	13539.97
505.576	13843.07
505.779	13998.72
505.982	14242.43
506.185	14101.12
506.387	14160.51
506.59	14355.07
506.793	14629.49
506.996	14785.14
507.198	15436.39
507.401	15112.81
507.604	15225.45
507.807	15372.91
508.009	15592.04
508.212	15665.77
508.415	15870.56
508.617	16151.13
508.82	16028.26
509.022	16036.45
509.225	16673.37
509.428	16697.94
509.63	16912.98
509.833	17068.62
510.035	17441.36
510.238	17289.81
510.44	17558.09
510.643	17701.45
510.845	17693.26
511.048	17838.66
511.25	18059.84
511.453	18223.68
511.655	18770.49
511.858	18577.98
512.06	18690.62
512.262	18995.76
512.465	19151.41
512.667	19221.04
512.87	19632.68
513.072	19577.39
513.274	20083.23
513.477	20099.62
513.679	20359.71
513.881	20308.51
514.084	20736.54
514.286	20861.46
514.488	21051.92
514.69	21557.77
514.893	21369.36
515.095	21676.55
515.297	21737.99
515.499	21809.67
515.701	22372.86
515.904	22499.84
516.106	22649.34
516.308	22866.42
516.51	23519.73
516.712	22708.73
516.914	23353.84
517.116	23661.04
517.318	23855.59
517.52	23953.9
517.722	24150.5
517.925	24320.48
518.127	24842.71
518.329	24738.27
518.531	24383.97
518.733	25000.41
518.935	25235.92
519.136	25197.01
519.338	25485.78
519.54	25844.17
519.742	26159.56
519.944	26386.88
520.146	26515.9
520.348	26802.62
520.55	26552.77
520.752	26841.53
520.954	27498.93
521.155	27365.81
521.357	27916.72
521.559	27867.56
521.761	28574.11
521.963	28006.83
522.164	28492.19
522.366	28699.04
522.568	28905.88
522.77	29024.67
522.971	29444.5
523.173	28952.99
523.375	29303.19
523.576	29598.1
523.778	29493.65
523.98	30396.81
524.181	30308.74
524.383	29931.92
524.584	30523.78
524.786	30847.36
524.988	30613.89
525.189	30947.71
525.391	31093.11
525.592	31132.03
525.794	31115.64
525.995	31480.18
526.197	31437.17
526.398	31469.94
526.6	31732.08
526.801	32033.13
527.003	32084.33
527.204	31979.89
527.406	32291.18
527.607	32254.31
527.808	32686.43
528.01	31992.17
528.211	32520.55
528.412	33050.97
528.614	32825.7
528.815	33007.97
529.016	33427.8
529.218	32590.18
529.419	33007.97
529.62	33253.72
529.822	32967.01
530.023	33458.52
530.224	33284.44
530.425	33243.48
530.626	32887.14
530.828	33022.3
531.029	33984.85
531.23	33483.09
531.431	33667.41
531.632	33694.04
531.833	33632.6
532.035	33659.22
532.236	33558.87
532.437	33837.39
532.638	33778
532.839	34193.74
533.04	33876.3
533.241	33530.2
533.442	34341.19
533.643	33861.97
533.844	33855.82
534.045	33972.56
534.246	34087.25
534.447	34265.42
534.648	33839.44
534.849	33882.45
535.05	33892.69
535.251	34036.05
535.451	34070.86
535.652	34246.99
535.853	34365.77
536.054	34132.3
536.255	33882.45
536.456	33659.22
536.657	34443.59
536.857	33898.83
537.058	33950.03
537.259	34214.22
537.46	34070.86
537.66	33978.7
537.861	34085.2
538.062	33993.04
538.263	34283.85
538.463	34005.33
538.664	33939.79
538.865	34181.45
539.065	34222.41
539.266	33761.62
539.466	34005.33
539.667	33864.02
539.868	34212.17
540.068	33802.58
540.269	33634.64
540.469	34181.45
540.67	33976.65
540.87	33952.08
541.071	34013.52
541.271	34412.87
541.472	33683.8
541.672	33653.08
541.873	33892.69
542.073	33925.46
542.274	34466.12
542.474	33878.35
542.675	33540.44
542.875	33696.08
543.075	33761.62
543.276	33618.26
543.476	33929.55
543.676	33716.56
543.877	33831.25
544.077	33728.85
544.277	33382.74
544.478	33874.26
544.678	34042.19
544.878	33632.6
545.078	34195.79
545.279	33759.57
545.479	33612.12
545.679	34040.14
545.879	33778
546.079	33296.73
546.28	33800.53
546.48	33274.2
546.68	33775.95
546.88	33864.02
547.08	33581.4
547.28	33444.18
547.48	33253.72
547.68	33716.56
547.88	33356.12
548.081	33706.32
548.281	33499.48
548.481	33274.2
548.681	33429.85
548.881	33233.24
549.081	33642.84
549.28	33683.8
549.48	33870.16
549.68	33388.89
549.88	33511.77
550.08	33216.86
550.28	33513.81
550.48	33251.67
550.68	33522.01
550.88	33642.84
551.08	33579.35
551.279	33575.25
551.479	33116.51
551.679	33288.54
551.879	33231.19
552.079	33608.02
552.278	33376.6
552.478	33534.29
552.678	33300.83
552.878	33597.78
553.077	33509.72
553.277	32946.53
553.477	33634.64
553.676	33100.12
553.876	33294.68
554.076	32737.63
554.275	32956.77
554.475	32729.44
554.674	33018.21
554.874	32872.8
555.074	33036.64
555.273	33053.02
555.473	32952.67
555.672	32880.99
555.872	32801.12
556.071	32797.02
556.271	33241.43
556.47	32829.79
556.67	32319.85
556.869	32745.83
557.068	32713.06
557.268	32627.04
557.467	32807.26
557.667	32561.51
557.866	32788.83
558.065	32371.05
558.265	32420.2
558.464	32229.74
558.663	32711.01
558.863	32051.56
559.062	32520.55
559.261	32205.16
559.461	32225.64
559.66	31975.79
559.859	32168.3
560.058	31936.88
560.258	31871.34
560.457	31865.2
560.656	32203.11
560.855	32172.39
561.054	31883.63
561.253	31654.26
561.453	31967.6
561.652	31711.6
561.851	32010.6
562.05	31627.63
562.249	31474.04
562.448	31996.27
562.647	31457.65
562.846	31519.09
563.045	31476.09
563.244	31220.09
563.443	31476.09
563.642	31140.22
563.841	31465.85
564.04	30925.18
564.239	31320.44
564.438	31117.69
564.637	31039.87
564.836	31035.77
565.035	30357.89
565.234	31056.25
565.432	30611.84
565.631	30419.33
565.83	30493.06
566.029	30548.36
566.228	30482.82
566.427	30491.01
566.625	30423.43
566.824	30392.71
567.023	30431.62
567.222	29884.81
567.42	30374.28
567.619	29901.2
567.818	30093.71
568.016	30048.65
568.215	30300.55
568.414	29866.38
568.612	30163.34
568.811	29495.7
569.01	29897.1
569.208	29325.72
569.407	29690.26
569.605	29045.15
569.804	29602.19
570.002	29305.24
570.201	29360.53
570.4	29182.36
570.598	29333.91
570.797	28727.71
570.995	29030.81
571.193	28367.27
571.392	28817.82
571.59	28750.24
571.789	28465.57
571.987	28426.66
572.186	28582.31
572.384	28619.17
572.582	28516.77
572.781	28713.38
572.979	28080.55
573.177	28514.72
573.376	28309.93
573.574	28164.52
573.772	28185
573.971	27738.54
574.169	27599.28
574.367	27466.16
574.565	28010.92
574.763	27939.24
574.962	27904.43
575.16	27103.67
575.358	27312.56
575.556	27236.79
575.754	27400.63
575.952	27390.39
576.151	27529.65
576.349	27236.79
576.547	27109.82
576.745	26874.3
576.943	27079.1
577.141	26802.62
577.339	26720.7
577.537	26819
577.735	26782.14
577.933	26558.91
578.131	26657.21
578.329	26423.75
578.527	26499.52
578.725	26319.3
578.923	26427.84
579.121	26300.87
579.319	26206.66
579.516	26194.37
579.714	26098.12
579.912	26141.13
580.11	25907.66
580.308	25893.32
580.506	26053.06
580.704	25465.3
580.901	25934.28
581.099	25821.64
581.297	25491.92
581.495	25659.85
581.692	25508.3
581.89	25280.98
582.088	25455.06
582.285	25215.44
582.483	25258.45
582.681	25240.02
582.878	25135.57
583.076	25096.66
583.274	24725.98
583.471	24834.52
583.669	25035.22
583.866	24234.47
584.064	24912.35
584.262	24236.52
584.459	24977.88
584.657	24619.49
584.854	24822.23
585.052	24121.83
585.249	24134.12
585.447	24320.48
585.644	23986.66
585.841	23998.95
586.039	24197.6
586.236	23966.18
586.434	23859.69
586.631	23495.15
586.828	23591.41
587.026	23654.89
587.223	23589.36
587.42	23599.6
587.618	23769.58
587.815	23765.48
588.012	23323.12
588.21	23273.97
588.407	23581.17
588.604	22860.28
588.801	22729.21
588.999	23163.38
589.196	22839.8
589.393	23024.12
589.59	22956.54
589.787	22626.81
589.984	22678.01
590.182	22559.23
590.379	22680.06
590.576	22548.99
590.773	22508.03
590.97	22223.36
591.167	22501.89
591.364	22524.41
591.561	22305.28
591.758	22059.52
591.955	22086.15
592.152	22034.95
592.349	21860.87
592.546	21971.46
592.743	21965.32
592.94	21451.28
593.137	21832.2
593.334	21627.4
593.531	21492.24
593.727	21576.2
593.924	21553.68
594.121	21412.37
594.318	21348.88
594.515	21064.21
594.712	21281.3
594.908	21094.93
595.105	21051.92
595.302	21221.91
595.499	20840.98
595.696	20996.63
595.892	20580.89
596.089	21033.49
596.286	20771.35
596.482	20902.42
596.679	20582.94
596.876	20795.93
597.072	20314.66
597.269	20476.44
597.466	20032.04
597.662	20187.68
597.859	20234.78
598.055	20328.99
598.252	19982.88
598.448	20148.77
598.645	19925.54
598.841	19851.81
599.038	19978.79
599.234	19960.36
599.431	19792.42
599.627	19452.46
599.824	19841.57
600.02	19546.67
600.217	19747.37
600.413	19231.28
600.609	19198.51
600.806	19335.73
601.002	19429.93
601.198	18960.95
601.395	19018.29
601.591	19024.44
601.787	19085.87
601.984	18803.25
602.18	19149.36
602.376	19014.2
602.572	18823.73
602.769	18870.84
602.965	18530.87
603.161	18743.86
603.357	18559.55
603.553	18510.39
603.75	18547.26
603.946	18360.89
604.142	18281.02
604.338	18174.53
604.534	18340.41
604.73	18076.23
604.926	18053.7
605.122	18401.85
605.318	17777.22
605.514	18135.62
605.71	17828.42
605.906	17777.22
606.102	17916.48
606.298	17779.27
606.494	17758.79
606.69	17973.83
606.886	17750.6
607.082	17486.41
607.278	17484.36
607.474	17271.37
607.67	17510.99
607.866	17271.37
608.062	17795.65
608.257	17259.09
608.453	17119.82
608.649	17298
608.845	17271.37
609.041	17113.68
609.236	17214.03
609.432	17044.05
609.628	17093.2
609.824	17070.67
610.019	16743
610.215	16996.95
610.411	17175.12
610.606	17109.58
610.802	16720.47
610.998	16765.53
611.193	16818.77
611.389	16888.4
611.584	16595.54
611.78	16751.19
611.976	16659.03
612.171	16667.22
612.367	16824.92
612.562	16462.43
612.758	16357.98
612.953	16325.21
613.149	16693.85
613.344	16183.9
613.539	16386.65
613.735	16609.88
613.93	16505.43
614.126	16015.97
614.321	16568.92
614.517	16323.16
614.712	16317.02
614.907	16200.29
615.103	16120.42
615.298	15968.87
615.493	16208.48
615.688	15843.94
615.884	16175.71
616.079	15962.72
616.274	15833.7
616.47	15880.8
616.665	15888.99
616.86	15874.66
617.055	15700.58
617.25	15663.72
617.445	15891.04
617.641	15694.44
617.836	15952.48
618.031	15266.41
618.226	15606.38
618.421	15536.74
618.616	15594.09
618.811	15254.12
619.006	15573.61
619.201	15121.01
619.396	15266.41
619.591	15037.04
619.786	15286.89
619.981	14914.16
620.176	15112.81
620.371	14762.61
620.566	14877.3
620.761	14680.69
620.956	14918.26
621.151	14529.14
621.346	14590.58
621.541	14490.23
621.735	14406.27
621.93	14168.7
622.125	14312.06
622.32	13990.53
622.515	14170.75
622.709	14045.82
622.904	14047.87
623.099	14176.89
623.294	14072.45
623.488	13935.23
623.683	13791.87
623.878	13466.25
624.072	13415.05
624.267	13464.2
624.462	13460.1
624.656	13331.08
624.851	13435.53
625.046	13224.59
625.24	13163.15
625.435	13003.41
625.629	12903.06
625.824	13003.41
626.018	12948.11
626.213	12604.05
626.407	12841.62
626.602	12565.14
626.796	12591.77
626.991	12636.82
627.185	12483.22
627.38	12413.59
627.574	12501.65
627.768	12077.73
627.963	12210.84
628.157	12104.35
628.352	12118.68
628.546	11965.09
628.74	12147.36
628.935	11801.25
629.129	11795.11
629.323	11684.52
629.517	11498.15
629.712	11641.51
629.906	11504.29
630.1	11258.54
630.294	11416.23
630.489	11225.77
630.683	11371.18
630.877	11154.09
631.071	11047.6
631.265	11100.84
631.459	11133.61
631.653	10953.39
631.848	10996.4
632.042	10861.23
632.236	10853.04
632.43	10818.22
632.624	10810.03
632.818	10730.16
633.012	10609.33
633.206	10533.56
633.4	10562.23
633.594	10425.01
633.788	10468.02
633.982	10154.68
634.176	10320.57
634.369	10150.59
634.563	10123.96
634.757	10195.64
634.951	10164.92
635.145	10222.27
635.339	10050.24
635.533	9976.51
635.726	10070.72
635.92	9861.82
636.114	9824.96
636.308	9794.24
636.501	9706.18
636.695	9749.18
636.889	9491.14
637.083	9544.39
637.276	9489.09
637.47	9564.87
637.664	9458.37
637.857	9276.1
638.051	9159.37
638.244	9482.95
638.438	9360.07
638.632	9364.17
638.825	9065.16
639.019	9038.54
639.212	8893.13
639.406	9130.7
639.599	8747.73
639.793	8835.79
639.986	8717.01
640.18	8733.39
640.373	8696.53
640.567	8622.8
640.76	8737.49
640.954	8411.86
641.147	8753.87
641.34	8551.12
641.534	8479.44
641.727	8432.34
641.92	8301.27
642.114	8188.63
642.307	8319.7
642.5	8213.21
642.694	8000.22
642.887	8286.93
643.08	8082.14
643.273	8141.53
643.467	7959.26
643.66	7746.27
643.853	7932.64
644.046	7844.57
644.239	7912.16
644.432	7627.49
644.626	7754.46
644.819	7824.09
645.012	7836.38
645.205	7621.35
645.398	7584.48
645.591	7498.47
645.784	7611.11
645.977	7492.32
646.17	7434.98
646.363	7439.08
646.556	7246.57
646.749	7465.7
646.942	7361.25
647.135	7404.26
647.328	7045.87
647.521	7041.77
647.714	6988.52
647.907	7066.35
648.099	6929.13
648.292	7183.08
648.485	7074.54
648.678	6877.93
648.871	6877.93
649.064	6886.12
649.256	6935.28
649.449	6712.05
649.642	6736.62
649.835	6601.46
650.027	6697.71
650.22	6521.59
650.413	6497.01
650.605	6533.87
650.798	6533.87
650.991	6372.08
651.183	6468.34
651.376	6361.84
651.568	6351.6
651.761	6312.69
651.954	6296.31
652.146	6392.56
652.339	6134.52
652.531	6365.94
652.724	6245.11
652.916	6140.66
653.109	6095.61
653.301	6019.83
653.494	5985.02
653.686	6007.55
653.879	5976.83
654.071	5749.5
654.263	5772.03
654.456	5993.21
654.648	5821.18
654.84	5817.08
655.033	5755.65
655.225	5913.34
655.417	5757.69
655.61	5726.97
655.802	5665.53
655.994	5536.51
656.186	5606.14
656.379	5536.51
656.571	5477.12
656.763	5608.19
656.955	5438.21
657.148	5493.51
657.34	5444.35
657.532	5432.07
657.724	5473.03
657.916	5354.24
658.108	5354.24
658.3	5257.99
658.492	5235.46
658.684	5221.13
658.876	5178.12
659.068	5145.35
659.26	5063.43
659.452	5157.64
659.644	5194.5
659.836	5100.3
660.028	4954.89
660.22	5014.28
660.412	4979.47
660.604	5040.9
660.796	4909.83
660.988	5010.18
661.18	4897.55
661.372	4729.61
661.563	4852.49
661.755	4756.24
661.947	4854.54
662.139	4727.57
662.331	4694.8
662.522	4739.85
662.714	4733.71
662.906	4666.13
663.097	4717.33
663.289	4733.71
663.481	4512.53
663.673	4498.19
663.864	4451.09
664.056	4473.62
664.247	4487.95
664.439	4406.03
664.631	4510.48
664.822	4518.67
665.014	4358.93
665.205	4322.07
665.397	4244.24
665.588	4307.73
665.78	4201.24
665.971	4297.49
666.163	4291.35
666.354	4156.18
666.546	4240.15
666.737	4145.94
666.929	4242.2
667.12	4139.8
667.311	4147.99
667.503	4211.48
667.694	4115.22
667.885	4084.5
668.077	4191
668.268	3986.2
668.459	3994.39
668.651	3859.23
668.842	3912.47
669.033	4029.21
669.224	4037.4
669.416	4008.73
669.607	3988.25
669.798	3834.65
669.989	3824.41
670.18	3902.23
670.371	3930.91
670.563	3791.64
670.754	4004.63
670.945	3789.6
671.136	3805.98
671.327	3693.34
671.518	3679.01
671.709	3836.7
671.9	3855.13
672.091	3738.4
672.282	3666.72
672.473	3552.03
672.664	3537.7
672.855	3744.54
673.046	3732.25
673.237	3578.65
673.428	3601.18
673.619	3535.65
673.809	3625.76
674	3461.92
674.191	3652.38
674.382	3527.46
674.573	3380
674.764	3531.55
674.954	3545.89
675.145	3513.12
675.336	3398.43
675.527	3347.23
675.717	3601.18
675.908	3306.27
676.099	3341.09
676.289	3365.67
676.48	3345.19
676.671	3402.53
676.861	3298.08
677.052	3404.58
677.243	3207.97
677.433	3472.16
677.624	3326.75
677.814	3259.17
678.005	3220.26
678.195	3248.93
678.386	3230.5
678.576	3187.49
678.767	3250.98
678.957	3363.62
679.148	3263.27
679.338	3175.2
679.529	3117.86
679.719	3142.44
679.909	3298.08
680.1	3210.02
680.29	3201.83
680.481	3154.73
680.671	3070.76
680.861	3117.86
681.052	3158.82
681.242	3201.83
681.432	3285.8
681.622	3085.09
681.813	3011.37
682.003	3119.91
682.193	3074.85
682.383	3072.81
682.573	2980.65
682.764	3005.22
682.954	3029.8
683.144	3117.86
683.334	3035.94
683.524	3052.33
683.714	3007.27
683.904	2943.78
684.094	2954.02
684.284	3027.75
684.474	2833.19
684.664	2994.98
684.854	2970.41
685.044	2966.31
685.234	2923.3
685.424	2913.06
685.614	2851.63
685.804	2847.53
685.994	2886.44
686.184	2937.64
686.374	2872.11
686.564	2794.28
686.753	2835.24
686.943	2724.65
687.133	2798.38
687.323	2800.43
687.513	2814.76
687.702	2863.91
687.892	2720.56
688.082	2757.42
688.272	2868.01
688.461	2714.41
688.651	2679.6
688.841	2757.42
689.03	2601.77
689.22	2661.16
689.41	2677.55
689.599	2650.92
689.789	2630.45
689.979	2577.2
690.168	2663.21
690.358	2626.35
690.547	2439.98
690.737	2638.64
690.926	2544.43
691.116	2532.14
691.305	2505.52
691.495	2407.22
691.684	2489.14
691.874	2456.37
692.063	2401.07
692.252	2503.47
692.442	2577.2
692.631	2485.04
692.82	2497.33
693.01	2339.63
693.199	2411.31
693.388	2331.44
693.578	2458.42
693.767	2298.67
693.956	2362.16
694.146	2388.78
694.335	2378.55
694.524	2282.29
694.713	2358.07
694.902	2368.31
695.092	2353.97
695.281	2286.39
695.47	2347.83
695.659	2196.28
695.848	2110.26
696.037	2388.78
696.226	2214.71
696.415	2171.7
696.604	2294.58
696.793	2294.58
696.982	2224.95
697.171	2241.33
697.36	2167.6
697.549	2104.12
697.738	2155.32
697.927	2157.36
698.116	2220.85
698.305	2220.85
698.494	2241.33
698.683	2143.03
698.872	2204.47
699.061	2079.54
699.25	2089.78
699.438	2169.65
699.627	2175.8
699.816	2208.56
700.005	2110.26
700.193	2153.27
700.382	2134.84
700.571	2085.69
700.76	2048.82
700.948	2085.69
701.137	2114.36
701.326	2081.59
701.514	2075.45
701.703	2063.16
701.892	2040.63
702.08	2001.72
702.269	2122.55
702.457	2069.3
702.646	2097.97
702.834	1997.62
703.023	2063.16
703.212	2069.3
703.4	2161.46
703.589	2040.63
703.777	1938.23
703.965	2038.58
704.154	2120.5
704.342	2020.15
704.531	1958.71
704.719	1977.14
704.907	1919.8
705.096	2044.73
705.284	1858.36
705.472	1971
705.661	1991.48
705.849	2069.3
706.037	1958.71
706.226	2028.34
706.414	1981.24
706.602	1921.85
706.79	2163.51
706.979	2052.92
707.167	1971
707.355	2028.34
707.543	2022.2
707.731	1971
707.919	2061.11
708.107	2081.59
708.296	1989.43
708.484	1991.48
708.672	1962.81
708.86	1979.19
709.048	1913.66
709.236	1964.86
709.424	1950.52
709.612	2048.82
709.8	1891.13
709.988	1887.03
710.176	1889.08
710.364	1884.98
710.551	1872.7
710.739	1979.19
710.927	1907.51
711.115	2118.45
711.303	1962.81
711.491	1921.85
711.679	1932.09
711.866	1925.94
712.054	2136.88
712.242	1983.29
712.43	1950.52
712.617	2028.34
712.805	2001.72
712.993	2032.44
713.181	1958.71
713.368	2028.34
713.556	1940.28
713.744	2007.86
713.931	2036.53
714.119	2022.2
714.306	2005.81
714.494	1999.67
714.682	1930.04
714.869	1987.38
715.057	2016.05
715.244	1995.57
715.432	1930.04
715.619	1993.53
715.807	1921.85
715.994	2009.91
716.182	1952.57
716.369	1921.85
716.556	2061.11
716.744	1991.48
716.931	1874.74
717.119	1958.71
717.306	1893.18
717.493	1899.32
717.681	1956.66
717.868	1907.51
718.055	1952.57
718.242	2020.15
718.43	1878.84
718.617	1880.89
718.804	1901.37
718.991	1983.29
719.179	1889.08
719.366	2044.73
719.553	1966.9
719.74	1819.45
719.927	2050.87
720.114	2069.3
720.301	1981.24
720.488	1821.5
720.676	1964.86
720.863	2028.34
721.05	2052.92
721.237	1940.28
721.424	1942.33
721.611	1981.24
721.798	1923.9
721.985	2085.69
722.172	2001.72
722.358	1921.85
722.545	1921.85
722.732	1884.98
722.919	1880.89
723.106	1962.81
723.293	2061.11
723.48	1993.53
723.667	1889.08
723.853	1868.6
724.04	1880.89
724.227	1930.04
724.414	2007.86
724.6	1925.94
724.787	1893.18
724.974	2024.25
725.161	2022.2
725.347	1917.75
725.534	1946.42
725.72	2009.91
725.907	1958.71
726.094	1981.24
726.28	2016.05
726.467	1932.09
726.653	1979.19
726.84	1950.52
727.027	1925.94
727.213	1829.69
727.4	1919.8
727.586	2003.77
727.773	1971
727.959	1987.38
728.145	1884.98
728.332	1936.18
728.518	1917.75
728.705	1938.23
728.891	1956.66
729.077	2011.96
729.264	2016.05
729.45	1876.79
729.636	2102.07
729.823	1948.47
730.009	1958.71
730.195	2005.81
730.382	1997.62
730.568	1977.14
730.754	1962.81
730.94	2040.63
731.126	1856.31
731.313	1946.42
731.499	2030.39
731.685	1930.04
731.871	1891.13
732.057	1829.69
732.243	1938.23
732.429	1942.33
732.615	1968.95
732.801	1995.57
732.987	2005.81
733.173	1893.18
733.359	1925.94
733.545	1858.36
733.731	1807.16
733.917	1979.19
734.103	1966.9
734.289	1860.41
734.475	1901.37
734.661	1981.24
734.847	1905.46
735.033	1948.47
735.219	2011.96
735.404	1934.14
735.59	1905.46
735.776	1817.4
735.962	1954.62
736.148	1889.08
736.333	1987.38
736.519	1882.94
736.705	1944.38
736.89	1848.12
737.076	1940.28
737.262	1817.4
737.447	1876.79
737.633	1823.55
737.819	1971
738.004	1794.87
738.19	1930.04
738.375	1899.32
738.561	1872.7
738.747	1725.24
738.932	1850.17
739.118	1991.48
739.303	1866.55
739.489	1946.42
739.674	1803.07
739.859	1850.17
740.045	1909.56
740.23	1864.5
740.416	1782.59
740.601	1760.06
740.786	1850.17
740.972	1655.61
741.157	1825.59
741.342	1807.16
741.528	1715
741.713	1719.1
741.898	1844.03
742.084	1823.55
742.269	1678.14
742.454	1776.44
742.639	1770.3
742.824	1694.52
743.01	1758.01
743.195	1831.74
743.38	1760.06
743.565	1766.2
743.75	1782.59
743.935	1620.8
744.12	1727.29
744.305	1669.95
744.49	1612.6
744.675	1667.9
744.86	1647.42
745.045	1751.87
745.23	1631.04
745.415	1684.28
745.6	1661.76
745.785	1684.28
745.97	1749.82
746.155	1647.42
746.34	1590.08
746.525	1553.21
746.71	1635.13
746.895	1536.83
747.079	1516.35
747.264	1631.04
747.449	1532.73
747.634	1590.08
747.819	1588.03
748.003	1581.89
748.188	1497.92
748.373	1598.27
748.557	1512.25
748.742	1477.44
748.927	1499.97
749.111	1528.64
749.296	1456.96
749.481	1471.29
749.665	1471.29
749.85	1512.25
750.034	1418.05
750.219	1467.2
750.404	1389.38
750.588	1329.99
750.773	1416
750.957	1325.89
751.141	1395.52
751.326	1372.99
751.51	1315.65
751.695	1389.38
751.879	1258.31
752.064	1358.66
752.248	1258.31
752.432	1368.9
752.617	1299.27
752.801	1258.31
752.985	1241.92
753.17	1366.85
753.354	1403.71
753.538	1213.25
753.722	1334.08
753.907	1266.5
754.091	1260.35
754.275	1241.92
754.459	1258.31
754.643	1264.45
754.828	1248.07
755.012	1276.74
755.196	1143.62
755.38	1260.35
755.564	1235.78
755.748	1233.73
755.932	1192.77
756.116	1176.39
756.3	1143.62
756.484	1194.82
756.668	1069.89
756.852	1119.04
757.036	1200.96
757.22	1110.85
757.404	1067.85
757.588	1121.09
757.772	1055.56
757.956	1102.66
758.14	1088.32
758.323	996.17
758.507	1102.66
758.691	1035.08
758.875	1069.89
759.059	1102.66
759.242	1119.04
759.426	1082.18
759.61	940.87
759.794	998.21
759.977	1086.28
760.161	981.83
760.345	1088.32
760.528	975.69
760.712	938.82
760.895	1006.41
761.079	1080.13
761.263	916.3
761.446	920.39
761.63	953.16
761.813	973.64
761.997	922.44
762.18	932.68
762.364	996.17
762.547	908.1
762.731	1000.26
762.914	908.1
763.098	781.13
763.281	926.54
763.464	967.49
763.648	934.73
763.831	910.15
764.015	899.91
764.198	942.92
764.381	932.68
764.564	861
764.748	1024.84
764.931	920.39
765.114	844.62
765.297	836.42
765.481	820.04
765.664	840.52
765.847	887.62
766.03	973.64
766.213	895.82
766.397	815.94
766.58	785.23
766.763	836.42
766.946	901.96
767.129	807.75
767.312	850.76
767.495	850.76
767.678	785.23
767.861	899.91
768.044	785.23
768.227	906.06
768.41	762.7
768.593	899.91
768.776	815.94
768.959	799.56
769.142	815.94
769.324	852.81
769.507	815.94
769.69	828.23
769.873	809.8
770.056	895.82
770.239	811.85
770.421	815.94
770.604	791.37
770.787	777.03
770.97	774.99
771.152	705.35
771.335	715.59
771.518	770.89
771.7	807.75
771.883	822.09
772.066	725.83
772.248	766.79
772.431	834.38
772.613	701.26
772.796	699.21
772.978	717.64
773.161	793.42
773.343	770.89
773.526	748.36
773.708	729.93
773.891	705.35
774.073	734.03
774.256	629.58
774.438	701.26
774.621	521.04
774.803	654.16
774.985	645.96
775.168	701.26
775.35	600.91
775.532	717.64
775.715	668.49
775.897	641.87
776.079	645.96
776.261	619.34
776.444	600.91
776.626	693.07
776.808	619.34
776.99	662.35
777.173	594.76
777.355	596.81
777.537	600.91
777.719	627.53
777.901	652.11
778.083	629.58
778.265	602.96
778.447	539.47
778.629	570.19
778.811	490.32
778.993	531.28
779.175	523.09
779.357	611.15
779.539	551.76
779.721	578.38
779.903	613.2
780.085	467.79
780.267	480.08
780.449	586.57
780.631	570.19
780.812	529.23
780.994	619.34
781.176	492.37
781.358	455.5
781.54	471.89
781.721	508.75
781.903	455.5
782.085	518.99
782.267	473.93
782.448	533.33
782.63	426.83
782.812	455.5
782.993	447.31
783.175	414.54
783.357	418.64
783.538	514.89
783.72	406.35
783.901	533.33
784.083	439.12
784.264	422.73
784.446	457.55
784.627	365.39
784.809	471.89
784.99	523.09
785.172	443.21
785.353	449.36
785.535	373.58
785.716	291.66
785.897	377.68
786.079	467.79
786.26	439.12
786.441	383.82
786.623	385.87
786.804	377.68
786.985	465.74
787.167	377.68
787.348	373.58
787.529	336.72
787.71	394.06
787.891	381.78
788.073	357.2
788.254	383.82
788.435	344.91
788.616	439.12
788.797	332.62
788.978	412.5
789.159	316.24
789.34	349.01
789.522	349.01
789.703	338.77
789.884	258.9
790.065	334.67
790.246	385.87
790.427	439.12
790.607	355.15
790.788	357.2
790.969	322.38
791.15	365.39
791.331	324.43
791.512	334.67
791.693	308.05
791.874	308.05
792.054	328.53
792.235	291.66
792.416	183.12
792.597	338.77
792.778	349.01
792.958	258.9
793.139	287.57
793.32	342.86
793.5	238.42
793.681	349.01
793.862	254.8
794.042	303.95
794.223	209.75
794.404	267.09
794.584	318.29
794.765	205.65
794.945	279.38
795.126	144.21
795.306	209.75
795.487	271.19
795.667	252.75
795.848	279.38
796.028	283.47
796.209	340.82
796.389	226.13
796.57	267.09
796.75	267.09
796.93	238.42
797.111	172.88
797.291	246.61
797.471	226.13
797.652	262.99
797.832	179.03
798.012	168.79
798.192	238.42
798.373	179.03
798.553	258.9
798.733	303.95
798.913	205.65
799.093	150.36
799.274	256.85
799.454	234.32
799.634	271.19
799.814	168.79
799.994	148.31
800.174	232.27
800.354	160.59
800.534	181.07
800.714	222.03
800.894	103.25
801.074	164.69
801.254	160.59
801.434	164.69
801.614	205.65
801.794	193.36
801.974	877.38
802.154	176.98
802.334	217.94
802.514	156.5
802.693	156.5
802.873	148.31
803.053	119.64
803.233	236.37
803.413	181.07
803.592	103.25
803.772	125.78
803.952	152.4
804.131	93.01
804.311	197.46
804.491	195.41
804.67	158.55
804.85	136.02
805.03	140.12
805.209	226.13
805.389	95.06
805.568	138.07
805.748	201.55
805.928	156.5
806.107	179.03
806.287	160.59
806.466	150.36
806.646	144.21
806.825	187.22
807.004	164.69
807.184	148.31
807.363	172.88
807.543	152.4
807.722	97.11
807.901	158.55
808.081	146.26
808.26	86.87
808.439	179.03
808.619	215.89
808.798	136.02
808.977	168.79
809.156	168.79
809.336	152.4
809.515	197.46
809.694	101.2
809.873	158.55
810.052	154.45
810.231	70.48
810.411	164.69
810.59	193.36
810.769	107.35
810.948	181.07
811.127	99.16
811.306	133.97
811.485	93.01
811.664	242.51
811.843	131.92
812.022	209.75
812.201	136.02
812.38	136.02
812.559	86.87
812.737	211.79
812.916	62.29
813.095	78.68
813.274	160.59
813.453	119.64
813.632	131.92
813.811	170.83
813.989	111.44
814.168	78.68
814.347	60.24
814.526	99.16
814.704	117.59
814.883	93.01
815.062	119.64
815.24	136.02
815.419	136.02
815.598	185.17
815.776	50
815.955	84.82
816.133	80.72
816.312	86.87
816.49	47.96
816.669	129.88
816.847	127.83
817.026	90.96
817.204	119.64
817.383	131.92
817.561	58.2
817.74	140.12
817.918	121.68
818.097	78.68
818.275	80.72
818.453	136.02
818.632	62.29
818.81	72.53
818.988	33.62
819.167	119.64
819.345	72.53
819.523	101.2
819.701	56.15
819.879	101.2
820.058	97.11
820.236	117.59
820.414	47.96
820.592	70.48
820.77	95.06
820.948	80.72
821.127	33.62
821.305	72.53
821.483	76.63
821.661	111.44
821.839	105.3
822.017	103.25
822.195	21.33
822.373	86.87
822.551	111.44
822.729	86.87
822.907	54.1
823.085	136.02
823.262	54.1
823.44	13.14
823.618	45.91
823.796	45.91
823.974	64.34
824.152	29.52
824.329	54.1
824.507	56.15
824.685	103.25
824.863	47.96
825.04	23.38
825.218	113.49
825.396	78.68
825.574	45.91
825.751	25.43
825.929	95.06
826.107	31.57
826.284	115.54
826.462	64.34
826.639	41.81
826.817	37.72
826.994	76.63
827.172	56.15
827.349	109.4
827.527	105.3
827.704	174.93
827.882	62.29
828.059	33.62
828.237	90.96
828.414	103.25
828.591	-19.63
828.769	-11.43
828.946	37.72
829.124	111.44
829.301	39.76
829.478	29.52
829.655	45.91
829.833	88.92
830.01	76.63
830.187	56.15
830.364	37.72
830.542	129.88
830.719	111.44
830.896	78.68
831.073	37.72
831.25	62.29
831.427	29.52
831.604	70.48
831.782	21.33
831.959	25.43
832.136	62.29
832.313	78.68
832.49	80.72
832.667	17.24
832.844	33.62
833.021	54.1
833.198	-23.72
833.374	66.39
833.551	37.72
833.728	17.24
833.905	25.43
834.082	15.19
834.259	88.92
834.436	56.15
834.612	21.33
834.789	111.44
834.966	74.58
835.143	17.24
835.319	-25.77
835.496	58.2
835.673	56.15
835.85	82.77
836.026	41.81
836.203	-11.43
836.38	15.19
836.556	58.2
836.733	7
836.909	60.24
837.086	23.38
837.262	-19.63
837.439	58.2
837.616	-15.53
837.792	56.15
837.968	-19.63
838.145	-44.2
838.321	43.86
838.498	64.34
838.674	45.91
838.851	23.38
839.027	86.87
839.203	-23.72
839.38	72.53
839.556	17.24
839.732	21.33
839.909	13.14
840.085	37.72
840.261	-23.72
840.437	27.48
840.614	-29.87
840.79	0.85
840.966	13.14
841.142	86.87
841.318	-7.34
841.494	88.92
841.671	54.1
841.847	-46.25
842.023	21.33
842.199	62.29
842.375	52.05
842.551	-9.39
842.727	-87.21
842.903	56.15
843.079	17.24
843.255	-9.39
843.431	-44.2
843.607	41.81
843.783	72.53
843.959	47.96
844.134	-7.34
844.31	80.72
844.486	39.76
844.662	-44.2
844.838	13.14
845.013	31.57
845.189	41.81
845.365	37.72
845.541	95.06
845.716	-52.39
845.892	80.72
846.068	-27.82
846.244	13.14
846.419	-33.96
846.595	-52.39
846.77	-11.43
846.946	37.72
847.122	31.57
847.297	-85.16
847.473	21.33
847.648	-33.96
847.824	-15.53
847.999	-25.77
848.175	17.24
848.35	25.43
848.526	4.95
848.701	62.29
848.876	33.62
849.052	68.44
849.227	15.19
849.403	43.86
849.578	-54.44
849.753	41.81
849.929	-9.39
850.104	80.72
850.279	50
850.454	-38.06
850.63	45.91
850.805	-17.58
850.98	4.95
851.155	25.43
851.33	45.91
851.505	-52.39
851.681	58.2
851.856	-19.63
852.031	50
852.206	-42.15
852.381	-7.34
852.556	70.48
852.731	-66.73
852.906	-40.11
853.081	72.53
853.256	0.85
853.431	25.43
853.606	15.19
853.781	-40.11
853.956	-46.25
854.131	29.52
854.305	-31.91
854.48	13.14
854.655	66.39
854.83	-17.58
855.005	-17.58
855.18	0.85
855.354	-15.53
855.529	31.57
855.704	-58.54
855.879	-44.2
856.053	-42.15
856.228	56.15
856.403	-36.01
856.577	-31.91
856.752	56.15
856.926	-27.82
857.101	11.09
857.276	29.52
857.45	-9.39
857.625	-3.24
857.799	-5.29
857.974	-3.24
858.148	-42.15
858.323	-17.58
858.497	-56.49
858.672	9.05
858.846	-27.82
859.02	74.58
859.195	-3.24
859.369	-7.34
859.543	-74.92
859.718	-11.43
859.892	21.33
860.066	17.24
860.241	7
860.415	-9.39
860.589	0.85
860.763	-46.25
860.938	-44.2
861.112	-15.53
861.286	-33.96
861.46	-1.19
861.634	-19.63
861.808	47.96
861.982	-15.53
862.157	-5.29
862.331	-27.82
862.505	-21.67
862.679	-15.53
862.853	-40.11
863.027	-74.92
863.201	78.68
863.375	-19.63
863.549	39.76
863.722	70.48
863.896	-23.72
864.07	4.95
864.244	-3.24
864.418	9.05
864.592	9.05
864.766	-36.01
864.939	0.85
865.113	-13.48
865.287	37.72
865.461	-107.69
865.634	9.05
865.808	-9.39
865.982	31.57
866.156	-15.53
866.329	-56.49
866.503	-31.91
866.676	50
866.85	21.33
867.024	-19.63
867.197	72.53
867.371	19.29
867.544	45.91
867.718	-58.54
867.891	13.14
868.065	-56.49
868.238	-11.43
868.412	54.1
868.585	17.24
868.759	31.57
868.932	17.24
869.105	-48.3
869.279	13.14
869.452	-58.54
869.625	39.76
869.799	-66.73
869.972	-27.82
870.145	-11.43
870.319	-19.63
870.492	-21.67
870.665	-15.53
870.838	-48.3
871.011	-74.92
871.185	-68.78
871.358	-3.24
871.531	-5.29
871.704	-48.3
871.877	45.91
872.05	-38.06
872.223	-58.54
872.396	50
872.569	-19.63
872.742	-5.29
872.915	-27.82
873.088	0.85
873.261	-40.11
873.434	-31.91
873.607	-13.48
873.78	-15.53
873.953	-62.63
874.126	-21.67
874.299	4.95
874.471	-50.35
874.644	-3.24
874.817	-19.63
874.99	17.24
875.163	-68.78
875.335	105.3
875.508	13.14
875.681	9.05
875.853	-48.3
876.026	-42.15
876.199	7
876.371	-19.63
876.544	25.43
876.717	56.15
876.889	0.85
877.062	-36.01
877.234	-93.35
877.407	-40.11
877.579	-33.96
877.752	-9.39
877.924	-40.11
878.097	-11.43
878.269	-13.48
878.442	-31.91
878.614	-87.21
878.786	-1.19
878.959	37.72
879.131	9.05
879.303	-1.19
879.476	-50.35
879.648	56.15
879.82	4.95
879.993	-101.55
880.165	0.85
880.337	-60.59
880.509	-19.63
880.681	-25.77
880.854	-33.96
881.026	-3.24
881.198	-27.82
881.37	-42.15
881.542	-52.39
881.714	70.48
881.886	37.72
882.058	-33.96
882.23	-76.97
882.402	78.68
882.574	-21.67
882.746	-25.77
882.918	-64.68
883.09	-91.31
883.262	-60.59
883.434	-54.44
883.606	-87.21
883.778	-27.82
883.95	45.91
884.122	-29.87
884.293	11.09
884.465	-19.63
884.637	7
884.809	0.85
884.98	-44.2
885.152	-19.63
885.324	-36.01
885.496	-60.59
885.667	78.68
885.839	-9.39
886.011	-9.39
886.182	45.91
886.354	4.95
886.525	-31.91
886.697	4.95
886.869	-27.82
887.04	-9.39
887.212	-42.15
887.383	21.33
887.555	0.85
887.726	25.43
887.897	45.91
888.069	-13.48
888.24	-99.5
888.412	-60.59
888.583	37.72
888.754	45.91
888.926	-56.49
889.097	-68.78
889.268	-17.58
889.44	-11.43
889.611	-76.97
889.782	-66.73
889.953	-21.67
890.125	109.4
890.296	-38.06
890.467	-83.11
890.638	15.19
890.809	21.33
890.98	-7.34
891.151	-9.39
891.323	88.92
891.494	-27.82
891.665	-81.07
891.836	19.29
892.007	-23.72
892.178	-52.39
892.349	-40.11
892.52	-15.53
892.691	-1.19
892.862	-44.2
893.032	-93.35
893.203	-48.3
893.374	-52.39
893.545	-13.48
893.716	-76.97
893.887	-33.96
894.057	-17.58
894.228	43.86
894.399	-93.35
894.57	-50.35
894.74	7
894.911	27.48
895.082	-27.82
895.253	-19.63
895.423	-1.19
895.594	4.95
895.764	-48.3
895.935	-46.25
896.106	27.48
896.276	-93.35
896.447	-7.34
896.617	-42.15
896.788	-89.26
896.958	-33.96
897.129	-101.55
897.299	-36.01
897.47	4.95
897.64	-17.58
897.81	-52.39
897.981	-85.16
898.151	-56.49
898.322	-33.96
898.492	-19.63
898.662	-103.59
898.832	-46.25
899.003	4.95
899.173	11.09
899.343	-83.11
899.513	-74.92
