Data from USB4F104151__214__14-45-27-888.txt Node

Date: Thu Mar 13 14:45:27 EDT 2025
User: louis
Spectrometer: USB4F10415
Trigger mode: 4
Integration Time (sec): 2.000000E-2
Scans to average: 1
Electric dark correction enabled: true
Nonlinearity correction enabled: false
Boxcar width: 0
XAxis mode: Wavelengths
Number of Pixels in Spectrum: 3648
>>>>>Begin Spectral Data<<<<<
178.204	-31.74
178.424	-31.74
178.644	-31.74
178.864	-117.76
179.084	-68.61
179.304	-7.17
179.524	41.98
179.744	-39.94
179.964	52.22
180.184	11.26
180.404	1.02
180.624	-11.26
180.844	19.46
181.064	-11.26
181.283	5.12
181.503	-33.79
181.723	-27.65
181.943	44.03
182.163	95.23
182.383	74.75
182.602	25.6
182.822	29.7
183.042	80.89
183.262	-66.56
183.482	58.37
183.701	1.02
183.921	-64.51
184.141	-7.17
184.361	80.89
184.58	109.57
184.8	27.65
185.02	46.08
185.239	60.42
185.459	50.18
185.679	62.46
185.898	-7.17
186.118	68.61
186.338	62.46
186.557	27.65
186.777	19.46
186.997	29.7
187.216	52.22
187.436	-23.55
187.655	-7.17
187.875	125.95
188.095	68.61
188.314	109.57
188.534	48.13
188.753	87.04
188.973	132.09
189.192	33.79
189.412	109.57
189.631	35.84
189.851	35.84
190.07	62.46
190.29	5.12
190.509	66.56
190.729	13.31
190.948	46.08
191.168	168.96
191.387	91.13
191.607	-11.26
191.826	125.95
192.045	91.13
192.265	50.18
192.484	41.98
192.704	33.79
192.923	50.18
193.142	95.23
193.362	41.98
193.581	54.27
193.8	109.57
194.02	115.71
194.239	1.02
194.458	56.32
194.678	37.89
194.897	35.84
195.116	74.75
195.335	17.41
195.555	41.98
195.774	101.37
195.993	62.46
196.212	29.7
196.432	21.5
196.651	54.27
196.87	5.12
197.089	134.14
197.308	50.18
197.528	115.71
197.747	21.5
197.966	46.08
198.185	107.52
198.404	64.51
198.623	64.51
198.842	11.26
199.062	109.57
199.281	13.31
199.5	68.61
199.719	58.37
199.938	1.02
200.157	130.05
200.376	84.99
200.595	44.03
200.814	64.51
201.033	121.85
201.252	97.28
201.471	58.37
201.69	76.8
201.909	103.42
202.128	70.65
202.347	78.85
202.566	46.08
202.785	46.08
203.004	-31.74
203.223	78.85
203.442	87.04
203.661	89.09
203.879	78.85
204.098	58.37
204.317	25.6
204.536	33.79
204.755	50.18
204.974	-35.84
205.193	119.81
205.411	46.08
205.63	-7.17
205.849	41.98
206.068	58.37
206.287	37.89
206.505	132.09
206.724	93.18
206.943	80.89
207.162	50.18
207.381	23.55
207.599	50.18
207.818	11.26
208.037	9.22
208.255	121.85
208.474	17.41
208.693	58.37
208.911	60.42
209.13	82.94
209.349	76.8
209.567	50.18
209.786	82.94
210.005	27.65
210.223	125.95
210.442	15.36
210.661	52.22
210.879	21.5
211.098	58.37
211.316	93.18
211.535	93.18
211.753	74.75
211.972	91.13
212.191	33.79
212.409	37.89
212.628	39.94
212.846	44.03
213.065	62.46
213.283	132.09
213.502	68.61
213.72	9.22
213.938	54.27
214.157	58.37
214.375	35.84
214.594	84.99
214.812	74.75
215.031	-7.17
215.249	39.94
215.467	-17.41
215.686	35.84
215.904	123.9
216.122	46.08
216.341	60.42
216.559	11.26
216.778	119.81
216.996	44.03
217.214	-41.98
217.432	50.18
217.651	-27.65
217.869	64.51
218.087	80.89
218.306	37.89
218.524	54.27
218.742	1.02
218.96	52.22
219.179	109.57
219.397	50.18
219.615	99.33
219.833	3.07
220.051	50.18
220.27	44.03
220.488	66.56
220.706	93.18
220.924	37.89
221.142	91.13
221.36	101.37
221.578	68.61
221.796	-5.12
222.015	84.99
222.233	70.65
222.451	132.09
222.669	-15.36
222.887	82.94
223.105	17.41
223.323	-7.17
223.541	50.18
223.759	29.7
223.977	44.03
224.195	117.76
224.413	119.81
224.631	41.98
224.849	35.84
225.067	95.23
225.285	-37.89
225.503	25.6
225.721	-31.74
225.939	9.22
226.157	19.46
226.375	125.95
226.592	-7.17
226.81	25.6
227.028	107.52
227.246	140.29
227.464	46.08
227.682	119.81
227.9	41.98
228.117	74.75
228.335	1.02
228.553	76.8
228.771	3.07
228.989	109.57
229.206	35.84
229.424	68.61
229.642	74.75
229.86	41.98
230.077	17.41
230.295	9.22
230.513	21.5
230.731	84.99
230.948	17.41
231.166	29.7
231.384	35.84
231.601	11.26
231.819	95.23
232.037	74.75
232.254	25.6
232.472	54.27
232.689	-7.17
232.907	33.79
233.125	93.18
233.342	11.26
233.56	82.94
233.777	60.42
233.995	37.89
234.213	113.66
234.43	41.98
234.648	89.09
234.865	46.08
235.083	68.61
235.3	35.84
235.518	84.99
235.735	107.52
235.953	54.27
236.17	95.23
236.388	5.12
236.605	33.79
236.822	48.13
237.04	76.8
237.257	76.8
237.475	33.79
237.692	29.7
237.909	9.22
238.127	136.19
238.344	138.24
238.562	74.75
238.779	62.46
238.996	-23.55
239.214	33.79
239.431	91.13
239.648	107.52
239.865	39.94
240.083	17.41
240.3	70.65
240.517	35.84
240.735	91.13
240.952	123.9
241.169	68.61
241.386	74.75
241.603	78.85
241.821	80.89
242.038	17.41
242.255	-7.17
242.472	70.65
242.689	-46.08
242.907	37.89
243.124	35.84
243.341	58.37
243.558	27.65
243.775	62.46
243.992	21.5
244.209	46.08
244.426	78.85
244.643	44.03
244.86	19.46
245.078	37.89
245.295	17.41
245.512	84.99
245.729	44.03
245.946	52.22
246.163	58.37
246.38	95.23
246.597	74.75
246.814	46.08
247.031	29.7
247.248	58.37
247.464	99.33
247.681	-23.55
247.898	33.79
248.115	58.37
248.332	21.5
248.549	82.94
248.766	111.61
248.983	76.8
249.2	33.79
249.417	41.98
249.633	52.22
249.85	44.03
250.067	-3.07
250.284	41.98
250.501	21.5
250.717	56.32
250.934	13.31
251.151	50.18
251.368	11.26
251.585	37.89
251.801	91.13
252.018	60.42
252.235	111.61
252.451	-23.55
252.668	44.03
252.885	41.98
253.102	78.85
253.318	-13.31
253.535	1.02
253.752	37.89
253.968	105.47
254.185	29.7
254.401	107.52
254.618	115.71
254.835	23.55
255.051	37.89
255.268	62.46
255.484	66.56
255.701	52.22
255.917	39.94
256.134	7.17
256.351	58.37
256.567	50.18
256.784	60.42
257	27.65
257.217	19.46
257.433	-13.31
257.65	93.18
257.866	9.22
258.082	82.94
258.299	66.56
258.515	46.08
258.732	35.84
258.948	-39.94
259.165	41.98
259.381	87.04
259.597	76.8
259.814	37.89
260.03	78.85
260.246	9.22
260.463	-7.17
260.679	76.8
260.895	87.04
261.112	25.6
261.328	19.46
261.544	80.89
261.761	119.81
261.977	91.13
262.193	99.33
262.409	128
262.626	82.94
262.842	70.65
263.058	21.5
263.274	136.19
263.49	70.65
263.707	99.33
263.923	41.98
264.139	-13.31
264.355	58.37
264.571	66.56
264.787	46.08
265.004	62.46
265.22	21.5
265.436	82.94
265.652	62.46
265.868	119.81
266.084	103.42
266.3	11.26
266.516	37.89
266.732	74.75
266.948	11.26
267.164	168.96
267.38	52.22
267.596	64.51
267.812	144.38
268.028	91.13
268.244	-33.79
268.46	99.33
268.676	62.46
268.892	58.37
269.108	9.22
269.324	1.02
269.54	89.09
269.756	91.13
269.972	29.7
270.188	78.85
270.403	117.76
270.619	21.5
270.835	78.85
271.051	25.6
271.267	17.41
271.483	82.94
271.698	44.03
271.914	93.18
272.13	37.89
272.346	82.94
272.562	109.57
272.777	105.47
272.993	17.41
273.209	76.8
273.425	105.47
273.64	54.27
273.856	103.42
274.072	74.75
274.287	-1.02
274.503	144.38
274.719	99.33
274.934	27.65
275.15	-23.55
275.366	27.65
275.581	52.22
275.797	74.75
276.012	37.89
276.228	132.09
276.444	132.09
276.659	25.6
276.875	37.89
277.09	107.52
277.306	72.7
277.521	76.8
277.737	78.85
277.952	68.61
278.168	41.98
278.383	52.22
278.599	-19.46
278.814	29.7
279.03	-5.12
279.245	76.8
279.461	68.61
279.676	25.6
279.892	52.22
280.107	29.7
280.322	60.42
280.538	103.42
280.753	44.03
280.969	74.75
281.184	97.28
281.399	84.99
281.615	33.79
281.83	41.98
282.045	15.36
282.26	58.37
282.476	25.6
282.691	62.46
282.906	-15.36
283.122	27.65
283.337	35.84
283.552	33.79
283.767	-13.31
283.983	64.51
284.198	-27.65
284.413	66.56
284.628	66.56
284.843	21.5
285.058	25.6
285.274	1.02
285.489	46.08
285.704	58.37
285.919	37.89
286.134	-13.31
286.349	66.56
286.564	132.09
286.779	95.23
286.995	99.33
287.21	58.37
287.425	101.37
287.64	-54.27
287.855	107.52
288.07	1.02
288.285	35.84
288.5	117.76
288.715	107.52
288.93	33.79
289.145	33.79
289.36	5.12
289.575	17.41
289.79	84.99
290.004	11.26
290.219	80.89
290.434	99.33
290.649	130.05
290.864	66.56
291.079	66.56
291.294	93.18
291.509	68.61
291.724	13.31
291.938	33.79
292.153	70.65
292.368	50.18
292.583	74.75
292.798	99.33
293.012	82.94
293.227	37.89
293.442	13.31
293.657	60.42
293.871	39.94
294.086	21.5
294.301	48.13
294.516	76.8
294.73	64.51
294.945	50.18
295.16	-35.84
295.374	52.22
295.589	113.66
295.804	11.26
296.018	21.5
296.233	60.42
296.447	41.98
296.662	123.9
296.877	109.57
297.091	54.27
297.306	82.94
297.52	-27.65
297.735	58.37
297.949	82.94
298.164	35.84
298.378	1.02
298.593	35.84
298.807	64.51
299.022	72.7
299.236	9.22
299.451	60.42
299.665	-37.89
299.88	44.03
300.094	46.08
300.309	74.75
300.523	46.08
300.737	35.84
300.952	-31.74
301.166	82.94
301.381	62.46
301.595	52.22
301.809	56.32
302.024	76.8
302.238	68.61
302.452	107.52
302.667	15.36
302.881	70.65
303.095	56.32
303.309	56.32
303.524	33.79
303.738	84.99
303.952	23.55
304.166	109.57
304.381	46.08
304.595	78.85
304.809	58.37
305.023	152.57
305.237	66.56
305.452	-7.17
305.666	60.42
305.88	25.6
306.094	62.46
306.308	99.33
306.522	54.27
306.736	60.42
306.95	117.76
307.164	99.33
307.379	74.75
307.593	60.42
307.807	33.79
308.021	95.23
308.235	146.43
308.449	27.65
308.663	103.42
308.877	128
309.091	117.76
309.305	35.84
309.519	58.37
309.733	44.03
309.947	1.02
310.161	35.84
310.374	58.37
310.588	105.47
310.802	41.98
311.016	52.22
311.23	111.61
311.444	74.75
311.658	52.22
311.872	109.57
312.085	109.57
312.299	99.33
312.513	52.22
312.727	66.56
312.941	7.17
313.154	109.57
313.368	-5.12
313.582	-64.51
313.796	21.5
314.009	9.22
314.223	78.85
314.437	68.61
314.651	21.5
314.864	19.46
315.078	35.84
315.292	-27.65
315.505	25.6
315.719	115.71
315.933	74.75
316.146	13.31
316.36	-15.36
316.573	119.81
316.787	66.56
317.001	35.84
317.214	44.03
317.428	82.94
317.641	70.65
317.855	60.42
318.068	91.13
318.282	58.37
318.495	82.94
318.709	87.04
318.922	95.23
319.136	95.23
319.349	62.46
319.563	117.76
319.776	52.22
319.99	58.37
320.203	54.27
320.417	84.99
320.63	19.46
320.843	62.46
321.057	-11.26
321.27	-3.07
321.483	13.31
321.697	5.12
321.91	41.98
322.124	99.33
322.337	1.02
322.55	17.41
322.763	60.42
322.977	60.42
323.19	95.23
323.403	97.28
323.617	115.71
323.83	29.7
324.043	21.5
324.256	82.94
324.469	35.84
324.683	84.99
324.896	41.98
325.109	35.84
325.322	25.6
325.535	41.98
325.748	111.61
325.962	-9.22
326.175	50.18
326.388	91.13
326.601	74.75
326.814	9.22
327.027	60.42
327.24	76.8
327.453	-39.94
327.666	132.09
327.879	25.6
328.092	68.61
328.305	13.31
328.518	-1.02
328.731	41.98
328.944	66.56
329.157	7.17
329.37	95.23
329.583	101.37
329.796	91.13
330.009	-3.07
330.222	33.79
330.435	-3.07
330.648	56.32
330.861	140.29
331.073	76.8
331.286	19.46
331.499	66.56
331.712	37.89
331.925	107.52
332.138	130.05
332.35	82.94
332.563	107.52
332.776	89.09
332.989	7.17
333.202	25.6
333.414	15.36
333.627	134.14
333.84	7.17
334.053	52.22
334.265	64.51
334.478	-17.41
334.691	146.43
334.903	52.22
335.116	19.46
335.329	62.46
335.541	58.37
335.754	115.71
335.966	64.51
336.179	44.03
336.392	136.19
336.604	35.84
336.817	54.27
337.029	82.94
337.242	33.79
337.454	66.56
337.667	44.03
337.88	72.7
338.092	41.98
338.305	136.19
338.517	41.98
338.729	84.99
338.942	29.7
339.154	46.08
339.367	-48.13
339.579	140.29
339.792	41.98
340.004	115.71
340.217	111.61
340.429	68.61
340.641	48.13
340.854	37.89
341.066	50.18
341.278	99.33
341.491	76.8
341.703	54.27
341.915	-7.17
342.128	132.09
342.34	111.61
342.552	66.56
342.764	-31.74
342.977	1.02
343.189	68.61
343.401	37.89
343.613	17.41
343.826	37.89
344.038	44.03
344.25	-3.07
344.462	123.9
344.674	54.27
344.886	113.66
345.099	105.47
345.311	62.46
345.523	132.09
345.735	58.37
345.947	33.79
346.159	107.52
346.371	74.75
346.583	89.09
346.795	66.56
347.007	-54.27
347.219	60.42
347.431	123.9
347.643	70.65
347.855	50.18
348.067	99.33
348.279	-7.17
348.491	9.22
348.703	48.13
348.915	91.13
349.127	25.6
349.339	-11.26
349.551	58.37
349.763	58.37
349.975	89.09
350.187	74.75
350.399	115.71
350.61	68.61
350.822	25.6
351.034	58.37
351.246	164.86
351.458	84.99
351.669	91.13
351.881	-7.17
352.093	101.37
352.305	160.77
352.517	52.22
352.728	115.71
352.94	52.22
353.152	58.37
353.363	-15.36
353.575	117.76
353.787	99.33
353.999	91.13
354.21	46.08
354.422	70.65
354.633	-19.46
354.845	-11.26
355.057	23.55
355.268	56.32
355.48	105.47
355.692	58.37
355.903	68.61
356.115	19.46
356.326	35.84
356.538	101.37
356.749	54.27
356.961	66.56
357.172	54.27
357.384	76.8
357.595	60.42
357.807	60.42
358.018	17.41
358.23	39.94
358.441	84.99
358.653	105.47
358.864	78.85
359.075	52.22
359.287	54.27
359.498	107.52
359.709	41.98
359.921	84.99
360.132	74.75
360.344	52.22
360.555	35.84
360.766	82.94
360.977	66.56
361.189	95.23
361.4	44.03
361.611	76.8
361.823	68.61
362.034	68.61
362.245	62.46
362.456	78.85
362.667	35.84
362.879	62.46
363.09	27.65
363.301	146.43
363.512	68.61
363.723	68.61
363.935	99.33
364.146	68.61
364.357	111.61
364.568	91.13
364.779	11.26
364.99	46.08
365.201	-13.31
365.412	58.37
365.623	29.7
365.834	150.53
366.045	76.8
366.256	66.56
366.467	121.85
366.678	11.26
366.889	76.8
367.1	44.03
367.311	50.18
367.522	74.75
367.733	1.02
367.944	93.18
368.155	66.56
368.366	56.32
368.577	56.32
368.788	101.37
368.999	27.65
369.209	91.13
369.42	148.48
369.631	74.75
369.842	58.37
370.053	31.74
370.264	25.6
370.474	74.75
370.685	97.28
370.896	50.18
371.107	5.12
371.317	29.7
371.528	82.94
371.739	41.98
371.95	115.71
372.16	76.8
372.371	54.27
372.582	70.65
372.792	72.7
373.003	134.14
373.214	103.42
373.424	82.94
373.635	64.51
373.846	136.19
374.056	56.32
374.267	41.98
374.477	41.98
374.688	62.46
374.898	119.81
375.109	58.37
375.319	54.27
375.53	62.46
375.74	156.67
375.951	99.33
376.161	66.56
376.372	50.18
376.582	78.85
376.793	80.89
377.003	-17.41
377.214	84.99
377.424	64.51
377.635	37.89
377.845	9.22
378.055	95.23
378.266	-31.74
378.476	140.29
378.686	68.61
378.897	62.46
379.107	107.52
379.317	70.65
379.528	9.22
379.738	125.95
379.948	46.08
380.158	99.33
380.369	25.6
380.579	74.75
380.789	74.75
380.999	44.03
381.21	95.23
381.42	140.29
381.63	-11.26
381.84	91.13
382.05	78.85
382.261	74.75
382.471	111.61
382.681	74.75
382.891	66.56
383.101	-3.07
383.311	19.46
383.521	41.98
383.731	41.98
383.941	25.6
384.151	39.94
384.361	74.75
384.571	134.14
384.781	9.22
384.991	76.8
385.201	74.75
385.411	107.52
385.621	128
385.831	58.37
386.041	150.53
386.251	25.6
386.461	171.01
386.671	138.24
386.881	76.8
387.091	-11.26
387.301	74.75
387.511	158.72
387.72	91.13
387.93	123.9
388.14	9.22
388.35	52.22
388.56	105.47
388.769	80.89
388.979	164.86
389.189	58.37
389.399	19.46
389.609	150.53
389.818	54.27
390.028	35.84
390.238	80.89
390.447	101.37
390.657	109.57
390.867	50.18
391.076	44.03
391.286	62.46
391.496	123.9
391.705	87.04
391.915	189.44
392.125	58.37
392.334	58.37
392.544	97.28
392.753	-13.31
392.963	80.89
393.172	74.75
393.382	33.79
393.591	76.8
393.801	140.29
394.01	91.13
394.22	125.95
394.429	99.33
394.639	117.76
394.848	84.99
395.058	82.94
395.267	91.13
395.477	101.37
395.686	123.9
395.895	95.23
396.105	107.52
396.314	78.85
396.524	66.56
396.733	91.13
396.942	78.85
397.152	164.86
397.361	132.09
397.57	76.8
397.78	101.37
397.989	132.09
398.198	171.01
398.407	103.42
398.617	46.08
398.826	62.46
399.035	89.09
399.244	168.96
399.453	164.86
399.663	125.95
399.872	173.05
400.081	146.43
400.29	166.91
400.499	78.85
400.708	136.19
400.917	82.94
401.127	89.09
401.336	136.19
401.545	70.65
401.754	123.9
401.963	123.9
402.172	134.14
402.381	50.18
402.59	134.14
402.799	146.43
403.008	82.94
403.217	132.09
403.426	119.81
403.635	84.99
403.844	191.49
404.053	95.23
404.262	87.04
404.471	125.95
404.68	148.48
404.888	136.19
405.097	191.49
405.306	207.87
405.515	128
405.724	209.92
405.933	95.23
406.142	156.67
406.35	156.67
406.559	150.53
406.768	181.25
406.977	222.2
407.185	177.15
407.394	244.73
407.603	84.99
407.812	177.15
408.02	269.31
408.229	279.55
408.438	224.25
408.646	248.83
408.855	295.93
409.064	222.2
409.272	269.31
409.481	207.87
409.69	261.12
409.898	240.64
410.107	207.87
410.315	361.47
410.524	216.06
410.733	218.11
410.941	355.32
411.15	347.13
411.358	345.08
411.567	295.93
411.775	379.9
411.984	345.08
412.192	347.13
412.401	377.85
412.609	416.76
412.818	433.15
413.026	455.67
413.234	467.96
413.443	439.29
413.651	510.97
413.86	508.92
414.068	492.54
414.276	613.37
414.485	517.11
414.693	599.03
414.901	639.99
415.11	566.26
415.318	623.61
415.526	662.52
415.734	642.04
415.943	670.71
416.151	656.37
416.359	668.66
416.567	648.18
416.776	746.48
416.984	793.59
417.192	842.74
417.4	742.39
417.608	895.99
417.817	865.27
418.025	959.47
418.233	1018.86
418.441	947.19
418.649	1076.21
418.857	1043.44
419.065	1078.26
419.273	1051.63
419.481	1180.65
419.689	1145.84
419.897	1281
420.105	1278.96
420.313	1274.86
420.521	1299.44
420.729	1336.3
420.937	1395.69
421.145	1453.03
421.353	1483.75
421.561	1549.29
421.769	1631.21
421.977	1651.69
422.185	1631.21
422.393	1745.89
422.601	1805.28
422.809	1833.96
423.017	1766.37
423.224	2059.23
423.432	2081.76
423.64	2036.7
423.848	2188.25
424.056	2212.83
424.263	2356.19
424.471	2288.61
424.679	2425.82
424.887	2458.59
425.094	2540.51
425.302	2624.47
425.51	2657.24
425.718	2698.2
425.925	2761.69
426.133	2880.47
426.341	3050.45
426.548	3216.33
426.756	3015.63
426.964	3238.86
427.171	3392.46
427.379	3437.52
427.586	3478.47
427.794	3718.09
428.001	3752.9
428.209	3912.64
428.417	3877.83
428.624	4113.35
428.832	4266.94
429.039	4168.64
429.247	4012.99
429.454	4402.11
429.662	4774.84
429.869	4529.08
430.076	4879.29
430.284	4678.58
430.491	4916.15
430.699	5188.53
430.906	5309.36
431.114	5174.19
431.321	5446.57
431.528	5485.48
431.736	5807.02
431.943	6202.27
432.15	5747.62
432.358	6007.72
432.565	6390.69
432.772	6267.81
432.979	6519.71
433.187	6611.87
433.394	6681.5
433.601	7332.75
433.808	7265.17
434.016	7252.88
434.223	7521.17
434.43	7994.25
434.637	7871.37
434.844	8201.09
435.052	8446.85
435.259	8283.01
435.466	8491.9
435.673	8461.18
435.88	8889.21
436.087	9374.58
436.294	9395.06
436.501	9399.15
436.708	9309.04
436.915	9706.35
437.122	10003.3
437.329	9956.2
437.537	10634.08
437.743	10640.22
437.95	10371.94
438.157	11035.48
438.364	11453.27
438.571	11649.87
438.778	11367.25
438.985	12415.81
439.192	12000.07
439.399	12350.28
439.606	11854.67
439.813	12833.6
440.02	13654.83
440.227	13384.5
440.433	13318.96
440.64	13331.25
440.847	13693.74
441.054	13851.44
441.261	14773.02
441.467	14701.34
441.674	14883.61
441.881	15354.65
442.088	15491.86
442.294	15180.57
442.501	15584.02
442.708	15893.26
442.914	16597.76
443.121	17195.77
443.328	16720.64
443.534	17943.28
443.741	17588.98
443.948	17101.56
444.154	18223.85
444.361	18320.1
444.568	18490.09
444.774	18574.05
444.981	18432.74
445.187	19229.4
445.394	20241.1
445.6	19487.45
445.807	21557.94
446.013	20615.88
446.22	21232.32
446.426	21891.76
446.633	22225.58
446.839	22909.6
447.046	21838.51
447.252	23149.21
447.459	23071.39
447.665	22901.41
447.871	23982.74
448.078	24920.71
448.284	23884.44
448.491	24537.74
448.697	25641.59
448.903	25916.02
449.11	26049.14
449.316	25553.53
449.522	26274.42
449.728	27087.46
449.935	27345.5
450.141	27030.12
450.347	27591.26
450.553	26526.32
450.76	27351.65
450.966	28217.94
451.172	27765.34
451.378	28222.03
451.584	27716.19
451.791	28508.75
451.997	28480.08
452.203	28973.64
452.409	29129.28
452.615	28987.97
452.821	27718.23
453.027	27316.83
453.233	29661.76
453.44	27787.86
453.646	28308.05
453.852	28475.98
454.058	28922.44
454.264	27898.45
454.47	28760.65
454.676	27769.43
454.882	28555.85
455.088	26442.35
455.294	26546.79
455.5	27239.01
455.705	27624.03
455.911	26354.29
456.117	25879.16
456.323	25606.78
456.529	24234.64
456.735	25344.64
456.941	24638.09
457.147	24679.05
457.352	23624.34
457.558	23153.31
457.764	23401.11
457.97	23124.64
458.176	22538.92
458.381	22442.67
458.587	21422.78
458.793	21256.89
458.999	20275.91
459.204	21689.01
459.41	21156.54
459.616	19880.66
459.821	19964.62
460.027	20067.02
460.233	19462.87
460.438	18631.4
460.644	18600.68
460.85	17801.97
461.055	17642.23
461.261	17357.56
461.466	16001.8
461.672	15835.92
461.878	16653.06
462.083	15758.1
462.289	15446.8
462.494	15534.87
462.7	14664.48
462.905	14242.6
463.111	14805.79
463.316	14750.49
463.522	14660.38
463.727	14277.41
463.932	14289.7
464.138	14617.38
464.343	14340.9
464.549	14082.86
464.754	14349.09
464.959	14392.1
465.165	13822.77
465.37	13357.88
465.575	13253.43
465.781	13595.44
465.986	13853.48
466.191	13271.86
466.397	13108.02
466.602	12329.8
466.807	12843.84
467.012	12745.53
467.218	12804.92
467.423	12739.39
467.628	12694.33
467.833	13022.01
468.038	12794.68
468.244	12354.37
468.449	12960.57
468.654	12682.05
468.859	12364.61
469.064	12206.92
469.269	11955.02
469.474	11909.96
469.679	12258.12
469.885	11725.65
470.09	12010.31
470.295	11952.97
470.5	11639.63
470.705	11703.12
470.91	11522.9
471.115	11219.8
471.32	11486.03
471.525	11600.72
471.73	11101.01
471.935	11232.08
472.139	10568.54
472.344	10924.89
472.549	10775.39
472.754	10619.74
472.959	10503.01
473.164	10201.96
473.369	10115.94
473.574	10464.1
473.778	10355.55
473.983	10373.99
474.188	10357.6
474.393	9687.92
474.598	9800.55
474.802	9716.59
475.007	9894.76
475.212	9511.79
475.417	9282.42
475.621	9491.31
475.826	9438.06
476.031	9192.31
476.235	9022.33
476.44	9083.77
476.645	8799.1
476.849	9126.77
477.054	8913.78
477.259	8786.81
477.463	8821.63
477.668	8536.96
477.872	8430.46
478.077	8539.01
478.282	8293.25
478.486	8360.83
478.691	8162.18
478.895	8168.32
479.1	8012.68
479.304	8186.76
479.509	7873.42
479.713	7961.48
479.918	7824.26
480.122	7570.32
480.326	7891.85
480.531	7748.49
480.735	7777.16
480.94	7666.57
481.144	7816.07
481.348	7500.69
481.553	7619.47
481.757	7357.33
481.961	7496.59
482.166	7580.56
482.37	7484.3
482.574	7459.73
482.778	7426.96
482.983	7482.25
483.187	7588.75
483.391	7455.63
483.595	7625.61
483.8	7349.14
484.004	7533.45
484.208	7603.08
484.412	7381.9
484.616	7406.48
484.821	7443.34
485.025	7277.46
485.229	7594.89
485.433	7455.63
485.637	7406.48
485.841	7494.54
486.045	7472.01
486.249	7603.08
486.453	7373.71
486.657	7619.47
486.861	7431.05
487.065	7383.95
487.269	7517.07
487.473	7433.1
487.677	7523.21
487.881	7771.02
488.085	7578.51
488.289	7562.12
488.493	7502.73
488.697	7617.42
488.901	7687.05
489.105	7482.25
489.309	7474.06
489.512	7685
489.716	7529.36
489.92	7584.65
490.124	7590.8
490.328	7916.42
490.531	7441.29
490.735	7666.57
490.939	7762.83
491.143	7625.61
491.346	7791.5
491.55	7734.15
491.754	7762.83
491.958	7664.52
492.161	7938.95
492.365	7842.7
492.569	7799.69
492.772	7957.38
492.976	7873.42
493.18	7922.57
493.383	8166.28
493.587	8156.04
493.79	8217.47
493.994	8033.16
494.197	8235.91
494.401	8233.86
494.605	8223.62
494.808	8422.27
495.012	8375.17
495.215	8700.8
495.419	8551.29
495.622	8489.85
495.825	8483.71
496.029	8696.7
496.232	8926.07
496.436	8856.44
496.639	9175.92
496.843	9132.92
497.046	9040.76
497.249	9284.47
497.453	9397.1
497.656	9464.69
497.859	9507.69
498.063	9415.54
498.266	9628.53
498.469	9753.45
498.673	9735.02
498.876	9857.9
499.079	10296.16
499.282	10077.03
499.485	10314.59
499.689	10228.58
499.892	10511.2
500.095	10490.72
500.298	10814.3
500.501	10503.01
500.705	11008.86
500.908	11045.72
501.111	11227.99
501.314	11244.37
501.517	11461.46
501.72	11305.81
501.923	11477.84
502.126	11637.58
502.329	11881.29
502.532	11957.07
502.735	12028.74
502.938	12239.69
503.141	12249.93
503.344	12663.61
503.547	12587.84
503.75	12561.22
503.953	12927.8
504.156	13077.3
504.359	13054.78
504.562	13247.29
504.765	13632.3
504.968	13765.42
505.17	13636.4
505.373	13951.79
505.576	13910.83
505.779	14084.91
505.982	14285.61
506.185	14584.61
506.387	14723.87
506.59	14596.9
506.793	14820.13
506.996	15012.63
507.198	15483.67
507.401	15342.36
507.604	15586.07
507.807	15870.73
508.009	15958.8
508.212	15784.72
508.415	16395.01
508.617	16233.22
508.82	16423.69
509.022	16519.94
509.225	16851.71
509.428	17036.03
509.63	17173.24
509.833	17328.89
510.035	17605.36
510.238	17603.32
510.44	17943.28
510.643	18264.81
510.845	18297.58
511.048	17990.38
511.25	18610.92
511.453	18412.26
511.655	19137.24
511.858	18961.12
512.06	19303.13
512.262	19540.69
512.465	19307.23
512.667	19718.87
512.87	19794.64
513.072	20060.88
513.274	20552.39
513.477	20533.96
513.679	20552.39
513.881	21048
514.084	20937.41
514.286	21105.34
514.488	21142.21
514.69	21791.41
514.893	21959.34
515.095	21795.51
515.297	22229.68
515.499	22424.23
515.701	22475.43
515.904	22968.99
516.106	23270.04
516.308	23376.54
516.51	23564.95
516.712	23495.32
516.914	23925.39
517.116	24580.74
517.318	24179.34
517.52	24218.25
517.722	24572.55
517.925	24588.94
518.127	24986.24
518.329	25373.31
518.531	25217.66
518.733	25561.72
518.935	25754.23
519.136	25858.68
519.338	26366.57
519.54	26522.22
519.742	26624.62
519.944	26716.78
520.146	27148.9
520.348	27142.75
520.55	27294.3
520.752	27562.59
520.954	27882.07
521.155	28035.67
521.357	28607.05
521.559	28506.7
521.761	28686.92
521.963	28854.86
522.164	28975.69
522.366	29211.2
522.568	29604.41
522.77	29438.53
522.971	29891.13
523.173	29950.52
523.375	30104.12
523.576	30302.77
523.778	30128.69
523.98	30562.86
524.181	30812.71
524.383	30880.3
524.584	31253.03
524.786	31326.75
524.988	31246.88
525.189	31844.89
525.391	31500.83
525.592	31865.37
525.794	32059.93
525.995	31842.84
526.197	31982.1
526.398	31980.06
526.6	32367.12
526.801	32490
527.003	32946.7
527.204	32920.07
527.406	32872.97
527.607	33141.25
527.808	33102.34
528.01	32963.08
528.211	32926.22
528.412	33634.81
528.614	33495.55
528.815	33389.06
529.016	33706.49
529.218	33559.04
529.419	33853.95
529.62	33993.21
529.822	33817.08
530.023	33778.17
530.224	33782.27
530.425	34109.94
530.626	33798.65
530.828	34003.45
531.029	34791.92
531.23	34089.46
531.431	34267.64
531.632	34023.93
531.833	34427.38
532.035	34257.4
532.236	34398.71
532.437	34580.98
532.638	34136.57
532.839	34904.56
533.04	34687.47
533.241	34234.87
533.442	35148.26
533.643	34544.11
533.844	34886.12
534.045	34830.83
534.246	34367.99
534.447	34843.12
534.648	35176.94
534.849	35146.22
535.05	34478.58
535.251	34736.62
535.451	34427.38
535.652	35097.06
535.853	34431.47
536.054	34593.26
536.255	34654.7
536.456	34318.84
536.657	35127.78
536.857	34634.22
537.058	34753.01
537.259	34789.87
537.46	34814.44
537.66	34544.11
537.861	34763.25
538.062	34712.05
538.263	34884.08
538.463	34765.29
538.664	34953.71
538.865	34992.62
539.065	35125.74
539.266	34744.81
539.466	35176.94
539.667	34421.23
539.868	34843.12
540.068	34585.07
540.269	34720.24
540.469	34847.21
540.67	34847.21
540.87	34691.57
541.071	34613.74
541.271	34906.6
541.472	34810.35
541.672	34599.41
541.873	34509.3
542.073	34415.09
542.274	34851.31
542.474	34509.3
542.675	34144.76
542.875	34978.28
543.075	34388.47
543.276	34136.57
543.476	35135.98
543.676	34163.19
543.877	34429.43
544.077	34759.15
544.277	34298.36
544.478	34347.51
544.678	34583.02
544.878	34509.3
545.078	34693.61
545.279	34337.27
545.479	34146.81
545.679	34548.21
545.879	34619.89
546.079	34318.84
546.28	34265.59
546.48	33868.28
546.68	34523.63
546.88	34660.85
547.08	34320.88
547.28	34097.66
547.48	34007.55
547.68	34603.5
547.88	33958.39
548.081	34580.98
548.281	34163.19
548.481	34171.38
548.681	34615.79
548.881	34548.21
549.081	34490.87
549.28	34034.17
549.48	34740.72
549.68	34329.08
549.88	34722.29
550.08	34183.67
550.28	34220.53
550.48	34175.48
550.68	34400.76
550.88	33978.87
551.08	34134.52
551.279	34109.94
551.479	33911.29
551.679	33972.73
551.879	34251.25
552.079	34349.56
552.278	34091.51
552.478	34232.82
552.678	33937.91
552.878	34431.47
553.077	34083.32
553.277	33872.38
553.477	33958.39
553.676	34015.74
553.876	34077.18
554.076	33946.11
554.275	34257.4
554.475	33540.61
554.674	33948.15
554.874	33970.68
555.074	33778.17
555.273	33923.58
555.473	34044.41
555.672	33571.33
555.872	33722.88
556.071	34023.93
556.271	33868.28
556.47	33272.32
556.67	33460.74
556.869	33282.56
557.068	33634.81
557.268	33022.47
557.467	33401.35
557.667	33192.45
557.866	33212.93
558.065	32911.88
558.265	32993.8
558.464	33081.86
558.663	33204.74
558.863	33020.42
559.062	33178.12
559.261	32471.57
559.461	33487.36
559.66	32483.86
559.859	32594.45
560.058	32659.98
560.258	32653.84
560.457	32473.62
560.656	32973.32
560.855	32750.09
561.054	32680.46
561.253	32348.69
561.453	32469.52
561.652	32592.4
561.851	32434.71
562.05	32207.38
562.249	32395.79
562.448	32539.15
562.647	32285.2
562.846	32279.06
563.045	32326.16
563.244	31908.38
563.443	32446.99
563.642	31660.57
563.841	32094.74
564.04	31951.38
564.239	32350.74
564.438	31992.34
564.637	31769.12
564.836	31793.69
565.035	31396.38
565.234	31527.45
565.432	31347.23
565.631	31226.4
565.83	31425.06
566.029	31343.14
566.228	31132.2
566.427	31310.37
566.625	31093.29
566.824	30771.75
567.023	31341.09
567.222	30288.43
567.42	31169.06
567.619	30843.43
567.818	30868.01
568.016	30870.06
568.215	31089.19
568.414	30853.67
568.612	30894.63
568.811	30437.94
569.01	30628.4
569.208	29805.11
569.407	30313.01
569.605	30323.25
569.804	30188.08
570.002	29823.54
570.201	30310.96
570.4	29942.33
570.598	29651.52
570.797	29542.97
570.995	29782.59
571.193	29424.19
571.392	29999.67
571.59	29284.93
571.789	29510.21
571.987	29370.94
572.186	29071.94
572.384	29028.93
572.582	29127.24
572.781	29274.69
572.979	28553.8
573.177	28887.62
573.376	28992.07
573.574	28398.16
573.772	28977.73
573.971	28676.68
574.169	28195.41
574.367	28629.58
574.565	28658.25
574.763	28508.75
574.962	28295.76
575.16	28244.56
575.358	28142.16
575.556	27726.42
575.754	28406.35
575.952	27746.9
576.151	28338.77
576.349	27779.67
576.547	27646.55
576.745	27767.38
576.943	27572.83
577.141	27572.83
577.339	27183.71
577.537	27284.06
577.735	27222.62
577.933	27464.28
578.131	27187.81
578.329	26962.53
578.527	27028.07
578.725	27269.73
578.923	27128.42
579.121	26657.39
579.319	26782.31
579.516	26919.53
579.714	26862.18
579.912	26464.88
580.11	26516.08
580.308	26329.71
580.506	26163.82
580.704	25999.99
580.901	26002.04
581.099	26552.94
581.297	25932.4
581.495	25856.63
581.692	26020.47
581.89	25918.07
582.088	25881.21
582.285	25901.68
582.483	25832.05
582.681	25637.5
582.878	25811.57
583.076	25580.15
583.274	25645.69
583.471	25066.11
583.669	25621.11
583.866	25008.77
584.064	25408.12
584.262	24957.57
584.459	25164.42
584.657	24986.24
584.854	24883.84
585.052	24681.1
585.249	25072.26
585.447	24996.48
585.644	24296.08
585.841	24586.89
586.039	24668.81
586.236	24238.73
586.434	24599.18
586.631	24390.28
586.828	24416.91
587.026	24345.23
587.223	24044.18
587.42	24038.03
587.618	24205.97
587.815	23683.73
588.012	23886.48
588.21	23851.67
588.407	23767.7
588.604	23554.71
588.801	23665.3
588.999	23362.2
589.196	23370.4
589.393	23550.62
589.59	23044.77
589.787	23368.35
589.984	23349.92
590.182	22762.15
590.379	22960.8
590.576	22870.69
590.773	23116.45
590.97	23153.31
591.167	22807.2
591.364	22526.63
591.561	22893.22
591.758	22569.64
591.955	22530.73
592.152	22534.82
592.349	22307.5
592.546	22497.96
592.743	22381.23
592.94	21932.72
593.137	22160.05
593.334	22229.68
593.531	21883.57
593.727	22094.51
593.924	21994.16
594.121	21603
594.318	21766.84
594.515	22039.22
594.712	22006.45
594.908	21750.45
595.105	21729.97
595.302	21494.46
595.499	21643.96
595.696	21523.13
595.892	21254.84
596.089	21447.35
596.286	21201.6
596.482	21177.02
596.679	21291.71
596.876	21129.92
597.072	20902.59
597.269	20898.5
597.466	20316.87
597.662	20701.89
597.859	20701.89
598.055	20687.56
598.252	20658.88
598.448	20398.79
598.645	20378.31
598.841	20194
599.038	20214.48
599.234	20064.97
599.431	19997.39
599.627	20044.49
599.824	20220.62
600.02	20251.34
600.217	20030.16
600.413	19921.62
600.609	19831.51
600.806	19745.49
601.002	19761.87
601.198	19466.97
601.395	19432.15
601.591	19438.3
601.787	19372.76
601.984	19565.27
602.18	19688.15
602.376	19317.47
602.572	19163.87
602.769	19051.23
602.965	19167.96
603.161	19311.32
603.357	19094.24
603.553	18868.96
603.75	18832.1
603.946	18801.38
604.142	18801.38
604.338	18399.98
604.534	18879.2
604.73	18377.45
604.926	18445.03
605.122	18645.73
605.318	18506.47
605.514	18385.64
605.71	18191.08
605.906	18236.14
606.102	18203.37
606.298	18410.22
606.494	18191.08
606.69	18531.05
606.886	18156.27
607.082	17783.54
607.278	17896.17
607.474	17787.63
607.67	18111.21
607.866	17615.6
608.062	17699.57
608.257	17824.5
608.453	17683.19
608.649	17697.52
608.845	17439.48
609.041	17392.37
609.236	17838.83
609.432	17388.28
609.628	17509.11
609.824	17382.13
610.019	17462.01
610.215	17355.51
610.411	17177.34
610.606	17236.73
610.802	17271.54
610.998	17263.35
611.193	17380.09
611.389	17103.61
611.584	16814.85
611.78	16999.16
611.976	17052.41
612.171	17201.91
612.367	16933.63
612.562	16972.54
612.758	16685.83
612.953	16628.48
613.149	16794.37
613.344	16810.75
613.539	17064.7
613.735	16605.95
613.93	16810.75
614.126	16747.26
614.321	16634.63
614.517	16663.3
614.712	16495.36
614.907	16349.96
615.103	16640.77
615.298	16425.73
615.493	16405.25
615.688	16245.51
615.884	16622.34
616.079	16005.9
616.274	16438.02
616.47	15973.13
616.665	16241.42
616.86	16341.77
617.055	16212.74
617.25	16220.94
617.445	16048.91
617.641	15776.53
617.836	15885.07
618.031	15981.32
618.226	15958.8
618.421	15573.78
618.616	15850.25
618.811	15616.79
619.006	15803.15
619.201	15508.24
619.396	15407.89
619.591	15254.3
619.786	15516.44
619.981	15506.2
620.176	15319.83
620.371	15352.6
620.566	15231.77
620.761	15072.03
620.956	15321.88
621.151	14861.09
621.346	14852.89
621.541	14564.13
621.735	14924.57
621.93	14510.88
622.125	14783.26
622.32	14345
622.515	14656.29
622.709	14359.33
622.904	14320.42
623.099	14492.45
623.294	14240.55
623.488	14150.44
623.683	14166.82
623.878	13740.85
624.072	13957.93
624.267	13873.96
624.462	13640.5
624.656	13699.89
624.851	13577.01
625.046	13517.62
625.24	13364.02
625.435	13206.33
625.629	13222.71
625.824	13187.89
626.018	12989.24
626.213	12766.01
626.407	13077.3
626.602	12802.88
626.796	13081.4
626.991	13044.54
627.185	12698.43
627.38	12874.56
627.574	12526.4
627.768	12366.66
627.963	12524.35
628.157	12237.64
628.352	12546.88
628.546	12034.89
628.74	12331.84
628.935	12321.6
629.129	11936.59
629.323	12004.17
629.517	11936.59
629.712	11793.23
629.906	12084.04
630.1	11793.23
630.294	11795.28
630.489	11576.14
630.683	11653.97
630.877	11324.24
631.071	11467.6
631.265	11502.42
631.459	11189.08
631.653	11309.91
631.848	11371.35
632.042	11111.25
632.236	11395.92
632.43	11060.06
632.624	11115.35
632.818	11062.1
633.012	10855.26
633.206	10806.11
633.4	10724.19
633.594	10568.54
633.788	10791.77
633.982	10736.48
634.176	10392.42
634.369	10464.1
634.563	10257.25
634.757	10494.82
634.951	10412.9
635.145	10357.6
635.339	10326.88
635.533	10214.24
635.726	10357.6
635.92	9892.71
636.114	10005.35
636.308	10097.51
636.501	9851.75
636.695	9857.9
636.889	9751.4
637.083	9720.68
637.276	9737.07
637.47	9466.74
637.664	9603.95
637.857	9638.76
638.051	9657.2
638.244	9542.51
638.438	9446.26
638.632	9372.53
638.825	9292.66
639.019	9253.75
639.212	9313.14
639.406	9118.58
639.599	8981.37
639.793	8991.61
639.986	9085.81
640.18	8905.59
640.373	9153.4
640.567	8745.85
640.76	8864.63
640.954	8747.9
641.147	8694.65
641.34	8784.76
641.534	8604.54
641.727	8627.07
641.92	8530.81
642.114	8395.65
642.307	8326.02
642.5	8258.43
642.694	8323.97
642.887	8293.25
643.08	8377.22
643.273	8330.11
643.467	8309.63
643.66	8027.01
643.853	8162.18
644.046	8088.45
644.239	8072.07
644.432	7895.94
644.626	7832.46
644.819	7840.65
645.012	7850.89
645.205	7918.47
645.398	7816.07
645.591	7678.86
645.784	7664.52
645.977	7502.73
646.17	7572.36
646.363	7461.77
646.556	7695.24
646.749	7459.73
646.942	7570.32
647.135	7459.73
647.328	7209.87
647.521	7371.66
647.714	7087
647.907	7222.16
648.099	7297.94
648.292	7283.6
648.485	7291.79
648.678	7203.73
648.871	6974.36
649.064	7037.84
649.256	7048.08
649.449	6861.72
649.642	6888.34
649.835	6724.51
650.027	6943.64
650.22	6738.84
650.413	6589.34
650.605	6822.81
650.798	6744.99
650.991	6472.61
651.183	6714.27
651.376	6611.87
651.568	6626.2
651.761	6480.8
651.954	6450.08
652.146	6542.24
652.339	6507.42
652.531	6448.03
652.724	6251.42
652.916	6140.83
653.109	6218.66
653.301	6122.4
653.494	6128.55
653.686	6261.66
653.879	6083.49
654.071	6189.99
654.263	6058.92
654.456	5933.99
654.648	6050.72
654.84	6075.3
655.033	6058.92
655.225	6030.24
655.417	5764.01
655.61	5876.65
655.802	5837.73
655.994	5886.89
656.186	5759.91
656.379	5661.61
656.571	5688.23
656.763	5583.79
656.955	5557.16
657.148	5624.75
657.34	5508.01
657.532	5516.2
657.724	5508.01
657.916	5532.59
658.108	5501.87
658.3	5514.16
658.492	5448.62
658.684	5280.69
658.876	5346.22
659.068	5448.62
659.26	5196.72
659.452	5170.1
659.644	5084.08
659.836	5073.84
660.028	5254.06
660.22	5098.42
660.412	5104.56
660.604	4973.49
660.796	5002.16
660.988	4928.44
661.18	4928.44
661.372	5014.45
661.563	5159.86
661.755	4858.81
661.947	4901.81
662.139	4897.72
662.331	4776.89
662.522	4924.34
662.714	4715.45
662.906	4590.52
663.097	4670.39
663.289	4678.58
663.481	4641.72
663.673	4645.82
663.864	4625.34
664.056	4662.2
664.247	4537.27
664.439	4481.98
664.631	4574.14
664.822	4580.28
665.014	4553.66
665.205	4463.55
665.397	4514.75
665.588	4508.6
665.78	4309.95
665.971	4393.92
666.163	4420.54
666.354	4242.37
666.546	4326.33
666.737	4383.68
666.929	4182.98
667.12	4359.1
667.311	4234.18
667.503	4187.07
667.694	4178.88
667.885	4137.92
668.077	4180.93
668.268	4072.39
668.459	4248.51
668.651	4131.78
668.842	4023.23
669.033	3996.61
669.224	4015.04
669.416	4109.25
669.607	3943.36
669.798	3851.21
669.989	4000.71
670.18	4008.9
670.371	4045.76
670.563	3838.92
670.754	3926.98
670.945	3660.74
671.136	3826.63
671.327	3834.82
671.518	3843.01
671.709	3947.46
671.9	3834.82
672.091	3879.88
672.282	3738.57
672.473	3640.26
672.664	3763.14
672.855	3836.87
673.046	3771.33
673.237	3752.9
673.428	3713.99
673.619	3763.14
673.809	3670.98
674	3630.02
674.191	3607.5
674.382	3646.41
674.573	3544.01
674.764	3619.78
674.954	3544.01
675.145	3400.65
675.336	3511.24
675.527	3435.47
675.717	3564.49
675.908	3568.59
676.099	3611.59
676.289	3476.43
676.48	3398.6
676.671	3419.08
676.861	3443.66
677.052	3331.02
677.243	3498.95
677.433	3449.8
677.624	3345.36
677.814	3443.66
678.005	3433.42
678.195	3351.5
678.386	3271.63
678.576	3339.21
678.767	3363.79
678.957	3308.49
679.148	3247.05
679.338	3380.17
679.529	3328.97
679.719	3292.11
679.909	3359.69
680.1	3310.54
680.29	3154.9
680.481	3277.77
680.671	3316.69
680.861	3130.32
681.052	3181.52
681.242	3247.05
681.432	3128.27
681.622	3212.24
681.813	3208.14
682.003	3189.71
682.193	3099.6
682.383	3146.7
682.573	3017.68
682.764	3107.79
682.954	3193.81
683.144	3156.94
683.334	3175.38
683.524	3163.09
683.714	3113.94
683.904	3171.28
684.094	3126.22
684.284	3083.22
684.474	3034.07
684.664	3019.73
684.854	3134.42
685.044	2925.52
685.234	2984.91
685.424	3075.03
685.614	3040.21
685.804	3023.83
685.994	3036.11
686.184	2968.53
686.374	2851.8
686.564	3040.21
686.753	2913.24
686.943	2900.95
687.133	2888.66
687.323	2905.04
687.513	2903
687.702	2905.04
687.892	2913.24
688.082	2935.76
688.272	2835.41
688.461	2825.17
688.651	2933.72
688.841	2835.41
689.03	2790.36
689.22	2884.56
689.41	2900.95
689.599	2771.93
689.789	2716.63
689.979	2681.82
690.168	2739.16
690.358	2624.47
690.547	2728.92
690.737	2573.27
690.926	2683.86
691.116	2649.05
691.305	2704.34
691.495	2591.7
691.684	2675.67
691.874	2632.66
692.063	2591.7
692.252	2591.7
692.442	2565.08
692.631	2458.59
692.82	2487.26
693.01	2671.58
693.199	2575.32
693.388	2626.52
693.578	2534.36
693.767	2466.78
693.956	2458.59
694.146	2497.5
694.335	2509.79
694.524	2460.63
694.713	2470.87
694.902	2499.55
695.092	2442.2
695.281	2405.34
695.47	2454.49
695.659	2438.11
695.848	2472.92
696.037	2425.82
696.226	2425.82
696.415	2323.42
696.604	2382.81
696.793	2335.71
696.982	2317.28
697.171	2378.72
697.36	2311.13
697.549	2294.75
697.738	2237.41
697.927	2255.84
698.116	2356.19
698.305	2253.79
698.494	2245.6
698.683	2300.89
698.872	2354.14
699.061	2167.77
699.25	2304.99
699.438	2274.27
699.627	2251.74
699.816	2307.04
700.005	2163.68
700.193	2313.18
700.382	2264.03
700.571	2253.79
700.76	2223.07
700.948	2302.94
701.137	2188.25
701.326	2241.5
701.514	2145.25
701.703	2261.98
701.892	2204.64
702.08	2255.84
702.269	2216.93
702.457	2196.45
702.646	2200.54
702.834	2233.31
703.023	2190.3
703.212	2282.46
703.4	2294.75
703.589	2204.64
703.777	2280.41
703.965	2223.07
704.154	2188.25
704.342	2065.38
704.531	2198.49
704.719	2204.64
704.907	2221.02
705.096	2196.45
705.284	2061.28
705.472	2196.45
705.661	2206.69
705.849	2089.95
706.037	2352.09
706.226	2202.59
706.414	2055.14
706.602	2106.34
706.79	2130.91
706.979	2141.15
707.167	2225.12
707.355	2163.68
707.543	2163.68
707.731	2089.95
707.919	2057.18
708.107	2106.34
708.296	2118.62
708.484	2163.68
708.672	2155.49
708.86	2005.99
709.048	2175.97
709.236	2124.77
709.424	2122.72
709.612	2118.62
709.8	2063.33
709.988	2057.18
710.176	2190.3
710.364	2245.6
710.551	2079.71
710.739	2141.15
710.927	2081.76
711.115	2094.05
711.303	2042.85
711.491	2216.93
711.679	2118.62
711.866	2094.05
712.054	2065.38
712.242	2003.94
712.43	2130.91
712.617	2098.14
712.805	2067.42
712.993	2122.72
713.181	2048.99
713.368	2196.45
713.556	2110.43
713.744	1985.51
713.931	2155.49
714.119	2059.23
714.306	2032.61
714.494	2024.42
714.682	2055.14
714.869	2048.99
715.057	2073.57
715.244	2114.53
715.432	2112.48
715.619	2081.76
715.807	2024.42
715.994	2094.05
716.182	2116.58
716.369	2083.81
716.556	2315.23
716.744	2051.04
716.931	2069.47
717.119	2206.69
717.306	2085.86
717.493	2089.95
717.681	2042.85
717.868	2020.32
718.055	2098.14
718.242	2225.12
718.43	2135.01
718.617	2212.83
718.804	2124.77
718.991	2087.9
719.179	2206.69
719.366	2057.18
719.553	2048.99
719.74	2036.7
719.927	2067.42
720.114	2085.86
720.301	2151.39
720.488	1979.36
720.676	2067.42
720.863	2128.86
721.05	2061.28
721.237	2034.66
721.424	1981.41
721.611	2081.76
721.798	2132.96
721.985	2038.75
722.172	2077.66
722.358	2171.87
722.545	2130.91
722.732	2040.8
722.919	2065.38
723.106	2098.14
723.293	2202.59
723.48	2106.34
723.667	2112.48
723.853	2120.67
724.04	2075.62
724.227	2106.34
724.414	2048.99
724.6	2171.87
724.787	2087.9
724.974	2081.76
725.161	2055.14
725.347	2102.24
725.534	2034.66
725.72	2067.42
725.907	2180.06
726.094	2036.7
726.28	2065.38
726.467	2065.38
726.653	2163.68
726.84	2157.54
727.027	2204.64
727.213	2077.66
727.4	2100.19
727.586	2100.19
727.773	2016.23
727.959	2094.05
728.145	2075.62
728.332	2096.1
728.518	1979.36
728.705	2081.76
728.891	2139.1
729.077	2106.34
729.264	1991.65
729.45	2114.53
729.636	2106.34
729.823	1999.84
730.009	2114.53
730.195	2048.99
730.382	2073.57
730.568	2147.3
730.754	2163.68
730.94	2094.05
731.126	2008.03
731.313	2061.28
731.499	2051.04
731.685	2106.34
731.871	2065.38
732.057	2132.96
732.243	2016.23
732.429	2110.43
732.615	2096.1
732.801	2163.68
732.987	2065.38
733.173	2116.58
733.359	2063.33
733.545	2001.89
733.731	2100.19
733.917	2042.85
734.103	2098.14
734.289	2194.4
734.475	2026.47
734.661	2157.54
734.847	2040.8
735.033	2094.05
735.219	2108.38
735.404	1934.31
735.59	2178.01
735.776	2083.81
735.962	2106.34
736.148	2102.24
736.333	2098.14
736.519	2032.61
736.705	2065.38
736.89	2048.99
737.076	2116.58
737.262	2077.66
737.447	1926.11
737.633	2003.94
737.819	2061.28
738.004	2048.99
738.19	2016.23
738.375	2065.38
738.561	1991.65
738.747	2032.61
738.932	2081.76
739.118	2130.91
739.303	1944.55
739.489	2065.38
739.674	1979.36
739.859	2065.38
740.045	1981.41
740.23	1922.02
740.416	1885.16
740.601	2003.94
740.786	2042.85
740.972	1975.27
741.157	1971.17
741.342	1987.55
741.528	1924.07
741.713	1962.98
741.898	1864.68
742.084	1958.88
742.269	1870.82
742.454	1868.77
742.639	1887.2
742.824	1911.78
743.01	1942.5
743.195	1985.51
743.38	1836
743.565	1805.28
743.75	1870.82
743.935	1917.92
744.12	1885.16
744.305	1780.71
744.49	1829.86
744.675	1883.11
744.86	1803.24
745.045	1856.48
745.23	1749.99
745.415	1858.53
745.6	1786.85
745.785	1799.14
745.97	1876.96
746.155	1770.47
746.34	1827.81
746.525	1795.04
746.71	1823.72
746.895	1737.7
747.079	1762.28
747.264	1721.32
747.449	1729.51
747.634	1754.09
747.819	1795.04
748.003	1723.37
748.188	1690.6
748.373	1682.41
748.557	1666.02
748.742	1586.15
748.927	1637.35
749.111	1623.02
749.296	1596.39
749.481	1684.45
749.665	1537
749.85	1631.21
750.034	1737.7
750.219	1604.58
750.404	1588.2
750.588	1655.78
750.773	1569.77
750.957	1547.24
751.141	1539.05
751.326	1614.82
751.51	1479.66
751.695	1543.14
751.879	1504.23
752.064	1512.42
752.248	1635.3
752.432	1459.18
752.617	1434.6
752.801	1438.7
752.985	1407.98
753.17	1469.42
753.354	1455.08
753.538	1491.95
753.722	1360.88
753.907	1496.04
754.091	1426.41
754.275	1416.17
754.459	1459.18
754.643	1313.77
754.828	1362.92
755.012	1410.03
755.196	1229.81
755.38	1240.05
755.564	1281
755.748	1246.19
755.932	1346.54
756.116	1332.2
756.3	1356.78
756.484	1197.04
756.668	1256.43
756.852	1068.02
757.036	1240.05
757.22	1303.53
757.404	1256.43
757.588	1262.57
757.772	1250.28
757.956	1229.81
758.14	1170.41
758.323	1199.09
758.507	1201.13
758.691	1233.9
758.875	1166.32
759.059	1309.68
759.242	1201.13
759.426	1211.37
759.61	1190.89
759.794	1172.46
759.977	1100.78
760.161	1233.9
760.345	1190.89
760.528	1115.12
760.712	1174.51
760.895	1125.36
761.079	1010.67
761.263	1061.87
761.446	1008.62
761.63	1084.4
761.813	1051.63
761.997	1016.82
762.18	1000.43
762.364	1063.92
762.547	1037.3
762.731	975.86
762.914	1049.58
763.098	984.05
763.281	1020.91
763.464	945.14
763.648	1008.62
763.831	1008.62
764.015	1047.54
764.198	1090.54
764.381	1014.77
764.564	1092.59
764.748	902.13
764.931	961.52
765.114	1016.82
765.297	1041.39
765.481	990.19
765.664	1033.2
765.847	1006.58
766.03	1016.82
766.213	912.37
766.397	1076.21
766.58	975.86
766.763	1041.39
766.946	910.32
767.129	877.55
767.312	998.38
767.495	902.13
767.678	943.09
767.861	986.1
768.044	889.84
768.227	902.13
768.41	926.71
768.593	957.43
768.776	926.71
768.959	906.23
769.142	898.03
769.324	826.36
769.507	879.6
769.69	848.88
769.873	852.98
770.056	938.99
770.239	963.57
770.421	951.28
770.604	857.07
770.787	861.17
770.97	902.13
771.152	902.13
771.335	887.79
771.518	869.36
771.7	838.64
771.883	857.07
772.066	895.99
772.248	904.18
772.431	744.44
772.613	852.98
772.796	818.16
772.978	814.07
773.161	828.4
773.343	793.59
773.526	719.86
773.708	803.83
773.891	779.25
774.073	836.6
774.256	738.29
774.438	783.35
774.621	764.92
774.803	785.4
774.985	658.42
775.168	742.39
775.35	726
775.532	771.06
775.715	730.1
775.897	650.23
776.079	672.76
776.261	818.16
776.444	746.48
776.626	680.95
776.808	664.57
776.99	648.18
777.173	717.81
777.355	652.28
777.537	697.33
777.719	723.96
777.901	592.89
778.083	707.57
778.265	676.85
778.447	683
778.629	703.48
778.811	627.7
778.993	709.62
779.175	664.57
779.357	627.7
779.539	672.76
779.721	582.65
779.903	625.65
780.085	652.28
780.267	613.37
780.449	639.99
780.631	627.7
780.812	560.12
780.994	648.18
781.176	594.93
781.358	562.17
781.54	590.84
781.721	533.5
781.903	513.02
782.085	576.5
782.267	486.39
782.448	467.96
782.63	506.87
782.812	529.4
782.993	545.78
783.175	551.93
783.357	429.05
783.538	533.5
783.72	500.73
783.901	568.31
784.083	443.39
784.264	601.08
784.446	496.63
784.627	486.39
784.809	580.6
784.99	467.96
785.172	547.83
785.353	445.43
785.535	500.73
785.716	435.19
785.897	445.43
786.079	484.34
786.26	453.63
786.441	484.34
786.623	414.71
786.804	424.95
786.985	480.25
787.167	408.57
787.348	410.62
787.529	533.5
787.71	488.44
787.891	492.54
788.073	437.24
788.254	373.75
788.435	476.15
788.616	484.34
788.797	400.38
788.978	455.67
789.159	349.18
789.34	371.71
789.522	386.04
789.703	392.19
789.884	443.39
790.065	306.17
790.246	412.67
790.427	304.12
790.607	422.91
790.788	396.28
790.969	418.81
791.15	410.62
791.331	394.23
791.512	365.56
791.693	388.09
791.874	388.09
792.054	453.63
792.235	404.47
792.416	390.14
792.597	365.56
792.778	340.99
792.958	320.51
793.139	287.74
793.32	371.71
793.5	359.42
793.681	347.13
793.862	312.32
794.042	379.9
794.223	287.74
794.404	330.75
794.584	216.06
794.765	312.32
794.945	347.13
795.126	336.89
795.306	345.08
795.487	287.74
795.667	381.95
795.848	381.95
796.028	304.12
796.209	322.56
796.389	332.79
796.57	336.89
796.75	304.12
796.93	295.93
797.111	308.22
797.291	361.47
797.471	338.94
797.652	271.36
797.832	275.45
798.012	271.36
798.192	279.55
798.373	291.84
798.553	320.51
798.733	289.79
798.913	300.03
799.093	277.5
799.274	357.37
799.454	224.25
799.634	277.5
799.814	328.7
799.994	271.36
800.174	230.4
800.354	275.45
800.534	328.7
800.714	216.06
800.894	265.21
801.074	232.44
801.254	275.45
801.434	269.31
801.614	185.34
801.794	238.59
801.974	787.44
802.154	148.48
802.334	312.32
802.514	209.92
802.693	193.53
802.873	160.77
803.053	273.4
803.233	248.83
803.413	271.36
803.592	248.83
803.772	287.74
803.952	222.2
804.131	183.29
804.311	257.02
804.491	295.93
804.67	269.31
804.85	148.48
805.03	240.64
805.209	308.22
805.389	230.4
805.568	218.11
805.748	148.48
805.928	214.01
806.107	267.26
806.287	257.02
806.466	222.2
806.646	257.02
806.825	207.87
807.004	189.44
807.184	197.63
807.363	205.82
807.543	257.02
807.722	207.87
807.901	224.25
808.081	261.12
808.26	265.21
808.439	148.48
808.619	166.91
808.798	164.86
808.977	248.83
809.156	265.21
809.336	211.96
809.515	308.22
809.694	257.02
809.873	232.44
810.052	166.91
810.231	248.83
810.411	254.97
810.59	240.64
810.769	197.63
810.948	216.06
811.127	193.53
811.306	216.06
811.485	205.82
811.664	328.7
811.843	246.78
812.022	183.29
812.201	146.43
812.38	273.4
812.559	82.94
812.737	205.82
812.916	197.63
813.095	177.15
813.274	103.42
813.453	99.33
813.632	197.63
813.811	193.53
813.989	146.43
814.168	218.11
814.347	148.48
814.526	132.09
814.704	230.4
814.883	101.37
815.062	162.81
815.24	140.29
815.419	144.38
815.598	238.59
815.776	150.53
815.955	232.44
816.133	128
816.312	146.43
816.49	107.52
816.669	209.92
816.847	158.72
817.026	128
817.204	87.04
817.383	82.94
817.561	168.96
817.74	240.64
817.918	72.7
818.097	238.59
818.275	152.57
818.453	214.01
818.632	134.14
818.81	179.2
818.988	111.61
819.167	177.15
819.345	140.29
819.523	140.29
819.701	183.29
819.879	156.67
820.058	130.05
820.236	84.99
820.414	70.65
820.592	113.66
820.77	166.91
820.948	115.71
821.127	130.05
821.305	166.91
821.483	17.41
821.661	148.48
821.839	91.13
822.017	132.09
822.195	119.81
822.373	125.95
822.551	109.57
822.729	148.48
822.907	152.57
823.085	148.48
823.262	87.04
823.44	132.09
823.618	132.09
823.796	150.53
823.974	130.05
824.152	109.57
824.329	91.13
824.507	123.9
824.685	199.68
824.863	175.1
825.04	121.85
825.218	158.72
825.396	107.52
825.574	128
825.751	91.13
825.929	224.25
826.107	148.48
826.284	138.24
826.462	95.23
826.639	99.33
826.817	66.56
826.994	70.65
827.172	58.37
827.349	146.43
827.527	72.7
827.704	144.38
827.882	175.1
828.059	181.25
828.237	41.98
828.414	82.94
828.591	41.98
828.769	146.43
828.946	115.71
829.124	181.25
829.301	132.09
829.478	140.29
829.655	134.14
829.833	115.71
830.01	99.33
830.187	128
830.364	74.75
830.542	130.05
830.719	150.53
830.896	107.52
831.073	134.14
831.25	148.48
831.427	123.9
831.604	13.31
831.782	35.84
831.959	111.61
832.136	70.65
832.313	46.08
832.49	74.75
832.667	91.13
832.844	111.61
833.021	156.67
833.198	87.04
833.374	148.48
833.551	25.6
833.728	181.25
833.905	123.9
834.082	99.33
834.259	84.99
834.436	138.24
834.612	89.09
834.789	113.66
834.966	87.04
835.143	58.37
835.319	93.18
835.496	58.37
835.673	132.09
835.85	99.33
836.026	58.37
836.203	140.29
836.38	76.8
836.556	103.42
836.733	82.94
836.909	107.52
837.086	132.09
837.262	48.13
837.439	138.24
837.616	91.13
837.792	97.28
837.968	91.13
838.145	-7.17
838.321	78.85
838.498	78.85
838.674	158.72
838.851	5.12
839.027	46.08
839.203	50.18
839.38	121.85
839.556	48.13
839.732	140.29
839.909	80.89
840.085	132.09
840.261	107.52
840.437	115.71
840.614	66.56
840.79	87.04
840.966	58.37
841.142	142.33
841.318	50.18
841.494	91.13
841.671	115.71
841.847	60.42
842.023	33.79
842.199	74.75
842.375	128
842.551	-29.7
842.727	99.33
842.903	107.52
843.079	70.65
843.255	101.37
843.431	82.94
843.607	82.94
843.783	44.03
843.959	74.75
844.134	19.46
844.31	48.13
844.486	82.94
844.662	41.98
844.838	91.13
845.013	132.09
845.189	123.9
845.365	44.03
845.541	62.46
845.716	101.37
845.892	7.17
846.068	113.66
846.244	121.85
846.419	74.75
846.595	46.08
846.77	29.7
846.946	111.61
847.122	68.61
847.297	60.42
847.473	13.31
847.648	1.02
847.824	91.13
847.999	44.03
848.175	117.76
848.35	9.22
848.526	140.29
848.701	33.79
848.876	46.08
849.052	89.09
849.227	66.56
849.403	52.22
849.578	39.94
849.753	91.13
849.929	1.02
850.104	17.41
850.279	33.79
850.454	5.12
850.63	76.8
850.805	46.08
850.98	97.28
851.155	115.71
851.33	50.18
851.505	5.12
851.681	87.04
851.856	97.28
852.031	111.61
852.206	68.61
852.381	1.02
852.556	17.41
852.731	70.65
852.906	29.7
853.081	9.22
853.256	62.46
853.431	29.7
853.606	95.23
853.781	37.89
853.956	29.7
854.131	68.61
854.305	-19.46
854.48	60.42
854.655	1.02
854.83	66.56
855.005	66.56
855.18	93.18
855.354	115.71
855.529	66.56
855.704	25.6
855.879	27.65
856.053	-31.74
856.228	80.89
856.403	82.94
856.577	93.18
856.752	33.79
856.926	-5.12
857.101	111.61
857.276	35.84
857.45	35.84
857.625	89.09
857.799	29.7
857.974	35.84
858.148	66.56
858.323	109.57
858.497	62.46
858.672	82.94
858.846	99.33
859.02	58.37
859.195	-23.55
859.369	33.79
859.543	148.48
859.718	-13.31
859.892	56.32
860.066	1.02
860.241	-23.55
860.415	62.46
860.589	33.79
860.763	27.65
860.938	33.79
861.112	115.71
861.286	60.42
861.46	91.13
861.634	44.03
861.808	48.13
861.982	-35.84
862.157	13.31
862.331	-3.07
862.505	7.17
862.679	37.89
862.853	13.31
863.027	58.37
863.201	48.13
863.375	29.7
863.549	115.71
863.722	37.89
863.896	74.75
864.07	1.02
864.244	46.08
864.418	68.61
864.592	136.19
864.766	25.6
864.939	107.52
865.113	-44.03
865.287	62.46
865.461	-23.55
865.634	97.28
865.808	62.46
865.982	50.18
866.156	39.94
866.329	21.5
866.503	82.94
866.676	33.79
866.85	35.84
867.024	19.46
867.197	70.65
867.371	99.33
867.544	1.02
867.718	44.03
867.891	109.57
868.065	25.6
868.238	115.71
868.412	37.89
868.585	9.22
868.759	52.22
868.932	62.46
869.105	3.07
869.279	84.99
869.452	21.5
869.625	50.18
869.799	132.09
869.972	50.18
870.145	-5.12
870.319	13.31
870.492	87.04
870.665	15.36
870.838	68.61
871.011	35.84
871.185	13.31
871.358	74.75
871.531	33.79
871.704	87.04
871.877	21.5
872.05	41.98
872.223	39.94
872.396	87.04
872.569	29.7
872.742	54.27
872.915	-7.17
873.088	5.12
873.261	3.07
873.434	-11.26
873.607	72.7
873.78	84.99
873.953	-23.55
874.126	-5.12
874.299	54.27
874.471	25.6
874.644	54.27
874.817	117.76
874.99	68.61
875.163	70.65
875.335	-23.55
875.508	41.98
875.681	35.84
875.853	35.84
876.026	25.6
876.199	142.33
876.371	11.26
876.544	60.42
876.717	41.98
876.889	39.94
877.062	148.48
877.234	-27.65
877.407	15.36
877.579	23.55
877.752	41.98
877.924	107.52
878.097	103.42
878.269	111.61
878.442	37.89
878.614	13.31
878.786	50.18
878.959	1.02
879.131	62.46
879.303	17.41
879.476	5.12
879.648	68.61
879.82	11.26
879.993	-9.22
880.165	89.09
880.337	-5.12
880.509	66.56
880.681	-23.55
880.854	89.09
881.026	46.08
881.198	107.52
881.37	82.94
881.542	52.22
881.714	29.7
881.886	25.6
882.058	25.6
882.23	29.7
882.402	1.02
882.574	99.33
882.746	27.65
882.918	91.13
883.09	70.65
883.262	52.22
883.434	-23.55
883.606	78.85
883.778	-35.84
883.95	105.47
884.122	84.99
884.293	58.37
884.465	21.5
884.637	148.48
884.809	-64.51
884.98	41.98
885.152	35.84
885.324	-25.6
885.496	-5.12
885.667	-7.17
885.839	-39.94
886.011	70.65
886.182	84.99
886.354	68.61
886.525	33.79
886.697	7.17
886.869	41.98
887.04	23.55
887.212	70.65
887.383	134.14
887.555	29.7
887.726	1.02
887.897	41.98
888.069	103.42
888.24	82.94
888.412	128
888.583	50.18
888.754	140.29
888.926	21.5
889.097	39.94
889.268	-64.51
889.44	-39.94
889.611	-21.5
889.782	-72.7
889.953	-3.07
890.125	66.56
890.296	76.8
890.467	74.75
890.638	52.22
890.809	5.12
890.98	44.03
891.151	66.56
891.323	62.46
891.494	78.85
891.665	132.09
891.836	35.84
892.007	70.65
892.178	21.5
892.349	-23.55
892.52	52.22
892.691	9.22
892.862	17.41
893.032	-5.12
893.203	54.27
893.374	-56.32
893.545	9.22
893.716	50.18
893.887	50.18
894.057	11.26
894.228	107.52
894.399	31.74
894.57	33.79
894.74	25.6
894.911	-3.07
895.082	11.26
895.253	19.46
895.423	33.79
895.594	41.98
895.764	52.22
895.935	115.71
896.106	9.22
896.276	44.03
896.447	33.79
896.617	60.42
896.788	-13.31
896.958	62.46
897.129	3.07
897.299	50.18
897.47	33.79
897.64	66.56
897.81	52.22
897.981	50.18
898.151	9.22
898.322	31.74
898.492	58.37
898.662	66.56
898.832	64.51
899.003	84.99
899.173	58.37
899.343	35.84
899.513	62.46
