Data from USB4F104151__124__14-43-58-089.txt Node

Date: Thu Mar 13 14:43:58 EDT 2025
User: louis
Spectrometer: USB4F10415
Trigger mode: 4
Integration Time (sec): 2.000000E-2
Scans to average: 1
Electric dark correction enabled: true
Nonlinearity correction enabled: false
Boxcar width: 0
XAxis mode: Wavelengths
Number of Pixels in Spectrum: 3648
>>>>>Begin Spectral Data<<<<<
178.204	-187.22
178.424	-187.22
178.644	-187.22
178.864	-150.36
179.084	-146.26
179.304	-37.72
179.524	62.63
179.744	9.39
179.964	46.25
180.184	-23.38
180.404	-9.05
180.624	-4.95
180.844	-27.48
181.064	-29.52
181.283	-11.09
181.503	17.58
181.723	7.34
181.943	-9.05
182.163	-19.29
182.383	5.29
182.602	-9.05
182.822	70.83
183.042	72.87
183.262	21.67
183.482	25.77
183.701	-43.86
183.921	7.34
184.141	5.29
184.361	21.67
184.58	50.35
184.8	-56.15
185.02	-54.1
185.239	156.84
185.459	72.87
185.679	-11.09
185.898	15.53
186.118	1.19
186.338	-9.05
186.557	46.25
186.777	-60.24
186.997	5.29
187.216	103.59
187.436	95.4
187.655	52.39
187.875	29.87
188.095	50.35
188.314	81.07
188.534	79.02
188.753	-93.01
188.973	-41.81
189.192	66.73
189.412	-2.9
189.631	-50
189.851	-4.95
190.07	54.44
190.29	-80.72
190.509	25.77
190.729	48.3
190.948	64.68
191.168	115.88
191.387	13.48
191.607	-23.38
191.826	46.25
192.045	5.29
192.265	54.44
192.484	-17.24
192.704	29.87
192.923	5.29
193.142	83.11
193.362	17.58
193.581	46.25
193.8	7.34
194.02	7.34
194.239	19.63
194.458	31.91
194.678	-11.09
194.897	17.58
195.116	-19.29
195.335	-41.81
195.555	33.96
195.774	-21.33
195.993	56.49
196.212	1.19
196.432	-19.29
196.651	15.53
196.87	54.44
197.089	119.98
197.308	-0.85
197.528	7.34
197.747	-41.81
197.966	70.83
198.185	-17.24
198.404	9.39
198.623	-2.9
198.842	46.25
199.062	52.39
199.281	60.59
199.5	-19.29
199.719	27.82
199.938	-47.96
200.157	44.2
200.376	15.53
200.595	-23.38
200.814	29.87
201.033	-27.48
201.252	-35.67
201.471	21.67
201.69	46.25
201.909	5.29
202.128	76.97
202.347	25.77
202.566	50.35
202.785	1.19
203.004	-39.76
203.223	29.87
203.442	21.67
203.661	-64.34
203.879	79.02
204.098	89.26
204.317	-68.44
204.536	13.48
204.755	29.87
204.974	7.34
205.193	46.25
205.411	7.34
205.63	23.72
205.849	42.15
206.068	-47.96
206.287	-9.05
206.505	46.25
206.724	42.15
206.943	-27.48
207.162	-60.24
207.381	-37.72
207.599	23.72
207.818	33.96
208.037	-33.62
208.255	-43.86
208.474	15.53
208.693	52.39
208.911	-56.15
209.13	25.77
209.349	-19.29
209.567	115.88
209.786	62.63
210.005	46.25
210.223	5.29
210.442	-60.24
210.661	64.68
210.879	21.67
211.098	9.39
211.316	5.29
211.535	50.35
211.753	33.96
211.972	56.49
212.191	13.48
212.409	-33.62
212.628	46.25
212.846	1.19
213.065	23.72
213.283	-43.86
213.502	60.59
213.72	-50
213.938	15.53
214.157	-68.44
214.375	21.67
214.594	21.67
214.812	1.19
215.031	-52.05
215.249	17.58
215.467	3.24
215.686	13.48
215.904	70.83
216.122	38.06
216.341	36.01
216.559	40.11
216.778	42.15
216.996	13.48
217.214	11.43
217.432	11.43
217.651	-23.38
217.869	-72.53
218.087	36.01
218.306	-23.38
218.524	-31.57
218.742	27.82
218.96	-27.48
219.179	-27.48
219.397	38.06
219.615	54.44
219.833	99.5
220.051	-0.85
220.27	29.87
220.488	-19.29
220.706	81.07
220.924	33.96
221.142	-7
221.36	54.44
221.578	7.34
221.796	79.02
222.015	27.82
222.233	1.19
222.451	7.34
222.669	-19.29
222.887	42.15
223.105	-60.24
223.323	-2.9
223.541	-50
223.759	-0.85
223.977	50.35
224.195	115.88
224.413	107.69
224.631	54.44
224.849	13.48
225.067	124.07
225.285	5.29
225.503	-27.48
225.721	21.67
225.939	-80.72
226.157	-29.52
226.375	42.15
226.592	40.11
226.81	64.68
227.028	83.11
227.246	13.48
227.464	9.39
227.682	62.63
227.9	5.29
228.117	5.29
228.335	74.92
228.553	-23.38
228.771	29.87
228.989	46.25
229.206	107.69
229.424	42.15
229.642	-7
229.86	29.87
230.077	72.87
230.295	38.06
230.513	31.91
230.731	58.54
230.948	33.96
231.166	54.44
231.384	-72.53
231.601	-2.9
231.819	33.96
232.037	23.72
232.254	-43.86
232.472	-2.9
232.689	-19.29
232.907	42.15
233.125	46.25
233.342	11.43
233.56	66.73
233.777	-52.05
233.995	13.48
234.213	-25.43
234.43	25.77
234.648	40.11
234.865	-17.24
235.083	-2.9
235.3	-2.9
235.518	64.68
235.735	36.01
235.953	177.32
236.17	23.72
236.388	31.91
236.605	-54.1
236.822	-2.9
237.04	11.43
237.257	-13.14
237.475	54.44
237.692	42.15
237.909	29.87
238.127	56.49
238.344	154.79
238.562	29.87
238.779	13.48
238.996	-41.81
239.214	-15.19
239.431	25.77
239.648	1.19
239.865	62.63
240.083	31.91
240.3	13.48
240.517	9.39
240.735	5.29
240.952	101.55
241.169	52.39
241.386	17.58
241.603	-2.9
241.821	13.48
242.038	66.73
242.255	38.06
242.472	64.68
242.689	-9.05
242.907	23.72
243.124	-62.29
243.341	13.48
243.558	29.87
243.775	13.48
243.992	-7
244.209	3.24
244.426	64.68
244.643	25.77
244.86	13.48
245.078	-11.09
245.295	23.72
245.512	76.97
245.729	17.58
245.946	-9.05
246.163	46.25
246.38	21.67
246.597	21.67
246.814	15.53
247.031	17.58
247.248	17.58
247.464	-15.19
247.681	-0.85
247.898	46.25
248.115	-19.29
248.332	46.25
248.549	23.72
248.766	91.31
248.983	38.06
249.2	25.77
249.417	148.65
249.633	3.24
249.85	79.02
250.067	19.63
250.284	-35.67
250.501	58.54
250.717	-43.86
250.934	-41.81
251.151	66.73
251.368	-13.14
251.585	46.25
251.801	-27.48
252.018	46.25
252.235	54.44
252.451	-7
252.668	60.59
252.885	21.67
253.102	101.55
253.318	25.77
253.535	-25.43
253.752	-25.43
253.968	-47.96
254.185	54.44
254.401	21.67
254.618	19.63
254.835	46.25
255.051	48.3
255.268	-23.38
255.484	-0.85
255.701	-21.33
255.917	87.21
256.134	-37.72
256.351	25.77
256.567	54.44
256.784	23.72
257	-45.91
257.217	-2.9
257.433	31.91
257.65	46.25
257.866	-7
258.082	-39.76
258.299	-43.86
258.515	23.72
258.732	-19.29
258.948	-11.09
259.165	21.67
259.381	-11.09
259.597	56.49
259.814	-33.62
260.03	-11.09
260.246	5.29
260.463	-52.05
260.679	56.49
260.895	-23.38
261.112	54.44
261.328	62.63
261.544	-41.81
261.761	95.4
261.977	-43.86
262.193	-19.29
262.409	-11.09
262.626	23.72
262.842	1.19
263.058	13.48
263.274	87.21
263.49	54.44
263.707	13.48
263.923	38.06
264.139	-15.19
264.355	29.87
264.571	-29.52
264.787	38.06
265.004	62.63
265.22	-0.85
265.436	-35.67
265.652	-4.95
265.868	19.63
266.084	76.97
266.3	29.87
266.516	-13.14
266.732	-11.09
266.948	-43.86
267.164	21.67
267.38	54.44
267.596	23.72
267.812	126.12
268.028	-25.43
268.244	56.49
268.46	1.19
268.676	25.77
268.892	87.21
269.108	-19.29
269.324	54.44
269.54	31.91
269.756	13.48
269.972	38.06
270.188	7.34
270.403	17.58
270.619	-80.72
270.835	38.06
271.051	-2.9
271.267	64.68
271.483	38.06
271.698	-25.43
271.914	-31.57
272.13	-9.05
272.346	-25.43
272.562	46.25
272.777	25.77
272.993	-27.48
273.209	56.49
273.425	52.39
273.64	5.29
273.856	31.91
274.072	40.11
274.287	58.54
274.503	9.39
274.719	54.44
274.934	-66.39
275.15	-56.15
275.366	70.83
275.581	-23.38
275.797	-58.2
276.012	-41.81
276.228	7.34
276.444	83.11
276.659	42.15
276.875	-47.96
277.09	-64.34
277.306	31.91
277.521	17.58
277.737	-25.43
277.952	95.4
278.168	33.96
278.383	50.35
278.599	66.73
278.814	5.29
279.03	54.44
279.245	27.82
279.461	-9.05
279.676	1.19
279.892	15.53
280.107	58.54
280.322	21.67
280.538	-9.05
280.753	11.43
280.969	50.35
281.184	40.11
281.399	-50
281.615	72.87
281.83	29.87
282.045	-21.33
282.26	-11.09
282.476	-7
282.691	13.48
282.906	25.77
283.122	50.35
283.337	-9.05
283.552	79.02
283.767	46.25
283.983	31.91
284.198	46.25
284.413	15.53
284.628	-45.91
284.843	46.25
285.058	48.3
285.274	62.63
285.489	9.39
285.704	56.49
285.919	1.19
286.134	-0.85
286.349	17.58
286.564	38.06
286.779	-31.57
286.995	70.83
287.21	-13.14
287.425	68.78
287.64	17.58
287.855	25.77
288.07	21.67
288.285	62.63
288.5	70.83
288.715	1.19
288.93	13.48
289.145	-29.52
289.36	87.21
289.575	38.06
289.79	31.91
290.004	-39.76
290.219	29.87
290.434	31.91
290.649	-76.63
290.864	-60.24
291.079	7.34
291.294	1.19
291.509	29.87
291.724	-35.67
291.938	62.63
292.153	27.82
292.368	87.21
292.583	33.96
292.798	79.02
293.012	70.83
293.227	52.39
293.442	40.11
293.657	46.25
293.871	13.48
294.086	-95.06
294.301	13.48
294.516	19.63
294.73	25.77
294.945	-2.9
295.16	9.39
295.374	23.72
295.589	13.48
295.804	31.91
296.018	-52.05
296.233	62.63
296.447	9.39
296.662	-50
296.877	111.78
297.091	9.39
297.306	-27.48
297.52	-4.95
297.735	9.39
297.949	74.92
298.164	15.53
298.378	-27.48
298.593	13.48
298.807	29.87
299.022	29.87
299.236	62.63
299.451	19.63
299.665	17.58
299.88	-35.67
300.094	-21.33
300.309	38.06
300.523	85.16
300.737	7.34
300.952	83.11
301.166	21.67
301.381	-31.57
301.595	-31.57
301.809	17.58
302.024	-66.39
302.238	-58.2
302.452	56.49
302.667	-47.96
302.881	46.25
303.095	-2.9
303.309	79.02
303.524	-7
303.738	13.48
303.952	-0.85
304.166	29.87
304.381	-17.24
304.595	46.25
304.809	-54.1
305.023	72.87
305.237	-0.85
305.452	54.44
305.666	1.19
305.88	38.06
306.094	1.19
306.308	81.07
306.522	38.06
306.736	70.83
306.95	33.96
307.164	29.87
307.379	3.24
307.593	31.91
307.807	54.44
308.021	25.77
308.235	101.55
308.449	-27.48
308.663	17.58
308.877	79.02
309.091	38.06
309.305	23.72
309.519	-113.49
309.733	60.59
309.947	29.87
310.161	64.68
310.374	72.87
310.588	48.3
310.802	54.44
311.016	-19.29
311.23	40.11
311.444	38.06
311.658	40.11
311.872	62.63
312.085	-64.34
312.299	58.54
312.513	-41.81
312.727	44.2
312.941	38.06
313.154	95.4
313.368	-9.05
313.582	5.29
313.796	31.91
314.009	-2.9
314.223	-11.09
314.437	33.96
314.651	5.29
314.864	-45.91
315.078	21.67
315.292	-2.9
315.505	29.87
315.719	23.72
315.933	70.83
316.146	17.58
316.36	-2.9
316.573	21.67
316.787	36.01
317.001	33.96
317.214	-11.09
317.428	50.35
317.641	17.58
317.855	46.25
318.068	1.19
318.282	23.72
318.495	27.82
318.709	29.87
318.922	31.91
319.136	70.83
319.349	-2.9
319.563	-80.72
319.776	-17.24
319.99	-19.29
320.203	54.44
320.417	-13.14
320.63	29.87
320.843	38.06
321.057	23.72
321.27	44.2
321.483	-47.96
321.697	62.63
321.91	38.06
322.124	23.72
322.337	15.53
322.55	17.58
322.763	-2.9
322.977	38.06
323.19	23.72
323.403	99.5
323.617	-43.86
323.83	85.16
324.043	1.19
324.256	-23.38
324.469	-7
324.683	15.53
324.896	-0.85
325.109	46.25
325.322	17.58
325.535	99.5
325.748	95.4
325.962	11.43
326.175	46.25
326.388	31.91
326.601	58.54
326.814	-2.9
327.027	17.58
327.24	1.19
327.453	-2.9
327.666	-9.05
327.879	21.67
328.092	40.11
328.305	21.67
328.518	1.19
328.731	-11.09
328.944	7.34
329.157	17.58
329.37	-56.15
329.583	68.78
329.796	103.59
330.009	-33.62
330.222	5.29
330.435	-15.19
330.648	13.48
330.861	-19.29
331.073	38.06
331.286	33.96
331.499	31.91
331.712	-19.29
331.925	-43.86
332.138	95.4
332.35	74.92
332.563	15.53
332.776	-7
332.989	-15.19
333.202	1.19
333.414	54.44
333.627	-11.09
333.84	17.58
334.053	29.87
334.265	3.24
334.478	-41.81
334.691	58.54
334.903	-11.09
335.116	5.29
335.329	95.4
335.541	50.35
335.754	29.87
335.966	56.49
336.179	91.31
336.392	-17.24
336.604	21.67
336.817	40.11
337.029	72.87
337.242	-2.9
337.454	81.07
337.667	-52.05
337.88	103.59
338.092	13.48
338.305	29.87
338.517	23.72
338.729	-15.19
338.942	72.87
339.154	27.82
339.367	-52.05
339.579	-27.48
339.792	-9.05
340.004	62.63
340.217	99.5
340.429	87.21
340.641	-33.62
340.854	7.34
341.066	-39.76
341.278	21.67
341.491	13.48
341.703	46.25
341.915	40.11
342.128	-0.85
342.34	13.48
342.552	21.67
342.764	68.78
342.977	23.72
343.189	54.44
343.401	-39.76
343.613	36.01
343.826	25.77
344.038	-35.67
344.25	68.78
344.462	7.34
344.674	-43.86
344.886	13.48
345.099	56.49
345.311	54.44
345.523	31.91
345.735	-0.85
345.947	-4.95
346.159	13.48
346.371	54.44
346.583	-15.19
346.795	87.21
347.007	3.24
347.219	-4.95
347.431	42.15
347.643	38.06
347.855	-17.24
348.067	-58.2
348.279	38.06
348.491	62.63
348.703	74.92
348.915	-4.95
349.127	-80.72
349.339	-17.24
349.551	-0.85
349.763	79.02
349.975	64.68
350.187	27.82
350.399	97.45
350.61	-4.95
350.822	21.67
351.034	38.06
351.246	97.45
351.458	19.63
351.669	95.4
351.881	44.2
352.093	1.19
352.305	25.77
352.517	-25.43
352.728	40.11
352.94	38.06
353.152	48.3
353.363	-56.15
353.575	58.54
353.787	58.54
353.999	81.07
354.21	56.49
354.422	17.58
354.633	1.19
354.845	5.29
355.057	54.44
355.268	58.54
355.48	17.58
355.692	-25.43
355.903	99.5
356.115	-2.9
356.326	-70.48
356.538	79.02
356.749	25.77
356.961	48.3
357.172	13.48
357.384	36.01
357.595	52.39
357.807	-76.63
358.018	-2.9
358.23	68.78
358.441	87.21
358.653	56.49
358.864	7.34
359.075	-11.09
359.287	9.39
359.498	64.68
359.709	-76.63
359.921	60.59
360.132	23.72
360.344	31.91
360.555	29.87
360.766	-19.29
360.977	29.87
361.189	15.53
361.4	33.96
361.611	95.4
361.823	19.63
362.034	66.73
362.245	-43.86
362.456	17.58
362.667	40.11
362.879	29.87
363.09	52.39
363.301	-33.62
363.512	-27.48
363.723	74.92
363.935	40.11
364.146	89.26
364.357	13.48
364.568	85.16
364.779	7.34
364.99	62.63
365.201	-82.77
365.412	-23.38
365.623	-33.62
365.834	124.07
366.045	33.96
366.256	81.07
366.467	58.54
366.678	13.48
366.889	31.91
367.1	23.72
367.311	85.16
367.522	-62.29
367.733	54.44
367.944	46.25
368.155	23.72
368.366	91.31
368.577	21.67
368.788	136.36
368.999	38.06
369.209	62.63
369.42	152.74
369.631	68.78
369.842	70.83
370.053	40.11
370.264	42.15
370.474	-2.9
370.685	-58.2
370.896	5.29
371.107	36.01
371.317	-39.76
371.528	-0.85
371.739	23.72
371.95	50.35
372.16	79.02
372.371	42.15
372.582	52.39
372.792	81.07
373.003	-15.19
373.214	33.96
373.424	124.07
373.635	-66.39
373.846	23.72
374.056	60.59
374.267	11.43
374.477	15.53
374.688	-68.44
374.898	64.68
375.109	-56.15
375.319	46.25
375.53	46.25
375.74	109.74
375.951	36.01
376.161	13.48
376.372	48.3
376.582	21.67
376.793	56.49
377.003	-27.48
377.214	29.87
377.424	101.55
377.635	5.29
377.845	-62.29
378.055	21.67
378.266	40.11
378.476	56.49
378.686	42.15
378.897	66.73
379.107	29.87
379.317	72.87
379.528	21.67
379.738	17.58
379.948	13.48
380.158	58.54
380.369	25.77
380.579	13.48
380.789	50.35
380.999	1.19
381.21	17.58
381.42	64.68
381.63	56.49
381.84	31.91
382.05	56.49
382.261	29.87
382.471	46.25
382.681	29.87
382.891	103.59
383.101	56.49
383.311	38.06
383.521	62.63
383.731	15.53
383.941	54.44
384.151	11.43
384.361	119.98
384.571	68.78
384.781	54.44
384.991	87.21
385.201	9.39
385.411	19.63
385.621	38.06
385.831	62.63
386.041	46.25
386.251	62.63
386.461	128.17
386.671	-52.05
386.881	64.68
387.091	23.72
387.301	60.59
387.511	-11.09
387.72	99.5
387.93	124.07
388.14	-31.57
388.35	50.35
388.56	64.68
388.769	38.06
388.979	81.07
389.189	-41.81
389.399	72.87
389.609	-13.14
389.818	-9.05
390.028	-27.48
390.238	107.69
390.447	48.3
390.657	48.3
390.867	70.83
391.076	-19.29
391.286	38.06
391.496	31.91
391.705	38.06
391.915	-0.85
392.125	46.25
392.334	13.48
392.544	31.91
392.753	-23.38
392.963	9.39
393.172	60.59
393.382	48.3
393.591	66.73
393.801	-29.52
394.01	119.98
394.22	154.79
394.429	-27.48
394.639	23.72
394.848	93.35
395.058	9.39
395.267	19.63
395.477	56.49
395.686	105.64
395.895	79.02
396.105	103.59
396.314	38.06
396.524	48.3
396.733	56.49
396.942	126.12
397.152	95.4
397.361	119.98
397.57	-0.85
397.78	132.26
397.989	54.44
398.198	111.78
398.407	17.58
398.617	83.11
398.826	9.39
399.035	107.69
399.244	74.92
399.453	122.02
399.663	103.59
399.872	46.25
400.081	105.64
400.29	134.31
400.499	46.25
400.708	113.83
400.917	29.87
401.127	111.78
401.336	38.06
401.545	210.09
401.754	128.17
401.963	111.78
402.172	29.87
402.381	79.02
402.59	103.59
402.799	87.21
403.008	107.69
403.217	89.26
403.426	107.69
403.635	87.21
403.844	93.35
404.053	132.26
404.262	72.87
404.471	216.23
404.68	95.4
404.888	60.59
405.097	169.13
405.306	162.98
405.515	105.64
405.724	136.36
405.933	144.55
406.142	140.46
406.35	185.51
406.559	154.79
406.768	152.74
406.977	146.6
407.185	136.36
407.394	214.18
407.603	74.92
407.812	119.98
408.02	146.6
408.229	167.08
408.438	177.32
408.646	154.79
408.855	185.51
409.064	218.28
409.272	208.04
409.481	244.9
409.69	246.95
409.898	240.81
410.107	251.05
410.315	271.53
410.524	193.7
410.733	226.47
410.941	228.52
411.15	251.05
411.358	283.81
411.567	335.01
411.775	337.06
411.984	330.92
412.192	335.01
412.401	345.25
412.609	408.74
412.818	441.51
413.026	443.56
413.234	443.56
413.443	382.12
413.651	367.78
413.86	484.52
414.068	421.03
414.276	537.76
414.485	541.86
414.693	496.8
414.901	554.15
415.11	527.52
415.318	568.48
415.526	529.57
415.734	593.06
415.943	617.63
416.151	652.45
416.359	668.83
416.567	693.41
416.776	707.74
416.984	707.74
417.192	785.57
417.4	744.61
417.608	914.59
417.817	859.29
418.025	849.05
418.233	996.51
418.441	754.85
418.649	957.6
418.857	988.32
419.065	980.12
419.273	1094.81
419.481	1105.05
419.689	1103
419.897	1213.59
420.105	1158.3
420.313	1275.03
420.521	1285.27
420.729	1283.22
420.937	1236.12
421.145	1430.68
421.353	1395.86
421.561	1465.49
421.769	1553.55
421.977	1588.37
422.185	1641.62
422.393	1803.41
422.601	1754.26
422.809	1813.65
423.017	1758.35
423.224	1823.89
423.432	1971.34
423.64	2006.16
423.848	2225.29
424.056	2077.83
424.263	2278.54
424.471	2299.02
424.679	2339.97
424.887	2337.93
425.094	2555.01
425.302	2571.4
425.51	2489.48
425.718	2557.06
425.925	2700.42
426.133	2823.3
426.341	2980.99
426.548	3044.48
426.756	3060.86
426.964	3030.14
427.171	3222.65
427.379	3376.25
427.586	3327.1
427.794	3474.55
428.001	3740.79
428.209	3966.06
428.417	3773.55
428.624	4068.46
428.832	4035.69
429.039	4144.24
429.247	4213.87
429.454	4293.74
429.662	4781.15
429.869	4355.18
430.076	4760.67
430.284	4609.12
430.491	4955.23
430.699	5112.92
430.906	5217.37
431.114	5108.83
431.321	5278.81
431.528	5672.02
431.736	5727.32
431.943	5925.97
432.15	5794.9
432.358	5846.1
432.565	6110.29
432.772	6007.89
432.979	6468.68
433.187	6659.14
433.394	6681.67
433.601	7038.02
433.808	7115.84
434.016	7009.34
434.223	7578.68
434.43	7834.68
434.637	7732.28
434.844	8154.16
435.052	8352.81
435.259	8262.7
435.466	8375.34
435.673	8256.56
435.88	8752.17
436.087	9303.07
436.294	9239.58
436.501	9077.79
436.708	9212.96
436.915	9456.67
437.122	10050.58
437.329	10077.2
437.537	10032.15
437.743	10269.71
437.95	10339.34
438.157	10998.79
438.364	11072.51
438.571	11088.9
438.778	11209.73
438.985	12182.51
439.192	11832.31
439.399	12162.03
439.606	11820.02
439.813	12393.45
440.02	13433.82
440.227	12794.86
440.433	13239.26
440.64	13345.76
440.847	13325.28
441.054	13681.63
441.261	14527.44
441.467	14332.88
441.674	14506.96
441.881	15053.76
442.088	15010.76
442.294	15010.76
442.501	15391.68
442.708	15512.51
442.914	16473.01
443.121	17011.62
443.328	16606.13
443.534	17496.99
443.741	17197.99
443.948	17005.48
444.154	18144.15
444.361	18066.33
444.568	18039.7
444.774	18002.84
444.981	18324.37
445.187	18877.32
445.394	19624.83
445.6	19438.47
445.807	21275.49
446.013	20540.27
446.22	20491.12
446.426	21320.55
446.633	21773.15
446.839	22354.77
447.046	21576.55
447.252	22737.74
447.459	22717.26
447.665	22788.94
447.871	23642.95
448.078	24646.45
448.284	23282.5
448.491	24089.4
448.697	24912.69
448.903	25760.55
449.11	25727.78
449.316	25266.99
449.522	25869.09
449.728	26393.37
449.935	26645.27
450.141	26878.74
450.347	27284.23
450.553	26456.85
450.76	26977.04
450.966	27548.42
451.172	27136.78
451.378	28355.32
451.584	27505.41
451.791	28394.23
451.997	28082.94
452.203	28625.65
452.409	28721.91
452.615	28732.15
452.821	27308.81
453.027	27462.41
453.233	28560.12
453.44	27564.81
453.646	27855.62
453.852	28025.6
454.058	28533.5
454.264	27716.36
454.47	28304.12
454.676	27521.8
454.882	28730.1
455.088	26235.67
455.294	26559.25
455.5	26911.5
455.705	27253.51
455.911	26069.79
456.117	25598.76
456.323	25287.46
456.529	24286.01
456.735	25207.59
456.941	24439.61
457.147	24163.13
457.352	23540.55
457.558	23268.17
457.764	23169.87
457.97	22911.82
458.176	22477.65
458.381	21926.75
458.587	21148.52
458.793	21388.13
458.999	20292.47
459.204	21506.91
459.41	20749.17
459.616	19682.17
459.821	19721.09
460.027	19749.76
460.233	19235.72
460.438	18346.9
460.644	18463.63
460.85	17605.53
461.055	17271.72
461.261	17675.16
461.466	16145.33
461.672	15705.02
461.878	16642.99
462.083	15463.36
462.289	15152.07
462.494	14986.18
462.7	14521.29
462.905	14242.77
463.111	14814.15
463.316	14470.09
463.522	14068.69
463.727	14300.11
463.932	14347.22
464.138	14279.63
464.343	14218.19
464.549	13622.23
464.754	14089.17
464.959	14085.08
465.165	14095.32
465.37	13231.07
465.575	13108.19
465.781	13771.74
465.986	13560.8
466.191	13171.68
466.397	12786.66
466.602	12309.49
466.807	12735.46
467.012	12854.25
467.218	12706.79
467.423	12563.43
467.628	12993.51
467.833	13057
468.038	12762.09
468.244	12231.66
468.449	12856.29
468.654	12352.49
468.859	12440.56
469.064	12135.41
469.269	11686.9
469.474	11789.3
469.679	12180.46
469.885	11561.98
470.09	11983.86
470.295	11762.68
470.5	11230.21
470.705	11494.4
470.91	11334.65
471.115	11224.06
471.32	11351.04
471.525	11373.57
471.73	11082.75
471.935	10814.47
472.139	10705.93
472.344	10855.43
472.549	10714.12
472.754	10705.93
472.959	10548.23
473.164	10261.52
473.369	10073.1
473.574	10570.76
473.778	10351.63
473.983	10376.2
474.188	10363.92
474.393	9737.24
474.598	9976.85
474.802	9557.02
475.007	9737.24
475.212	9868.31
475.417	9225.25
475.621	9409.56
475.826	9479.19
476.031	9190.43
476.235	9112.61
476.44	9174.05
476.645	8819.75
476.849	9147.42
477.054	9008.16
477.259	8782.88
477.463	8784.93
477.668	8422.44
477.872	8647.72
478.077	8617
478.282	8387.63
478.486	8170.54
478.691	8078.38
478.895	8293.42
479.1	8115.25
479.304	7988.27
479.509	7883.83
479.713	7951.41
479.918	7943.22
480.122	7640.12
480.326	7734.32
480.531	7732.28
480.735	7562.3
480.94	7824.44
481.144	7789.62
481.348	7574.58
481.553	7636.02
481.757	7525.43
481.961	7363.64
482.166	7724.08
482.37	7423.03
482.574	7525.43
482.778	7435.32
482.983	7636.02
483.187	7449.66
483.391	7535.67
483.595	7459.9
483.8	7533.62
484.004	7472.18
484.208	7521.34
484.412	7396.41
484.616	7431.23
484.821	7515.19
485.025	7330.87
485.229	7420.99
485.433	7560.25
485.637	7463.99
485.841	7357.5
486.045	7418.94
486.249	7496.76
486.453	7390.27
486.657	7394.36
486.861	7529.53
487.065	7410.75
487.269	7507
487.473	7365.69
487.677	7474.23
487.881	7756.85
488.085	7459.9
488.289	7668.79
488.493	7457.85
488.697	7435.32
488.901	7676.98
489.105	7398.46
489.309	7699.51
489.512	7445.56
489.716	7373.88
489.92	7576.63
490.124	7545.91
490.328	7560.25
490.531	7586.87
490.735	7726.13
490.939	7783.48
491.143	7877.68
491.346	7760.95
491.55	7892.02
491.754	7758.9
491.958	7937.07
492.161	7904.31
492.365	8131.63
492.569	7857.2
492.772	7896.11
492.976	7928.88
493.18	7908.4
493.383	8152.11
493.587	8199.21
493.79	8096.82
493.994	8148.01
494.197	8326.19
494.401	8178.73
494.605	8264.75
494.808	8426.54
495.012	8330.28
495.215	8420.39
495.419	8508.46
495.622	8387.63
495.825	8797.22
496.029	8827.94
496.232	9004.07
496.436	8541.22
496.639	9059.36
496.843	8991.78
497.046	9301.02
497.249	9190.43
497.453	9372.7
497.656	9415.71
497.859	9487.39
498.063	9399.32
498.266	9833.49
498.469	9724.95
498.673	9954.32
498.876	10054.67
499.079	10191.89
499.282	10048.53
499.485	10462.22
499.689	10394.64
499.892	10408.97
500.095	10484.75
500.298	10722.31
500.501	10693.64
500.705	11060.23
500.908	11056.13
501.111	11250.69
501.314	11310.08
501.517	11611.13
501.72	11453.44
501.923	11582.46
502.126	11842.55
502.329	11992.05
502.532	12057.59
502.735	12352.49
502.938	12291.06
503.141	12450.8
503.344	12413.93
503.547	12858.34
503.75	13046.76
503.953	13294.56
504.156	13128.67
504.359	13046.76
504.562	13349.85
504.765	13671.39
504.968	13759.45
505.17	14144.47
505.373	13919.19
505.576	14332.88
505.779	14076.88
505.982	14357.46
506.185	14873.54
506.387	14816.2
506.59	15086.53
506.793	15246.27
506.996	15293.38
507.198	15680.44
507.401	15526.85
507.604	15729.59
507.807	16094.13
508.009	16192.44
508.212	16163.76
508.415	16462.77
508.617	16659.37
508.82	16616.37
509.022	16620.46
509.225	17081.25
509.428	17286.05
509.63	17388.45
509.833	17339.3
510.035	18015.13
510.238	17828.76
510.44	17957.78
510.643	18559.89
510.845	18545.55
511.048	18563.98
511.25	18727.82
511.453	18699.15
511.655	19327.88
511.858	19205
512.06	19487.62
512.262	19745.66
512.465	19886.97
512.667	19841.92
512.87	20167.54
513.072	20079.48
513.274	20603.76
513.477	20779.89
513.679	20935.53
513.881	21171.05
514.084	21568.35
514.286	21506.91
514.488	21656.42
514.69	22360.92
514.893	22156.12
515.095	22354.77
515.297	22719.31
515.499	22696.78
515.701	22856.53
515.904	23231.3
516.106	23327.56
516.308	23536.45
516.51	23780.16
516.712	23589.7
516.914	24324.92
517.116	24636.21
517.318	24398.65
517.52	24773.42
517.722	24906.54
517.925	25072.43
518.127	25357.1
518.329	25576.23
518.531	25658.15
518.733	26217.24
518.935	26546.97
519.136	26223.39
519.338	26493.72
519.54	26751.76
519.742	27368.2
519.944	26897.17
520.146	27677.44
520.348	27728.64
520.55	28103.42
520.752	28060.41
520.954	28588.79
521.155	28146.43
521.357	28943.09
521.559	28934.9
521.761	29309.68
521.963	28922.61
522.164	29332.2
522.366	29768.42
522.568	29749.99
522.77	30022.37
522.971	30337.76
523.173	30173.92
523.375	30616.28
523.576	30022.37
523.778	30780.12
523.98	30855.89
524.181	31091.41
524.383	30997.2
524.584	31425.23
524.786	31681.22
524.988	31337.16
525.189	32021.19
525.391	32023.23
525.592	32088.77
525.794	32379.58
525.995	32225.98
526.197	32264.89
526.398	32633.53
526.6	33000.12
526.801	32895.67
527.003	33000.12
527.204	33092.27
527.406	33417.9
527.607	33045.17
527.808	33788.58
528.01	32785.08
528.211	33307.31
528.412	34024.1
528.614	33907.37
528.815	34042.53
529.016	33977
529.218	34091.68
529.419	34050.72
529.62	34349.73
529.822	34198.18
530.023	34570.91
530.224	34204.32
530.425	34241.18
530.626	33917.61
530.828	34073.25
531.029	34611.87
531.23	34269.86
531.431	34523.8
531.632	34386.59
531.833	34839.19
532.035	34914.97
532.236	34532
532.437	34804.38
532.638	34325.15
532.839	34794.14
533.04	34785.94
533.241	34593.43
533.442	35054.23
533.643	35148.43
533.844	34503.32
534.045	34663.07
534.246	34493.08
534.447	35340.94
534.648	35037.84
534.849	35080.85
535.05	34706.07
535.251	34671.26
535.451	35113.62
535.652	35007.12
535.853	34663.07
536.054	35064.47
536.255	34914.97
536.456	34585.24
536.657	35478.16
536.857	34960.02
537.058	35033.75
537.259	35338.9
537.46	34839.19
537.66	34597.53
537.861	34986.64
538.062	35037.84
538.263	35013.27
538.463	34704.03
538.664	35179.15
538.865	34857.62
539.065	35101.33
539.266	34579.1
539.466	35189.39
539.667	34667.16
539.868	35244.69
540.068	35076.76
540.269	35113.62
540.469	34908.82
540.67	34857.62
540.87	34765.46
541.071	34429.6
541.271	34892.44
541.472	35402.38
541.672	34644.63
541.873	34706.07
542.073	34273.95
542.274	34947.73
542.474	34718.36
542.675	34753.18
542.875	34845.33
543.075	34642.59
543.276	34876.05
543.476	35113.62
543.676	34841.24
543.877	35136.15
544.077	34708.12
544.277	34491.04
544.478	34271.9
544.678	34816.66
544.878	34476.7
545.078	34792.09
545.279	34482.84
545.479	34599.58
545.679	34650.78
545.879	34507.42
546.079	34816.66
546.28	34241.18
546.48	34482.84
546.68	34874.01
546.88	34669.21
547.08	34329.25
547.28	34357.92
547.48	34249.38
547.68	34333.34
547.88	34187.94
548.081	34505.37
548.281	34454.17
548.481	34331.29
548.681	34841.24
548.881	34384.54
549.081	34224.8
549.28	34321.05
549.48	34450.08
549.68	34175.65
549.88	34546.33
550.08	34253.47
550.28	34359.97
550.48	34032.29
550.68	34458.27
550.88	34216.61
551.08	34151.07
551.279	34157.22
551.479	34091.68
551.679	34364.06
551.879	33931.94
552.079	34615.96
552.278	33938.08
552.478	34185.89
552.678	33874.6
552.878	34675.35
553.077	34046.63
553.277	33983.14
553.477	34142.88
553.676	34065.06
553.876	33878.69
554.076	33655.47
554.275	33950.37
554.475	33260.21
554.674	34169.51
554.874	33761.96
555.074	33890.98
555.273	34028.2
555.473	34108.07
555.672	33731.24
555.872	33688.23
556.071	33774.25
556.271	33712.81
556.47	33514.16
556.67	33391.28
556.869	33563.31
557.068	33655.47
557.268	33278.64
557.467	33260.21
557.667	33551.02
557.866	33409.71
558.065	33745.58
558.265	33309.36
558.464	33342.13
558.663	33422
558.863	32916.15
559.062	33422
559.261	33129.14
559.461	33118.9
559.66	32989.88
559.859	33063.6
560.058	32813.75
560.258	32932.53
560.457	32096.96
560.656	33032.88
560.855	32926.39
561.054	33084.08
561.253	32588.47
561.453	32836.28
561.652	32885.43
561.851	32979.64
562.05	32486.07
562.249	32477.88
562.448	32787.13
562.647	32615.1
562.846	32678.58
563.045	32336.57
563.244	32228.03
563.443	32187.07
563.642	31949.51
563.841	32262.85
564.04	31931.08
564.239	32502.46
564.438	31969.99
564.637	32074.43
564.836	31998.66
565.035	31685.32
565.234	32166.59
565.432	31828.68
565.631	31503.05
565.83	31855.3
566.029	31517.39
566.228	31709.89
566.427	31523.53
566.625	31298.25
566.824	31466.19
567.023	31566.54
567.222	30911.19
567.42	31240.91
567.619	31185.61
567.818	31015.63
568.016	31298.25
568.215	31474.38
568.414	30765.78
568.612	30943.95
568.811	30794.45
569.01	30636.76
569.208	30012.13
569.407	30952.15
569.605	30466.78
569.804	30804.69
570.002	29985.51
570.201	30653.14
570.4	30073.57
570.598	30083.81
570.797	29827.81
570.995	30081.76
571.193	29479.66
571.392	30180.06
571.59	29668.07
571.789	29813.48
571.987	29876.96
572.186	29493.99
572.384	29854.44
572.582	29659.88
572.781	29571.82
572.979	29180.65
573.177	29299.44
573.376	29233.9
573.574	28975.86
573.772	29016.82
573.971	29211.37
574.169	28932.85
574.367	28891.89
574.565	29297.39
574.763	28476.15
574.962	28670.71
575.16	28560.12
575.358	28893.94
575.556	28351.23
575.754	28672.76
575.952	28443.38
576.151	28498.68
576.349	28205.82
576.547	28132.09
576.745	28365.56
576.943	28125.95
577.141	27912.96
577.339	28228.35
577.537	28107.52
577.735	27749.12
577.933	27312.91
578.131	27620.1
578.329	27474.7
578.527	27226.89
578.725	27573
578.923	27423.5
579.121	27407.11
579.319	27386.63
579.516	27396.87
579.714	27400.97
579.912	27099.92
580.11	26800.91
580.308	27216.65
580.506	27038.48
580.704	26506.01
580.901	26966.8
581.099	26825.49
581.297	26522.39
581.495	26526.49
581.692	26764.05
581.89	25948.96
582.088	26376.98
582.285	26166.04
582.483	26401.56
582.681	26295.07
582.878	26168.09
583.076	26170.14
583.274	26221.34
583.471	25811.74
583.669	25920.29
583.866	25860.9
584.064	25738.02
584.262	25459.49
584.459	25629.48
584.657	25531.17
584.854	25467.69
585.052	25334.57
585.249	25330.47
585.447	25555.75
585.644	25113.39
585.841	25191.21
586.039	25371.43
586.236	24912.69
586.434	24873.78
586.631	24754.99
586.828	24935.21
587.026	24777.52
587.223	24587.06
587.42	24773.42
587.618	24818.48
587.815	24296.25
588.012	24337.21
588.21	24380.21
588.407	24408.89
588.604	24173.37
588.801	24236.86
588.999	24349.5
589.196	24257.34
589.393	23941.95
589.59	23841.6
589.787	23892.8
589.984	23698.24
590.182	23593.79
590.379	23884.61
590.576	23358.28
590.773	23432.01
590.97	23761.73
591.167	23284.55
591.364	23272.26
591.561	23470.92
591.758	23202.63
591.955	23135.05
592.152	23345.99
592.349	23106.38
592.546	23016.27
592.743	22883.15
592.94	22655.82
593.137	22780.75
593.334	22688.59
593.531	22567.76
593.727	22575.95
593.924	22682.45
594.121	22309.72
594.318	22436.69
594.515	22135.64
594.712	22309.72
594.908	21967.71
595.105	22195.03
595.302	21820.25
595.499	22014.81
595.696	21775.2
595.892	21549.92
596.089	21861.21
596.286	21869.4
596.482	21304.17
596.679	21476.19
596.876	21556.07
597.072	21252.97
597.269	21574.5
597.466	21359.46
597.662	21027.69
597.859	21216.1
598.055	21173.1
598.252	21289.83
598.448	21021.55
598.645	21123.94
598.841	20915.05
599.038	20740.97
599.234	20759.41
599.431	20642.67
599.627	20634.48
599.824	20652.91
600.02	20722.54
600.217	20421.49
600.413	20407.16
600.609	20482.93
600.806	20245.37
601.002	20269.94
601.198	20059
601.395	19860.35
601.591	20083.58
601.787	19995.51
601.984	20044.66
602.18	20163.45
602.376	19626.88
602.572	19942.27
602.769	19657.6
602.965	19569.54
603.161	19776.38
603.357	19719.04
603.553	19512.19
603.75	19583.87
603.946	19272.58
604.142	19438.47
604.338	19233.67
604.534	19350.4
604.73	18957.19
604.926	19155.85
605.122	19190.66
605.318	19071.88
605.514	18928.52
605.71	18609.04
605.906	18549.65
606.102	18633.61
606.298	18766.73
606.494	18717.58
606.69	18647.95
606.886	18961.29
607.082	18336.66
607.278	18385.81
607.474	18224.02
607.67	18367.38
607.866	18043.8
608.062	18437.01
608.257	18318.23
608.453	18305.94
608.649	18174.87
608.845	18062.23
609.041	17984.41
609.236	18123.67
609.432	17927.07
609.628	18064.28
609.824	17939.35
610.019	17789.85
610.215	17830.81
610.411	17765.28
610.606	17884.06
610.802	17703.84
610.998	17896.35
611.193	17634.21
611.389	17673.12
611.584	17494.94
611.78	17707.93
611.976	17611.68
612.171	17654.69
612.367	17224.61
612.562	17433.5
612.758	16958.38
612.953	17245.09
613.149	17505.18
613.344	17120.17
613.539	17474.46
613.735	17152.93
613.93	17292.19
614.126	16927.66
614.321	17431.46
614.517	17138.6
614.712	17073.06
614.907	17038.25
615.103	17261.48
615.298	16810.92
615.493	16987.05
615.688	16765.87
615.884	17269.67
616.079	16452.53
616.274	16915.37
616.47	16980.9
616.665	16642.99
616.86	16714.67
617.055	16559.02
617.25	16763.82
617.445	16411.57
617.641	16448.43
617.836	16720.81
618.031	16335.79
618.226	16348.08
618.421	16362.42
618.616	16550.83
618.811	16071.61
619.006	16380.85
619.201	16026.55
619.396	16169.91
619.591	15727.55
619.786	16055.22
619.981	15815.61
620.176	15971.25
620.371	15543.23
620.566	15389.63
620.761	15678.4
620.956	15512.51
621.151	15219.65
621.346	15573.95
621.541	15193.03
621.735	15350.72
621.93	14762.95
622.125	15152.07
622.32	14726.09
622.515	15299.52
622.709	14830.54
622.904	14760.91
623.099	14676.94
623.294	14773.19
623.488	14191.57
623.683	14363.6
623.878	14357.46
624.072	14472.14
624.267	14279.63
624.462	14390.22
624.656	14107.6
624.851	14312.4
625.046	13992.92
625.24	13867.99
625.435	13470.69
625.629	13523.93
625.824	13677.53
626.018	13671.39
626.213	13409.25
626.407	13243.36
626.602	13267.94
626.796	13546.46
626.991	13323.23
627.185	13247.46
627.38	13075.43
627.574	13128.67
627.768	12782.57
627.963	12919.78
628.157	12612.59
628.352	12936.17
628.546	12555.24
628.74	12678.12
628.935	12506.09
629.129	12581.87
629.323	12235.76
629.517	12246
629.712	12293.1
629.906	12223.47
630.1	11826.17
630.294	12194.8
630.489	11887.61
630.683	12076.02
630.877	11785.21
631.071	11846.65
631.265	11891.7
631.459	11756.54
631.653	11953.14
631.848	11615.23
632.042	11559.93
632.236	11596.79
632.43	11461.63
632.624	11383.8
632.818	11146.24
633.012	11250.69
633.206	11133.95
633.4	11070.47
633.594	10884.1
633.788	10800.13
633.982	11066.37
634.176	10900.48
634.369	10931.2
634.563	10789.89
634.757	10697.74
634.951	10681.35
635.145	10503.18
635.339	10705.93
635.533	10482.7
635.726	10269.71
635.92	10501.13
636.114	10282
636.308	10251.28
636.501	10261.52
636.695	10175.5
636.889	10066.96
637.083	9985.04
637.276	10042.39
637.47	10099.73
637.664	9784.34
637.857	9962.51
638.051	9770.01
638.244	9872.4
638.438	9722.9
638.632	9597.98
638.825	9741.33
639.019	9471
639.212	9632.79
639.406	9376.8
639.599	9184.29
639.793	9421.85
639.986	9319.45
640.18	9231.39
640.373	9137.18
640.567	9114.66
640.76	9143.33
640.954	8999.97
641.147	9139.23
641.34	8811.56
641.534	9073.7
641.727	9055.26
641.92	9016.35
642.114	8866.85
642.307	8809.51
642.5	8504.36
642.694	8762.4
642.887	8698.92
643.08	8600.62
643.273	8434.73
643.467	8629.29
643.66	8365.1
643.853	8170.54
644.046	8209.45
644.239	8160.3
644.432	8121.39
644.626	8143.92
644.819	8035.38
645.012	7959.6
645.205	8295.47
645.398	7920.69
645.591	7877.68
645.784	7910.45
645.977	7914.55
646.17	7877.68
646.363	7763
646.556	7756.85
646.749	7740.47
646.942	7656.5
647.135	7676.98
647.328	7687.22
647.521	7517.24
647.714	7488.57
647.907	7396.41
648.099	7420.99
648.292	7582.77
648.485	7423.03
648.678	7222.33
648.871	7205.95
649.064	7230.52
649.256	7210.04
649.449	7199.8
649.642	7138.37
649.835	7140.41
650.027	7140.41
650.22	6741.06
650.413	7042.11
650.605	6972.48
650.798	6853.7
650.991	6814.79
651.183	6919.23
651.376	6792.26
651.568	6814.79
651.761	6749.25
651.954	6794.31
652.146	6552.65
652.339	6485.06
652.531	6673.48
652.724	6534.21
652.916	6380.62
653.109	6382.67
653.301	6511.69
653.494	6458.44
653.686	6206.54
653.879	6370.38
654.071	6345.8
654.263	6237.26
654.456	6173.77
654.648	6315.08
654.84	6165.58
655.033	5995.6
655.225	6143.05
655.417	6218.83
655.61	6247.5
655.802	6104.14
655.994	6016.08
656.186	5897.3
656.379	5977.17
656.571	5942.35
656.763	5876.82
656.955	5819.47
657.148	5798.99
657.34	5710.93
657.532	5698.64
657.724	5751.89
657.916	5635.16
658.108	5692.5
658.3	5710.93
658.492	5592.15
658.684	5608.53
658.876	5543
659.068	5477.46
659.26	5385.3
659.452	5510.23
659.644	5358.68
659.836	5379.16
660.028	5436.5
660.22	5239.9
660.412	5153.88
660.604	5174.36
660.796	5225.56
660.988	5416.02
661.18	5139.55
661.372	5207.13
661.563	5100.64
661.755	5065.82
661.947	5061.73
662.139	4832.35
662.331	5006.43
662.522	5078.11
662.714	5031.01
662.906	4926.56
663.097	4973.66
663.289	4805.73
663.481	4842.59
663.673	4916.32
663.864	4856.93
664.056	4875.36
664.247	4873.31
664.439	4695.14
664.631	4789.35
664.822	4740.19
665.014	4744.29
665.205	4686.95
665.397	4645.99
665.588	4625.51
665.78	4553.83
665.971	4510.82
666.163	4596.84
666.354	4428.9
666.546	4437.09
666.737	4512.87
666.929	4361.32
667.12	4437.09
667.311	4387.94
667.503	4400.23
667.694	4330.6
667.885	4201.58
668.077	4412.52
668.268	4330.6
668.459	4299.88
668.651	4398.18
668.842	4340.84
669.033	4039.79
669.224	4099.18
669.416	4396.14
669.607	4088.94
669.798	4080.75
669.989	4105.32
670.18	4076.65
670.371	4035.69
670.563	4093.04
670.754	4043.88
670.945	4037.74
671.136	4004.97
671.327	3884.14
671.518	3933.29
671.709	4050.03
671.9	3873.9
672.091	3863.66
672.282	3880.05
672.473	4007.02
672.664	3902.58
672.855	4011.12
673.046	3779.7
673.237	3890.29
673.428	3916.91
673.619	3884.14
673.809	3837.04
674	3849.33
674.191	3839.09
674.382	3728.5
674.573	3800.18
674.764	3748.98
674.954	3781.74
675.145	3687.54
675.336	3601.52
675.527	3806.32
675.717	3609.72
675.908	3667.06
676.099	3658.87
676.289	3728.5
676.48	3519.6
676.671	3703.92
676.861	3579
677.052	3691.63
677.243	3525.75
677.433	3486.84
677.624	3560.56
677.814	3478.65
678.005	3525.75
678.195	3519.6
678.386	3609.72
678.576	3554.42
678.767	3564.66
678.957	3368.06
679.148	3515.51
679.338	3593.33
679.529	3456.12
679.719	3402.87
679.909	3456.12
680.1	3552.37
680.29	3486.84
680.481	3460.21
680.671	3542.13
680.861	3415.16
681.052	3441.78
681.242	3449.97
681.432	3417.21
681.622	3429.49
681.813	3513.46
682.003	3386.49
682.193	3452.02
682.383	3454.07
682.573	3421.3
682.764	3380.34
682.954	3470.45
683.144	3361.91
683.334	3402.87
683.524	3273.85
683.714	3415.16
683.904	3316.86
684.094	3333.24
684.284	3376.25
684.474	3396.73
684.664	3273.85
684.854	3294.33
685.044	3255.42
685.234	3071.1
685.424	3345.53
685.614	3179.64
685.804	3134.59
685.994	3134.59
686.184	3187.83
686.374	3306.62
686.564	3130.49
686.753	3114.11
686.943	3118.2
687.133	3155.07
687.323	3019.9
687.513	3171.45
687.702	3261.56
687.892	3144.83
688.082	3071.1
688.272	3060.86
688.461	3044.48
688.651	3087.48
688.841	3040.38
689.03	3140.73
689.22	3089.53
689.41	3030.14
689.599	3087.48
689.789	3030.14
689.979	3005.56
690.168	2817.15
690.358	2868.35
690.547	2854.02
690.737	2966.65
690.926	2843.78
691.116	2841.73
691.305	2937.98
691.495	2876.54
691.684	2851.97
691.874	2643.07
692.063	2788.48
692.252	2839.68
692.442	2825.34
692.631	2733.18
692.82	2745.47
693.01	2831.49
693.199	2614.4
693.388	2655.36
693.578	2747.52
693.767	2630.79
693.956	2616.45
694.146	2532.48
694.335	2718.85
694.524	2620.55
694.713	2675.84
694.902	2688.13
695.092	2585.73
695.281	2634.88
695.47	2532.48
695.659	2643.07
695.848	2507.91
696.037	2552.96
696.226	2495.62
696.415	2509.96
696.604	2620.55
696.793	2569.35
696.982	2538.63
697.171	2581.64
697.36	2536.58
697.549	2397.32
697.738	2514.05
697.927	2563.2
698.116	2528.39
698.305	2458.76
698.494	2382.98
698.683	2552.96
698.872	2585.73
699.061	2448.52
699.25	2440.33
699.438	2397.32
699.627	2491.52
699.816	2452.61
700.005	2421.89
700.193	2462.85
700.382	2415.75
700.571	2446.47
700.76	2456.71
700.948	2507.91
701.137	2425.99
701.326	2344.07
701.514	2362.5
701.703	2409.61
701.892	2311.3
702.08	2346.12
702.269	2364.55
702.457	2286.73
702.646	2284.68
702.834	2425.99
703.023	2372.74
703.212	2354.31
703.4	2299.02
703.589	2227.34
703.777	2342.02
703.965	2282.63
704.154	2309.26
704.342	2286.73
704.531	2294.92
704.719	2194.57
704.907	2389.13
705.096	2225.29
705.284	2268.3
705.472	2401.41
705.661	2231.43
705.849	2204.81
706.037	2333.83
706.226	2208.9
706.414	2159.75
706.602	2284.68
706.79	2225.29
706.979	2286.73
707.167	2235.53
707.355	2120.84
707.543	2219.14
707.731	2192.52
707.919	2233.48
708.107	2266.25
708.296	2294.92
708.484	2163.85
708.672	2286.73
708.86	2299.02
709.048	2262.15
709.236	2266.25
709.424	2196.62
709.612	2153.61
709.8	2221.19
709.988	2292.87
710.176	2139.27
710.364	2245.77
710.551	2178.19
710.739	2301.06
710.927	2233.48
711.115	2225.29
711.303	2161.8
711.491	2251.91
711.679	2176.14
711.866	2299.02
712.054	2165.9
712.242	2178.19
712.43	2157.71
712.617	2188.43
712.805	2192.52
712.993	2151.56
713.181	2141.32
713.368	2294.92
713.556	2200.71
713.744	2241.67
713.931	2307.21
714.119	2221.19
714.306	2239.62
714.494	2169.99
714.682	2135.18
714.869	2184.33
715.057	2163.85
715.244	2094.22
715.432	2153.61
715.619	2045.07
715.807	2200.71
715.994	2245.77
716.182	2122.89
716.369	2159.75
716.556	2286.73
716.744	2237.58
716.931	2237.58
717.119	2151.56
717.306	2243.72
717.493	2139.27
717.681	2131.08
717.868	2243.72
718.055	2122.89
718.242	2090.12
718.43	2213
718.617	2213
718.804	2176.14
718.991	2088.07
719.179	2278.54
719.366	2213
719.553	2307.21
719.74	2196.62
719.927	2135.18
720.114	2143.37
720.301	2270.34
720.488	2036.88
720.676	2167.95
720.863	2196.62
721.05	2274.44
721.237	2153.61
721.424	2272.39
721.611	2147.47
721.798	2135.18
721.985	2194.57
722.172	2155.66
722.358	2227.34
722.545	2077.83
722.732	2028.68
722.919	2186.38
723.106	2131.08
723.293	2243.72
723.48	2202.76
723.667	2282.63
723.853	2217.1
724.04	2126.99
724.227	2270.34
724.414	2143.37
724.6	2284.68
724.787	2094.22
724.974	2223.24
725.161	2102.41
725.347	2071.69
725.534	2213
725.72	2239.62
725.907	2110.6
726.094	2213
726.28	2129.03
726.467	2153.61
726.653	2155.66
726.84	2196.62
727.027	2299.02
727.213	2227.34
727.4	2182.28
727.586	2196.62
727.773	2192.52
727.959	2249.86
728.145	2159.75
728.332	2176.14
728.518	2327.69
728.705	2153.61
728.891	2102.41
729.077	2202.76
729.264	2135.18
729.45	2167.95
729.636	2237.58
729.823	2104.46
730.009	2188.43
730.195	2210.95
730.382	2133.13
730.568	2243.72
730.754	2210.95
730.94	2225.29
731.126	2178.19
731.313	2217.1
731.499	2213
731.685	2299.02
731.871	2221.19
732.057	2104.46
732.243	2204.81
732.429	2202.76
732.615	2282.63
732.801	2200.71
732.987	2141.32
733.173	2122.89
733.359	2198.67
733.545	2276.49
733.731	2096.27
733.917	2245.77
734.103	2102.41
734.289	2120.84
734.475	2110.6
734.661	2342.02
734.847	2120.84
735.033	2235.53
735.219	2192.52
735.404	2143.37
735.59	2200.71
735.776	2098.31
735.962	2270.34
736.148	2229.38
736.333	2208.9
736.519	2274.44
736.705	2063.5
736.89	2200.71
737.076	2159.75
737.262	2233.48
737.447	2061.45
737.633	2112.65
737.819	2303.11
738.004	2186.38
738.19	2153.61
738.375	2122.89
738.561	2225.29
738.747	2186.38
738.932	2071.69
739.118	2151.56
739.303	2296.97
739.489	2186.38
739.674	2071.69
739.859	2098.31
740.045	2141.32
740.23	2129.03
740.416	2118.79
740.601	2108.55
740.786	2092.17
740.972	2081.93
741.157	2057.36
741.342	2090.12
741.528	1997.96
741.713	2079.88
741.898	2086.03
742.084	2126.99
742.269	2129.03
742.454	2016.4
742.639	2073.74
742.824	2049.16
743.01	2063.5
743.195	2030.73
743.38	2040.97
743.565	1987.72
743.75	2081.93
743.935	2051.21
744.12	1997.96
744.305	1905.81
744.49	1971.34
744.675	2051.21
744.86	1946.76
745.045	1971.34
745.23	2061.45
745.415	1946.76
745.6	1954.96
745.785	1823.89
745.97	1891.47
746.155	1934.48
746.34	1971.34
746.525	1842.32
746.71	1940.62
746.895	1805.46
747.079	1885.33
747.264	1842.32
747.449	1854.61
747.634	1897.61
747.819	1725.58
748.003	1784.98
748.188	1778.83
748.373	1768.59
748.557	1791.12
748.742	1844.37
748.927	1752.21
749.111	1612.95
749.296	1729.68
749.481	1717.39
749.665	1717.39
749.85	1608.85
750.034	1578.13
750.219	1541.27
750.404	1684.62
750.588	1758.35
750.773	1629.33
750.957	1635.47
751.141	1643.67
751.326	1604.75
751.51	1537.17
751.695	1621.14
751.879	1588.37
752.064	1660.05
752.248	1520.79
752.432	1557.65
752.617	1590.42
752.801	1522.84
752.985	1557.65
753.17	1635.47
753.354	1594.51
753.538	1553.55
753.722	1551.51
753.907	1467.54
754.091	1434.77
754.275	1520.79
754.459	1346.71
754.643	1537.17
754.828	1397.91
755.012	1440.92
755.196	1447.06
755.38	1414.29
755.564	1393.81
755.748	1367.19
755.932	1326.23
756.116	1324.18
756.3	1326.23
756.484	1340.57
756.668	1393.81
756.852	1369.24
757.036	1285.27
757.22	1174.68
757.404	1307.8
757.588	1236.12
757.772	1373.33
757.956	1311.89
758.14	1262.74
758.323	1277.08
758.507	1326.23
758.691	1250.46
758.875	1234.07
759.059	1221.78
759.242	1209.5
759.426	1047.71
759.61	1143.96
759.794	1152.15
759.977	1180.82
760.161	1211.54
760.345	1123.48
760.528	1195.16
760.712	1070.23
760.895	1154.2
761.079	1080.47
761.263	1111.19
761.446	1049.75
761.63	1086.62
761.813	1041.56
761.997	1057.95
762.18	1141.91
762.364	1129.63
762.547	1135.77
762.731	1057.95
762.914	992.41
763.098	1168.54
763.281	988.32
763.464	1029.27
763.648	980.12
763.831	951.45
764.015	1070.23
764.198	1053.85
764.381	988.32
764.564	992.41
764.748	963.74
764.931	980.12
765.114	941.21
765.297	941.21
765.481	992.41
765.664	988.32
765.847	930.97
766.03	1062.04
766.213	922.78
766.397	1154.2
766.58	935.07
766.763	1039.51
766.946	978.08
767.129	904.35
767.312	957.6
767.495	820.38
767.678	896.16
767.861	1057.95
768.044	861.34
768.227	937.12
768.41	971.93
768.593	973.98
768.776	957.6
768.959	908.44
769.142	894.11
769.324	890.01
769.507	924.83
769.69	890.01
769.873	947.36
770.056	1000.6
770.239	865.44
770.421	939.16
770.604	857.25
770.787	844.96
770.97	806.05
771.152	744.61
771.335	785.57
771.518	793.76
771.7	844.96
771.883	869.53
772.066	853.15
772.248	865.44
772.431	828.57
772.613	844.96
772.796	851.1
772.978	842.91
773.161	887.97
773.343	783.52
773.526	816.29
773.708	697.5
773.891	717.98
774.073	791.71
774.256	750.75
774.438	808.09
774.621	775.33
774.803	781.47
774.985	701.6
775.168	750.75
775.35	752.8
775.532	752.8
775.715	724.13
775.897	717.98
776.079	660.64
776.261	685.22
776.444	707.74
776.626	644.26
776.808	754.85
776.99	640.16
777.173	615.59
777.355	660.64
777.537	691.36
777.719	627.87
777.901	668.83
778.083	644.26
778.265	537.76
778.447	711.84
778.629	670.88
778.811	597.15
778.993	672.93
779.175	648.35
779.357	556.19
779.539	627.87
779.721	570.53
779.903	597.15
780.085	515.23
780.267	617.63
780.449	617.63
780.631	517.28
780.812	488.61
780.994	597.15
781.176	576.67
781.358	545.95
781.54	572.58
781.721	515.23
781.903	492.71
782.085	603.3
782.267	597.15
782.448	513.19
782.63	535.71
782.812	447.65
782.993	500.9
783.175	523.43
783.357	443.56
783.538	498.85
783.72	427.17
783.901	496.8
784.083	492.71
784.264	439.46
784.446	418.98
784.627	476.32
784.809	492.71
784.99	429.22
785.172	476.32
785.353	447.65
785.535	474.28
785.716	461.99
785.897	398.5
786.079	537.76
786.26	474.28
786.441	390.31
786.623	351.4
786.804	445.6
786.985	382.12
787.167	421.03
787.348	396.45
787.529	382.12
787.71	408.74
787.891	496.8
788.073	343.21
788.254	378.02
788.435	398.5
788.616	398.5
788.797	416.93
788.978	443.56
789.159	435.36
789.34	414.88
789.522	343.21
789.703	380.07
789.884	455.84
790.065	357.54
790.246	480.42
790.427	373.92
790.607	390.31
790.788	367.78
790.969	326.82
791.15	339.11
791.331	312.49
791.512	324.77
791.693	285.86
791.874	314.53
792.054	447.65
792.235	363.69
792.416	287.91
792.597	406.69
792.778	308.39
792.958	367.78
793.139	318.63
793.32	341.16
793.5	310.44
793.681	339.11
793.862	341.16
794.042	316.58
794.223	292.01
794.404	357.54
794.584	242.85
794.765	292.01
794.945	335.01
795.126	294.05
795.306	298.15
795.487	234.66
795.667	220.33
795.848	373.92
796.028	304.29
796.209	246.95
796.389	292.01
796.57	259.24
796.75	165.03
796.93	349.35
797.111	253.09
797.291	345.25
797.471	285.86
797.652	236.71
797.832	298.15
798.012	210.09
798.192	214.18
798.373	234.66
798.553	181.42
798.733	314.53
798.913	224.42
799.093	210.09
799.274	271.53
799.454	285.86
799.634	210.09
799.814	312.49
799.994	267.43
800.174	220.33
800.354	253.09
800.534	193.7
800.714	236.71
800.894	218.28
801.074	212.14
801.254	261.29
801.434	249
801.614	208.04
801.794	203.94
801.974	744.61
802.154	220.33
802.334	203.94
802.514	224.42
802.693	255.14
802.873	160.94
803.053	201.9
803.233	177.32
803.413	218.28
803.592	199.85
803.772	142.5
803.952	263.33
804.131	140.46
804.311	263.33
804.491	201.9
804.67	201.9
804.85	128.17
805.03	249
805.209	234.66
805.389	228.52
805.568	253.09
805.748	201.9
805.928	246.95
806.107	242.85
806.287	165.03
806.466	210.09
806.646	224.42
806.825	171.18
807.004	234.66
807.184	230.57
807.363	201.9
807.543	193.7
807.722	134.31
807.901	210.09
808.081	177.32
808.26	165.03
808.439	144.55
808.619	148.65
808.798	160.94
808.977	156.84
809.156	160.94
809.336	212.14
809.515	136.36
809.694	130.22
809.873	203.94
810.052	324.77
810.231	160.94
810.411	152.74
810.59	222.38
810.769	148.65
810.948	195.75
811.127	132.26
811.306	154.79
811.485	136.36
811.664	162.98
811.843	103.59
812.022	212.14
812.201	173.22
812.38	138.41
812.559	70.83
812.737	144.55
812.916	117.93
813.095	119.98
813.274	140.46
813.453	156.84
813.632	140.46
813.811	85.16
813.989	111.78
814.168	160.94
814.347	130.22
814.526	103.59
814.704	136.36
814.883	152.74
815.062	183.46
815.24	160.94
815.419	122.02
815.598	87.21
815.776	87.21
815.955	156.84
816.133	54.44
816.312	111.78
816.49	99.5
816.669	165.03
816.847	97.45
817.026	79.02
817.204	109.74
817.383	152.74
817.561	152.74
817.74	95.4
817.918	103.59
818.097	191.66
818.275	89.26
818.453	101.55
818.632	165.03
818.81	105.64
818.988	119.98
819.167	72.87
819.345	103.59
819.523	56.49
819.701	29.87
819.879	87.21
820.058	74.92
820.236	136.36
820.414	89.26
820.592	111.78
820.77	56.49
820.948	111.78
821.127	66.73
821.305	64.68
821.483	70.83
821.661	152.74
821.839	87.21
822.017	46.25
822.195	101.55
822.373	152.74
822.551	107.69
822.729	95.4
822.907	119.98
823.085	115.88
823.262	124.07
823.44	89.26
823.618	128.17
823.796	119.98
823.974	15.53
824.152	91.31
824.329	54.44
824.507	91.31
824.685	93.35
824.863	93.35
825.04	99.5
825.218	152.74
825.396	79.02
825.574	156.84
825.751	105.64
825.929	87.21
826.107	50.35
826.284	70.83
826.462	46.25
826.639	81.07
826.817	74.92
826.994	81.07
827.172	83.11
827.349	60.59
827.527	105.64
827.704	119.98
827.882	87.21
828.059	99.5
828.237	21.67
828.414	144.55
828.591	29.87
828.769	103.59
828.946	7.34
829.124	87.21
829.301	58.54
829.478	25.77
829.655	56.49
829.833	91.31
830.01	23.72
830.187	15.53
830.364	95.4
830.542	70.83
830.719	91.31
830.896	103.59
831.073	115.88
831.25	89.26
831.427	79.02
831.604	40.11
831.782	44.2
831.959	105.64
832.136	54.44
832.313	7.34
832.49	27.82
832.667	113.83
832.844	38.06
833.021	128.17
833.198	99.5
833.374	56.49
833.551	5.29
833.728	21.67
833.905	95.4
834.082	83.11
834.259	89.26
834.436	29.87
834.612	13.48
834.789	21.67
834.966	44.2
835.143	29.87
835.319	21.67
835.496	103.59
835.673	128.17
835.85	72.87
836.026	-2.9
836.203	97.45
836.38	15.53
836.556	79.02
836.733	103.59
836.909	72.87
837.086	66.73
837.262	31.91
837.439	36.01
837.616	74.92
837.792	54.44
837.968	99.5
838.145	46.25
838.321	111.78
838.498	40.11
838.674	50.35
838.851	9.39
839.027	72.87
839.203	93.35
839.38	79.02
839.556	-17.24
839.732	128.17
839.909	13.48
840.085	-13.14
840.261	11.43
840.437	64.68
840.614	76.97
840.79	42.15
840.966	38.06
841.142	111.78
841.318	72.87
841.494	128.17
841.671	81.07
841.847	62.63
842.023	46.25
842.199	38.06
842.375	74.92
842.551	79.02
842.727	29.87
842.903	58.54
843.079	-29.52
843.255	79.02
843.431	25.77
843.607	103.59
843.783	9.39
843.959	46.25
844.134	103.59
844.31	70.83
844.486	60.59
844.662	-43.86
844.838	21.67
845.013	79.02
845.189	-25.43
845.365	31.91
845.541	-19.29
845.716	103.59
845.892	13.48
846.068	5.29
846.244	52.39
846.419	38.06
846.595	33.96
846.77	95.4
846.946	109.74
847.122	97.45
847.297	-52.05
847.473	122.02
847.648	-35.67
847.824	-23.38
847.999	-19.29
848.175	42.15
848.35	38.06
848.526	62.63
848.701	5.29
848.876	68.78
849.052	7.34
849.227	56.49
849.403	13.48
849.578	23.72
849.753	81.07
849.929	38.06
850.104	21.67
850.279	5.29
850.454	-66.39
850.63	58.54
850.805	124.07
850.98	-11.09
851.155	9.39
851.33	54.44
851.505	-0.85
851.681	56.49
851.856	11.43
852.031	70.83
852.206	46.25
852.381	87.21
852.556	-39.76
852.731	36.01
852.906	-11.09
853.081	48.3
853.256	11.43
853.431	29.87
853.606	-113.49
853.781	-2.9
853.956	-33.62
854.131	17.58
854.305	13.48
854.48	-19.29
854.655	48.3
854.83	-19.29
855.005	5.29
855.18	-2.9
855.354	-43.86
855.529	38.06
855.704	62.63
855.879	70.83
856.053	19.63
856.228	-101.2
856.403	79.02
856.577	1.19
856.752	-78.68
856.926	11.43
857.101	29.87
857.276	-64.34
857.45	-41.81
857.625	17.58
857.799	5.29
857.974	1.19
858.148	-4.95
858.323	23.72
858.497	25.77
858.672	27.82
858.846	-35.67
859.02	-7
859.195	-43.86
859.369	9.39
859.543	46.25
859.718	31.91
859.892	42.15
860.066	46.25
860.241	38.06
860.415	-17.24
860.589	-27.48
860.763	-23.38
860.938	-0.85
861.112	-2.9
861.286	87.21
861.46	105.64
861.634	13.48
861.808	17.58
861.982	11.43
862.157	40.11
862.331	58.54
862.505	-103.25
862.679	-84.82
862.853	38.06
863.027	9.39
863.201	99.5
863.375	-0.85
863.549	-19.29
863.722	-43.86
863.896	5.29
864.07	-4.95
864.244	-25.43
864.418	7.34
864.592	38.06
864.766	-27.48
864.939	-9.05
865.113	29.87
865.287	46.25
865.461	-0.85
865.634	-19.29
865.808	5.29
865.982	42.15
866.156	31.91
866.329	29.87
866.503	5.29
866.676	83.11
866.85	-84.82
867.024	56.49
867.197	-11.09
867.371	1.19
867.544	23.72
867.718	-25.43
867.891	31.91
868.065	-7
868.238	54.44
868.412	95.4
868.585	7.34
868.759	5.29
868.932	-23.38
869.105	-84.82
869.279	36.01
869.452	-43.86
869.625	-21.33
869.799	13.48
869.972	-43.86
870.145	3.24
870.319	-9.05
870.492	-7
870.665	21.67
870.838	38.06
871.011	-72.53
871.185	54.44
871.358	-25.43
871.531	64.68
871.704	-9.05
871.877	-19.29
872.05	-68.44
872.223	-11.09
872.396	-17.24
872.569	25.77
872.742	5.29
872.915	3.24
873.088	-86.87
873.261	13.48
873.434	76.97
873.607	48.3
873.78	-11.09
873.953	21.67
874.126	21.67
874.299	-72.53
874.471	-2.9
874.644	-9.05
874.817	25.77
874.99	81.07
875.163	-29.52
875.335	33.96
875.508	23.72
875.681	7.34
875.853	-2.9
876.026	-37.72
876.199	81.07
876.371	-2.9
876.544	-58.2
876.717	-2.9
876.889	1.19
877.062	111.78
877.234	-0.85
877.407	54.44
877.579	23.72
877.752	13.48
877.924	-4.95
878.097	29.87
878.269	-23.38
878.442	15.53
878.614	-23.38
878.786	48.3
878.959	21.67
879.131	66.73
879.303	-11.09
879.476	42.15
879.648	-56.15
879.82	95.4
879.993	-70.48
880.165	40.11
880.337	-33.62
880.509	19.63
880.681	40.11
880.854	-17.24
881.026	46.25
881.198	54.44
881.37	48.3
881.542	-27.48
881.714	38.06
881.886	29.87
882.058	1.19
882.23	-11.09
882.402	13.48
882.574	17.58
882.746	27.82
882.918	-76.63
883.09	-17.24
883.262	-84.82
883.434	7.34
883.606	25.77
883.778	-43.86
883.95	42.15
884.122	-43.86
884.293	48.3
884.465	17.58
884.637	-25.43
884.809	21.67
884.98	5.29
885.152	-7
885.324	-58.2
885.496	21.67
885.667	-43.86
885.839	17.58
886.011	-0.85
886.182	3.24
886.354	36.01
886.525	79.02
886.697	-11.09
886.869	-58.2
887.04	5.29
887.212	-39.76
887.383	52.39
887.555	7.34
887.726	33.96
887.897	1.19
888.069	38.06
888.24	56.49
888.412	-19.29
888.583	9.39
888.754	-66.39
888.926	-35.67
889.097	-11.09
889.268	9.39
889.44	-39.76
889.611	-41.81
889.782	-80.72
889.953	-19.29
890.125	76.97
890.296	-23.38
890.467	1.19
890.638	-11.09
890.809	5.29
890.98	-70.48
891.151	-11.09
891.323	-25.43
891.494	11.43
891.665	29.87
891.836	-54.1
892.007	-13.14
892.178	40.11
892.349	-11.09
892.52	7.34
892.691	-11.09
892.862	5.29
893.032	-74.58
893.203	-25.43
893.374	-25.43
893.545	23.72
893.716	-64.34
893.887	48.3
894.057	-7
894.228	23.72
894.399	-23.38
894.57	54.44
894.74	70.83
894.911	1.19
895.082	7.34
895.253	-27.48
895.423	31.91
895.594	70.83
895.764	-25.43
895.935	-17.24
896.106	-52.05
896.276	44.2
896.447	3.24
896.617	-66.39
896.788	21.67
896.958	-11.09
897.129	-15.19
897.299	-11.09
897.47	7.34
897.64	-88.92
897.81	-0.85
897.981	38.06
898.151	40.11
898.322	-25.43
898.492	72.87
898.662	-17.24
898.832	-41.81
899.003	-29.52
899.173	-25.43
899.343	-31.57
899.513	3.24
