Data from USB4F104151__183__14-45-07-752.txt Node

Date: Thu Mar 13 14:45:07 EDT 2025
User: louis
Spectrometer: USB4F10415
Trigger mode: 4
Integration Time (sec): 2.000000E-2
Scans to average: 1
Electric dark correction enabled: true
Nonlinearity correction enabled: false
Boxcar width: 0
XAxis mode: Wavelengths
Number of Pixels in Spectrum: 3648
>>>>>Begin Spectral Data<<<<<
178.204	-76.8
178.424	-76.8
178.644	-76.8
178.864	-140.29
179.084	-105.47
179.304	-15.36
179.524	39.94
179.744	41.98
179.964	74.75
180.184	31.74
180.404	-13.31
180.624	-66.56
180.844	-33.79
181.064	-31.74
181.283	37.89
181.503	-48.13
181.723	-17.41
181.943	-13.31
182.163	78.85
182.383	-39.94
182.602	68.61
182.822	132.09
183.042	-1.02
183.262	-25.6
183.482	-50.18
183.701	35.84
183.921	44.03
184.141	9.22
184.361	87.04
184.58	-1.02
184.8	9.22
185.02	31.74
185.239	66.56
185.459	52.22
185.679	7.17
185.898	31.74
186.118	19.46
186.338	1.02
186.557	142.33
186.777	9.22
186.997	68.61
187.216	48.13
187.436	66.56
187.655	25.6
187.875	72.7
188.095	-54.27
188.314	52.22
188.534	37.89
188.753	-11.26
188.973	-25.6
189.192	58.37
189.412	60.42
189.631	19.46
189.851	-13.31
190.07	68.61
190.29	62.46
190.509	-13.31
190.729	56.32
190.948	107.52
191.168	109.57
191.387	50.18
191.607	-29.7
191.826	-1.02
192.045	-35.84
192.265	48.13
192.484	23.55
192.704	31.74
192.923	-99.33
193.142	-7.17
193.362	50.18
193.581	56.32
193.8	66.56
194.02	-1.02
194.239	25.6
194.458	31.74
194.678	50.18
194.897	80.89
195.116	-17.41
195.335	39.94
195.555	-9.22
195.774	1.02
195.993	19.46
196.212	11.26
196.432	-21.5
196.651	-9.22
196.87	5.12
197.089	76.8
197.308	-13.31
197.528	50.18
197.747	-23.55
197.966	1.02
198.185	52.22
198.404	17.41
198.623	15.36
198.842	19.46
199.062	-23.55
199.281	82.94
199.5	15.36
199.719	11.26
199.938	19.46
200.157	93.18
200.376	9.22
200.595	21.5
200.814	15.36
201.033	105.47
201.252	35.84
201.471	39.94
201.69	41.98
201.909	33.79
202.128	97.28
202.347	138.24
202.566	-41.98
202.785	25.6
203.004	70.65
203.223	130.05
203.442	64.51
203.661	52.22
203.879	-1.02
204.098	84.99
204.317	-29.7
204.536	136.19
204.755	64.51
204.974	74.75
205.193	27.65
205.411	121.85
205.63	64.51
205.849	-1.02
206.068	66.56
206.287	-62.46
206.505	64.51
206.724	52.22
206.943	-5.12
207.162	23.55
207.381	46.08
207.599	19.46
207.818	15.36
208.037	46.08
208.255	68.61
208.474	82.94
208.693	56.32
208.911	25.6
209.13	56.32
209.349	-1.02
209.567	64.51
209.786	39.94
210.005	39.94
210.223	48.13
210.442	-46.08
210.661	-9.22
210.879	11.26
211.098	68.61
211.316	-5.12
211.535	35.84
211.753	74.75
211.972	9.22
212.191	74.75
212.409	-7.17
212.628	48.13
212.846	-19.46
213.065	19.46
213.283	64.51
213.502	-19.46
213.72	3.07
213.938	15.36
214.157	62.46
214.375	-9.22
214.594	23.55
214.812	17.41
215.031	15.36
215.249	-23.55
215.467	46.08
215.686	-91.13
215.904	-7.17
216.122	27.65
216.341	41.98
216.559	76.8
216.778	89.09
216.996	72.7
217.214	35.84
217.432	72.7
217.651	-15.36
217.869	64.51
218.087	56.32
218.306	39.94
218.524	87.04
218.742	-9.22
218.96	-17.41
219.179	76.8
219.397	-5.12
219.615	76.8
219.833	48.13
220.051	-60.42
220.27	56.32
220.488	23.55
220.706	48.13
220.924	33.79
221.142	25.6
221.36	3.07
221.578	-68.61
221.796	7.17
222.015	23.55
222.233	72.7
222.451	39.94
222.669	25.6
222.887	39.94
223.105	-27.65
223.323	31.74
223.541	-3.07
223.759	56.32
223.977	31.74
224.195	48.13
224.413	-9.22
224.631	1.02
224.849	31.74
225.067	130.05
225.285	23.55
225.503	56.32
225.721	-33.79
225.939	-23.55
226.157	23.55
226.375	64.51
226.592	7.17
226.81	89.09
227.028	64.51
227.246	105.47
227.464	48.13
227.682	64.51
227.9	39.94
228.117	39.94
228.335	11.26
228.553	84.99
228.771	35.84
228.989	76.8
229.206	17.41
229.424	-13.31
229.642	13.31
229.86	56.32
230.077	19.46
230.295	76.8
230.513	60.42
230.731	44.03
230.948	91.13
231.166	111.61
231.384	31.74
231.601	39.94
231.819	87.04
232.037	19.46
232.254	35.84
232.472	17.41
232.689	7.17
232.907	9.22
233.125	25.6
233.342	-37.89
233.56	89.09
233.777	82.94
233.995	-11.26
234.213	80.89
234.43	-25.6
234.648	-33.79
234.865	44.03
235.083	15.36
235.3	-39.94
235.518	121.85
235.735	72.7
235.953	17.41
236.17	25.6
236.388	23.55
236.605	-1.02
236.822	109.57
237.04	148.48
237.257	-13.31
237.475	7.17
237.692	72.7
237.909	-33.79
238.127	41.98
238.344	15.36
238.562	21.5
238.779	23.55
238.996	7.17
239.214	23.55
239.431	91.13
239.648	44.03
239.865	105.47
240.083	173.05
240.3	15.36
240.517	48.13
240.735	-1.02
240.952	41.98
241.169	31.74
241.386	25.6
241.603	54.27
241.821	-74.75
242.038	99.33
242.255	52.22
242.472	58.37
242.689	97.28
242.907	64.51
243.124	19.46
243.341	-39.94
243.558	-17.41
243.775	-13.31
243.992	56.32
244.209	15.36
244.426	99.33
244.643	70.65
244.86	33.79
245.078	82.94
245.295	-17.41
245.512	-11.26
245.729	-1.02
245.946	97.28
246.163	-25.6
246.38	44.03
246.597	72.7
246.814	31.74
247.031	72.7
247.248	15.36
247.464	64.51
247.681	91.13
247.898	56.32
248.115	31.74
248.332	41.98
248.549	62.46
248.766	91.13
248.983	121.85
249.2	39.94
249.417	66.56
249.633	-33.79
249.85	1.02
250.067	117.76
250.284	33.79
250.501	89.09
250.717	7.17
250.934	-78.85
251.151	7.17
251.368	72.7
251.585	72.7
251.801	19.46
252.018	-3.07
252.235	72.7
252.451	-1.02
252.668	-7.17
252.885	87.04
253.102	95.23
253.318	33.79
253.535	7.17
253.752	-13.31
253.968	72.7
254.185	-25.6
254.401	33.79
254.618	-19.46
254.835	82.94
255.051	74.75
255.268	25.6
255.484	7.17
255.701	60.42
255.917	41.98
256.134	-9.22
256.351	-50.18
256.567	-33.79
256.784	7.17
257	-7.17
257.217	68.61
257.433	23.55
257.65	58.37
257.866	78.85
258.082	105.47
258.299	7.17
258.515	72.7
258.732	7.17
258.948	-17.41
259.165	44.03
259.381	3.07
259.597	82.94
259.814	-9.22
260.03	17.41
260.246	64.51
260.463	58.37
260.679	66.56
260.895	56.32
261.112	39.94
261.328	1.02
261.544	5.12
261.761	93.18
261.977	56.32
262.193	7.17
262.409	64.51
262.626	11.26
262.842	72.7
263.058	-46.08
263.274	72.7
263.49	7.17
263.707	146.43
263.923	82.94
264.139	68.61
264.355	-7.17
264.571	119.81
264.787	97.28
265.004	3.07
265.22	-21.5
265.436	130.05
265.652	97.28
265.868	89.09
266.084	52.22
266.3	25.6
266.516	-21.5
266.732	33.79
266.948	76.8
267.164	101.37
267.38	82.94
267.596	78.85
267.812	95.23
268.028	78.85
268.244	11.26
268.46	130.05
268.676	23.55
268.892	25.6
269.108	31.74
269.324	72.7
269.54	39.94
269.756	154.62
269.972	27.65
270.188	64.51
270.403	-1.02
270.619	68.61
270.835	64.51
271.051	72.7
271.267	76.8
271.483	-17.41
271.698	25.6
271.914	74.75
272.13	35.84
272.346	-50.18
272.562	-9.22
272.777	33.79
272.993	89.09
273.209	66.56
273.425	-9.22
273.64	58.37
273.856	72.7
274.072	48.13
274.287	-9.22
274.503	23.55
274.719	11.26
274.934	52.22
275.15	-48.13
275.366	1.02
275.581	31.74
275.797	50.18
276.012	64.51
276.228	-3.07
276.444	27.65
276.659	48.13
276.875	74.75
277.09	62.46
277.306	-1.02
277.521	87.04
277.737	-33.79
277.952	87.04
278.168	-72.7
278.383	52.22
278.599	35.84
278.814	37.89
279.03	21.5
279.245	101.37
279.461	-15.36
279.676	39.94
279.892	48.13
280.107	60.42
280.322	31.74
280.538	-1.02
280.753	50.18
280.969	39.94
281.184	-52.22
281.399	99.33
281.615	41.98
281.83	41.98
282.045	-37.89
282.26	35.84
282.476	44.03
282.691	56.32
282.906	-11.26
283.122	25.6
283.337	13.31
283.552	39.94
283.767	72.7
283.983	17.41
284.198	33.79
284.413	29.7
284.628	23.55
284.843	46.08
285.058	-9.22
285.274	23.55
285.489	91.13
285.704	64.51
285.919	-13.31
286.134	17.41
286.349	-9.22
286.564	37.89
286.779	-1.02
286.995	3.07
287.21	-7.17
287.425	66.56
287.64	58.37
287.855	52.22
288.07	21.5
288.285	44.03
288.5	93.18
288.715	29.7
288.93	33.79
289.145	-25.6
289.36	58.37
289.575	37.89
289.79	68.61
290.004	41.98
290.219	80.89
290.434	89.09
290.649	72.7
290.864	-58.37
291.079	11.26
291.294	-21.5
291.509	15.36
291.724	33.79
291.938	58.37
292.153	80.89
292.368	50.18
292.583	50.18
292.798	89.09
293.012	48.13
293.227	39.94
293.442	39.94
293.657	37.89
293.871	19.46
294.086	101.37
294.301	87.04
294.516	97.28
294.73	3.07
294.945	72.7
295.16	27.65
295.374	74.75
295.589	21.5
295.804	-25.6
296.018	25.6
296.233	64.51
296.447	44.03
296.662	23.55
296.877	66.56
297.091	31.74
297.306	60.42
297.52	25.6
297.735	33.79
297.949	5.12
298.164	13.31
298.378	56.32
298.593	23.55
298.807	33.79
299.022	9.22
299.236	31.74
299.451	19.46
299.665	3.07
299.88	80.89
300.094	1.02
300.309	66.56
300.523	76.8
300.737	-1.02
300.952	35.84
301.166	3.07
301.381	5.12
301.595	58.37
301.809	33.79
302.024	1.02
302.238	62.46
302.452	54.27
302.667	27.65
302.881	48.13
303.095	97.28
303.309	48.13
303.524	23.55
303.738	31.74
303.952	33.79
304.166	-3.07
304.381	58.37
304.595	54.27
304.809	15.36
305.023	1.02
305.237	-7.17
305.452	1.02
305.666	119.81
305.88	82.94
306.094	9.22
306.308	39.94
306.522	-15.36
306.736	33.79
306.95	48.13
307.164	33.79
307.379	-17.41
307.593	64.51
307.807	44.03
308.021	72.7
308.235	7.17
308.449	41.98
308.663	21.5
308.877	123.9
309.091	-1.02
309.305	17.41
309.519	60.42
309.733	97.28
309.947	-23.55
310.161	31.74
310.374	56.32
310.588	31.74
310.802	84.99
311.016	41.98
311.23	-21.5
311.444	35.84
311.658	-7.17
311.872	91.13
312.085	50.18
312.299	58.37
312.513	105.47
312.727	37.89
312.941	7.17
313.154	99.33
313.368	3.07
313.582	113.66
313.796	84.99
314.009	68.61
314.223	-7.17
314.437	3.07
314.651	125.95
314.864	115.71
315.078	-64.51
315.292	35.84
315.505	33.79
315.719	25.6
315.933	78.85
316.146	58.37
316.36	-33.79
316.573	99.33
316.787	89.09
317.001	-56.32
317.214	29.7
317.428	80.89
317.641	23.55
317.855	39.94
318.068	68.61
318.282	95.23
318.495	68.61
318.709	-9.22
318.922	-17.41
319.136	117.76
319.349	56.32
319.563	50.18
319.776	23.55
319.99	-11.26
320.203	-1.02
320.417	27.65
320.63	-13.31
320.843	80.89
321.057	80.89
321.27	27.65
321.483	56.32
321.697	44.03
321.91	58.37
322.124	3.07
322.337	56.32
322.55	39.94
322.763	48.13
322.977	35.84
323.19	-25.6
323.403	41.98
323.617	68.61
323.83	91.13
324.043	23.55
324.256	41.98
324.469	25.6
324.683	31.74
324.896	72.7
325.109	58.37
325.322	1.02
325.535	60.42
325.748	56.32
325.962	66.56
326.175	72.7
326.388	70.65
326.601	-25.6
326.814	64.51
327.027	-9.22
327.24	138.24
327.453	29.7
327.666	64.51
327.879	54.27
328.092	11.26
328.305	11.26
328.518	-7.17
328.731	-7.17
328.944	19.46
329.157	17.41
329.37	7.17
329.583	138.24
329.796	89.09
330.009	9.22
330.222	66.56
330.435	97.28
330.648	66.56
330.861	-23.55
331.073	89.09
331.286	64.51
331.499	66.56
331.712	74.75
331.925	48.13
332.138	46.08
332.35	72.7
332.563	46.08
332.776	31.74
332.989	121.85
333.202	27.65
333.414	82.94
333.627	80.89
333.84	52.22
334.053	7.17
334.265	76.8
334.478	101.37
334.691	39.94
334.903	91.13
335.116	48.13
335.329	99.33
335.541	56.32
335.754	89.09
335.966	29.7
336.179	64.51
336.392	39.94
336.604	56.32
336.817	121.85
337.029	39.94
337.242	46.08
337.454	37.89
337.667	-9.22
337.88	48.13
338.092	58.37
338.305	54.27
338.517	-9.22
338.729	82.94
338.942	107.52
339.154	-33.79
339.367	54.27
339.579	52.22
339.792	23.55
340.004	64.51
340.217	15.36
340.429	60.42
340.641	91.13
340.854	-15.36
341.066	44.03
341.278	17.41
341.491	80.89
341.703	95.23
341.915	41.98
342.128	41.98
342.34	60.42
342.552	130.05
342.764	35.84
342.977	58.37
343.189	89.09
343.401	121.85
343.613	-62.46
343.826	33.79
344.038	9.22
344.25	113.66
344.462	-33.79
344.674	70.65
344.886	19.46
345.099	44.03
345.311	5.12
345.523	11.26
345.735	15.36
345.947	68.61
346.159	39.94
346.371	-13.31
346.583	-1.02
346.795	50.18
347.007	105.47
347.219	68.61
347.431	121.85
347.643	82.94
347.855	33.79
348.067	25.6
348.279	-7.17
348.491	-1.02
348.703	15.36
348.915	50.18
349.127	25.6
349.339	41.98
349.551	68.61
349.763	68.61
349.975	23.55
350.187	72.7
350.399	130.05
350.61	70.65
350.822	-5.12
351.034	19.46
351.246	15.36
351.458	41.98
351.669	25.6
351.881	23.55
352.093	48.13
352.305	132.09
352.517	76.8
352.728	97.28
352.94	76.8
353.152	-7.17
353.363	64.51
353.575	35.84
353.787	-1.02
353.999	66.56
354.21	93.18
354.422	76.8
354.633	48.13
354.845	80.89
355.057	-1.02
355.268	97.28
355.48	33.79
355.692	21.5
355.903	35.84
356.115	35.84
356.326	48.13
356.538	27.65
356.749	17.41
356.961	130.05
357.172	52.22
357.384	35.84
357.595	84.99
357.807	66.56
358.018	31.74
358.23	72.7
358.441	101.37
358.653	93.18
358.864	17.41
359.075	66.56
359.287	1.02
359.498	44.03
359.709	58.37
359.921	25.6
360.132	91.13
360.344	39.94
360.555	37.89
360.766	125.95
360.977	-9.22
361.189	54.27
361.4	-41.98
361.611	50.18
361.823	82.94
362.034	-21.5
362.245	33.79
362.456	56.32
362.667	48.13
362.879	23.55
363.09	76.8
363.301	60.42
363.512	82.94
363.723	9.22
363.935	33.79
364.146	9.22
364.357	41.98
364.568	113.66
364.779	48.13
364.99	146.43
365.201	-19.46
365.412	68.61
365.623	23.55
365.834	115.71
366.045	93.18
366.256	25.6
366.467	56.32
366.678	66.56
366.889	-17.41
367.1	31.74
367.311	56.32
367.522	3.07
367.733	52.22
367.944	68.61
368.155	117.76
368.366	33.79
368.577	66.56
368.788	39.94
368.999	15.36
369.209	39.94
369.42	115.71
369.631	35.84
369.842	87.04
370.053	31.74
370.264	66.56
370.474	41.98
370.685	123.9
370.896	97.28
371.107	70.65
371.317	56.32
371.528	25.6
371.739	74.75
371.95	41.98
372.16	66.56
372.371	64.51
372.582	44.03
372.792	56.32
373.003	11.26
373.214	101.37
373.424	50.18
373.635	35.84
373.846	97.28
374.056	17.41
374.267	60.42
374.477	44.03
374.688	52.22
374.898	-31.74
375.109	105.47
375.319	58.37
375.53	23.55
375.74	95.23
375.951	48.13
376.161	5.12
376.372	76.8
376.582	41.98
376.793	23.55
377.003	50.18
377.214	23.55
377.424	80.89
377.635	41.98
377.845	-101.37
378.055	62.46
378.266	15.36
378.476	89.09
378.686	37.89
378.897	-15.36
379.107	68.61
379.317	9.22
379.528	17.41
379.738	76.8
379.948	70.65
380.158	87.04
380.369	64.51
380.579	121.85
380.789	72.7
380.999	89.09
381.21	41.98
381.42	66.56
381.63	74.75
381.84	113.66
382.05	91.13
382.261	72.7
382.471	99.33
382.681	23.55
382.891	64.51
383.101	9.22
383.311	107.52
383.521	11.26
383.731	76.8
383.941	9.22
384.151	99.33
384.361	-15.36
384.571	60.42
384.781	58.37
384.991	76.8
385.201	113.66
385.411	134.14
385.621	121.85
385.831	39.94
386.041	109.57
386.251	76.8
386.461	84.99
386.671	1.02
386.881	142.33
387.091	7.17
387.301	138.24
387.511	7.17
387.72	115.71
387.93	97.28
388.14	48.13
388.35	89.09
388.56	64.51
388.769	33.79
388.979	80.89
389.189	35.84
389.399	15.36
389.609	162.81
389.818	66.56
390.028	50.18
390.238	9.22
390.447	41.98
390.657	84.99
390.867	119.81
391.076	39.94
391.286	35.84
391.496	89.09
391.705	84.99
391.915	105.47
392.125	64.51
392.334	101.37
392.544	99.33
392.753	76.8
392.963	72.7
393.172	138.24
393.382	15.36
393.591	113.66
393.801	115.71
394.01	41.98
394.22	91.13
394.429	15.36
394.639	60.42
394.848	115.71
395.058	48.13
395.267	84.99
395.477	35.84
395.686	89.09
395.895	205.82
396.105	97.28
396.314	52.22
396.524	144.38
396.733	82.94
396.942	203.77
397.152	97.28
397.361	203.77
397.57	80.89
397.78	97.28
397.989	181.25
398.198	156.67
398.407	105.47
398.617	89.09
398.826	105.47
399.035	121.85
399.244	113.66
399.453	105.47
399.663	154.62
399.872	72.7
400.081	3.07
400.29	177.15
400.499	72.7
400.708	121.85
400.917	156.67
401.127	121.85
401.336	105.47
401.545	134.14
401.754	150.53
401.963	179.2
402.172	105.47
402.381	80.89
402.59	115.71
402.799	80.89
403.008	107.52
403.217	162.81
403.426	80.89
403.635	60.42
403.844	162.81
404.053	146.43
404.262	101.37
404.471	236.54
404.68	99.33
404.888	156.67
405.097	154.62
405.306	107.52
405.515	158.72
405.724	197.63
405.933	142.33
406.142	99.33
406.35	244.73
406.559	183.29
406.768	228.35
406.977	265.21
407.185	199.68
407.394	236.54
407.603	211.96
407.812	216.06
408.02	293.88
408.229	263.16
408.438	197.63
408.646	275.45
408.855	297.98
409.064	285.69
409.272	263.16
409.481	302.08
409.69	336.89
409.898	271.36
410.107	322.56
410.315	345.08
410.524	308.22
410.733	371.71
410.941	388.09
411.15	383.99
411.358	336.89
411.567	396.28
411.775	402.43
411.984	367.61
412.192	517.11
412.401	535.54
412.609	594.93
412.818	566.26
413.026	510.97
413.234	400.38
413.443	486.39
413.651	506.87
413.86	592.89
414.068	574.46
414.276	672.76
414.485	674.81
414.693	635.89
414.901	777.2
415.11	697.33
415.318	683
415.526	769.01
415.734	785.4
415.943	893.94
416.151	861.17
416.359	887.79
416.567	941.04
416.776	955.38
416.984	1022.96
417.192	1094.64
417.4	1139.69
417.608	1080.3
417.817	1141.74
418.025	1129.45
418.233	1301.48
418.441	1172.46
418.649	1309.68
418.857	1391.59
419.065	1350.64
419.273	1283.05
419.481	1407.98
419.689	1483.75
419.897	1592.3
420.105	1547.24
420.313	1588.2
420.521	1727.46
420.729	1735.65
420.937	1844.2
421.145	1850.34
421.353	1940.45
421.561	1946.59
421.769	2055.14
421.977	2124.77
422.185	2128.86
422.393	2227.17
422.601	2448.35
422.809	2184.16
423.017	2440.15
423.224	2495.45
423.432	2610.14
423.64	2595.8
423.848	2972.63
424.056	2636.76
424.263	2843.6
424.471	2800.6
424.679	3062.74
424.887	3255.25
425.094	3242.96
425.302	3369.93
425.51	3482.57
425.718	3546.06
425.925	3546.06
426.133	3605.45
426.341	3814.34
426.548	4037.57
426.756	4197.31
426.964	4078.53
427.171	4346.81
427.379	4365.25
427.586	4340.67
427.794	4680.63
428.001	4901.81
428.209	5125.04
428.417	5020.6
428.624	5372.85
428.832	5395.37
429.039	5192.62
429.247	5327.79
429.454	5778.34
429.662	6153.12
429.869	5682.09
430.076	6167.46
430.284	6007.72
430.491	6239.14
430.699	6650.78
430.906	6556.57
431.114	6898.58
431.321	6988.69
431.528	6968.21
431.736	7408.53
431.943	7793.55
432.15	7553.93
432.358	7787.4
432.565	8160.13
432.772	8229.76
432.979	8498.05
433.187	8858.49
433.394	8870.78
433.601	9317.23
433.808	9468.78
434.016	9378.67
434.223	9718.64
434.43	10271.59
434.637	10050.41
434.844	10738.52
435.052	10908.51
435.259	10746.72
435.466	10980.18
435.673	10883.93
435.88	11572.05
436.087	12098.38
436.294	12180.29
436.501	12104.52
436.708	12264.26
436.915	12639.04
437.122	13167.42
437.329	12950.33
437.537	13351.73
437.743	13622.06
437.95	13638.45
438.157	14326.57
438.364	14734.11
438.571	15020.83
438.778	15096.6
438.985	16128.78
439.192	15747.86
439.399	16024.33
439.606	15661.84
439.813	16651.01
440.02	17758.96
440.227	17562.36
440.433	17165.05
440.64	17902.32
440.847	17523.44
441.054	17867.5
441.261	19079.9
441.467	18907.87
441.674	19219.16
441.881	20032.21
442.088	20024.01
442.294	19618.52
442.501	20099.79
442.708	20617.93
442.914	21662.39
443.121	22364.84
443.328	21924.53
443.534	23329.44
443.741	22674.09
443.948	22170.29
444.154	24011.41
444.361	24009.36
444.568	24230.54
444.774	23949.97
444.981	24302.22
445.187	24877.7
445.394	25977.46
445.6	25649.78
445.807	28293.71
446.013	26931.81
446.22	27478.62
446.426	28369.49
446.633	28916.29
446.839	29751.87
447.046	28605
447.252	30151.22
447.459	30235.19
447.665	30216.75
447.871	31250.98
448.078	32901.64
448.284	31156.77
448.491	32047.64
448.697	33266.18
448.903	33958.39
449.11	33839.61
449.316	33563.14
449.522	33892.86
449.728	35219.94
449.935	35680.74
450.141	35162.6
450.347	36106.71
450.553	34720.24
450.76	35387.88
450.966	36389.33
451.172	36176.34
451.378	37204.42
451.584	36717.01
451.791	37491.14
451.997	37204.42
452.203	37763.52
452.409	37810.62
452.615	38347.19
452.821	36499.92
453.027	35801.57
453.233	38031.8
453.44	36516.31
453.646	37155.27
453.852	37450.18
454.058	37863.87
454.264	36614.61
454.47	37456.32
454.676	36397.52
454.882	37718.46
455.088	34587.12
455.294	35092.97
455.5	35783.13
455.705	36147.67
455.911	34662.9
456.117	34111.99
456.323	33612.29
456.529	31992.34
456.735	33661.44
456.941	32610.83
457.147	32115.22
457.352	31441.44
457.558	30691.88
457.764	30700.08
457.97	30601.77
458.176	29817.4
458.381	30106.16
458.587	28215.89
458.793	28506.7
458.999	26829.41
459.204	28566.09
459.41	27851.35
459.616	26333.81
459.821	26561.13
460.027	26057.33
460.233	25707.13
460.438	24492.68
460.644	25107.07
460.85	23304.86
461.055	23181.98
461.261	23261.85
461.466	21535.42
461.672	20728.52
461.878	22297.26
462.083	20837.06
462.289	20597.45
462.494	20200.14
462.7	19387.1
462.905	18762.47
463.111	19653.33
463.316	19526.36
463.522	19086.04
463.727	19073.76
463.932	19045.09
464.138	18993.89
464.343	18791.14
464.549	18582.24
464.754	18887.39
464.959	18977.5
465.165	18569.96
465.37	17898.22
465.575	17251.06
465.781	18219.75
465.986	18234.09
466.191	17545.97
466.397	17126.14
466.602	16157.45
466.807	16894.72
467.012	17195.77
467.218	16878.33
467.423	16616.19
467.628	16886.53
467.833	17392.37
468.038	16950.01
468.244	16581.38
468.449	17201.91
468.654	16704.26
468.859	16425.73
469.064	16337.67
469.269	15469.33
469.474	15647.51
469.679	16282.38
469.885	15393.56
470.09	15952.65
470.295	16030.48
470.5	15457.04
470.705	15590.16
470.91	15018.78
471.115	15102.75
471.32	15227.67
471.525	14965.53
471.73	14846.75
471.935	14834.46
472.139	14431.01
472.344	14525.22
472.549	14285.61
472.754	14078.76
472.959	13871.92
473.164	13472.56
473.369	13384.5
473.574	13863.72
473.778	13650.74
473.983	13751.09
474.188	13558.58
474.393	12995.39
474.598	12917.56
474.802	13067.06
475.007	12796.73
475.212	12911.42
475.417	12401.47
475.621	12577.6
475.826	12503.87
476.031	12125
476.235	12049.22
476.44	12108.62
476.645	12002.12
476.849	11979.59
477.054	11819.85
477.259	11631.44
477.463	11488.08
477.668	11184.98
477.872	11506.51
478.077	11234.13
478.282	10910.55
478.486	10871.64
478.691	10804.06
478.895	10806.11
479.1	10623.84
479.304	10820.44
479.509	10240.87
479.713	10650.46
479.918	10386.27
480.122	10206.05
480.326	10593.12
480.531	10484.58
480.735	10224.48
480.94	10185.57
481.144	10640.22
481.348	9902.95
481.553	10072.93
481.757	9905
481.961	10148.71
482.166	10156.9
482.37	9982.82
482.574	9804.65
482.778	9921.38
482.983	10126.18
483.187	10066.79
483.391	10083.17
483.595	9913.19
483.8	9829.23
484.004	10105.7
484.208	10152.81
484.412	10070.89
484.616	9960.3
484.821	9792.36
485.025	9649
485.229	9907.05
485.433	9894.76
485.637	9966.44
485.841	9919.34
486.045	9773.93
486.249	9900.9
486.453	9857.9
486.657	9778.03
486.861	9964.39
487.065	9536.37
487.269	10034.02
487.473	9683.82
487.677	10048.36
487.881	10011.5
488.085	9810.79
488.289	10029.93
488.493	9835.37
488.697	10113.89
488.901	9892.71
489.105	9935.72
489.309	10036.07
489.512	10074.98
489.716	10034.02
489.92	10058.6
490.124	10193.76
490.328	10376.03
490.531	10148.71
490.735	10169.19
490.939	10482.53
491.143	10103.65
491.346	10208.1
491.55	10373.99
491.754	10146.66
491.958	10486.62
492.161	10656.61
492.365	10656.61
492.569	10605.41
492.772	10554.21
492.976	10670.94
493.18	10453.86
493.383	10816.35
493.587	11127.64
493.79	10984.28
493.994	10656.61
494.197	11035.48
494.401	11113.3
494.605	11264.85
494.808	11199.32
495.012	11436.88
495.215	11443.03
495.419	11367.25
495.622	11395.92
495.825	11526.99
496.029	11666.25
496.232	11963.21
496.436	11567.95
496.639	12104.52
496.843	11918.15
497.046	12241.73
497.249	12383.04
497.453	12356.42
497.656	12673.85
497.859	12620.61
498.063	12770.11
498.266	13022.01
498.469	12931.9
498.673	13105.98
498.876	13392.69
499.079	13144.89
499.282	13538.1
499.485	13919.02
499.689	13779.76
499.892	14240.55
500.095	14306.09
500.298	14396.2
500.501	14297.89
500.705	14670.62
500.908	15002.4
501.111	15229.72
501.314	15293.21
501.517	15352.6
501.72	15532.82
501.923	15500.05
502.126	15973.13
502.329	16145.16
502.532	16196.36
502.735	16153.35
502.938	16538.37
503.141	16392.97
503.344	16982.78
503.547	16960.25
503.75	17433.33
503.953	17490.68
504.156	17840.88
504.359	17658.61
504.562	18021.1
504.765	18496.23
504.968	18383.59
505.17	18688.74
505.373	18778.85
505.576	18983.65
505.779	19188.44
505.982	19270.36
506.185	19811.03
506.387	19872.46
506.59	19710.68
506.793	20208.33
506.996	20253.39
507.198	20742.85
507.401	20904.64
507.604	21199.55
507.807	21795.51
508.009	21273.28
508.212	21756.6
508.415	21727.92
508.617	22325.93
508.82	22201.01
509.022	22547.11
509.225	22971.04
509.428	23184.03
509.63	23454.36
509.833	23192.22
510.035	23691.93
510.238	23866
510.44	24081.04
510.643	24382.09
510.845	24840.84
511.048	24541.83
511.25	25102.98
511.453	25215.62
511.655	26124.91
511.858	25969.27
512.06	26124.91
512.262	26249.84
512.465	26684.01
512.667	26741.35
512.87	27392.61
513.072	27181.67
513.274	27728.47
513.477	27970.13
513.679	28394.06
513.881	28635.72
514.084	28947.01
514.286	28824.14
514.488	29057.6
514.69	29723.19
514.893	29925.94
515.095	29618.75
515.297	30315.06
515.499	30364.21
515.701	30900.78
515.904	31160.87
516.106	31541.79
516.308	31580.7
516.51	32059.93
516.712	31830.55
516.914	32569.87
517.116	33180.17
517.318	32971.27
517.52	33133.06
517.722	33251.84
517.925	33796.6
518.127	34099.7
518.329	34148.85
518.531	34150.9
518.733	35070.44
518.935	35414.5
519.136	34839.02
519.338	35686.88
519.54	35678.69
519.742	36002.27
519.944	35959.26
520.146	37220.81
520.348	37056.97
520.55	37343.69
520.752	37110.22
520.954	37683.65
521.155	37736.9
521.357	38220.22
521.559	38359.48
521.761	39125.42
521.963	38857.14
522.164	39317.93
522.366	39492.01
522.568	39649.7
522.77	39895.46
522.971	40651.16
523.173	40100.25
523.375	40638.87
523.576	40714.64
523.778	40593.81
523.98	41052.56
524.181	41208.2
524.383	41513.35
524.584	42072.45
524.786	42029.44
524.988	42015.1
525.189	42217.85
525.391	42447.22
525.592	42750.32
525.794	42830.19
525.995	42832.24
526.197	43018.61
526.398	43223.4
526.6	43358.57
526.801	43647.33
527.003	43608.42
527.204	43620.71
527.406	44173.66
527.607	44122.46
527.808	44544.34
528.01	43432.3
528.211	44136.8
528.412	45177.17
528.614	44568.92
528.815	45203.79
529.016	45433.16
529.218	45052.24
529.419	45144.4
529.62	45025.62
529.822	45091.15
530.023	45060.43
530.224	45388.11
530.425	45318.48
530.626	45181.26
530.828	45453.64
531.029	46190.91
531.23	45228.37
531.431	45615.43
531.632	45627.72
531.833	45617.48
532.035	45754.69
532.236	45685.06
532.437	46174.53
532.638	45754.69
532.839	46010.69
533.04	46039.36
533.241	45298
533.442	46467.39
533.643	46108.99
533.844	46000.45
534.045	46117.18
534.246	46313.79
534.447	46641.46
534.648	46311.74
534.849	46590.27
535.05	45857.09
535.251	46385.47
535.451	45828.42
535.652	46674.23
535.853	46317.89
536.054	46301.5
536.255	45912.39
536.456	46082.37
536.657	46950.71
536.857	46084.42
537.058	46207.29
537.259	46465.34
537.46	46229.82
537.66	45912.39
537.861	46442.81
538.062	46012.74
538.263	46391.61
538.463	46215.49
538.664	45967.68
538.865	46348.6
539.065	46625.08
539.266	46008.64
539.466	46698.81
539.667	45547.85
539.868	46573.88
540.068	46123.33
540.269	45582.66
540.469	46623.03
540.67	45912.39
540.87	46313.79
541.071	45822.28
541.271	46371.13
541.472	46020.93
541.672	45902.15
541.873	45947.2
542.073	45330.76
542.274	46670.14
542.474	46039.36
542.675	46141.76
542.875	46221.63
543.075	46119.23
543.276	45711.69
543.476	45898.05
543.676	45341
543.877	46250.3
544.077	45650.25
544.277	45556.04
544.478	45859.14
544.678	45537.61
544.878	45832.52
545.078	45719.88
545.279	45537.61
545.479	45719.88
545.679	46000.45
545.879	45848.9
546.079	45484.36
546.28	45816.13
546.48	45515.08
546.68	46002.5
546.88	45689.16
547.08	45670.73
547.28	45453.64
547.48	45183.31
547.68	45304.14
547.88	45455.69
548.081	45748.55
548.281	45949.25
548.481	45295.95
548.681	45945.15
548.881	45441.35
549.081	45689.16
549.28	45277.52
549.48	45738.31
549.68	45281.61
549.88	46254.4
550.08	45074.77
550.28	45615.43
550.48	45273.42
550.68	45738.31
550.88	44757.33
551.08	44982.61
551.279	45527.37
551.479	45265.23
551.679	45144.4
551.879	45418.83
552.079	45392.2
552.278	44947.79
552.478	45156.69
552.678	45420.87
552.878	45453.64
553.077	45201.74
553.277	44847.44
553.477	45592.9
553.676	44648.79
553.876	44687.7
554.076	44515.67
554.275	44640.6
554.475	44616.02
554.674	45203.79
554.874	44798.29
555.074	44667.22
555.273	44656.98
555.473	44869.97
555.672	44443.99
555.872	44869.97
556.071	44753.24
556.271	44810.58
556.47	44308.83
556.67	44253.53
556.869	44413.27
557.068	44511.58
557.268	44222.81
557.467	44370.27
557.667	44314.97
557.866	44386.65
558.065	44462.43
558.265	44249.44
558.464	43905.38
558.663	44052.83
558.863	43702.63
559.062	44525.91
559.261	43651.43
559.461	44280.16
559.66	43383.15
559.859	43606.37
560.058	43546.98
560.258	43643.24
560.457	43438.44
560.656	43694.44
560.855	43467.11
561.054	43823.46
561.253	43536.74
561.453	43688.29
561.652	43161.97
561.851	43852.13
562.05	43350.38
562.249	42740.08
562.448	43487.59
562.647	42852.72
562.846	42920.31
563.045	42963.31
563.244	42592.63
563.443	43426.15
563.642	42531.19
563.841	42832.24
564.04	42570.1
564.239	43096.43
564.438	42680.69
564.637	42991.98
564.836	42479.99
565.035	42297.72
565.234	42518.9
565.432	42217.85
565.631	41939.33
565.83	41910.66
566.029	42015.1
566.228	41734.53
566.427	41927.04
566.625	41599.37
566.824	41064.85
567.023	41994.62
567.222	41062.8
567.42	41709.96
567.619	41601.41
567.818	41132.43
568.016	40823.19
568.215	41478.54
568.414	41030.03
568.612	41529.73
568.811	41099.66
569.01	41202.06
569.208	40737.17
569.407	41226.63
569.605	40204.7
569.804	41240.97
570.002	40847.76
570.201	40790.42
570.4	40253.85
570.598	39985.57
570.797	39950.75
570.995	40221.08
571.193	39719.33
571.392	40280.47
571.59	39793.06
571.789	39600.55
571.987	39979.42
572.186	39647.65
572.384	39698.85
572.582	40055.2
572.781	39690.66
572.979	38914.48
573.177	39727.52
573.376	39375.27
573.574	38959.53
573.772	39221.67
573.971	39014.83
574.169	38580.66
574.367	38754.74
574.565	39066.03
574.763	38660.53
574.962	38580.66
575.16	38375.86
575.358	38619.57
575.556	37857.73
575.754	38513.08
575.952	37878.21
576.151	38443.45
576.349	37810.62
576.547	37788.1
576.745	37794.24
576.943	38080.95
577.141	38015.42
577.339	37847.49
577.537	37679.55
577.735	37446.08
577.933	36981.2
578.131	37093.83
578.329	37018.06
578.527	36985.29
578.725	37198.28
578.923	36927.95
579.121	36839.89
579.319	36798.93
579.516	37116.36
579.714	36569.55
579.912	36540.88
580.11	36196.82
580.308	36592.08
580.506	36030.94
580.704	35553.76
580.901	36200.92
581.099	36420.05
581.297	36098.52
581.495	35697.12
581.692	35938.78
581.89	35576.29
582.088	35951.07
582.285	35422.69
582.483	35512.8
582.681	35135.98
582.878	34851.31
583.076	34994.67
583.274	35047.91
583.471	34824.68
583.669	35453.41
583.866	34683.37
584.064	35076.58
584.262	34101.75
584.459	34843.12
584.657	34572.78
584.854	34449.91
585.052	34198.01
585.249	34415.09
585.447	34204.15
585.644	33841.66
585.841	33972.73
586.039	34353.65
586.236	33200.65
586.434	33470.98
586.631	33763.84
586.828	33384.96
587.026	33556.99
587.223	33063.43
587.42	32961.03
587.618	33174.02
587.815	32799.24
588.012	32887.31
588.21	32434.71
588.407	32750.09
588.604	32567.82
588.801	32410.13
588.999	32510.48
589.196	32205.33
589.393	32479.76
589.59	32133.65
589.787	32408.08
589.984	32201.24
590.182	31701.53
590.379	31791.64
590.576	31701.53
590.773	31662.62
590.97	31361.57
591.167	31506.98
591.364	31113.77
591.561	31386.15
591.758	31197.73
591.955	31040.04
592.152	31171.11
592.349	31134.24
592.546	31119.91
592.743	30886.44
592.94	30192.18
593.137	30597.68
593.334	30505.52
593.531	30143.03
593.727	30540.33
593.924	30415.41
594.121	29991.48
594.318	30212.66
594.515	29846.07
594.712	30267.95
594.908	29749.82
595.105	29647.42
595.302	29268.55
595.499	29710.91
595.696	29794.87
595.892	29094.47
596.089	29524.54
596.286	29321.79
596.482	29393.47
596.679	29160
596.876	29006.41
597.072	29170.24
597.269	28934.73
597.466	28502.61
597.662	28602.96
597.859	28514.89
598.055	28441.17
598.252	28428.88
598.448	28721.74
598.645	28158.55
598.841	28050
599.038	28209.75
599.234	28156.5
599.431	27755.1
599.627	27847.26
599.824	28086.87
600.02	27662.94
600.217	27869.78
600.413	27687.51
600.609	27275.87
600.806	27142.75
601.002	27615.83
601.198	27083.36
601.395	27050.6
601.591	27210.34
601.787	27071.07
601.984	26905.19
602.18	27015.78
602.376	26411.63
602.572	26718.82
602.769	26636.91
602.965	26579.56
603.161	26462.83
603.357	26485.36
603.553	26249.84
603.75	26241.65
603.946	25864.82
604.142	26311.28
604.338	25920.12
604.534	25979.51
604.73	25817.72
604.926	25586.3
605.122	25725.56
605.318	25494.14
605.514	25395.84
605.71	25420.41
605.906	25199.23
606.102	25682.55
606.298	25393.79
606.494	25328.25
606.69	25109.12
606.886	25250.43
607.082	24650.38
607.278	24984.19
607.474	24650.38
607.67	24922.76
607.866	24441.48
608.062	24666.76
608.257	24496.78
608.453	24715.91
608.649	24795.78
608.845	24289.93
609.041	24324.75
609.236	24607.37
609.432	24441.48
609.628	24378
609.824	24283.79
610.019	24214.16
610.215	23894.68
610.411	23978.64
610.606	23829.14
610.802	23976.59
610.998	23827.09
611.193	23761.56
611.389	23827.09
611.584	23800.47
611.78	23351.96
611.976	23589.53
612.171	23745.17
612.367	23458.46
612.562	23550.62
612.758	23112.35
612.953	23440.03
613.149	23745.17
613.344	23405.21
613.539	23308.96
613.735	23356.06
613.93	23243.42
614.126	22958.75
614.321	23337.63
614.517	23239.33
614.712	23177.89
614.907	22727.33
615.103	23204.51
615.298	22878.88
615.493	22893.22
615.688	22725.29
615.884	23196.32
616.079	22647.46
616.274	22731.43
616.47	22479.53
616.665	22448.81
616.86	22260.4
617.055	22475.43
617.25	22588.07
617.445	22188.72
617.641	22155.95
617.836	22504.1
618.031	21869.23
618.226	22207.15
618.421	22110.89
618.616	22219.44
618.811	21682.87
619.006	22127.28
619.201	21545.66
619.396	21428.92
619.591	21576.37
619.786	21582.52
619.981	20943.55
620.176	21396.15
620.371	20970.18
620.566	21170.88
620.761	20824.77
620.956	21193.4
621.151	20708.04
621.346	20732.61
621.541	20390.6
621.735	20865.73
621.93	20214.48
622.125	20460.23
622.32	20017.87
622.515	20173.52
622.709	19886.8
622.904	19993.29
623.099	19731.15
623.294	19882.7
623.488	19299.03
623.683	19649.24
623.878	19303.13
624.072	19405.53
624.267	19473.11
624.462	19081.95
624.656	18877.15
624.851	19192.54
625.046	19112.67
625.24	18631.4
625.435	18498.28
625.629	18348.78
625.824	18442.98
626.018	18453.22
626.213	18139.88
626.407	18084.59
626.602	17947.37
626.796	18037.48
626.991	17943.28
627.185	17844.98
627.38	17736.43
627.574	17425.14
627.768	17347.32
627.963	17355.51
628.157	17148.67
628.352	17242.87
628.546	16962.3
628.74	17201.91
628.935	16984.83
629.129	16765.7
629.323	16483.08
629.517	16599.81
629.712	16726.78
629.906	16634.63
630.1	16184.07
630.294	16237.32
630.489	16132.87
630.683	16263.94
630.877	16020.24
631.071	16010
631.265	15960.84
631.459	15805.2
631.653	15649.55
631.848	15852.3
632.042	15469.33
632.236	15399.7
632.43	15514.39
632.624	15242.01
632.818	15360.79
633.012	15244.06
633.206	14838.56
633.4	14983.96
633.594	14951.2
633.788	14918.43
633.982	14912.28
634.176	14687.01
634.369	14680.86
634.563	14439.2
634.757	14349.09
634.951	14664.48
635.145	14287.65
635.339	14297.89
635.533	14023.47
635.726	14293.8
635.92	13982.51
636.114	14117.67
636.308	13972.27
636.501	14146.34
636.695	13728.56
636.889	13595.44
637.083	13650.74
637.276	13591.34
637.47	13466.42
637.664	13253.43
637.857	13536.05
638.051	13235
638.244	13148.98
638.438	13282.1
638.632	13067.06
638.825	12927.8
639.019	12868.41
639.212	12878.65
639.406	12925.75
639.599	12626.75
639.793	12757.82
639.986	12325.7
640.18	12657.47
640.373	12352.32
640.567	12393.28
640.76	12432.19
640.954	12108.62
641.147	12266.31
641.34	12084.04
641.534	11977.55
641.727	12041.03
641.92	11918.15
642.114	11957.07
642.307	11623.25
642.5	11936.59
642.694	11572.05
642.887	11504.46
643.08	11770.7
643.273	11582.29
643.467	11447.12
643.66	11404.11
643.853	11101.01
644.046	11156.31
644.239	11236.18
644.432	11236.18
644.626	11027.29
644.819	10845.02
645.012	10976.09
645.205	10984.28
645.398	10730.33
645.591	10791.77
645.784	10433.38
645.977	10652.51
646.17	10660.7
646.363	10460
646.556	10306.4
646.749	10156.9
646.942	10550.11
647.135	10185.57
647.328	10371.94
647.521	10255.2
647.714	10232.68
647.907	10144.61
648.099	9827.18
648.292	10140.52
648.485	9886.57
648.678	9839.47
648.871	9796.46
649.064	9888.62
649.256	9755.5
649.449	9732.97
649.642	9610.09
649.835	9626.48
650.027	9440.11
650.22	9331.57
650.413	9175.92
650.605	9313.14
650.798	9337.71
650.991	9204.6
651.183	9274.23
651.376	9059.19
651.568	9134.96
651.761	9180.02
651.954	9018.23
652.146	8962.94
652.339	8995.7
652.531	8977.27
652.724	8819.58
652.916	8768.38
653.109	8760.19
653.301	8567.68
653.494	8584.06
653.686	8475.52
653.879	8637.31
654.071	8344.45
654.263	8395.65
654.456	8389.5
654.648	8393.6
654.84	8088.45
655.033	8143.75
655.225	8078.21
655.417	8063.88
655.61	8108.93
655.802	8061.83
655.994	8076.16
656.186	7965.57
656.379	7990.15
656.571	7793.55
656.763	8006.53
656.955	7680.91
657.148	7609.23
657.34	7799.69
657.532	7744.39
657.724	7637.9
657.916	7506.83
658.108	7543.69
658.3	7541.64
658.492	7410.57
658.684	7420.81
658.876	7429.01
659.068	7326.61
659.26	7261.07
659.452	7291.79
659.644	7340.94
659.836	7068.56
660.028	7177.11
660.22	7097.24
660.412	7142.29
660.604	6902.68
660.796	6863.77
660.988	6904.73
661.18	6751.13
661.372	6798.23
661.563	6855.58
661.755	6701.98
661.947	6622.11
662.139	6679.45
662.331	6632.35
662.522	6560.67
662.714	6671.26
662.906	6562.72
663.097	6585.24
663.289	6390.69
663.481	6405.02
663.673	6402.97
663.864	6284.19
664.056	6259.62
664.247	6093.73
664.439	6224.8
664.631	6251.42
664.822	6237.09
665.014	6134.69
665.205	6028.2
665.397	6079.4
665.588	5966.76
665.78	6017.96
665.971	5942.18
666.163	6011.81
666.354	6116.26
666.546	5931.94
666.737	5792.68
666.929	5766.06
667.12	5917.61
667.311	5688.23
667.503	5675.95
667.694	5700.52
667.885	5518.25
668.077	5647.27
668.268	5555.12
668.459	5534.64
668.651	5630.89
668.842	5417.9
669.033	5508.01
669.224	5389.23
669.416	5589.93
669.607	5538.73
669.798	5198.77
669.989	5378.99
670.18	5286.83
670.371	5405.61
670.563	5217.2
670.754	5278.64
670.945	5143.47
671.136	5135.28
671.327	5079.99
671.518	5116.85
671.709	5073.84
671.9	5147.57
672.091	5276.59
672.282	5016.5
672.473	5036.98
672.664	4996.02
672.855	4801.46
673.046	5008.31
673.237	4991.92
673.428	5036.98
673.619	4918.2
673.809	4791.22
674	4912.05
674.191	4783.03
674.382	4799.41
674.573	4737.98
674.764	4770.74
674.954	4711.35
675.145	4750.26
675.336	4754.36
675.527	4670.39
675.717	4561.85
675.908	4529.08
676.099	4496.32
676.289	4574.14
676.48	4524.99
676.671	4541.37
676.861	4651.96
677.052	4504.51
677.243	4465.6
677.433	4553.66
677.624	4471.74
677.814	4590.52
678.005	4467.64
678.195	4500.41
678.386	4312
678.576	4262.85
678.767	4355.01
678.957	4400.06
679.148	4398.01
679.338	4244.42
679.529	4375.49
679.719	4275.13
679.909	4326.33
680.1	4230.08
680.29	4193.22
680.481	4268.99
680.671	4092.87
680.861	4215.74
681.052	4271.04
681.242	4297.66
681.432	4268.99
681.622	4068.29
681.813	4228.03
682.003	4056
682.193	4070.34
682.383	4105.15
682.573	4008.9
682.764	3963.84
682.954	4119.49
683.144	4111.3
683.334	4029.38
683.524	4066.24
683.714	4099.01
683.904	3914.69
684.094	4029.38
684.284	3996.61
684.474	3965.89
684.664	3941.32
684.854	3992.52
685.044	3832.77
685.234	3955.65
685.424	3931.08
685.614	3773.38
685.804	3922.88
685.994	3892.16
686.184	3820.49
686.374	3996.61
686.564	3701.7
686.753	3929.03
686.943	3582.92
687.133	3765.19
687.323	3711.94
687.513	3754.95
687.702	3668.94
687.892	3670.98
688.082	3615.69
688.272	3562.44
688.461	3736.52
688.651	3668.94
688.841	3670.98
689.03	3652.55
689.22	3738.57
689.41	3636.17
689.599	3517.39
689.789	3521.48
689.979	3382.22
690.168	3572.68
690.358	3451.85
690.547	3490.76
690.737	3404.75
690.926	3505.1
691.116	3466.19
691.305	3474.38
691.495	3302.35
691.684	3460.04
691.874	3376.08
692.063	3431.37
692.252	3269.58
692.442	3406.8
692.631	3345.36
692.82	3283.92
693.01	3386.32
693.199	3091.41
693.388	3288.01
693.578	3259.34
693.767	3318.73
693.956	3253.2
694.146	3208.14
694.335	3079.12
694.524	3195.86
694.713	3308.49
694.902	3232.72
695.092	3249.1
695.281	3294.16
695.47	3029.97
695.659	3144.66
695.848	3128.27
696.037	3193.81
696.226	3120.08
696.415	2876.37
696.604	3070.93
696.793	3064.79
696.982	3038.16
697.171	3128.27
697.36	3034.07
697.549	3005.39
697.738	2907.09
697.927	2948.05
698.116	3046.35
698.305	3081.17
698.494	2917.33
698.683	2974.67
698.872	2954.19
699.061	2870.23
699.25	2948.05
699.438	2941.91
699.627	2890.71
699.816	2890.71
700.005	2829.27
700.193	2862.04
700.382	2827.22
700.571	2735.06
700.76	2909.14
700.948	2804.69
701.137	2673.62
701.326	2870.23
701.514	2704.34
701.703	2862.04
701.892	2749.4
702.08	2780.12
702.269	2812.89
702.457	2837.46
702.646	2667.48
702.834	2708.44
703.023	2773.97
703.212	2753.49
703.4	2690.01
703.589	2751.45
703.777	2753.49
703.965	2735.06
704.154	2669.53
704.342	2776.02
704.531	2771.93
704.719	2589.66
704.907	2628.57
705.096	2577.37
705.284	2712.53
705.472	2687.96
705.661	2700.25
705.849	2702.29
706.037	2710.49
706.226	2726.87
706.414	2644.95
706.602	2622.42
706.79	2595.8
706.979	2522.07
707.167	2759.64
707.355	2589.66
707.543	2642.9
707.731	2640.86
707.919	2618.33
708.107	2624.47
708.296	2520.03
708.484	2655.19
708.672	2550.75
708.86	2593.75
709.048	2624.47
709.236	2522.07
709.424	2395.1
709.612	2597.85
709.8	2593.75
709.988	2554.84
710.176	2515.93
710.364	2456.54
710.551	2415.58
710.739	2454.49
710.927	2540.51
711.115	2563.03
711.303	2509.79
711.491	2606.04
711.679	2515.93
711.866	2456.54
712.054	2620.38
712.242	2532.31
712.43	2526.17
712.617	2370.52
712.805	2458.59
712.993	2448.35
713.181	2456.54
713.368	2530.27
713.556	2302.94
713.744	2413.53
713.931	2581.46
714.119	2448.35
714.306	2296.8
714.494	2378.72
714.682	2386.91
714.869	2290.65
715.057	2388.96
715.244	2417.63
715.432	2458.59
715.619	2399.2
715.807	2352.09
715.994	2382.81
716.182	2370.52
716.369	2345.95
716.556	2329.56
716.744	2337.76
716.931	2352.09
717.119	2300.89
717.306	2485.21
717.493	2331.61
717.681	2386.91
717.868	2270.17
718.055	2221.02
718.242	2313.18
718.43	2323.42
718.617	2415.58
718.804	2294.75
718.991	2286.56
719.179	2378.72
719.366	2364.38
719.553	2352.09
719.74	2229.21
719.927	2270.17
720.114	2292.7
720.301	2339.8
720.488	2173.92
720.676	2206.69
720.863	2292.7
721.05	2163.68
721.237	2366.43
721.424	2329.56
721.611	2128.86
721.798	2178.01
721.985	2194.4
722.172	2182.11
722.358	2186.21
722.545	2149.34
722.732	2165.73
722.919	2128.86
723.106	2325.47
723.293	2104.29
723.48	2304.99
723.667	2169.82
723.853	2300.89
724.04	2151.39
724.227	2145.25
724.414	2186.21
724.6	2235.36
724.787	2210.78
724.974	2302.94
725.161	2202.59
725.347	2157.54
725.534	2253.79
725.72	2200.54
725.907	2182.11
726.094	2264.03
726.28	2137.06
726.467	2178.01
726.653	2167.77
726.84	2180.06
727.027	2302.94
727.213	2100.19
727.4	2180.06
727.586	2212.83
727.773	2141.15
727.959	2223.07
728.145	2231.26
728.332	2153.44
728.518	2169.82
728.705	2130.91
728.891	2092
729.077	2040.8
729.264	2079.71
729.45	2040.8
729.636	2188.25
729.823	2089.95
730.009	2110.43
730.195	2048.99
730.382	2188.25
730.568	2055.14
730.754	2079.71
730.94	2139.1
731.126	2087.9
731.313	2014.18
731.499	2024.42
731.685	2040.8
731.871	2020.32
732.057	2120.67
732.243	2141.15
732.429	2008.03
732.615	2128.86
732.801	2024.42
732.987	2114.53
733.173	2137.06
733.359	2096.1
733.545	2083.81
733.731	2036.7
733.917	2014.18
734.103	2020.32
734.289	2130.91
734.475	2098.14
734.661	1991.65
734.847	2116.58
735.033	2075.62
735.219	2071.52
735.404	2089.95
735.59	2149.34
735.776	1958.88
735.962	2028.51
736.148	2104.29
736.333	2163.68
736.519	2096.1
736.705	1950.69
736.89	1956.83
737.076	1907.68
737.262	1973.22
737.447	1932.26
737.633	2124.77
737.819	1915.87
738.004	1948.64
738.19	1940.45
738.375	1793
738.561	2005.99
738.747	1960.93
738.932	1842.15
739.118	2048.99
739.303	1952.74
739.489	1842.15
739.674	1870.82
739.859	1983.46
740.045	1924.07
740.23	1907.68
740.416	1874.92
740.601	1924.07
740.786	1891.3
740.972	1778.66
741.157	1965.03
741.342	1776.61
741.528	1960.93
741.713	1842.15
741.898	1719.27
742.084	1891.3
742.269	1852.39
742.454	1958.88
742.639	1913.83
742.824	1778.66
743.01	1803.24
743.195	1844.2
743.38	1866.72
743.565	1870.82
743.75	1833.96
743.935	1727.46
744.12	1786.85
744.305	1735.65
744.49	1754.09
744.675	1786.85
744.86	1743.85
745.045	1739.75
745.23	1876.96
745.415	1672.17
745.6	1571.82
745.785	1610.73
745.97	1745.89
746.155	1696.74
746.34	1674.21
746.525	1543.14
746.71	1686.5
746.895	1672.17
747.079	1694.69
747.264	1588.2
747.449	1745.89
747.634	1612.78
747.819	1676.26
748.003	1580.01
748.188	1670.12
748.373	1428.46
748.557	1598.44
748.742	1516.52
748.927	1539.05
749.111	1563.62
749.296	1580.01
749.481	1526.76
749.665	1547.24
749.85	1459.18
750.034	1481.71
750.219	1588.2
750.404	1432.55
750.588	1491.95
750.773	1528.81
750.957	1457.13
751.141	1498.09
751.326	1459.18
751.51	1450.99
751.695	1416.17
751.879	1465.32
752.064	1506.28
752.248	1457.13
752.432	1371.12
752.617	1367.02
752.801	1369.07
752.985	1459.18
753.17	1334.25
753.354	1387.5
753.538	1223.66
753.722	1260.52
753.907	1367.02
754.091	1393.64
754.275	1391.59
754.459	1254.38
754.643	1319.92
754.828	1248.24
755.012	1281
755.196	1227.76
755.38	1229.81
755.564	1180.65
755.748	1205.23
755.932	1178.61
756.116	1174.51
756.3	1197.04
756.484	1154.03
756.668	1231.85
756.852	1147.89
757.036	1139.69
757.22	1254.38
757.404	1145.84
757.588	1203.18
757.772	1164.27
757.956	1104.88
758.14	1244.14
758.323	1115.12
758.507	1090.54
758.691	1149.93
758.875	1164.27
759.059	1149.93
759.242	1123.31
759.426	1090.54
759.61	1133.55
759.794	1039.34
759.977	1037.3
760.161	1199.09
760.345	1149.93
760.528	1115.12
760.712	1039.34
760.895	1022.96
761.079	1014.77
761.263	969.71
761.446	1018.86
761.63	1016.82
761.813	994.29
761.997	965.62
762.18	1059.82
762.364	916.47
762.547	912.37
762.731	889.84
762.914	1043.44
763.098	1022.96
763.281	932.85
763.464	1006.58
763.648	891.89
763.831	961.52
764.015	830.45
764.198	1006.58
764.381	977.91
764.564	1014.77
764.748	951.28
764.931	992.24
765.114	918.51
765.297	838.64
765.481	916.47
765.664	904.18
765.847	912.37
766.03	926.71
766.213	873.46
766.397	918.51
766.58	875.51
766.763	932.85
766.946	883.7
767.129	793.59
767.312	787.44
767.495	891.89
767.678	916.47
767.861	885.75
768.044	877.55
768.227	814.07
768.41	822.26
768.593	918.51
768.776	926.71
768.959	818.16
769.142	986.1
769.324	793.59
769.507	861.17
769.69	891.89
769.873	842.74
770.056	809.97
770.239	803.83
770.421	926.71
770.604	875.51
770.787	820.21
770.97	906.23
771.152	795.64
771.335	834.55
771.518	830.45
771.7	779.25
771.883	785.4
772.066	719.86
772.248	740.34
772.431	834.55
772.613	818.16
772.796	736.24
772.978	805.88
773.161	787.44
773.343	728.05
773.526	789.49
773.708	760.82
773.891	754.68
774.073	820.21
774.256	789.49
774.438	838.64
774.621	703.48
774.803	664.57
774.985	695.29
775.168	787.44
775.35	590.84
775.532	701.43
775.715	752.63
775.897	701.43
776.079	719.86
776.261	711.67
776.444	689.14
776.626	639.99
776.808	678.9
776.99	662.52
777.173	580.6
777.355	662.52
777.537	662.52
777.719	656.37
777.901	619.51
778.083	697.33
778.265	609.27
778.447	711.67
778.629	703.48
778.811	551.93
778.993	646.13
779.175	635.89
779.357	599.03
779.539	621.56
779.721	574.46
779.903	582.65
780.085	599.03
780.267	584.7
780.449	551.93
780.631	529.4
780.812	654.33
780.994	564.22
781.176	547.83
781.358	533.5
781.54	537.59
781.721	580.6
781.903	611.32
782.085	539.64
782.267	551.93
782.448	453.63
782.63	498.68
782.812	449.53
782.993	500.73
783.175	525.3
783.357	541.69
783.538	545.78
783.72	494.58
783.901	556.02
784.083	400.38
784.264	465.91
784.446	396.28
784.627	459.77
784.809	431.1
784.99	474.1
785.172	502.78
785.353	500.73
785.535	418.81
785.716	451.58
785.897	453.63
786.079	381.95
786.26	472.06
786.441	367.61
786.623	500.73
786.804	416.76
786.985	445.43
787.167	424.95
787.348	359.42
787.529	465.91
787.71	433.15
787.891	379.9
788.073	402.43
788.254	377.85
788.435	340.99
788.616	310.27
788.797	353.27
788.978	351.23
789.159	347.13
789.34	373.75
789.522	373.75
789.703	386.04
789.884	371.71
790.065	429.05
790.246	334.84
790.427	328.7
790.607	328.7
790.788	412.67
790.969	304.12
791.15	338.94
791.331	322.56
791.512	271.36
791.693	351.23
791.874	388.09
792.054	402.43
792.235	359.42
792.416	273.4
792.597	285.69
792.778	351.23
792.958	351.23
793.139	297.98
793.32	326.65
793.5	334.84
793.681	283.64
793.862	254.97
794.042	367.61
794.223	326.65
794.404	322.56
794.584	293.88
794.765	343.03
794.945	252.92
795.126	285.69
795.306	306.17
795.487	248.83
795.667	244.73
795.848	254.97
796.028	277.5
796.209	326.65
796.389	248.83
796.57	271.36
796.75	234.49
796.93	318.46
797.111	310.27
797.291	261.12
797.471	271.36
797.652	254.97
797.832	216.06
798.012	216.06
798.192	304.12
798.373	279.55
798.553	238.59
798.733	343.03
798.913	214.01
799.093	297.98
799.274	261.12
799.454	248.83
799.634	179.2
799.814	281.6
799.994	242.68
800.174	232.44
800.354	211.96
800.534	203.77
800.714	269.31
800.894	279.55
801.074	187.39
801.254	236.54
801.434	248.83
801.614	230.4
801.794	179.2
801.974	797.68
802.154	230.4
802.334	265.21
802.514	168.96
802.693	244.73
802.873	203.77
803.053	240.64
803.233	261.12
803.413	211.96
803.592	175.1
803.772	259.07
803.952	187.39
804.131	269.31
804.311	203.77
804.491	220.16
804.67	195.58
804.85	195.58
805.03	205.82
805.209	281.6
805.389	220.16
805.568	195.58
805.748	220.16
805.928	218.11
806.107	216.06
806.287	244.73
806.466	179.2
806.646	189.44
806.825	158.72
807.004	238.59
807.184	162.81
807.363	183.29
807.543	185.34
807.722	187.39
807.901	173.05
808.081	242.68
808.26	154.62
808.439	162.81
808.619	156.67
808.798	48.13
808.977	136.19
809.156	222.2
809.336	195.58
809.515	209.92
809.694	138.24
809.873	209.92
810.052	138.24
810.231	238.59
810.411	150.53
810.59	164.86
810.769	183.29
810.948	130.05
811.127	144.38
811.306	171.01
811.485	80.89
811.664	154.62
811.843	232.44
812.022	211.96
812.201	238.59
812.38	121.85
812.559	134.14
812.737	228.35
812.916	89.09
813.095	117.76
813.274	140.29
813.453	214.01
813.632	162.81
813.811	195.58
813.989	142.33
814.168	203.77
814.347	97.28
814.526	191.49
814.704	171.01
814.883	179.2
815.062	156.67
815.24	134.14
815.419	93.18
815.598	154.62
815.776	7.17
815.955	154.62
816.133	109.57
816.312	156.67
816.49	107.52
816.669	105.47
816.847	130.05
817.026	179.2
817.204	164.86
817.383	134.14
817.561	80.89
817.74	162.81
817.918	91.13
818.097	203.77
818.275	74.75
818.453	82.94
818.632	162.81
818.81	48.13
818.988	121.85
819.167	109.57
819.345	101.37
819.523	132.09
819.701	166.91
819.879	164.86
820.058	142.33
820.236	99.33
820.414	89.09
820.592	93.18
820.77	138.24
820.948	70.65
821.127	50.18
821.305	164.86
821.483	132.09
821.661	140.29
821.839	76.8
822.017	58.37
822.195	125.95
822.373	179.2
822.551	31.74
822.729	68.61
822.907	58.37
823.085	183.29
823.262	89.09
823.44	138.24
823.618	87.04
823.796	76.8
823.974	76.8
824.152	113.66
824.329	95.23
824.507	50.18
824.685	84.99
824.863	56.32
825.04	31.74
825.218	78.85
825.396	121.85
825.574	62.46
825.751	50.18
825.929	113.66
826.107	23.55
826.284	181.25
826.462	160.77
826.639	52.22
826.817	-11.26
826.994	56.32
827.172	21.5
827.349	121.85
827.527	56.32
827.704	105.47
827.882	150.53
828.059	44.03
828.237	64.51
828.414	132.09
828.591	68.61
828.769	105.47
828.946	70.65
829.124	105.47
829.301	66.56
829.478	136.19
829.655	-19.46
829.833	72.7
830.01	31.74
830.187	68.61
830.364	130.05
830.542	11.26
830.719	64.51
830.896	64.51
831.073	211.96
831.25	74.75
831.427	134.14
831.604	80.89
831.782	76.8
831.959	89.09
832.136	84.99
832.313	109.57
832.49	17.41
832.667	82.94
832.844	58.37
833.021	142.33
833.198	105.47
833.374	52.22
833.551	95.23
833.728	58.37
833.905	105.47
834.082	17.41
834.259	99.33
834.436	130.05
834.612	64.51
834.789	80.89
834.966	52.22
835.143	89.09
835.319	23.55
835.496	113.66
835.673	117.76
835.85	80.89
836.026	-1.02
836.203	113.66
836.38	84.99
836.556	105.47
836.733	56.32
836.909	148.48
837.086	89.09
837.262	97.28
837.439	113.66
837.616	23.55
837.792	148.48
837.968	41.98
838.145	89.09
838.321	84.99
838.498	91.13
838.674	117.76
838.851	93.18
839.027	-29.7
839.203	-23.55
839.38	58.37
839.556	44.03
839.732	39.94
839.909	41.98
840.085	72.7
840.261	1.02
840.437	29.7
840.614	15.36
840.79	74.75
840.966	78.85
841.142	76.8
841.318	-23.55
841.494	56.32
841.671	56.32
841.847	89.09
842.023	72.7
842.199	72.7
842.375	125.95
842.551	11.26
842.727	-1.02
842.903	48.13
843.079	56.32
843.255	146.43
843.431	50.18
843.607	39.94
843.783	39.94
843.959	89.09
844.134	72.7
844.31	123.9
844.486	41.98
844.662	27.65
844.838	31.74
845.013	64.51
845.189	-9.22
845.365	74.75
845.541	74.75
845.716	50.18
845.892	48.13
846.068	95.23
846.244	33.79
846.419	99.33
846.595	-13.31
846.77	72.7
846.946	48.13
847.122	70.65
847.297	48.13
847.473	80.89
847.648	54.27
847.824	72.7
847.999	-23.55
848.175	-17.41
848.35	105.47
848.526	105.47
848.701	97.28
848.876	119.81
849.052	72.7
849.227	89.09
849.403	19.46
849.578	-1.02
849.753	48.13
849.929	9.22
850.104	-23.55
850.279	56.32
850.454	33.79
850.63	21.5
850.805	15.36
850.98	-17.41
851.155	-13.31
851.33	-1.02
851.505	39.94
851.681	132.09
851.856	7.17
852.031	21.5
852.206	31.74
852.381	-37.89
852.556	84.99
852.731	37.89
852.906	25.6
853.081	93.18
853.256	48.13
853.431	56.32
853.606	58.37
853.781	64.51
853.956	1.02
854.131	-17.41
854.305	-5.12
854.48	72.7
854.655	-5.12
854.83	3.07
855.005	-15.36
855.18	-25.6
855.354	-1.02
855.529	50.18
855.704	9.22
855.879	91.13
856.053	-23.55
856.228	48.13
856.403	31.74
856.577	84.99
856.752	33.79
856.926	11.26
857.101	17.41
857.276	82.94
857.45	60.42
857.625	21.5
857.799	-17.41
857.974	66.56
858.148	-50.18
858.323	5.12
858.497	1.02
858.672	-3.07
858.846	-9.22
859.02	39.94
859.195	-13.31
859.369	17.41
859.543	-5.12
859.718	48.13
859.892	93.18
860.066	7.17
860.241	11.26
860.415	7.17
860.589	35.84
860.763	33.79
860.938	35.84
861.112	-56.32
861.286	1.02
861.46	70.65
861.634	39.94
861.808	48.13
861.982	35.84
862.157	9.22
862.331	-9.22
862.505	-1.02
862.679	72.7
862.853	-9.22
863.027	-82.94
863.201	91.13
863.375	-54.27
863.549	31.74
863.722	-9.22
863.896	41.98
864.07	19.46
864.244	48.13
864.418	17.41
864.592	41.98
864.766	-39.94
864.939	-9.22
865.113	113.66
865.287	68.61
865.461	62.46
865.634	66.56
865.808	1.02
865.982	23.55
866.156	21.5
866.329	35.84
866.503	46.08
866.676	19.46
866.85	-41.98
867.024	19.46
867.197	17.41
867.371	7.17
867.544	37.89
867.718	15.36
867.891	19.46
868.065	-9.22
868.238	-5.12
868.412	80.89
868.585	15.36
868.759	132.09
868.932	11.26
869.105	-7.17
869.279	-5.12
869.452	-25.6
869.625	93.18
869.799	-9.22
869.972	-9.22
870.145	-7.17
870.319	39.94
870.492	-5.12
870.665	-13.31
870.838	-23.55
871.011	-1.02
871.185	56.32
871.358	-25.6
871.531	74.75
871.704	58.37
871.877	-17.41
872.05	-17.41
872.223	48.13
872.396	39.94
872.569	-3.07
872.742	-48.13
872.915	-7.17
873.088	7.17
873.261	-31.74
873.434	35.84
873.607	105.47
873.78	25.6
873.953	35.84
874.126	58.37
874.299	89.09
874.471	19.46
874.644	19.46
874.817	-64.51
874.99	-27.65
875.163	44.03
875.335	46.08
875.508	23.55
875.681	46.08
875.853	-5.12
876.026	3.07
876.199	37.89
876.371	23.55
876.544	-37.89
876.717	89.09
876.889	35.84
877.062	70.65
877.234	23.55
877.407	-62.46
877.579	-9.22
877.752	21.5
877.924	64.51
878.097	-44.03
878.269	19.46
878.442	50.18
878.614	72.7
878.786	21.5
878.959	-39.94
879.131	58.37
879.303	-5.12
879.476	17.41
879.648	44.03
879.82	19.46
879.993	23.55
880.165	25.6
880.337	48.13
880.509	-15.36
880.681	-87.04
880.854	-50.18
881.026	15.36
881.198	99.33
881.37	31.74
881.542	-50.18
881.714	25.6
881.886	39.94
882.058	91.13
882.23	58.37
882.402	60.42
882.574	7.17
882.746	7.17
882.918	84.99
883.09	-15.36
883.262	9.22
883.434	7.17
883.606	1.02
883.778	-19.46
883.95	-41.98
884.122	23.55
884.293	-5.12
884.465	-7.17
884.637	15.36
884.809	-21.5
884.98	50.18
885.152	21.5
885.324	91.13
885.496	-19.46
885.667	23.55
885.839	31.74
886.011	15.36
886.182	7.17
886.354	64.51
886.525	5.12
886.697	-13.31
886.869	39.94
887.04	56.32
887.212	87.04
887.383	91.13
887.555	50.18
887.726	-1.02
887.897	-58.37
888.069	-5.12
888.24	78.85
888.412	52.22
888.583	-25.6
888.754	23.55
888.926	35.84
889.097	31.74
889.268	-103.42
889.44	19.46
889.611	-37.89
889.782	3.07
889.953	-68.61
890.125	3.07
890.296	-25.6
890.467	23.55
890.638	-46.08
890.809	78.85
890.98	56.32
891.151	31.74
891.323	-29.7
891.494	11.26
891.665	62.46
891.836	-5.12
892.007	-25.6
892.178	52.22
892.349	29.7
892.52	-48.13
892.691	-9.22
892.862	9.22
893.032	-52.22
893.203	-9.22
893.374	-50.18
893.545	11.26
893.716	-9.22
893.887	50.18
894.057	7.17
894.228	-9.22
894.399	-33.79
894.57	39.94
894.74	-9.22
894.911	37.89
895.082	-13.31
895.253	58.37
895.423	-33.79
895.594	89.09
895.764	15.36
895.935	-41.98
896.106	-7.17
896.276	-21.5
896.447	35.84
896.617	-13.31
896.788	-33.79
896.958	33.79
897.129	-1.02
897.299	3.07
897.47	35.84
897.64	33.79
897.81	-39.94
897.981	23.55
898.151	-15.36
898.322	-1.02
898.492	21.5
898.662	17.41
898.832	-74.75
899.003	-17.41
899.173	62.46
899.343	-9.22
899.513	23.55
