Data from USB4F104151__259__14-45-59-280.txt Node

Date: Thu Mar 13 14:45:59 EDT 2025
User: louis
Spectrometer: USB4F10415
Trigger mode: 4
Integration Time (sec): 2.000000E-2
Scans to average: 1
Electric dark correction enabled: true
Nonlinearity correction enabled: false
Boxcar width: 0
XAxis mode: Wavelengths
Number of Pixels in Spectrum: 3648
>>>>>Begin Spectral Data<<<<<
178.204	-100.86
178.424	-100.86
178.644	-100.86
178.864	-158.21
179.084	-158.21
179.304	5.63
179.524	-51.71
179.744	-59.9
179.964	73.21
180.184	73.21
180.404	32.26
180.624	-23.04
180.844	22.02
181.064	-39.42
181.283	-20.99
181.503	-2.56
181.723	-8.7
181.943	-0.51
182.163	95.74
182.383	1.54
182.602	-45.57
182.822	40.45
183.042	-16.9
183.262	-12.8
183.482	44.54
183.701	42.5
183.921	-2.56
184.141	-37.38
184.361	42.5
184.58	-45.57
184.8	3.58
185.02	44.54
185.239	69.12
185.459	93.69
185.679	71.17
185.898	-18.94
186.118	36.35
186.338	-18.94
186.557	24.06
186.777	67.07
186.997	32.26
187.216	-2.56
187.436	79.36
187.655	28.16
187.875	-33.28
188.095	-37.38
188.314	101.89
188.534	-0.51
188.753	-111.1
188.973	30.21
189.192	54.78
189.412	52.74
189.631	62.98
189.851	-2.56
190.07	5.63
190.29	50.69
190.509	-94.72
190.729	-16.9
190.948	71.17
191.168	159.23
191.387	54.78
191.607	19.97
191.826	32.26
192.045	44.54
192.265	11.78
192.484	-2.56
192.704	-6.66
192.923	77.31
193.142	155.13
193.362	7.68
193.581	93.69
193.8	36.35
194.02	3.58
194.239	-39.42
194.458	17.92
194.678	44.54
194.897	-18.94
195.116	85.5
195.335	-20.99
195.555	-4.61
195.774	77.31
195.993	89.6
196.212	-43.52
196.432	60.93
196.651	3.58
196.87	-12.8
197.089	69.12
197.308	-4.61
197.528	89.6
197.747	-82.43
197.966	-45.57
198.185	22.02
198.404	28.16
198.623	-2.56
198.842	-43.52
199.062	3.58
199.281	24.06
199.5	-8.7
199.719	15.87
199.938	44.54
200.157	-4.61
200.376	-12.8
200.595	54.78
200.814	-20.99
201.033	3.58
201.252	48.64
201.471	7.68
201.69	75.26
201.909	-2.56
202.128	44.54
202.347	79.36
202.566	-18.94
202.785	-61.95
203.004	7.68
203.223	95.74
203.442	-18.94
203.661	56.83
203.879	54.78
204.098	62.98
204.317	-0.51
204.536	54.78
204.755	15.87
204.974	-29.18
205.193	48.64
205.411	50.69
205.63	56.83
205.849	9.73
206.068	46.59
206.287	3.58
206.505	24.06
206.724	-4.61
206.943	-0.51
207.162	-68.09
207.381	-10.75
207.599	13.82
207.818	15.87
208.037	11.78
208.255	60.93
208.474	-2.56
208.693	54.78
208.911	13.82
209.13	-20.99
209.349	56.83
209.567	32.26
209.786	52.74
210.005	15.87
210.223	-10.75
210.442	5.63
210.661	24.06
210.879	32.26
211.098	3.58
211.316	24.06
211.535	-0.51
211.753	-16.9
211.972	101.89
212.191	65.02
212.409	22.02
212.628	38.4
212.846	77.31
213.065	54.78
213.283	36.35
213.502	-20.99
213.72	77.31
213.938	-6.66
214.157	-4.61
214.375	-59.9
214.594	-25.09
214.812	22.02
215.031	32.26
215.249	44.54
215.467	44.54
215.686	24.06
215.904	19.97
216.122	-4.61
216.341	77.31
216.559	24.06
216.778	93.69
216.996	30.21
217.214	-57.86
217.432	56.83
217.651	26.11
217.869	-25.09
218.087	54.78
218.306	-20.99
218.524	-8.7
218.742	32.26
218.96	5.63
219.179	-37.38
219.397	38.4
219.615	99.84
219.833	54.78
220.051	11.78
220.27	71.17
220.488	81.41
220.706	83.45
220.924	40.45
221.142	-16.9
221.36	5.63
221.578	19.97
221.796	7.68
222.015	52.74
222.233	11.78
222.451	93.69
222.669	-27.14
222.887	93.69
223.105	-20.99
223.323	42.5
223.541	-20.99
223.759	87.55
223.977	-4.61
224.195	52.74
224.413	26.11
224.631	77.31
224.849	46.59
225.067	69.12
225.285	44.54
225.503	48.64
225.721	-27.14
225.939	-41.47
226.157	3.58
226.375	151.04
226.592	-70.14
226.81	-20.99
227.028	7.68
227.246	52.74
227.464	99.84
227.682	87.55
227.9	11.78
228.117	5.63
228.335	-12.8
228.553	44.54
228.771	-20.99
228.989	-6.66
229.206	22.02
229.424	24.06
229.642	-88.57
229.86	11.78
230.077	5.63
230.295	36.35
230.513	32.26
230.731	26.11
230.948	52.74
231.166	65.02
231.384	-53.76
231.601	13.82
231.819	56.83
232.037	11.78
232.254	3.58
232.472	11.78
232.689	9.73
232.907	73.21
233.125	44.54
233.342	22.02
233.56	-72.19
233.777	97.79
233.995	36.35
234.213	97.79
234.43	-29.18
234.648	71.17
234.865	110.08
235.083	89.6
235.3	36.35
235.518	22.02
235.735	-18.94
235.953	79.36
236.17	-35.33
236.388	24.06
236.605	13.82
236.822	3.58
237.04	67.07
237.257	54.78
237.475	13.82
237.692	-12.8
237.909	48.64
238.127	34.3
238.344	30.21
238.562	28.16
238.779	-115.2
238.996	36.35
239.214	1.54
239.431	52.74
239.648	-43.52
239.865	60.93
240.083	5.63
240.3	3.58
240.517	-18.94
240.735	30.21
240.952	52.74
241.169	52.74
241.386	36.35
241.603	11.78
241.821	-23.04
242.038	15.87
242.255	81.41
242.472	-12.8
242.689	87.55
242.907	-20.99
243.124	44.54
243.341	-27.14
243.558	7.68
243.775	-29.18
243.992	-25.09
244.209	5.63
244.426	65.02
244.643	44.54
244.86	13.82
245.078	5.63
245.295	3.58
245.512	15.87
245.729	19.97
245.946	-12.8
246.163	34.3
246.38	52.74
246.597	48.64
246.814	-14.85
247.031	7.68
247.248	11.78
247.464	40.45
247.681	1.54
247.898	1.54
248.115	19.97
248.332	28.16
248.549	101.89
248.766	-4.61
248.983	81.41
249.2	15.87
249.417	28.16
249.633	-16.9
249.85	62.98
250.067	13.82
250.284	36.35
250.501	-20.99
250.717	42.5
250.934	-68.09
251.151	36.35
251.368	-29.18
251.585	81.41
251.801	71.17
252.018	-12.8
252.235	28.16
252.451	-4.61
252.668	28.16
252.885	11.78
253.102	40.45
253.318	46.59
253.535	-8.7
253.752	-2.56
253.968	-55.81
254.185	-4.61
254.401	13.82
254.618	-4.61
254.835	46.59
255.051	3.58
255.268	56.83
255.484	-4.61
255.701	34.3
255.917	28.16
256.134	44.54
256.351	65.02
256.567	-29.18
256.784	36.35
257	-31.23
257.217	67.07
257.433	44.54
257.65	-10.75
257.866	91.65
258.082	-18.94
258.299	-10.75
258.515	87.55
258.732	-27.14
258.948	32.26
259.165	69.12
259.381	-20.99
259.597	52.74
259.814	-4.61
260.03	-14.85
260.246	19.97
260.463	28.16
260.679	-2.56
260.895	36.35
261.112	32.26
261.328	-20.99
261.544	5.63
261.761	95.74
261.977	48.64
262.193	52.74
262.409	19.97
262.626	-16.9
262.842	34.3
263.058	56.83
263.274	30.21
263.49	-20.99
263.707	32.26
263.923	19.97
264.139	-53.76
264.355	36.35
264.571	85.5
264.787	-45.57
265.004	28.16
265.22	13.82
265.436	26.11
265.652	3.58
265.868	13.82
266.084	-51.71
266.3	-4.61
266.516	-20.99
266.732	46.59
266.948	44.54
267.164	36.35
267.38	5.63
267.596	13.82
267.812	122.37
268.028	-49.66
268.244	3.58
268.46	40.45
268.676	40.45
268.892	60.93
269.108	11.78
269.324	-47.62
269.54	48.64
269.756	40.45
269.972	-2.56
270.188	44.54
270.403	-78.33
270.619	13.82
270.835	-59.9
271.051	9.73
271.267	-37.38
271.483	28.16
271.698	7.68
271.914	19.97
272.13	44.54
272.346	19.97
272.562	-45.57
272.777	42.5
272.993	30.21
273.209	30.21
273.425	19.97
273.64	13.82
273.856	118.27
274.072	19.97
274.287	-12.8
274.503	-10.75
274.719	73.21
274.934	-20.99
275.15	-10.75
275.366	19.97
275.581	28.16
275.797	-4.61
276.012	24.06
276.228	-4.61
276.444	-43.52
276.659	85.5
276.875	-41.47
277.09	60.93
277.306	19.97
277.521	69.12
277.737	-61.95
277.952	-29.18
278.168	-16.9
278.383	69.12
278.599	11.78
278.814	85.5
279.03	22.02
279.245	24.06
279.461	-0.51
279.676	-10.75
279.892	-0.51
280.107	19.97
280.322	22.02
280.538	-23.04
280.753	-16.9
280.969	13.82
281.184	54.78
281.399	81.41
281.615	11.78
281.83	11.78
282.045	22.02
282.26	19.97
282.476	-8.7
282.691	34.3
282.906	17.92
283.122	24.06
283.337	-53.76
283.552	54.78
283.767	44.54
283.983	48.64
284.198	40.45
284.413	26.11
284.628	-92.67
284.843	54.78
285.058	60.93
285.274	11.78
285.489	60.93
285.704	79.36
285.919	-4.61
286.134	32.26
286.349	65.02
286.564	38.4
286.779	3.58
286.995	19.97
287.21	-53.76
287.425	54.78
287.64	62.98
287.855	69.12
288.07	-10.75
288.285	73.21
288.5	77.31
288.715	28.16
288.93	7.68
289.145	-12.8
289.36	110.08
289.575	56.83
289.79	44.54
290.004	-37.38
290.219	44.54
290.434	44.54
290.649	26.11
290.864	48.64
291.079	-10.75
291.294	50.69
291.509	-51.71
291.724	54.78
291.938	19.97
292.153	-23.04
292.368	77.31
292.583	56.83
292.798	28.16
293.012	26.11
293.227	38.4
293.442	-8.7
293.657	36.35
293.871	11.78
294.086	-76.29
294.301	-8.7
294.516	3.58
294.73	-33.28
294.945	3.58
295.16	40.45
295.374	32.26
295.589	69.12
295.804	-35.33
296.018	15.87
296.233	40.45
296.447	11.78
296.662	-35.33
296.877	58.88
297.091	3.58
297.306	26.11
297.52	-12.8
297.735	5.63
297.949	-45.57
298.164	93.69
298.378	19.97
298.593	-78.33
298.807	5.63
299.022	36.35
299.236	69.12
299.451	48.64
299.665	77.31
299.88	85.5
300.094	128.51
300.309	36.35
300.523	19.97
300.737	-10.75
300.952	69.12
301.166	32.26
301.381	19.97
301.595	-14.85
301.809	-16.9
302.024	-49.66
302.238	1.54
302.452	65.02
302.667	11.78
302.881	65.02
303.095	101.89
303.309	7.68
303.524	32.26
303.738	48.64
303.952	28.16
304.166	60.93
304.381	1.54
304.595	3.58
304.809	-76.29
305.023	42.5
305.237	48.64
305.452	-8.7
305.666	-18.94
305.88	48.64
306.094	13.82
306.308	114.17
306.522	5.63
306.736	28.16
306.95	65.02
307.164	11.78
307.379	19.97
307.593	77.31
307.807	65.02
308.021	36.35
308.235	44.54
308.449	-10.75
308.663	11.78
308.877	56.83
309.091	3.58
309.305	9.73
309.519	38.4
309.733	101.89
309.947	3.58
310.161	9.73
310.374	28.16
310.588	46.59
310.802	19.97
311.016	32.26
311.23	101.89
311.444	-43.52
311.658	-12.8
311.872	11.78
312.085	77.31
312.299	38.4
312.513	54.78
312.727	38.4
312.941	40.45
313.154	17.92
313.368	5.63
313.582	116.22
313.796	1.54
314.009	83.45
314.223	71.17
314.437	40.45
314.651	13.82
314.864	-14.85
315.078	97.79
315.292	24.06
315.505	13.82
315.719	-14.85
315.933	44.54
316.146	-31.23
316.36	89.6
316.573	95.74
316.787	11.78
317.001	30.21
317.214	-14.85
317.428	-2.56
317.641	-35.33
317.855	60.93
318.068	32.26
318.282	87.55
318.495	91.65
318.709	34.3
318.922	44.54
319.136	11.78
319.349	65.02
319.563	-10.75
319.776	101.89
319.99	69.12
320.203	-0.51
320.417	38.4
320.63	60.93
320.843	97.79
321.057	71.17
321.27	15.87
321.483	65.02
321.697	-27.14
321.91	-0.51
322.124	52.74
322.337	52.74
322.55	19.97
322.763	-23.04
322.977	-0.51
323.19	-49.66
323.403	54.78
323.617	44.54
323.83	28.16
324.043	32.26
324.256	44.54
324.469	-18.94
324.683	44.54
324.896	19.97
325.109	28.16
325.322	3.58
325.535	44.54
325.748	24.06
325.962	7.68
326.175	3.58
326.388	-12.8
326.601	38.4
326.814	-2.56
327.027	85.5
327.24	11.78
327.453	38.4
327.666	17.92
327.879	24.06
328.092	-2.56
328.305	116.22
328.518	3.58
328.731	60.93
328.944	54.78
329.157	77.31
329.37	28.16
329.583	11.78
329.796	114.17
330.009	-51.71
330.222	24.06
330.435	26.11
330.648	24.06
330.861	-39.42
331.073	46.59
331.286	69.12
331.499	95.74
331.712	-0.51
331.925	99.84
332.138	52.74
332.35	50.69
332.563	-29.18
332.776	118.27
332.989	38.4
333.202	38.4
333.414	-8.7
333.627	11.78
333.84	62.98
334.053	9.73
334.265	28.16
334.478	-25.09
334.691	124.41
334.903	7.68
335.116	52.74
335.329	48.64
335.541	52.74
335.754	28.16
335.966	36.35
336.179	19.97
336.392	65.02
336.604	22.02
336.817	15.87
337.029	85.5
337.242	67.07
337.454	22.02
337.667	13.82
337.88	79.36
338.092	19.97
338.305	-12.8
338.517	-10.75
338.729	26.11
338.942	60.93
339.154	28.16
339.367	15.87
339.579	30.21
339.792	36.35
340.004	28.16
340.217	36.35
340.429	1.54
340.641	-0.51
340.854	11.78
341.066	62.98
341.278	101.89
341.491	105.98
341.703	101.89
341.915	-53.76
342.128	67.07
342.34	69.12
342.552	85.5
342.764	-23.04
342.977	-10.75
343.189	79.36
343.401	32.26
343.613	32.26
343.826	15.87
344.038	7.68
344.25	36.35
344.462	-4.61
344.674	11.78
344.886	-10.75
345.099	89.6
345.311	62.98
345.523	52.74
345.735	-37.38
345.947	36.35
346.159	69.12
346.371	3.58
346.583	114.17
346.795	11.78
347.007	28.16
347.219	44.54
347.431	54.78
347.643	151.04
347.855	19.97
348.067	58.88
348.279	-45.57
348.491	60.93
348.703	67.07
348.915	62.98
349.127	7.68
349.339	-4.61
349.551	1.54
349.763	60.93
349.975	36.35
350.187	7.68
350.399	-0.51
350.61	15.87
350.822	13.82
351.034	77.31
351.246	105.98
351.458	85.5
351.669	11.78
351.881	38.4
352.093	110.08
352.305	30.21
352.517	17.92
352.728	136.7
352.94	110.08
353.152	73.21
353.363	30.21
353.575	40.45
353.787	-35.33
353.999	-2.56
354.21	40.45
354.422	52.74
354.633	17.92
354.845	-27.14
355.057	36.35
355.268	15.87
355.48	-0.51
355.692	-4.61
355.903	73.21
356.115	-10.75
356.326	13.82
356.538	36.35
356.749	42.5
356.961	17.92
357.172	38.4
357.384	28.16
357.595	50.69
357.807	101.89
358.018	85.5
358.23	46.59
358.441	40.45
358.653	44.54
358.864	-4.61
359.075	5.63
359.287	-10.75
359.498	120.32
359.709	7.68
359.921	46.59
360.132	110.08
360.344	40.45
360.555	-49.66
360.766	65.02
360.977	30.21
361.189	7.68
361.4	32.26
361.611	60.93
361.823	110.08
362.034	5.63
362.245	30.21
362.456	-18.94
362.667	22.02
362.879	120.32
363.09	-49.66
363.301	13.82
363.512	38.4
363.723	42.5
363.935	-0.51
364.146	95.74
364.357	87.55
364.568	22.02
364.779	-16.9
364.99	62.98
365.201	-27.14
365.412	77.31
365.623	-8.7
365.834	85.5
366.045	36.35
366.256	101.89
366.467	-14.85
366.678	46.59
366.889	69.12
367.1	50.69
367.311	38.4
367.522	5.63
367.733	19.97
367.944	46.59
368.155	-18.94
368.366	77.31
368.577	36.35
368.788	24.06
368.999	52.74
369.209	36.35
369.42	126.46
369.631	97.79
369.842	-0.51
370.053	11.78
370.264	79.36
370.474	30.21
370.685	-10.75
370.896	85.5
371.107	60.93
371.317	93.69
371.528	-76.29
371.739	114.17
371.95	75.26
372.16	101.89
372.371	9.73
372.582	9.73
372.792	97.79
373.003	30.21
373.214	-76.29
373.424	46.59
373.635	13.82
373.846	60.93
374.056	52.74
374.267	3.58
374.477	15.87
374.688	83.45
374.898	112.13
375.109	110.08
375.319	30.21
375.53	101.89
375.74	60.93
375.951	52.74
376.161	-0.51
376.372	69.12
376.582	11.78
376.793	62.98
377.003	-49.66
377.214	-20.99
377.424	93.69
377.635	36.35
377.845	-43.52
378.055	54.78
378.266	-4.61
378.476	34.3
378.686	13.82
378.897	69.12
379.107	93.69
379.317	48.64
379.528	46.59
379.738	60.93
379.948	-12.8
380.158	30.21
380.369	5.63
380.579	110.08
380.789	101.89
380.999	60.93
381.21	93.69
381.42	93.69
381.63	-12.8
381.84	52.74
382.05	71.17
382.261	26.11
382.471	122.37
382.681	13.82
382.891	28.16
383.101	73.21
383.311	-12.8
383.521	54.78
383.731	7.68
383.941	67.07
384.151	15.87
384.361	7.68
384.571	97.79
384.781	15.87
384.991	134.65
385.201	112.13
385.411	5.63
385.621	38.4
385.831	81.41
386.041	-4.61
386.251	9.73
386.461	103.93
386.671	65.02
386.881	81.41
387.091	54.78
387.301	36.35
387.511	-8.7
387.72	40.45
387.93	40.45
388.14	89.6
388.35	-0.51
388.56	93.69
388.769	30.21
388.979	99.84
389.189	-29.18
389.399	-29.18
389.609	30.21
389.818	93.69
390.028	24.06
390.238	9.73
390.447	26.11
390.657	56.83
390.867	75.26
391.076	-0.51
391.286	93.69
391.496	52.74
391.705	-20.99
391.915	28.16
392.125	54.78
392.334	93.69
392.544	62.98
392.753	-33.28
392.963	17.92
393.172	69.12
393.382	114.17
393.591	120.32
393.801	28.16
394.01	52.74
394.22	81.41
394.429	40.45
394.639	62.98
394.848	93.69
395.058	28.16
395.267	32.26
395.477	69.12
395.686	151.04
395.895	85.5
396.105	136.7
396.314	60.93
396.524	73.21
396.733	85.5
396.942	103.93
397.152	52.74
397.361	93.69
397.57	114.17
397.78	79.36
397.989	52.74
398.198	93.69
398.407	85.5
398.617	32.26
398.826	128.51
399.035	71.17
399.244	97.79
399.453	62.98
399.663	93.69
399.872	140.8
400.081	34.3
400.29	54.78
400.499	77.31
400.708	101.89
400.917	67.07
401.127	118.27
401.336	85.5
401.545	73.21
401.754	97.79
401.963	118.27
402.172	93.69
402.381	79.36
402.59	54.78
402.799	60.93
403.008	36.35
403.217	103.93
403.426	22.02
403.635	151.04
403.844	118.27
404.053	122.37
404.262	52.74
404.471	144.89
404.68	69.12
404.888	46.59
405.097	151.04
405.306	167.42
405.515	110.08
405.724	134.65
405.933	175.61
406.142	169.47
406.35	151.04
406.559	128.51
406.768	73.21
406.977	134.65
407.185	212.48
407.394	267.77
407.603	71.17
407.812	183.81
408.02	224.76
408.229	155.13
408.438	204.28
408.646	189.95
408.855	192
409.064	85.5
409.272	220.67
409.481	257.53
409.69	220.67
409.898	216.57
410.107	298.49
410.315	218.62
410.524	273.92
410.733	282.11
410.941	241.15
411.15	237.05
411.358	310.78
411.567	335.35
411.775	249.34
411.984	378.36
412.192	355.83
412.401	259.58
412.609	445.95
412.818	392.7
413.026	388.6
413.234	474.62
413.443	407.03
413.651	374.27
413.86	429.56
414.068	495.1
414.276	507.38
414.485	445.95
414.693	495.1
414.901	591.35
415.11	562.68
415.318	482.81
415.526	577.02
415.734	603.64
415.943	658.93
416.151	650.74
416.359	611.83
416.567	726.52
416.776	716.28
416.984	658.93
417.192	744.95
417.4	794.1
417.608	708.09
417.817	757.24
418.025	873.97
418.233	878.07
418.441	822.77
418.649	921.07
418.857	939.51
419.065	1027.57
419.273	929.27
419.481	994.8
419.689	1052.14
419.897	1179.12
420.105	1148.4
420.313	1224.17
420.521	1279.47
420.729	1215.98
420.937	1263.08
421.145	1371.63
421.353	1455.59
421.561	1488.36
421.769	1453.55
421.977	1637.86
422.185	1480.17
422.393	1510.89
422.601	1707.49
422.809	1760.74
423.017	1723.88
423.224	1871.33
423.432	1848.8
423.64	1971.68
423.848	2129.38
424.056	1963.49
424.263	2256.35
424.471	2252.25
424.679	2182.62
424.887	2342.36
425.094	2450.91
425.302	2338.27
425.51	2645.46
425.718	2600.41
425.925	2495.96
426.133	2700.76
426.341	2776.53
426.548	2960.85
426.756	2913.75
426.964	3018.19
427.171	3118.54
427.379	3263.95
427.586	3431.88
427.794	3370.44
428.001	3448.27
428.209	3739.08
428.417	3646.92
428.624	3943.88
428.832	3960.26
429.039	3882.44
429.247	3821
429.454	4173.25
429.662	4505.02
429.869	4140.48
430.076	4634.04
430.284	4427.2
430.491	4550.07
430.699	4861.37
430.906	4789.69
431.114	5029.3
431.321	5109.17
431.528	5078.45
431.736	5619.11
431.943	5895.59
432.15	5598.63
432.358	5764.52
432.565	6030.76
432.772	5930.41
432.979	6348.19
433.187	6417.82
433.394	6534.56
433.601	6798.74
433.808	6927.77
434.016	6802.84
434.223	7194
434.43	7503.25
434.637	7269.78
434.844	7826.82
435.052	8009.09
435.259	7904.65
435.466	8166.79
435.673	8027.53
435.88	8504.7
436.087	8924.54
436.294	9018.74
436.501	8779.13
436.708	9004.41
436.915	9213.3
437.122	9518.45
437.329	9639.28
437.537	10155.37
437.743	10001.77
437.95	10001.77
438.157	10497.38
438.364	10868.06
438.571	10954.07
438.778	10939.74
438.985	11793.74
439.192	11464.02
439.399	11803.98
439.606	11664.72
439.813	12332.36
440.02	12809.53
440.227	12547.39
440.433	12606.78
440.64	13073.72
440.847	12805.44
441.054	13108.54
441.261	13948.2
441.467	13978.92
441.674	14261.54
441.881	14497.06
442.088	14552.35
442.294	14654.75
442.501	15084.83
442.708	15050.01
442.914	15891.73
443.121	16379.14
443.328	15942.92
443.534	17044.73
443.741	16477.44
443.948	16338.18
444.154	17356.02
444.361	17583.35
444.568	17808.62
444.774	17558.77
444.981	17849.58
445.187	18408.68
445.394	19096.8
445.6	18662.63
445.807	20649.16
446.013	19557.59
446.22	20143.31
446.426	20978.88
446.633	21337.27
446.839	22314.16
447.046	21089.47
447.252	22150.32
447.459	22160.56
447.665	22330.54
447.871	23194.78
448.078	24036.5
448.284	23084.19
448.491	23768.21
448.697	24394.89
448.903	25171.07
449.11	25273.47
449.316	24745.09
449.522	25224.32
449.728	25488.51
449.935	26203.25
450.141	25891.96
450.347	26725.48
450.553	26023.03
450.76	26201.2
450.966	27139.17
451.172	26784.87
451.378	27593.82
451.584	27165.79
451.791	27544.67
451.997	28116.05
452.203	28071
452.409	28275.79
452.615	28154.96
452.821	26979.43
453.027	26762.34
453.233	27984.98
453.44	26764.39
453.646	27548.76
453.852	27657.31
454.058	27640.92
454.264	27028.58
454.47	27626.59
454.676	26811.49
454.882	28253.26
455.088	25828.47
455.294	26332.27
455.5	26498.16
455.705	26997.86
455.911	25873.53
456.117	25445.5
456.323	24927.36
456.529	23757.97
456.735	24935.56
456.941	24001.68
457.147	23989.39
457.352	22731.94
457.558	22766.76
457.764	22860.96
457.97	22508.71
458.176	22111.41
458.381	22197.42
458.587	21255.36
458.793	21062.85
458.999	19967.18
459.204	21572.79
459.41	20831.43
459.616	19373.27
459.821	19383.51
460.027	19635.41
460.233	19107.04
460.438	18246.89
460.644	18177.26
460.85	17644.79
461.055	17026.3
461.261	17173.75
461.466	16024.84
461.672	15572.24
461.878	16612.61
462.083	15568.15
462.289	15133.98
462.494	15252.76
462.7	14357.8
462.905	14161.19
463.111	14568.74
463.316	14613.79
463.522	14259.49
463.727	14150.95
463.932	14310.69
464.138	14279.97
464.343	13903.15
464.549	13815.09
464.754	14036.27
464.959	13940.01
465.165	14021.93
465.37	13362.48
465.575	13147.45
465.781	13538.61
465.986	13610.29
466.191	13172.02
466.397	12705.09
466.602	12303.68
466.807	12590.4
467.012	12774.72
467.218	12524.86
467.423	12301.64
467.628	12508.48
467.833	13096.25
468.038	12668.22
468.244	12164.42
468.449	12580.16
468.654	12361.03
468.859	12244.29
469.064	12252.49
469.269	11812.17
469.474	11832.65
469.679	12045.64
469.885	11730.25
470.09	11906.38
470.295	11791.69
470.5	11562.32
470.705	11521.36
470.91	11332.95
471.115	11298.13
471.32	11504.98
471.525	11474.26
471.73	11138.39
471.935	10906.97
472.139	10780
472.344	10915.16
472.549	10675.55
472.754	10638.69
472.959	10354.02
473.164	10198.37
473.369	10171.75
473.574	10581.34
473.778	10261.86
473.983	10169.7
474.188	10229.09
474.393	9635.18
474.598	9729.39
474.802	9782.63
475.007	9573.74
475.212	9799.02
475.417	9241.97
475.621	9291.12
475.826	9516.4
476.031	9192.82
476.235	9053.56
476.44	9209.2
476.645	8924.54
476.849	8887.67
477.054	8766.84
477.259	8584.57
477.463	8637.82
477.668	8539.52
477.872	8744.31
478.077	8322.43
478.282	8232.32
478.486	8199.55
478.691	8172.93
478.895	8080.77
479.1	8015.24
479.304	8035.72
479.509	8011.14
479.713	7925.13
479.918	7855.5
480.122	7712.14
480.326	7646.6
480.531	7951.75
480.735	7576.97
480.94	7622.03
481.144	7744.91
481.348	7454.09
481.553	7691.66
481.757	7435.66
481.961	7646.6
482.166	7695.75
482.37	7392.66
482.574	7380.37
482.778	7243.15
482.983	7585.16
483.187	7515.53
483.391	7433.61
483.595	7374.22
483.8	7441.81
484.004	7466.38
484.208	7646.6
484.412	7476.62
484.616	7609.74
484.821	7437.71
485.025	7191.95
485.229	7378.32
485.433	7304.59
485.637	7302.54
485.841	7425.42
486.045	7417.23
486.249	7468.43
486.453	7392.66
486.657	7400.85
486.861	7603.6
487.065	7304.59
487.269	7443.85
487.473	7445.9
487.677	7392.66
487.881	7476.62
488.085	7493.01
488.289	7658.89
488.493	7425.42
488.697	7646.6
488.901	7589.26
489.105	7564.68
489.309	7705.99
489.512	7640.46
489.716	7642.51
489.92	7523.73
490.124	7779.72
490.328	7697.8
490.531	7662.99
490.735	7888.26
490.939	7765.39
491.143	7759.24
491.346	7654.8
491.55	7865.74
491.754	7857.54
491.958	7861.64
492.161	7951.75
492.365	7892.36
492.569	7900.55
492.772	8058.25
492.976	8195.46
493.18	7892.36
493.383	8244.61
493.587	8334.72
493.79	8668.54
493.994	8158.6
494.197	8310.15
494.401	8400.26
494.605	8512.89
494.808	8705.4
495.012	8459.65
495.215	8529.28
495.419	8609.15
495.622	8650.11
495.825	8787.32
496.029	8883.58
496.232	9057.65
496.436	8899.96
496.639	9186.68
496.843	9096.57
497.046	9512.3
497.249	9549.17
497.453	9547.12
497.656	9440.62
497.859	9461.1
498.063	9829.74
498.266	9880.94
498.469	9753.96
498.673	9942.38
498.876	10190.18
499.079	10435.94
499.282	10341.73
499.485	10579.29
499.689	10614.11
499.892	10616.16
500.095	10659.17
500.298	11095.38
500.501	11050.33
500.705	11197.78
500.908	11500.88
501.111	11554.13
501.314	11570.51
501.517	11818.32
501.72	11857.23
501.923	11740.49
502.126	12143.94
502.329	12287.3
502.532	12356.93
502.735	12221.77
502.938	12819.77
503.141	12692.8
503.344	13018.43
503.547	12997.95
503.75	13118.78
503.953	13129.02
504.156	13622.58
504.359	13749.55
504.562	13585.71
504.765	14122.28
504.968	14220.58
505.17	14359.84
505.373	14290.21
505.576	14708
505.779	15060.25
505.982	14828.83
506.185	15152.41
506.387	15246.62
506.59	15402.26
506.793	15625.49
506.996	15723.79
507.198	16004.36
507.401	15928.59
507.604	16289.03
507.807	16633.09
508.009	16708.87
508.212	16897.28
508.415	17165.56
508.617	17140.99
508.82	17345.78
509.022	17347.83
509.225	17954.03
509.428	17806.58
509.63	17833.2
509.833	18035.95
510.035	18791.65
510.238	18472.17
510.44	18679.01
510.643	18994.4
510.845	19238.11
511.048	19254.49
511.25	19703
511.453	19492.05
511.655	20245.71
511.858	20307.15
512.06	20319.43
512.262	20356.3
512.465	20548.81
512.667	21075.13
512.87	21044.41
513.072	21318.84
513.274	21851.31
513.477	21642.42
513.679	22164.65
513.881	22424.75
514.084	22625.45
514.286	22432.94
514.488	22647.97
514.69	23182.49
514.893	23235.74
515.095	23280.8
515.297	23680.15
515.499	23843.99
515.701	24069.26
515.904	24439.95
516.106	24474.76
516.308	25007.23
516.51	25064.58
516.712	25160.83
516.914	25621.63
517.116	25640.06
517.318	26150
517.52	26367.09
517.722	26100.85
517.925	26805.35
518.127	26924.13
518.329	27210.85
518.531	27034.72
518.733	27649.11
518.935	27817.05
519.136	27884.63
519.338	28263.5
519.54	28232.79
519.742	28488.78
519.944	28574.8
520.146	28685.39
520.348	29334.59
520.55	29434.94
520.752	29461.57
520.954	29967.41
521.155	29981.75
521.357	30329.91
521.559	30348.34
521.761	30837.8
521.963	30991.4
522.164	31220.77
522.366	31374.37
522.568	31585.31
522.77	31863.83
522.971	32291.86
523.173	31577.12
523.375	32267.28
523.576	32377.87
523.778	32168.98
523.98	32943.11
524.181	32805.9
524.383	33098.76
524.584	33590.27
524.786	33442.82
524.988	33416.19
525.189	33991.67
525.391	33956.86
525.592	34397.17
525.794	33997.82
525.995	34317.3
526.197	34784.24
526.398	34481.14
526.6	34814.96
526.801	34923.5
527.003	35265.51
527.204	35396.58
527.406	35415.01
527.607	35169.26
527.808	35726.3
528.01	35154.92
528.211	35568.61
528.412	36283.35
528.614	36275.16
528.815	36299.73
529.016	36703.18
529.218	36258.77
529.419	36412.37
529.62	36520.91
529.822	36322.26
530.023	36352.98
530.224	36957.13
530.425	36568.02
530.626	36660.18
530.828	36271.06
531.029	37221.32
531.23	36516.82
531.431	36680.66
531.632	36940.75
531.833	36963.28
532.035	37149.64
532.236	37178.31
532.437	37043.15
532.638	37465.03
532.839	37088.2
533.04	37288.9
533.241	36877.26
533.442	37815.23
533.643	37135.31
533.844	37374.92
534.045	37491.65
534.246	36928.46
534.447	37542.85
534.648	37249.99
534.849	37456.84
535.05	37258.18
535.251	37413.83
535.451	37544.9
535.652	37368.77
535.853	37739.46
536.054	37417.93
536.255	37409.73
536.456	37231.56
536.657	37960.64
536.857	37217.22
537.058	37268.42
537.259	37487.56
537.46	37643.2
537.66	37438.4
537.861	37407.69
538.062	37286.86
538.263	37798.85
538.463	37686.21
538.664	37174.22
538.865	37696.45
539.065	38036.41
539.266	37663.68
539.466	37731.26
539.667	37182.41
539.868	38093.75
540.068	37649.35
540.269	37376.97
540.469	37186.5
540.67	37037
540.87	37430.21
541.071	37211.08
541.271	37331.91
541.472	37188.55
541.672	37241.8
541.873	37352.39
542.073	37309.38
542.274	37077.96
542.474	37381.06
542.675	37014.48
542.875	37561.28
543.075	37518.28
543.276	37209.03
543.476	37315.53
543.676	37231.56
543.877	37563.33
544.077	37325.77
544.277	37329.86
544.478	37149.64
544.678	37526.47
544.878	37358.53
545.078	37307.33
545.279	37241.8
545.479	37168.07
545.679	37043.15
545.879	37008.33
546.079	37211.08
546.28	37082.06
546.48	36682.7
546.68	37102.54
546.88	37342.15
547.08	37108.68
547.28	37231.56
547.48	37030.86
547.68	37170.12
547.88	36795.34
548.081	37168.07
548.281	37231.56
548.481	36762.58
548.681	37249.99
548.881	37159.88
549.081	36944.84
549.28	36824.01
549.48	37112.78
549.68	37110.73
549.88	37323.72
550.08	36795.34
550.28	36848.59
550.48	37084.11
550.68	37211.08
550.88	36752.34
551.08	36840.4
551.279	37360.58
551.479	36717.52
551.679	37217.22
551.879	36576.21
552.079	37098.44
552.278	36912.08
552.478	37282.76
552.678	36897.74
552.878	36936.65
553.077	36875.21
553.277	36572.11
553.477	37436.36
553.676	36830.16
553.876	36789.2
554.076	36651.98
554.275	36479.96
554.475	36195.29
554.674	36828.11
554.874	36482
555.074	36434.9
555.273	36842.45
555.473	36639.7
555.672	36291.54
555.872	36477.91
556.071	36488.15
556.271	36514.77
556.47	35990.49
556.67	36277.21
556.869	36086.75
557.068	36590.55
557.268	35693.54
557.467	36275.16
557.667	36561.87
557.866	36096.99
558.065	35849.18
558.265	35701.73
558.464	35857.37
558.663	36103.13
558.863	35363.81
559.062	36217.82
559.261	35421.16
559.461	36449.24
559.66	35400.68
559.859	35646.43
560.058	35367.91
560.258	35443.68
560.457	35546.08
560.656	35634.14
560.855	35638.24
561.054	35822.56
561.253	35382.24
561.453	35333.09
561.652	35458.02
561.851	35535.84
562.05	35396.58
562.249	35007.47
562.448	35564.51
562.647	35101.67
562.846	35036.14
563.045	35404.77
563.244	34229.24
563.443	35212.26
563.642	34724.85
563.841	35015.66
564.04	34665.46
564.239	34980.84
564.438	34296.82
564.637	34628.59
564.836	34601.97
565.035	34399.22
565.234	34006.01
565.432	33989.63
565.631	34341.88
565.83	34345.97
566.029	34212.85
566.228	34108.41
566.427	33936.38
566.625	33954.81
566.824	33465.35
567.023	33973.24
567.222	33307.65
567.42	33854.46
567.619	33733.63
567.818	33833.98
568.016	33428.48
568.215	33684.48
568.414	33737.73
568.612	33858.56
568.811	33252.36
569.01	33557.5
569.208	32986.12
569.407	33258.5
569.605	32644.11
569.804	32922.63
570.002	32644.11
570.201	32975.88
570.4	32390.16
570.598	32476.18
570.797	32869.39
570.995	32662.54
571.193	32078.87
571.392	32840.71
571.59	32369.68
571.789	31958.04
571.987	31833.11
572.186	32054.29
572.384	32250.9
572.582	32211.99
572.781	32148.5
572.979	31630.37
573.177	31816.73
573.376	31833.11
573.574	31630.37
573.772	31835.16
573.971	31695.9
574.169	31343.65
574.367	31065.13
574.565	31650.85
574.763	31036.45
574.962	30884.9
575.16	30954.54
575.358	30964.78
575.556	30895.14
575.754	31202.34
575.952	30864.43
576.151	30489.65
576.349	30633
576.547	30583.85
576.745	30585.9
576.943	30493.74
577.141	30381.1
577.339	30499.89
577.537	30063.67
577.735	30204.98
577.933	29848.63
578.131	30290.99
578.329	29975.61
578.527	29733.95
578.725	29604.92
578.923	29928.5
579.121	29606.97
579.319	29830.2
579.516	29508.67
579.714	29273.15
579.912	29264.96
580.11	29408.32
580.308	29307.97
580.506	28879.94
580.704	28896.33
580.901	28894.28
581.099	28959.81
581.297	28580.94
581.495	28873.8
581.692	28845.13
581.89	28281.94
582.088	28564.56
582.285	28294.22
582.483	28609.61
582.681	28464.21
582.878	27974.74
583.076	28054.61
583.274	28154.96
583.471	27978.84
583.669	27909.21
583.866	27882.58
584.064	27948.12
584.262	27090.02
584.459	27782.23
584.657	27483.23
584.854	27616.35
585.052	27155.55
585.249	27530.33
585.447	27194.47
585.644	27221.09
585.841	27219.04
586.039	27219.04
586.236	26844.26
586.434	26940.52
586.631	26733.67
586.828	26922.09
587.026	26936.42
587.223	26602.6
587.42	26711.14
587.618	26565.74
587.815	26600.55
588.012	26354.8
588.21	26340.46
588.407	26326.13
588.604	26205.3
588.801	25887.86
588.999	26330.22
589.196	25730.17
589.393	26078.32
589.59	25922.68
589.787	25973.88
589.984	25463.93
590.182	25414.78
590.379	25615.48
590.576	25486.46
590.773	25377.92
590.97	25171.07
591.167	25283.71
591.364	24990.85
591.561	25283.71
591.758	24777.86
591.955	24915.08
592.152	25109.63
592.349	24741
592.546	24720.52
592.743	24591.5
592.94	24437.9
593.137	24550.54
593.334	24628.36
593.531	24392.84
593.727	24640.65
593.924	24161.42
594.121	23843.99
594.318	24149.14
594.515	23901.33
594.712	24061.07
594.908	23512.22
595.105	23762.07
595.302	23516.31
595.499	23512.22
595.696	23671.96
595.892	23336.09
596.089	23424.15
596.286	23559.32
596.482	23354.52
596.679	23018.66
596.876	23389.34
597.072	23149.73
597.269	23274.65
597.466	22836.39
597.662	22686.89
597.859	22994.08
598.055	22875.3
598.252	22932.64
598.448	22744.23
598.645	22619.3
598.841	22338.73
599.038	22785.19
599.234	22477.99
599.431	22080.69
599.627	22553.77
599.824	22158.51
600.02	22174.89
600.217	22076.59
600.413	22035.63
600.609	21945.52
600.806	21908.66
601.002	21812.4
601.198	21615.8
601.395	21642.42
601.591	21732.53
601.787	21859.51
601.984	21306.55
602.18	21449.91
602.376	21550.26
602.572	21329.08
602.769	21515.45
602.965	21036.22
603.161	21337.27
603.357	20995.26
603.553	20831.43
603.75	20884.67
603.946	20765.89
604.142	20737.22
604.338	20761.8
604.534	20606.15
604.73	20423.88
604.926	20358.35
605.122	20583.62
605.318	20464.84
605.514	20368.59
605.71	20217.04
605.906	20253.9
606.102	20180.17
606.298	20303.05
606.494	20108.49
606.69	20108.49
606.886	20116.69
607.082	19621.08
607.278	20235.47
607.474	19768.53
607.67	19893.46
607.866	19510.49
608.062	19920.08
608.257	19733.71
608.453	19520.73
608.649	19846.35
608.845	19444.95
609.041	19414.23
609.236	19395.8
609.432	19131.61
609.628	19186.91
609.824	19205.34
610.019	19356.89
610.215	18949.34
610.411	19191
610.606	19061.98
610.802	19133.66
610.998	18916.58
611.193	19084.51
611.389	18812.13
611.584	18922.72
611.78	18576.61
611.976	18851.04
612.171	18705.63
612.367	18531.56
612.562	18568.42
612.758	18523.37
612.953	18412.78
613.149	18500.84
613.344	18386.15
613.539	18640.1
613.735	18410.73
613.93	18322.66
614.126	18470.12
614.321	18443.49
614.517	18244.84
614.712	18222.31
614.907	18087.15
615.103	18386.15
615.298	18095.34
615.493	18347.24
615.688	18085.1
615.884	18420.97
616.079	18074.86
616.274	18191.59
616.47	17673.46
616.665	18371.82
616.86	17929.45
617.055	17681.65
617.25	17661.17
617.445	17894.64
617.641	17390.84
617.836	17577.2
618.031	17202.43
618.226	17972.46
618.421	17313.02
618.616	17505.52
618.811	17200.38
619.006	17497.33
619.201	17112.31
619.396	17081.6
619.591	17022.2
619.786	17218.81
619.981	16807.17
620.176	17124.6
620.371	16639.23
620.566	16608.51
620.761	16712.96
620.956	16782.59
621.151	16366.85
621.346	16735.49
621.541	16461.06
621.735	16528.64
621.93	15904.01
622.125	15914.25
622.32	15985.93
622.515	15998.22
622.709	15725.84
622.904	15938.83
623.099	15555.86
623.294	15527.19
623.488	15453.46
623.683	15774.99
623.878	15136.03
624.072	15404.31
624.267	15308.05
624.462	15371.54
624.656	15031.58
624.851	15054.11
625.046	14767.39
625.24	14824.73
625.435	14888.22
625.629	14634.27
625.824	14388.52
626.018	14611.75
626.213	14464.29
626.407	14130.47
626.602	14136.62
626.796	14290.21
626.991	14294.31
627.185	13880.62
627.38	13950.25
627.574	13671.73
627.768	13557.04
627.963	13638.96
628.157	13573.42
628.352	13720.88
628.546	13587.76
628.74	13671.73
628.935	13342
629.129	13579.57
629.323	13055.29
629.517	13307.19
629.712	13210.93
629.906	13255.99
630.1	12784.96
630.294	12875.07
630.489	12895.55
630.683	12981.56
630.877	12631.36
631.071	12647.74
631.265	12549.44
631.459	12735.81
631.653	12285.25
631.848	12334.4
632.042	12225.86
632.236	12254.53
632.43	12236.1
632.624	12121.42
632.818	12115.27
633.012	11951.43
633.206	11939.15
633.4	12025.16
633.594	11648.33
633.788	11863.37
633.982	11803.98
634.176	11640.14
634.369	11539.79
634.563	11568.46
634.757	11390.29
634.951	11384.15
635.145	11181.4
635.339	11406.67
635.533	11148.63
635.726	11203.93
635.92	10982.74
636.114	11079
636.308	10958.17
636.501	11076.95
636.695	10816.86
636.889	10921.31
637.083	10851.67
637.276	10622.3
637.47	10560.86
637.664	10681.69
637.857	10648.93
638.051	10458.46
638.244	10519.9
638.438	10780
638.632	10319.2
638.825	10165.6
639.019	10214.76
639.212	10114.41
639.406	10091.88
639.599	9770.35
639.793	9960.81
639.986	9874.79
640.18	9870.7
640.373	9782.63
640.567	9690.48
640.76	9786.73
640.954	9784.68
641.147	9663.85
641.34	9573.74
641.534	9620.85
641.727	9497.97
641.92	9366.9
642.114	9278.83
642.307	9301.36
642.5	9346.42
642.694	9147.76
642.887	9043.32
643.08	9229.68
643.273	9098.61
643.467	8957.3
643.66	8883.58
643.853	8836.47
644.046	8875.38
644.239	8793.47
644.432	8764.79
644.626	8713.6
644.819	8797.56
645.012	8650.11
645.205	8562.05
645.398	8551.81
645.591	8351.1
645.784	8351.1
645.977	8236.42
646.17	8445.31
646.363	8068.48
646.556	8211.84
646.749	8115.59
646.942	8189.32
647.135	8146.31
647.328	8123.78
647.521	8039.81
647.714	7845.26
647.907	7951.75
648.099	7908.74
648.292	7802.25
648.485	7824.78
648.678	7708.04
648.871	7636.36
649.064	7630.22
649.256	7576.97
649.449	7536.01
649.642	7714.19
649.835	7531.92
650.027	7480.72
650.22	7409.04
650.413	7273.87
650.605	7331.22
650.798	7255.44
650.991	7107.99
651.183	7214.48
651.376	7232.91
651.568	7177.62
651.761	7026.07
651.954	7042.45
652.146	7058.84
652.339	6794.65
652.531	6878.62
652.724	6774.17
652.916	6843.8
653.109	6837.66
653.301	6837.66
653.494	6966.68
653.686	6622.62
653.879	6763.93
654.071	6704.54
654.263	6639
654.456	6432.16
654.648	6649.24
654.84	6505.88
655.033	6483.36
655.225	6290.85
655.417	6376.86
655.61	6268.32
655.802	6274.46
655.994	6198.69
656.186	6239.65
656.379	6276.51
656.571	6247.84
656.763	5963.17
656.955	6024.61
657.148	6026.66
657.34	6028.71
657.532	5936.55
657.724	6024.61
657.916	5911.97
658.108	5770.66
658.3	5871.01
658.492	5883.3
658.684	5688.75
658.876	5655.98
659.068	5797.29
659.26	5610.92
659.452	5709.22
659.644	5651.88
659.836	5486
660.028	5635.5
660.22	5463.47
660.412	5574.06
660.604	5340.59
660.796	5449.13
660.988	5508.52
661.18	5320.11
661.372	5410.22
661.563	5430.7
661.755	5244.34
661.947	5246.38
662.139	5174.71
662.331	5258.67
662.522	5107.12
662.714	5060.02
662.906	5186.99
663.097	4969.91
663.289	5000.63
663.481	4939.19
663.673	5025.2
663.864	4914.61
664.056	4904.37
664.247	4828.6
664.439	4773.3
664.631	4810.17
664.822	4756.92
665.014	4879.8
665.205	4713.91
665.397	4718.01
665.588	4705.72
665.78	4638.14
665.971	4750.78
666.163	4627.9
666.354	4689.34
666.546	4502.97
666.737	4357.57
666.929	4443.58
667.12	4427.2
667.311	4484.54
667.503	4472.25
667.694	4455.87
667.885	4355.52
668.077	4412.86
668.268	4267.45
668.459	4308.41
668.651	4318.65
668.842	4197.82
669.033	4214.21
669.224	4296.13
669.416	4255.17
669.607	4128.19
669.798	4214.21
669.989	4101.57
670.18	4238.78
670.371	4216.26
670.563	4132.29
670.754	4107.71
670.945	4099.52
671.136	4042.18
671.327	3980.74
671.518	3952.07
671.709	4017.6
671.9	3997.12
672.091	3935.68
672.282	3880.39
672.473	3935.68
672.664	3923.4
672.855	3980.74
673.046	3882.44
673.237	3837.38
673.428	3648.97
673.619	3648.97
673.809	3761.61
674	3679.69
674.191	3734.98
674.382	3716.55
674.573	3651.02
674.764	3677.64
674.954	3786.18
675.145	3476.94
675.336	3671.5
675.527	3667.4
675.717	3485.13
675.908	3610.06
676.099	3554.76
676.289	3755.46
676.48	3552.71
676.671	3427.79
676.861	3550.67
677.052	3435.98
677.243	3528.14
677.433	3628.49
677.624	3530.19
677.814	3493.32
678.005	3552.71
678.195	3489.23
678.386	3495.37
678.576	3532.23
678.767	3458.51
678.957	3433.93
679.148	3349.96
679.338	3382.73
679.529	3325.39
679.719	3364.3
679.909	3462.6
680.1	3388.88
680.29	3384.78
680.481	3331.53
680.671	3266
680.861	3329.49
681.052	3337.68
681.242	3329.49
681.432	3362.25
681.622	3302.86
681.813	3263.95
682.003	3321.29
682.193	3214.8
682.383	3118.54
682.573	3161.55
682.764	3249.61
682.954	3263.95
683.144	3204.56
683.334	3165.65
683.524	3280.33
683.714	3263.95
683.904	3030.48
684.094	3134.93
684.284	3163.6
684.474	3286.48
684.664	3167.7
684.854	3130.83
685.044	3098.06
685.234	3165.65
685.424	3165.65
685.614	3198.42
685.804	3093.97
685.994	2928.08
686.184	3110.35
686.374	3048.91
686.564	2987.47
686.753	3001.81
686.943	3157.46
687.133	3091.92
687.323	2989.52
687.513	3001.81
687.702	3034.58
687.892	2868.69
688.082	3001.81
688.272	2919.89
688.461	3096.02
688.651	2964.95
688.841	2975.19
689.03	3001.81
689.22	2813.4
689.41	3024.34
689.599	2854.36
689.789	2862.55
689.979	2891.22
690.168	2891.22
690.358	2817.49
690.547	2837.97
690.737	2780.63
690.926	2749.91
691.116	2862.55
691.305	2837.97
691.495	2809.3
691.684	2756.05
691.874	2694.61
692.063	2776.53
692.252	2774.49
692.442	2637.27
692.631	2749.91
692.82	2584.02
693.01	2842.07
693.199	2747.86
693.388	2715.09
693.578	2670.04
693.767	2715.09
693.956	2676.18
694.146	2641.37
694.335	2600.41
694.524	2575.83
694.713	2696.66
694.902	2526.68
695.092	2612.7
695.281	2524.63
695.47	2575.83
695.659	2559.45
695.848	2510.3
696.037	2631.13
696.226	2534.87
696.415	2493.91
696.604	2526.68
696.793	2452.95
696.982	2629.08
697.171	2493.91
697.36	2534.87
697.549	2381.28
697.738	2420.19
697.927	2459.1
698.116	2508.25
698.305	2504.15
698.494	2473.43
698.683	2414.04
698.872	2463.19
699.061	2487.77
699.25	2244.06
699.438	2444.76
699.627	2432.47
699.816	2434.52
700.005	2239.97
700.193	2444.76
700.382	2381.28
700.571	2430.43
700.76	2348.51
700.948	2368.99
701.137	2362.84
701.326	2412
701.514	2295.26
701.703	2342.36
701.892	2420.19
702.08	2471.39
702.269	2409.95
702.457	2362.84
702.646	2391.52
702.834	2321.88
703.023	2330.08
703.212	2280.93
703.4	2348.51
703.589	2289.12
703.777	2360.8
703.965	2313.69
704.154	2244.06
704.342	2383.32
704.531	2207.2
704.719	2225.63
704.907	2328.03
705.096	2217.44
705.284	2319.84
705.472	2285.02
705.661	2225.63
705.849	2168.29
706.037	2272.73
706.226	2264.54
706.414	2182.62
706.602	2080.22
706.79	2260.45
706.979	2301.4
707.167	2174.43
707.355	2084.32
707.543	2248.16
707.731	2237.92
707.919	2190.81
708.107	2178.53
708.296	2194.91
708.484	2229.73
708.672	2190.81
708.86	2397.66
709.048	2129.38
709.236	2004.45
709.424	2176.48
709.612	2145.76
709.8	2104.8
709.988	2149.86
710.176	2274.78
710.364	2166.24
710.551	2260.45
710.739	2055.65
710.927	2117.09
711.115	2178.53
711.303	2213.34
711.491	2117.09
711.679	2108.9
711.866	2096.61
712.054	2145.76
712.242	2080.22
712.43	2141.66
712.617	2123.23
712.805	2022.88
712.993	2045.41
713.181	2119.14
713.368	2084.32
713.556	2063.84
713.744	2090.46
713.931	2186.72
714.119	2090.46
714.306	2082.27
714.494	1998.31
714.682	2158.05
714.869	2088.42
715.057	2162.14
715.244	1969.63
715.432	1994.21
715.619	1986.02
715.807	2000.35
715.994	2108.9
716.182	2006.5
716.369	2065.89
716.556	2108.9
716.744	2069.98
716.931	2043.36
717.119	2020.83
717.306	1947.11
717.493	1961.44
717.681	1988.07
717.868	2018.79
718.055	2026.98
718.242	2047.46
718.43	1977.83
718.617	2135.52
718.804	2010.59
718.991	2100.7
719.179	2039.26
719.366	2043.36
719.553	1998.31
719.74	1906.15
719.927	1992.16
720.114	1988.07
720.301	1973.73
720.488	2010.59
720.676	2020.83
720.863	2035.17
721.05	1936.87
721.237	1990.11
721.424	1994.21
721.611	1889.76
721.798	1961.44
721.985	1936.87
722.172	1986.02
722.358	1953.25
722.545	2074.08
722.732	1981.92
722.919	2072.03
723.106	1936.87
723.293	1981.92
723.48	1965.54
723.667	1924.58
723.853	2031.07
724.04	1926.63
724.227	2041.31
724.414	2002.4
724.6	1951.2
724.787	1986.02
724.974	1902.05
725.161	1992.16
725.347	1977.83
725.534	1904.1
725.72	2002.4
725.907	2033.12
726.094	1914.34
726.28	1871.33
726.467	1904.1
726.653	1963.49
726.84	1906.15
727.027	1981.92
727.213	1854.95
727.4	2018.79
727.586	1936.87
727.773	1824.23
727.959	1920.48
728.145	1840.61
728.332	1848.8
728.518	1936.87
728.705	1895.91
728.891	1779.17
729.077	1867.24
729.264	1906.15
729.45	1963.49
729.636	1840.61
729.823	1969.63
730.009	1889.76
730.195	1887.72
730.382	1850.85
730.568	1904.1
730.754	1822.18
730.94	1871.33
731.126	1844.71
731.313	1906.15
731.499	1785.32
731.685	1955.3
731.871	1813.99
732.057	1822.18
732.243	1832.42
732.429	1881.57
732.615	1838.56
732.801	1840.61
732.987	1773.03
733.173	1807.84
733.359	1906.15
733.545	1834.47
733.731	1844.71
733.917	1738.21
734.103	1830.37
734.289	1822.18
734.475	1773.03
734.661	1838.56
734.847	1711.59
735.033	1699.3
735.219	1846.76
735.404	1744.36
735.59	1787.36
735.776	1783.27
735.962	1723.88
736.148	1828.32
736.333	1740.26
736.519	1781.22
736.705	1840.61
736.89	1846.76
737.076	1846.76
737.262	1674.73
737.447	1766.89
737.633	1734.12
737.819	1879.52
738.004	1750.5
738.19	1660.39
738.375	1744.36
738.561	1711.59
738.747	1807.84
738.932	1650.15
739.118	1801.7
739.303	1787.36
739.489	1723.88
739.674	1641.96
739.859	1732.07
740.045	1637.86
740.23	1682.92
740.416	1678.82
740.601	1740.26
740.786	1668.58
740.972	1674.73
741.157	1691.11
741.342	1560.04
741.528	1644.01
741.713	1687.01
741.898	1629.67
742.084	1592.81
742.269	1697.25
742.454	1695.21
742.639	1699.3
742.824	1699.3
743.01	1711.59
743.195	1625.58
743.38	1564.14
743.565	1635.82
743.75	1578.47
743.935	1699.3
744.12	1617.38
744.305	1601
744.49	1629.67
744.675	1490.41
744.86	1576.42
745.045	1580.52
745.23	1461.74
745.415	1531.37
745.6	1594.86
745.785	1453.55
745.97	1512.94
746.155	1625.58
746.34	1527.27
746.525	1523.18
746.71	1504.75
746.895	1416.68
747.079	1463.79
747.264	1433.07
747.449	1535.46
747.634	1469.93
747.819	1445.35
748.003	1469.93
748.188	1359.34
748.373	1357.29
748.557	1420.78
748.742	1371.63
748.927	1359.34
749.111	1441.26
749.296	1357.29
749.481	1439.21
749.665	1396.2
749.85	1396.2
750.034	1439.21
750.219	1373.68
750.404	1338.86
750.588	1328.62
750.773	1314.28
750.957	1240.56
751.141	1218.03
751.326	1299.95
751.51	1232.37
751.695	1308.14
751.879	1191.41
752.064	1306.09
752.248	1308.14
752.432	1215.98
752.617	1265.13
752.801	1265.13
752.985	1168.88
753.17	1236.46
753.354	1277.42
753.538	1093.1
753.722	1183.21
753.907	1207.79
754.091	1191.41
754.275	1258.99
754.459	1078.77
754.643	1093.1
754.828	1140.21
755.012	1123.82
755.196	1029.62
755.38	1111.54
755.564	1183.21
755.748	1097.2
755.932	1109.49
756.116	1109.49
756.3	1060.34
756.484	1136.11
756.668	1035.76
756.852	1070.58
757.036	1007.09
757.22	1037.81
757.404	1117.68
757.588	1027.57
757.772	1062.38
757.956	1056.24
758.14	1039.86
758.323	957.94
758.507	1113.58
758.691	982.51
758.875	1025.52
759.059	1068.53
759.242	982.51
759.426	888.31
759.61	785.91
759.794	921.07
759.977	1013.23
760.161	1076.72
760.345	1046
760.528	955.89
760.712	886.26
760.895	914.93
761.079	898.55
761.263	855.54
761.446	873.97
761.63	923.12
761.813	916.98
761.997	830.96
762.18	822.77
762.364	896.5
762.547	867.83
762.731	765.43
762.914	781.81
763.098	847.35
763.281	781.81
763.464	730.61
763.648	855.54
763.831	896.5
764.015	814.58
764.198	818.68
764.381	835.06
764.564	835.06
764.748	841.2
764.931	867.83
765.114	818.68
765.297	830.96
765.481	714.23
765.664	839.16
765.847	740.85
766.03	820.72
766.213	773.62
766.397	740.85
766.58	761.33
766.763	873.97
766.946	693.75
767.129	607.73
767.312	796.15
767.495	747
767.678	749.04
767.861	808.44
768.044	833.01
768.227	777.72
768.41	751.09
768.593	790
768.776	830.96
768.959	740.85
769.142	753.14
769.324	800.24
769.507	765.43
769.69	736.76
769.873	701.94
770.056	753.14
770.239	726.52
770.421	787.96
770.604	749.04
770.787	742.9
770.97	677.37
771.152	740.85
771.335	644.6
771.518	671.22
771.7	679.41
771.883	759.28
772.066	687.61
772.248	703.99
772.431	718.33
772.613	699.89
772.796	677.37
772.978	683.51
773.161	634.36
773.343	607.73
773.526	620.02
773.708	622.07
773.891	630.26
774.073	609.78
774.256	577.02
774.438	656.89
774.621	572.92
774.803	579.06
774.985	605.69
775.168	724.47
775.35	544.25
775.532	593.4
775.715	675.32
775.897	665.08
776.079	568.82
776.261	667.13
776.444	650.74
776.626	570.87
776.808	577.02
776.99	527.86
777.173	478.71
777.355	609.78
777.537	597.49
777.719	583.16
777.901	560.63
778.083	560.63
778.265	579.06
778.447	642.55
778.629	622.07
778.811	556.54
778.993	564.73
779.175	529.91
779.357	536.06
779.539	503.29
779.721	478.71
779.903	491
780.085	495.1
780.267	488.95
780.449	501.24
780.631	519.67
780.812	534.01
780.994	462.33
781.176	501.24
781.358	497.14
781.54	495.1
781.721	554.49
781.903	472.57
782.085	325.12
782.267	466.42
782.448	462.33
782.63	544.25
782.812	441.85
782.993	370.17
783.175	390.65
783.357	378.36
783.538	454.14
783.72	413.18
783.901	331.26
784.083	441.85
784.264	445.95
784.446	374.27
784.627	380.41
784.809	433.66
784.99	409.08
785.172	447.99
785.353	368.12
785.535	400.89
785.716	349.69
785.897	355.83
786.079	407.03
786.26	415.23
786.441	421.37
786.623	333.31
786.804	390.65
786.985	400.89
787.167	323.07
787.348	316.92
787.529	339.45
787.71	409.08
787.891	415.23
788.073	271.87
788.254	275.96
788.435	361.98
788.616	288.25
788.797	347.64
788.978	347.64
789.159	398.84
789.34	331.26
789.522	349.69
789.703	302.59
789.884	331.26
790.065	296.44
790.246	327.16
790.427	318.97
790.607	437.75
790.788	292.35
790.969	208.38
791.15	347.64
791.331	325.12
791.512	318.97
791.693	292.35
791.874	314.88
792.054	284.16
792.235	275.96
792.416	284.16
792.597	247.29
792.778	202.24
792.958	265.72
793.139	304.64
793.32	235
793.5	251.39
793.681	237.05
793.862	187.9
794.042	226.81
794.223	196.09
794.404	185.85
794.584	228.86
794.765	261.63
794.945	298.49
795.126	306.68
795.306	273.92
795.487	331.26
795.667	257.53
795.848	259.58
796.028	308.73
796.209	218.62
796.389	235
796.57	249.34
796.75	224.76
796.93	253.44
797.111	196.09
797.291	200.19
797.471	208.38
797.652	208.38
797.832	183.81
798.012	271.87
798.192	218.62
798.373	192
798.553	183.81
798.733	224.76
798.913	181.76
799.093	148.99
799.274	212.48
799.454	224.76
799.634	208.38
799.814	218.62
799.994	196.09
800.174	327.16
800.354	196.09
800.534	175.61
800.714	163.33
800.894	181.76
801.074	155.13
801.254	159.23
801.434	245.24
801.614	216.57
801.794	216.57
801.974	824.82
802.154	118.27
802.334	179.71
802.514	208.38
802.693	271.87
802.873	167.42
803.053	275.96
803.233	208.38
803.413	179.71
803.592	169.47
803.772	249.34
803.952	198.14
804.131	167.42
804.311	200.19
804.491	278.01
804.67	157.18
804.85	151.04
805.03	196.09
805.209	212.48
805.389	239.1
805.568	204.28
805.748	122.37
805.928	118.27
806.107	194.05
806.287	159.23
806.466	167.42
806.646	155.13
806.825	175.61
807.004	87.55
807.184	108.03
807.363	114.17
807.543	142.85
807.722	28.16
807.901	101.89
808.081	105.98
808.26	140.8
808.439	136.7
808.619	159.23
808.798	140.8
808.977	128.51
809.156	159.23
809.336	118.27
809.515	97.79
809.694	103.93
809.873	179.71
810.052	110.08
810.231	222.72
810.411	200.19
810.59	192
810.769	81.41
810.948	89.6
811.127	138.75
811.306	134.65
811.485	163.33
811.664	167.42
811.843	93.69
812.022	83.45
812.201	130.56
812.38	148.99
812.559	202.24
812.737	153.09
812.916	136.7
813.095	146.94
813.274	224.76
813.453	138.75
813.632	144.89
813.811	167.42
813.989	95.74
814.168	136.7
814.347	120.32
814.526	118.27
814.704	110.08
814.883	159.23
815.062	56.83
815.24	99.84
815.419	97.79
815.598	126.46
815.776	95.74
815.955	97.79
816.133	138.75
816.312	144.89
816.49	105.98
816.669	62.98
816.847	112.13
817.026	194.05
817.204	124.41
817.383	30.21
817.561	120.32
817.74	151.04
817.918	3.58
818.097	142.85
818.275	5.63
818.453	112.13
818.632	79.36
818.81	7.68
818.988	81.41
819.167	89.6
819.345	136.7
819.523	69.12
819.701	122.37
819.879	87.55
820.058	73.21
820.236	101.89
820.414	85.5
820.592	163.33
820.77	38.4
820.948	54.78
821.127	114.17
821.305	175.61
821.483	67.07
821.661	69.12
821.839	128.51
822.017	56.83
822.195	85.5
822.373	126.46
822.551	44.54
822.729	56.83
822.907	110.08
823.085	142.85
823.262	71.17
823.44	79.36
823.618	81.41
823.796	69.12
823.974	46.59
824.152	93.69
824.329	95.74
824.507	93.69
824.685	118.27
824.863	54.78
825.04	38.4
825.218	85.5
825.396	50.69
825.574	103.93
825.751	85.5
825.929	44.54
826.107	71.17
826.284	124.41
826.462	79.36
826.639	52.74
826.817	-45.57
826.994	-6.66
827.172	116.22
827.349	134.65
827.527	36.35
827.704	101.89
827.882	60.93
828.059	17.92
828.237	146.94
828.414	69.12
828.591	60.93
828.769	52.74
828.946	60.93
829.124	62.98
829.301	93.69
829.478	73.21
829.655	32.26
829.833	48.64
830.01	130.56
830.187	93.69
830.364	62.98
830.542	120.32
830.719	122.37
830.896	103.93
831.073	24.06
831.25	38.4
831.427	126.46
831.604	-4.61
831.782	26.11
831.959	132.61
832.136	130.56
832.313	65.02
832.49	77.31
832.667	-4.61
832.844	32.26
833.021	110.08
833.198	81.41
833.374	28.16
833.551	128.51
833.728	101.89
833.905	151.04
834.082	112.13
834.259	77.31
834.436	108.03
834.612	77.31
834.789	52.74
834.966	7.68
835.143	67.07
835.319	40.45
835.496	40.45
835.673	11.78
835.85	40.45
836.026	105.98
836.203	77.31
836.38	48.64
836.556	13.82
836.733	-16.9
836.909	54.78
837.086	93.69
837.262	11.78
837.439	65.02
837.616	28.16
837.792	65.02
837.968	-45.57
838.145	38.4
838.321	-8.7
838.498	-35.33
838.674	46.59
838.851	15.87
839.027	60.93
839.203	-4.61
839.38	22.02
839.556	7.68
839.732	79.36
839.909	13.82
840.085	81.41
840.261	42.5
840.437	-0.51
840.614	67.07
840.79	52.74
840.966	46.59
841.142	-12.8
841.318	44.54
841.494	65.02
841.671	15.87
841.847	-20.99
842.023	67.07
842.199	46.59
842.375	50.69
842.551	65.02
842.727	24.06
842.903	28.16
843.079	-29.18
843.255	13.82
843.431	69.12
843.607	65.02
843.783	3.58
843.959	48.64
844.134	75.26
844.31	118.27
844.486	44.54
844.662	65.02
844.838	36.35
845.013	-2.56
845.189	-10.75
845.365	44.54
845.541	-16.9
845.716	11.78
845.892	108.03
846.068	56.83
846.244	-29.18
846.419	52.74
846.595	26.11
846.77	5.63
846.946	1.54
847.122	112.13
847.297	83.45
847.473	52.74
847.648	-45.57
847.824	77.31
847.999	-33.28
848.175	5.63
848.35	110.08
848.526	-59.9
848.701	46.59
848.876	44.54
849.052	48.64
849.227	65.02
849.403	3.58
849.578	77.31
849.753	-35.33
849.929	89.6
850.104	28.16
850.279	3.58
850.454	-41.47
850.63	44.54
850.805	-12.8
850.98	-29.18
851.155	38.4
851.33	-4.61
851.505	-0.51
851.681	101.89
851.856	5.63
852.031	89.6
852.206	62.98
852.381	36.35
852.556	-0.51
852.731	28.16
852.906	65.02
853.081	73.21
853.256	-53.76
853.431	71.17
853.606	3.58
853.781	-6.66
853.956	60.93
854.131	-23.04
854.305	69.12
854.48	32.26
854.655	-43.52
854.83	-14.85
855.005	-119.29
855.18	-4.61
855.354	40.45
855.529	-0.51
855.704	-16.9
855.879	-37.38
856.053	26.11
856.228	46.59
856.403	34.3
856.577	54.78
856.752	-14.85
856.926	-27.14
857.101	48.64
857.276	3.58
857.45	-25.09
857.625	54.78
857.799	-39.42
857.974	36.35
858.148	-84.48
858.323	-4.61
858.497	-70.14
858.672	19.97
858.846	79.36
859.02	120.32
859.195	-57.86
859.369	77.31
859.543	36.35
859.718	19.97
859.892	36.35
860.066	24.06
860.241	50.69
860.415	15.87
860.589	-27.14
860.763	-29.18
860.938	-35.33
861.112	28.16
861.286	85.5
861.46	58.88
861.634	-33.28
861.808	-10.75
861.982	32.26
862.157	36.35
862.331	-4.61
862.505	-16.9
862.679	13.82
862.853	65.02
863.027	-4.61
863.201	17.92
863.375	-6.66
863.549	42.5
863.722	62.98
863.896	36.35
864.07	22.02
864.244	11.78
864.418	-51.71
864.592	-6.66
864.766	65.02
864.939	5.63
865.113	-6.66
865.287	28.16
865.461	-10.75
865.634	-8.7
865.808	32.26
865.982	19.97
866.156	-29.18
866.329	28.16
866.503	-4.61
866.676	28.16
866.85	-45.57
867.024	81.41
867.197	-45.57
867.371	-4.61
867.544	13.82
867.718	-59.9
867.891	11.78
868.065	-10.75
868.238	40.45
868.412	9.73
868.585	-27.14
868.759	44.54
868.932	50.69
869.105	-37.38
869.279	-59.9
869.452	-12.8
869.625	52.74
869.799	24.06
869.972	-2.56
870.145	54.78
870.319	28.16
870.492	-2.56
870.665	3.58
870.838	28.16
871.011	7.68
871.185	77.31
871.358	22.02
871.531	73.21
871.704	-0.51
871.877	69.12
872.05	-12.8
872.223	-68.09
872.396	87.55
872.569	19.97
872.742	-25.09
872.915	81.41
873.088	-59.9
873.261	-35.33
873.434	73.21
873.607	-29.18
873.78	36.35
873.953	28.16
874.126	3.58
874.299	44.54
874.471	7.68
874.644	-2.56
874.817	-10.75
874.99	60.93
875.163	-66.05
875.335	-20.99
875.508	28.16
875.681	44.54
875.853	52.74
876.026	42.5
876.199	46.59
876.371	-43.52
876.544	19.97
876.717	-33.28
876.889	-12.8
877.062	101.89
877.234	44.54
877.407	-43.52
877.579	-33.28
877.752	-20.99
877.924	71.17
878.097	24.06
878.269	-20.99
878.442	46.59
878.614	-29.18
878.786	-8.7
878.959	36.35
879.131	40.45
879.303	-8.7
879.476	52.74
879.648	-4.61
879.82	52.74
879.993	-25.09
880.165	-27.14
880.337	-109.05
880.509	-20.99
880.681	11.78
880.854	5.63
881.026	32.26
881.198	52.74
881.37	-16.9
881.542	52.74
881.714	-45.57
881.886	36.35
882.058	-12.8
882.23	28.16
882.402	-0.51
882.574	-20.99
882.746	38.4
882.918	79.36
883.09	-29.18
883.262	32.26
883.434	42.5
883.606	-45.57
883.778	-45.57
883.95	19.97
884.122	-20.99
884.293	48.64
884.465	19.97
884.637	19.97
884.809	-41.47
884.98	-12.8
885.152	19.97
885.324	22.02
885.496	-2.56
885.667	30.21
885.839	32.26
886.011	3.58
886.182	19.97
886.354	46.59
886.525	42.5
886.697	-20.99
886.869	-70.14
887.04	54.78
887.212	54.78
887.383	52.74
887.555	-12.8
887.726	24.06
887.897	17.92
888.069	-10.75
888.24	34.3
888.412	-10.75
888.583	-25.09
888.754	40.45
888.926	-72.19
889.097	38.4
889.268	-70.14
889.44	-45.57
889.611	48.64
889.782	-29.18
889.953	-4.61
890.125	40.45
890.296	-29.18
890.467	-70.14
890.638	-49.66
890.809	-16.9
890.98	-72.19
891.151	-35.33
891.323	3.58
891.494	-25.09
891.665	44.54
891.836	75.26
892.007	-29.18
892.178	5.63
892.349	-53.76
892.52	-29.18
892.691	-49.66
892.862	-2.56
893.032	-94.72
893.203	-6.66
893.374	15.87
893.545	15.87
893.716	-68.09
893.887	13.82
894.057	11.78
894.228	-43.52
894.399	-57.86
894.57	24.06
894.74	-43.52
894.911	-33.28
895.082	-0.51
895.253	28.16
895.423	15.87
895.594	-4.61
895.764	42.5
895.935	-16.9
896.106	-47.62
896.276	122.37
896.447	-20.99
896.617	-66.05
896.788	-59.9
896.958	-29.18
897.129	-76.29
897.299	40.45
897.47	-43.52
897.64	17.92
897.81	-4.61
897.981	-2.56
898.151	17.92
898.322	46.59
898.492	28.16
898.662	-14.85
898.832	-29.18
899.003	-20.99
899.173	-27.14
899.343	-70.14
899.513	3.58
