Data from USB4F104151__35__14-42-52-504.txt Node

Date: Thu Mar 13 14:42:52 EDT 2025
User: louis
Spectrometer: USB4F10415
Trigger mode: 4
Integration Time (sec): 2.000000E-2
Scans to average: 1
Electric dark correction enabled: true
Nonlinearity correction enabled: false
Boxcar width: 0
XAxis mode: Wavelengths
Number of Pixels in Spectrum: 3648
>>>>>Begin Spectral Data<<<<<
178.204	-108.54
178.424	-108.54
178.644	-108.54
178.864	-118.78
179.084	-16.38
179.304	-26.62
179.524	-6.14
179.744	40.96
179.964	4.1
180.184	-18.43
180.404	12.29
180.624	-20.48
180.844	-18.43
181.064	-45.06
181.283	55.3
181.503	-32.77
181.723	55.3
181.943	-45.06
182.163	18.43
182.383	53.25
182.602	45.06
182.822	43.01
183.042	30.72
183.262	38.91
183.482	57.34
183.701	-38.91
183.921	20.48
184.141	-28.67
184.361	45.06
184.58	49.15
184.8	12.29
185.02	-20.48
185.239	10.24
185.459	20.48
185.679	20.48
185.898	14.34
186.118	92.16
186.338	12.29
186.557	77.82
186.777	-2.05
186.997	69.63
187.216	14.34
187.436	-2.05
187.655	65.54
187.875	20.48
188.095	16.38
188.314	30.72
188.534	30.72
188.753	63.49
188.973	43.01
189.192	55.3
189.412	61.44
189.631	12.29
189.851	59.39
190.07	22.53
190.29	4.1
190.509	26.62
190.729	28.67
190.948	53.25
191.168	153.6
191.387	102.4
191.607	32.77
191.826	20.48
192.045	32.77
192.265	53.25
192.484	30.72
192.704	2.05
192.923	51.2
193.142	122.88
193.362	0
193.581	65.54
193.8	24.58
194.02	53.25
194.239	24.58
194.458	12.29
194.678	28.67
194.897	4.1
195.116	-16.38
195.335	30.72
195.555	4.1
195.774	30.72
195.993	30.72
196.212	34.82
196.432	81.92
196.651	14.34
196.87	38.91
197.089	53.25
197.308	36.86
197.528	30.72
197.747	47.1
197.966	-26.62
198.185	28.67
198.404	20.48
198.623	-18.43
198.842	-12.29
199.062	28.67
199.281	102.4
199.5	14.34
199.719	32.77
199.938	57.34
200.157	6.14
200.376	71.68
200.595	120.83
200.814	75.77
201.033	28.67
201.252	67.58
201.471	47.1
201.69	38.91
201.909	104.45
202.128	79.87
202.347	22.53
202.566	-10.24
202.785	22.53
203.004	0
203.223	133.12
203.442	8.19
203.661	69.63
203.879	16.38
204.098	28.67
204.317	-6.14
204.536	73.73
204.755	36.86
204.974	28.67
205.193	2.05
205.411	118.78
205.63	47.1
205.849	98.3
206.068	-38.91
206.287	30.72
206.505	4.1
206.724	-45.06
206.943	-10.24
207.162	8.19
207.381	45.06
207.599	86.01
207.818	47.1
208.037	-24.58
208.255	88.06
208.474	2.05
208.693	40.96
208.911	-63.49
209.13	53.25
209.349	55.3
209.567	45.06
209.786	6.14
210.005	55.3
210.223	55.3
210.442	-4.1
210.661	75.77
210.879	14.34
211.098	4.1
211.316	-24.58
211.535	24.58
211.753	65.54
211.972	98.3
212.191	-2.05
212.409	-51.2
212.628	94.21
212.846	79.87
213.065	79.87
213.283	104.45
213.502	79.87
213.72	98.3
213.938	32.77
214.157	61.44
214.375	92.16
214.594	-16.38
214.812	-20.48
215.031	96.25
215.249	57.34
215.467	28.67
215.686	59.39
215.904	73.73
216.122	40.96
216.341	102.4
216.559	6.14
216.778	30.72
216.996	28.67
217.214	49.15
217.432	14.34
217.651	36.86
217.869	-69.63
218.087	65.54
218.306	-8.19
218.524	14.34
218.742	-36.86
218.96	53.25
219.179	-12.29
219.397	26.62
219.615	110.59
219.833	-59.39
220.051	-4.1
220.27	38.91
220.488	147.45
220.706	20.48
220.924	-77.82
221.142	-10.24
221.36	51.2
221.578	8.19
221.796	47.1
222.015	100.35
222.233	14.34
222.451	49.15
222.669	4.1
222.887	47.1
223.105	-4.1
223.323	73.73
223.541	-43.01
223.759	36.86
223.977	22.53
224.195	65.54
224.413	47.1
224.631	71.68
224.849	38.91
225.067	61.44
225.285	-18.43
225.503	53.25
225.721	4.1
225.939	20.48
226.157	55.3
226.375	75.77
226.592	71.68
226.81	12.29
227.028	77.82
227.246	32.77
227.464	18.43
227.682	20.48
227.9	4.1
228.117	59.39
228.335	36.86
228.553	45.06
228.771	59.39
228.989	20.48
229.206	126.97
229.424	-2.05
229.642	-6.14
229.86	-4.1
230.077	34.82
230.295	67.58
230.513	14.34
230.731	-86.01
230.948	92.16
231.166	79.87
231.384	98.3
231.601	-36.86
231.819	102.4
232.037	4.1
232.254	-18.43
232.472	63.49
232.689	8.19
232.907	-8.19
233.125	20.48
233.342	14.34
233.56	-28.67
233.777	26.62
233.995	4.1
234.213	14.34
234.43	-75.77
234.648	-4.1
234.865	-4.1
235.083	118.78
235.3	40.96
235.518	-22.53
235.735	49.15
235.953	69.63
236.17	-51.2
236.388	-43.01
236.605	-16.38
236.822	57.34
237.04	118.78
237.257	-4.1
237.475	28.67
237.692	86.01
237.909	88.06
238.127	-20.48
238.344	8.19
238.562	53.25
238.779	4.1
238.996	-32.77
239.214	12.29
239.431	53.25
239.648	12.29
239.865	102.4
240.083	79.87
240.3	43.01
240.517	16.38
240.735	-16.38
240.952	8.19
241.169	30.72
241.386	30.72
241.603	28.67
241.821	36.86
242.038	94.21
242.255	-34.82
242.472	-73.73
242.689	18.43
242.907	63.49
243.124	67.58
243.341	32.77
243.558	2.05
243.775	26.62
243.992	49.15
244.209	38.91
244.426	61.44
244.643	20.48
244.86	-22.53
245.078	53.25
245.295	73.73
245.512	45.06
245.729	-12.29
245.946	96.25
246.163	32.77
246.38	20.48
246.597	47.1
246.814	49.15
247.031	30.72
247.248	110.59
247.464	24.58
247.681	-34.82
247.898	124.93
248.115	28.67
248.332	40.96
248.549	36.86
248.766	36.86
248.983	38.91
249.2	90.11
249.417	69.63
249.633	45.06
249.85	77.82
250.067	-8.19
250.284	51.2
250.501	-12.29
250.717	79.87
250.934	16.38
251.151	8.19
251.368	18.43
251.585	34.82
251.801	6.14
252.018	-40.96
252.235	-10.24
252.451	-26.62
252.668	-61.44
252.885	16.38
253.102	-10.24
253.318	47.1
253.535	-61.44
253.752	34.82
253.968	40.96
254.185	88.06
254.401	-16.38
254.618	69.63
254.835	8.19
255.051	81.92
255.268	65.54
255.484	81.92
255.701	-18.43
255.917	40.96
256.134	-4.1
256.351	38.91
256.567	6.14
256.784	-26.62
257	20.48
257.217	32.77
257.433	94.21
257.65	57.34
257.866	47.1
258.082	-24.58
258.299	79.87
258.515	143.36
258.732	12.29
258.948	-16.38
259.165	6.14
259.381	-4.1
259.597	69.63
259.814	63.49
260.03	-4.1
260.246	22.53
260.463	53.25
260.679	-10.24
260.895	36.86
261.112	28.67
261.328	8.19
261.544	-36.86
261.761	86.01
261.977	-2.05
262.193	-12.29
262.409	63.49
262.626	51.2
262.842	45.06
263.058	-26.62
263.274	45.06
263.49	-24.58
263.707	43.01
263.923	26.62
264.139	28.67
264.355	118.78
264.571	71.68
264.787	-18.43
265.004	53.25
265.22	63.49
265.436	14.34
265.652	-4.1
265.868	61.44
266.084	-18.43
266.3	40.96
266.516	22.53
266.732	65.54
266.948	28.67
267.164	8.19
267.38	86.01
267.596	-8.19
267.812	71.68
268.028	28.67
268.244	22.53
268.46	12.29
268.676	28.67
268.892	67.58
269.108	-8.19
269.324	45.06
269.54	2.05
269.756	36.86
269.972	24.58
270.188	53.25
270.403	-30.72
270.619	-8.19
270.835	32.77
271.051	-53.25
271.267	45.06
271.483	-10.24
271.698	126.97
271.914	53.25
272.13	106.49
272.346	-18.43
272.562	59.39
272.777	94.21
272.993	26.62
273.209	73.73
273.425	0
273.64	36.86
273.856	110.59
274.072	24.58
274.287	-16.38
274.503	88.06
274.719	-12.29
274.934	4.1
275.15	20.48
275.366	61.44
275.581	63.49
275.797	6.14
276.012	28.67
276.228	28.67
276.444	47.1
276.659	94.21
276.875	-43.01
277.09	55.3
277.306	45.06
277.521	45.06
277.737	24.58
277.952	112.64
278.168	18.43
278.383	88.06
278.599	45.06
278.814	77.82
279.03	36.86
279.245	94.21
279.461	14.34
279.676	69.63
279.892	86.01
280.107	4.1
280.322	28.67
280.538	102.4
280.753	36.86
280.969	73.73
281.184	-8.19
281.399	-4.1
281.615	71.68
281.83	55.3
282.045	18.43
282.26	6.14
282.476	-55.3
282.691	90.11
282.906	63.49
283.122	94.21
283.337	32.77
283.552	79.87
283.767	55.3
283.983	20.48
284.198	32.77
284.413	102.4
284.628	-94.21
284.843	77.82
285.058	57.34
285.274	88.06
285.489	40.96
285.704	86.01
285.919	22.53
286.134	81.92
286.349	28.67
286.564	-4.1
286.779	116.73
286.995	14.34
287.21	53.25
287.425	14.34
287.64	16.38
287.855	16.38
288.07	24.58
288.285	110.59
288.5	36.86
288.715	-18.43
288.93	53.25
289.145	45.06
289.36	69.63
289.575	4.1
289.79	55.3
290.004	28.67
290.219	79.87
290.434	16.38
290.649	51.2
290.864	-67.58
291.079	10.24
291.294	77.82
291.509	40.96
291.724	2.05
291.938	20.48
292.153	-10.24
292.368	75.77
292.583	-20.48
292.798	32.77
293.012	18.43
293.227	77.82
293.442	22.53
293.657	137.21
293.871	49.15
294.086	55.3
294.301	135.17
294.516	86.01
294.73	-2.05
294.945	22.53
295.16	-26.62
295.374	108.54
295.589	69.63
295.804	36.86
296.018	45.06
296.233	22.53
296.447	38.91
296.662	45.06
296.877	55.3
297.091	-16.38
297.306	8.19
297.52	47.1
297.735	28.67
297.949	57.34
298.164	88.06
298.378	-49.15
298.593	-75.77
298.807	-40.96
299.022	40.96
299.236	67.58
299.451	-12.29
299.665	12.29
299.88	28.67
300.094	16.38
300.309	40.96
300.523	32.77
300.737	16.38
300.952	65.54
301.166	6.14
301.381	71.68
301.595	36.86
301.809	53.25
302.024	30.72
302.238	12.29
302.452	71.68
302.667	-45.06
302.881	49.15
303.095	57.34
303.309	57.34
303.524	22.53
303.738	90.11
303.952	4.1
304.166	126.97
304.381	-22.53
304.595	16.38
304.809	-12.29
305.023	28.67
305.237	22.53
305.452	-24.58
305.666	57.34
305.88	57.34
306.094	-61.44
306.308	69.63
306.522	61.44
306.736	63.49
306.95	61.44
307.164	102.4
307.379	18.43
307.593	94.21
307.807	69.63
308.021	-2.05
308.235	110.59
308.449	28.67
308.663	69.63
308.877	194.56
309.091	77.82
309.305	45.06
309.519	6.14
309.733	53.25
309.947	45.06
310.161	77.82
310.374	73.73
310.588	106.49
310.802	-40.96
311.016	53.25
311.23	36.86
311.444	47.1
311.658	4.1
311.872	110.59
312.085	83.97
312.299	112.64
312.513	-8.19
312.727	94.21
312.941	28.67
313.154	-20.48
313.368	40.96
313.582	53.25
313.796	36.86
314.009	26.62
314.223	47.1
314.437	36.86
314.651	49.15
314.864	-18.43
315.078	38.91
315.292	30.72
315.505	24.58
315.719	4.1
315.933	-26.62
316.146	4.1
316.36	-8.19
316.573	71.68
316.787	61.44
317.001	24.58
317.214	45.06
317.428	26.62
317.641	-20.48
317.855	-4.1
318.068	20.48
318.282	36.86
318.495	114.69
318.709	135.17
318.922	16.38
319.136	53.25
319.349	6.14
319.563	61.44
319.776	24.58
319.99	-12.29
320.203	63.49
320.417	110.59
320.63	-4.1
320.843	114.69
321.057	57.34
321.27	77.82
321.483	61.44
321.697	79.87
321.91	26.62
322.124	-26.62
322.337	16.38
322.55	8.19
322.763	26.62
322.977	53.25
323.19	49.15
323.403	81.92
323.617	79.87
323.83	22.53
324.043	40.96
324.256	98.3
324.469	-51.2
324.683	71.68
324.896	38.91
325.109	61.44
325.322	-28.67
325.535	120.83
325.748	20.48
325.962	45.06
326.175	-8.19
326.388	63.49
326.601	18.43
326.814	79.87
327.027	83.97
327.24	86.01
327.453	-4.1
327.666	38.91
327.879	86.01
328.092	28.67
328.305	40.96
328.518	-24.58
328.731	18.43
328.944	32.77
329.157	6.14
329.37	53.25
329.583	81.92
329.796	137.21
330.009	-26.62
330.222	38.91
330.435	36.86
330.648	71.68
330.861	-8.19
331.073	6.14
331.286	38.91
331.499	86.01
331.712	-12.29
331.925	6.14
332.138	45.06
332.35	73.73
332.563	-12.29
332.776	36.86
332.989	6.14
333.202	100.35
333.414	36.86
333.627	24.58
333.84	61.44
334.053	34.82
334.265	53.25
334.478	22.53
334.691	106.49
334.903	92.16
335.116	26.62
335.329	55.3
335.541	90.11
335.754	65.54
335.966	28.67
336.179	20.48
336.392	-20.48
336.604	49.15
336.817	43.01
337.029	20.48
337.242	55.3
337.454	32.77
337.667	55.3
337.88	65.54
338.092	102.4
338.305	77.82
338.517	-77.82
338.729	94.21
338.942	0
339.154	-2.05
339.367	-38.91
339.579	-4.1
339.792	4.1
340.004	36.86
340.217	-40.96
340.429	-26.62
340.641	12.29
340.854	51.2
341.066	30.72
341.278	22.53
341.491	6.14
341.703	36.86
341.915	0
342.128	49.15
342.34	61.44
342.552	4.1
342.764	4.1
342.977	14.34
343.189	12.29
343.401	-65.53
343.613	-45.06
343.826	77.82
344.038	12.29
344.25	53.25
344.462	90.11
344.674	38.91
344.886	-18.43
345.099	55.3
345.311	86.01
345.523	6.14
345.735	16.38
345.947	69.63
346.159	20.48
346.371	-6.14
346.583	-28.67
346.795	110.59
347.007	24.58
347.219	77.82
347.431	32.77
347.643	135.17
347.855	36.86
348.067	94.21
348.279	-20.48
348.491	47.1
348.703	69.63
348.915	26.62
349.127	-4.1
349.339	28.67
349.551	22.53
349.763	30.72
349.975	96.25
350.187	-8.19
350.399	36.86
350.61	86.01
350.822	6.14
351.034	79.87
351.246	61.44
351.458	73.73
351.669	126.97
351.881	110.59
352.093	36.86
352.305	69.63
352.517	71.68
352.728	14.34
352.94	6.14
353.152	14.34
353.363	77.82
353.575	59.39
353.787	86.01
353.999	28.67
354.21	69.63
354.422	61.44
354.633	65.54
354.845	69.63
355.057	86.01
355.268	14.34
355.48	79.87
355.692	36.86
355.903	28.67
356.115	20.48
356.326	4.1
356.538	94.21
356.749	61.44
356.961	129.02
357.172	-34.82
357.384	20.48
357.595	63.49
357.807	12.29
358.018	-40.96
358.23	94.21
358.441	174.08
358.653	63.49
358.864	12.29
359.075	-4.1
359.287	98.3
359.498	49.15
359.709	57.34
359.921	86.01
360.132	94.21
360.344	22.53
360.555	6.14
360.766	30.72
360.977	-28.67
361.189	38.91
361.4	22.53
361.611	14.34
361.823	49.15
362.034	-2.05
362.245	-49.15
362.456	61.44
362.667	4.1
362.879	-4.1
363.09	36.86
363.301	55.3
363.512	36.86
363.723	32.77
363.935	36.86
364.146	102.4
364.357	38.91
364.568	38.91
364.779	61.44
364.99	98.3
365.201	65.54
365.412	112.64
365.623	-4.1
365.834	81.92
366.045	61.44
366.256	20.48
366.467	104.45
366.678	16.38
366.889	55.3
367.1	38.91
367.311	90.11
367.522	102.4
367.733	51.2
367.944	129.02
368.155	61.44
368.366	36.86
368.577	53.25
368.788	106.49
368.999	47.1
369.209	4.1
369.42	137.21
369.631	79.87
369.842	20.48
370.053	71.68
370.264	126.97
370.474	-20.48
370.685	-43.01
370.896	8.19
371.107	104.45
371.317	88.06
371.528	53.25
371.739	20.48
371.95	88.06
372.16	102.4
372.371	28.67
372.582	45.06
372.792	26.62
373.003	20.48
373.214	49.15
373.424	2.05
373.635	24.58
373.846	-4.1
374.056	-34.82
374.267	81.92
374.477	90.11
374.688	149.5
374.898	-2.05
375.109	47.1
375.319	28.67
375.53	139.26
375.74	-26.62
375.951	16.38
376.161	65.54
376.372	61.44
376.582	-14.34
376.793	61.44
377.003	38.91
377.214	32.77
377.424	79.87
377.635	8.19
377.845	34.82
378.055	14.34
378.266	57.34
378.476	143.36
378.686	20.48
378.897	-10.24
379.107	137.21
379.317	53.25
379.528	20.48
379.738	88.06
379.948	55.3
380.158	90.11
380.369	53.25
380.579	86.01
380.789	61.44
380.999	36.86
381.21	49.15
381.42	135.17
381.63	81.92
381.84	4.1
382.05	49.15
382.261	88.06
382.471	98.3
382.681	34.82
382.891	77.82
383.101	69.63
383.311	-14.34
383.521	12.29
383.731	43.01
383.941	98.3
384.151	2.05
384.361	32.77
384.571	71.68
384.781	77.82
384.991	159.74
385.201	126.97
385.411	38.91
385.621	22.53
385.831	57.34
386.041	110.59
386.251	120.83
386.461	69.63
386.671	34.82
386.881	-4.1
387.091	36.86
387.301	69.63
387.511	118.78
387.72	57.34
387.93	102.4
388.14	47.1
388.35	30.72
388.56	90.11
388.769	129.02
388.979	61.44
389.189	-6.14
389.399	69.63
389.609	65.54
389.818	161.79
390.028	38.91
390.238	96.25
390.447	-12.29
390.657	102.4
390.867	-8.19
391.076	14.34
391.286	63.49
391.496	55.3
391.705	26.62
391.915	143.36
392.125	98.3
392.334	102.4
392.544	112.64
392.753	65.54
392.963	-4.1
393.172	45.06
393.382	16.38
393.591	57.34
393.801	79.87
394.01	122.88
394.22	110.59
394.429	38.91
394.639	172.03
394.848	38.91
395.058	112.64
395.267	30.72
395.477	47.1
395.686	86.01
395.895	137.21
396.105	126.97
396.314	88.06
396.524	79.87
396.733	112.64
396.942	102.4
397.152	55.3
397.361	129.02
397.57	131.07
397.78	126.97
397.989	176.13
398.198	137.21
398.407	126.97
398.617	96.25
398.826	49.15
399.035	73.73
399.244	65.54
399.453	104.45
399.663	94.21
399.872	143.36
400.081	81.92
400.29	143.36
400.499	86.01
400.708	69.63
400.917	135.17
401.127	61.44
401.336	98.3
401.545	190.46
401.754	122.88
401.963	96.25
402.172	139.26
402.381	86.01
402.59	92.16
402.799	45.06
403.008	145.41
403.217	131.07
403.426	116.73
403.635	135.17
403.844	71.68
404.053	151.55
404.262	122.88
404.471	112.64
404.68	182.27
404.888	129.02
405.097	126.97
405.306	204.8
405.515	159.74
405.724	139.26
405.933	157.69
406.142	163.84
406.35	194.56
406.559	104.45
406.768	65.54
406.977	212.99
407.185	192.51
407.394	143.36
407.603	204.8
407.812	233.47
408.02	237.56
408.229	169.98
408.438	184.32
408.646	163.84
408.855	196.61
409.064	190.46
409.272	241.66
409.481	268.28
409.69	212.99
409.898	225.28
410.107	262.14
410.315	284.67
410.524	253.95
410.733	292.86
410.941	258.04
411.15	323.58
411.358	380.92
411.567	335.87
411.775	405.5
411.984	325.63
412.192	356.35
412.401	397.31
412.609	360.44
412.818	503.8
413.026	407.55
413.234	514.04
413.443	413.69
413.651	440.31
413.86	471.03
414.068	616.44
414.276	638.97
414.485	581.62
414.693	563.19
414.901	673.78
415.11	610.29
415.318	622.58
415.526	645.11
415.734	696.31
415.943	661.49
416.151	739.32
416.359	780.28
416.567	770.04
416.776	823.28
416.984	829.43
417.192	907.25
417.4	796.66
417.608	866.29
417.817	858.1
418.025	917.49
418.233	1052.66
418.441	874.48
418.649	1036.27
418.857	1112.05
419.065	1216.49
419.273	1087.47
419.481	1112.05
419.689	1318.89
419.897	1253.36
420.105	1343.47
420.313	1322.99
420.521	1314.8
420.729	1462.25
420.937	1490.92
421.145	1538.02
421.353	1605.61
421.561	1720.29
421.769	1671.14
421.977	1808.36
422.185	1759.21
422.393	1957.86
422.601	1980.39
422.809	2029.54
423.017	2002.91
423.224	2039.78
423.432	2250.72
423.64	2136.03
423.848	2355.16
424.056	2224.09
424.263	2437.08
424.471	2430.94
424.679	2633.69
424.887	2740.18
425.094	2754.52
425.302	2740.18
425.51	2889.68
425.718	2879.44
425.925	2981.84
426.133	3133.39
426.341	3260.37
426.548	3420.11
426.756	3373
426.964	3422.16
427.171	3534.79
427.379	3626.95
427.586	3876.8
427.794	3848.13
428.001	4235.2
428.209	4255.68
428.417	4245.44
428.624	4476.86
428.832	4562.87
429.039	4448.19
429.247	4534.2
429.454	4935.6
429.662	5156.79
429.869	4976.56
430.076	5230.51
430.284	5091.25
430.491	5265.33
430.699	5619.63
430.906	5672.87
431.114	5805.99
431.321	5713.83
431.528	5978.02
431.736	6344.61
431.943	6694.81
432.15	6412.19
432.358	6483.87
432.565	6915.99
432.772	6754.2
432.979	7219.09
433.187	7262.1
433.394	7489.42
433.601	7677.83
433.808	7817.1
434.016	7907.21
434.223	7976.84
434.43	8624
434.637	8564.61
434.844	9049.97
435.052	9240.44
435.259	9150.32
435.466	9285.49
435.673	9060.21
435.88	9617.26
436.087	10188.64
436.294	10164.07
436.501	9932.65
436.708	10014.57
436.915	10344.29
437.122	11081.56
437.329	10966.87
437.537	11306.84
437.743	11353.94
437.95	11229.01
438.157	11900.75
438.364	12349.25
438.571	12494.66
438.778	12435.27
438.985	13592.37
439.192	13084.47
439.399	13340.47
439.606	12977.98
439.813	13889.32
440.02	14489.38
440.227	14407.46
440.433	14681.89
440.64	14720.8
440.847	14495.52
441.054	15128.35
441.261	15961.87
441.467	15781.65
441.674	16070.41
441.881	16795.39
442.088	16758.53
442.294	16506.63
442.501	17078.01
442.708	17155.83
442.914	17960.69
443.121	18687.71
443.328	18155.24
443.534	19537.62
443.741	18947.81
443.948	18779.87
444.154	20238.03
444.361	20076.24
444.568	20070.09
444.774	20092.62
444.981	20479.69
445.187	21001.92
445.394	22021.81
445.6	21642.93
445.807	23672.47
446.013	22572.71
446.22	22810.28
446.426	23703.19
446.633	24293.01
446.839	25036.42
447.046	23824.02
447.252	25200.26
447.459	24948.36
447.665	25214.59
447.871	26338.93
448.078	27350.62
448.284	26058.35
448.491	26762.86
448.697	27502.17
448.903	28552.78
449.11	28657.23
449.316	27719.26
449.522	28513.87
449.728	29193.79
449.935	29414.98
450.141	29728.31
450.347	30068.28
450.553	29460.03
450.76	29376.06
450.966	30262.83
451.172	30381.62
451.378	31163.94
451.584	30287.41
451.791	31262.24
451.997	31127.08
452.203	31731.23
452.409	31677.98
452.615	31850.01
452.821	30221.87
453.027	29750.84
453.233	31860.25
453.44	30330.42
453.646	30719.53
453.852	30879.27
454.058	31536.67
454.264	30441.01
454.47	31313.44
454.676	30170.68
454.882	31268.39
455.088	28546.64
455.294	28974.66
455.5	29726.27
455.705	29892.15
455.911	28579.4
456.117	28051.03
456.323	28259.92
456.529	26674.79
456.735	27577.95
456.941	26900.07
457.147	26308.21
457.352	25560.7
457.558	25489.02
457.764	25689.72
457.97	25155.2
458.176	24579.72
458.381	24503.95
458.587	23154.33
458.793	23529.11
458.999	22249.13
459.204	23776.92
459.41	23101.09
459.616	21774
459.821	21546.68
460.027	21409.47
460.233	20963.01
460.438	20020.94
460.644	20192.97
460.85	19341.02
461.055	18910.94
461.261	19316.44
461.466	17694.45
461.672	16901.89
461.878	18165.48
462.083	17047.29
462.289	16758.53
462.494	16752.38
462.7	16174.86
462.905	15666.96
463.111	15900.43
463.316	16043.79
463.522	15605.52
463.727	15552.27
463.932	15675.15
464.138	15363.86
464.343	15572.75
464.549	15322.9
464.754	15400.72
464.959	15476.5
465.165	15154.97
465.37	14556.96
465.575	14429.99
465.781	14896.92
465.986	14700.32
466.191	14311.21
466.397	14313.25
466.602	13668.14
466.807	13991.72
467.012	14036.78
467.218	13891.37
467.423	13592.37
467.628	13647.66
467.833	14284.58
468.038	13711.15
468.244	13565.74
468.449	13971.24
468.654	13553.46
468.859	13578.03
469.064	13592.37
469.269	12756.8
469.474	13119.29
469.679	13193.01
469.885	12824.38
470.09	12939.07
470.295	12822.33
470.5	12764.99
470.705	12664.64
470.91	12439.36
471.115	12218.18
471.32	12439.36
471.525	12465.99
471.73	12029.77
471.935	11865.93
472.139	11710.29
472.344	11953.99
472.549	11691.85
472.754	11530.06
472.959	11267.92
473.164	10993.5
473.369	11077.46
473.574	11431.76
473.778	11194.2
473.983	11140.95
474.188	11128.66
474.393	10633.05
474.598	10399.59
474.802	10504.03
475.007	10405.73
475.212	10426.21
475.417	10059.62
475.621	10243.94
475.826	10272.61
476.031	9940.84
476.235	9957.22
476.44	9924.46
476.645	9914.22
476.849	9719.66
477.054	9639.79
477.259	9547.63
477.463	9428.85
477.668	9344.88
477.872	9385.84
478.077	9127.8
478.282	8761.21
478.486	8777.59
478.691	8888.18
478.895	8810.36
479.1	8777.59
479.304	8836.99
479.509	8552.32
479.713	8871.8
479.918	8449.92
480.122	8208.26
480.326	8515.45
480.531	8667
480.735	8148.87
480.94	8386.43
481.144	8669.05
481.348	8327.04
481.553	8163.2
481.757	8095.62
481.961	8142.72
482.166	8224.64
482.37	8204.16
482.574	8069
482.778	8077.19
482.983	8126.34
483.187	8103.81
483.391	8277.89
483.595	8052.61
483.8	8048.52
484.004	8114.05
484.208	8273.79
484.412	8097.67
484.616	8062.85
484.821	8091.52
485.025	7958.41
485.229	8157.06
485.433	7982.98
485.637	7831.43
485.841	7968.65
486.045	7960.45
486.249	7970.69
486.453	8079.24
486.657	8011.65
486.861	8187.78
487.065	7749.51
487.269	8079.24
487.473	7835.53
487.677	8202.11
487.881	8099.72
488.085	8171.4
488.289	8167.3
488.493	8025.99
488.697	8144.77
488.901	8218.5
489.105	8185.73
489.309	8058.76
489.512	8167.3
489.716	8077.19
489.92	8198.02
490.124	8255.36
490.328	8392.58
490.531	8234.88
490.735	8347.52
490.939	8247.17
491.143	8120.2
491.346	8122.24
491.55	8378.24
491.754	8542.08
491.958	8556.41
492.161	8431.49
492.365	8585.08
492.569	8417.15
492.772	8429.44
492.976	8689.53
493.18	8855.42
493.383	8701.82
493.587	8732.54
493.79	8822.65
493.994	8740.73
494.197	8925.05
494.401	8994.68
494.605	9092.98
494.808	9039.73
495.012	9072.5
495.215	9099.13
495.419	9287.54
495.622	9170.8
495.825	9314.16
496.029	9246.58
496.232	9455.47
496.436	9500.53
496.639	9817.96
496.843	9625.45
497.046	9695.08
497.249	9934.7
497.453	9979.75
497.656	10000.23
497.859	10022.76
498.063	10168.16
498.266	10231.65
498.469	10348.39
498.673	10608.48
498.876	10706.78
499.079	10714.97
499.282	10882.91
499.485	10876.76
499.689	10985.3
499.892	11212.63
500.095	11145.05
500.298	11388.75
500.501	11329.36
500.705	11671.37
500.908	11839.31
501.111	12111.69
501.314	11976.52
501.517	12140.36
501.72	12527.42
501.923	12226.37
502.126	12709.69
502.329	12666.69
502.532	12584.77
502.735	12996.41
502.938	13186.87
503.141	13371.19
503.344	13285.17
503.547	13354.8
503.75	13709.1
503.953	13946.67
504.156	13692.72
504.359	14012.2
504.562	14094.12
504.765	14610.21
504.968	14700.32
505.17	14843.68
505.373	14941.98
505.576	15085.34
505.779	15208.22
505.982	15413.01
506.185	15476.5
506.387	15734.54
506.59	15617.81
506.793	15978.25
506.996	16049.93
507.198	16637.7
507.401	16307.98
507.604	16539.4
507.807	17092.35
508.009	17012.48
508.212	16961.28
508.415	17374.97
508.617	17544.95
508.82	17645.3
509.022	17538.8
509.225	18159.34
509.428	18128.62
509.63	18452.2
509.833	18429.67
510.035	18794.21
510.238	18833.12
510.44	19111.64
510.643	19101.4
510.845	19558.1
511.048	19431.13
511.25	19631.83
511.453	19873.49
511.655	20438.73
511.858	20188.88
512.06	20422.34
512.262	20913.86
512.465	20973.25
512.667	21155.52
512.87	21419.71
513.072	21382.84
513.274	21827.25
513.477	22003.38
513.679	22343.34
513.881	22494.89
514.084	22924.96
514.286	22714.02
514.488	22877.86
514.69	23903.89
514.893	23453.34
515.095	23791.25
515.297	23926.42
515.499	23826.07
515.701	24219.28
515.904	24577.67
516.106	24553.1
516.308	24780.42
516.51	25069.19
516.712	25142.91
516.914	25681.53
517.116	26017.39
517.318	25777.78
517.52	26304.11
517.722	26232.43
517.925	26474.09
518.127	26857.06
518.329	27018.85
518.531	26934.88
518.733	27737.69
518.935	28034.64
519.136	27530.84
519.338	27993.68
519.54	28413.52
519.742	28632.65
519.944	28520.01
520.146	29285.95
520.348	29380.16
520.55	29636.16
520.752	29308.48
520.954	30240.31
521.155	29945.4
521.357	30031.41
521.559	30805.55
521.761	30866.98
521.963	30803.5
522.164	31467.04
522.366	31229.48
522.568	31256.1
522.77	31829.53
522.971	32181.78
523.173	31837.72
523.375	32302.61
523.576	32341.52
523.778	32683.53
523.98	32869.9
524.181	32890.38
524.383	33189.38
524.584	33334.79
524.786	33523.2
524.988	33359.36
525.189	33719.81
525.391	34125.3
525.592	34110.97
525.794	34358.77
525.995	34297.33
526.197	34534.9
526.398	34446.83
526.6	34702.83
526.801	34971.11
527.003	35143.14
527.204	34944.49
527.406	35429.86
527.607	35407.33
527.808	35962.33
528.01	35376.61
528.211	36103.64
528.412	36419.03
528.614	36218.33
528.815	35857.88
529.016	36220.38
529.218	36038.11
529.419	36285.91
529.62	36445.65
529.822	36494.8
530.023	37184.97
530.224	36541.91
530.425	36568.53
530.626	36834.77
530.828	36320.73
531.029	37275.08
531.23	36898.25
531.431	36664.78
531.632	36916.68
531.833	37158.35
532.035	37033.42
532.236	37174.73
532.437	37526.98
532.638	36799.95
532.839	36992.46
533.04	37516.74
533.241	36984.27
533.442	37877.18
533.643	37443.01
533.844	37293.51
534.045	37701.06
534.246	37219.78
534.447	36967.88
534.648	37455.3
534.849	37273.03
535.05	37156.3
535.251	37668.29
535.451	37582.27
535.652	37649.86
535.853	37623.23
536.054	37928.38
536.255	37881.28
536.456	37340.61
536.657	38081.98
536.857	37146.06
537.058	37545.41
537.259	38032.83
537.46	37768.64
537.66	37717.44
537.861	37686.72
538.062	37486.02
538.263	37539.27
538.463	37537.22
538.664	37506.5
538.865	37746.11
539.065	38225.34
539.266	37569.99
539.466	37721.54
539.667	37483.97
539.868	38297.02
540.068	37436.87
540.269	37526.98
540.469	37909.95
540.67	37553.6
540.87	37471.68
541.071	37922.24
541.271	37707.2
541.472	37610.95
541.672	37109.19
541.873	37203.4
542.073	37215.69
542.274	37709.25
542.474	37707.2
542.675	37248.46
542.875	37694.91
543.075	37332.42
543.276	37443.01
543.476	37866.94
543.676	37193.16
543.877	37569.99
544.077	37426.63
544.277	37492.16
544.478	37232.07
544.678	37346.76
544.878	37416.39
545.078	37619.14
545.279	37066.19
545.479	37213.64
545.679	37463.49
545.879	37270.98
546.079	37365.19
546.28	37193.16
546.48	37270.98
546.68	37651.91
546.88	37582.27
547.08	37092.81
547.28	37133.77
547.48	37148.11
547.68	37572.03
547.88	37002.7
548.081	37529.03
548.281	36980.17
548.481	37035.47
548.681	37250.5
548.881	37367.24
549.081	36998.6
549.28	37019.08
549.48	36867.53
549.68	37367.24
549.88	37588.42
550.08	37057.99
550.28	36857.29
550.48	37219.78
550.68	37227.98
550.88	37268.94
551.08	37107.15
551.279	37154.25
551.479	36857.29
551.679	36867.53
551.879	36912.59
552.079	37107.15
552.278	37092.81
552.478	37049.8
552.678	37051.85
552.878	37225.93
553.077	37035.47
553.277	36744.66
553.477	37152.2
553.676	37045.71
553.876	36849.1
554.076	36656.59
554.275	36572.63
554.475	36736.46
554.674	36900.3
554.874	36552.15
555.074	36730.32
555.273	36707.79
555.473	36939.21
555.672	36562.39
555.872	36609.49
556.071	36781.52
556.271	36806.09
556.47	36216.28
556.67	36185.56
556.869	36421.08
557.068	36416.98
557.268	36029.91
557.467	36308.44
557.667	36296.15
557.866	36337.11
558.065	36074.97
558.265	35794.4
558.464	35861.98
558.663	36019.67
558.863	35972.57
559.062	36742.61
559.261	35837.41
559.461	36337.11
559.66	35737.05
559.859	36077.02
560.058	35524.07
560.258	35761.63
560.457	35388.9
560.656	35818.97
560.855	35534.31
561.054	36101.59
561.253	34936.3
561.453	35374.56
561.652	35577.31
561.851	35438.05
562.05	35153.38
562.249	35093.99
562.448	35415.52
562.647	35278.31
562.846	34921.96
563.045	34971.11
563.244	35231.21
563.443	35184.1
563.642	34352.63
563.841	34725.36
564.04	34381.3
564.239	35192.29
564.438	34579.95
564.637	34504.18
564.836	34604.53
565.035	34223.61
565.234	34469.36
565.432	34205.17
565.631	34094.58
565.83	34299.38
566.029	33938.94
566.228	34096.63
566.427	34088.44
566.625	33748.48
566.824	33809.92
567.023	33869.31
567.222	33267.2
567.42	33779.2
567.619	33502.72
567.818	33373.7
568.016	33672.7
568.215	33562.11
568.414	33332.74
568.612	33646.08
568.811	33123.85
569.01	33148.42
569.208	32689.68
569.407	33209.86
569.605	32499.22
569.804	33021.45
570.002	32732.68
570.201	33052.17
570.4	32357.91
570.598	32310.8
570.797	32247.32
570.995	32097.81
571.193	32026.14
571.392	32210.45
571.59	31897.11
571.789	31694.36
571.987	32065.05
572.186	31757.85
572.384	31641.12
572.582	31753.76
572.781	31520.29
572.979	31280.67
573.177	31342.11
573.376	31489.57
573.574	31026.73
573.772	31260.19
573.971	31278.63
574.169	31026.73
574.367	31067.69
574.565	31331.87
574.763	30899.75
574.962	30852.65
575.16	30334.51
575.358	30635.56
575.556	30461.49
575.754	30471.73
575.952	30432.82
576.151	30748.2
576.349	29939.26
576.547	30090.8
576.745	30264.88
576.943	30019.13
577.141	29894.2
577.339	30019.13
577.537	29914.68
577.735	29732.41
577.933	29429.31
578.131	29871.67
578.329	29810.23
578.527	29304.38
578.725	29429.31
578.923	29564.48
579.121	29390.4
579.319	29097.54
579.516	29445.69
579.714	29038.15
579.912	29095.49
580.11	28565.07
580.308	28843.59
580.506	28569.16
580.704	28290.64
580.901	28315.22
581.099	28610.12
581.297	28161.62
581.495	28307.02
581.692	28603.98
581.89	28247.63
582.088	28255.82
582.285	28214.87
582.483	28409.42
582.681	28034.64
582.878	27743.83
583.076	27649.63
583.274	27776.6
583.471	27084.39
583.669	27684.44
583.866	27311.71
584.064	27356.77
584.262	27086.43
584.459	27575.9
584.657	27010.66
584.854	27197.02
585.052	26607.21
585.249	26750.57
585.447	27260.51
585.644	26775.14
585.841	26998.37
586.039	27104.87
586.236	26230.38
586.434	26588.78
586.631	26527.34
586.828	26447.47
587.026	26328.69
587.223	26414.7
587.42	26349.17
587.618	26259.06
587.815	25783.93
588.012	25620.09
588.21	25949.81
588.407	25994.87
588.604	25898.61
588.801	25491.07
588.999	25656.95
589.196	25685.62
589.393	25706.1
589.59	25224.83
589.787	25321.09
589.984	25077.38
590.182	25214.59
590.379	24999.55
590.576	25028.23
590.773	24835.72
590.97	24913.54
591.167	25222.78
591.364	24452.75
591.561	24903.3
591.758	24303.25
591.955	24450.7
592.152	24714.89
592.349	24483.47
592.546	24356.49
592.743	24133.26
592.94	24143.5
593.137	24178.32
593.334	24168.08
593.531	23856.79
593.727	24010.39
593.924	23881.36
594.121	23615.13
594.318	23883.41
594.515	23604.89
594.712	23561.88
594.908	23598.74
595.105	23686.81
595.302	23522.97
595.499	23316.12
595.696	23228.06
595.892	23027.36
596.089	23314.08
596.286	23092.9
596.482	23176.86
596.679	22916.77
596.876	22906.53
597.072	22955.68
597.269	22931.11
597.466	22711.97
597.662	22511.27
597.859	22427.31
598.055	22453.93
598.252	22247.08
598.448	22478.5
598.645	22197.93
598.841	21911.22
599.038	22345.39
599.234	22056.62
599.431	21831.35
599.627	21634.74
599.824	22210.22
600.02	21692.08
600.217	22030
600.413	21728.95
600.609	21620.41
600.806	21425.85
601.002	21806.77
601.198	21257.92
601.395	21536.44
601.591	20995.78
601.787	21176
601.984	21163.71
602.18	21253.82
602.376	20928.19
602.572	20721.35
602.769	20866.75
602.965	20684.48
603.161	20838.08
603.357	20750.02
603.553	20528.84
603.75	20539.08
603.946	20266.7
604.142	20471.5
604.338	20205.26
604.534	20373.19
604.73	20238.03
604.926	20381.38
605.122	20203.21
605.318	19916.5
605.514	19994.32
605.71	19941.07
605.906	20059.85
606.102	19943.12
606.298	19967.7
606.494	19689.17
606.69	19719.89
606.886	19936.98
607.082	19431.13
607.278	19623.64
607.474	19437.27
607.67	19812.05
607.866	19173.08
608.062	19625.68
608.257	19347.16
608.453	19363.54
608.649	19265.24
608.845	19039.97
609.041	19107.55
609.236	19005.15
609.432	19197.66
609.628	19089.12
609.824	19044.06
610.019	19087.07
610.215	18843.36
610.411	18953.95
610.606	18923.23
610.802	19005.15
610.998	18937.57
611.193	18527.97
611.389	18343.66
611.584	18405.1
611.78	18657
611.976	18622.18
612.171	18476.77
612.367	18527.97
612.562	18597.6
612.758	18081.52
612.953	18126.57
613.149	18484.97
613.344	18077.42
613.539	18333.42
613.735	18525.93
613.93	18228.97
614.126	18183.91
614.321	18312.94
614.517	18255.59
614.712	18071.28
614.907	17800.94
615.103	18091.76
615.298	17624.82
615.493	17932.01
615.688	17594.1
615.884	18149.1
616.079	17755.89
616.274	17905.39
616.47	17802.99
616.665	17788.66
616.86	17725.17
617.055	17825.52
617.25	17432.31
617.445	17585.91
617.641	17374.97
617.836	17608.44
618.031	17270.52
618.226	17635.06
618.421	17317.62
618.616	17440.5
618.811	16969.47
619.006	17116.92
619.201	16803.58
619.396	17010.43
619.591	16758.53
619.786	16953.09
619.981	16586.5
620.176	16656.13
620.371	16596.74
620.566	16570.12
620.761	16549.64
620.956	16447.24
621.151	16144.14
621.346	16518.92
621.541	16103.18
621.735	15982.35
621.93	15847.18
622.125	16019.21
622.32	15828.75
622.515	15585.04
622.709	15732.5
622.904	15734.54
623.099	15554.32
623.294	15636.24
623.488	15470.36
623.683	15220.5
623.878	15290.13
624.072	15101.72
624.267	15138.58
624.462	14866.21
624.656	14823.2
624.851	14993.18
625.046	14757.66
625.24	14565.15
625.435	14423.84
625.629	14499.62
625.824	14458.66
626.018	14389.03
626.213	14153.51
626.407	14184.23
626.602	13922.09
626.796	14014.25
626.991	13987.63
627.185	13680.43
627.38	13971.24
627.574	13739.82
627.768	13451.06
627.963	13322.04
628.157	13455.15
628.352	13438.77
628.546	13227.83
628.74	13264.69
628.935	13246.26
629.129	12904.25
629.323	13158.2
629.517	13031.23
629.712	12980.03
629.906	13178.68
630.1	12687.17
630.294	12742.46
630.489	12545.86
630.683	12891.96
630.877	12408.64
631.071	12425.03
631.265	12760.89
631.459	12351.3
631.653	12244.81
631.848	12142.41
632.042	12222.28
632.236	12300.1
632.43	12115.78
632.624	12119.88
632.818	12085.06
633.012	11659.09
633.206	11794.25
633.4	11982.67
633.594	11728.72
633.788	11657.04
633.982	11573.07
634.176	11695.95
634.369	11292.5
634.563	11255.64
634.757	11442
634.951	11525.97
635.145	11292.5
635.339	11188.05
635.533	11300.69
635.726	11044.7
635.92	10891.1
636.114	10901.34
636.308	10907.48
636.501	10698.59
636.695	10858.33
636.889	10688.35
637.083	10499.94
637.276	10489.7
637.47	10645.34
637.664	10469.22
637.857	10620.77
638.051	10540.9
638.244	10221.41
638.438	10022.76
638.632	10063.72
638.825	10104.68
639.019	10186.6
639.212	9924.46
639.406	10053.48
639.599	9887.59
639.793	9811.82
639.986	9750.38
640.18	9844.59
640.373	9625.45
640.567	9635.69
640.76	9654.12
640.954	9631.6
641.147	9480.05
641.34	9426.8
641.534	9512.81
641.727	9396.08
641.92	9369.46
642.114	9500.53
642.307	9244.53
642.5	9090.93
642.694	9023.35
642.887	8945.53
643.08	9088.89
643.273	8982.39
643.467	8882.04
643.66	8836.99
643.853	8820.6
644.046	8798.07
644.239	8748.92
644.432	8527.74
644.626	8601.47
644.819	8462.21
645.012	8771.45
645.205	8519.55
645.398	8542.08
645.591	8531.84
645.784	8368
645.977	8322.94
646.17	8480.64
646.363	8224.64
646.556	8263.55
646.749	8116.1
646.942	8095.62
647.135	7804.81
647.328	7948.17
647.521	7892.87
647.714	7901.06
647.907	7696.27
648.099	7923.59
648.292	7778.19
648.485	7759.75
648.678	7667.6
648.871	7597.96
649.064	7487.37
649.256	7632.78
649.449	7557
649.642	7544.72
649.835	7229.33
650.027	7315.34
650.22	7401.36
650.413	7288.72
650.605	7190.42
650.798	7264.15
650.991	7262.1
651.183	7237.52
651.376	7102.36
651.568	7196.56
651.761	7069.59
651.954	7028.63
652.146	7024.53
652.339	6870.94
652.531	7010.2
652.724	6893.46
652.916	6852.5
653.109	6856.6
653.301	6877.08
653.494	6795.16
653.686	6729.63
653.879	6557.6
654.071	6717.34
654.263	6709.15
654.456	6387.61
654.648	6621.08
654.84	6320.03
655.033	6614.94
655.225	6502.3
655.417	6344.61
655.61	6447.01
655.802	6371.23
655.994	6277.02
656.186	6199.2
656.379	6131.62
656.571	6199.2
656.763	6098.85
656.955	6057.89
657.148	5988.26
657.34	6057.89
657.532	5916.58
657.724	5959.59
657.916	6113.19
658.108	5953.45
658.3	5912.49
658.492	5935.01
658.684	5818.28
658.876	5869.48
659.068	5691.31
659.26	5746.6
659.452	5652.39
659.644	5736.36
659.836	5640.11
660.028	5691.31
660.22	5519.28
660.412	5652.39
660.604	5552.04
660.796	5566.38
660.988	5443.5
661.18	5504.94
661.372	5418.93
661.563	5431.21
661.755	5185.46
661.947	5443.5
662.139	5279.66
662.331	5320.62
662.522	5250.99
662.714	5091.25
662.906	5246.9
663.097	5179.31
663.289	5171.12
663.481	5044.15
663.673	4902.84
663.864	5052.34
664.056	4927.41
664.247	4972.47
664.439	4968.37
664.631	5017.52
664.822	4902.84
665.014	4812.73
665.205	4915.12
665.397	4820.92
665.588	4802.49
665.78	4673.46
665.971	4870.07
666.163	4636.6
666.354	4792.25
666.546	4646.84
666.737	4523.96
666.929	4562.87
667.12	4638.65
667.311	4511.68
667.503	4618.17
667.694	4411.32
667.885	4376.51
668.077	4562.87
668.268	4542.39
668.459	4440
668.651	4405.18
668.842	4425.66
669.033	4317.12
669.224	4337.6
669.416	4296.64
669.607	4257.73
669.798	4202.43
669.989	4333.5
670.18	4222.91
670.371	4200.38
670.563	4102.08
670.754	4212.67
670.945	3964.87
671.136	4071.36
671.327	4034.5
671.518	4001.73
671.709	4091.84
671.9	4216.77
672.091	4057.03
672.282	3981.25
672.473	4018.11
672.664	3862.47
672.855	3942.34
673.046	3854.28
673.237	3903.43
673.428	3819.46
673.619	3887.04
673.809	3856.33
674	3854.28
674.191	3768.26
674.382	3747.78
674.573	3801.03
674.764	3715.02
674.954	3788.74
675.145	3708.87
675.336	3665.86
675.527	3790.79
675.717	3682.25
675.908	3575.75
676.099	3639.24
676.289	3696.58
676.48	3663.82
676.671	3616.71
676.861	3764.17
677.052	3540.94
677.243	3510.22
677.433	3522.51
677.624	3629
677.814	3428.3
678.005	3395.53
678.195	3528.65
678.386	3469.26
678.576	3434.44
678.767	3325.9
678.957	3289.04
679.148	3379.15
679.338	3352.52
679.529	3256.27
679.719	3418.06
679.909	3436.49
680.1	3387.34
680.29	3317.71
680.481	3215.31
680.671	3211.22
680.861	3256.27
681.052	3317.71
681.242	3170.26
681.432	3313.61
681.622	3121.1
681.813	3239.89
682.003	3268.56
682.193	3223.5
682.383	3264.46
682.573	3176.4
682.764	3227.6
682.954	3104.72
683.144	3080.15
683.334	3018.71
683.524	3069.91
683.714	3172.3
683.904	2969.55
684.094	3100.62
684.284	2977.75
684.474	3084.24
684.664	3037.14
684.854	2914.26
685.044	3065.81
685.234	3106.77
685.424	3010.51
685.614	2973.65
685.804	2875.35
685.994	2772.95
686.184	2881.49
686.374	2940.88
686.564	2973.65
686.753	3051.47
686.943	2813.91
687.133	2869.2
687.323	2895.83
687.513	2770.9
687.702	2643.93
687.892	2791.38
688.082	2764.76
688.272	2797.53
688.461	2750.42
688.651	2793.43
688.841	2785.24
689.03	2676.7
689.22	2742.23
689.41	2674.65
689.599	2818.01
689.789	2686.94
689.979	2777.05
690.168	2652.12
690.358	2748.37
690.547	2600.92
690.737	2596.82
690.926	2678.74
691.116	2731.99
691.305	2676.7
691.495	2711.51
691.684	2654.17
691.874	2674.65
692.063	2574.3
692.252	2611.16
692.442	2621.4
692.631	2607.06
692.82	2580.44
693.01	2562.01
693.199	2453.47
693.388	2551.77
693.578	2506.71
693.767	2539.48
693.956	2402.27
694.146	2486.23
694.335	2435.03
694.524	2570.2
694.713	2537.43
694.902	2514.91
695.092	2359.26
695.281	2412.51
695.47	2353.12
695.659	2346.97
695.848	2500.57
696.037	2365.4
696.226	2404.32
696.415	2422.75
696.604	2406.36
696.793	2437.08
696.982	2334.68
697.171	2379.74
697.36	2416.6
697.549	2336.73
697.738	2275.29
697.927	2351.07
698.116	2531.29
698.305	2379.74
698.494	2318.3
698.683	2396.12
698.872	2342.88
699.061	2297.82
699.25	2398.17
699.438	2346.97
699.627	2371.55
699.816	2330.59
700.005	2269.15
700.193	2363.36
700.382	2281.44
700.571	2281.44
700.76	2273.25
700.948	2322.4
701.137	2232.29
701.326	2389.98
701.514	2267.1
701.703	2371.55
701.892	2203.61
702.08	2322.4
702.269	2310.11
702.457	2234.33
702.646	2373.6
702.834	2316.25
703.023	2166.75
703.212	2179.04
703.4	2265.05
703.589	2256.86
703.777	2195.42
703.965	2242.53
704.154	2217.95
704.342	2211.81
704.531	2260.96
704.719	2232.29
704.907	2246.62
705.096	2256.86
705.284	2244.57
705.472	2232.29
705.661	2209.76
705.849	2338.78
706.037	2308.06
706.226	2174.94
706.414	2252.77
706.602	2193.37
706.79	2385.88
706.979	2273.25
707.167	2295.77
707.355	2176.99
707.543	2156.51
707.731	2322.4
707.919	2136.03
708.107	2174.94
708.296	2217.95
708.484	2160.61
708.672	2334.68
708.86	2258.91
709.048	2273.25
709.236	2269.15
709.424	2224.09
709.612	2209.76
709.8	2203.61
709.988	2093.02
710.176	2142.18
710.364	2160.61
710.551	2240.48
710.739	2146.27
710.927	2234.33
711.115	2099.17
711.303	2187.23
711.491	2281.44
711.679	2236.38
711.866	2179.04
712.054	2293.73
712.242	2191.33
712.43	2281.44
712.617	2099.17
712.805	2160.61
712.993	2297.82
713.181	2201.57
713.368	2119.65
713.556	2170.85
713.744	2138.08
713.931	2355.16
714.119	2090.98
714.306	2215.9
714.494	2185.18
714.682	2064.35
714.869	2146.27
715.057	2117.6
715.244	2045.92
715.432	2154.46
715.619	2045.92
715.807	2113.5
715.994	2113.5
716.182	2131.94
716.369	2131.94
716.556	2109.41
716.744	1982.43
716.931	2136.03
717.119	2152.42
717.306	2209.76
717.493	2160.61
717.681	2068.45
717.868	2088.93
718.055	2209.76
718.242	2103.26
718.43	2156.51
718.617	2207.71
718.804	2068.45
718.991	2074.59
719.179	2146.27
719.366	2199.52
719.553	2172.89
719.74	2191.33
719.927	2119.65
720.114	2076.64
720.301	2002.91
720.488	2004.96
720.676	2154.46
720.863	2101.22
721.05	2232.29
721.237	2076.64
721.424	2166.75
721.611	2078.69
721.798	2050.02
721.985	2039.78
722.172	2060.26
722.358	2181.09
722.545	1996.77
722.732	2054.11
722.919	2072.54
723.106	2078.69
723.293	2047.97
723.48	2066.4
723.667	2007.01
723.853	2146.27
724.04	2187.23
724.227	2084.83
724.414	2037.73
724.6	1949.67
724.787	2039.78
724.974	2150.37
725.161	2201.57
725.347	1988.58
725.534	2097.12
725.72	2011.11
725.907	2166.75
726.094	2045.92
726.28	1986.53
726.467	2029.54
726.653	2072.54
726.84	2093.02
727.027	2054.11
727.213	1974.24
727.4	2004.96
727.586	2035.68
727.773	2187.23
727.959	1974.24
728.145	2039.78
728.332	2043.87
728.518	2019.3
728.705	2166.75
728.891	2019.3
729.077	2150.37
729.264	2068.45
729.45	2037.73
729.636	2082.78
729.823	2035.68
730.009	2002.91
730.195	2029.54
730.382	2066.4
730.568	2066.4
730.754	2035.68
730.94	2076.64
731.126	1945.57
731.313	1925.09
731.499	1964
731.685	1918.95
731.871	1994.72
732.057	2070.5
732.243	1976.29
732.429	1961.95
732.615	2060.26
732.801	1988.58
732.987	1888.23
733.173	2119.65
733.359	1968.1
733.545	2002.91
733.731	2002.91
733.917	2043.87
734.103	2023.39
734.289	1957.86
734.475	1966.05
734.661	1916.9
734.847	1988.58
735.033	1964
735.219	1880.04
735.404	2023.39
735.59	1900.52
735.776	1974.24
735.962	1974.24
736.148	1880.04
736.333	1961.95
736.519	1871.84
736.705	1994.72
736.89	1880.04
737.076	1837.03
737.262	1937.38
737.447	1888.23
737.633	1927.14
737.819	1988.58
738.004	1816.55
738.19	1839.08
738.375	1929.19
738.561	1933.28
738.747	1822.69
738.932	1806.31
739.118	1966.05
739.303	1871.84
739.489	1945.57
739.674	1826.79
739.859	1898.47
740.045	1816.55
740.23	1830.88
740.416	1785.83
740.601	1816.55
740.786	1822.69
740.972	1822.69
741.157	1814.5
741.342	1720.29
741.528	1769.45
741.713	1753.06
741.898	1775.59
742.084	1652.71
742.269	1708.01
742.454	1818.6
742.639	1800.16
742.824	1767.4
743.01	1806.31
743.195	1808.36
743.38	1757.16
743.565	1767.4
743.75	1687.53
743.935	1761.25
744.12	1808.36
744.305	1705.96
744.49	1591.27
744.675	1708.01
744.86	1691.62
745.045	1613.8
745.23	1642.47
745.415	1624.04
745.6	1773.54
745.785	1578.98
745.97	1646.57
746.155	1552.36
746.34	1548.26
746.525	1523.69
746.71	1562.6
746.895	1474.54
747.079	1503.21
747.264	1576.94
747.449	1523.69
747.634	1497.07
747.819	1585.13
748.003	1523.69
748.188	1552.36
748.373	1581.03
748.557	1495.02
748.742	1495.02
748.927	1540.07
749.111	1437.67
749.296	1527.78
749.481	1462.25
749.665	1409
749.85	1433.58
750.034	1478.63
750.219	1421.29
750.404	1490.92
750.588	1437.67
750.773	1374.19
750.957	1396.71
751.141	1331.18
751.326	1431.53
751.51	1419.24
751.695	1343.47
751.879	1404.91
752.064	1294.32
752.248	1316.84
752.432	1384.43
752.617	1363.95
752.801	1396.71
752.985	1316.84
753.17	1357.8
753.354	1349.61
753.538	1337.32
753.722	1232.88
753.907	1224.69
754.091	1202.16
754.275	1200.11
754.459	1216.49
754.643	1118.19
754.828	1181.68
755.012	1163.25
755.196	1112.05
755.38	1206.25
755.564	1208.3
755.748	1232.88
755.932	1101.81
756.116	1234.93
756.3	1220.59
756.484	1142.77
756.668	1048.56
756.852	1087.47
757.036	1122.29
757.22	1120.24
757.404	1036.27
757.588	1171.44
757.772	1105.9
757.956	1011.7
758.14	1062.9
758.323	1066.99
758.507	1114.1
758.691	1089.52
758.875	1048.56
759.059	1144.81
759.242	1089.52
759.426	1191.92
759.61	1038.32
759.794	1040.37
759.977	1036.27
760.161	1028.08
760.345	1056.75
760.528	1019.89
760.712	1038.32
760.895	987.12
761.079	950.26
761.263	937.97
761.446	882.67
761.63	987.12
761.813	940.02
761.997	868.34
762.18	903.15
762.364	962.55
762.547	790.52
762.731	917.49
762.914	1005.55
763.098	862.19
763.281	831.48
763.464	890.87
763.648	917.49
763.831	839.67
764.015	872.43
764.198	907.25
764.381	858.1
764.564	911.35
764.748	974.83
764.931	845.81
765.114	864.24
765.297	964.59
765.481	819.19
765.664	849.91
765.847	874.48
766.03	817.14
766.213	831.48
766.397	962.55
766.58	868.34
766.763	901.11
766.946	806.9
767.129	845.81
767.312	856.05
767.495	880.63
767.678	772.08
767.861	798.71
768.044	821.24
768.227	851.96
768.41	780.28
768.593	870.39
768.776	829.43
768.959	733.17
769.142	858.1
769.324	858.1
769.507	825.33
769.69	921.59
769.873	813.04
770.056	843.76
770.239	735.22
770.421	774.13
770.604	880.63
770.787	733.17
770.97	808.95
771.152	806.9
771.335	753.65
771.518	675.83
771.7	684.02
771.883	808.95
772.066	776.18
772.248	831.48
772.431	743.41
772.613	765.94
772.796	724.98
772.978	733.17
773.161	767.99
773.343	724.98
773.526	659.45
773.708	700.41
773.891	643.06
774.073	718.84
774.256	661.49
774.438	759.8
774.621	671.73
774.803	686.07
774.985	649.21
775.168	724.98
775.35	704.5
775.532	724.98
775.715	628.73
775.897	638.97
776.079	677.88
776.261	675.83
776.444	727.03
776.626	638.97
776.808	595.96
776.99	651.25
777.173	675.83
777.355	659.45
777.537	610.29
777.719	589.82
777.901	620.53
778.083	585.72
778.265	636.92
778.447	628.73
778.629	643.06
778.811	702.45
778.993	569.34
779.175	626.68
779.357	544.76
779.539	520.18
779.721	571.38
779.903	548.86
780.085	530.42
780.267	542.71
780.449	593.91
780.631	552.95
780.812	561.14
780.994	540.66
781.176	511.99
781.358	565.24
781.54	479.22
781.721	593.91
781.903	589.82
782.085	503.8
782.267	514.04
782.448	432.12
782.63	491.51
782.812	495.61
782.993	497.66
783.175	538.62
783.357	475.13
783.538	514.04
783.72	432.12
783.901	481.27
784.083	491.51
784.264	450.55
784.446	399.35
784.627	389.11
784.809	407.55
784.99	503.8
785.172	413.69
785.353	415.74
785.535	489.46
785.716	430.07
785.897	421.88
786.079	458.75
786.26	428.03
786.441	372.73
786.623	364.54
786.804	415.74
786.985	411.64
787.167	466.94
787.348	372.73
787.529	395.26
787.71	438.27
787.891	405.5
788.073	417.79
788.254	413.69
788.435	374.78
788.616	372.73
788.797	458.75
788.978	419.83
789.159	317.44
789.34	399.35
789.522	393.21
789.703	325.63
789.884	393.21
790.065	385.02
790.246	428.03
790.427	356.35
790.607	301.05
790.788	348.15
790.969	233.47
791.15	233.47
791.331	339.96
791.512	296.96
791.693	155.65
791.874	344.06
792.054	350.2
792.235	325.63
792.416	303.1
792.597	315.39
792.778	370.68
792.958	323.58
793.139	376.83
793.32	274.43
793.5	319.48
793.681	292.86
793.862	329.72
794.042	284.67
794.223	274.43
794.404	241.66
794.584	221.18
794.765	309.24
794.945	192.51
795.126	299
795.306	397.31
795.487	352.25
795.667	292.86
795.848	299
796.028	274.43
796.209	270.33
796.389	307.2
796.57	276.48
796.75	253.95
796.93	208.89
797.111	274.43
797.291	229.37
797.471	323.58
797.652	276.48
797.832	233.47
798.012	315.39
798.192	139.26
798.373	208.89
798.553	223.23
798.733	176.13
798.913	258.04
799.093	219.13
799.274	161.79
799.454	249.85
799.634	251.9
799.814	315.39
799.994	239.61
800.174	243.71
800.354	290.81
800.534	217.08
800.714	256
800.894	192.51
801.074	299
801.254	243.71
801.434	124.93
801.614	229.37
801.794	210.94
801.974	757.75
802.154	202.75
802.334	249.85
802.514	186.37
802.693	258.04
802.873	196.61
803.053	243.71
803.233	198.65
803.413	178.17
803.592	126.97
803.772	184.32
803.952	274.43
804.131	120.83
804.311	192.51
804.491	192.51
804.67	135.17
804.85	118.78
805.03	276.48
805.209	172.03
805.389	233.47
805.568	86.01
805.748	235.52
805.928	204.8
806.107	151.55
806.287	229.37
806.466	194.56
806.646	210.94
806.825	169.98
807.004	215.04
807.184	159.74
807.363	217.08
807.543	188.41
807.722	143.36
807.901	200.7
808.081	186.37
808.26	202.75
808.439	192.51
808.619	215.04
808.798	137.21
808.977	204.8
809.156	129.02
809.336	122.88
809.515	100.35
809.694	190.46
809.873	110.59
810.052	208.89
810.231	286.72
810.411	184.32
810.59	210.94
810.769	137.21
810.948	176.13
811.127	145.41
811.306	176.13
811.485	172.03
811.664	204.8
811.843	172.03
812.022	155.65
812.201	126.97
812.38	143.36
812.559	165.89
812.737	167.93
812.916	86.01
813.095	116.73
813.274	77.82
813.453	129.02
813.632	176.13
813.811	120.83
813.989	57.34
814.168	147.45
814.347	106.49
814.526	172.03
814.704	176.13
814.883	167.93
815.062	129.02
815.24	149.5
815.419	141.31
815.598	147.45
815.776	79.87
815.955	147.45
816.133	63.49
816.312	206.84
816.49	112.64
816.669	167.93
816.847	233.47
817.026	135.17
817.204	114.69
817.383	120.83
817.561	92.16
817.74	135.17
817.918	163.84
818.097	47.1
818.275	92.16
818.453	149.5
818.632	135.17
818.81	135.17
818.988	40.96
819.167	172.03
819.345	61.44
819.523	143.36
819.701	43.01
819.879	118.78
820.058	124.93
820.236	139.26
820.414	53.25
820.592	102.4
820.77	122.88
820.948	126.97
821.127	110.59
821.305	67.58
821.483	45.06
821.661	153.6
821.839	131.07
822.017	98.3
822.195	81.92
822.373	151.55
822.551	112.64
822.729	61.44
822.907	94.21
823.085	77.82
823.262	122.88
823.44	79.87
823.618	79.87
823.796	94.21
823.974	94.21
824.152	112.64
824.329	71.68
824.507	94.21
824.685	143.36
824.863	94.21
825.04	94.21
825.218	73.73
825.396	53.25
825.574	114.69
825.751	22.53
825.929	145.41
826.107	-2.05
826.284	65.54
826.462	102.4
826.639	34.82
826.817	69.63
826.994	22.53
827.172	61.44
827.349	102.4
827.527	36.86
827.704	73.73
827.882	161.79
828.059	114.69
828.237	77.82
828.414	65.54
828.591	12.29
828.769	96.25
828.946	16.38
829.124	57.34
829.301	153.6
829.478	63.49
829.655	71.68
829.833	61.44
830.01	12.29
830.187	186.37
830.364	77.82
830.542	75.77
830.719	110.59
830.896	79.87
831.073	96.25
831.25	47.1
831.427	49.15
831.604	53.25
831.782	28.67
831.959	63.49
832.136	49.15
832.313	32.77
832.49	65.54
832.667	81.92
832.844	126.97
833.021	102.4
833.198	43.01
833.374	129.02
833.551	36.86
833.728	12.29
833.905	118.78
834.082	-2.05
834.259	61.44
834.436	102.4
834.612	49.15
834.789	90.11
834.966	86.01
835.143	110.59
835.319	14.34
835.496	110.59
835.673	79.87
835.85	135.17
836.026	61.44
836.203	55.3
836.38	69.63
836.556	65.54
836.733	14.34
836.909	79.87
837.086	30.72
837.262	18.43
837.439	-10.24
837.616	51.2
837.792	8.19
837.968	16.38
838.145	-4.1
838.321	71.68
838.498	133.12
838.674	104.45
838.851	131.07
839.027	16.38
839.203	36.86
839.38	86.01
839.556	69.63
839.732	118.78
839.909	14.34
840.085	83.97
840.261	20.48
840.437	69.63
840.614	12.29
840.79	86.01
840.966	90.11
841.142	135.17
841.318	114.69
841.494	40.96
841.671	20.48
841.847	86.01
842.023	53.25
842.199	45.06
842.375	92.16
842.551	8.19
842.727	-20.48
842.903	36.86
843.079	53.25
843.255	55.3
843.431	110.59
843.607	53.25
843.783	-32.77
843.959	86.01
844.134	14.34
844.31	106.49
844.486	45.06
844.662	28.67
844.838	118.78
845.013	135.17
845.189	20.48
845.365	20.48
845.541	0
845.716	38.91
845.892	63.49
846.068	65.54
846.244	-28.67
846.419	88.06
846.595	-28.67
846.77	16.38
846.946	81.92
847.122	-18.43
847.297	63.49
847.473	38.91
847.648	-32.77
847.824	20.48
847.999	24.58
848.175	20.48
848.35	22.53
848.526	122.88
848.701	110.59
848.876	32.77
849.052	45.06
849.227	20.48
849.403	-18.43
849.578	53.25
849.753	38.91
849.929	63.49
850.104	-2.05
850.279	63.49
850.454	51.2
850.63	94.21
850.805	47.1
850.98	24.58
851.155	96.25
851.33	79.87
851.505	-26.62
851.681	55.3
851.856	40.96
852.031	71.68
852.206	45.06
852.381	18.43
852.556	-12.29
852.731	88.06
852.906	12.29
853.081	14.34
853.256	24.58
853.431	40.96
853.606	12.29
853.781	59.39
853.956	61.44
854.131	69.63
854.305	79.87
854.48	53.25
854.655	38.91
854.83	69.63
855.005	86.01
855.18	-8.19
855.354	-53.25
855.529	77.82
855.704	-26.62
855.879	28.67
856.053	12.29
856.228	-4.1
856.403	0
856.577	135.17
856.752	18.43
856.926	47.1
857.101	28.67
857.276	-24.58
857.45	47.1
857.625	120.83
857.799	16.38
857.974	8.19
858.148	28.67
858.323	57.34
858.497	43.01
858.672	30.72
858.846	-8.19
859.02	26.62
859.195	-12.29
859.369	75.77
859.543	73.73
859.718	36.86
859.892	-18.43
860.066	8.19
860.241	-81.92
860.415	36.86
860.589	-4.1
860.763	36.86
860.938	65.54
861.112	59.39
861.286	36.86
861.46	24.58
861.634	-4.1
861.808	116.73
861.982	-57.34
862.157	2.05
862.331	-10.24
862.505	28.67
862.679	-16.38
862.853	30.72
863.027	40.96
863.201	106.49
863.375	10.24
863.549	20.48
863.722	45.06
863.896	65.54
864.07	36.86
864.244	10.24
864.418	133.12
864.592	106.49
864.766	8.19
864.939	28.67
865.113	47.1
865.287	65.54
865.461	-57.34
865.634	26.62
865.808	16.38
865.982	6.14
866.156	-16.38
866.329	-18.43
866.503	-20.48
866.676	61.44
866.85	14.34
867.024	81.92
867.197	47.1
867.371	53.25
867.544	53.25
867.718	-2.05
867.891	96.25
868.065	-86.01
868.238	-18.43
868.412	6.14
868.585	-4.1
868.759	4.1
868.932	-69.63
869.105	77.82
869.279	20.48
869.452	4.1
869.625	-14.34
869.799	10.24
869.972	14.34
870.145	-2.05
870.319	36.86
870.492	61.44
870.665	-12.29
870.838	38.91
871.011	-4.1
871.185	49.15
871.358	-69.63
871.531	51.2
871.704	14.34
871.877	12.29
872.05	-28.67
872.223	12.29
872.396	38.91
872.569	-4.1
872.742	-28.67
872.915	86.01
873.088	-32.77
873.261	-28.67
873.434	53.25
873.607	30.72
873.78	26.62
873.953	-18.43
874.126	77.82
874.299	-14.34
874.471	-114.69
874.644	-26.62
874.817	53.25
874.99	40.96
875.163	20.48
875.335	36.86
875.508	14.34
875.681	-53.25
875.853	-26.62
876.026	22.53
876.199	16.38
876.371	-12.29
876.544	-12.29
876.717	47.1
876.889	28.67
877.062	-2.05
877.234	4.1
877.407	-16.38
877.579	65.54
877.752	-4.1
877.924	-18.43
878.097	69.63
878.269	34.82
878.442	-20.48
878.614	30.72
878.786	45.06
878.959	12.29
879.131	-20.48
879.303	22.53
879.476	-57.34
879.648	32.77
879.82	4.1
879.993	22.53
880.165	38.91
880.337	-63.49
880.509	30.72
880.681	-18.43
880.854	-12.29
881.026	30.72
881.198	69.63
881.37	-40.96
881.542	-81.92
881.714	-2.05
881.886	63.49
882.058	51.2
882.23	-20.48
882.402	32.77
882.574	14.34
882.746	-10.24
882.918	-4.1
883.09	14.34
883.262	69.63
883.434	-20.48
883.606	-28.67
883.778	-43.01
883.95	-26.62
884.122	-49.15
884.293	57.34
884.465	20.48
884.637	65.54
884.809	-22.53
884.98	47.1
885.152	32.77
885.324	36.86
885.496	-59.39
885.667	-30.72
885.839	-55.3
886.011	-20.48
886.182	53.25
886.354	81.92
886.525	57.34
886.697	69.63
886.869	-55.3
887.04	22.53
887.212	32.77
887.383	22.53
887.555	32.77
887.726	4.1
887.897	16.38
888.069	-32.77
888.24	47.1
888.412	-4.1
888.583	-16.38
888.754	65.54
888.926	22.53
889.097	28.67
889.268	-30.72
889.44	-49.15
889.611	10.24
889.782	-12.29
889.953	-24.58
890.125	92.16
890.296	-43.01
890.467	86.01
890.638	28.67
890.809	28.67
890.98	6.14
891.151	135.17
891.323	-22.53
891.494	-4.1
891.665	-20.48
891.836	-14.34
892.007	-16.38
892.178	81.92
892.349	6.14
892.52	-28.67
892.691	8.19
892.862	-36.86
893.032	-4.1
893.203	-28.67
893.374	-28.67
893.545	45.06
893.716	40.96
893.887	102.4
894.057	32.77
894.228	-32.77
894.399	16.38
894.57	4.1
894.74	-26.62
894.911	-26.62
895.082	-2.05
895.253	-77.82
895.423	-14.34
895.594	0
895.764	-12.29
895.935	4.1
896.106	14.34
896.276	16.38
896.447	22.53
896.617	16.38
896.788	-26.62
896.958	14.34
897.129	-40.96
897.299	-12.29
897.47	-24.58
897.64	77.82
897.81	-24.58
897.981	24.58
898.151	-45.06
898.322	45.06
898.492	30.72
898.662	-20.48
898.832	4.1
899.003	20.48
899.173	-20.48
899.343	8.19
899.513	-98.3
