Data from USB4F104151__125__14-44-00-569.txt Node

Date: Thu Mar 13 14:44:00 EDT 2025
User: louis
Spectrometer: USB4F10415
Trigger mode: 4
Integration Time (sec): 2.000000E-2
Scans to average: 1
Electric dark correction enabled: true
Nonlinearity correction enabled: false
Boxcar width: 0
XAxis mode: Wavelengths
Number of Pixels in Spectrum: 3648
>>>>>Begin Spectral Data<<<<<
178.204	-96.43
178.424	-96.43
178.644	-96.43
178.864	-84.14
179.084	-92.33
179.304	-34.99
179.524	48.98
179.744	38.74
179.964	1.88
180.184	-43.18
180.404	5.97
180.624	-2.22
180.844	-41.13
181.064	-0.17
181.283	18.26
181.503	-14.51
181.723	22.36
181.943	-67.75
182.163	137.04
182.383	-39.08
182.602	30.55
182.822	51.03
183.042	16.21
183.262	-32.94
183.482	46.93
183.701	1.88
183.921	36.69
184.141	10.07
184.361	38.74
184.58	63.32
184.8	32.6
185.02	-16.55
185.239	30.55
185.459	-10.41
185.679	8.02
185.898	40.79
186.118	149.33
186.338	77.65
186.557	110.42
186.777	32.6
186.997	5.97
187.216	75.6
187.436	87.89
187.655	69.46
187.875	-12.46
188.095	32.6
188.314	-6.31
188.534	51.03
188.753	-4.27
188.973	65.36
189.192	104.28
189.412	55.12
189.631	30.55
189.851	79.7
190.07	55.12
190.29	14.17
190.509	96.08
190.729	-59.56
190.948	26.45
191.168	69.46
191.387	14.17
191.607	53.08
191.826	63.32
192.045	14.17
192.265	100.18
192.484	53.08
192.704	98.13
192.923	-24.75
193.142	116.56
193.362	46.93
193.581	71.51
193.8	42.84
194.02	135
194.239	59.22
194.458	12.12
194.678	10.07
194.897	51.03
195.116	63.32
195.335	12.12
195.555	38.74
195.774	22.36
195.993	24.4
196.212	57.17
196.432	-73.9
196.651	67.41
196.87	55.12
197.089	161.62
197.308	55.12
197.528	40.79
197.747	26.45
197.966	-0.17
198.185	151.38
198.404	46.93
198.623	20.31
198.842	87.89
199.062	32.6
199.281	18.26
199.5	42.84
199.719	32.6
199.938	81.75
200.157	5.97
200.376	34.64
200.595	65.36
200.814	38.74
201.033	-43.18
201.252	79.7
201.471	-14.51
201.69	96.08
201.909	57.17
202.128	63.32
202.347	87.89
202.566	32.6
202.785	22.36
203.004	22.36
203.223	108.37
203.442	79.7
203.661	100.18
203.879	16.21
204.098	71.51
204.317	-2.22
204.536	83.8
204.755	10.07
204.974	71.51
205.193	1.88
205.411	38.74
205.63	30.55
205.849	-51.37
206.068	83.8
206.287	77.65
206.505	36.69
206.724	32.6
206.943	14.17
207.162	48.98
207.381	48.98
207.599	-84.14
207.818	63.32
208.037	1.88
208.255	-34.99
208.474	40.79
208.693	63.32
208.911	10.07
209.13	28.5
209.349	3.93
209.567	46.93
209.786	57.17
210.005	30.55
210.223	-49.32
210.442	8.02
210.661	91.99
210.879	61.27
211.098	-10.41
211.316	30.55
211.535	65.36
211.753	14.17
211.972	40.79
212.191	22.36
212.409	83.8
212.628	40.79
212.846	79.7
213.065	157.52
213.283	87.89
213.502	32.6
213.72	14.17
213.938	36.69
214.157	-37.03
214.375	100.18
214.594	-24.75
214.812	106.32
215.031	36.69
215.249	141.14
215.467	63.32
215.686	-22.7
215.904	63.32
216.122	32.6
216.341	30.55
216.559	22.36
216.778	114.52
216.996	1.88
217.214	22.36
217.432	65.36
217.651	46.93
217.869	67.41
218.087	-2.22
218.306	32.6
218.524	-10.41
218.742	18.26
218.96	22.36
219.179	28.5
219.397	63.32
219.615	155.47
219.833	40.79
220.051	59.22
220.27	63.32
220.488	63.32
220.706	46.93
220.924	28.5
221.142	26.45
221.36	77.65
221.578	75.6
221.796	59.22
222.015	46.93
222.233	5.97
222.451	69.46
222.669	100.18
222.887	63.32
223.105	89.94
223.323	73.56
223.541	-6.31
223.759	5.97
223.977	34.64
224.195	71.51
224.413	30.55
224.631	120.66
224.849	51.03
225.067	96.08
225.285	-43.18
225.503	87.89
225.721	-34.99
225.939	28.5
226.157	128.85
226.375	57.17
226.592	-47.27
226.81	-10.41
227.028	106.32
227.246	59.22
227.464	-12.46
227.682	114.52
227.9	30.55
228.117	89.94
228.335	59.22
228.553	104.28
228.771	8.02
228.989	5.97
229.206	55.12
229.424	16.21
229.642	98.13
229.86	46.93
230.077	91.99
230.295	73.56
230.513	30.55
230.731	-49.32
230.948	65.36
231.166	91.99
231.384	38.74
231.601	63.32
231.819	16.21
232.037	8.02
232.254	-51.37
232.472	30.55
232.689	-26.79
232.907	30.55
233.125	-26.79
233.342	-22.7
233.56	30.55
233.777	-8.36
233.995	46.93
234.213	87.89
234.43	63.32
234.648	51.03
234.865	46.93
235.083	63.32
235.3	32.6
235.518	96.08
235.735	16.21
235.953	124.76
236.17	-16.55
236.388	46.93
236.605	51.03
236.822	51.03
237.04	40.79
237.257	59.22
237.475	71.51
237.692	63.32
237.909	51.03
238.127	120.66
238.344	-26.79
238.562	55.12
238.779	1.88
238.996	-18.6
239.214	55.12
239.431	112.47
239.648	-10.41
239.865	24.4
240.083	46.93
240.3	22.36
240.517	22.36
240.735	38.74
240.952	-51.37
241.169	42.84
241.386	65.36
241.603	83.8
241.821	10.07
242.038	75.6
242.255	-2.22
242.472	87.89
242.689	30.55
242.907	46.93
243.124	55.12
243.341	104.28
243.558	63.32
243.775	38.74
243.992	53.08
244.209	-47.27
244.426	114.52
244.643	73.56
244.86	104.28
245.078	71.51
245.295	69.46
245.512	71.51
245.729	18.26
245.946	87.89
246.163	12.12
246.38	42.84
246.597	48.98
246.814	61.27
247.031	32.6
247.248	32.6
247.464	141.14
247.681	48.98
247.898	143.19
248.115	59.22
248.332	-55.47
248.549	59.22
248.766	55.12
248.983	40.79
249.2	89.94
249.417	22.36
249.633	79.7
249.85	46.93
250.067	-10.41
250.284	14.17
250.501	5.97
250.717	65.36
250.934	67.41
251.151	28.5
251.368	-2.22
251.585	48.98
251.801	63.32
252.018	65.36
252.235	40.79
252.451	16.21
252.668	71.51
252.885	145.24
253.102	38.74
253.318	120.66
253.535	46.93
253.752	1.88
253.968	-16.55
254.185	14.17
254.401	55.12
254.618	48.98
254.835	51.03
255.051	87.89
255.268	71.51
255.484	55.12
255.701	120.66
255.917	65.36
256.134	8.02
256.351	-10.41
256.567	-39.08
256.784	38.74
257	10.07
257.217	65.36
257.433	104.28
257.65	100.18
257.866	48.98
258.082	61.27
258.299	-18.6
258.515	8.02
258.732	14.17
258.948	83.8
259.165	63.32
259.381	18.26
259.597	75.6
259.814	100.18
260.03	16.21
260.246	30.55
260.463	32.6
260.679	63.32
260.895	8.02
261.112	71.51
261.328	44.88
261.544	-4.27
261.761	73.56
261.977	24.4
262.193	59.22
262.409	89.94
262.626	63.32
262.842	5.97
263.058	-6.31
263.274	67.41
263.49	-2.22
263.707	63.32
263.923	38.74
264.139	46.93
264.355	-4.27
264.571	71.51
264.787	71.51
265.004	57.17
265.22	42.84
265.436	22.36
265.652	57.17
265.868	48.98
266.084	46.93
266.3	22.36
266.516	24.4
266.732	16.21
266.948	5.97
267.164	63.32
267.38	73.56
267.596	38.74
267.812	67.41
268.028	59.22
268.244	-4.27
268.46	132.95
268.676	22.36
268.892	79.7
269.108	40.79
269.324	65.36
269.54	79.7
269.756	38.74
269.972	-34.99
270.188	51.03
270.403	18.26
270.619	55.12
270.835	22.36
271.051	-26.79
271.267	59.22
271.483	10.07
271.698	85.84
271.914	28.5
272.13	30.55
272.346	51.03
272.562	-57.51
272.777	114.52
272.993	73.56
273.209	38.74
273.425	71.51
273.64	124.76
273.856	30.55
274.072	14.17
274.287	14.17
274.503	-14.51
274.719	55.12
274.934	12.12
275.15	38.74
275.366	89.94
275.581	30.55
275.797	-2.22
276.012	10.07
276.228	34.64
276.444	63.32
276.659	124.76
276.875	16.21
277.09	71.51
277.306	16.21
277.521	79.7
277.737	-28.84
277.952	83.8
278.168	59.22
278.383	48.98
278.599	22.36
278.814	24.4
279.03	51.03
279.245	26.45
279.461	40.79
279.676	63.32
279.892	26.45
280.107	42.84
280.322	57.17
280.538	42.84
280.753	-100.52
280.969	22.36
281.184	1.88
281.399	104.28
281.615	-10.41
281.83	-24.75
282.045	-8.36
282.26	46.93
282.476	-43.18
282.691	106.32
282.906	38.74
283.122	22.36
283.337	-43.18
283.552	51.03
283.767	48.98
283.983	137.04
284.198	-16.55
284.413	122.71
284.628	10.07
284.843	96.08
285.058	67.41
285.274	79.7
285.489	-14.51
285.704	-0.17
285.919	51.03
286.134	63.32
286.349	-10.41
286.564	16.21
286.779	61.27
286.995	57.17
287.21	69.46
287.425	73.56
287.64	22.36
287.855	-2.22
288.07	46.93
288.285	32.6
288.5	106.32
288.715	32.6
288.93	8.02
289.145	-0.17
289.36	69.46
289.575	22.36
289.79	106.32
290.004	-26.79
290.219	155.47
290.434	112.47
290.649	30.55
290.864	79.7
291.079	-0.17
291.294	57.17
291.509	-2.22
291.724	1.88
291.938	38.74
292.153	8.02
292.368	28.5
292.583	55.12
292.798	96.08
293.012	14.17
293.227	106.32
293.442	65.36
293.657	67.41
293.871	-16.55
294.086	130.9
294.301	51.03
294.516	91.99
294.73	89.94
294.945	55.12
295.16	114.52
295.374	42.84
295.589	87.89
295.804	40.79
296.018	137.04
296.233	71.51
296.447	-16.55
296.662	3.93
296.877	104.28
297.091	104.28
297.306	75.6
297.52	28.5
297.735	16.21
297.949	73.56
298.164	63.32
298.378	51.03
298.593	42.84
298.807	38.74
299.022	42.84
299.236	38.74
299.451	34.64
299.665	30.55
299.88	34.64
300.094	79.7
300.309	8.02
300.523	51.03
300.737	-10.41
300.952	55.12
301.166	65.36
301.381	28.5
301.595	75.6
301.809	83.8
302.024	51.03
302.238	42.84
302.452	14.17
302.667	38.74
302.881	46.93
303.095	59.22
303.309	55.12
303.524	16.21
303.738	83.8
303.952	34.64
304.166	-2.22
304.381	-10.41
304.595	73.56
304.809	-39.08
305.023	96.08
305.237	122.71
305.452	44.88
305.666	94.04
305.88	85.84
306.094	55.12
306.308	91.99
306.522	102.23
306.736	16.21
306.95	30.55
307.164	-24.75
307.379	63.32
307.593	106.32
307.807	89.94
308.021	89.94
308.235	46.93
308.449	22.36
308.663	-12.46
308.877	91.99
309.091	67.41
309.305	55.12
309.519	71.51
309.733	36.69
309.947	5.97
310.161	91.99
310.374	40.79
310.588	73.56
310.802	-26.79
311.016	79.7
311.23	104.28
311.444	38.74
311.658	63.32
311.872	55.12
312.085	40.79
312.299	46.93
312.513	91.99
312.727	67.41
312.941	14.17
313.154	1.88
313.368	48.98
313.582	32.6
313.796	91.99
314.009	79.7
314.223	38.74
314.437	38.74
314.651	16.21
314.864	42.84
315.078	-6.31
315.292	-6.31
315.505	14.17
315.719	30.55
315.933	-6.31
316.146	114.52
316.36	83.8
316.573	10.07
316.787	96.08
317.001	5.97
317.214	-47.27
317.428	51.03
317.641	57.17
317.855	-22.7
318.068	14.17
318.282	42.84
318.495	51.03
318.709	79.7
318.922	32.6
319.136	108.37
319.349	-10.41
319.563	63.32
319.776	98.13
319.99	-0.17
320.203	104.28
320.417	81.75
320.63	75.6
320.843	40.79
321.057	120.66
321.27	48.98
321.483	59.22
321.697	63.32
321.91	87.89
322.124	-0.17
322.337	79.7
322.55	79.7
322.763	71.51
322.977	-30.89
323.19	22.36
323.403	98.13
323.617	114.52
323.83	98.13
324.043	24.4
324.256	30.55
324.469	91.99
324.683	141.14
324.896	59.22
325.109	63.32
325.322	46.93
325.535	79.7
325.748	5.97
325.962	20.31
326.175	53.08
326.388	71.51
326.601	67.41
326.814	-32.94
327.027	-8.36
327.24	28.5
327.453	-32.94
327.666	71.51
327.879	85.84
328.092	46.93
328.305	26.45
328.518	87.89
328.731	44.88
328.944	-26.79
329.157	128.85
329.37	81.75
329.583	38.74
329.796	61.27
330.009	55.12
330.222	42.84
330.435	85.84
330.648	128.85
330.861	14.17
331.073	42.84
331.286	63.32
331.499	108.37
331.712	46.93
331.925	87.89
332.138	-28.84
332.35	51.03
332.563	30.55
332.776	48.98
332.989	67.41
333.202	16.21
333.414	102.23
333.627	63.32
333.84	81.75
334.053	26.45
334.265	63.32
334.478	63.32
334.691	112.47
334.903	24.4
335.116	71.51
335.329	108.37
335.541	57.17
335.754	42.84
335.966	85.84
336.179	18.26
336.392	28.5
336.604	24.4
336.817	18.26
337.029	85.84
337.242	63.32
337.454	61.27
337.667	55.12
337.88	87.89
338.092	40.79
338.305	22.36
338.517	63.32
338.729	89.94
338.942	18.26
339.154	12.12
339.367	18.26
339.579	128.85
339.792	-14.51
340.004	139.09
340.217	10.07
340.429	46.93
340.641	77.65
340.854	-2.22
341.066	40.79
341.278	178
341.491	112.47
341.703	102.23
341.915	-26.79
342.128	26.45
342.34	55.12
342.552	32.6
342.764	18.26
342.977	10.07
343.189	104.28
343.401	57.17
343.613	28.5
343.826	120.66
344.038	-47.27
344.25	77.65
344.462	8.02
344.674	26.45
344.886	91.99
345.099	32.6
345.311	98.13
345.523	22.36
345.735	61.27
345.947	-28.84
346.159	16.21
346.371	63.32
346.583	-61.61
346.795	221.01
347.007	22.36
347.219	63.32
347.431	-6.31
347.643	65.36
347.855	57.17
348.067	112.47
348.279	67.41
348.491	32.6
348.703	36.69
348.915	36.69
349.127	42.84
349.339	83.8
349.551	71.51
349.763	61.27
349.975	48.98
350.187	16.21
350.399	75.6
350.61	130.9
350.822	75.6
351.034	5.97
351.246	14.17
351.458	16.21
351.669	22.36
351.881	38.74
352.093	67.41
352.305	55.12
352.517	-22.7
352.728	104.28
352.94	36.69
353.152	79.7
353.363	79.7
353.575	5.97
353.787	48.98
353.999	14.17
354.21	79.7
354.422	-63.66
354.633	55.12
354.845	96.08
355.057	67.41
355.268	48.98
355.48	53.08
355.692	32.6
355.903	79.7
356.115	5.97
356.326	16.21
356.538	69.46
356.749	40.79
356.961	147.28
357.172	51.03
357.384	73.56
357.595	104.28
357.807	34.64
358.018	12.12
358.23	73.56
358.441	96.08
358.653	16.21
358.864	32.6
359.075	22.36
359.287	79.7
359.498	30.55
359.709	106.32
359.921	69.46
360.132	38.74
360.344	30.55
360.555	85.84
360.766	44.88
360.977	-24.75
361.189	79.7
361.4	151.38
361.611	65.36
361.823	104.28
362.034	40.79
362.245	-2.22
362.456	75.6
362.667	114.52
362.879	55.12
363.09	26.45
363.301	-0.17
363.512	94.04
363.723	87.89
363.935	126.8
364.146	104.28
364.357	75.6
364.568	-2.22
364.779	14.17
364.99	100.18
365.201	16.21
365.412	128.85
365.623	114.52
365.834	57.17
366.045	-20.65
366.256	89.94
366.467	-0.17
366.678	48.98
366.889	22.36
367.1	122.71
367.311	57.17
367.522	79.7
367.733	161.62
367.944	30.55
368.155	30.55
368.366	83.8
368.577	139.09
368.788	53.08
368.999	48.98
369.209	71.51
369.42	67.41
369.631	147.28
369.842	79.7
370.053	38.74
370.264	81.75
370.474	14.17
370.685	28.5
370.896	69.46
371.107	36.69
371.317	79.7
371.528	22.36
371.739	22.36
371.95	89.94
372.16	141.14
372.371	48.98
372.582	65.36
372.792	79.7
373.003	-6.31
373.214	108.37
373.424	71.51
373.635	14.17
373.846	118.61
374.056	34.64
374.267	69.46
374.477	81.75
374.688	26.45
374.898	71.51
375.109	46.93
375.319	94.04
375.53	108.37
375.74	-2.22
375.951	1.88
376.161	79.7
376.372	40.79
376.582	137.04
376.793	30.55
377.003	63.32
377.214	114.52
377.424	34.64
377.635	139.09
377.845	5.97
378.055	89.94
378.266	-8.36
378.476	63.32
378.686	106.32
378.897	81.75
379.107	83.8
379.317	149.33
379.528	38.74
379.738	141.14
379.948	-2.22
380.158	89.94
380.369	81.75
380.579	96.08
380.789	106.32
380.999	24.4
381.21	85.84
381.42	63.32
381.63	-10.41
381.84	34.64
382.05	96.08
382.261	71.51
382.471	32.6
382.681	16.21
382.891	120.66
383.101	46.93
383.311	51.03
383.521	28.5
383.731	147.28
383.941	40.79
384.151	96.08
384.361	42.84
384.571	46.93
384.781	71.51
384.991	122.71
385.201	141.14
385.411	157.52
385.621	94.04
385.831	89.94
386.041	63.32
386.251	79.7
386.461	81.75
386.671	67.41
386.881	46.93
387.091	38.74
387.301	71.51
387.511	71.51
387.72	104.28
387.93	81.75
388.14	65.36
388.35	30.55
388.56	132.95
388.769	96.08
388.979	106.32
389.189	89.94
389.399	106.32
389.609	65.36
389.818	96.08
390.028	104.28
390.238	169.81
390.447	75.6
390.657	81.75
390.867	100.18
391.076	42.84
391.286	130.9
391.496	128.85
391.705	28.5
391.915	118.61
392.125	83.8
392.334	102.23
392.544	67.41
392.753	8.02
392.963	89.94
393.172	65.36
393.382	57.17
393.591	65.36
393.801	104.28
394.01	198.48
394.22	79.7
394.429	59.22
394.639	79.7
394.848	87.89
395.058	48.98
395.267	147.28
395.477	87.89
395.686	98.13
395.895	153.43
396.105	180.05
396.314	83.8
396.524	114.52
396.733	112.47
396.942	184.15
397.152	108.37
397.361	98.13
397.57	67.41
397.78	151.38
397.989	22.36
398.198	235.35
398.407	22.36
398.617	132.95
398.826	118.61
399.035	128.85
399.244	73.56
399.453	143.19
399.663	143.19
399.872	149.33
400.081	120.66
400.29	65.36
400.499	100.18
400.708	149.33
400.917	130.9
401.127	202.58
401.336	149.33
401.545	161.62
401.754	132.95
401.963	186.19
402.172	128.85
402.381	69.46
402.59	180.05
402.799	110.42
403.008	167.76
403.217	114.52
403.426	149.33
403.635	65.36
403.844	128.85
404.053	212.82
404.262	178
404.471	194.39
404.68	130.9
404.888	210.77
405.097	180.05
405.306	182.1
405.515	163.67
405.724	173.91
405.933	161.62
406.142	188.24
406.35	210.77
406.559	130.9
406.768	202.58
406.977	200.53
407.185	194.39
407.394	247.63
407.603	165.71
407.812	196.43
408.02	251.73
408.229	296.78
408.438	214.87
408.646	264.02
408.855	241.49
409.064	231.25
409.272	247.63
409.481	304.98
409.69	294.74
409.898	313.17
410.107	372.56
410.315	311.12
410.524	403.28
410.733	354.13
410.941	376.66
411.15	384.85
411.358	393.04
411.567	517.97
411.775	413.52
411.984	419.66
412.192	429.9
412.401	511.82
412.609	532.3
412.818	550.73
413.026	513.87
413.234	497.49
413.443	489.29
413.651	542.54
413.86	606.03
414.068	659.28
414.276	655.18
414.485	636.75
414.693	716.62
414.901	704.33
415.11	704.33
415.318	739.15
415.526	845.64
415.734	753.48
415.943	796.49
416.151	784.2
416.359	816.97
416.567	884.55
416.776	902.98
416.984	1011.53
417.192	993.09
417.4	960.33
417.608	986.95
417.817	1095.49
418.025	1083.2
418.233	1236.8
418.441	1167.17
418.649	1242.95
418.857	1277.76
419.065	1294.15
419.273	1314.63
419.481	1335.1
419.689	1435.46
419.897	1529.66
420.105	1572.67
420.313	1595.2
420.521	1681.21
420.729	1644.35
420.937	1679.16
421.145	1783.61
421.353	1845.05
421.561	1988.41
421.769	1898.3
421.977	2119.48
422.185	1902.39
422.393	2168.63
422.601	2432.82
422.809	2256.69
423.017	2496.3
423.224	2375.47
423.432	2506.54
423.64	2535.21
423.848	2692.91
424.056	2641.71
424.263	2842.41
424.471	2957.1
424.679	2955.05
424.887	3053.35
425.094	3225.38
425.302	3143.46
425.51	3417.89
425.718	3438.37
425.925	3479.33
426.133	3497.76
426.341	3774.24
426.548	3995.42
426.756	3847.96
426.964	4036.38
427.171	4142.87
427.379	4380.43
427.586	4308.76
427.794	4302.61
428.001	4712.21
428.209	4917
428.417	4785.93
428.624	5207.81
428.832	5177.09
429.039	5119.75
429.247	5037.83
429.454	5594.88
429.662	5996.28
429.869	5515.01
430.076	5992.19
430.284	5822.2
430.491	6100.73
430.699	6420.21
430.906	6317.81
431.114	6493.94
431.321	6731.5
431.528	6895.34
431.736	7349.99
431.943	7790.3
432.15	7313.13
432.358	7495.39
432.565	8025.82
432.772	7890.65
432.979	8427.22
433.187	8187.61
433.394	8431.32
433.601	9041.61
433.808	9184.97
434.016	8795.86
434.223	9492.16
434.43	10131.13
434.637	9850.56
434.844	10254.01
435.052	10546.87
435.259	10315.45
435.466	10616.5
435.673	10507.96
435.88	11187.88
436.087	11714.21
436.294	11513.51
436.501	11513.51
436.708	11630.24
436.915	12072.61
437.122	12525.21
437.329	12631.7
437.537	12891.79
437.743	13184.65
437.95	13112.97
438.157	13694.6
438.364	14251.64
438.571	14235.26
438.778	14210.68
438.985	15441.51
439.192	14818.93
439.399	15494.76
439.606	15148.65
439.813	15875.68
440.02	16930.39
440.227	16610.9
440.433	16381.53
440.64	17106.51
440.847	16942.67
441.054	17477.19
441.261	18611.77
441.467	17997.38
441.674	18400.83
441.881	19162.67
442.088	19197.49
442.294	18791.99
442.501	19502.64
442.708	19858.98
442.914	20573.72
443.121	21429.77
443.328	21011.99
443.534	22359.55
443.741	21601.8
443.948	21470.73
444.154	22988.28
444.361	22697.47
444.568	22988.28
444.774	23057.91
444.981	23129.59
445.187	23799.27
445.394	24776.16
445.6	24737.24
445.807	26686.91
446.013	25798.09
446.22	26088.9
446.426	27014.59
446.633	27594.16
446.839	28620.19
447.046	27174.33
447.252	28630.43
447.459	28771.74
447.665	28669.34
447.871	30102.92
448.078	31466.87
448.284	29891.98
448.491	30737.79
448.697	31868.27
448.903	32464.23
449.11	32400.74
449.316	31812.98
449.522	32435.56
449.728	33408.34
449.935	33391.96
450.141	33619.28
450.347	34381.13
450.553	33217.88
450.76	33686.87
450.966	34850.11
451.172	34598.21
451.378	35339.58
451.584	34551.11
451.791	35495.22
451.997	35372.35
452.203	35890.48
452.409	36082.99
452.615	36095.28
452.821	34399.56
453.027	34295.11
453.233	36085.04
453.44	35214.65
453.646	34815.3
453.852	35030.33
454.058	35706.16
454.264	34645.32
454.47	35583.29
454.676	34448.71
454.882	35882.29
455.088	32863.58
455.294	33168.73
455.5	33740.11
455.705	34225.48
455.911	32752.99
456.117	32163.18
456.323	31649.14
456.529	30119.31
456.735	31485.3
456.941	30762.37
457.147	30432.64
457.352	29549.97
457.558	29105.56
457.764	29253.01
457.97	28839.33
458.176	27981.23
458.381	27841.96
458.587	26756.54
458.793	26555.84
458.999	25046.49
459.204	27362.74
459.41	26383.81
459.616	24684
459.821	24466.91
460.027	24243.68
460.233	23903.72
460.438	23088.63
460.644	23279.09
460.85	22081.03
461.055	21790.22
461.261	21665.29
461.466	20119.07
461.672	19299.89
461.878	20968.98
462.083	19850.79
462.289	19297.84
462.494	18970.16
462.7	18153.02
462.905	17577.55
463.111	18435.64
463.316	18126.4
463.522	17976.9
463.727	17917.51
463.932	17944.13
464.138	17798.73
464.343	17868.36
464.549	17176.14
464.754	17858.12
464.959	17800.77
465.165	17440.33
465.37	16557.66
465.575	16307.8
465.781	17020.5
465.986	17067.6
466.191	16377.44
466.397	16047.71
466.602	15554.15
466.807	15644.26
467.012	15758.95
467.218	15885.92
467.423	15414.89
467.628	16002.66
467.833	16295.52
468.038	16006.75
468.244	15414.89
468.449	16041.57
468.654	15371.88
468.859	15378.03
469.064	15300.2
469.269	14569.08
469.474	14945.91
469.679	15062.64
469.885	14585.46
470.09	14988.91
470.295	14700.15
470.5	14278.27
470.705	14481.02
470.91	14376.57
471.115	13926.02
471.32	14251.64
471.525	14194.3
471.73	13784.71
471.935	13805.19
472.139	13223.56
472.344	13338.25
472.549	13465.22
472.754	13278.86
472.959	12996.24
473.164	12744.34
473.369	12543.64
473.574	13219.47
473.778	12744.34
473.983	12699.28
474.188	12721.81
474.393	12162.72
474.598	12418.71
474.802	11927.2
475.007	11912.86
475.212	12027.55
475.417	11525.8
475.621	11605.67
475.826	11744.93
476.031	11548.33
476.235	11349.67
476.44	11458.21
476.645	10895.02
476.849	11271.85
477.054	10913.45
477.259	10749.62
477.463	10716.85
477.668	10583.73
477.872	10753.71
478.077	10417.85
478.282	10192.57
478.486	10342.07
478.691	10063.55
478.895	10245.82
479.1	10090.17
479.304	10174.14
479.509	9535.17
479.713	9871.04
479.918	9598.66
480.122	9449.16
480.326	9758.4
480.531	9709.25
480.735	9395.91
480.94	9475.78
481.144	9823.94
481.348	9363.14
481.553	9432.77
481.757	9213.64
481.961	9320.14
482.166	9502.4
482.37	9434.82
482.574	9270.98
482.778	9369.29
482.983	9514.69
483.187	9393.86
483.391	9404.1
483.595	9215.69
483.8	9068.23
484.004	9166.54
484.208	9074.38
484.412	9162.44
484.616	9283.27
484.821	9164.49
485.025	9051.85
485.229	9258.7
485.433	9223.88
485.637	9217.74
485.841	9189.07
486.045	9101
486.249	9076.43
486.453	9266.89
486.657	9328.33
486.861	9078.47
487.065	8959.69
487.269	9176.78
487.473	8967.88
487.677	9307.85
487.881	9340.61
488.085	9131.72
488.289	9326.28
488.493	9230.02
488.697	9289.42
488.901	9311.94
489.105	9191.11
489.309	9447.11
489.512	9553.6
489.716	9248.46
489.92	9313.99
490.124	9449.16
490.328	9508.55
490.531	9455.3
490.735	9578.18
490.939	9617.09
491.143	9596.61
491.346	9606.85
491.55	9660.1
491.754	9569.99
491.958	9699.01
492.161	9645.76
492.365	9711.3
492.569	9729.73
492.772	9864.89
492.976	9807.55
493.18	9799.36
493.383	10131.13
493.587	10043.07
493.79	10131.13
493.994	10051.26
494.197	9983.68
494.401	10409.65
494.605	10247.86
494.808	10538.68
495.012	10233.53
495.215	10467
495.419	10690.23
495.622	10301.11
495.825	10768.05
496.029	10530.48
496.232	10817.2
496.436	10778.29
496.639	10987.18
496.843	11249.32
497.046	11286.19
497.249	11343.53
497.453	11337.38
497.656	11751.07
497.859	11507.37
498.063	11638.44
498.266	11851.42
498.469	11978.4
498.673	12072.61
498.876	12080.8
499.079	12336.79
499.282	12252.83
499.485	12590.74
499.689	12721.81
499.892	12625.56
500.095	12994.19
500.298	13162.12
500.501	13133.45
500.705	13348.49
500.908	13629.06
501.111	13645.45
501.314	13563.53
501.517	13870.72
501.72	14063.23
501.923	14057.09
502.126	14450.3
502.329	14540.41
502.532	14386.81
502.735	14843.51
502.938	15150.7
503.141	14999.15
503.344	15126.13
503.547	15371.88
503.75	15613.54
503.953	15883.87
504.156	15857.25
504.359	15988.32
504.562	16094.82
504.765	16555.61
504.968	16598.62
505.17	16811.6
505.373	16584.28
505.576	17311.31
505.779	17120.85
505.982	17450.57
506.185	17794.63
506.387	17888.84
506.59	17925.7
506.793	18183.74
506.996	18077.25
507.198	18728.5
507.401	18202.18
507.604	18912.82
507.807	19144.24
508.009	19291.69
508.212	19498.54
508.415	19760.68
508.617	20035.11
508.82	19858.98
509.022	19805.74
509.225	20483.61
509.428	20643.35
509.63	20411.93
509.833	20790.81
510.035	21376.53
510.238	21399.05
510.44	21419.53
510.643	21861.9
510.845	22281.73
511.048	21861.9
511.25	22343.17
511.453	22377.98
511.655	23016.95
511.858	22855.16
512.06	23250.42
512.262	23641.58
512.465	23186.93
512.667	23342.58
512.87	23782.89
513.072	24169.96
513.274	24378.85
513.477	24640.99
513.679	25091.54
513.881	25216.47
514.084	25392.59
514.286	25306.58
514.488	25531.86
514.69	26258.88
514.893	26367.43
515.095	26367.43
515.297	26699.2
515.499	26621.38
515.701	27137.46
515.904	27166.13
516.106	27555.25
516.308	27811.24
516.51	27989.42
516.712	27825.58
516.914	28581.28
517.116	28966.3
517.318	29068.7
517.52	29160.86
517.722	29154.71
517.925	29420.95
518.127	30014.86
518.329	30143.88
518.531	29633.94
518.733	30782.85
518.935	30885.25
519.136	30535.04
519.338	31589.75
519.54	31247.74
519.742	31436.15
519.944	31681.91
520.146	32554.34
520.348	32595.3
520.55	32544.1
520.752	32599.4
520.954	33211.74
521.155	32689.51
521.357	33695.06
521.559	33940.82
521.761	34465.1
521.963	34583.88
522.164	34248.01
522.366	34475.34
522.568	34835.78
522.77	34882.88
522.971	35495.22
523.173	35196.22
523.375	36009.26
523.576	35722.55
523.778	35870
523.98	35810.61
524.181	36517.16
524.383	36285.74
524.584	36777.25
524.786	36701.48
524.988	36855.07
525.189	37195.04
525.391	37313.82
525.592	37440.79
525.794	37696.79
525.995	37877.01
526.197	37911.83
526.398	37596.44
526.6	37946.64
526.801	38167.82
527.003	38589.7
527.204	38305.04
527.406	38640.9
527.607	38700.29
527.808	38671.62
528.01	38423.82
528.211	39058.69
528.412	39728.38
528.614	39212.29
528.815	39494.91
529.016	39861.49
529.218	39243.01
529.419	39748.85
529.62	39425.28
529.822	39628.02
530.023	39587.07
530.224	39445.76
530.425	39767.29
530.626	39480.57
530.828	39732.47
531.029	40185.07
531.23	39431.42
531.431	40045.81
531.632	40084.72
531.833	39789.81
532.035	40049.91
532.236	40068.34
532.437	40281.33
532.638	40291.57
532.839	40459.5
533.04	40187.12
533.241	40348.91
533.442	40908.01
533.643	40662.25
533.844	40436.97
534.045	40275.18
534.246	40244.46
534.447	40389.87
534.648	40201.46
534.849	40504.56
535.05	40178.93
535.251	40506.6
535.451	40606.95
535.652	40561.9
535.853	40422.64
536.054	40664.3
536.255	40602.86
536.456	40256.75
536.657	41174.24
536.857	40277.23
537.058	40176.88
537.259	40578.28
537.46	40322.29
537.66	40232.18
537.861	40393.96
538.062	40463.6
538.263	40862.95
538.463	39869.68
538.664	40529.13
538.865	40334.57
539.065	40910.05
539.266	40234.22
539.466	40606.95
539.667	40000.75
539.868	40496.36
540.068	40056.05
540.269	40275.18
540.469	40488.17
540.67	40350.96
540.87	40209.65
541.071	40221.94
541.271	40385.77
541.472	40008.95
541.672	40152.3
541.873	40015.09
542.073	39443.71
542.274	40488.17
542.474	40025.33
542.675	39677.18
542.875	40443.12
543.075	40611.05
543.276	39492.86
543.476	40281.33
543.676	40117.49
543.877	40271.09
544.077	39845.11
544.277	40135.92
544.478	39826.68
544.678	40430.83
544.878	39798.01
545.078	40187.12
545.279	40023.28
545.479	39953.65
545.679	39961.84
545.879	40121.59
546.079	39517.43
546.28	39896.31
546.48	39349.5
546.68	39961.84
546.88	39849.21
547.08	39804.15
547.28	39609.59
547.48	39484.67
547.68	40000.75
547.88	39449.85
548.081	39974.13
548.281	39699.7
548.481	39595.26
548.681	40158.45
548.881	39683.32
549.081	39062.79
549.28	39865.59
549.48	39922.93
549.68	39482.62
549.88	40135.92
550.08	39550.2
550.28	39892.21
550.48	39261.44
550.68	39720.18
550.88	39306.49
551.08	39173.38
551.279	39447.8
551.479	39402.75
551.679	39415.04
551.879	39482.62
552.079	39675.13
552.278	39451.9
552.478	39527.67
552.678	39447.8
552.878	39449.85
553.077	39646.46
553.277	38886.66
553.477	39677.18
553.676	39320.83
553.876	39845.11
554.076	39206.14
554.275	38753.54
554.475	38853.89
554.674	38946.05
554.874	39556.35
555.074	39138.56
555.273	38919.43
555.473	39120.13
555.672	38720.77
555.872	39384.32
556.071	38796.55
556.271	38980.87
556.47	38829.32
556.67	38499.59
556.869	38579.46
557.068	38892.8
557.268	38296.84
557.467	38456.59
557.667	38726.92
557.866	38780.17
558.065	38622.47
558.265	38366.48
558.464	38210.83
558.663	38962.43
558.863	38014.23
559.062	38505.74
559.261	38133.01
559.461	38583.56
559.66	38075.66
559.859	38434.06
560.058	37848.34
560.258	38233.36
560.457	38003.99
560.656	38118.67
560.855	37793.04
561.054	37907.73
561.253	37903.63
561.453	37840.15
561.652	37760.28
561.851	37588.25
562.05	37586.2
562.249	37471.51
562.448	37963.03
562.647	37594.39
562.846	37156.13
563.045	37436.7
563.244	36967.71
563.443	37422.36
563.642	36873.51
563.841	37049.63
564.04	36973.86
564.239	37528.86
564.438	36719.91
564.637	36818.21
564.836	37061.92
565.035	36588.84
565.234	36982.05
565.432	36586.79
565.631	36705.57
565.83	36812.07
566.029	36472.1
566.228	36343.08
566.427	36418.86
566.625	35976.5
566.824	36115.76
567.023	36365.61
567.222	35874.1
567.42	36017.46
567.619	35673.4
567.818	35857.71
568.016	35652.92
568.215	35972.4
568.414	35855.67
568.612	35861.81
568.811	35618.1
569.01	35851.57
569.208	35355.96
569.407	35765.56
569.605	35046.72
569.804	35419.45
570.002	35126.59
570.201	35427.64
570.4	35083.58
570.598	34753.86
570.797	34553.16
570.995	34596.17
571.193	34501.96
571.392	35007.81
571.59	34456.9
571.789	34430.28
571.987	34213.2
572.186	34356.55
572.384	34254.15
572.582	34043.21
572.781	34245.96
572.979	33774.93
573.177	34061.65
573.376	34069.84
573.574	33762.64
573.772	33883.47
573.971	33860.94
574.169	33756.5
574.367	33150.3
574.565	33733.97
574.763	33574.23
574.962	33033.57
575.16	32959.84
575.358	33406.3
575.556	32871.78
575.754	33324.38
575.952	32886.11
576.151	32963.93
576.349	32413.03
576.547	32771.43
576.745	32750.95
576.943	32488.81
577.141	32548.2
577.339	32527.72
577.537	32300.39
577.735	32406.89
577.933	31923.57
578.131	31982.96
578.329	31780.21
578.527	31716.72
578.725	31962.48
578.923	31976.81
579.121	31810.93
579.319	31550.84
579.516	31937.9
579.714	31647.09
579.912	31327.61
580.11	31427.96
580.308	31348.09
580.506	31395.19
580.704	30866.81
580.901	31077.76
581.099	31456.63
581.297	31067.52
581.495	30844.29
581.692	31049.08
581.89	30838.14
582.088	30801.28
582.285	30535.04
582.483	30725.5
582.681	30506.37
582.878	30817.66
583.076	30350.73
583.274	30504.32
583.471	29980.04
583.669	30717.31
583.866	29889.93
584.064	30303.62
584.262	29580.69
584.459	29988.24
584.657	29560.21
584.854	29803.92
585.052	29199.77
585.249	29744.53
585.447	29773.2
585.644	29416.85
585.841	29164.95
586.039	29570.45
586.236	28939.68
586.434	29144.47
586.631	28994.97
586.828	28648.86
587.026	28900.76
587.223	28732.83
587.42	28446.12
587.618	28906.91
587.815	28540.32
588.012	28624.29
588.21	28333.48
588.407	28700.06
588.604	28077.48
588.801	27805.1
588.999	27958.7
589.196	28032.43
589.393	28085.67
589.59	27919.79
589.787	27387.32
589.984	27659.7
590.182	27727.28
590.379	27786.67
590.576	27426.23
590.773	27432.37
590.97	27340.21
591.167	27508.15
591.364	27016.63
591.561	27159.99
591.758	26869.18
591.955	26901.95
592.152	26938.81
592.349	26813.88
592.546	26492.35
592.743	26873.28
592.94	26514.88
593.137	26506.69
593.334	26305.99
593.531	26203.59
593.727	26179.01
593.924	26375.62
594.121	26033.61
594.318	25959.88
594.515	25843.15
594.712	26086.86
594.908	26060.23
595.105	25888.2
595.302	25531.86
595.499	25929.16
595.696	25523.66
595.892	25322.96
596.089	25507.28
596.286	25267.67
596.482	25302.48
596.679	25458.13
596.876	25408.98
597.072	24972.76
597.269	24991.19
597.466	24819.16
597.662	24649.18
597.859	24821.21
598.055	24886.75
598.252	24651.23
598.448	24491.49
598.645	24514.02
598.841	24202.72
599.038	24450.53
599.234	24249.83
599.431	23809.51
599.627	23932.39
599.824	24135.14
600.02	24063.46
600.217	24190.44
600.413	23852.52
600.609	23772.65
600.806	23512.56
601.002	23991.78
601.198	23401.97
601.395	23475.7
601.591	23490.03
601.787	23545.33
601.984	23258.61
602.18	23365.1
602.376	23242.23
602.572	22994.42
602.769	23008.76
602.965	22814.2
603.161	23098.87
603.357	22685.18
603.553	22656.51
603.75	22631.93
603.946	22586.88
604.142	22451.71
604.338	22351.36
604.534	22494.72
604.73	22132.23
604.926	22423.04
605.122	22324.74
605.318	22111.75
605.514	21933.57
605.71	21849.61
605.906	22115.84
606.102	22046.21
606.298	21634.57
606.494	21730.83
606.69	21894.66
606.886	21880.33
607.082	21458.45
607.278	21802.5
607.474	21290.51
607.67	21437.97
607.866	21149.2
608.062	21636.62
608.257	21411.34
608.453	20985.37
608.649	21212.69
608.845	20842.01
609.041	21464.59
609.236	21202.45
609.432	21061.14
609.628	21020.18
609.824	20819.48
610.019	21145.11
610.215	20577.82
610.411	21024.28
610.606	20885.01
610.802	20846.1
610.998	20600.35
611.193	20725.27
611.389	20682.27
611.584	20862.49
611.78	20616.73
611.976	20565.53
612.171	20536.86
612.367	20487.71
612.562	20379.17
612.758	20100.64
612.953	20168.23
613.149	20413.98
613.344	20131.36
613.539	20092.45
613.735	19961.38
613.93	20244
614.126	20102.69
614.321	20225.57
614.517	20319.78
614.712	19899.94
614.907	19930.66
615.103	20164.13
615.298	19770.92
615.493	19895.85
615.688	19863.08
615.884	19969.57
616.079	19623.47
616.274	19572.27
616.47	19537.45
616.665	19662.38
616.86	19422.76
617.055	19529.26
617.25	19299.89
617.445	19533.36
617.641	19215.92
617.836	19775.02
618.031	19129.91
618.226	19492.4
618.421	19281.46
618.616	19103.28
618.811	18654.78
619.006	19228.21
619.201	18767.41
619.396	18974.26
619.591	18599.48
619.786	18898.48
619.981	18587.19
620.176	18662.97
620.371	18400.83
620.566	18642.49
620.761	18241.09
620.956	18273.85
621.151	17960.52
621.346	18239.04
621.541	17761.86
621.735	18202.18
621.93	17827.4
622.125	17856.07
622.32	17595.98
622.515	17577.55
622.709	17483.34
622.904	17401.42
623.099	17305.17
623.294	17352.27
623.488	17180.24
623.683	17243.73
623.878	16864.85
624.072	16866.9
624.267	16571.99
624.462	16647.77
624.656	16680.53
624.851	16766.55
625.046	16580.18
625.24	16377.44
625.435	16203.36
625.629	16207.45
625.824	15851.11
626.018	16164.45
626.213	15777.38
626.407	15867.49
626.602	15679.08
626.796	15670.89
626.991	15611.5
627.185	15480.43
627.38	15437.42
627.574	15312.49
627.768	15124.08
627.963	15126.13
628.157	14859.89
628.352	15236.72
628.546	14939.76
628.74	14986.86
628.935	14769.78
629.129	14603.89
629.323	14474.87
629.517	14321.27
629.712	14593.65
629.906	14478.97
630.1	13956.74
630.294	14263.93
630.489	14302.84
630.683	14261.88
630.877	14048.89
631.071	14022.27
631.265	13887.11
631.459	13809.28
631.653	13618.82
631.848	13776.52
632.042	13518.47
632.236	13696.64
632.43	13309.58
632.624	13454.98
632.818	13309.58
633.012	13307.53
633.206	13336.2
633.4	13260.43
633.594	13078.16
633.788	13094.54
633.982	13012.62
634.176	12955.28
634.369	12795.54
634.563	12732.05
634.757	12646.04
634.951	12668.56
635.145	12619.41
635.339	12598.93
635.533	12406.42
635.726	12424.86
635.92	12203.68
636.114	12361.37
636.308	12287.64
636.501	12318.36
636.695	12162.72
636.889	12056.22
637.083	12048.03
637.276	12027.55
637.47	11789.99
637.664	11814.56
637.857	11849.38
638.051	11673.25
638.244	11564.71
638.438	11380.39
638.632	11478.69
638.825	11394.73
639.019	11265.71
639.212	11038.38
639.406	11234.99
639.599	11263.66
639.793	11255.47
639.986	10923.69
640.18	10923.69
640.373	10925.74
640.567	10888.88
640.76	10811.06
640.954	10616.5
641.147	10714.8
641.34	10544.82
641.534	10694.32
641.727	10491.57
641.92	10561.2
642.114	10272.44
642.307	10512.05
642.5	10311.35
642.694	9948.86
642.887	10262.2
643.08	10391.22
643.273	9948.86
643.467	10043.07
643.66	9979.58
643.853	9893.57
644.046	9791.17
644.239	9940.67
644.432	9877.18
644.626	9862.85
644.819	9823.94
645.012	9680.58
645.205	9539.27
645.398	9705.15
645.591	9397.96
645.784	9516.74
645.977	9344.71
646.17	9492.16
646.363	9404.1
646.556	9027.28
646.749	9150.15
646.942	9242.31
647.135	9115.34
647.328	9117.39
647.521	9039.56
647.714	8779.47
647.907	8939.21
648.099	8943.31
648.292	8865.49
648.485	8699.6
648.678	8832.72
648.871	8447.7
649.064	8713.94
649.256	8689.36
649.449	8539.86
649.642	8433.36
649.835	8486.61
650.027	8206.04
650.22	8548.05
650.413	8351.45
650.605	8279.77
650.798	8269.53
650.991	8234.71
651.183	8234.71
651.376	8134.36
651.568	8230.62
651.761	7988.96
651.954	8091.35
652.146	7806.69
652.339	7972.57
652.531	7829.21
652.724	7747.3
652.916	7747.3
653.109	7765.73
653.301	7683.81
653.494	7726.82
653.686	7648.99
653.879	7710.43
654.071	7616.23
654.263	7583.46
654.456	7468.77
654.648	7515.87
654.84	7448.29
655.033	7180.01
655.225	7476.96
655.417	7259.88
655.61	7110.38
655.802	7347.94
655.994	7411.43
656.186	7247.59
656.379	7126.76
656.571	7016.17
656.763	7173.86
656.955	6960.88
657.148	6944.49
657.34	7122.66
657.532	6833.9
657.724	6813.42
657.916	6995.69
658.108	6754.03
658.3	6786.8
658.492	6846.19
658.684	6659.82
658.876	6711.02
659.068	6495.99
659.26	6600.43
659.452	6702.83
659.644	6512.37
659.836	6504.18
660.028	6598.38
660.22	6332.15
660.412	6319.86
660.604	6264.57
660.796	6379.25
660.988	6260.47
661.18	6291.19
661.372	6043.39
661.563	6063.86
661.755	6037.24
661.947	5988.09
662.139	6106.87
662.331	5863.16
662.522	6018.81
662.714	5895.93
662.906	6035.19
663.097	5842.68
663.289	5940.99
663.481	5760.77
663.673	5932.79
663.864	5734.14
664.056	5740.29
664.247	5682.94
664.439	5760.77
664.631	5674.75
664.822	5750.53
665.014	5560.06
665.205	5713.66
665.397	5519.11
665.588	5488.39
665.78	5519.11
665.971	5482.24
666.163	5521.15
666.354	5459.71
666.546	5316.36
666.737	5357.32
666.929	5273.35
667.12	5361.41
667.311	5318.4
667.503	5218.05
667.694	5365.51
667.885	5412.61
668.077	5199.62
668.268	5166.85
668.459	5220.1
668.651	5244.68
668.842	5134.09
669.033	4980.49
669.224	5023.5
669.416	5205.77
669.607	4957.96
669.798	4904.71
669.989	5019.4
670.18	5015.3
670.371	5084.94
670.563	4994.83
670.754	4779.79
670.945	4783.88
671.136	4945.67
671.327	4855.56
671.518	4955.91
671.709	4800.27
671.9	4949.77
672.091	4730.64
672.282	4816.65
672.473	4595.47
672.664	4790.03
672.855	4783.88
673.046	4644.62
673.237	4790.03
673.428	4599.57
673.619	4665.1
673.809	4548.37
674	4456.21
674.191	4570.9
674.382	4505.36
674.573	4708.11
674.764	4581.14
674.954	4503.31
675.145	4390.67
675.336	4458.26
675.527	4486.93
675.717	4548.37
675.908	4390.67
676.099	4499.22
676.289	4323.09
676.48	4388.63
676.671	4380.43
676.861	4376.34
677.052	4329.24
677.243	4396.82
677.433	4306.71
677.624	4249.36
677.814	4278.04
678.005	4194.07
678.195	4273.94
678.386	4286.23
678.576	4257.56
678.767	4126.49
678.957	4273.94
679.148	4171.54
679.338	4409.11
679.529	4269.84
679.719	4222.74
679.909	4175.64
680.1	4323.09
680.29	4175.64
680.481	4071.19
680.671	4196.12
680.861	3995.42
681.052	4140.82
681.242	4194.07
681.432	4189.97
681.622	4134.68
681.813	3919.64
682.003	4022.04
682.193	4071.19
682.383	4097.81
682.573	3995.42
682.764	3954.46
682.954	4142.87
683.144	4044.57
683.334	4077.34
683.524	3915.55
683.714	3952.41
683.904	3970.84
684.094	3964.7
684.284	3997.46
684.474	3964.7
684.664	3962.65
684.854	3772.19
685.044	3974.94
685.234	3825.43
685.424	3790.62
685.614	3905.31
685.804	3778.33
685.994	3893.02
686.184	3893.02
686.374	3780.38
686.564	3733.28
686.753	3870.49
686.943	3696.41
687.133	3714.84
687.323	3684.13
687.513	3704.6
687.702	3671.84
687.892	3764
688.082	3614.49
688.272	3733.28
688.461	3495.71
688.651	3634.97
688.841	3577.63
689.03	3532.58
689.22	3487.52
689.41	3499.81
689.599	3544.86
689.789	3503.9
689.979	3366.69
690.168	3610.4
690.358	3456.8
690.547	3352.35
690.737	3430.18
690.926	3442.46
691.116	3319.59
691.305	3350.31
691.495	3333.92
691.684	3315.49
691.874	3327.78
692.063	3290.92
692.252	3432.22
692.442	3311.39
692.631	3260.2
692.82	3235.62
693.01	3209
693.199	3217.19
693.388	3192.61
693.578	3290.92
693.767	3170.08
693.956	3143.46
694.146	3163.94
694.335	3149.61
694.524	2948.9
694.713	3131.17
694.902	3118.89
695.092	3131.17
695.281	3116.84
695.47	3045.16
695.659	3018.54
695.848	3114.79
696.037	2932.52
696.226	3135.27
696.415	2897.71
696.604	2922.28
696.793	2998.06
696.982	2866.99
697.171	2926.38
697.36	2973.48
697.549	2848.55
697.738	2881.32
697.927	3045.16
698.116	2916.14
698.305	2901.8
698.494	2938.66
698.683	2807.59
698.872	2961.19
699.061	2719.53
699.25	2860.84
699.438	3020.58
699.627	2912.04
699.816	2856.75
700.005	2912.04
700.193	2762.54
700.382	2840.36
700.571	2826.03
700.76	2832.17
700.948	2914.09
701.137	2787.11
701.326	2826.03
701.514	2721.58
701.703	2938.66
701.892	2826.03
702.08	2873.13
702.269	2791.21
702.457	2836.27
702.646	2709.29
702.834	2705.2
703.023	2758.44
703.212	2744.11
703.4	2654
703.589	2625.33
703.777	2797.35
703.965	2643.76
704.154	2705.2
704.342	2664.24
704.531	2735.92
704.719	2637.61
704.907	2619.18
705.096	2602.8
705.284	2606.89
705.472	2557.74
705.661	2791.21
705.849	2717.48
706.037	2606.89
706.226	2705.2
706.414	2678.57
706.602	2643.76
706.79	2645.8
706.979	2697
707.167	2668.33
707.355	2488.11
707.543	2619.18
707.731	2604.85
707.919	2656.04
708.107	2733.87
708.296	2643.76
708.484	2621.23
708.672	2619.18
708.86	2516.78
709.048	2578.22
709.236	2590.51
709.424	2643.76
709.612	2602.8
709.8	2582.32
709.988	2633.52
710.176	2619.18
710.364	2594.61
710.551	2463.54
710.739	2664.24
710.927	2565.93
711.115	2555.69
711.303	2504.5
711.491	2512.69
711.679	2498.35
711.866	2656.04
712.054	2549.55
712.242	2619.18
712.43	2557.74
712.617	2578.22
712.805	2592.56
712.993	2584.37
713.181	2576.17
713.368	2676.52
713.556	2570.03
713.744	2496.3
713.931	2598.7
714.119	2684.72
714.306	2619.18
714.494	2631.47
714.682	2508.59
714.869	2533.17
715.057	2631.47
715.244	2537.26
715.432	2615.09
715.619	2639.66
715.807	2647.85
715.994	2475.82
716.182	2557.74
716.369	2598.7
716.556	2533.17
716.744	2467.63
716.931	2621.23
717.119	2578.22
717.306	2510.64
717.493	2584.37
717.681	2539.31
717.868	2545.45
718.055	2533.17
718.242	2524.97
718.43	2463.54
718.617	2545.45
718.804	2545.45
718.991	2598.7
719.179	2594.61
719.366	2549.55
719.553	2541.36
719.74	2602.8
719.927	2660.14
720.114	2510.64
720.301	2586.41
720.488	2608.94
720.676	2600.75
720.863	2500.4
721.05	2500.4
721.237	2578.22
721.424	2414.38
721.611	2545.45
721.798	2520.88
721.985	2520.88
722.172	2471.73
722.358	2531.12
722.545	2678.57
722.732	2561.84
722.919	2656.04
723.106	2463.54
723.293	2520.88
723.48	2578.22
723.667	2531.12
723.853	2674.48
724.04	2463.54
724.227	2641.71
724.414	2555.69
724.6	2512.69
724.787	2572.08
724.974	2594.61
725.161	2619.18
725.347	2651.95
725.534	2623.28
725.72	2572.08
725.907	2570.03
726.094	2594.61
726.28	2561.84
726.467	2594.61
726.653	2512.69
726.84	2508.59
727.027	2553.65
727.213	2602.8
727.4	2541.36
727.586	2660.14
727.773	2643.76
727.959	2606.89
728.145	2563.89
728.332	2463.54
728.518	2479.92
728.705	2625.33
728.891	2559.79
729.077	2615.09
729.264	2465.58
729.45	2545.45
729.636	2635.57
729.823	2543.41
730.009	2619.18
730.195	2705.2
730.382	2578.22
730.568	2477.87
730.754	2539.31
730.94	2627.37
731.126	2658.09
731.313	2586.41
731.499	2588.46
731.685	2586.41
731.871	2623.28
732.057	2713.39
732.243	2561.84
732.429	2514.73
732.615	2670.38
732.801	2545.45
732.987	2608.94
733.173	2553.65
733.359	2539.31
733.545	2574.13
733.731	2594.61
733.917	2692.91
734.103	2594.61
734.289	2621.23
734.475	2586.41
734.661	2692.91
734.847	2545.45
735.033	2590.51
735.219	2629.42
735.404	2682.67
735.59	2572.08
735.776	2692.91
735.962	2604.85
736.148	2621.23
736.333	2717.48
736.519	2561.84
736.705	2647.85
736.89	2670.38
737.076	2676.52
737.262	2400.05
737.447	2547.5
737.633	2488.11
737.819	2506.54
738.004	2555.69
738.19	2455.34
738.375	2541.36
738.561	2586.41
738.747	2594.61
738.932	2533.17
739.118	2613.04
739.303	2463.54
739.489	2645.8
739.674	2424.62
739.859	2479.92
740.045	2561.84
740.23	2576.17
740.416	2475.82
740.601	2520.88
740.786	2438.96
740.972	2389.81
741.157	2506.54
741.342	2342.71
741.528	2398
741.713	2531.12
741.898	2479.92
742.084	2555.69
742.269	2449.2
742.454	2445.1
742.639	2453.3
742.824	2432.82
743.01	2424.62
743.195	2559.79
743.38	2271.03
743.565	2430.77
743.75	2406.19
743.935	2344.75
744.12	2352.95
744.305	2262.83
744.49	2332.47
744.675	2373.43
744.86	2279.22
745.045	2283.31
745.23	2260.79
745.415	2187.06
745.6	2326.32
745.785	2287.41
745.97	2211.64
746.155	2328.37
746.34	2266.93
746.525	2139.96
746.71	2232.12
746.895	2131.76
747.079	2099
747.264	2129.72
747.449	2223.92
747.634	2160.44
747.819	2154.29
748.003	2088.76
748.188	2090.81
748.373	2187.06
748.557	2131.76
748.742	2176.82
748.927	2127.67
749.111	1992.5
749.296	2055.99
749.481	2152.24
749.665	2000.69
749.85	1906.49
750.034	2037.56
750.219	2105.14
750.404	1902.39
750.588	2012.98
750.773	1888.06
750.957	2000.69
751.141	2000.69
751.326	1992.5
751.51	1890.1
751.695	1959.74
751.879	1797.95
752.064	1947.45
752.248	1877.82
752.432	1861.43
752.617	1881.91
752.801	1802.04
752.985	1793.85
753.17	1797.95
753.354	1799.99
753.538	1816.38
753.722	1668.92
753.907	1726.27
754.091	1720.12
754.275	1775.42
754.459	1685.31
754.643	1701.69
754.828	1693.5
755.012	1707.84
755.196	1525.57
755.38	1689.4
755.564	1613.63
755.748	1587.01
755.932	1693.5
756.116	1697.6
756.3	1644.35
756.484	1718.08
756.668	1668.92
756.852	1558.33
757.036	1531.71
757.22	1656.64
757.404	1599.29
757.588	1472.32
757.772	1451.84
757.956	1546.05
758.14	1417.02
758.323	1455.94
758.507	1564.48
758.691	1470.27
758.875	1541.95
759.059	1480.51
759.242	1384.26
759.426	1408.83
759.61	1521.47
759.794	1353.54
759.977	1351.49
760.161	1509.18
760.345	1335.1
760.528	1374.02
760.712	1374.02
760.895	1431.36
761.079	1400.64
761.263	1267.52
761.446	1308.48
761.63	1337.15
761.813	1292.1
761.997	1269.57
762.18	1312.58
762.364	1349.44
762.547	1255.23
762.731	1259.33
762.914	1335.1
763.098	1242.95
763.281	1204.03
763.464	1222.47
763.648	1210.18
763.831	1242.95
764.015	1195.84
764.198	1277.76
764.381	1242.95
764.564	1197.89
764.748	1185.6
764.931	1177.41
765.114	1165.12
765.297	1238.85
765.481	1242.95
765.664	1238.85
765.847	1173.32
766.03	1281.86
766.213	1197.89
766.397	1062.73
766.58	1089.35
766.763	1189.7
766.946	1048.39
767.129	1136.45
767.312	1079.11
767.495	1097.54
767.678	1128.26
767.861	1136.45
768.044	1107.78
768.227	1179.46
768.41	1075.01
768.593	1134.4
768.776	1105.73
768.959	1128.26
769.142	1183.56
769.324	1007.43
769.507	1146.69
769.69	1038.15
769.873	1079.11
770.056	1081.16
770.239	1054.53
770.421	1029.96
770.604	968.52
770.787	1005.38
770.97	1015.62
771.152	1034.05
771.335	982.85
771.518	915.27
771.7	1038.15
771.883	1066.82
772.066	1052.49
772.248	982.85
772.431	952.13
772.613	884.55
772.796	943.94
772.978	892.74
773.161	948.04
773.343	907.08
773.526	843.59
773.708	894.79
773.891	816.97
774.073	921.42
774.256	952.13
774.438	997.19
774.621	923.46
774.803	917.32
774.985	880.46
775.168	911.18
775.35	853.83
775.532	898.89
775.715	841.54
775.897	968.52
776.079	874.31
776.261	915.27
776.444	819.02
776.626	857.93
776.808	874.31
776.99	759.63
777.173	866.12
777.355	806.73
777.537	765.77
777.719	849.74
777.901	794.44
778.083	730.95
778.265	694.09
778.447	808.78
778.629	802.63
778.811	767.82
778.993	767.82
779.175	753.48
779.357	763.72
779.539	735.05
779.721	712.52
779.903	733
780.085	712.52
780.267	702.28
780.449	640.84
780.631	759.63
780.812	689.99
780.994	681.8
781.176	698.19
781.358	595.79
781.54	687.95
781.721	677.71
781.903	585.55
782.085	673.61
782.267	677.71
782.448	612.17
782.63	681.8
782.812	649.04
782.993	694.09
783.175	614.22
783.357	538.45
783.538	587.6
783.72	677.71
783.901	587.6
784.083	567.12
784.264	583.5
784.446	501.58
784.627	563.02
784.809	573.26
784.99	530.25
785.172	593.74
785.353	565.07
785.535	497.49
785.716	466.77
785.897	532.3
786.079	597.84
786.26	507.73
786.441	456.53
786.623	571.21
786.804	538.45
786.985	472.91
787.167	513.87
787.348	534.35
787.529	509.77
787.71	552.78
787.891	530.25
788.073	456.53
788.254	423.76
788.435	489.29
788.616	563.02
788.797	481.1
788.978	466.77
789.159	399.18
789.34	456.53
789.522	505.68
789.703	423.76
789.884	472.91
790.065	384.85
790.246	524.11
790.427	444.24
790.607	499.53
790.788	456.53
790.969	458.57
791.15	456.53
791.331	358.22
791.512	470.86
791.693	390.99
791.874	388.94
792.054	485.2
792.235	425.81
792.416	393.04
792.597	403.28
792.778	415.57
792.958	399.18
793.139	481.1
793.32	417.61
793.5	372.56
793.681	466.77
793.862	372.56
794.042	393.04
794.223	417.61
794.404	370.51
794.584	315.22
794.765	438.09
794.945	343.89
795.126	350.03
795.306	419.66
795.487	358.22
795.667	415.57
795.848	401.23
796.028	304.98
796.209	284.5
796.389	415.57
796.57	333.65
796.75	347.98
796.93	343.89
797.111	319.31
797.291	321.36
797.471	264.02
797.652	294.74
797.832	227.15
798.012	362.32
798.192	284.5
798.373	255.83
798.553	325.46
798.733	354.13
798.913	253.78
799.093	235.35
799.274	302.93
799.454	362.32
799.634	331.6
799.814	390.99
799.994	210.77
800.174	307.02
800.354	352.08
800.534	268.11
800.714	315.22
800.894	286.54
801.074	251.73
801.254	278.35
801.434	352.08
801.614	223.06
801.794	313.17
801.974	681.8
802.154	221.01
802.334	278.35
802.514	294.74
802.693	286.54
802.873	251.73
803.053	329.55
803.233	182.1
803.413	300.88
803.592	175.95
803.772	261.97
803.952	210.77
804.131	286.54
804.311	223.06
804.491	317.26
804.67	278.35
804.85	245.59
805.03	261.97
805.209	243.54
805.389	235.35
805.568	249.68
805.748	210.77
805.928	319.31
806.107	259.92
806.287	227.15
806.466	251.73
806.646	245.59
806.825	235.35
807.004	276.31
807.184	251.73
807.363	292.69
807.543	149.33
807.722	206.67
807.901	188.24
808.081	221.01
808.26	190.29
808.439	227.15
808.619	190.29
808.798	270.16
808.977	186.19
809.156	300.88
809.336	202.58
809.515	245.59
809.694	280.4
809.873	178
810.052	204.63
810.231	259.92
810.411	202.58
810.59	237.39
810.769	288.59
810.948	294.74
811.127	186.19
811.306	286.54
811.485	196.43
811.664	249.68
811.843	194.39
812.022	173.91
812.201	227.15
812.38	225.11
812.559	169.81
812.737	126.8
812.916	196.43
813.095	286.54
813.274	235.35
813.453	196.43
813.632	212.82
813.811	210.77
813.989	89.94
814.168	196.43
814.347	157.52
814.526	227.15
814.704	173.91
814.883	204.63
815.062	241.49
815.24	241.49
815.419	173.91
815.598	173.91
815.776	171.86
815.955	75.6
816.133	71.51
816.312	55.12
816.49	198.48
816.669	157.52
816.847	116.56
817.026	221.01
817.204	178
817.383	135
817.561	227.15
817.74	227.15
817.918	122.71
818.097	173.91
818.275	157.52
818.453	171.86
818.632	89.94
818.81	120.66
818.988	171.86
819.167	161.62
819.345	214.87
819.523	159.57
819.701	128.85
819.879	151.38
820.058	141.14
820.236	182.1
820.414	108.37
820.592	139.09
820.77	210.77
820.948	153.43
821.127	204.63
821.305	147.28
821.483	65.36
821.661	198.48
821.839	128.85
822.017	130.9
822.195	145.24
822.373	159.57
822.551	169.81
822.729	122.71
822.907	137.04
823.085	188.24
823.262	143.19
823.44	120.66
823.618	114.52
823.796	202.58
823.974	104.28
824.152	165.71
824.329	87.89
824.507	218.96
824.685	169.81
824.863	180.05
825.04	139.09
825.218	139.09
825.396	153.43
825.574	91.99
825.751	143.19
825.929	151.38
826.107	87.89
826.284	130.9
826.462	89.94
826.639	77.65
826.817	59.22
826.994	112.47
827.172	79.7
827.349	190.29
827.527	159.57
827.704	157.52
827.882	145.24
828.059	102.23
828.237	57.17
828.414	186.19
828.591	63.32
828.769	108.37
828.946	114.52
829.124	147.28
829.301	122.71
829.478	98.13
829.655	110.42
829.833	120.66
830.01	63.32
830.187	98.13
830.364	59.22
830.542	96.08
830.719	108.37
830.896	122.71
831.073	42.84
831.25	114.52
831.427	104.28
831.604	100.18
831.782	116.56
831.959	145.24
832.136	137.04
832.313	106.32
832.49	79.7
832.667	16.21
832.844	71.51
833.021	89.94
833.198	63.32
833.374	112.47
833.551	65.36
833.728	104.28
833.905	96.08
834.082	-2.22
834.259	98.13
834.436	112.47
834.612	77.65
834.789	108.37
834.966	51.03
835.143	81.75
835.319	22.36
835.496	79.7
835.673	87.89
835.85	116.56
836.026	178
836.203	175.95
836.38	87.89
836.556	96.08
836.733	32.6
836.909	137.04
837.086	20.31
837.262	24.4
837.439	132.95
837.616	71.51
837.792	91.99
837.968	112.47
838.145	12.12
838.321	67.41
838.498	120.66
838.674	75.6
838.851	159.57
839.027	48.98
839.203	87.89
839.38	94.04
839.556	30.55
839.732	34.64
839.909	71.51
840.085	104.28
840.261	14.17
840.437	71.51
840.614	94.04
840.79	100.18
840.966	48.98
841.142	87.89
841.318	44.88
841.494	108.37
841.671	71.51
841.847	38.74
842.023	65.36
842.199	81.75
842.375	81.75
842.551	32.6
842.727	63.32
842.903	161.62
843.079	94.04
843.255	55.12
843.431	44.88
843.607	77.65
843.783	18.26
843.959	108.37
844.134	87.89
844.31	141.14
844.486	42.84
844.662	22.36
844.838	81.75
845.013	18.26
845.189	22.36
845.365	48.98
845.541	-14.51
845.716	63.32
845.892	87.89
846.068	38.74
846.244	75.6
846.419	71.51
846.595	63.32
846.77	112.47
846.946	63.32
847.122	42.84
847.297	32.6
847.473	46.93
847.648	12.12
847.824	83.8
847.999	22.36
848.175	112.47
848.35	-6.31
848.526	65.36
848.701	139.09
848.876	122.71
849.052	151.38
849.227	53.08
849.403	91.99
849.578	59.22
849.753	153.43
849.929	12.12
850.104	28.5
850.279	-2.22
850.454	16.21
850.63	132.95
850.805	89.94
850.98	48.98
851.155	75.6
851.33	104.28
851.505	38.74
851.681	46.93
851.856	98.13
852.031	38.74
852.206	22.36
852.381	32.6
852.556	38.74
852.731	12.12
852.906	18.26
853.081	81.75
853.256	42.84
853.431	22.36
853.606	1.88
853.781	71.51
853.956	-30.89
854.131	51.03
854.305	-6.31
854.48	104.28
854.655	55.12
854.83	8.02
855.005	14.17
855.18	38.74
855.354	30.55
855.529	122.71
855.704	57.17
855.879	-37.03
856.053	-4.27
856.228	100.18
856.403	59.22
856.577	51.03
856.752	42.84
856.926	48.98
857.101	91.99
857.276	71.51
857.45	46.93
857.625	79.7
857.799	59.22
857.974	145.24
858.148	104.28
858.323	59.22
858.497	-26.79
858.672	38.74
858.846	-16.55
859.02	63.32
859.195	-18.6
859.369	96.08
859.543	3.93
859.718	57.17
859.892	40.79
860.066	48.98
860.241	10.07
860.415	71.51
860.589	112.47
860.763	42.84
860.938	-2.22
861.112	30.55
861.286	-0.17
861.46	104.28
861.634	14.17
861.808	63.32
861.982	55.12
862.157	87.89
862.331	-18.6
862.505	48.98
862.679	1.88
862.853	-30.89
863.027	98.13
863.201	79.7
863.375	-22.7
863.549	24.4
863.722	14.17
863.896	75.6
864.07	-0.17
864.244	5.97
864.418	38.74
864.592	-18.6
864.766	-49.32
864.939	75.6
865.113	-14.51
865.287	63.32
865.461	59.22
865.634	3.93
865.808	36.69
865.982	30.55
866.156	14.17
866.329	-49.32
866.503	22.36
866.676	38.74
866.85	-2.22
867.024	48.98
867.197	87.89
867.371	26.45
867.544	30.55
867.718	16.21
867.891	137.04
868.065	104.28
868.238	53.08
868.412	32.6
868.585	69.46
868.759	59.22
868.932	8.02
869.105	1.88
869.279	-18.6
869.452	-59.56
869.625	22.36
869.799	20.31
869.972	16.21
870.145	8.02
870.319	36.69
870.492	-10.41
870.665	-20.65
870.838	-28.84
871.011	-6.31
871.185	116.56
871.358	-57.51
871.531	91.99
871.704	38.74
871.877	63.32
872.05	-51.37
872.223	-18.6
872.396	87.89
872.569	63.32
872.742	14.17
872.915	77.65
873.088	16.21
873.261	28.5
873.434	-18.6
873.607	3.93
873.78	79.7
873.953	24.4
874.126	42.84
874.299	30.55
874.471	30.55
874.644	16.21
874.817	-30.89
874.99	137.04
875.163	-30.89
875.335	48.98
875.508	38.74
875.681	14.17
875.853	5.97
876.026	-18.6
876.199	51.03
876.371	46.93
876.544	-14.51
876.717	71.51
876.889	75.6
877.062	77.65
877.234	-26.79
877.407	28.5
877.579	-59.56
877.752	-16.55
877.924	130.9
878.097	14.17
878.269	30.55
878.442	5.97
878.614	-32.94
878.786	8.02
878.959	-22.7
879.131	38.74
879.303	14.17
879.476	14.17
879.648	104.28
879.82	46.93
879.993	-20.65
880.165	14.17
880.337	44.88
880.509	53.08
880.681	-2.22
880.854	12.12
881.026	48.98
881.198	67.41
881.37	18.26
881.542	-41.13
881.714	-18.6
881.886	91.99
882.058	-12.46
882.23	61.27
882.402	-12.46
882.574	65.36
882.746	32.6
882.918	40.79
883.09	67.41
883.262	-10.41
883.434	108.37
883.606	-10.41
883.778	28.5
883.95	126.8
884.122	46.93
884.293	26.45
884.465	73.56
884.637	10.07
884.809	42.84
884.98	14.17
885.152	-75.95
885.324	-2.22
885.496	-18.6
885.667	22.36
885.839	46.93
886.011	63.32
886.182	14.17
886.354	94.04
886.525	71.51
886.697	-12.46
886.869	-26.79
887.04	-18.6
887.212	139.09
887.383	73.56
887.555	24.4
887.726	55.12
887.897	-88.23
888.069	55.12
888.24	59.22
888.412	26.45
888.583	-39.08
888.754	-0.17
888.926	-43.18
889.097	-51.37
889.268	22.36
889.44	5.97
889.611	1.88
889.782	-6.31
889.953	24.4
890.125	87.89
890.296	48.98
890.467	48.98
890.638	-26.79
890.809	18.26
890.98	-12.46
891.151	-12.46
891.323	12.12
891.494	-6.31
891.665	-49.32
891.836	65.36
892.007	10.07
892.178	-0.17
892.349	22.36
892.52	48.98
892.691	30.55
892.862	-10.41
893.032	10.07
893.203	-65.71
893.374	38.74
893.545	55.12
893.716	100.18
893.887	71.51
894.057	14.17
894.228	89.94
894.399	26.45
894.57	46.93
894.74	48.98
894.911	8.02
895.082	30.55
895.253	14.17
895.423	55.12
895.594	1.88
895.764	46.93
895.935	-10.41
896.106	-10.41
896.276	-18.6
896.447	63.32
896.617	67.41
896.788	32.6
896.958	83.8
897.129	-10.41
897.299	46.93
897.47	94.04
897.64	-32.94
897.81	22.36
897.981	57.17
898.151	-30.89
898.322	-18.6
898.492	38.74
898.662	-98.47
898.832	26.45
899.003	16.21
899.173	-6.31
899.343	-8.36
899.513	-32.94
