Data from USB4F104151__233__14-45-39-685.txt Node

Date: Thu Mar 13 14:45:39 EDT 2025
User: louis
Spectrometer: USB4F10415
Trigger mode: 4
Integration Time (sec): 2.000000E-2
Scans to average: 1
Electric dark correction enabled: true
Nonlinearity correction enabled: false
Boxcar width: 0
XAxis mode: Wavelengths
Number of Pixels in Spectrum: 3648
>>>>>Begin Spectral Data<<<<<
178.204	-189.1
178.424	-189.1
178.644	-189.1
178.864	-129.7
179.084	-78.51
179.304	15.7
179.524	-2.73
179.744	7.51
179.964	58.71
180.184	52.56
180.404	-72.36
180.624	25.94
180.844	11.61
181.064	-53.93
181.283	-15.02
181.503	-21.16
181.723	-6.83
181.943	-88.75
182.163	40.28
182.383	-12.97
182.602	40.28
182.822	48.47
183.042	15.7
183.262	-49.83
183.482	-0.68
183.701	-68.27
183.921	-25.26
184.141	-78.51
184.361	11.61
184.58	-74.41
184.8	-17.07
185.02	-15.02
185.239	60.76
185.459	1.37
185.679	23.89
185.898	-70.31
186.118	23.89
186.338	32.08
186.557	-8.87
186.777	-58.03
186.997	75.09
187.216	-31.4
187.436	89.43
187.655	-4.78
187.875	58.71
188.095	-0.68
188.314	60.76
188.534	42.32
188.753	36.18
188.973	32.08
189.192	60.76
189.412	-12.97
189.631	93.52
189.851	-12.97
190.07	97.62
190.29	-62.12
190.509	-0.68
190.729	-0.68
190.948	40.28
191.168	138.58
191.387	83.28
191.607	-4.78
191.826	32.08
192.045	46.42
192.265	-51.88
192.484	44.37
192.704	71
192.923	-8.87
193.142	89.43
193.362	-2.73
193.581	-0.68
193.8	17.75
194.02	27.99
194.239	-0.68
194.458	58.71
194.678	25.94
194.897	42.32
195.116	-0.68
195.335	-8.87
195.555	7.51
195.774	-23.21
195.993	25.94
196.212	40.28
196.432	-17.07
196.651	3.41
196.87	25.94
197.089	42.32
197.308	-0.68
197.528	40.28
197.747	-12.97
197.966	-58.03
198.185	60.76
198.404	13.65
198.623	79.19
198.842	77.14
199.062	83.28
199.281	73.04
199.5	-27.31
199.719	-0.68
199.938	36.18
200.157	50.52
200.376	27.99
200.595	-55.98
200.814	58.71
201.033	25.94
201.252	30.04
201.471	23.89
201.69	36.18
201.909	19.8
202.128	-0.68
202.347	27.99
202.566	15.7
202.785	-8.87
203.004	-29.35
203.223	73.04
203.442	15.7
203.661	-27.31
203.879	7.51
204.098	46.42
204.317	-17.07
204.536	27.99
204.755	5.46
204.974	23.89
205.193	19.8
205.411	1.37
205.63	17.75
205.849	-33.45
206.068	13.65
206.287	60.76
206.505	48.47
206.724	7.51
206.943	-33.45
207.162	-37.55
207.381	58.71
207.599	25.94
207.818	34.13
208.037	7.51
208.255	48.47
208.474	3.41
208.693	54.61
208.911	44.37
209.13	-53.93
209.349	-8.87
209.567	62.8
209.786	-37.55
210.005	-2.73
210.223	9.56
210.442	-37.55
210.661	-62.12
210.879	73.04
211.098	-49.83
211.316	-10.92
211.535	83.28
211.753	15.7
211.972	60.76
212.191	89.43
212.409	-8.87
212.628	50.52
212.846	-88.75
213.065	44.37
213.283	132.44
213.502	-31.4
213.72	-6.83
213.938	23.89
214.157	25.94
214.375	-41.64
214.594	25.94
214.812	36.18
215.031	105.81
215.249	23.89
215.467	56.66
215.686	7.51
215.904	46.42
216.122	-35.5
216.341	111.96
216.559	3.41
216.778	97.62
216.996	73.04
217.214	-74.41
217.432	5.46
217.651	-113.32
217.869	-49.83
218.087	91.48
218.306	-55.98
218.524	19.8
218.742	11.61
218.96	118.1
219.179	17.75
219.397	-15.02
219.615	66.9
219.833	48.47
220.051	-8.87
220.27	23.89
220.488	38.23
220.706	32.08
220.924	-33.45
221.142	1.37
221.36	46.42
221.578	32.08
221.796	44.37
222.015	32.08
222.233	7.51
222.451	-6.83
222.669	-15.02
222.887	32.08
223.105	-0.68
223.323	7.51
223.541	-10.92
223.759	3.41
223.977	-17.07
224.195	42.32
224.413	19.8
224.631	79.19
224.849	7.51
225.067	58.71
225.285	-21.16
225.503	15.7
225.721	7.51
225.939	21.85
226.157	52.56
226.375	52.56
226.592	7.51
226.81	40.28
227.028	56.66
227.246	15.7
227.464	-17.07
227.682	50.52
227.9	-25.26
228.117	7.51
228.335	-33.45
228.553	-33.45
228.771	-0.68
228.989	-33.45
229.206	-17.07
229.424	-33.45
229.642	-2.73
229.86	91.48
230.077	3.41
230.295	46.42
230.513	73.04
230.731	73.04
230.948	97.62
231.166	48.47
231.384	-41.64
231.601	11.61
231.819	32.08
232.037	-8.87
232.254	-41.64
232.472	68.95
232.689	7.51
232.907	7.51
233.125	-70.31
233.342	27.99
233.56	7.51
233.777	-33.45
233.995	-37.55
234.213	91.48
234.43	36.18
234.648	23.89
234.865	-17.07
235.083	34.13
235.3	-43.69
235.518	-4.78
235.735	-15.02
235.953	40.28
236.17	17.75
236.388	-17.07
236.605	48.47
236.822	48.47
237.04	56.66
237.257	3.41
237.475	48.47
237.692	23.89
237.909	36.18
238.127	15.7
238.344	7.51
238.562	66.9
238.779	42.32
238.996	-17.07
239.214	-17.07
239.431	25.94
239.648	-12.97
239.865	-4.78
240.083	23.89
240.3	42.32
240.517	-74.41
240.735	44.37
240.952	54.61
241.169	36.18
241.386	-43.69
241.603	54.61
241.821	-17.07
242.038	36.18
242.255	15.7
242.472	-39.59
242.689	-4.78
242.907	66.9
243.124	17.75
243.341	-12.97
243.558	15.7
243.775	40.28
243.992	-25.26
244.209	1.37
244.426	73.04
244.643	99.67
244.86	1.37
245.078	44.37
245.295	-25.26
245.512	11.61
245.729	-35.5
245.946	15.7
246.163	-37.55
246.38	25.94
246.597	7.51
246.814	9.56
247.031	118.1
247.248	7.51
247.464	-41.64
247.681	-31.4
247.898	-4.78
248.115	7.51
248.332	-12.97
248.549	32.08
248.766	13.65
248.983	73.04
249.2	58.71
249.417	48.47
249.633	-4.78
249.85	30.04
250.067	7.51
250.284	-66.22
250.501	32.08
250.717	7.51
250.934	11.61
251.151	-12.97
251.368	7.51
251.585	23.89
251.801	56.66
252.018	-29.35
252.235	52.56
252.451	-68.27
252.668	1.37
252.885	66.9
253.102	-17.07
253.318	66.9
253.535	-37.55
253.752	-37.55
253.968	11.61
254.185	-49.83
254.401	-76.46
254.618	27.99
254.835	-98.99
255.051	56.66
255.268	-39.59
255.484	19.8
255.701	-15.02
255.917	27.99
256.134	-23.21
256.351	11.61
256.567	64.85
256.784	15.7
257	-107.18
257.217	19.8
257.433	3.41
257.65	-43.69
257.866	9.56
258.082	38.23
258.299	-33.45
258.515	25.94
258.732	50.52
258.948	75.09
259.165	1.37
259.381	-43.69
259.597	40.28
259.814	40.28
260.03	-17.07
260.246	23.89
260.463	13.65
260.679	44.37
260.895	-19.11
261.112	46.42
261.328	-49.83
261.544	15.7
261.761	58.71
261.977	48.47
262.193	-29.35
262.409	48.47
262.626	-0.68
262.842	40.28
263.058	-17.07
263.274	25.94
263.49	-43.69
263.707	30.04
263.923	-29.35
264.139	-47.79
264.355	27.99
264.571	75.09
264.787	60.76
265.004	9.56
265.22	68.95
265.436	1.37
265.652	19.8
265.868	91.48
266.084	-12.97
266.3	68.95
266.516	17.75
266.732	42.32
266.948	-6.83
267.164	-8.87
267.38	-15.02
267.596	71
267.812	73.04
268.028	-25.26
268.244	60.76
268.46	42.32
268.676	-70.31
268.892	32.08
269.108	9.56
269.324	1.37
269.54	-4.78
269.756	-6.83
269.972	15.7
270.188	36.18
270.403	-23.21
270.619	23.89
270.835	-25.26
271.051	15.7
271.267	-78.51
271.483	23.89
271.698	36.18
271.914	44.37
272.13	32.08
272.346	56.66
272.562	27.99
272.777	15.7
272.993	56.66
273.209	-8.87
273.425	52.56
273.64	-60.07
273.856	-21.16
274.072	7.51
274.287	1.37
274.503	27.99
274.719	-6.83
274.934	71
275.15	-0.68
275.366	36.18
275.581	-64.17
275.797	1.37
276.012	11.61
276.228	3.41
276.444	64.85
276.659	-0.68
276.875	15.7
277.09	-23.21
277.306	48.47
277.521	48.47
277.737	-6.83
277.952	130.39
278.168	1.37
278.383	-58.03
278.599	56.66
278.814	-15.02
279.03	-17.07
279.245	27.99
279.461	25.94
279.676	66.9
279.892	-53.93
280.107	-25.26
280.322	-45.74
280.538	9.56
280.753	7.51
280.969	27.99
281.184	11.61
281.399	-15.02
281.615	-33.45
281.83	75.09
282.045	-27.31
282.26	-15.02
282.476	11.61
282.691	25.94
282.906	11.61
283.122	77.14
283.337	7.51
283.552	32.08
283.767	23.89
283.983	56.66
284.198	-25.26
284.413	64.85
284.628	-6.83
284.843	23.89
285.058	23.89
285.274	-37.55
285.489	-25.26
285.704	97.62
285.919	30.04
286.134	3.41
286.349	-6.83
286.564	27.99
286.779	64.85
286.995	1.37
287.21	-33.45
287.425	21.85
287.64	48.47
287.855	19.8
288.07	-37.55
288.285	103.76
288.5	25.94
288.715	-2.73
288.93	3.41
289.145	3.41
289.36	-0.68
289.575	15.7
289.79	15.7
290.004	15.7
290.219	-12.97
290.434	7.51
290.649	23.89
290.864	-39.59
291.079	-35.5
291.294	58.71
291.509	17.75
291.724	68.95
291.938	-15.02
292.153	46.42
292.368	-72.36
292.583	-49.83
292.798	-55.98
293.012	-37.55
293.227	-41.64
293.442	9.56
293.657	9.56
293.871	95.57
294.086	-37.55
294.301	48.47
294.516	-0.68
294.73	7.51
294.945	-72.36
295.16	-90.79
295.374	48.47
295.589	81.24
295.804	5.46
296.018	-23.21
296.233	103.76
296.447	19.8
296.662	36.18
296.877	56.66
297.091	25.94
297.306	1.37
297.52	19.8
297.735	64.85
297.949	-21.16
298.164	42.32
298.378	56.66
298.593	-12.97
298.807	1.37
299.022	-21.16
299.236	44.37
299.451	32.08
299.665	15.7
299.88	89.43
300.094	48.47
300.309	62.8
300.523	-19.11
300.737	34.13
300.952	66.9
301.166	48.47
301.381	25.94
301.595	32.08
301.809	-6.83
302.024	32.08
302.238	77.14
302.452	93.52
302.667	48.47
302.881	58.71
303.095	48.47
303.309	71
303.524	-17.07
303.738	50.52
303.952	-10.92
304.166	42.32
304.381	-12.97
304.595	73.04
304.809	21.85
305.023	-4.78
305.237	13.65
305.452	25.94
305.666	44.37
305.88	46.42
306.094	19.8
306.308	15.7
306.522	-6.83
306.736	73.04
306.95	56.66
307.164	15.7
307.379	30.04
307.593	83.28
307.807	-41.64
308.021	52.56
308.235	60.76
308.449	-2.73
308.663	17.75
308.877	56.66
309.091	-12.97
309.305	23.89
309.519	-39.59
309.733	73.04
309.947	-0.68
310.161	52.56
310.374	68.95
310.588	73.04
310.802	17.75
311.016	-27.31
311.23	25.94
311.444	60.76
311.658	-0.68
311.872	99.67
312.085	89.43
312.299	40.28
312.513	17.75
312.727	11.61
312.941	-58.03
313.154	1.37
313.368	58.71
313.582	-51.88
313.796	32.08
314.009	11.61
314.223	19.8
314.437	7.51
314.651	-0.68
314.864	5.46
315.078	23.89
315.292	48.47
315.505	3.41
315.719	15.7
315.933	32.08
316.146	93.52
316.36	-72.36
316.573	40.28
316.787	52.56
317.001	-10.92
317.214	-49.83
317.428	-98.99
317.641	-37.55
317.855	-0.68
318.068	89.43
318.282	13.65
318.495	-25.26
318.709	62.8
318.922	-66.22
319.136	17.75
319.349	48.47
319.563	60.76
319.776	81.24
319.99	40.28
320.203	3.41
320.417	-37.55
320.63	97.62
320.843	36.18
321.057	-23.21
321.27	32.08
321.483	-25.26
321.697	-19.11
321.91	-49.83
322.124	-35.5
322.337	40.28
322.55	23.89
322.763	5.46
322.977	40.28
323.19	-4.78
323.403	48.47
323.617	75.09
323.83	48.47
324.043	46.42
324.256	5.46
324.469	34.13
324.683	40.28
324.896	64.85
325.109	60.76
325.322	-19.11
325.535	54.61
325.748	27.99
325.962	-21.16
326.175	36.18
326.388	3.41
326.601	34.13
326.814	11.61
327.027	3.41
327.24	73.04
327.453	-0.68
327.666	-4.78
327.879	34.13
328.092	56.66
328.305	1.37
328.518	5.46
328.731	19.8
328.944	48.47
329.157	64.85
329.37	-8.87
329.583	126.29
329.796	52.56
330.009	-31.4
330.222	19.8
330.435	54.61
330.648	3.41
330.861	107.86
331.073	23.89
331.286	73.04
331.499	11.61
331.712	17.75
331.925	-41.64
332.138	-39.59
332.35	75.09
332.563	15.7
332.776	73.04
332.989	13.65
333.202	11.61
333.414	17.75
333.627	15.7
333.84	15.7
334.053	64.85
334.265	-0.68
334.478	81.24
334.691	34.13
334.903	60.76
335.116	56.66
335.329	38.23
335.541	-43.69
335.754	66.9
335.966	7.51
336.179	44.37
336.392	23.89
336.604	-33.45
336.817	32.08
337.029	34.13
337.242	32.08
337.454	-33.45
337.667	32.08
337.88	-10.92
338.092	42.32
338.305	-80.55
338.517	-39.59
338.729	40.28
338.942	54.61
339.154	-17.07
339.367	-15.02
339.579	73.04
339.792	11.61
340.004	111.96
340.217	-12.97
340.429	-25.26
340.641	-80.55
340.854	-27.31
341.066	17.75
341.278	-8.87
341.491	44.37
341.703	23.89
341.915	-2.73
342.128	40.28
342.34	23.89
342.552	-2.73
342.764	-12.97
342.977	-72.36
343.189	68.95
343.401	64.85
343.613	-39.59
343.826	54.61
344.038	-10.92
344.25	48.47
344.462	-33.45
344.674	34.13
344.886	15.7
345.099	36.18
345.311	7.51
345.523	40.28
345.735	-17.07
345.947	97.62
346.159	32.08
346.371	3.41
346.583	46.42
346.795	48.47
347.007	-8.87
347.219	7.51
347.431	-27.31
347.643	64.85
347.855	46.42
348.067	75.09
348.279	15.7
348.491	50.52
348.703	64.85
348.915	105.81
349.127	5.46
349.339	-17.07
349.551	89.43
349.763	-21.16
349.975	13.65
350.187	36.18
350.399	36.18
350.61	3.41
350.822	7.51
351.034	36.18
351.246	9.56
351.458	-29.35
351.669	32.08
351.881	126.29
352.093	36.18
352.305	40.28
352.517	97.62
352.728	171.35
352.94	5.46
353.152	83.28
353.363	-53.93
353.575	73.04
353.787	15.7
353.999	21.85
354.21	40.28
354.422	64.85
354.633	-31.4
354.845	5.46
355.057	105.81
355.268	50.52
355.48	19.8
355.692	42.32
355.903	19.8
356.115	-8.87
356.326	-8.87
356.538	54.61
356.749	-25.26
356.961	81.24
357.172	27.99
357.384	-31.4
357.595	1.37
357.807	32.08
358.018	3.41
358.23	64.85
358.441	44.37
358.653	-25.26
358.864	25.94
359.075	-19.11
359.287	52.56
359.498	48.47
359.709	116.05
359.921	-17.07
360.132	7.51
360.344	-49.83
360.555	-6.83
360.766	40.28
360.977	42.32
361.189	34.13
361.4	-12.97
361.611	64.85
361.823	58.71
362.034	73.04
362.245	25.94
362.456	-23.21
362.667	58.71
362.879	-29.35
363.09	-23.21
363.301	-23.21
363.512	42.32
363.723	32.08
363.935	7.51
364.146	19.8
364.357	66.9
364.568	32.08
364.779	-41.64
364.99	-0.68
365.201	1.37
365.412	15.7
365.623	-49.83
365.834	81.24
366.045	23.89
366.256	38.23
366.467	120.15
366.678	15.7
366.889	-15.02
367.1	19.8
367.311	-19.11
367.522	-55.98
367.733	19.8
367.944	-10.92
368.155	48.47
368.366	54.61
368.577	56.66
368.788	48.47
368.999	15.7
369.209	48.47
369.42	48.47
369.631	114
369.842	-12.97
370.053	-0.68
370.264	9.56
370.474	7.51
370.685	21.85
370.896	73.04
371.107	89.43
371.317	-25.26
371.528	9.56
371.739	58.71
371.95	97.62
372.16	66.9
372.371	-66.22
372.582	-39.59
372.792	-49.83
373.003	7.51
373.214	-84.65
373.424	15.7
373.635	3.41
373.846	75.09
374.056	40.28
374.267	-25.26
374.477	81.24
374.688	60.76
374.898	48.47
375.109	50.52
375.319	25.94
375.53	154.96
375.74	105.81
375.951	-49.83
376.161	62.8
376.372	107.86
376.582	17.75
376.793	105.81
377.003	-33.45
377.214	79.19
377.424	17.75
377.635	52.56
377.845	-29.35
378.055	93.52
378.266	-23.21
378.476	-0.68
378.686	27.99
378.897	75.09
379.107	56.66
379.317	60.76
379.528	73.04
379.738	75.09
379.948	-4.78
380.158	52.56
380.369	50.52
380.579	56.66
380.789	-4.78
380.999	44.37
381.21	11.61
381.42	116.05
381.63	9.56
381.84	23.89
382.05	-33.45
382.261	50.52
382.471	62.8
382.681	34.13
382.891	73.04
383.101	9.56
383.311	40.28
383.521	-25.26
383.731	15.7
383.941	91.48
384.151	7.51
384.361	81.24
384.571	3.41
384.781	38.23
384.991	93.52
385.201	40.28
385.411	11.61
385.621	99.67
385.831	-45.74
386.041	42.32
386.251	25.94
386.461	73.04
386.671	75.09
386.881	54.61
387.091	52.56
387.301	-17.07
387.511	54.61
387.72	3.41
387.93	75.09
388.14	38.23
388.35	58.71
388.56	-4.78
388.769	97.62
388.979	36.18
389.189	34.13
389.399	118.1
389.609	34.13
389.818	15.7
390.028	56.66
390.238	56.66
390.447	9.56
390.657	85.33
390.867	-6.83
391.076	-115.37
391.286	66.9
391.496	48.47
391.705	40.28
391.915	83.28
392.125	48.47
392.334	7.51
392.544	85.33
392.753	-12.97
392.963	-45.74
393.172	97.62
393.382	-23.21
393.591	132.44
393.801	87.38
394.01	109.91
394.22	54.61
394.429	66.9
394.639	40.28
394.848	56.66
395.058	56.66
395.267	-39.59
395.477	48.47
395.686	124.24
395.895	25.94
396.105	122.2
396.314	73.04
396.524	58.71
396.733	40.28
396.942	64.85
397.152	91.48
397.361	157.01
397.57	44.37
397.78	148.82
397.989	48.47
398.198	-10.92
398.407	40.28
398.617	56.66
398.826	107.86
399.035	17.75
399.244	85.33
399.453	91.48
399.663	34.13
399.872	122.2
400.081	89.43
400.29	79.19
400.499	64.85
400.708	91.48
400.917	159.06
401.127	89.43
401.336	15.7
401.545	138.58
401.754	171.35
401.963	89.43
402.172	64.85
402.381	68.95
402.59	91.48
402.799	114
403.008	99.67
403.217	130.39
403.426	85.33
403.635	56.66
403.844	44.37
404.053	71
404.262	132.44
404.471	138.58
404.68	107.86
404.888	73.04
405.097	154.96
405.306	89.43
405.515	124.24
405.724	130.39
405.933	120.15
406.142	183.63
406.35	157.01
406.559	124.24
406.768	134.48
406.977	140.63
407.185	130.39
407.394	197.97
407.603	124.24
407.812	183.63
408.02	195.92
408.229	234.83
408.438	179.54
408.646	204.11
408.855	159.06
409.064	161.11
409.272	218.45
409.481	187.73
409.69	169.3
409.898	206.16
410.107	206.16
410.315	245.07
410.524	212.31
410.733	228.69
410.941	240.98
411.15	320.85
411.358	351.57
411.567	333.14
411.775	286.03
411.984	304.46
412.192	374.1
412.401	347.47
412.609	372.05
412.818	380.24
413.026	339.28
413.234	370
413.443	417.1
413.651	449.87
413.86	427.34
414.068	386.38
414.276	482.64
414.485	449.87
414.693	527.69
414.901	613.71
415.11	572.75
415.318	593.23
415.526	632.14
415.734	597.32
415.943	666.96
416.151	630.09
416.359	630.09
416.567	669
416.776	632.14
416.984	798.03
417.192	863.56
417.4	808.27
417.608	916.81
417.817	810.31
418.025	894.28
418.233	959.81
418.441	927.05
418.649	900.42
418.857	982.34
419.065	1019.21
419.273	990.53
419.481	1045.83
419.689	1129.8
419.897	1240.39
420.105	1150.28
420.313	1162.56
420.521	1320.26
420.729	1379.65
420.937	1314.11
421.145	1385.79
421.353	1486.14
421.561	1566.01
421.769	1621.31
421.977	1654.08
422.185	1617.21
422.393	1656.12
422.601	1834.3
422.809	1817.91
423.017	1862.97
423.224	1901.88
423.432	1926.46
423.64	1998.13
423.848	2168.12
424.056	2055.48
424.263	2133.3
424.471	2196.79
424.679	2350.39
424.887	2391.34
425.094	2592.05
425.302	2514.22
425.51	2571.57
425.718	2819.37
425.925	2733.36
426.133	2764.08
426.341	3001.64
426.548	3099.94
426.756	3138.85
426.964	3190.05
427.171	3357.99
427.379	3388.71
427.586	3407.14
427.794	3478.82
428.001	3648.8
428.209	3931.42
428.417	3812.64
428.624	4076.82
428.832	4121.88
429.039	4029.72
429.247	4199.7
429.454	4447.51
429.662	4709.65
429.869	4457.75
430.076	4783.37
430.284	4642.06
430.491	4816.14
430.699	5182.73
430.906	5082.38
431.114	5061.9
431.321	5424.39
431.528	5545.22
431.736	5805.31
431.943	6161.66
432.15	5958.91
432.358	5909.76
432.565	6282.49
432.772	6233.33
432.979	6544.63
433.187	6663.41
433.394	6710.51
433.601	7228.65
433.808	7298.28
434.016	7159.02
434.223	7544.03
434.43	7982.3
434.637	8129.75
434.844	8234.2
435.052	8531.16
435.259	8398.04
435.466	8576.21
435.673	8363.22
435.88	8821.97
436.087	9405.64
436.294	9442.5
436.501	9116.87
436.708	9348.29
436.915	9821.38
437.122	9956.54
437.329	9940.16
437.537	10546.36
437.743	10693.81
437.95	10427.57
438.157	11181.23
438.364	11433.13
438.571	11259.05
438.778	11494.57
438.985	12643.48
439.192	11713.7
439.399	12223.64
439.606	12182.68
439.813	12805.27
440.02	13491.34
440.227	13378.7
440.433	13229.2
440.64	13749.38
440.847	13503.62
441.054	13909.12
441.261	14670.97
441.467	14675.06
441.674	14888.05
441.881	15578.22
442.088	15373.42
442.294	15094.89
442.501	15684.71
442.708	15768.68
442.914	16561.24
443.121	17194.06
443.328	16868.44
443.534	18134.08
443.741	17777.73
443.948	17366.09
444.154	18691.13
444.361	18220.1
444.568	18369.6
444.774	18775.09
444.981	18625.59
445.187	19303.47
445.394	20122.66
445.6	19950.63
445.807	22041.6
446.013	20825.11
446.22	21113.88
446.426	22119.43
446.633	22416.38
446.839	22879.22
447.046	22191.11
447.252	23397.36
447.459	23284.72
447.665	23458.8
447.871	24185.83
448.078	25461.71
448.284	24296.42
448.491	25058.26
448.697	25756.62
448.903	26254.28
449.11	26315.72
449.316	26033.1
449.522	26596.29
449.728	27071.42
449.935	27321.27
450.141	27364.28
450.347	28033.96
450.553	27165.62
450.76	27677.62
450.966	28404.64
451.172	27857.84
451.378	28783.52
451.584	28556.19
451.791	29094.81
451.997	28988.31
452.203	29322.13
452.409	29561.75
452.615	29479.83
452.821	28441.51
453.027	27993
453.233	29502.36
453.44	28294.05
453.646	28939.16
453.852	28871.58
454.058	29420.44
454.264	28529.57
454.47	29164.44
454.676	28545.95
454.882	29385.62
455.088	27247.54
455.294	27356.08
455.5	27683.76
455.705	28281.77
455.911	26850.24
456.117	26751.93
456.323	26147.78
456.529	25074.65
456.735	26155.97
456.941	25465.81
457.147	25078.74
457.352	24138.73
457.558	23753.71
457.764	24130.53
457.97	23393.26
458.176	22887.42
458.381	23346.16
458.587	21978.12
458.793	22014.98
458.999	20753.43
459.204	22295.55
459.41	21664.78
459.616	20360.22
459.821	20505.63
460.027	20266.02
460.233	20010.02
460.438	19115.06
460.644	19295.28
460.85	18424.89
461.055	18111.55
461.261	17943.62
461.466	16811.09
461.672	16272.48
461.878	17120.34
462.083	16335.96
462.289	15973.47
462.494	15514.73
462.7	15236.2
462.905	14474.36
463.111	15164.53
463.316	15195.25
463.522	14699.64
463.727	14638.2
463.932	14693.49
464.138	14752.88
464.343	14861.43
464.549	14427.26
464.754	14580.85
464.959	14673.01
465.165	14535.8
465.37	14042.24
465.575	13474.95
465.781	13956.22
465.986	14005.38
466.191	13485.19
466.397	13278.35
466.602	12551.32
466.807	13192.33
467.012	13474.95
467.218	13028.49
467.423	12864.66
467.628	13036.69
467.833	13808.77
468.038	13114.51
468.244	12805.27
468.449	13155.47
468.654	12868.75
468.859	12747.92
469.064	12743.83
469.269	12201.12
469.474	12256.41
469.679	12469.4
469.885	12242.07
470.09	12240.03
470.295	12184.73
470.5	12039.33
470.705	12113.05
470.91	11863.2
471.115	11566.24
471.32	11951.26
471.525	11568.29
471.73	11502.76
471.935	11426.98
472.139	11199.66
472.344	11164.84
472.549	11027.63
472.754	11033.77
472.959	10718.39
473.164	10615.99
473.369	10456.25
473.574	10796.21
473.778	10642.61
473.983	10527.92
474.188	10558.64
474.393	10056.89
474.598	10247.35
474.802	10253.5
475.007	10007.74
475.212	10140.86
475.417	9563.33
475.621	9637.06
475.826	9704.64
476.031	9594.05
476.235	9311.43
476.44	9305.29
476.645	9123.02
476.849	9338.05
477.054	9114.83
477.259	8946.89
477.463	9008.33
477.668	8690.9
477.872	8985.8
478.077	8649.94
478.282	8555.73
478.486	8629.46
478.691	8293.59
478.895	8367.32
479.1	8443.09
479.304	8334.55
479.509	8156.38
479.713	8293.59
479.918	8027.35
480.122	7730.4
480.326	8156.38
480.531	8043.74
480.735	7996.64
480.94	7965.92
481.144	8133.85
481.348	7795.93
481.553	7884
481.757	7662.82
481.961	7752.93
482.166	8045.79
482.37	7855.33
482.574	7826.65
482.778	7726.3
482.983	7838.94
483.187	7793.89
483.391	7855.33
483.595	7695.58
483.8	7531.75
484.004	7677.15
484.208	7814.37
484.412	7607.52
484.616	7722.21
484.821	7765.21
485.025	7431.4
485.229	7693.54
485.433	7560.42
485.637	7673.06
485.841	7773.41
486.045	7578.85
486.249	7920.86
486.453	7599.33
486.657	7658.72
486.861	7587.04
487.065	7728.35
487.269	7881.95
487.473	7675.1
487.677	7732.45
487.881	7943.39
488.085	7791.84
488.289	7867.61
488.493	7683.3
488.697	7660.77
488.901	7724.26
489.105	7732.45
489.309	7955.68
489.512	7781.6
489.716	7759.07
489.92	7838.94
490.124	7769.31
490.328	7896.28
490.531	7879.9
490.735	8078.55
490.939	8068.31
491.143	7832.8
491.346	7935.2
491.55	8082.65
491.754	7986.4
491.958	8316.12
492.161	8092.89
492.365	8129.75
492.569	8127.71
492.772	7965.92
492.976	8234.2
493.18	8291.54
493.383	8467.67
493.587	8395.99
493.79	8486.1
493.994	8510.68
494.197	8555.73
494.401	8662.23
494.605	8686.8
494.808	8561.87
495.012	8664.27
495.215	8977.61
495.419	9057.48
495.622	8828.11
495.825	9157.83
496.029	9135.31
496.232	9348.29
496.436	9108.68
496.639	9374.92
496.843	9153.74
497.046	9432.26
497.249	9598.15
497.453	9557.19
497.656	9788.61
497.859	9886.91
498.063	9878.72
498.266	10165.43
498.469	10091.71
498.673	10319.03
498.876	10507.44
499.079	10560.69
499.282	10513.59
499.485	10808.5
499.689	10783.92
499.892	10785.97
500.095	10904.75
500.298	11363.5
500.501	11080.88
500.705	11611.3
500.908	11844.77
501.111	11773.09
501.314	11787.43
501.517	11895.97
501.72	12063.9
501.923	12027.04
502.126	12528.79
502.329	12696.72
502.532	12575.89
502.735	12582.04
502.938	12911.76
503.141	12989.58
503.344	13212.81
503.547	13372.55
503.75	13415.56
503.953	13798.53
504.156	13692.04
504.359	14240.89
504.562	13943.94
504.765	14251.13
504.968	14345.34
505.17	14593.14
505.373	14824.56
505.576	15060.08
505.779	15082.61
505.982	15385.71
506.185	15207.53
506.387	15842.4
506.59	15664.23
506.793	15903.84
506.996	15916.13
507.198	16440.41
507.401	16364.64
507.604	16540.76
507.807	17065.04
508.009	17087.57
508.212	17065.04
508.415	17235.02
508.617	17390.67
508.82	17677.38
509.022	17435.72
509.225	18111.55
509.428	18103.36
509.63	18338.88
509.833	18670.65
510.035	19262.51
510.238	19051.57
510.44	19258.42
510.643	19332.14
510.845	19422.25
511.048	19684.39
511.25	19962.92
511.453	20001.83
511.655	20786.2
511.858	20448.29
512.06	20509.72
512.262	20808.73
512.465	20896.79
512.667	21400.59
512.87	21642.25
513.072	21537.8
513.274	22281.22
513.477	22092.8
513.679	22397.95
513.881	22715.39
514.084	22920.18
514.286	22848.5
514.488	23053.3
514.69	24103.91
514.893	23710.7
515.095	23630.83
515.297	24222.69
515.499	24560.61
515.701	24579.04
515.904	24937.43
516.106	25123.8
516.308	25396.18
516.51	25809.87
516.712	25752.52
516.914	25836.49
517.116	25951.18
517.318	26590.14
517.52	26362.82
517.722	27071.42
517.925	27188.15
518.127	27272.12
518.329	27517.87
518.531	27165.62
518.733	27884.46
518.935	28365.73
519.136	28521.38
519.338	28394.4
519.54	28924.83
519.742	29275.03
519.944	29496.21
520.146	29838.22
520.348	30014.35
520.55	29965.2
520.752	29995.92
520.954	30641.03
521.155	30362.5
521.357	30792.58
521.559	31036.28
521.761	31454.07
521.963	31701.87
522.164	31601.52
522.366	31986.54
522.568	32443.24
522.77	32252.78
522.971	33289.05
523.173	32469.86
523.375	32928.61
523.576	33045.34
523.778	32809.82
523.98	33473.37
524.181	33506.13
524.383	33760.08
524.584	34222.92
524.786	34388.81
524.988	33862.48
525.189	34503.49
525.391	34917.18
525.592	34800.45
525.794	34954.05
525.995	34845.51
526.197	35130.17
526.398	35097.41
526.6	35582.77
526.801	35558.2
527.003	35711.8
527.204	36131.63
527.406	36324.14
527.607	36354.86
527.808	36172.59
528.01	36086.57
528.211	36438.83
528.412	37057.31
528.614	36422.44
528.815	37022.5
529.016	37364.51
529.218	36700.97
529.419	37253.92
529.62	37096.22
529.822	37155.61
530.023	37165.85
530.224	37227.29
530.425	37505.82
530.626	37169.95
530.828	37260.06
531.029	37909.27
531.23	37311.26
531.431	37219.1
531.632	37942.03
531.833	37962.51
532.035	37942.03
532.236	38015.76
532.437	37870.36
532.638	37968.66
532.839	38136.59
533.04	38118.16
533.241	37907.22
533.442	38386.44
533.643	38163.21
533.844	38120.21
534.045	38001.43
534.246	37782.29
534.447	38476.55
534.648	38193.93
534.849	38056.72
535.05	37739.29
535.251	38288.14
535.451	38193.93
535.652	38249.23
535.853	38408.97
536.054	38611.72
536.255	38341.39
536.456	38091.54
536.657	38753.03
536.857	38241.04
537.058	38083.34
537.259	38583.05
537.46	38406.92
537.66	38230.8
537.861	38609.67
538.062	38253.33
538.263	38544.14
538.463	37942.03
538.664	38163.21
538.865	38126.35
539.065	38652.68
539.266	37939.99
539.466	38947.59
539.667	37821.2
539.868	38888.2
540.068	38329.1
540.269	38097.68
540.469	38755.08
540.67	38267.66
540.87	38046.48
541.071	38302.48
541.271	38644.49
541.472	38062.86
541.672	38273.81
541.873	38058.77
542.073	37976.85
542.274	38705.93
542.474	38337.29
542.675	37776.15
542.875	38437.64
543.075	38120.21
543.276	37651.22
543.476	38570.76
543.676	38091.54
543.877	38232.85
544.077	37987.09
544.277	38226.7
544.478	37841.68
544.678	38128.4
544.878	38195.98
545.078	38279.95
545.279	37804.82
545.479	38275.85
545.679	38245.13
545.879	38048.53
546.079	38136.59
546.28	37868.31
546.48	37755.67
546.68	38042.38
546.88	38128.4
547.08	38062.86
547.28	37718.81
547.48	37782.29
547.68	38044.43
547.88	37413.66
548.081	37962.51
548.281	37933.84
548.481	37794.58
548.681	38277.9
548.881	38081.3
549.081	37866.26
549.28	37690.13
549.48	38157.07
549.68	37882.64
549.88	37903.12
550.08	37655.32
550.28	37894.93
550.48	37767.96
550.68	38150.93
550.88	37667.61
551.08	37565.21
551.279	37845.78
551.479	37606.17
551.679	37393.18
551.879	37466.91
552.079	37825.3
552.278	37606.17
552.478	37632.79
552.678	37710.61
552.878	37589.78
553.077	37849.88
553.277	37278.49
553.477	37999.38
553.676	37417.75
553.876	37540.63
554.076	37362.46
554.275	37208.86
554.475	37042.98
554.674	37593.88
554.874	37198.62
555.074	37055.26
555.273	37802.77
555.473	37800.72
555.672	37145.37
555.872	37032.74
556.071	37393.18
556.271	37741.33
556.47	36942.63
556.67	36852.51
556.869	36944.67
557.068	37327.64
557.268	37049.12
557.467	36858.66
557.667	36735.78
557.866	36999.97
558.065	36801.32
558.265	36584.23
558.464	36461.35
558.663	37200.67
558.863	36565.8
559.062	36879.14
559.261	36506.41
559.461	36633.38
559.66	36152.11
559.859	36696.87
560.058	36031.28
560.258	36236.08
560.457	35939.12
560.656	36485.93
560.855	36168.49
561.054	36283.18
561.253	36113.2
561.453	35937.07
561.652	36404.01
561.851	36260.65
562.05	36086.57
562.249	35795.76
562.448	35756.85
562.647	35699.51
562.846	35773.24
563.045	35844.91
563.244	35185.47
563.443	35885.87
563.642	35162.94
563.841	35425.08
564.04	34956.1
564.239	35877.68
564.438	34935.62
564.637	35390.27
564.836	35164.99
565.035	35056.45
565.234	34982.72
565.432	34722.63
565.631	34794.31
565.83	35005.25
566.029	35023.68
566.228	34640.71
566.427	34446.15
566.625	34425.67
566.824	34216.78
567.023	34782.02
567.222	34159.44
567.42	34298.7
567.619	34321.23
567.818	33983.31
568.016	33985.36
568.215	34132.81
568.414	33641.3
568.612	34450.25
568.811	33805.14
569.01	34005.84
569.208	33592.15
569.407	33688.4
569.605	33516.37
569.804	33663.83
570.002	33108.83
570.201	33753.94
570.4	33309.53
570.598	33092.44
570.797	33055.58
570.995	33248.09
571.193	32435.05
571.392	33082.2
571.59	32723.81
571.789	32807.78
571.987	32428.9
572.186	32686.95
572.384	32422.76
572.582	32727.91
572.781	32666.47
572.979	31746.93
573.177	32617.32
573.376	32004.97
573.574	31961.97
573.772	32457.57
573.971	31957.87
574.169	31667.06
574.367	31931.25
574.565	32320.36
574.763	31622
574.962	31288.18
575.16	31159.16
575.358	31284.09
575.556	31013.76
575.754	31740.79
575.952	31161.21
576.151	31183.74
576.349	31001.47
576.547	31189.88
576.745	30956.41
576.943	30958.46
577.141	30790.53
577.339	30686.08
577.537	30548.87
577.735	30421.89
577.933	30325.64
578.131	30536.58
578.329	30354.31
578.527	29879.18
578.725	30219.14
578.923	30364.55
579.121	30057.35
579.319	29793.17
579.516	30131.08
579.714	29801.36
579.912	29596.56
580.11	29473.68
580.308	29494.16
580.506	29318.04
580.704	29055.9
580.901	29660.05
581.099	29492.12
581.297	29033.37
581.495	29201.3
581.692	29019.03
581.89	28709.79
582.088	28976.03
582.285	28830.62
582.483	28801.95
582.681	28736.41
582.878	28337.06
583.076	28416.93
583.274	28658.59
583.471	28263.33
583.669	28322.73
583.866	28033.96
584.064	28226.47
584.262	28031.91
584.459	28396.45
584.657	27648.94
584.854	27984.81
585.052	27442.1
585.249	27542.45
585.447	27833.26
585.644	27550.64
585.841	27380.66
586.039	27732.91
586.236	27118.52
586.434	27294.64
586.631	27126.71
586.828	27208.63
587.026	27034.55
587.223	27063.22
587.42	26801.08
587.618	26862.52
587.815	26686.4
588.012	26862.52
588.21	26360.77
588.407	26526.66
588.604	26373.06
588.801	26239.94
588.999	26100.68
589.196	26368.96
589.393	26065.86
589.59	26188.74
589.787	26035.14
589.984	25744.33
590.182	25777.1
590.379	25988.04
590.576	25615.31
590.773	25867.21
590.97	25510.86
591.167	25588.69
591.364	25136.09
591.561	25398.23
591.758	25070.55
591.955	25250.77
592.152	25529.3
592.349	25289.68
592.546	24939.48
592.743	24921.05
592.94	24914.91
593.137	24959.96
593.334	24939.48
593.531	24650.72
593.727	24738.78
593.924	24626.14
594.121	24146.92
594.318	24374.24
594.515	24228.84
594.712	24423.39
594.908	23899.11
595.105	24079.33
595.302	24050.66
595.499	24052.71
595.696	23913.45
595.892	23800.81
596.089	23722.99
596.286	23919.59
596.482	23665.64
596.679	23722.99
596.876	23346.16
597.072	23268.34
597.269	23184.37
597.466	23219.19
597.662	23190.52
597.859	23006.2
598.055	23143.41
598.252	22733.82
598.448	22750.2
598.645	22694.91
598.841	22496.25
599.038	22750.2
599.234	22883.32
599.431	22354.94
599.627	22576.12
599.824	22754.3
600.02	22338.56
600.217	22557.69
600.413	22088.71
600.609	22287.36
600.806	21904.39
601.002	22078.47
601.198	21906.44
601.395	22096.9
601.591	21685.26
601.787	21660.68
601.984	21371.92
602.18	21715.98
602.376	21580.81
602.572	21478.41
602.769	21746.7
602.965	21285.9
603.161	21433.36
603.357	21136.4
603.553	21480.46
603.75	21275.66
603.946	21136.4
604.142	21197.84
604.338	20821.02
604.534	20814.87
604.73	20587.55
604.926	20464.67
605.122	20769.82
605.318	20548.64
605.514	20448.29
605.71	20470.81
605.906	20489.24
606.102	20599.83
606.298	20151.33
606.494	20390.94
606.69	20399.13
606.886	20278.3
607.082	19782.7
607.278	20446.24
607.474	20046.88
607.67	20409.37
607.866	19727.4
608.062	20130.85
608.257	19708.97
608.453	19741.74
608.649	19448.88
608.845	19557.42
609.041	19405.87
609.236	19739.69
609.432	19870.76
609.628	19610.67
609.824	19487.79
610.019	19301.42
610.215	19270.7
610.411	19258.42
610.606	19043.38
610.802	19293.23
610.998	19246.13
611.193	19121.2
611.389	19151.92
611.584	19080.24
611.78	18723.9
611.976	18865.21
612.171	19016.76
612.367	18943.03
612.562	19008.56
612.758	18443.32
612.953	18756.66
613.149	18574.39
613.344	18482.24
613.539	18785.33
613.735	18515
613.93	18478.14
614.126	18508.86
614.321	18373.69
614.517	18603.07
614.712	18353.21
614.907	18136.13
615.103	18414.65
615.298	18168.9
615.493	18637.88
615.688	18316.35
615.884	18363.45
616.079	18119.74
616.274	18248.77
616.47	17986.63
616.665	17964.1
616.86	18078.79
617.055	17873.99
617.25	17849.41
617.445	17953.86
617.641	17419.34
617.836	17761.35
618.031	17630.28
618.226	17560.65
618.421	17650.76
618.616	17701.96
618.811	17431.63
619.006	17652.81
619.201	16964.69
619.396	17658.95
619.591	17093.71
619.786	17140.82
619.981	16917.59
620.176	16966.74
620.371	16890.96
620.566	16835.67
620.761	16708.69
620.956	16663.64
621.151	16542.81
621.346	16776.28
621.541	16464.99
621.735	16608.34
621.93	16305.24
622.125	16120.93
622.32	15950.95
622.515	16039.01
622.709	15813.73
622.904	15830.12
623.099	15909.99
623.294	15733.86
623.488	15619.17
623.683	15733.86
623.878	15572.07
624.072	15420.52
624.267	15465.58
624.462	15309.93
624.656	15129.71
624.851	15123.57
625.046	15072.37
625.24	14963.82
625.435	15090.8
625.629	14597.24
625.824	14718.07
626.018	14683.25
626.213	14486.65
626.407	14464.12
626.602	14343.29
626.796	14480.5
626.991	14251.13
627.185	14460.02
627.38	13802.63
627.574	13804.67
627.768	13737.09
627.963	13755.52
628.157	13657.22
628.352	13909.12
628.546	13331.59
628.74	13571.21
628.935	13317.26
629.129	13724.8
629.323	13237.39
629.517	13003.92
629.712	13075.6
629.906	13065.36
630.1	13159.56
630.294	13001.87
630.489	12973.2
630.683	12797.07
630.877	12917.9
631.071	12528.79
631.265	12819.6
631.459	12496.02
631.653	12461.21
631.848	12520.6
632.042	12264.6
632.236	12188.83
632.43	12164.25
632.624	12360.86
632.818	12037.28
633.012	11971.74
633.206	11863.2
633.4	11857.06
633.594	11959.45
633.788	11787.43
633.982	11838.62
634.176	11617.44
634.369	11564.2
634.563	11621.54
634.757	11353.26
634.951	11482.28
635.145	11443.37
635.339	11340.97
635.533	11316.39
635.726	11132.08
635.92	11191.47
636.114	11201.71
636.308	10964.14
636.501	11023.53
636.695	10912.94
636.889	10892.46
637.083	10730.67
637.276	10800.3
637.47	10634.42
637.664	10599.6
637.857	10587.32
638.051	10601.65
638.244	10218.68
638.438	10345.66
638.632	10568.88
638.825	10200.25
639.019	10214.59
639.212	10050.75
639.406	10206.39
639.599	10101.95
639.793	10073.28
639.986	9964.73
640.18	9829.57
640.373	9895.1
640.567	9835.71
640.76	9786.56
640.954	9907.39
641.147	9682.11
641.34	9600.19
641.534	9542.85
641.727	9256.14
641.92	9456.84
642.114	9272.52
642.307	9245.9
642.5	9219.27
642.694	9080.01
642.887	9161.93
643.08	9075.91
643.273	9028.81
643.467	9133.26
643.66	8895.69
643.853	8907.98
644.046	8678.61
644.239	8864.97
644.432	8842.45
644.626	8674.51
644.819	8799.44
645.012	8723.66
645.205	8568.02
645.398	8674.51
645.591	8447.19
645.784	8307.93
645.977	8068.31
646.17	8336.6
646.363	8295.64
646.556	8199.38
646.749	8084.7
646.942	8199.38
647.135	7990.49
647.328	8070.36
647.521	8051.93
647.714	7675.1
647.907	7804.13
648.099	7920.86
648.292	7765.21
648.485	8047.83
648.678	7625.95
648.871	7894.24
649.064	7576.8
649.256	7652.58
649.449	7603.43
649.642	7556.32
649.835	7439.59
650.027	7429.35
650.22	7498.98
650.413	7406.82
650.605	7408.87
650.798	7275.75
650.991	7329
651.183	7251.17
651.376	7175.4
651.568	7146.73
651.761	7101.67
651.954	6972.65
652.146	7124.2
652.339	6855.92
652.531	6884.59
652.724	6933.74
652.916	6724.85
653.109	6827.25
653.301	6806.77
653.494	6622.45
653.686	6610.16
653.879	6761.71
654.071	6659.31
654.263	6696.18
654.456	6587.63
654.648	6589.68
654.84	6452.47
655.033	6509.81
655.225	6610.16
655.417	6272.25
655.61	6413.56
655.802	6309.11
655.994	6200.57
656.186	6227.19
656.379	6241.53
656.571	6110.46
656.763	5987.58
656.955	6022.39
657.148	6040.83
657.34	6065.4
657.532	6108.41
657.724	5811.45
657.916	5868.8
658.108	5995.77
658.3	5795.07
658.492	5790.97
658.684	5743.87
658.876	5739.77
659.068	5647.62
659.26	5668.09
659.452	5623.04
659.644	5674.24
659.836	5760.25
660.028	5582.08
660.22	5291.27
660.412	5436.67
660.604	5530.88
660.796	5569.79
660.988	5405.95
661.18	5365
661.372	5367.04
661.563	5362.95
661.755	5248.26
661.947	5281.03
662.139	5139.72
662.331	5213.45
662.522	5219.59
662.714	5180.68
662.906	5102.86
663.097	5090.57
663.289	4889.87
663.481	5135.62
663.673	5078.28
663.864	5049.61
664.056	4850.96
664.247	4850.96
664.439	4865.29
664.631	4881.67
664.822	4793.61
665.014	4947.21
665.205	4891.91
665.397	4713.74
665.588	4801.8
665.78	4680.97
665.971	4472.08
666.163	4680.97
666.354	4664.59
666.546	4599.06
666.737	4611.34
666.929	4543.76
667.12	4416.79
667.311	4463.89
667.503	4627.73
667.694	4488.46
667.885	4381.97
668.077	4302.1
668.268	4230.42
668.459	4379.92
668.651	4261.14
668.842	4148.5
669.033	4209.94
669.224	4201.75
669.416	4324.63
669.607	4160.79
669.798	4396.31
669.989	4189.46
670.18	4095.25
670.371	4136.21
670.563	4193.56
670.754	4144.41
670.945	4064.54
671.136	3978.52
671.327	4056.34
671.518	3974.42
671.709	4021.53
671.9	4009.24
672.091	4087.06
672.282	3781.92
672.473	3849.5
672.664	4058.39
672.855	3941.66
673.046	3927.32
673.237	3878.17
673.428	3734.81
673.619	3841.31
673.809	3685.66
674	3652.89
674.191	3878.17
674.382	3706.14
674.573	3673.37
674.764	3786.01
674.954	3861.79
675.145	3630.37
675.336	3775.77
675.527	3708.19
675.717	3691.8
675.908	3583.26
676.099	3480.86
676.289	3673.37
676.48	3527.97
676.671	3585.31
676.861	3542.3
677.052	3491.1
677.243	3464.48
677.433	3530.02
677.624	3579.17
677.814	3394.85
678.005	3546.4
678.195	3511.58
678.386	3382.56
678.576	3366.18
678.767	3462.43
678.957	3525.92
679.148	3544.35
679.338	3411.23
679.529	3310.88
679.719	3400.99
679.909	3390.75
680.1	3398.95
680.29	3374.37
680.481	3292.45
680.671	3441.95
680.861	3345.7
681.052	3220.77
681.242	3218.72
681.432	3347.75
681.622	3177.76
681.813	3276.07
682.003	3341.6
682.193	3118.37
682.383	3329.31
682.573	3306.79
682.764	3228.96
682.954	3343.65
683.144	3104.04
683.334	3140.9
683.524	3239.2
683.714	3308.83
683.904	3132.71
684.094	3081.51
684.284	3071.27
684.474	3259.68
684.664	3124.52
684.854	3173.67
685.044	3161.38
685.234	3054.89
685.424	3306.79
685.614	3108.13
685.804	3018.02
685.994	3128.61
686.184	3030.31
686.374	3169.57
686.564	3048.74
686.753	3052.84
686.943	3024.17
687.133	2997.54
687.323	2999.59
687.513	2956.58
687.702	3030.31
687.892	2997.54
688.082	3022.12
688.272	2997.54
688.461	2876.71
688.651	3011.88
688.841	2938.15
689.03	2954.54
689.22	2891.05
689.41	2776.36
689.599	2800.94
689.789	2852.14
689.979	2850.09
690.168	2835.75
690.358	2770.22
690.547	2800.94
690.737	2864.43
690.926	2882.86
691.116	2874.67
691.305	2827.56
691.495	2884.91
691.684	2727.21
691.874	2772.27
692.063	2751.79
692.252	2815.27
692.442	2755.88
692.631	2719.02
692.82	2538.8
693.01	2653.48
693.199	2653.48
693.388	2481.46
693.578	2645.29
693.767	2647.34
693.956	2489.65
694.146	2647.34
694.335	2579.76
694.524	2581.81
694.713	2596.14
694.902	2489.65
695.092	2551.09
695.281	2516.27
695.47	2565.42
695.659	2391.34
695.848	2583.85
696.037	2493.74
696.226	2506.03
696.415	2452.78
696.604	2508.08
696.793	2508.08
696.982	2471.22
697.171	2565.42
697.36	2465.07
697.549	2473.26
697.738	2346.29
697.927	2497.84
698.116	2479.41
698.305	2348.34
698.494	2473.26
698.683	2401.58
698.872	2426.16
699.061	2325.81
699.25	2448.69
699.438	2403.63
699.627	2491.7
699.816	2362.67
700.005	2377.01
700.193	2530.61
700.382	2448.69
700.571	2565.42
700.76	2440.5
700.948	2424.11
701.137	2403.63
701.326	2245.94
701.514	2385.2
701.703	2311.47
701.892	2270.51
702.08	2350.39
702.269	2489.65
702.457	2252.08
702.646	2336.05
702.834	2258.23
703.023	2372.91
703.212	2473.26
703.4	2354.48
703.589	2407.73
703.777	2317.62
703.965	2276.66
704.154	2305.33
704.342	2319.67
704.531	2336.05
704.719	2237.75
704.907	2407.73
705.096	2250.03
705.284	2245.94
705.472	2317.62
705.661	2235.7
705.849	2358.58
706.037	2311.47
706.226	2278.71
706.414	2211.12
706.602	2311.47
706.79	2268.47
706.979	2231.6
707.167	2338.1
707.355	2325.81
707.543	2204.98
707.731	2280.75
707.919	2309.43
708.107	2245.94
708.296	2147.64
708.484	2225.46
708.672	2178.36
708.86	2252.08
709.048	2235.7
709.236	2227.51
709.424	2252.08
709.612	2137.4
709.8	2213.17
709.988	2227.51
710.176	2088.25
710.364	2268.47
710.551	2114.87
710.739	2139.44
710.927	2018.61
711.115	2145.59
711.303	2121.01
711.491	2149.68
711.679	2102.58
711.866	2108.73
712.054	2157.88
712.242	2188.6
712.43	2178.36
712.617	2200.88
712.805	2207.03
712.993	2190.64
713.181	2196.79
713.368	2114.87
713.556	2174.26
713.744	2110.77
713.931	2141.49
714.119	2102.58
714.306	2166.07
714.494	2133.3
714.682	2096.44
714.869	2071.86
715.057	2090.29
715.244	1965.37
715.432	2108.73
715.619	2137.4
715.807	2139.44
715.994	2161.97
716.182	2059.57
716.369	2075.96
716.556	2129.2
716.744	2016.57
716.931	2123.06
717.119	2092.34
717.306	2047.29
717.493	2084.15
717.681	2055.48
717.868	2014.52
718.055	2010.42
718.242	2022.71
718.43	2137.4
718.617	2022.71
718.804	2016.57
718.991	2104.63
719.179	2137.4
719.366	1932.6
719.553	1965.37
719.74	2075.96
719.927	1965.37
720.114	2002.23
720.301	1977.66
720.488	1977.66
720.676	1860.92
720.863	2104.63
721.05	2082.1
721.237	1983.8
721.424	2092.34
721.611	1916.22
721.798	1860.92
721.985	2055.48
722.172	1977.66
722.358	2006.33
722.545	2026.81
722.732	2075.96
722.919	2110.77
723.106	1924.41
723.293	2121.01
723.48	1963.32
723.667	1975.61
723.853	2155.83
724.04	1930.55
724.227	1994.04
724.414	2002.23
724.6	1856.83
724.787	2114.87
724.974	2086.2
725.161	1912.12
725.347	1957.18
725.534	2035
725.72	1928.5
725.907	1989.94
726.094	1885.5
726.28	1885.5
726.467	1877.3
726.653	2030.9
726.84	1953.08
727.027	1957.18
727.213	1977.66
727.4	2063.67
727.586	1858.87
727.773	1924.41
727.959	2035
728.145	1908.02
728.332	1932.6
728.518	1901.88
728.705	1957.18
728.891	1934.65
729.077	1895.74
729.264	1955.13
729.45	1948.98
729.636	2000.18
729.823	1889.59
730.009	2039.09
730.195	1957.18
730.382	2008.37
730.568	1998.13
730.754	1869.11
730.94	1979.7
731.126	1991.99
731.313	1875.26
731.499	1891.64
731.685	1973.56
731.871	1981.75
732.057	1961.27
732.243	1889.59
732.429	1926.46
732.615	1920.31
732.801	2035
732.987	1899.83
733.173	1852.73
733.359	1953.08
733.545	1875.26
733.731	1885.5
733.917	1899.83
734.103	1869.11
734.289	1846.59
734.475	1867.06
734.661	1862.97
734.847	1748.28
735.033	1981.75
735.219	1879.35
735.404	1830.2
735.59	1924.41
735.776	1895.74
735.962	1920.31
736.148	1846.59
736.333	1789.24
736.519	1850.68
736.705	1932.6
736.89	1795.39
737.076	1920.31
737.262	1752.38
737.447	1811.77
737.633	1826.11
737.819	1850.68
738.004	1899.83
738.19	1723.71
738.375	1748.28
738.561	1862.97
738.747	1787.19
738.932	1828.15
739.118	1862.97
739.303	1873.21
739.489	1742.14
739.674	1740.09
739.859	1760.57
740.045	1735.99
740.23	1752.38
740.416	1783.1
740.601	1727.8
740.786	1723.71
740.972	1797.43
741.157	1723.71
741.342	1727.8
741.528	1756.47
741.713	1662.27
741.898	1645.88
742.084	1647.93
742.269	1670.46
742.454	1516.86
742.639	1662.27
742.824	1643.84
743.01	1697.08
743.195	1731.9
743.38	1588.54
743.565	1725.75
743.75	1625.4
743.935	1639.74
744.12	1654.08
744.305	1541.44
744.49	1611.07
744.675	1541.44
744.86	1547.58
745.045	1621.31
745.23	1576.25
745.415	1523.01
745.6	1658.17
745.785	1580.35
745.97	1533.25
746.155	1633.6
746.34	1566.01
746.525	1572.16
746.71	1600.83
746.895	1408.32
747.079	1535.29
747.264	1473.85
747.449	1506.62
747.634	1578.3
747.819	1547.58
748.003	1389.89
748.188	1404.22
748.373	1445.18
748.557	1539.39
748.742	1340.74
748.927	1473.85
749.111	1363.26
749.296	1447.23
749.481	1518.91
749.665	1340.74
749.85	1369.41
750.034	1463.62
750.219	1342.78
750.404	1385.79
750.588	1318.21
750.773	1301.83
750.957	1301.83
751.141	1334.59
751.326	1330.5
751.51	1271.11
751.695	1240.39
751.879	1305.92
752.064	1279.3
752.248	1252.67
752.432	1234.24
752.617	1330.5
752.801	1236.29
752.985	1281.35
753.17	1242.43
753.354	1262.91
753.538	1314.11
753.722	1252.67
753.907	1191.24
754.091	1148.23
754.275	1211.71
754.459	1205.57
754.643	1240.39
754.828	1228.1
755.012	1240.39
755.196	1109.32
755.38	1074.5
755.564	1058.12
755.748	1133.89
755.932	1131.84
756.116	1170.76
756.3	1115.46
756.484	1111.36
756.668	1115.46
756.852	996.68
757.036	1076.55
757.22	1107.27
757.404	1013.06
757.588	1051.97
757.772	1002.82
757.956	1039.69
758.14	998.73
758.323	1019.21
758.507	972.1
758.691	990.53
758.875	982.34
759.059	1056.07
759.242	998.73
759.426	939.33
759.61	1039.69
759.794	1099.08
759.977	1056.07
760.161	1041.73
760.345	970.05
760.528	1025.35
760.712	1015.11
760.895	1015.11
761.079	978.25
761.263	965.96
761.446	953.67
761.63	845.13
761.813	902.47
761.997	867.66
762.18	990.53
762.364	896.33
762.547	935.24
762.731	838.98
762.914	933.19
763.098	820.55
763.281	869.7
763.464	765.26
763.648	881.99
763.831	802.12
764.015	916.81
764.198	849.22
764.381	836.94
764.564	859.46
764.748	881.99
764.931	898.38
765.114	826.7
765.297	771.4
765.481	851.27
765.664	869.7
765.847	808.27
766.03	826.7
766.213	798.03
766.397	802.12
766.58	867.66
766.763	888.14
766.946	820.55
767.129	785.74
767.312	802.12
767.495	881.99
767.678	755.02
767.861	884.04
768.044	664.91
768.227	810.31
768.41	834.89
768.593	834.89
768.776	695.63
768.959	765.26
769.142	826.7
769.324	763.21
769.507	855.37
769.69	804.17
769.873	703.82
770.056	732.49
770.239	746.83
770.421	736.59
770.604	757.07
770.787	720.2
770.97	697.67
771.152	699.72
771.335	695.63
771.518	685.39
771.7	703.82
771.883	675.15
772.066	728.39
772.248	718.15
772.431	765.26
772.613	802.12
772.796	652.62
772.978	712.01
773.161	630.09
773.343	703.82
773.526	658.76
773.708	707.91
773.891	623.95
774.073	605.52
774.256	654.67
774.438	738.63
774.621	632.14
774.803	707.91
774.985	716.11
775.168	712.01
775.35	568.65
775.532	650.57
775.715	582.99
775.897	640.33
776.079	599.37
776.261	617.8
776.444	564.56
776.626	589.13
776.808	656.72
776.99	593.23
777.173	550.22
777.355	552.27
777.537	507.21
777.719	671.05
777.901	564.56
778.083	548.17
778.265	533.84
778.447	589.13
778.629	550.22
778.811	515.41
778.993	517.45
779.175	597.32
779.357	621.9
779.539	580.94
779.721	503.12
779.903	566.6
780.085	466.25
780.267	490.83
780.449	519.5
780.631	470.35
780.812	535.89
780.994	539.98
781.176	523.6
781.358	515.41
781.54	456.01
781.721	546.13
781.903	558.41
782.085	417.1
782.267	476.49
782.448	482.64
782.63	402.77
782.812	539.98
782.993	347.47
783.175	476.49
783.357	400.72
783.538	484.69
783.72	384.34
783.901	425.29
784.083	374.1
784.264	437.58
784.446	314.7
784.627	400.72
784.809	458.06
784.99	417.1
785.172	470.35
785.353	441.68
785.535	478.54
785.716	339.28
785.897	310.61
786.079	353.62
786.26	392.53
786.441	425.29
786.623	306.51
786.804	347.47
786.985	353.62
787.167	367.95
787.348	326.99
787.529	304.46
787.71	443.73
787.891	359.76
788.073	326.99
788.254	294.22
788.435	406.86
788.616	294.22
788.797	349.52
788.978	345.42
789.159	367.95
789.34	331.09
789.522	286.03
789.703	310.61
789.884	249.17
790.065	294.22
790.246	296.27
790.427	370
790.607	322.9
790.788	378.19
790.969	230.74
791.15	326.99
791.331	277.84
791.512	257.36
791.693	224.59
791.874	308.56
792.054	306.51
792.235	298.32
792.416	298.32
792.597	277.84
792.778	245.07
792.958	251.22
793.139	271.7
793.32	283.99
793.5	261.46
793.681	304.46
793.862	261.46
794.042	329.04
794.223	271.7
794.404	326.99
794.584	177.49
794.765	277.84
794.945	245.07
795.126	339.28
795.306	318.8
795.487	367.95
795.667	220.5
795.848	175.44
796.028	300.37
796.209	253.27
796.389	294.22
796.57	185.68
796.75	232.79
796.93	245.07
797.111	224.59
797.291	167.25
797.471	214.35
797.652	134.48
797.832	165.2
798.012	255.31
798.192	236.88
798.373	146.77
798.553	286.03
798.733	318.8
798.913	261.46
799.093	175.44
799.274	236.88
799.454	298.32
799.634	171.35
799.814	212.31
799.994	193.87
800.174	236.88
800.354	171.35
800.534	179.54
800.714	175.44
800.894	128.34
801.074	212.31
801.254	183.63
801.434	150.87
801.614	159.06
801.794	181.59
801.974	777.55
802.154	163.15
802.334	208.21
802.514	183.63
802.693	204.11
802.873	163.15
803.053	159.06
803.233	132.44
803.413	175.44
803.592	140.63
803.772	171.35
803.952	173.39
804.131	187.73
804.311	263.51
804.491	283.99
804.67	150.87
804.85	179.54
805.03	187.73
805.209	171.35
805.389	195.92
805.568	101.72
805.748	163.15
805.928	197.97
806.107	173.39
806.287	206.16
806.466	181.59
806.646	146.77
806.825	120.15
807.004	181.59
807.184	122.2
807.363	138.58
807.543	138.58
807.722	171.35
807.901	230.74
808.081	93.52
808.26	93.52
808.439	130.39
808.619	126.29
808.798	114
808.977	234.83
809.156	167.25
809.336	111.96
809.515	167.25
809.694	138.58
809.873	105.81
810.052	91.48
810.231	171.35
810.411	177.49
810.59	204.11
810.769	134.48
810.948	114
811.127	148.82
811.306	79.19
811.485	142.68
811.664	126.29
811.843	138.58
812.022	157.01
812.201	58.71
812.38	140.63
812.559	109.91
812.737	134.48
812.916	73.04
813.095	124.24
813.274	89.43
813.453	150.87
813.632	105.81
813.811	101.72
813.989	77.14
814.168	97.62
814.347	81.24
814.526	101.72
814.704	134.48
814.883	142.68
815.062	97.62
815.24	132.44
815.419	116.05
815.598	122.2
815.776	71
815.955	91.48
816.133	97.62
816.312	134.48
816.49	114
816.669	142.68
816.847	85.33
817.026	146.77
817.204	114
817.383	105.81
817.561	89.43
817.74	122.2
817.918	89.43
818.097	56.66
818.275	116.05
818.453	87.38
818.632	197.97
818.81	68.95
818.988	58.71
819.167	83.28
819.345	93.52
819.523	109.91
819.701	122.2
819.879	130.39
820.058	85.33
820.236	77.14
820.414	83.28
820.592	56.66
820.77	-0.68
820.948	36.18
821.127	136.53
821.305	128.34
821.483	54.61
821.661	91.48
821.839	148.82
822.017	56.66
822.195	-17.07
822.373	93.52
822.551	36.18
822.729	124.24
822.907	32.08
823.085	83.28
823.262	132.44
823.44	99.67
823.618	75.09
823.796	-15.02
823.974	46.42
824.152	36.18
824.329	85.33
824.507	17.75
824.685	62.8
824.863	132.44
825.04	81.24
825.218	9.56
825.396	56.66
825.574	103.76
825.751	114
825.929	116.05
826.107	15.7
826.284	83.28
826.462	66.9
826.639	77.14
826.817	66.9
826.994	48.47
827.172	50.52
827.349	83.28
827.527	134.48
827.704	62.8
827.882	85.33
828.059	58.71
828.237	38.23
828.414	52.56
828.591	40.28
828.769	36.18
828.946	-15.02
829.124	25.94
829.301	19.8
829.478	9.56
829.655	116.05
829.833	64.85
830.01	34.13
830.187	105.81
830.364	60.76
830.542	13.65
830.719	-21.16
830.896	27.99
831.073	75.09
831.25	25.94
831.427	3.41
831.604	25.94
831.782	56.66
831.959	107.86
832.136	40.28
832.313	85.33
832.49	81.24
832.667	7.51
832.844	48.47
833.021	40.28
833.198	101.72
833.374	64.85
833.551	52.56
833.728	32.08
833.905	34.13
834.082	7.51
834.259	9.56
834.436	58.71
834.612	15.7
834.789	85.33
834.966	23.89
835.143	7.51
835.319	64.85
835.496	73.04
835.673	-17.07
835.85	52.56
836.026	42.32
836.203	122.2
836.38	58.71
836.556	25.94
836.733	56.66
836.909	48.47
837.086	15.7
837.262	19.8
837.439	-15.02
837.616	-4.78
837.792	85.33
837.968	9.56
838.145	-45.74
838.321	48.47
838.498	81.24
838.674	73.04
838.851	17.75
839.027	9.56
839.203	3.41
839.38	103.76
839.556	85.33
839.732	91.48
839.909	44.37
840.085	19.8
840.261	64.85
840.437	73.04
840.614	-53.93
840.79	91.48
840.966	56.66
841.142	48.47
841.318	52.56
841.494	15.7
841.671	138.58
841.847	46.42
842.023	-41.64
842.199	5.46
842.375	40.28
842.551	62.8
842.727	-25.26
842.903	58.71
843.079	-6.83
843.255	111.96
843.431	-27.31
843.607	83.28
843.783	-21.16
843.959	21.85
844.134	27.99
844.31	7.51
844.486	-25.26
844.662	3.41
844.838	27.99
845.013	-55.98
845.189	30.04
845.365	36.18
845.541	-31.4
845.716	73.04
845.892	-17.07
846.068	11.61
846.244	-15.02
846.419	48.47
846.595	56.66
846.77	-23.21
846.946	3.41
847.122	-45.74
847.297	32.08
847.473	66.9
847.648	-62.12
847.824	-8.87
847.999	7.51
848.175	71
848.35	58.71
848.526	40.28
848.701	15.7
848.876	-0.68
849.052	-4.78
849.227	-19.11
849.403	15.7
849.578	-8.87
849.753	-4.78
849.929	64.85
850.104	-21.16
850.279	3.41
850.454	52.56
850.63	-33.45
850.805	-25.26
850.98	27.99
851.155	64.85
851.33	21.85
851.505	13.65
851.681	23.89
851.856	-51.88
852.031	21.85
852.206	9.56
852.381	23.89
852.556	-17.07
852.731	-31.4
852.906	11.61
853.081	-33.45
853.256	23.89
853.431	3.41
853.606	-33.45
853.781	32.08
853.956	-41.64
854.131	17.75
854.305	30.04
854.48	34.13
854.655	-45.74
854.83	36.18
855.005	-15.02
855.18	11.61
855.354	-2.73
855.529	-41.64
855.704	19.8
855.879	1.37
856.053	-49.83
856.228	7.51
856.403	-23.21
856.577	-6.83
856.752	-0.68
856.926	-53.93
857.101	-8.87
857.276	-6.83
857.45	7.51
857.625	32.08
857.799	-31.4
857.974	85.33
858.148	-8.87
858.323	32.08
858.497	-12.97
858.672	3.41
858.846	-47.79
859.02	97.62
859.195	-15.02
859.369	9.56
859.543	13.65
859.718	-4.78
859.892	42.32
860.066	27.99
860.241	66.9
860.415	15.7
860.589	5.46
860.763	-15.02
860.938	-43.69
861.112	7.51
861.286	48.47
861.46	27.99
861.634	-37.55
861.808	40.28
861.982	-49.83
862.157	-29.35
862.331	7.51
862.505	-31.4
862.679	-25.26
862.853	-4.78
863.027	44.37
863.201	40.28
863.375	15.7
863.549	-31.4
863.722	-23.21
863.896	42.32
864.07	-21.16
864.244	-37.55
864.418	42.32
864.592	15.7
864.766	-2.73
864.939	1.37
865.113	-8.87
865.287	23.89
865.461	-33.45
865.634	-55.98
865.808	1.37
865.982	-43.69
866.156	-0.68
866.329	-4.78
866.503	56.66
866.676	23.89
866.85	13.65
867.024	25.94
867.197	-23.21
867.371	48.47
867.544	54.61
867.718	-62.12
867.891	-45.74
868.065	-25.26
868.238	62.8
868.412	32.08
868.585	7.51
868.759	17.75
868.932	-37.55
869.105	11.61
869.279	-8.87
869.452	11.61
869.625	30.04
869.799	17.75
869.972	-72.36
870.145	17.75
870.319	83.28
870.492	-17.07
870.665	-33.45
870.838	-41.64
871.011	15.7
871.185	23.89
871.358	-64.17
871.531	7.51
871.704	-4.78
871.877	-39.59
872.05	42.32
872.223	-15.02
872.396	64.85
872.569	111.96
872.742	-10.92
872.915	1.37
873.088	-25.26
873.261	7.51
873.434	-17.07
873.607	23.89
873.78	38.23
873.953	7.51
874.126	1.37
874.299	11.61
874.471	-0.68
874.644	1.37
874.817	-43.69
874.99	-49.83
875.163	-37.55
875.335	-76.46
875.508	-41.64
875.681	48.47
875.853	-55.98
876.026	-8.87
876.199	73.04
876.371	-6.83
876.544	-98.99
876.717	32.08
876.889	23.89
877.062	-8.87
877.234	-4.78
877.407	-49.83
877.579	-29.35
877.752	32.08
877.924	25.94
878.097	11.61
878.269	23.89
878.442	1.37
878.614	44.37
878.786	64.85
878.959	-29.35
879.131	-0.68
879.303	-35.5
879.476	1.37
879.648	-0.68
879.82	32.08
879.993	-74.41
880.165	19.8
880.337	-33.45
880.509	-47.79
880.681	3.41
880.854	-6.83
881.026	36.18
881.198	66.9
881.37	-39.59
881.542	118.1
881.714	23.89
881.886	-74.41
882.058	-45.74
882.23	21.85
882.402	-19.11
882.574	-17.07
882.746	50.52
882.918	48.47
883.09	3.41
883.262	-6.83
883.434	27.99
883.606	-23.21
883.778	-17.07
883.95	107.86
884.122	-12.97
884.293	-58.03
884.465	-33.45
884.637	-15.02
884.809	-41.64
884.98	-25.26
885.152	-12.97
885.324	32.08
885.496	-82.6
885.667	-29.35
885.839	-33.45
886.011	73.04
886.182	52.56
886.354	-21.16
886.525	13.65
886.697	-21.16
886.869	-58.03
887.04	17.75
887.212	-10.92
887.383	-82.6
887.555	40.28
887.726	-12.97
887.897	-23.21
888.069	48.47
888.24	-8.87
888.412	15.7
888.583	32.08
888.754	-6.83
888.926	-70.31
889.097	-17.07
889.268	-70.31
889.44	-15.02
889.611	-94.89
889.782	-49.83
889.953	-86.7
890.125	60.76
890.296	42.32
890.467	56.66
890.638	19.8
890.809	-0.68
890.98	-0.68
891.151	-10.92
891.323	40.28
891.494	48.47
891.665	-58.03
891.836	17.75
892.007	-4.78
892.178	11.61
892.349	58.71
892.52	3.41
892.691	9.56
892.862	23.89
893.032	-47.79
893.203	-6.83
893.374	-25.26
893.545	25.94
893.716	-35.5
893.887	23.89
894.057	15.7
894.228	32.08
894.399	1.37
894.57	-39.59
894.74	-23.21
894.911	-33.45
895.082	-0.68
895.253	-94.89
895.423	-0.68
895.594	68.95
895.764	-94.89
895.935	75.09
896.106	-17.07
896.276	-6.83
896.447	-41.64
896.617	-31.4
896.788	-96.94
896.958	5.46
897.129	-39.59
897.299	-53.93
897.47	48.47
897.64	23.89
897.81	-37.55
897.981	124.24
898.151	-37.55
898.322	-43.69
898.492	46.42
898.662	9.56
898.832	-70.31
899.003	-127.66
899.173	7.51
899.343	-6.83
899.513	-17.07
