Data from USB4F104151__311__14-46-44-938.txt Node

Date: Thu Mar 13 14:46:44 EDT 2025
User: louis
Spectrometer: USB4F10415
Trigger mode: 4
Integration Time (sec): 2.000000E-2
Scans to average: 1
Electric dark correction enabled: true
Nonlinearity correction enabled: false
Boxcar width: 0
XAxis mode: Wavelengths
Number of Pixels in Spectrum: 3648
>>>>>Begin Spectral Data<<<<<
178.204	-182.44
178.424	-182.44
178.644	-182.44
178.864	-131.24
179.084	-102.57
179.304	-12.46
179.524	22.36
179.744	12.12
179.964	36.69
180.184	28.5
180.404	10.07
180.624	-4.27
180.844	14.17
181.064	-80.04
181.283	-20.65
181.503	-24.75
181.723	18.26
181.943	-75.95
182.163	112.47
182.383	-34.99
182.602	-6.31
182.822	106.32
183.042	-6.31
183.262	-34.99
183.482	-37.03
183.701	-26.79
183.921	69.46
184.141	91.99
184.361	5.97
184.58	28.5
184.8	89.94
185.02	-10.41
185.239	-22.7
185.459	-4.27
185.679	36.69
185.898	-12.46
186.118	-39.08
186.338	-24.75
186.557	87.89
186.777	28.5
186.997	38.74
187.216	-24.75
187.436	44.88
187.655	8.02
187.875	24.4
188.095	-4.27
188.314	61.27
188.534	75.6
188.753	12.12
188.973	1.88
189.192	63.32
189.412	91.99
189.631	-18.6
189.851	55.12
190.07	46.93
190.29	3.93
190.509	-26.79
190.729	30.55
190.948	-4.27
191.168	94.04
191.387	44.88
191.607	63.32
191.826	89.94
192.045	71.51
192.265	53.08
192.484	20.31
192.704	59.22
192.923	-37.03
193.142	57.17
193.362	55.12
193.581	51.03
193.8	28.5
194.02	-12.46
194.239	48.98
194.458	10.07
194.678	-18.6
194.897	26.45
195.116	5.97
195.335	-18.6
195.555	63.32
195.774	12.12
195.993	120.66
196.212	-4.27
196.432	-4.27
196.651	28.5
196.87	-45.23
197.089	137.04
197.308	122.71
197.528	32.6
197.747	16.21
197.966	44.88
198.185	44.88
198.404	63.32
198.623	42.84
198.842	18.26
199.062	81.75
199.281	24.4
199.5	-8.36
199.719	32.6
199.938	28.5
200.157	65.36
200.376	83.8
200.595	65.36
200.814	32.6
201.033	94.04
201.252	53.08
201.471	85.84
201.69	57.17
201.909	20.31
202.128	59.22
202.347	30.55
202.566	36.69
202.785	-34.99
203.004	14.17
203.223	61.27
203.442	-4.27
203.661	36.69
203.879	5.97
204.098	46.93
204.317	38.74
204.536	20.31
204.755	40.79
204.974	118.61
205.193	36.69
205.411	-4.27
205.63	12.12
205.849	46.93
206.068	65.36
206.287	24.4
206.505	44.88
206.724	-18.6
206.943	24.4
207.162	-2.22
207.381	34.64
207.599	61.27
207.818	20.31
208.037	22.36
208.255	-22.7
208.474	-20.65
208.693	71.51
208.911	-26.79
209.13	-2.22
209.349	-4.27
209.567	77.65
209.786	-34.99
210.005	55.12
210.223	14.17
210.442	67.41
210.661	28.5
210.879	120.66
211.098	28.5
211.316	81.75
211.535	57.17
211.753	-24.75
211.972	94.04
212.191	44.88
212.409	42.84
212.628	32.6
212.846	28.5
213.065	44.88
213.283	18.26
213.502	75.6
213.72	22.36
213.938	46.93
214.157	14.17
214.375	-8.36
214.594	-10.41
214.812	53.08
215.031	32.6
215.249	65.36
215.467	44.88
215.686	-20.65
215.904	145.24
216.122	98.13
216.341	36.69
216.559	3.93
216.778	57.17
216.996	67.41
217.214	77.65
217.432	53.08
217.651	53.08
217.869	55.12
218.087	36.69
218.306	-0.17
218.524	69.46
218.742	28.5
218.96	85.84
219.179	85.84
219.397	32.6
219.615	75.6
219.833	-0.17
220.051	36.69
220.27	161.62
220.488	-14.51
220.706	46.93
220.924	8.02
221.142	3.93
221.36	-45.23
221.578	118.61
221.796	61.27
222.015	16.21
222.233	3.93
222.451	79.7
222.669	-28.84
222.887	55.12
223.105	3.93
223.323	51.03
223.541	5.97
223.759	69.46
223.977	-4.27
224.195	71.51
224.413	26.45
224.631	38.74
224.849	-57.51
225.067	120.66
225.285	-32.94
225.503	36.69
225.721	-30.89
225.939	75.6
226.157	5.97
226.375	102.23
226.592	36.69
226.81	30.55
227.028	71.51
227.246	128.85
227.464	40.79
227.682	71.51
227.9	30.55
228.117	53.08
228.335	-37.03
228.553	12.12
228.771	55.12
228.989	-18.6
229.206	3.93
229.424	-82.09
229.642	-55.47
229.86	71.51
230.077	85.84
230.295	30.55
230.513	18.26
230.731	26.45
230.948	57.17
231.166	69.46
231.384	1.88
231.601	16.21
231.819	69.46
232.037	-18.6
232.254	-20.65
232.472	53.08
232.689	-12.46
232.907	51.03
233.125	63.32
233.342	14.17
233.56	-16.55
233.777	22.36
233.995	44.88
234.213	118.61
234.43	69.46
234.648	-4.27
234.865	-6.31
235.083	-20.65
235.3	-20.65
235.518	-4.27
235.735	12.12
235.953	44.88
236.17	24.4
236.388	28.5
236.605	8.02
236.822	81.75
237.04	22.36
237.257	-10.41
237.475	22.36
237.692	-8.36
237.909	-53.42
238.127	-37.03
238.344	79.7
238.562	106.32
238.779	3.93
238.996	-41.13
239.214	10.07
239.431	36.69
239.648	-2.22
239.865	63.32
240.083	89.94
240.3	-39.08
240.517	-18.6
240.735	36.69
240.952	59.22
241.169	1.88
241.386	34.64
241.603	36.69
241.821	-12.46
242.038	20.31
242.255	61.27
242.472	-8.36
242.689	16.21
242.907	77.65
243.124	61.27
243.341	3.93
243.558	-14.51
243.775	16.21
243.992	-67.75
244.209	-28.84
244.426	46.93
244.643	53.08
244.86	1.88
245.078	22.36
245.295	94.04
245.512	-65.71
245.729	-18.6
245.946	61.27
246.163	40.79
246.38	40.79
246.597	34.64
246.814	63.32
247.031	53.08
247.248	28.5
247.464	83.8
247.681	53.08
247.898	36.69
248.115	69.46
248.332	20.31
248.549	75.6
248.766	40.79
248.983	44.88
249.2	-82.09
249.417	10.07
249.633	53.08
249.85	61.27
250.067	-10.41
250.284	94.04
250.501	14.17
250.717	30.55
250.934	-34.99
251.151	-18.6
251.368	26.45
251.585	8.02
251.801	-28.84
252.018	32.6
252.235	16.21
252.451	40.79
252.668	53.08
252.885	24.4
253.102	81.75
253.318	77.65
253.535	3.93
253.752	-10.41
253.968	22.36
254.185	28.5
254.401	36.69
254.618	30.55
254.835	40.79
255.051	122.71
255.268	61.27
255.484	106.32
255.701	81.75
255.917	12.12
256.134	30.55
256.351	-12.46
256.567	55.12
256.784	59.22
257	-16.55
257.217	85.84
257.433	-12.46
257.65	-8.36
257.866	12.12
258.082	18.26
258.299	20.31
258.515	67.41
258.732	-24.75
258.948	20.31
259.165	16.21
259.381	-65.71
259.597	24.4
259.814	-26.79
260.03	32.6
260.246	69.46
260.463	48.98
260.679	-43.18
260.895	28.5
261.112	18.26
261.328	-22.7
261.544	-30.89
261.761	91.99
261.977	14.17
262.193	-34.99
262.409	-4.27
262.626	-8.36
262.842	-2.22
263.058	16.21
263.274	40.79
263.49	63.32
263.707	-28.84
263.923	44.88
264.139	46.93
264.355	-0.17
264.571	69.46
264.787	-14.51
265.004	3.93
265.22	12.12
265.436	20.31
265.652	69.46
265.868	30.55
266.084	1.88
266.3	30.55
266.516	18.26
266.732	24.4
266.948	16.21
267.164	73.56
267.38	55.12
267.596	5.97
267.812	-26.79
268.028	28.5
268.244	-6.31
268.46	75.6
268.676	-0.17
268.892	67.41
269.108	-4.27
269.324	-6.31
269.54	-28.84
269.756	32.6
269.972	22.36
270.188	34.64
270.403	-4.27
270.619	30.55
270.835	-4.27
271.051	48.98
271.267	-12.46
271.483	65.36
271.698	30.55
271.914	77.65
272.13	61.27
272.346	38.74
272.562	-0.17
272.777	20.31
272.993	3.93
273.209	122.71
273.425	3.93
273.64	12.12
273.856	32.6
274.072	-12.46
274.287	-26.79
274.503	14.17
274.719	38.74
274.934	5.97
275.15	12.12
275.366	8.02
275.581	-43.18
275.797	-10.41
276.012	18.26
276.228	63.32
276.444	69.46
276.659	69.46
276.875	3.93
277.09	32.6
277.306	18.26
277.521	75.6
277.737	-43.18
277.952	67.41
278.168	44.88
278.383	69.46
278.599	3.93
278.814	8.02
279.03	77.65
279.245	65.36
279.461	55.12
279.676	77.65
279.892	-4.27
280.107	-26.79
280.322	63.32
280.538	5.97
280.753	38.74
280.969	22.36
281.184	-0.17
281.399	32.6
281.615	-4.27
281.83	24.4
282.045	81.75
282.26	8.02
282.476	8.02
282.691	-20.65
282.906	3.93
283.122	57.17
283.337	-53.42
283.552	32.6
283.767	28.5
283.983	110.42
284.198	-51.37
284.413	40.79
284.628	51.03
284.843	20.31
285.058	69.46
285.274	3.93
285.489	-45.23
285.704	104.28
285.919	18.26
286.134	-2.22
286.349	48.98
286.564	34.64
286.779	55.12
286.995	36.69
287.21	20.31
287.425	79.7
287.64	-4.27
287.855	-12.46
288.07	-37.03
288.285	61.27
288.5	28.5
288.715	30.55
288.93	22.36
289.145	-4.27
289.36	42.84
289.575	-30.89
289.79	69.46
290.004	18.26
290.219	61.27
290.434	55.12
290.649	16.21
290.864	-12.46
291.079	-16.55
291.294	36.69
291.509	65.36
291.724	46.93
291.938	20.31
292.153	61.27
292.368	3.93
292.583	-14.51
292.798	87.89
293.012	-53.42
293.227	5.97
293.442	12.12
293.657	69.46
293.871	89.94
294.086	30.55
294.301	110.42
294.516	28.5
294.73	-57.51
294.945	22.36
295.16	-16.55
295.374	36.69
295.589	69.46
295.804	-43.18
296.018	-24.75
296.233	67.41
296.447	81.75
296.662	12.12
296.877	69.46
297.091	20.31
297.306	-4.27
297.52	73.56
297.735	-16.55
297.949	14.17
298.164	24.4
298.378	24.4
298.593	-57.51
298.807	-14.51
299.022	38.74
299.236	-69.8
299.451	28.5
299.665	-53.42
299.88	69.46
300.094	79.7
300.309	12.12
300.523	3.93
300.737	3.93
300.952	8.02
301.166	36.69
301.381	28.5
301.595	-18.6
301.809	-24.75
302.024	1.88
302.238	57.17
302.452	3.93
302.667	32.6
302.881	106.32
303.095	63.32
303.309	53.08
303.524	-2.22
303.738	53.08
303.952	32.6
304.166	34.64
304.381	-45.23
304.595	61.27
304.809	38.74
305.023	77.65
305.237	36.69
305.452	-2.22
305.666	63.32
305.88	22.36
306.094	-10.41
306.308	83.8
306.522	61.27
306.736	40.79
306.95	55.12
307.164	12.12
307.379	8.02
307.593	40.79
307.807	36.69
308.021	32.6
308.235	87.89
308.449	-4.27
308.663	32.6
308.877	87.89
309.091	24.4
309.305	81.75
309.519	-41.13
309.733	12.12
309.947	-45.23
310.161	44.88
310.374	32.6
310.588	3.93
310.802	12.12
311.016	26.45
311.23	61.27
311.444	-77.99
311.658	-4.27
311.872	-14.51
312.085	12.12
312.299	24.4
312.513	36.69
312.727	59.22
312.941	-49.32
313.154	48.98
313.368	61.27
313.582	44.88
313.796	30.55
314.009	-26.79
314.223	108.37
314.437	53.08
314.651	-2.22
314.864	3.93
315.078	-4.27
315.292	34.64
315.505	55.12
315.719	-6.31
315.933	106.32
316.146	53.08
316.36	44.88
316.573	77.65
316.787	22.36
317.001	-24.75
317.214	-8.36
317.428	69.46
317.641	-28.84
317.855	73.56
318.068	20.31
318.282	-32.94
318.495	77.65
318.709	20.31
318.922	-18.6
319.136	65.36
319.349	-16.55
319.563	-8.36
319.776	42.84
319.99	-51.37
320.203	14.17
320.417	20.31
320.63	65.36
320.843	16.21
321.057	42.84
321.27	46.93
321.483	53.08
321.697	71.51
321.91	81.75
322.124	79.7
322.337	44.88
322.55	20.31
322.763	-16.55
322.977	30.55
323.19	-28.84
323.403	42.84
323.617	94.04
323.83	34.64
324.043	55.12
324.256	-4.27
324.469	22.36
324.683	122.71
324.896	57.17
325.109	79.7
325.322	-37.03
325.535	36.69
325.748	73.56
325.962	-28.84
326.175	71.51
326.388	18.26
326.601	96.08
326.814	46.93
327.027	34.64
327.24	57.17
327.453	-34.99
327.666	44.88
327.879	32.6
328.092	-2.22
328.305	-41.13
328.518	-2.22
328.731	-43.18
328.944	55.12
329.157	20.31
329.37	-10.41
329.583	14.17
329.796	91.99
330.009	28.5
330.222	-12.46
330.435	42.84
330.648	85.84
330.861	30.55
331.073	71.51
331.286	63.32
331.499	71.51
331.712	-0.17
331.925	-28.84
332.138	46.93
332.35	83.8
332.563	-8.36
332.776	155.47
332.989	3.93
333.202	-18.6
333.414	10.07
333.627	77.65
333.84	22.36
334.053	-49.32
334.265	53.08
334.478	-57.51
334.691	8.02
334.903	32.6
335.116	28.5
335.329	3.93
335.541	5.97
335.754	18.26
335.966	-8.36
336.179	16.21
336.392	-28.84
336.604	16.21
336.817	40.79
337.029	48.98
337.242	108.37
337.454	57.17
337.667	-41.13
337.88	40.79
338.092	3.93
338.305	16.21
338.517	85.84
338.729	96.08
338.942	-49.32
339.154	-37.03
339.367	57.17
339.579	22.36
339.792	44.88
340.004	24.4
340.217	3.93
340.429	81.75
340.641	14.17
340.854	-22.7
341.066	12.12
341.278	57.17
341.491	22.36
341.703	67.41
341.915	28.5
342.128	77.65
342.34	61.27
342.552	14.17
342.764	63.32
342.977	12.12
343.189	-4.27
343.401	22.36
343.613	3.93
343.826	63.32
344.038	-6.31
344.25	8.02
344.462	40.79
344.674	48.98
344.886	98.13
345.099	16.21
345.311	24.4
345.523	-10.41
345.735	30.55
345.947	61.27
346.159	53.08
346.371	-2.22
346.583	8.02
346.795	24.4
347.007	-18.6
347.219	12.12
347.431	12.12
347.643	34.64
347.855	-4.27
348.067	143.19
348.279	-51.37
348.491	44.88
348.703	-20.65
348.915	24.4
349.127	12.12
349.339	46.93
349.551	3.93
349.763	69.46
349.975	79.7
350.187	44.88
350.399	18.26
350.61	36.69
350.822	-26.79
351.034	73.56
351.246	65.36
351.458	44.88
351.669	32.6
351.881	108.37
352.093	63.32
352.305	71.51
352.517	63.32
352.728	81.75
352.94	83.8
353.152	14.17
353.363	30.55
353.575	51.03
353.787	-12.46
353.999	5.97
354.21	94.04
354.422	34.64
354.633	61.27
354.845	20.31
355.057	-4.27
355.268	94.04
355.48	28.5
355.692	30.55
355.903	67.41
356.115	-37.03
356.326	-20.65
356.538	94.04
356.749	-34.99
356.961	63.32
357.172	-20.65
357.384	94.04
357.595	139.09
357.807	-8.36
358.018	44.88
358.23	38.74
358.441	94.04
358.653	96.08
358.864	8.02
359.075	30.55
359.287	106.32
359.498	38.74
359.709	-14.51
359.921	63.32
360.132	61.27
360.344	55.12
360.555	46.93
360.766	48.98
360.977	24.4
361.189	104.28
361.4	28.5
361.611	34.64
361.823	20.31
362.034	-26.79
362.245	26.45
362.456	55.12
362.667	79.7
362.879	-12.46
363.09	73.56
363.301	38.74
363.512	-69.8
363.723	44.88
363.935	-0.17
364.146	26.45
364.357	44.88
364.568	61.27
364.779	-51.37
364.99	83.8
365.201	-12.46
365.412	71.51
365.623	44.88
365.834	-20.65
366.045	-18.6
366.256	36.69
366.467	36.69
366.678	14.17
366.889	67.41
367.1	38.74
367.311	77.65
367.522	44.88
367.733	32.6
367.944	-0.17
368.155	-37.03
368.366	44.88
368.577	63.32
368.788	114.52
368.999	36.69
369.209	24.4
369.42	36.69
369.631	135
369.842	-16.55
370.053	20.31
370.264	124.76
370.474	-37.03
370.685	57.17
370.896	-20.65
371.107	30.55
371.317	-20.65
371.528	53.08
371.739	102.23
371.95	20.31
372.16	8.02
372.371	53.08
372.582	28.5
372.792	106.32
373.003	16.21
373.214	-4.27
373.424	85.84
373.635	-20.65
373.846	53.08
374.056	3.93
374.267	51.03
374.477	112.47
374.688	-26.79
374.898	-20.65
375.109	55.12
375.319	110.42
375.53	42.84
375.74	51.03
375.951	12.12
376.161	32.6
376.372	63.32
376.582	55.12
376.793	104.28
377.003	40.79
377.214	104.28
377.424	85.84
377.635	20.31
377.845	79.7
378.055	61.27
378.266	22.36
378.476	61.27
378.686	102.23
378.897	53.08
379.107	114.52
379.317	112.47
379.528	14.17
379.738	182.1
379.948	12.12
380.158	91.99
380.369	61.27
380.579	83.8
380.789	40.79
380.999	128.85
381.21	65.36
381.42	53.08
381.63	20.31
381.84	126.8
382.05	83.8
382.261	94.04
382.471	73.56
382.681	28.5
382.891	98.13
383.101	77.65
383.311	20.31
383.521	55.12
383.731	77.65
383.941	48.98
384.151	-2.22
384.361	36.69
384.571	63.32
384.781	114.52
384.991	53.08
385.201	69.46
385.411	145.24
385.621	63.32
385.831	-22.7
386.041	104.28
386.251	24.4
386.461	73.56
386.671	38.74
386.881	77.65
387.091	-18.6
387.301	55.12
387.511	28.5
387.72	14.17
387.93	61.27
388.14	-12.46
388.35	-28.84
388.56	63.32
388.769	94.04
388.979	104.28
389.189	69.46
389.399	36.69
389.609	3.93
389.818	151.38
390.028	28.5
390.238	12.12
390.447	16.21
390.657	104.28
390.867	102.23
391.076	87.89
391.286	55.12
391.496	-24.75
391.705	44.88
391.915	48.98
392.125	61.27
392.334	28.5
392.544	53.08
392.753	53.08
392.963	22.36
393.172	124.76
393.382	73.56
393.591	61.27
393.801	48.98
394.01	94.04
394.22	48.98
394.429	77.65
394.639	53.08
394.848	44.88
395.058	126.8
395.267	53.08
395.477	73.56
395.686	63.32
395.895	128.85
396.105	126.8
396.314	155.47
396.524	120.66
396.733	87.89
396.942	110.42
397.152	83.8
397.361	98.13
397.57	-28.84
397.78	122.71
397.989	96.08
398.198	175.95
398.407	77.65
398.617	61.27
398.826	12.12
399.035	61.27
399.244	94.04
399.453	63.32
399.663	77.65
399.872	63.32
400.081	63.32
400.29	171.86
400.499	44.88
400.708	200.53
400.917	24.4
401.127	63.32
401.336	75.6
401.545	145.24
401.754	137.04
401.963	163.67
402.172	112.47
402.381	108.37
402.59	104.28
402.799	180.05
403.008	73.56
403.217	73.56
403.426	46.93
403.635	85.84
403.844	102.23
404.053	77.65
404.262	126.8
404.471	130.9
404.68	175.95
404.888	165.71
405.097	116.56
405.306	36.69
405.515	110.42
405.724	100.18
405.933	155.47
406.142	184.15
406.35	94.04
406.559	190.29
406.768	208.72
406.977	227.15
407.185	208.72
407.394	202.58
407.603	118.61
407.812	208.72
408.02	192.34
408.229	194.39
408.438	221.01
408.646	159.57
408.855	159.57
409.064	233.3
409.272	159.57
409.481	266.07
409.69	218.96
409.898	259.92
410.107	276.31
410.315	274.26
410.524	171.86
410.733	284.5
410.941	237.39
411.15	290.64
411.358	276.31
411.567	413.52
411.775	343.89
411.984	356.18
412.192	327.5
412.401	397.14
412.609	358.22
412.818	429.9
413.026	470.86
413.234	520.01
413.443	474.96
413.651	458.57
413.86	511.82
414.068	569.16
414.276	585.55
414.485	571.21
414.693	546.64
414.901	552.78
415.11	581.45
415.318	569.16
415.526	651.08
415.734	651.08
415.943	702.28
416.151	745.29
416.359	704.33
416.567	726.86
416.776	782.15
416.984	859.98
417.192	868.17
417.4	823.11
417.608	792.39
417.817	778.06
418.025	962.37
418.233	1029.96
418.441	986.95
418.649	995.14
418.857	1060.68
419.065	1154.88
419.273	1081.16
419.481	1210.18
419.689	1226.56
419.897	1335.1
420.105	1363.78
420.313	1283.91
420.521	1429.31
420.729	1439.55
420.937	1390.4
421.145	1421.12
421.353	1619.77
421.561	1648.44
421.769	1707.84
421.977	1771.32
422.185	1703.74
422.393	1849.15
422.601	1929.02
422.809	1978.17
423.017	1922.87
423.224	2019.13
423.432	2150.2
423.64	2078.52
423.848	2314.03
424.056	2219.83
424.263	2297.65
424.471	2451.25
424.679	2461.49
424.887	2479.92
425.094	2717.48
425.302	2625.33
425.51	2912.04
425.718	2838.31
425.925	2922.28
426.133	3024.68
426.341	3106.6
426.548	3268.39
426.756	3266.34
426.964	3354.4
427.171	3510.05
427.379	3731.23
427.586	3591.97
427.794	3858.2
428.001	3993.37
428.209	4118.29
428.417	3876.63
428.624	4222.74
428.832	4353.81
429.039	4200.21
429.247	4210.45
429.454	4597.52
429.662	5097.22
429.869	4787.98
430.076	5000.97
430.284	4837.13
430.491	5101.32
430.699	5218.05
430.906	5547.78
431.114	5406.47
431.321	5603.07
431.528	5740.29
431.736	6106.87
431.943	6360.82
432.15	6291.19
432.358	6360.82
432.565	6516.47
432.772	6532.85
432.979	6815.47
433.187	7067.37
433.394	7157.48
433.601	7425.76
433.808	7620.32
434.016	7509.73
434.223	7714.53
434.43	8242.9
434.637	8298.2
434.844	8750.8
435.052	8947.4
435.259	8785.62
435.466	8683.22
435.673	8775.38
435.88	9307.85
436.087	9901.76
436.294	9668.29
436.501	9533.12
436.708	9891.52
436.915	10116.79
437.122	10606.26
437.329	10489.53
437.537	10802.86
437.743	10911.41
437.95	10784.43
438.157	11470.5
438.364	11781.79
438.571	11839.14
438.778	11863.71
438.985	12963.47
439.192	12598.93
439.399	12910.22
439.606	12492.44
439.813	13450.89
440.02	14212.73
440.227	13811.33
440.433	13635.21
440.64	14184.06
440.847	14112.38
441.054	14415.48
441.261	15371.88
441.467	15085.17
441.674	15306.35
441.881	15726.18
442.088	15822.44
442.294	15765.09
442.501	16162.4
442.708	16305.76
442.914	17276.49
443.121	18187.84
443.328	17282.64
443.534	18517.56
443.741	18046.53
443.948	17690.18
444.154	18992.69
444.361	18939.44
444.568	19217.97
444.774	19017.27
444.981	18996.79
445.187	19793.45
445.394	20768.28
445.6	20571.68
445.807	22394.37
446.013	21347.86
446.22	21917.19
446.426	22599.16
446.633	22826.49
446.839	23553.52
447.046	22566.4
447.252	24014.31
447.459	24135.14
447.665	24210.92
447.871	25179.61
448.078	26148.29
448.284	24669.66
448.491	25529.81
448.697	26455.49
448.903	27098.55
449.11	26998.2
449.316	26301.89
449.522	26971.58
449.728	27907.5
449.935	28155.3
450.141	27942.31
450.347	28781.98
450.553	27811.24
450.76	28396.96
450.966	28947.87
451.172	28626.34
451.378	29402.52
451.584	28769.69
451.791	29932.94
451.997	29547.92
452.203	30180.74
452.409	30143.88
452.615	30229.9
452.821	28874.14
453.027	28681.63
453.233	30385.54
453.44	29210.01
453.646	29390.23
453.852	29570.45
454.058	29918.6
454.264	29050.27
454.47	29998.48
454.676	29027.74
454.882	30168.46
455.088	27585.97
455.294	27856.3
455.5	28431.78
455.705	28315.05
455.911	27606.45
456.117	27016.63
456.323	26922.43
456.529	25382.35
456.735	26312.13
456.941	25855.43
457.147	25361.87
457.352	24538.59
457.558	24182.24
457.764	24378.85
457.97	24188.39
458.176	23473.65
458.381	23782.89
458.587	22375.94
458.793	22468.09
458.999	21329.42
459.204	22824.44
459.41	22136.32
459.616	20923.93
459.821	20794.9
460.027	20393.5
460.233	20284.96
460.438	19103.28
460.644	19607.08
460.85	18648.63
461.055	18419.26
461.261	18382.4
461.466	16758.36
461.672	16496.22
461.878	17688.14
462.083	16381.53
462.289	15838.82
462.494	15799.91
462.7	15312.49
462.905	14997.1
463.111	15398.51
463.316	15418.99
463.522	15046.26
463.727	15070.83
463.932	15029.87
464.138	14829.17
464.343	15068.78
464.549	14376.57
464.754	15142.51
464.959	14667.38
465.165	14499.45
465.37	14042.75
465.575	13973.12
465.781	14372.47
465.986	14558.84
466.191	13758.08
466.397	13454.98
466.602	12979.86
466.807	13448.84
467.012	13295.24
467.218	13301.39
467.423	13207.18
467.628	13244.04
467.833	13731.46
468.038	13215.37
468.244	12977.81
468.449	13450.89
468.654	13049.49
468.859	12928.66
469.064	12689.04
469.269	12250.78
469.474	12404.38
469.679	12813.97
469.885	12242.59
470.09	12490.39
470.295	12357.27
470.5	12136.09
470.705	12048.03
470.91	11841.18
471.115	11792.03
471.32	12039.84
471.525	11800.23
471.73	11656.87
471.935	11595.43
472.139	11144.88
472.344	11321
472.549	11427.49
472.754	10978.99
472.959	10860.21
473.164	10632.88
473.369	10587.83
473.574	10989.23
473.778	10657.46
473.983	10796.72
474.188	10770.1
474.393	10272.44
474.598	10196.67
474.802	10186.43
475.007	10098.36
475.212	10440.37
475.417	9916.09
475.621	9709.25
475.826	9686.72
476.031	9473.73
476.235	9402.05
476.44	9537.22
476.645	9123.53
476.849	9457.35
477.054	9131.72
477.259	9144.01
477.463	9174.73
477.668	9041.61
477.872	9080.52
478.077	8820.43
478.282	8558.29
478.486	8552.15
478.691	8507.09
478.895	8369.88
479.1	8435.41
479.304	8466.13
479.509	8132.31
479.713	8466.13
479.918	8023.77
480.122	7984.86
480.326	8236.76
480.531	8150.74
480.735	7788.25
480.94	7855.84
481.144	8107.74
481.348	7759.58
481.553	8013.53
481.757	7745.25
481.961	7917.28
482.166	8050.39
482.37	7884.51
482.574	7743.2
482.778	7909.08
482.983	7788.25
483.187	7722.72
483.391	7900.89
483.595	7720.67
483.8	7661.28
484.004	7802.59
484.208	7773.92
484.412	7911.13
484.616	7720.67
484.821	7794.4
485.025	7648.99
485.229	7843.55
485.433	7589.6
485.637	7802.59
485.841	7634.66
486.045	7640.8
486.249	7745.25
486.453	7835.36
486.657	7892.7
486.861	7786.21
487.065	7581.41
487.269	7737.06
487.473	7605.99
487.677	7765.73
487.881	7679.71
488.085	7765.73
488.289	7741.15
488.493	7644.9
488.697	7663.33
488.901	7732.96
489.105	7876.32
489.309	7753.44
489.512	7687.9
489.716	7794.4
489.92	8068.83
490.124	7804.64
490.328	8064.73
490.531	7753.44
490.735	7919.32
490.939	7986.91
491.143	7900.89
491.346	7943.9
491.55	8081.11
491.754	8187.61
491.958	8160.98
492.161	8115.93
492.365	8238.81
492.569	8283.86
492.772	8179.42
492.976	8206.04
493.18	8167.13
493.383	8449.75
493.587	8298.2
493.79	8345.3
493.994	8345.3
494.197	8576.72
494.401	8670.93
494.605	8554.19
494.808	8703.7
495.012	8736.46
495.215	8670.93
495.419	8896.21
495.622	8754.9
495.825	8892.11
496.029	9111.24
496.232	9154.25
496.436	9199.3
496.639	9357
496.843	9101
497.046	9414.34
497.249	9307.85
497.453	9735.87
497.656	9651.91
497.859	9643.71
498.063	9748.16
498.266	9776.83
498.469	10016.44
498.673	10116.79
498.876	10481.33
499.079	10270.39
499.282	10229.43
499.485	10544.82
499.689	10653.36
499.892	10714.8
500.095	10671.79
500.298	11077.29
500.501	10958.51
500.705	11427.49
500.908	11388.58
501.111	11617.96
501.314	11617.96
501.517	11636.39
501.72	11765.41
501.923	11769.51
502.126	12088.99
502.329	12185.24
502.532	12310.17
502.735	12322.46
502.938	12596.89
503.141	12652.18
503.344	12850.83
503.547	12942.99
503.75	12986
503.953	13295.24
504.156	13016.72
504.359	13653.64
504.562	13553.29
504.765	13692.55
504.968	14098.05
505.17	14184.06
505.373	14329.47
505.576	14374.52
505.779	14732.92
505.982	14679.67
506.185	14923.38
506.387	15011.44
506.59	15101.55
506.793	15500.9
506.996	15423.08
507.198	15855.2
507.401	15560.3
507.604	15857.25
507.807	16313.95
508.009	16332.38
508.212	16698.97
508.415	16916.05
508.617	17020.5
508.82	16725.59
509.022	16772.69
509.225	17514.06
509.428	17274.45
509.63	17600.07
509.833	17604.17
510.035	18392.64
510.238	17706.57
510.44	18247.23
510.643	18492.99
510.845	18669.11
511.048	18550.33
511.25	18882.1
511.453	19066.42
511.655	19836.45
511.858	19295.79
512.06	19689
512.262	19820.07
512.465	19906.09
512.667	20196.9
512.87	20221.47
513.072	20557.34
513.274	20762.14
513.477	20782.62
513.679	21413.39
513.881	21282.32
514.084	21624.33
514.286	21540.36
514.488	21620.24
514.69	22253.06
514.893	22691.32
515.095	22287.87
515.297	22599.16
515.499	22877.69
515.701	23082.49
515.904	23383.54
516.106	23594.48
516.308	23733.74
516.51	23987.69
516.712	24233.44
516.914	24260.07
517.116	24948.18
517.318	24868.31
517.52	25062.87
517.722	24960.47
517.925	25310.68
518.127	25875.91
518.329	25705.93
518.531	25871.82
518.733	26236.36
518.935	26308.04
519.136	26435.01
519.338	27102.65
519.54	27186.61
519.742	27112.89
519.944	27295.16
520.146	27805.1
520.348	27979.18
520.55	27895.21
520.752	28386.72
520.954	28716.45
521.155	28374.44
521.357	28712.35
521.559	28847.52
521.761	29283.73
521.963	29617.55
522.164	29494.68
522.366	29470.1
522.568	29848.97
522.77	30397.83
522.971	30848.38
523.173	30365.06
523.375	30598.53
523.576	30848.38
523.778	30848.38
523.98	31657.33
524.181	30936.45
524.383	31432.05
524.584	31931.76
524.786	31798.64
524.988	31788.4
525.189	32128.36
525.391	32462.18
525.592	32417.13
525.794	33072.48
525.995	32816.48
526.197	32740.71
526.398	33158.49
526.6	33244.51
526.801	33338.71
527.003	33430.87
527.204	33666.39
527.406	33439.06
527.607	33625.43
527.808	34100.56
528.01	33295.71
528.211	33621.33
528.412	34524.49
528.614	34125.13
528.815	34049.36
529.016	34876.74
529.218	34686.28
529.419	34850.11
529.62	34639.17
529.822	34493.77
530.023	34839.87
530.224	34792.77
530.425	34655.56
530.626	34741.57
530.828	34551.11
531.029	35441.98
531.23	35110.21
531.431	35081.53
531.632	35355.96
531.833	35020.09
532.035	34878.79
532.236	35394.87
532.437	35372.35
532.638	35298.62
532.839	35208.51
533.04	35583.29
533.241	35237.18
533.442	35968.3
533.643	35611.96
533.844	35591.48
534.045	35599.67
534.246	35564.85
534.447	35728.69
534.648	35331.39
534.849	35515.7
535.05	35679.54
535.251	35659.06
535.451	35476.79
535.652	35880.24
535.853	35548.47
536.054	35444.02
536.255	36005.17
536.456	35521.85
536.657	35943.73
536.857	35478.84
537.058	35458.36
537.259	35710.26
537.46	35824.95
537.66	35669.3
537.861	35728.69
538.062	35419.45
538.263	35931.44
538.463	35585.33
538.664	35659.06
538.865	35218.75
539.065	35890.48
539.266	35341.63
539.466	35700.02
539.667	35231.04
539.868	36031.79
540.068	35712.31
540.269	35462.46
540.469	36046.13
540.67	35519.8
540.87	35575.09
541.071	35347.77
541.271	35571
541.472	35374.39
541.672	35642.68
541.873	35228.99
542.073	35165.5
542.274	35683.64
542.474	35323.19
542.675	35302.71
542.875	35863.86
543.075	35620.15
543.276	35149.12
543.476	35734.84
543.676	35317.05
543.877	35663.16
544.077	35300.67
544.277	35814.71
544.478	35335.48
544.678	35554.61
544.878	35454.26
545.078	35507.51
545.279	35325.24
545.479	35075.39
545.679	35335.48
545.879	35190.08
546.079	35210.56
546.28	35581.24
546.48	34635.08
546.68	35257.66
546.88	35300.67
547.08	35269.95
547.28	35368.25
547.48	34886.98
547.68	35265.85
547.88	35261.76
548.081	35669.3
548.281	35261.76
548.481	35253.56
548.681	35681.59
548.881	34917.7
549.081	35116.35
549.28	35042.62
549.48	35272
549.68	35284.28
549.88	35427.64
550.08	34968.9
550.28	35343.67
550.48	35140.93
550.68	35200.32
550.88	35407.16
551.08	34929.98
551.279	35169.6
551.479	35116.35
551.679	34880.83
551.879	34749.76
552.079	35292.47
552.278	34686.28
552.478	34983.23
552.678	34923.84
552.878	35300.67
553.077	34596.17
553.277	34622.79
553.477	35212.6
553.676	34428.23
553.876	34825.54
554.076	34579.78
554.275	34960.7
554.475	34438.47
554.674	34692.42
554.874	34456.9
555.074	34657.6
555.273	34536.77
555.473	34934.08
555.672	34397.51
555.872	34569.54
556.071	34487.62
556.271	34268.49
556.47	34600.26
556.67	33940.82
556.869	34176.33
557.068	34575.69
557.268	34157.9
557.467	34075.98
557.667	34258.25
557.866	33914.19
558.065	34123.08
558.265	33969.49
558.464	33740.11
558.663	34379.08
558.863	33678.68
559.062	34397.51
559.261	33643.86
559.461	33934.67
559.66	33670.48
559.859	33613.14
560.058	33363.29
560.258	33684.82
560.457	33283.42
560.656	33891.66
560.855	33346.9
561.054	33529.17
561.253	32947.55
561.453	33400.15
561.652	33641.81
561.851	33539.41
562.05	33437.02
562.249	33154.4
562.448	33477.97
562.647	33285.47
562.846	33123.68
563.045	33328.47
563.244	32781.67
563.443	33047.9
563.642	32548.2
563.841	32566.63
564.04	32654.69
564.239	33140.06
564.438	32542.05
564.637	32763.23
564.836	33045.85
565.035	32300.39
565.234	32470.37
565.432	32208.23
565.631	32167.27
565.83	32343.4
566.029	31870.32
566.228	31882.61
566.427	31876.46
566.625	31898.99
566.824	31337.85
567.023	31722.87
567.222	31139.19
567.42	31837.55
567.619	31636.85
567.818	31421.81
568.016	31497.59
568.215	31235.45
568.414	31305.08
568.612	31489.4
568.811	31145.34
569.01	31174.01
569.208	31063.42
569.407	31087.99
569.605	30571.91
569.804	31065.47
570.002	30328.2
570.201	30885.25
570.4	30422.41
570.598	30508.42
570.797	30387.59
570.995	30424.45
571.193	30002.57
571.392	30684.55
571.59	30088.59
571.789	29894.03
571.987	30078.35
572.186	30047.63
572.384	30238.09
572.582	30012.81
572.781	29697.42
572.979	29799.82
573.177	29486.48
573.376	29783.44
573.574	29418.9
573.772	29896.08
573.971	29339.03
574.169	29111.71
574.367	29066.65
574.565	29349.27
574.763	29091.23
574.962	28835.23
575.16	28741.02
575.358	29105.56
575.556	28702.11
575.754	29005.21
575.952	28470.69
576.151	28868
576.349	28255.65
576.547	28235.17
576.745	28452.26
576.943	28177.83
577.141	28480.93
577.339	28589.47
577.537	28124.58
577.735	27995.56
577.933	27788.72
578.131	27934.12
578.329	27706.8
578.527	27356.6
578.725	27659.7
578.923	27428.27
579.121	27585.97
579.319	27280.82
579.516	27487.67
579.714	27493.81
579.912	27084.22
580.11	27291.06
580.308	26940.86
580.506	27108.79
580.704	26893.75
580.901	26840.51
581.099	27280.82
581.297	26932.67
581.495	26609.09
581.692	26482.11
581.89	26295.75
582.088	26561.98
582.285	26449.35
582.483	26549.7
582.681	26277.32
582.878	26158.53
583.076	26078.66
583.274	26416.58
583.471	25992.65
583.669	26002.89
583.866	25720.27
584.064	26117.57
584.262	25667.02
584.459	25785.8
584.657	25808.33
584.854	25673.17
585.052	25249.24
585.249	25370.07
585.447	25736.65
585.644	25341.39
585.841	25269.72
586.039	25400.79
586.236	24860.12
586.434	25263.57
586.631	24866.27
586.828	25077.21
587.026	25159.13
587.223	25083.35
587.42	24659.42
587.618	25138.65
587.815	24507.87
588.012	24395.23
588.21	24241.64
588.407	24692.19
588.604	24270.31
588.801	24483.3
588.999	24501.73
589.196	23893.48
589.393	24053.22
589.59	24002.02
589.787	23920.1
589.984	23725.55
590.182	23551.47
590.379	23582.19
590.576	23416.3
590.773	23567.85
590.97	23217.65
591.167	23436.78
591.364	23320.05
591.561	23475.7
591.758	22801.91
591.955	23418.35
592.152	23379.44
592.349	22887.93
592.546	23105.01
592.743	22869.5
592.94	22482.43
593.137	22707.71
593.334	23021.05
593.531	22314.5
593.727	22816.25
593.924	22756.86
594.121	22269.44
594.318	22531.58
594.515	22128.13
594.712	22398.46
594.908	22144.52
595.105	22294.02
595.302	22103.56
595.499	22033.93
595.696	21964.29
595.892	21753.35
596.089	21949.96
596.286	21954.05
596.482	21788.17
596.679	21761.55
596.876	21528.08
597.072	21581.32
597.269	21534.22
597.466	21171.73
597.662	21448.21
597.859	21581.32
598.055	21087.76
598.252	21098
598.448	21190.16
598.645	20862.49
598.841	20739.61
599.038	20954.65
599.234	21179.92
599.431	20801.05
599.627	20606.49
599.824	20637.21
600.02	20592.16
600.217	20782.62
600.413	20385.31
600.609	20428.32
600.806	20323.87
601.002	20409.89
601.198	20026.92
601.395	20317.73
601.591	20102.69
601.787	20010.53
601.984	19783.21
602.18	20170.27
602.376	19932.71
602.572	19844.65
602.769	19828.26
602.965	19820.07
603.161	19580.46
603.357	19342.89
603.553	19738.15
603.75	19516.97
603.946	19369.52
604.142	19504.68
604.338	19215.92
604.534	19109.43
604.73	19189.3
604.926	19129.91
605.122	18914.87
605.318	18961.97
605.514	18697.78
605.71	19056.18
605.906	18861.62
606.102	18742.84
606.298	18916.92
606.494	18540.09
606.69	18855.48
606.886	18894.39
607.082	18349.63
607.278	18789.94
607.474	18230.85
607.67	18470.46
607.866	17872.45
608.062	18538.04
608.257	18355.77
608.453	18314.81
608.649	18028.1
608.845	18030.15
609.041	18005.57
609.236	18060.87
609.432	18075.2
609.628	18060.87
609.824	18044.48
610.019	17964.61
610.215	17675.85
610.411	17638.98
610.606	17946.18
610.802	17817.16
610.998	17772.1
611.193	17690.18
611.389	17716.81
611.584	17573.45
611.78	17354.32
611.976	17735.24
612.171	17649.22
612.367	17495.63
612.562	17419.85
612.758	17229.39
612.953	17491.53
613.149	17426
613.344	17374.8
613.539	17417.8
613.735	17118.8
613.93	17405.52
614.126	17147.47
614.321	17307.21
614.517	17026.64
614.712	17020.5
614.907	16901.72
615.103	17208.91
615.298	16787.03
615.493	17100.37
615.688	16864.85
615.884	17178.19
616.079	16797.27
616.274	17059.41
616.47	16823.89
616.665	16729.69
616.86	16531.03
617.055	16639.58
617.25	16787.03
617.445	16596.57
617.641	16336.48
617.836	16438.87
618.031	16303.71
618.226	16356.96
618.421	16240.22
618.616	16463.45
618.811	16205.41
619.006	16311.9
619.201	15910.5
619.396	16113.25
619.591	15887.97
619.786	16084.58
619.981	15505
620.176	15634.02
620.371	15650.41
620.566	15455.85
620.761	15402.6
620.956	15666.79
621.151	15369.83
621.346	15451.75
621.541	15324.78
621.735	15593.06
621.93	14954.1
622.125	15091.31
622.32	15122.03
622.515	14954.1
622.709	14788.21
622.904	14677.62
623.099	14667.38
623.294	14888.56
623.488	14392.95
623.683	14384.76
623.878	14415.48
624.072	14282.36
624.267	14268.03
624.462	14317.18
624.656	14036.61
624.851	13946.5
625.046	13842.05
625.24	13854.34
625.435	13790.85
625.629	13526.66
625.824	13563.53
626.018	13586.05
626.213	13454.98
626.407	13393.54
626.602	13268.62
626.796	13356.68
626.991	13471.37
627.185	13205.13
627.38	13139.6
627.574	13069.97
627.768	12893.84
627.963	13010.57
628.157	12797.59
628.352	12717.72
628.546	12775.06
628.74	12562.07
628.935	12576.41
629.129	12613.27
629.323	12471.96
629.517	12248.73
629.712	12291.74
629.906	12156.57
630.1	11957.92
630.294	11968.16
630.489	12115.61
630.683	11933.34
630.877	11837.09
631.071	11849.38
631.265	11882.14
631.459	11640.48
631.653	11783.84
631.848	11665.06
632.042	11445.93
632.236	11490.98
632.43	11581.09
632.624	11423.4
632.818	11202.22
633.012	11148.97
633.206	11267.75
633.4	11277.99
633.594	11202.22
633.788	11052.72
633.982	11005.61
634.176	11075.24
634.369	10782.38
634.563	10716.85
634.757	10747.57
634.951	10620.6
635.145	10526.39
635.339	10661.55
635.533	10639.03
635.726	10563.25
635.92	10333.88
636.114	10325.69
636.308	10225.34
636.501	10376.89
636.695	10213.05
636.889	10260.15
637.083	10036.92
637.276	10227.39
637.47	9981.63
637.664	9862.85
637.857	9887.42
638.051	9754.3
638.244	9858.75
638.438	9770.69
638.632	9735.87
638.825	9719.49
639.019	9486.02
639.212	9432.77
639.406	9514.69
639.599	9416.39
639.793	9416.39
639.986	9178.83
640.18	9184.97
640.373	9129.67
640.567	9158.35
640.76	9270.98
640.954	9129.67
641.147	8916.69
641.34	8992.46
641.534	8990.41
641.727	8953.55
641.92	8849.1
642.114	8722.13
642.307	8756.94
642.5	8668.88
642.694	8529.62
642.887	8556.24
643.08	8566.48
643.273	8734.42
643.467	8392.41
643.66	8500.95
643.853	8316.63
644.046	8220.38
644.239	8318.68
644.432	8220.38
644.626	8287.96
644.819	8013.53
645.012	8244.95
645.205	8048.35
645.398	8220.38
645.591	7919.32
645.784	7956.19
645.977	7859.93
646.17	7859.93
646.363	7851.74
646.556	7622.37
646.749	7786.21
646.942	7622.37
647.135	7673.57
647.328	7419.62
647.521	7728.86
647.714	7438.05
647.907	7548.64
648.099	7397.09
648.292	7442.15
648.485	7499.49
648.678	7446.24
648.871	7403.24
649.064	7225.06
649.256	7444.2
649.449	7206.63
649.642	7171.82
649.835	6919.92
650.027	7089.9
650.22	6981.35
650.413	6838
650.605	6887.15
650.798	7063.27
650.991	6878.96
651.183	6823.66
651.376	6909.68
651.568	6885.1
651.761	6794.99
651.954	6731.5
652.146	6711.02
652.339	6811.37
652.531	6559.47
652.724	6418.16
652.916	6633.2
653.109	6547.19
653.301	6416.12
653.494	6405.88
653.686	6315.76
653.879	6565.62
654.071	6350.58
654.263	6182.65
654.456	6336.24
654.648	6239.99
654.84	6239.99
655.033	6080.25
655.225	6256.37
655.417	6000.38
655.61	6049.53
655.802	6027
655.994	5871.36
656.186	6108.92
656.379	5994.23
656.571	5934.84
656.763	5914.36
656.955	5867.26
657.148	6070.01
657.34	5701.37
657.532	5531.39
657.724	5732.09
657.916	5742.33
658.108	5684.99
658.3	5717.76
658.492	5560.06
658.684	5463.81
658.876	5555.97
659.068	5443.33
659.26	5484.29
659.452	5345.03
659.644	5519.11
659.836	5408.51
660.028	5361.41
660.22	5345.03
660.412	5490.43
660.604	5156.61
660.796	5238.53
660.988	5394.18
661.18	5074.7
661.372	5263.11
661.563	5164.81
661.755	5156.61
661.947	5121.8
662.139	4976.39
662.331	4992.78
662.522	4830.99
662.714	4935.43
662.906	4976.39
663.097	4931.34
663.289	4839.18
663.481	4986.63
663.673	4861.71
663.864	4724.49
664.056	4816.65
664.247	4845.32
664.439	4710.16
664.631	4603.66
664.822	4843.28
665.014	4790.03
665.205	4648.72
665.397	4595.47
665.588	4675.34
665.78	4585.23
665.971	4521.74
666.163	4392.72
666.354	4493.07
666.546	4425.49
666.737	4329.24
666.929	4521.74
667.12	4339.48
667.311	4413.2
667.503	4321.04
667.694	4384.53
667.885	4333.33
668.077	4345.62
668.268	4235.03
668.459	4163.35
668.651	4235.03
668.842	4235.03
669.033	4134.68
669.224	4235.03
669.416	4175.64
669.607	4136.73
669.798	4067.1
669.989	4019.99
670.18	4015.9
670.371	4056.86
670.563	3968.79
670.754	4181.78
670.945	3878.68
671.136	4036.38
671.327	3952.41
671.518	3997.46
671.709	3970.84
671.9	3899.16
672.091	4030.23
672.282	3911.45
672.473	3835.67
672.664	3847.96
672.855	3856.15
673.046	3868.44
673.237	3845.91
673.428	3829.53
673.619	3897.11
673.809	3819.29
674	3682.08
674.191	3673.89
674.382	3510.05
674.573	3712.8
674.764	3649.31
674.954	3651.36
675.145	3573.53
675.336	3624.73
675.527	3536.67
675.717	3620.64
675.908	3616.54
676.099	3544.86
676.289	3542.82
676.48	3591.97
676.671	3585.82
676.861	3551.01
677.052	3411.75
677.243	3471.14
677.433	3479.33
677.624	3536.67
677.814	3524.38
678.005	3508
678.195	3387.17
678.386	3473.18
678.576	3419.94
678.767	3436.32
678.957	3350.31
679.148	3493.66
679.338	3309.35
679.529	3323.68
679.719	3200.8
679.909	3399.46
680.1	3272.48
680.29	3288.87
680.481	3254.05
680.671	3256.1
680.861	3256.1
681.052	3215.14
681.242	3133.22
681.432	3331.87
681.622	3065.64
681.813	3079.97
682.003	3190.56
682.193	3059.49
682.383	3118.89
682.573	3159.85
682.764	3139.37
682.954	3247.91
683.144	3053.35
683.334	3090.21
683.524	3145.51
683.714	3010.34
683.904	3114.79
684.094	3034.92
684.284	3116.84
684.474	3055.4
684.664	3073.83
684.854	3100.45
685.044	3010.34
685.234	2981.67
685.424	3151.65
685.614	2879.27
685.804	2942.76
685.994	3022.63
686.184	2887.47
686.374	2936.62
686.564	2940.71
686.753	2871.08
686.943	2826.03
687.133	2887.47
687.323	2961.19
687.513	2830.12
687.702	2879.27
687.892	2805.55
688.082	2801.45
688.272	2783.02
688.461	2826.03
688.651	2864.94
688.841	2733.87
689.03	2731.82
689.22	2699.05
689.41	2817.83
689.599	2553.65
689.789	2670.38
689.979	2494.26
690.168	2467.63
690.358	2846.51
690.547	2752.3
690.737	2649.9
690.926	2643.76
691.116	2631.47
691.305	2672.43
691.495	2635.57
691.684	2557.74
691.874	2641.71
692.063	2617.13
692.252	2520.88
692.442	2492.21
692.631	2498.35
692.82	2477.87
693.01	2512.69
693.199	2510.64
693.388	2441.01
693.578	2398
693.767	2527.02
693.956	2588.46
694.146	2580.27
694.335	2471.73
694.524	2498.35
694.713	2463.54
694.902	2422.58
695.092	2527.02
695.281	2481.97
695.47	2428.72
695.659	2363.19
695.848	2510.64
696.037	2309.94
696.226	2422.58
696.415	2338.61
696.604	2354.99
696.793	2289.46
696.982	2195.25
697.171	2412.34
697.36	2301.75
697.549	2354.99
697.738	2357.04
697.927	2436.91
698.116	2330.42
698.305	2260.79
698.494	2242.36
698.683	2334.51
698.872	2301.75
699.061	2340.66
699.25	2221.88
699.438	2309.94
699.627	2363.19
699.816	2260.79
700.005	2117.43
700.193	2332.47
700.382	2305.84
700.571	2275.12
700.76	2281.27
700.948	2348.85
701.137	2170.68
701.326	2266.93
701.514	2166.58
701.703	2209.59
701.892	2264.88
702.08	2215.73
702.269	2105.14
702.457	2168.63
702.646	2271.03
702.834	2101.05
703.023	2217.78
703.212	2178.87
703.4	2228.02
703.589	2162.48
703.777	2107.19
703.965	2240.31
704.154	2185.01
704.342	2195.25
704.531	2187.06
704.719	2201.4
704.907	2111.29
705.096	2154.29
705.284	2207.54
705.472	2277.17
705.661	2176.82
705.849	2248.5
706.037	2225.97
706.226	2191.16
706.414	2115.38
706.602	2119.48
706.79	2203.44
706.979	2150.2
707.167	2084.66
707.355	2228.02
707.543	2234.16
707.731	2023.22
707.919	2068.28
708.107	2228.02
708.296	2045.75
708.484	2096.95
708.672	2035.51
708.86	2060.09
709.048	2088.76
709.236	2185.01
709.424	2142
709.612	2146.1
709.8	2125.62
709.988	2144.05
710.176	2076.47
710.364	2119.48
710.551	2176.82
710.739	2043.7
710.927	2090.81
711.115	2027.32
711.303	2123.57
711.491	2117.43
711.679	1922.87
711.866	2045.75
712.054	2137.91
712.242	2096.95
712.43	2207.54
712.617	2076.47
712.805	2027.32
712.993	2105.14
713.181	2101.05
713.368	2209.59
713.556	2119.48
713.744	2168.63
713.931	2058.04
714.119	2076.47
714.306	2146.1
714.494	2060.09
714.682	2051.89
714.869	2111.29
715.057	2109.24
715.244	1984.31
715.432	2113.33
715.619	2094.9
715.807	2082.61
715.994	2094.9
716.182	2068.28
716.369	2129.72
716.556	2076.47
716.744	2010.93
716.931	2127.67
717.119	2027.32
717.306	2131.76
717.493	2074.42
717.681	2066.23
717.868	2027.32
718.055	2117.43
718.242	2021.17
718.43	2076.47
718.617	1990.45
718.804	2084.66
718.991	2088.76
719.179	2099
719.366	2101.05
719.553	2094.9
719.74	2045.75
719.927	1978.17
720.114	2010.93
720.301	2133.81
720.488	2113.33
720.676	1998.65
720.863	2129.72
721.05	2072.37
721.237	1986.36
721.424	2076.47
721.611	2019.13
721.798	2076.47
721.985	2094.9
722.172	1978.17
722.358	1918.78
722.545	2086.71
722.732	2012.98
722.919	2072.37
723.106	1998.65
723.293	1910.58
723.48	2025.27
723.667	2051.89
723.853	1947.45
724.04	1994.55
724.227	2045.75
724.414	1992.5
724.6	1955.64
724.787	1939.26
724.974	1996.6
725.161	2002.74
725.347	1863.48
725.534	2053.94
725.72	1986.36
725.907	2049.85
726.094	1908.54
726.28	2105.14
726.467	1929.02
726.653	2092.85
726.84	2027.32
727.027	2094.9
727.213	2002.74
727.4	1986.36
727.586	1883.96
727.773	2010.93
727.959	2150.2
728.145	2039.61
728.332	1910.58
728.518	2103.09
728.705	1982.26
728.891	1976.12
729.077	1974.07
729.264	1916.73
729.45	1892.15
729.636	2178.87
729.823	1933.11
730.009	2029.37
730.195	1920.82
730.382	2039.61
730.568	1931.06
730.754	1929.02
730.94	1978.17
731.126	1924.92
731.313	2060.09
731.499	2006.84
731.685	1947.45
731.871	1924.92
732.057	2123.57
732.243	1986.36
732.429	1879.86
732.615	2041.65
732.801	1890.1
732.987	1924.92
733.173	1920.82
733.359	1961.78
733.545	2041.65
733.731	1875.77
733.917	2015.03
734.103	1933.11
734.289	1974.07
734.475	1943.35
734.661	1937.21
734.847	2062.13
735.033	2041.65
735.219	1955.64
735.404	1840.95
735.59	2047.8
735.776	1814.33
735.962	1797.95
736.148	1787.71
736.333	1888.06
736.519	1890.1
736.705	1926.97
736.89	1933.11
737.076	2047.8
737.262	1916.73
737.447	1877.82
737.633	1978.17
737.819	1939.26
738.004	1883.96
738.19	1797.95
738.375	1871.67
738.561	1931.06
738.747	1849.15
738.932	1849.15
739.118	1867.58
739.303	1822.52
739.489	1718.08
739.674	1851.19
739.859	1877.82
740.045	1812.28
740.23	1781.56
740.416	1795.9
740.601	1744.7
740.786	1777.47
740.972	1771.32
741.157	1744.7
741.342	1785.66
741.528	1791.8
741.713	1716.03
741.898	1601.34
742.084	1789.75
742.269	1716.03
742.454	1754.94
742.639	1744.7
742.824	1756.99
743.01	1808.19
743.195	1838.91
743.38	1759.03
743.565	1759.03
743.75	1722.17
743.935	1748.79
744.12	1732.41
744.305	1703.74
744.49	1746.75
744.675	1648.44
744.86	1597.24
745.045	1627.96
745.23	1679.16
745.415	1634.11
745.6	1650.49
745.785	1544
745.97	1576.77
746.155	1677.12
746.34	1658.68
746.525	1595.2
746.71	1507.13
746.895	1578.81
747.079	1568.57
747.264	1380.16
747.449	1554.24
747.634	1574.72
747.819	1380.16
748.003	1507.13
748.188	1511.23
748.373	1494.85
748.557	1560.38
748.742	1519.42
748.927	1447.74
749.111	1511.23
749.296	1423.17
749.481	1500.99
749.665	1507.13
749.85	1363.78
750.034	1470.27
750.219	1462.08
750.404	1443.65
750.588	1421.12
750.773	1406.78
750.957	1386.3
751.141	1341.25
751.326	1388.35
751.51	1318.72
751.695	1318.72
751.879	1300.29
752.064	1412.93
752.248	1357.63
752.432	1396.54
752.617	1234.75
752.801	1345.34
752.985	1382.21
753.17	1316.67
753.354	1390.4
753.538	1355.58
753.722	1257.28
753.907	1242.95
754.091	1224.51
754.275	1240.9
754.459	1337.15
754.643	1232.71
754.828	1154.88
755.012	1185.6
755.196	1093.44
755.38	1224.51
755.564	1218.37
755.748	1208.13
755.932	1201.99
756.116	1185.6
756.3	1216.32
756.484	1136.45
756.668	1158.98
756.852	1122.12
757.036	1109.83
757.22	1120.07
757.404	1079.11
757.588	948.04
757.772	1122.12
757.956	1075.01
758.14	1087.3
758.323	1044.29
758.507	980.81
758.691	982.85
758.875	1038.15
759.059	1054.53
759.242	1042.25
759.426	980.81
759.61	1038.15
759.794	1089.35
759.977	986.95
760.161	1025.86
760.345	1003.33
760.528	1032.01
760.712	970.57
760.895	931.66
761.079	954.18
761.263	970.57
761.446	939.85
761.63	980.81
761.813	966.47
761.997	909.13
762.18	849.74
762.364	954.18
762.547	872.26
762.731	956.23
762.914	917.32
763.098	915.27
763.281	929.61
763.464	870.22
763.648	898.89
763.831	921.42
764.015	948.04
764.198	839.5
764.381	970.57
764.564	864.07
764.748	900.94
764.931	898.89
765.114	819.02
765.297	982.85
765.481	800.59
765.664	857.93
765.847	880.46
766.03	954.18
766.213	859.98
766.397	749.39
766.58	755.53
766.763	819.02
766.946	925.51
767.129	866.12
767.312	919.37
767.495	773.96
767.678	896.84
767.861	814.92
768.044	884.55
768.227	788.3
768.41	808.78
768.593	724.81
768.776	790.35
768.959	814.92
769.142	855.88
769.324	773.96
769.507	841.54
769.69	757.58
769.873	792.39
770.056	835.4
770.239	790.35
770.421	808.78
770.604	698.19
770.787	741.19
770.97	751.43
771.152	753.48
771.335	810.82
771.518	788.3
771.7	753.48
771.883	773.96
772.066	698.19
772.248	669.52
772.431	831.3
772.613	745.29
772.796	677.71
772.978	733
773.161	724.81
773.343	722.76
773.526	667.47
773.708	683.85
773.891	612.17
774.073	649.04
774.256	679.75
774.438	675.66
774.621	724.81
774.803	692.04
774.985	630.6
775.168	704.33
775.35	659.28
775.532	663.37
775.715	638.8
775.897	696.14
776.079	710.47
776.261	563.02
776.444	663.37
776.626	628.56
776.808	612.17
776.99	671.56
777.173	655.18
777.355	587.6
777.537	626.51
777.719	603.98
777.901	692.04
778.083	573.26
778.265	634.7
778.447	610.12
778.629	569.16
778.811	595.79
778.993	610.12
779.175	636.75
779.357	569.16
779.539	589.64
779.721	593.74
779.903	503.63
780.085	487.25
780.267	546.64
780.449	569.16
780.631	532.3
780.812	485.2
780.994	548.68
781.176	595.79
781.358	487.25
781.54	485.2
781.721	520.01
781.903	552.78
782.085	495.44
782.267	491.34
782.448	399.18
782.63	544.59
782.812	491.34
782.993	542.54
783.175	466.77
783.357	474.96
783.538	544.59
783.72	456.53
783.901	452.43
784.083	448.33
784.264	511.82
784.446	513.87
784.627	440.14
784.809	472.91
784.99	513.87
785.172	472.91
785.353	399.18
785.535	513.87
785.716	462.67
785.897	374.61
786.079	390.99
786.26	347.98
786.441	372.56
786.623	374.61
786.804	429.9
786.985	372.56
787.167	421.71
787.348	386.9
787.529	380.75
787.71	403.28
787.891	356.18
788.073	282.45
788.254	319.31
788.435	464.72
788.616	350.03
788.797	364.37
788.978	302.93
789.159	382.8
789.34	325.46
789.522	356.18
789.703	374.61
789.884	335.7
790.065	282.45
790.246	397.14
790.427	282.45
790.607	376.66
790.788	347.98
790.969	368.46
791.15	294.74
791.331	257.87
791.512	307.02
791.693	282.45
791.874	294.74
792.054	333.65
792.235	347.98
792.416	288.59
792.597	298.83
792.778	315.22
792.958	341.84
793.139	304.98
793.32	393.04
793.5	249.68
793.681	343.89
793.862	266.07
794.042	276.31
794.223	241.49
794.404	249.68
794.584	178
794.765	253.78
794.945	274.26
795.126	298.83
795.306	229.2
795.487	304.98
795.667	223.06
795.848	298.83
796.028	247.63
796.209	249.68
796.389	321.36
796.57	282.45
796.75	302.93
796.93	243.54
797.111	251.73
797.291	223.06
797.471	261.97
797.652	180.05
797.832	266.07
798.012	243.54
798.192	221.01
798.373	223.06
798.553	208.72
798.733	255.83
798.913	231.25
799.093	251.73
799.274	221.01
799.454	241.49
799.634	171.86
799.814	173.91
799.994	257.87
800.174	237.39
800.354	249.68
800.534	194.39
800.714	231.25
800.894	210.77
801.074	216.91
801.254	145.24
801.434	274.26
801.614	180.05
801.794	145.24
801.974	864.07
802.154	216.91
802.334	235.35
802.514	251.73
802.693	292.69
802.873	235.35
803.053	223.06
803.233	204.63
803.413	208.72
803.592	233.3
803.772	147.28
803.952	202.58
804.131	143.19
804.311	204.63
804.491	241.49
804.67	135
804.85	194.39
805.03	184.15
805.209	255.83
805.389	126.8
805.568	237.39
805.748	169.81
805.928	200.53
806.107	163.67
806.287	204.63
806.466	151.38
806.646	200.53
806.825	221.01
807.004	139.09
807.184	171.86
807.363	200.53
807.543	169.81
807.722	184.15
807.901	139.09
808.081	218.96
808.26	169.81
808.439	175.95
808.619	143.19
808.798	130.9
808.977	128.85
809.156	200.53
809.336	208.72
809.515	200.53
809.694	98.13
809.873	98.13
810.052	198.48
810.231	141.14
810.411	200.53
810.59	120.66
810.769	171.86
810.948	171.86
811.127	112.47
811.306	130.9
811.485	79.7
811.664	175.95
811.843	130.9
812.022	159.57
812.201	126.8
812.38	175.95
812.559	141.14
812.737	135
812.916	114.52
813.095	126.8
813.274	192.34
813.453	157.52
813.632	114.52
813.811	112.47
813.989	73.56
814.168	77.65
814.347	194.39
814.526	110.42
814.704	85.84
814.883	169.81
815.062	124.76
815.24	151.38
815.419	79.7
815.598	118.61
815.776	63.32
815.955	79.7
816.133	120.66
816.312	155.47
816.49	130.9
816.669	167.76
816.847	69.46
817.026	151.38
817.204	89.94
817.383	124.76
817.561	67.41
817.74	42.84
817.918	130.9
818.097	151.38
818.275	77.65
818.453	102.23
818.632	91.99
818.81	135
818.988	135
819.167	51.03
819.345	102.23
819.523	128.85
819.701	114.52
819.879	94.04
820.058	102.23
820.236	48.98
820.414	83.8
820.592	108.37
820.77	91.99
820.948	102.23
821.127	118.61
821.305	85.84
821.483	161.62
821.661	151.38
821.839	83.8
822.017	122.71
822.195	118.61
822.373	85.84
822.551	85.84
822.729	153.43
822.907	135
823.085	63.32
823.262	102.23
823.44	77.65
823.618	102.23
823.796	71.51
823.974	118.61
824.152	118.61
824.329	81.75
824.507	143.19
824.685	79.7
824.863	24.4
825.04	53.08
825.218	120.66
825.396	98.13
825.574	151.38
825.751	73.56
825.929	104.28
826.107	61.27
826.284	79.7
826.462	96.08
826.639	81.75
826.817	69.46
826.994	184.15
827.172	87.89
827.349	153.43
827.527	94.04
827.704	118.61
827.882	48.98
828.059	40.79
828.237	83.8
828.414	98.13
828.591	3.93
828.769	85.84
828.946	40.79
829.124	151.38
829.301	81.75
829.478	53.08
829.655	61.27
829.833	112.47
830.01	3.93
830.187	55.12
830.364	28.5
830.542	175.95
830.719	126.8
830.896	169.81
831.073	20.31
831.25	135
831.427	161.62
831.604	46.93
831.782	-34.99
831.959	69.46
832.136	-34.99
832.313	20.31
832.49	44.88
832.667	34.64
832.844	96.08
833.021	137.04
833.198	28.5
833.374	110.42
833.551	71.51
833.728	69.46
833.905	38.74
834.082	57.17
834.259	8.02
834.436	130.9
834.612	16.21
834.789	20.31
834.966	-6.31
835.143	30.55
835.319	40.79
835.496	85.84
835.673	106.32
835.85	124.76
836.026	73.56
836.203	61.27
836.38	20.31
836.556	44.88
836.733	22.36
836.909	44.88
837.086	12.12
837.262	20.31
837.439	12.12
837.616	-14.51
837.792	26.45
837.968	32.6
838.145	-47.27
838.321	57.17
838.498	53.08
838.674	46.93
838.851	3.93
839.027	44.88
839.203	94.04
839.38	42.84
839.556	-41.13
839.732	34.64
839.909	34.64
840.085	38.74
840.261	65.36
840.437	71.51
840.614	26.45
840.79	102.23
840.966	65.36
841.142	38.74
841.318	55.12
841.494	26.45
841.671	61.27
841.847	65.36
842.023	57.17
842.199	20.31
842.375	42.84
842.551	-28.84
842.727	34.64
842.903	85.84
843.079	-28.84
843.255	73.56
843.431	14.17
843.607	44.88
843.783	-24.75
843.959	12.12
844.134	114.52
844.31	87.89
844.486	32.6
844.662	120.66
844.838	53.08
845.013	20.31
845.189	65.36
845.365	77.65
845.541	46.93
845.716	126.8
845.892	96.08
846.068	57.17
846.244	69.46
846.419	67.41
846.595	10.07
846.77	51.03
846.946	57.17
847.122	30.55
847.297	-10.41
847.473	69.46
847.648	40.79
847.824	36.69
847.999	-26.79
848.175	77.65
848.35	-53.42
848.526	-12.46
848.701	36.69
848.876	44.88
849.052	73.56
849.227	63.32
849.403	73.56
849.578	106.32
849.753	28.5
849.929	87.89
850.104	-0.17
850.279	-12.46
850.454	73.56
850.63	102.23
850.805	38.74
850.98	16.21
851.155	-2.22
851.33	77.65
851.505	-53.42
851.681	102.23
851.856	36.69
852.031	98.13
852.206	61.27
852.381	-2.22
852.556	-18.6
852.731	-6.31
852.906	46.93
853.081	63.32
853.256	40.79
853.431	94.04
853.606	-28.84
853.781	55.12
853.956	-26.79
854.131	89.94
854.305	-12.46
854.48	63.32
854.655	-0.17
854.83	-2.22
855.005	53.08
855.18	36.69
855.354	57.17
855.529	-26.79
855.704	-12.46
855.879	-2.22
856.053	81.75
856.228	40.79
856.403	-55.47
856.577	69.46
856.752	46.93
856.926	-2.22
857.101	16.21
857.276	14.17
857.45	-69.8
857.625	71.51
857.799	14.17
857.974	38.74
858.148	-30.89
858.323	-2.22
858.497	38.74
858.672	46.93
858.846	24.4
859.02	-12.46
859.195	12.12
859.369	48.98
859.543	-4.27
859.718	5.97
859.892	48.98
860.066	3.93
860.241	-24.75
860.415	-10.41
860.589	12.12
860.763	28.5
860.938	18.26
861.112	59.22
861.286	32.6
861.46	-4.27
861.634	38.74
861.808	71.51
861.982	118.61
862.157	40.79
862.331	14.17
862.505	67.41
862.679	-18.6
862.853	38.74
863.027	-18.6
863.201	28.5
863.375	61.27
863.549	71.51
863.722	30.55
863.896	75.6
864.07	94.04
864.244	12.12
864.418	-4.27
864.592	3.93
864.766	-4.27
864.939	3.93
865.113	12.12
865.287	118.61
865.461	-32.94
865.634	-71.85
865.808	-45.23
865.982	12.12
866.156	-2.22
866.329	-4.27
866.503	53.08
866.676	12.12
866.85	10.07
867.024	-14.51
867.197	40.79
867.371	14.17
867.544	16.21
867.718	-0.17
867.891	-0.17
868.065	28.5
868.238	61.27
868.412	10.07
868.585	16.21
868.759	20.31
868.932	55.12
869.105	34.64
869.279	3.93
869.452	-12.46
869.625	28.5
869.799	-43.18
869.972	-4.27
870.145	-16.55
870.319	5.97
870.492	-24.75
870.665	12.12
870.838	-32.94
871.011	28.5
871.185	104.28
871.358	-20.65
871.531	44.88
871.704	28.5
871.877	-20.65
872.05	-16.55
872.223	16.21
872.396	63.32
872.569	1.88
872.742	-59.56
872.915	-0.17
873.088	-32.94
873.261	-0.17
873.434	-30.89
873.607	12.12
873.78	12.12
873.953	-45.23
874.126	-37.03
874.299	40.79
874.471	-30.89
874.644	38.74
874.817	5.97
874.99	106.32
875.163	-2.22
875.335	44.88
875.508	20.31
875.681	10.07
875.853	32.6
876.026	42.84
876.199	63.32
876.371	85.84
876.544	81.75
876.717	-2.22
876.889	53.08
877.062	8.02
877.234	-0.17
877.407	8.02
877.579	3.93
877.752	-37.03
877.924	-43.18
878.097	-28.84
878.269	57.17
878.442	22.36
878.614	108.37
878.786	-20.65
878.959	-0.17
879.131	-32.94
879.303	-45.23
879.476	3.93
879.648	51.03
879.82	36.69
879.993	14.17
880.165	20.31
880.337	30.55
880.509	65.36
880.681	-75.95
880.854	20.31
881.026	-32.94
881.198	20.31
881.37	-2.22
881.542	-8.36
881.714	3.93
881.886	-20.65
882.058	3.93
882.23	-28.84
882.402	-2.22
882.574	63.32
882.746	-20.65
882.918	16.21
883.09	53.08
883.262	5.97
883.434	44.88
883.606	3.93
883.778	5.97
883.95	14.17
884.122	32.6
884.293	1.88
884.465	-77.99
884.637	48.98
884.809	53.08
884.98	-6.31
885.152	24.4
885.324	-8.36
885.496	-59.56
885.667	30.55
885.839	-41.13
886.011	91.99
886.182	-34.99
886.354	51.03
886.525	-18.6
886.697	-37.03
886.869	-12.46
887.04	-53.42
887.212	8.02
887.383	46.93
887.555	-37.03
887.726	-65.71
887.897	-6.31
888.069	-22.7
888.24	38.74
888.412	20.31
888.583	14.17
888.754	81.75
888.926	-20.65
889.097	85.84
889.268	-20.65
889.44	63.32
889.611	20.31
889.782	-18.6
889.953	-20.65
890.125	128.85
890.296	40.79
890.467	3.93
890.638	-51.37
890.809	67.41
890.98	83.8
891.151	-20.65
891.323	-26.79
891.494	24.4
891.665	-32.94
891.836	-4.27
892.007	-0.17
892.178	40.79
892.349	61.27
892.52	-84.14
892.691	51.03
892.862	-4.27
893.032	-32.94
893.203	20.31
893.374	8.02
893.545	57.17
893.716	12.12
893.887	55.12
894.057	-20.65
894.228	-2.22
894.399	30.55
894.57	-2.22
894.74	-43.18
894.911	28.5
895.082	5.97
895.253	22.36
895.423	-24.75
895.594	36.69
895.764	-20.65
895.935	73.56
896.106	-34.99
896.276	-53.42
896.447	-22.7
896.617	44.88
896.788	-12.46
896.958	30.55
897.129	3.93
897.299	-12.46
897.47	36.69
897.64	14.17
897.81	-43.18
897.981	32.6
898.151	-32.94
898.322	-8.36
898.492	-4.27
898.662	12.12
898.832	-45.23
899.003	-28.84
899.173	48.98
899.343	-39.08
899.513	-53.42
