Data from USB4F104151__42__14-42-56-883.txt Node

Date: Thu Mar 13 14:42:56 EDT 2025
User: louis
Spectrometer: USB4F10415
Trigger mode: 4
Integration Time (sec): 2.000000E-2
Scans to average: 1
Electric dark correction enabled: true
Nonlinearity correction enabled: false
Boxcar width: 0
XAxis mode: Wavelengths
Number of Pixels in Spectrum: 3648
>>>>>Begin Spectral Data<<<<<
178.204	-131.75
178.424	-131.75
178.644	-131.75
178.864	-117.42
179.084	-127.66
179.304	-8.87
179.524	17.75
179.744	-27.31
179.964	36.18
180.184	46.42
180.404	-25.26
180.624	-51.88
180.844	15.7
181.064	-17.07
181.283	34.13
181.503	-82.6
181.723	62.8
181.943	-107.18
182.163	56.66
182.383	-37.55
182.602	44.37
182.822	7.51
183.042	-8.87
183.262	3.41
183.482	13.65
183.701	68.95
183.921	40.28
184.141	-53.93
184.361	116.05
184.58	23.89
184.8	64.85
185.02	-33.45
185.239	40.28
185.459	-23.21
185.679	93.52
185.898	-64.17
186.118	89.43
186.338	73.04
186.557	1.37
186.777	1.37
186.997	-29.35
187.216	-33.45
187.436	75.09
187.655	34.13
187.875	1.37
188.095	-17.07
188.314	83.28
188.534	44.37
188.753	-21.16
188.973	161.11
189.192	9.56
189.412	-4.78
189.631	-0.68
189.851	48.47
190.07	50.52
190.29	-45.74
190.509	15.7
190.729	42.32
190.948	118.1
191.168	130.39
191.387	52.56
191.607	-12.97
191.826	25.94
192.045	52.56
192.265	36.18
192.484	-12.97
192.704	-33.45
192.923	56.66
193.142	52.56
193.362	15.7
193.581	19.8
193.8	36.18
194.02	9.56
194.239	-8.87
194.458	130.39
194.678	27.99
194.897	66.9
195.116	23.89
195.335	73.04
195.555	9.56
195.774	7.51
195.993	19.8
196.212	7.51
196.432	15.7
196.651	48.47
196.87	15.7
197.089	97.62
197.308	44.37
197.528	64.85
197.747	42.32
197.966	-0.68
198.185	73.04
198.404	56.66
198.623	56.66
198.842	50.52
199.062	44.37
199.281	60.76
199.5	15.7
199.719	44.37
199.938	40.28
200.157	15.7
200.376	36.18
200.595	9.56
200.814	30.04
201.033	42.32
201.252	64.85
201.471	7.51
201.69	62.8
201.909	42.32
202.128	44.37
202.347	44.37
202.566	73.04
202.785	-6.83
203.004	-12.97
203.223	103.76
203.442	-21.16
203.661	-25.26
203.879	91.48
204.098	64.85
204.317	-49.83
204.536	-33.45
204.755	-21.16
204.974	17.75
205.193	21.84
205.411	52.56
205.63	-25.26
205.849	89.43
206.068	9.56
206.287	75.09
206.505	48.47
206.724	-37.55
206.943	46.42
207.162	-70.31
207.381	-4.78
207.599	79.19
207.818	50.52
208.037	-10.92
208.255	-68.27
208.474	-15.02
208.693	52.56
208.911	-0.68
209.13	52.56
209.349	-15.02
209.567	73.04
209.786	36.18
210.005	56.66
210.223	-43.69
210.442	-25.26
210.661	114
210.879	42.32
211.098	27.99
211.316	3.41
211.535	9.56
211.753	66.9
211.972	21.84
212.191	3.41
212.409	48.47
212.628	58.71
212.846	-6.83
213.065	34.13
213.283	-17.07
213.502	-51.88
213.72	-21.16
213.938	5.46
214.157	-8.87
214.375	128.34
214.594	-6.83
214.812	-41.64
215.031	48.47
215.249	-8.87
215.467	48.47
215.686	44.37
215.904	81.24
216.122	99.67
216.341	126.29
216.559	-15.02
216.778	11.61
216.996	23.89
217.214	36.18
217.432	-29.35
217.651	-8.87
217.869	42.32
218.087	15.7
218.306	95.57
218.524	56.66
218.742	48.47
218.96	-37.55
219.179	68.95
219.397	68.95
219.615	77.14
219.833	56.66
220.051	38.23
220.27	40.28
220.488	68.95
220.706	44.37
220.924	73.04
221.142	40.28
221.36	7.51
221.578	99.67
221.796	-6.83
222.015	-17.07
222.233	-39.59
222.451	40.28
222.669	15.7
222.887	66.9
223.105	-8.87
223.323	-74.41
223.541	-29.35
223.759	44.37
223.977	-33.45
224.195	32.08
224.413	81.24
224.631	146.77
224.849	3.41
225.067	60.76
225.285	40.28
225.503	-39.59
225.721	-12.97
225.939	-6.83
226.157	30.04
226.375	54.61
226.592	11.61
226.81	64.85
227.028	54.61
227.246	66.9
227.464	48.47
227.682	97.62
227.9	79.19
228.117	-12.97
228.335	-6.83
228.553	3.41
228.771	81.24
228.989	75.09
229.206	23.89
229.424	-25.26
229.642	23.89
229.86	-25.26
230.077	46.42
230.295	73.04
230.513	56.66
230.731	64.85
230.948	27.99
231.166	73.04
231.384	17.75
231.601	56.66
231.819	58.71
232.037	-49.83
232.254	-0.68
232.472	-23.21
232.689	68.95
232.907	17.75
233.125	1.37
233.342	30.04
233.56	56.66
233.777	-12.97
233.995	44.37
234.213	62.8
234.43	-25.26
234.648	97.62
234.865	5.46
235.083	89.43
235.3	48.47
235.518	126.29
235.735	122.2
235.953	27.99
236.17	46.42
236.388	58.71
236.605	48.47
236.822	64.85
237.04	36.18
237.257	97.62
237.475	32.08
237.692	52.56
237.909	58.71
238.127	-8.87
238.344	32.08
238.562	64.85
238.779	36.18
238.996	32.08
239.214	-8.87
239.431	146.77
239.648	15.7
239.865	23.89
240.083	130.39
240.3	40.28
240.517	-6.83
240.735	23.89
240.952	23.89
241.169	40.28
241.386	34.13
241.603	48.47
241.821	27.99
242.038	81.24
242.255	75.09
242.472	-35.5
242.689	19.8
242.907	77.14
243.124	34.13
243.341	34.13
243.558	40.28
243.775	-33.45
243.992	9.56
244.209	27.99
244.426	64.85
244.643	64.85
244.86	1.37
245.078	36.18
245.295	21.84
245.512	15.7
245.729	-8.87
245.946	-0.68
246.163	-29.35
246.38	19.8
246.597	44.37
246.814	-25.26
247.031	-0.68
247.248	56.66
247.464	34.13
247.681	-37.55
247.898	40.28
248.115	23.89
248.332	-39.59
248.549	154.96
248.766	36.18
248.983	60.76
249.2	79.19
249.417	83.28
249.633	13.65
249.85	7.51
250.067	27.99
250.284	60.76
250.501	40.28
250.717	40.28
250.934	15.7
251.151	40.28
251.368	-8.87
251.585	-31.4
251.801	-6.83
252.018	-12.97
252.235	101.72
252.451	-31.4
252.668	-19.11
252.885	64.85
253.102	48.47
253.318	118.1
253.535	27.99
253.752	25.94
253.968	122.2
254.185	52.56
254.401	60.76
254.618	-23.21
254.835	-25.26
255.051	60.76
255.268	114
255.484	42.32
255.701	21.84
255.917	21.84
256.134	-31.4
256.351	107.86
256.567	105.81
256.784	79.19
257	17.75
257.217	23.89
257.433	-47.79
257.65	68.95
257.866	48.47
258.082	50.52
258.299	15.7
258.515	23.89
258.732	97.62
258.948	-17.07
259.165	-10.92
259.381	32.08
259.597	-12.97
259.814	15.7
260.03	3.41
260.246	64.85
260.463	89.43
260.679	83.28
260.895	23.89
261.112	-31.4
261.328	89.43
261.544	36.18
261.761	44.37
261.977	-49.83
262.193	42.32
262.409	40.28
262.626	60.76
262.842	50.52
263.058	-64.17
263.274	73.04
263.49	48.47
263.707	85.33
263.923	87.38
264.139	50.52
264.355	19.8
264.571	64.85
264.787	-8.87
265.004	52.56
265.22	54.61
265.436	40.28
265.652	36.18
265.868	-31.4
266.084	-15.02
266.3	-12.97
266.516	23.89
266.732	15.7
266.948	9.56
267.164	73.04
267.38	50.52
267.596	-17.07
267.812	75.09
268.028	58.71
268.244	32.08
268.46	15.7
268.676	52.56
268.892	93.52
269.108	42.32
269.324	-12.97
269.54	60.76
269.756	-8.87
269.972	19.8
270.188	-2.73
270.403	-12.97
270.619	3.41
270.835	42.32
271.051	25.94
271.267	-12.97
271.483	-0.68
271.698	87.38
271.914	105.81
272.13	7.51
272.346	48.47
272.562	34.13
272.777	-2.73
272.993	64.85
273.209	-17.07
273.425	19.8
273.64	48.47
273.856	105.81
274.072	56.66
274.287	-39.59
274.503	79.19
274.719	23.89
274.934	48.47
275.15	21.84
275.366	107.86
275.581	-17.07
275.797	48.47
276.012	77.14
276.228	-25.26
276.444	64.85
276.659	130.39
276.875	-4.78
277.09	17.75
277.306	-0.68
277.521	81.24
277.737	23.89
277.952	40.28
278.168	48.47
278.383	30.04
278.599	58.71
278.814	83.28
279.03	64.85
279.245	105.81
279.461	9.56
279.676	83.28
279.892	19.8
280.107	48.47
280.322	25.94
280.538	48.47
280.753	17.75
280.969	-27.31
281.184	52.56
281.399	58.71
281.615	48.47
281.83	114
282.045	71
282.26	56.66
282.476	52.56
282.691	173.39
282.906	64.85
283.122	50.52
283.337	120.15
283.552	114
283.767	-31.4
283.983	83.28
284.198	30.04
284.413	93.52
284.628	-0.68
284.843	42.32
285.058	97.62
285.274	36.18
285.489	73.04
285.704	99.67
285.919	-2.73
286.134	34.13
286.349	-6.83
286.564	58.71
286.779	140.63
286.995	54.61
287.21	-21.16
287.425	52.56
287.64	40.28
287.855	42.32
288.07	66.9
288.285	34.13
288.5	56.66
288.715	89.43
288.93	50.52
289.145	-6.83
289.36	27.99
289.575	-45.74
289.79	87.38
290.004	3.41
290.219	-19.11
290.434	68.95
290.649	-45.74
290.864	56.66
291.079	48.47
291.294	60.76
291.509	1.37
291.724	58.71
291.938	-41.64
292.153	40.28
292.368	7.51
292.583	-33.45
292.798	77.14
293.012	56.66
293.227	64.85
293.442	-0.68
293.657	114
293.871	114
294.086	56.66
294.301	66.9
294.516	27.99
294.73	66.9
294.945	83.28
295.16	40.28
295.374	54.61
295.589	50.52
295.804	-27.31
296.018	52.56
296.233	89.43
296.447	109.91
296.662	3.41
296.877	64.85
297.091	138.58
297.306	13.65
297.52	11.61
297.735	56.66
297.949	36.18
298.164	71
298.378	32.08
298.593	56.66
298.807	46.42
299.022	34.13
299.236	64.85
299.451	-6.83
299.665	-31.4
299.88	5.46
300.094	60.76
300.309	105.81
300.523	-27.31
300.737	27.99
300.952	-0.68
301.166	48.47
301.381	13.65
301.595	32.08
301.809	73.04
302.024	66.9
302.238	79.19
302.452	73.04
302.667	15.7
302.881	99.67
303.095	109.91
303.309	30.04
303.524	3.41
303.738	40.28
303.952	9.56
304.166	25.94
304.381	-8.87
304.595	105.81
304.809	-82.6
305.023	83.28
305.237	15.7
305.452	23.89
305.666	58.71
305.88	71
306.094	15.7
306.308	32.08
306.522	64.85
306.736	77.14
306.95	-8.87
307.164	-6.83
307.379	-39.59
307.593	62.8
307.807	11.61
308.021	105.81
308.235	105.81
308.449	44.37
308.663	44.37
308.877	58.71
309.091	27.99
309.305	36.18
309.519	42.32
309.733	27.99
309.947	-80.55
310.161	15.7
310.374	89.43
310.588	85.33
310.802	15.7
311.016	1.37
311.23	99.67
311.444	58.71
311.658	-0.68
311.872	89.43
312.085	66.9
312.299	60.76
312.513	17.75
312.727	32.08
312.941	56.66
313.154	-8.87
313.368	142.68
313.582	25.94
313.796	95.57
314.009	1.37
314.223	77.14
314.437	32.08
314.651	27.99
314.864	7.51
315.078	21.84
315.292	15.7
315.505	-49.83
315.719	42.32
315.933	17.75
316.146	19.8
316.36	23.89
316.573	81.24
316.787	40.28
317.001	9.56
317.214	-78.51
317.428	75.09
317.641	-15.02
317.855	58.71
318.068	48.47
318.282	85.33
318.495	132.44
318.709	44.37
318.922	60.76
319.136	58.71
319.349	17.75
319.563	97.62
319.776	58.71
319.99	15.7
320.203	48.47
320.417	3.41
320.63	15.7
320.843	101.72
321.057	32.08
321.27	52.56
321.483	36.18
321.697	56.66
321.91	93.52
322.124	64.85
322.337	89.43
322.55	44.37
322.763	60.76
322.977	27.99
323.19	-98.99
323.403	83.28
323.617	77.14
323.83	17.75
324.043	32.08
324.256	40.28
324.469	23.89
324.683	71
324.896	64.85
325.109	-31.4
325.322	-29.35
325.535	48.47
325.748	95.57
325.962	15.7
326.175	32.08
326.388	58.71
326.601	91.48
326.814	56.66
327.027	77.14
327.24	87.38
327.453	-12.97
327.666	17.75
327.879	-0.68
328.092	32.08
328.305	32.08
328.518	25.94
328.731	56.66
328.944	40.28
329.157	64.85
329.37	3.41
329.583	99.67
329.796	32.08
330.009	66.9
330.222	7.51
330.435	-2.73
330.648	21.84
330.861	23.89
331.073	99.67
331.286	56.66
331.499	81.24
331.712	-4.78
331.925	-4.78
332.138	48.47
332.35	87.38
332.563	-10.92
332.776	75.09
332.989	-19.11
333.202	48.47
333.414	46.42
333.627	81.24
333.84	23.89
334.053	-17.07
334.265	77.14
334.478	44.37
334.691	1.37
334.903	32.08
335.116	19.8
335.329	75.09
335.541	64.85
335.754	169.3
335.966	-53.93
336.179	75.09
336.392	40.28
336.604	42.32
336.817	25.94
337.029	81.24
337.242	64.85
337.454	122.2
337.667	44.37
337.88	140.63
338.092	97.62
338.305	56.66
338.517	-31.4
338.729	128.34
338.942	77.14
339.154	42.32
339.367	81.24
339.579	11.61
339.792	19.8
340.004	101.72
340.217	75.09
340.429	75.09
340.641	54.61
340.854	34.13
341.066	73.04
341.278	132.44
341.491	93.52
341.703	95.57
341.915	-0.68
342.128	130.39
342.34	42.32
342.552	56.66
342.764	23.89
342.977	-2.73
343.189	140.63
343.401	62.8
343.613	38.23
343.826	73.04
344.038	99.67
344.25	42.32
344.462	66.9
344.674	42.32
344.886	-2.73
345.099	62.8
345.311	105.81
345.523	114
345.735	17.75
345.947	105.81
346.159	79.19
346.371	54.61
346.583	-25.26
346.795	124.24
347.007	52.56
347.219	32.08
347.431	83.28
347.643	105.81
347.855	91.48
348.067	101.72
348.279	73.04
348.491	73.04
348.703	-10.92
348.915	17.75
349.127	15.7
349.339	52.56
349.551	9.56
349.763	75.09
349.975	17.75
350.187	83.28
350.399	54.61
350.61	48.47
350.822	48.47
351.034	126.29
351.246	46.42
351.458	122.2
351.669	-8.87
351.881	40.28
352.093	111.96
352.305	66.9
352.517	-10.92
352.728	171.35
352.94	17.75
353.152	75.09
353.363	40.28
353.575	7.51
353.787	40.28
353.999	114
354.21	66.9
354.422	23.89
354.633	114
354.845	48.47
355.057	-4.78
355.268	58.71
355.48	73.04
355.692	32.08
355.903	23.89
356.115	-8.87
356.326	-2.73
356.538	140.63
356.749	30.04
356.961	48.47
357.172	64.85
357.384	-58.03
357.595	111.96
357.807	73.04
358.018	52.56
358.23	7.51
358.441	81.24
358.653	42.32
358.864	56.66
359.075	-17.07
359.287	27.99
359.498	89.43
359.709	114
359.921	17.75
360.132	38.23
360.344	48.47
360.555	23.89
360.766	114
360.977	5.46
361.189	128.34
361.4	56.66
361.611	81.24
361.823	-21.16
362.034	15.7
362.245	-19.11
362.456	83.28
362.667	44.37
362.879	9.56
363.09	64.85
363.301	71
363.512	85.33
363.723	34.13
363.935	27.99
364.146	81.24
364.357	-19.11
364.568	23.89
364.779	68.95
364.99	66.9
365.201	136.53
365.412	93.52
365.623	42.32
365.834	40.28
366.045	73.04
366.256	50.52
366.467	15.7
366.678	1.37
366.889	109.91
367.1	9.56
367.311	58.71
367.522	36.18
367.733	97.62
367.944	85.33
368.155	23.89
368.366	114
368.577	87.38
368.788	77.14
368.999	40.28
369.209	-15.02
369.42	19.8
369.631	173.39
369.842	56.66
370.053	11.61
370.264	107.86
370.474	77.14
370.685	-6.83
370.896	95.57
371.107	93.52
371.317	118.1
371.528	7.51
371.739	97.62
371.95	32.08
372.16	89.43
372.371	60.76
372.582	5.46
372.792	66.9
373.003	79.19
373.214	73.04
373.424	85.33
373.635	34.13
373.846	68.95
374.056	79.19
374.267	81.24
374.477	87.38
374.688	64.85
374.898	17.75
375.109	105.81
375.319	50.52
375.53	97.62
375.74	27.99
375.951	27.99
376.161	34.13
376.372	64.85
376.582	48.47
376.793	56.66
377.003	91.48
377.214	27.99
377.424	68.95
377.635	107.86
377.845	27.99
378.055	5.46
378.266	42.32
378.476	87.38
378.686	60.76
378.897	89.43
379.107	23.89
379.317	36.18
379.528	11.61
379.738	68.95
379.948	44.37
380.158	103.76
380.369	50.52
380.579	56.66
380.789	23.89
380.999	40.28
381.21	114
381.42	122.2
381.63	44.37
381.84	64.85
382.05	36.18
382.261	48.47
382.471	46.42
382.681	17.75
382.891	99.67
383.101	73.04
383.311	56.66
383.521	62.8
383.731	21.84
383.941	173.39
384.151	75.09
384.361	58.71
384.571	93.52
384.781	81.24
384.991	83.28
385.201	77.14
385.411	64.85
385.621	9.56
385.831	56.66
386.041	105.81
386.251	23.89
386.461	64.85
386.671	17.75
386.881	36.18
387.091	60.76
387.301	64.85
387.511	97.62
387.72	27.99
387.93	140.63
388.14	32.08
388.35	73.04
388.56	40.28
388.769	122.2
388.979	116.05
389.189	42.32
389.399	97.62
389.609	95.57
389.818	132.44
390.028	-0.68
390.238	91.48
390.447	89.43
390.657	85.33
390.867	126.29
391.076	15.7
391.286	7.51
391.496	34.13
391.705	73.04
391.915	32.08
392.125	130.39
392.334	64.85
392.544	175.44
392.753	87.38
392.963	50.52
393.172	183.63
393.382	97.62
393.591	122.2
393.801	23.89
394.01	62.8
394.22	44.37
394.429	85.33
394.639	64.85
394.848	79.19
395.058	23.89
395.267	56.66
395.477	42.32
395.686	150.87
395.895	56.66
396.105	138.58
396.314	116.05
396.524	146.77
396.733	185.68
396.942	17.75
397.152	157.01
397.361	109.91
397.57	204.11
397.78	7.51
397.989	116.05
398.198	114
398.407	89.43
398.617	114
398.826	167.25
399.035	99.67
399.244	83.28
399.453	68.95
399.663	124.24
399.872	140.63
400.081	60.76
400.29	64.85
400.499	107.86
400.708	138.58
400.917	148.82
401.127	89.43
401.336	71
401.545	204.11
401.754	107.86
401.963	183.63
402.172	23.89
402.381	146.77
402.59	89.43
402.799	89.43
403.008	157.01
403.217	101.72
403.426	220.5
403.635	154.96
403.844	204.11
404.053	114
404.262	122.2
404.471	220.5
404.68	97.62
404.888	177.49
405.097	175.44
405.306	214.35
405.515	228.69
405.724	206.16
405.933	93.52
406.142	197.97
406.35	230.74
406.559	222.55
406.768	269.65
406.977	267.6
407.185	220.5
407.394	261.46
407.603	226.64
407.812	150.87
408.02	228.69
408.229	320.85
408.438	253.27
408.646	286.03
408.855	195.92
409.064	240.98
409.272	322.9
409.481	220.5
409.69	294.22
409.898	322.9
410.107	329.04
410.315	351.57
410.524	300.37
410.733	310.61
410.941	343.38
411.15	351.57
411.358	402.77
411.567	478.54
411.775	372.05
411.984	423.25
412.192	484.69
412.401	496.97
412.609	517.45
412.818	539.98
413.026	576.84
413.234	587.08
413.443	572.75
413.651	558.41
413.86	572.75
414.068	613.71
414.276	507.21
414.485	646.48
414.693	705.87
414.901	720.2
415.11	714.06
415.318	724.3
415.526	773.45
415.734	789.83
415.943	851.27
416.151	853.32
416.359	855.37
416.567	830.79
416.776	916.81
416.984	965.96
417.192	1006.92
417.4	961.86
417.608	1006.92
417.817	1049.93
418.025	1082.69
418.233	1310.02
418.441	1320.26
418.649	1310.02
418.857	1334.59
419.065	1387.84
419.273	1350.98
419.481	1424.7
419.689	1494.33
419.897	1613.12
420.105	1658.17
420.313	1678.65
420.521	1658.17
420.729	1686.84
420.937	1760.57
421.145	1932.6
421.353	1924.41
421.561	2041.14
421.769	2055.48
421.977	2035
422.185	2037.05
422.393	2215.22
422.601	2397.49
422.809	2288.95
423.017	2354.48
423.224	2559.28
423.432	2682.16
423.64	2714.92
423.848	2817.32
424.056	2702.64
424.263	2907.43
424.471	3009.83
424.679	3046.69
424.887	3181.86
425.094	3138.85
425.302	3317.03
425.51	3515.68
425.718	3521.82
425.925	3648.8
426.133	3589.41
426.341	3847.45
426.548	3900.7
426.756	4039.96
426.964	4074.78
427.171	4424.98
427.379	4513.04
427.586	4570.38
427.794	4605.2
428.001	4908.3
428.209	5121.29
428.417	4998.41
428.624	5328.13
428.832	5465.35
429.039	5326.08
429.247	5348.61
429.454	5946.62
429.662	6200.57
429.869	5868.8
430.076	6200.57
430.284	6212.85
430.491	6538.48
430.699	6659.31
430.906	6640.88
431.114	6737.13
431.321	7154.92
431.528	7109.86
431.736	7718.11
431.943	7806.17
432.15	7757.02
432.358	7904.48
432.565	8250.58
432.772	8043.74
432.979	8606.93
433.187	8764.62
433.394	8756.43
433.601	9340.1
433.808	9544.9
434.016	9438.41
434.223	9866.43
434.43	10329.27
434.637	10218.68
434.844	10935.47
435.052	11123.88
435.259	11089.07
435.466	11054.25
435.673	10853.55
435.88	11414.7
436.087	12348.57
436.294	12346.52
436.501	12104.86
436.708	12237.98
436.915	12801.17
437.122	13448.33
437.329	13087.89
437.537	13661.32
437.743	13823.11
437.95	13638.79
438.157	14404.73
438.364	14980.21
438.571	15064.18
438.778	15215.73
438.985	16456.79
439.192	15817.83
439.399	16237.66
439.606	16063.58
439.813	16784.47
440.02	17724.49
440.227	17740.87
440.433	17484.87
440.64	17925.19
440.847	17822.79
441.054	18316.35
441.261	19416.11
441.467	19272.75
441.674	19801.13
441.881	20171.81
442.088	20147.23
442.294	19958.82
442.501	20790.3
442.708	21077.01
442.914	21840.9
443.121	22658.04
443.328	22191.11
443.534	23882.73
443.741	23131.12
443.948	22864.89
444.154	24562.65
444.361	24445.92
444.568	24476.64
444.774	24384.48
444.981	24677.34
445.187	25598.93
445.394	26598.34
445.6	26178.5
445.807	28935.07
446.013	27825.07
446.22	28027.82
446.426	29078.43
446.633	29549.46
446.839	30524.29
447.046	29477.78
447.252	30772.1
447.459	30956.41
447.665	30899.07
447.871	31968.11
448.078	33182.56
448.284	32050.03
448.491	33047.39
448.697	34210.64
448.903	34923.33
449.11	34947.9
449.316	34310.99
449.522	35160.89
449.728	35887.92
449.935	36270.89
450.141	36135.73
450.347	36840.23
450.553	36283.18
450.76	36653.86
450.966	37417.75
451.172	37174.05
451.378	38443.79
451.584	37739.29
451.791	38503.18
451.997	38355.72
452.203	38949.63
452.409	38861.57
452.615	39047.94
452.821	37436.19
453.027	36926.24
453.233	39437.05
453.44	37559.06
453.646	38069.01
453.852	38279.95
454.058	38918.92
454.264	37792.53
454.47	38679.3
454.676	37528.34
454.882	38755.08
455.088	35746.61
455.294	36520.74
455.5	37067.55
455.705	37008.16
455.911	35840.82
456.117	34968.38
456.323	34593.61
456.529	32641.89
456.735	34358.09
456.941	33098.59
457.147	33008.48
457.352	32189.29
457.558	31832.94
457.764	31699.83
457.97	31044.48
458.176	30546.82
458.381	30737.28
458.587	29344.66
458.793	29217.69
458.999	27597.74
459.204	29594.51
459.41	28691.36
459.616	27093.94
459.821	26909.63
460.027	26885.05
460.233	26442.69
460.438	25377.75
460.644	25316.31
460.85	24165.35
461.055	23757.8
461.261	23639.02
461.466	21744.65
461.672	21390.35
461.878	22973.43
462.083	21449.74
462.289	21408.78
462.494	21013.52
462.7	20096.03
462.905	19309.61
463.111	19954.72
463.316	20069.41
463.522	19917.86
463.727	19901.48
463.932	19614.76
464.138	19493.93
464.343	19674.15
464.549	19178.54
464.754	19733.54
464.959	19643.43
465.165	19364.91
465.37	18490.43
465.575	18168.9
465.781	18834.49
465.986	19057.71
466.191	18191.42
466.397	18187.33
466.602	16927.83
466.807	17677.38
467.012	17615.94
467.218	17761.35
467.423	17296.46
467.628	17593.42
467.833	18428.99
468.038	17679.43
468.244	17280.08
468.449	17968.2
468.654	17149.01
468.859	17214.54
469.064	17257.55
469.269	16116.83
469.474	16368.73
469.679	16893.01
469.885	16370.78
470.09	16557.14
470.295	16374.88
470.5	16108.64
470.705	16145.5
470.91	15952.99
471.115	15608.94
471.32	15963.23
471.525	15752.29
471.73	15496.3
471.935	15346.8
472.139	14922.87
472.344	14941.3
472.549	14820.47
472.754	14652.53
472.959	14339.19
473.164	14128.25
473.369	13968.51
473.574	14521.46
473.778	14277.76
473.983	14257.28
474.188	14257.28
474.393	13716.61
474.598	13646.98
474.802	13712.52
475.007	13286.54
475.212	13407.37
475.417	12919.95
475.621	13202.57
475.826	13026.45
476.031	12928.14
476.235	12342.42
476.44	13059.21
476.645	12606.61
476.849	12573.85
477.054	12328.09
477.259	11973.79
477.463	12008.61
477.668	11775.14
477.872	11910.3
478.077	11799.71
478.282	11484.33
478.486	11390.12
478.691	11396.26
478.895	11275.43
479.1	11177.13
479.304	11242.67
479.509	10998.96
479.713	11099.31
479.918	10861.74
480.122	10677.43
480.326	10808.5
480.531	10779.82
480.735	10673.33
480.94	10622.13
481.144	10994.86
481.348	10501.3
481.553	10560.69
481.757	10308.79
481.961	10575.03
482.166	10546.36
482.37	10529.97
482.574	10341.56
482.778	10519.73
482.983	10683.57
483.187	10390.71
483.391	10583.22
483.595	10265.78
483.8	10325.18
484.004	10495.16
484.208	10523.83
484.412	10312.89
484.616	10323.13
484.821	10394.81
485.025	10165.43
485.229	10562.74
485.433	10353.85
485.637	10454.2
485.841	10183.87
486.045	10208.44
486.249	10339.51
486.453	10411.19
486.657	10411.19
486.861	10534.07
487.065	10089.66
487.269	10403
487.473	10378.42
487.677	10607.8
487.881	10411.19
488.085	10749.11
488.289	10542.26
488.493	10396.85
488.697	10591.41
488.901	10478.77
489.105	10529.97
489.309	10695.86
489.512	10683.57
489.716	10669.23
489.92	10683.57
490.124	10472.63
490.328	10912.94
490.531	10736.82
490.735	10767.54
490.939	10953.9
491.143	10601.65
491.346	10896.56
491.55	10859.7
491.754	11197.61
491.958	10998.96
492.161	11011.25
492.365	11213.99
492.569	11213.99
492.772	11154.6
492.976	11369.64
493.18	11410.6
493.383	11574.44
493.587	11519.14
493.79	11725.99
493.994	11513
494.197	11697.31
494.401	11795.62
494.605	11728.03
494.808	12068
495.012	12053.66
495.215	11975.84
495.419	12184.73
495.622	11916.45
495.825	12225.69
496.029	12465.3
496.232	12659.86
496.436	12631.19
496.639	13020.3
496.843	12739.73
497.046	13032.59
497.249	13358.22
497.453	13157.52
497.656	13550.73
497.859	13317.26
498.063	13675.65
498.266	14142.59
498.469	13927.55
498.673	13923.46
498.876	14333.05
499.079	14255.23
499.282	14300.28
499.485	14873.71
499.689	14634.1
499.892	15121.52
500.095	15271.02
500.298	15537.26
500.501	15531.11
500.705	15977.57
500.908	16026.72
501.111	16186.46
501.314	16286.81
501.517	16514.14
501.72	16841.81
501.923	16880.72
502.126	17044.56
502.329	17402.96
502.532	17628.23
502.735	17593.42
502.938	18082.88
503.141	18144.32
503.344	18236.48
503.547	18414.65
503.75	18601.02
503.953	19002.42
504.156	19094.58
504.359	19344.43
504.562	19383.34
504.765	19977.25
504.968	20151.33
505.17	20513.82
505.373	20309.02
505.576	21083.16
505.779	20804.63
505.982	20954.13
506.185	21773.32
506.387	21687.31
506.59	21857.29
506.793	22303.74
506.996	22148.1
507.198	22887.42
507.401	22809.59
507.604	23202.8
507.807	23251.95
508.009	23522.29
508.212	23669.74
508.415	24075.24
508.617	24482.78
508.82	24419.3
509.022	24642.53
509.225	25469.9
509.428	25459.66
509.63	25711.56
509.833	25422.8
510.035	26411.97
510.238	26188.74
510.44	26842.04
510.643	27016.12
510.845	27407.28
511.048	27304.88
511.25	27771.82
511.453	27890.6
511.655	28861.34
511.858	28597.15
512.06	28838.81
512.262	28980.12
512.465	29150.1
512.667	29670.29
512.87	30419.85
513.072	30153.61
513.274	30972.8
513.477	31318.9
513.679	31206.27
513.881	31785.84
514.084	31943.53
514.286	31896.43
514.488	32373.61
514.69	32779.11
514.893	33098.59
515.095	33467.22
515.297	33313.62
515.499	33975.12
515.701	34149.2
515.904	34732.87
516.106	34704.2
516.308	35150.65
516.51	35457.85
516.712	35644.21
516.914	36256.56
517.116	36600.61
517.318	36451.11
517.52	37341.98
517.722	37227.29
517.925	37982.99
518.127	38011.67
518.329	38488.84
518.531	38198.03
518.733	39072.51
518.935	38996.74
519.136	39400.19
519.338	39762.68
519.54	40026.87
519.742	40536.81
519.944	40547.05
520.146	41048.8
520.348	41310.94
520.55	41722.58
520.752	41849.56
520.954	42750.66
521.155	42453.71
521.357	42832.58
521.559	43254.47
521.761	43692.73
521.963	43600.57
522.164	43627.2
522.366	43995.83
522.568	44315.31
522.77	44767.91
522.971	45132.45
523.173	45050.53
523.375	45646.49
523.576	45085.35
523.778	45777.56
523.98	46219.92
524.181	46174.87
524.383	46760.59
524.584	47067.78
524.786	47420.03
524.988	47258.24
525.189	47219.33
525.391	47893.11
525.592	48034.42
525.794	48337.52
525.995	48167.54
526.197	48296.56
526.398	48429.68
526.6	49289.83
526.801	49066.6
527.003	49134.18
527.204	49017.45
527.406	49807.97
527.607	49351.27
527.808	50045.53
528.01	49173.09
528.211	49805.92
528.412	50647.63
528.614	50588.24
528.815	50606.67
529.016	50821.71
529.218	50401.88
529.419	50782.8
529.62	51094.09
529.822	50946.64
530.023	50575.95
530.224	51087.95
530.425	51065.42
530.626	50895.44
530.828	51057.23
531.029	51890.75
531.23	50915.92
531.431	51233.35
531.632	51358.28
531.833	51759.68
532.035	51874.37
532.236	51935.8
532.437	52019.77
532.638	51855.93
532.839	52126.27
533.04	52083.26
533.241	51450.44
533.442	52851.25
533.643	52007.48
533.844	52507.19
534.045	51892.8
534.246	51548.74
534.447	52083.26
534.648	52105.79
534.849	52492.85
535.05	51917.37
535.251	52353.59
535.451	51769.92
535.652	52308.54
535.853	51905.09
536.054	52429.37
536.255	52466.23
536.456	52073.02
536.657	52496.95
536.857	52275.77
537.058	52118.07
537.259	52605.49
537.46	52619.83
537.66	51784.26
537.861	52015.68
538.062	51941.95
538.263	51964.48
538.463	52169.27
538.664	52222.52
538.865	52324.92
539.065	52505.14
539.266	52021.82
539.466	52728.37
539.667	51620.42
539.868	52693.55
540.068	52138.55
540.269	51984.96
540.469	52679.22
540.67	51903.04
540.87	52038.2
541.071	51776.06
541.271	52259.38
541.472	52161.08
541.672	52417.08
541.873	51835.45
542.073	51294.79
542.274	52292.15
542.474	52261.43
542.675	51757.63
542.875	52533.81
543.075	52202.04
543.276	51542.59
543.476	52032.06
543.676	51671.62
543.877	52386.36
544.077	52017.72
544.277	51941.95
544.478	51833.41
544.678	52283.96
544.878	51878.46
545.078	51952.19
545.279	51841.6
545.479	51630.66
545.679	51817.02
545.879	52032.06
546.079	51929.66
546.28	51944
546.48	51393.09
546.68	52073.02
546.88	51788.35
547.08	52093.5
547.28	51227.21
547.48	51679.81
547.68	51704.38
547.88	51679.81
548.081	51735.1
548.281	51745.34
548.481	51612.23
548.681	51946.04
548.881	51726.91
549.081	51765.82
549.28	51507.78
549.48	51774.02
549.68	51663.42
549.88	52056.63
550.08	51243.59
550.28	51745.34
550.48	51509.83
550.68	51835.45
550.88	51423.81
551.08	51663.42
551.279	51432
551.479	51065.42
551.679	51518.02
551.879	51176.01
552.079	52036.16
552.278	51688
552.478	51022.41
552.678	51819.07
552.878	51872.32
553.077	51415.62
553.277	50905.68
553.477	51630.66
553.676	50834
553.876	51399.24
554.076	51491.4
554.275	50797.13
554.475	50686.54
554.674	50686.54
554.874	50950.73
555.074	50907.72
555.273	51286.6
555.473	51276.36
555.672	50516.56
555.872	50926.16
556.071	51024.46
556.271	51022.41
556.47	50817.61
556.67	50534.99
556.869	50356.82
557.068	50858.57
557.268	50457.17
557.467	50328.15
557.667	50696.78
557.866	50473.56
558.065	50293.33
558.265	50147.93
558.464	50389.59
558.663	50752.08
558.863	49754.72
559.062	51194.44
559.261	49875.55
559.461	50711.12
559.66	49822.3
559.859	49861.21
560.058	49924.7
560.258	49967.71
560.457	49590.88
560.656	49703.52
560.855	49812.06
561.054	50291.29
561.253	49328.74
561.453	49767.01
561.652	49449.57
561.851	50106.97
562.05	49486.43
562.249	49281.64
562.448	50090.58
562.647	49384.04
562.846	49042.02
563.045	49244.77
563.244	49033.83
563.443	49504.87
563.642	48577.14
563.841	48550.51
564.04	48689.77
564.239	49236.58
564.438	48681.58
564.637	48867.95
564.836	49121.9
565.035	48271.99
565.234	48669.29
565.432	48163.45
565.631	48417.39
565.83	48472.69
566.029	48368.24
566.228	48106.1
566.427	47841.92
566.625	47657.6
566.824	47344.26
567.023	47690.37
567.222	47471.23
567.42	48237.17
567.619	48048.76
567.818	47622.78
568.016	47346.31
568.215	47708.8
568.414	47446.66
568.612	47948.41
568.811	46797.45
569.01	47026.82
569.208	46715.53
569.407	47055.5
569.605	46475.92
569.804	46819.98
570.002	46365.33
570.201	46537.36
570.4	46633.61
570.598	46422.67
570.797	46301.84
570.995	46342.8
571.193	45787.8
571.392	46289.55
571.59	45824.67
571.789	45937.3
571.987	45841.05
572.186	45863.58
572.384	45193.89
572.582	45599.39
572.781	45501.09
572.979	45011.62
573.177	45324.96
573.376	45329.06
573.574	45095.59
573.772	45542.05
573.971	44864.17
574.169	44493.49
574.367	44221.11
574.565	44714.67
574.763	44573.36
574.962	44536.49
575.16	43889.34
575.358	44305.07
575.556	43655.87
575.754	44208.82
575.952	43569.85
576.151	44008.12
576.349	43395.78
576.547	43772.6
576.745	43653.82
576.943	43487.93
577.141	43340.48
577.339	43762.36
577.537	42926.79
577.735	42887.88
577.933	42740.43
578.131	42760.9
578.329	42306.26
578.527	42246.86
578.725	42568.4
578.923	42451.66
579.121	41992.92
579.319	42042.07
579.516	42070.74
579.714	42257.1
579.912	41878.23
580.11	41634.52
580.308	41984.72
580.506	41743.06
580.704	41325.28
580.901	41245.41
581.099	41208.54
581.297	41093.86
581.495	41132.77
581.692	41136.87
581.89	40641.26
582.088	41237.22
582.285	40917.73
582.483	40807.14
582.681	40934.12
582.878	40889.06
583.076	40006.39
583.274	40561.39
583.471	40014.58
583.669	39715.58
583.866	39682.81
584.064	39795.45
584.262	39541.5
584.459	39592.7
584.657	39385.85
584.854	39947
585.052	38837
585.249	39664.38
585.447	39461.63
585.644	38996.74
585.841	38974.21
586.039	39174.91
586.236	38146.83
586.434	38624.01
586.631	38112.02
586.828	38484.75
587.026	38265.61
587.223	38009.62
587.42	38245.13
587.618	38261.52
587.815	38216.46
588.012	37810.96
588.21	37909.27
588.407	37815.06
588.604	37251.87
588.801	37014.3
588.999	37038.88
589.196	36975.39
589.393	37585.69
589.59	37104.42
589.787	37065.5
589.984	36739.88
590.182	36225.84
590.379	37153.57
590.576	36326.19
590.773	36483.88
590.97	36350.76
591.167	36471.59
591.364	35728.18
591.561	36254.51
591.758	35996.46
591.955	36043.57
592.152	35912.5
592.349	35496.76
592.546	35619.64
592.743	35470.14
592.94	35214.14
593.137	35478.33
593.334	35408.7
593.531	34669.38
593.727	35132.22
593.924	34878.27
594.121	34556.74
594.318	34736.96
594.515	34618.18
594.712	34923.33
594.908	34374.47
595.105	34294.6
595.302	34175.82
595.499	34362.18
595.696	33909.58
595.892	33770.32
596.089	34145.1
596.286	34067.28
596.482	33475.41
596.679	33659.73
596.876	33577.81
597.072	33284.95
597.269	33567.57
597.466	32998.24
597.662	33110.88
597.859	33645.4
598.055	33057.63
598.252	32467.81
598.448	32758.63
598.645	32705.38
598.841	32461.67
599.038	32342.89
599.234	32314.22
599.431	32226.15
599.627	32140.14
599.824	32097.13
600.02	31943.53
600.217	31822.7
600.413	31660.91
600.609	31458.17
600.806	31624.05
601.002	31785.84
601.198	31114.11
601.395	31198.07
601.591	31140.73
601.787	31132.54
601.984	31222.65
602.18	31495.03
602.376	30749.57
602.572	30946.17
602.769	30733.18
602.965	30391.17
603.161	30536.58
603.357	30350.21
603.553	30141.32
603.75	30247.82
603.946	30047.11
604.142	29770.64
604.338	29598.61
604.534	29950.86
604.73	29551.51
604.926	29533.07
605.122	29809.55
605.318	29541.27
605.514	29399.96
605.71	29072.28
605.906	29215.64
606.102	29113.24
606.298	29172.63
606.494	29113.24
606.69	28943.26
606.886	29057.95
607.082	28504.99
607.278	28730.27
607.474	28509.09
607.67	28681.12
607.866	28238.76
608.062	28801.95
608.257	28332.96
608.453	28451.75
608.649	28509.09
608.845	28162.98
609.041	27816.88
609.236	28042.15
609.432	27601.84
609.628	28015.53
609.824	27661.23
610.019	27931.56
610.215	27888.56
610.411	27890.6
610.606	27741.1
610.802	27607.98
610.998	27659.18
611.193	27370.42
611.389	27421.62
611.584	26948.54
611.78	26997.69
611.976	27278.26
612.171	26944.44
612.367	26878.91
612.562	26952.63
612.758	26436.55
612.953	26784.7
613.149	27212.73
613.344	26553.28
613.539	26928.06
613.735	26667.97
613.93	26799.04
614.126	26475.46
614.321	26889.15
614.517	26436.55
614.712	26258.37
614.907	26178.5
615.103	26502.08
615.298	26231.75
615.493	26282.95
615.688	26086.34
615.884	26598.34
616.079	25783.24
616.274	25910.22
616.47	25822.16
616.665	25877.45
616.86	25654.22
617.055	25643.98
617.25	25639.89
617.445	26065.86
617.641	25363.41
617.836	25521.1
618.031	25193.43
618.226	25486.29
618.421	25170.9
618.616	25404.37
618.811	24953.82
619.006	25385.94
619.201	24720.35
619.396	24826.84
619.591	24607.71
619.786	24849.37
619.981	24226.79
620.176	24345.57
620.371	24083.43
620.566	24333.28
620.761	23884.78
620.956	24355.81
621.151	23704.56
621.346	24009.7
621.541	23661.55
621.735	23667.69
621.93	23616.49
622.125	23186.42
622.32	22871.03
622.515	23342.07
622.709	22993.91
622.904	23086.07
623.099	22918.14
623.294	22703.1
623.488	22453.25
623.683	22676.48
623.878	22395.9
624.072	22152.2
624.267	21744.65
624.462	21971.97
624.656	21511.18
624.851	21599.24
625.046	21453.84
625.24	21349.39
625.435	21339.15
625.629	21382.16
625.824	21074.96
626.018	21154.83
626.213	20665.37
626.407	20812.82
626.602	20438.05
626.796	20651.03
626.991	20503.58
627.185	20313.12
627.38	20216.86
627.574	20153.38
627.768	19823.65
627.963	19915.81
628.157	19715.11
628.352	19969.06
628.546	19688.49
628.74	19881
628.935	19428.4
629.129	19592.23
629.323	18992.18
629.517	18908.21
629.712	19037.23
629.906	18824.25
630.1	18482.24
630.294	18646.07
630.489	18543.67
630.683	18627.64
630.877	18361.41
631.071	18259.01
631.265	17988.67
631.459	18027.59
631.653	17964.1
631.848	17814.6
632.042	17497.16
632.236	17996.87
632.43	17613.9
632.624	17568.84
632.818	17275.98
633.012	17192.01
633.206	17308.75
633.4	17013.84
633.594	16981.07
633.788	16944.21
633.982	16915.54
634.176	16901.2
634.369	16768.09
634.563	16895.06
634.757	16591.96
634.951	16553.05
635.145	16606.3
635.339	16286.81
635.533	16284.76
635.726	16342.11
635.92	15795.3
636.114	15961.19
636.308	16026.72
636.501	15930.47
636.695	15631.46
636.889	15340.65
637.083	15416.43
637.276	15533.16
637.47	15479.91
637.664	15465.58
637.857	15420.52
638.051	15318.12
638.244	14904.43
638.438	15193.2
638.632	14711.92
638.825	15019.12
639.019	14466.17
639.212	14681.21
639.406	14666.87
639.599	14490.74
639.793	14427.26
639.986	14427.26
640.18	14427.26
640.373	14218.36
640.567	13952.13
640.76	14171.26
640.954	13974.66
641.147	13698.18
641.34	13892.74
641.534	13706.37
641.727	13606.02
641.92	13655.17
642.114	13638.79
642.307	13655.17
642.5	13456.52
642.694	13083.79
642.887	13057.17
643.08	13134.99
643.273	13194.38
643.467	12993.68
643.66	13024.4
643.853	12979.34
644.046	12606.61
644.239	12561.56
644.432	12764.31
644.626	12504.21
644.819	12434.58
645.012	12246.17
645.205	12299.42
645.398	12199.07
645.591	12102.81
645.784	12184.73
645.977	11979.93
646.17	11934.88
646.363	12092.57
646.556	11922.59
646.749	11709.6
646.942	11801.76
647.135	11721.89
647.328	11717.79
647.521	11613.35
647.714	11267.24
647.907	11406.5
648.099	11183.27
648.292	11435.17
648.485	11353.26
648.678	11109.55
648.871	11162.8
649.064	10951.85
649.256	10876.08
649.449	10937.52
649.642	10945.71
649.835	10751.15
650.027	10671.28
650.22	10501.3
650.413	10523.83
650.605	10460.34
650.798	10486.97
650.991	10339.51
651.183	10345.66
651.376	10419.38
651.568	10257.59
651.761	10161.34
651.954	10230.97
652.146	10089.66
652.339	10042.56
652.531	9981.12
652.724	9964.73
652.916	9888.96
653.109	9804.99
653.301	9643.2
653.494	9804.99
653.686	9499.84
653.879	9559.24
654.071	9733.31
654.263	9422.02
654.456	9356.49
654.648	9411.78
654.84	9223.37
655.033	9073.87
655.225	9258.18
655.417	9075.91
655.61	9043.15
655.802	9174.22
655.994	9010.38
656.186	9075.91
656.379	8920.27
656.571	8903.89
656.763	8916.17
656.955	8621.27
657.148	8776.91
657.34	8647.89
657.532	8633.55
657.724	8613.07
657.916	8551.63
658.108	8553.68
658.3	8252.63
658.492	8375.51
658.684	8459.48
658.876	8258.78
659.068	8146.14
659.26	7982.3
659.452	8250.58
659.644	8166.62
659.836	8013.02
660.028	8006.88
660.22	7736.54
660.412	7914.72
660.604	7589.09
660.796	7826.65
660.988	7986.4
661.18	7677.15
661.372	7560.42
661.563	7656.67
661.755	7507.17
661.947	7658.72
662.139	7410.92
662.331	7290.09
662.522	7273.7
662.714	7341.29
662.906	7261.41
663.097	7060.71
663.289	7124.2
663.481	7046.38
663.673	6950.12
663.864	6900.97
664.056	7060.71
664.247	7206.12
664.439	6946.03
664.631	6749.42
664.822	6716.65
665.014	6812.91
665.205	6626.54
665.397	6790.38
665.588	6655.22
665.78	6520.05
665.971	6589.68
666.163	6522.1
666.354	6628.59
666.546	6329.59
666.737	6425.84
666.929	6575.34
667.12	6417.65
667.311	6290.68
667.503	6178.04
667.694	6309.11
667.885	6108.41
668.077	6188.28
668.268	6145.27
668.459	6063.35
668.651	6120.7
668.842	6016.25
669.033	6114.55
669.224	5932.28
669.416	5958.91
669.607	5862.65
669.798	5842.17
669.989	5889.28
670.18	5809.4
670.371	5864.7
670.563	5528.83
670.754	5588.22
670.945	5446.91
671.136	5823.74
671.327	5635.33
671.518	5485.83
671.709	5723.39
671.9	5436.67
672.091	5389.57
672.282	5367.04
672.473	5324.04
672.664	5420.29
672.855	5350.66
673.046	5401.86
673.237	5256.45
673.428	5383.43
673.619	5231.88
673.809	5276.93
674	5326.08
674.191	5332.23
674.382	5039.37
674.573	5180.68
674.764	5035.27
674.954	5299.46
675.145	4977.93
675.336	5094.66
675.527	5020.94
675.717	5000.46
675.908	4990.22
676.099	5061.9
676.289	4994.31
676.48	4959.5
676.671	4906.25
676.861	4783.37
677.052	4850.96
677.243	4865.29
677.433	4857.1
677.624	4857.1
677.814	4787.47
678.005	4775.18
678.195	4859.15
678.386	4711.69
678.576	4668.69
678.767	4605.2
678.957	4611.34
679.148	4719.89
679.338	4773.13
679.529	4713.74
679.719	4646.16
679.909	4695.31
680.1	4562.19
680.29	4472.08
680.481	4467.99
680.671	4822.28
680.861	4506.9
681.052	4570.38
681.242	4457.75
681.432	4709.65
681.622	4480.27
681.813	4400.4
682.003	4209.94
682.193	4414.74
682.383	4390.16
682.573	4349.2
682.764	4455.7
682.954	4341.01
683.144	4402.45
683.334	4316.44
683.524	4255
683.714	4244.76
683.904	4373.78
684.094	4220.18
684.284	4261.14
684.474	4291.86
684.664	4283.67
684.854	4349.2
685.044	4341.01
685.234	4302.1
685.424	4187.41
685.614	4205.85
685.804	4171.03
685.994	4226.32
686.184	4111.64
686.374	4123.93
686.564	3999
686.753	4119.83
686.943	4074.78
687.133	4001.05
687.323	3982.62
687.513	3988.76
687.702	3988.76
687.892	4007.19
688.082	3929.37
688.272	4123.93
688.461	3894.55
688.651	3947.8
688.841	3943.71
689.03	3947.8
689.22	3925.27
689.41	3902.75
689.599	3980.57
689.789	3992.86
689.979	3865.88
690.168	3912.99
690.358	3792.16
690.547	3923.23
690.737	3874.07
690.926	3812.64
691.116	3802.4
691.305	3796.25
691.495	3677.47
691.684	3816.73
691.874	3648.8
692.063	3763.48
692.252	3757.34
692.442	3685.66
692.631	3644.7
692.82	3544.35
693.01	3523.87
693.199	3638.56
693.388	3548.45
693.578	3714.33
693.767	3720.48
693.956	3599.65
694.146	3554.59
694.335	3624.22
694.524	3484.96
694.713	3456.29
694.902	3540.26
695.092	3570.97
695.281	3575.07
695.47	3456.29
695.659	3450.14
695.848	3415.33
696.037	3570.97
696.226	3513.63
696.415	3431.71
696.604	3472.67
696.793	3403.04
696.982	3452.19
697.171	3431.71
697.36	3536.16
697.549	3386.66
697.738	3368.23
697.927	3251.49
698.116	3382.56
698.305	3302.69
698.494	3292.45
698.683	3321.12
698.872	3347.75
699.061	3280.16
699.25	3202.34
699.438	3296.55
699.627	3263.78
699.816	3278.12
700.005	3259.68
700.193	3259.68
700.382	3220.77
700.571	3104.04
700.76	3224.87
700.948	3261.73
701.137	3093.8
701.326	3114.28
701.514	3216.68
701.703	3169.57
701.892	3087.65
702.08	3153.19
702.269	3145
702.457	3013.93
702.646	3145
702.834	3132.71
703.023	3218.72
703.212	3024.17
703.4	3011.88
703.589	3063.08
703.777	3112.23
703.965	3028.26
704.154	3224.87
704.342	3026.22
704.531	3061.03
704.719	2964.78
704.907	3054.89
705.096	3022.12
705.284	2882.86
705.472	2882.86
705.661	3046.69
705.849	3038.5
706.037	3083.56
706.226	2895.15
706.414	3050.79
706.602	2942.25
706.79	3024.17
706.979	2899.24
707.167	2946.34
707.355	2850.09
707.543	2952.49
707.731	2950.44
707.919	2882.86
708.107	2940.2
708.296	2925.86
708.484	2831.66
708.672	2764.08
708.86	2860.33
709.048	2866.47
709.236	2874.67
709.424	2895.15
709.612	2776.36
709.8	2800.94
709.988	2956.58
710.176	2827.56
710.364	2833.71
710.551	2694.44
710.739	2768.17
710.927	2821.42
711.115	2743.6
711.303	2833.71
711.491	2776.36
711.679	2587.95
711.866	2753.84
712.054	2753.84
712.242	2671.92
712.43	2751.79
712.617	2637.1
712.805	2772.27
712.993	2524.46
713.181	2583.85
713.368	2694.44
713.556	2579.76
713.744	2622.77
713.931	2573.61
714.119	2503.98
714.306	2669.87
714.494	2575.66
714.682	2522.41
714.869	2501.94
715.057	2534.7
715.244	2592.05
715.432	2575.66
715.619	2555.18
715.807	2391.34
715.994	2575.66
716.182	2540.85
716.369	2571.57
716.556	2614.57
716.744	2491.7
716.931	2522.41
717.119	2458.93
717.306	2442.54
717.493	2518.32
717.681	2477.36
717.868	2561.33
718.055	2475.31
718.242	2448.69
718.43	2526.51
718.617	2475.31
718.804	2428.21
718.991	2358.58
719.179	2411.82
719.366	2432.3
719.553	2309.43
719.74	2448.69
719.927	2327.86
720.114	2403.63
720.301	2424.11
720.488	2385.2
720.676	2317.62
720.863	2491.7
721.05	2374.96
721.237	2342.19
721.424	2334
721.611	2219.32
721.798	2313.52
721.985	2293.04
722.172	2313.52
722.358	2221.36
722.545	2288.95
722.732	2252.08
722.919	2284.85
723.106	2170.16
723.293	2280.75
723.48	2317.62
723.667	2198.84
723.853	2194.74
724.04	2153.78
724.227	2383.15
724.414	2252.08
724.6	2372.91
724.787	2303.28
724.974	2196.79
725.161	2215.22
725.347	2239.8
725.534	2145.59
725.72	2219.32
725.907	2262.32
726.094	2104.63
726.28	2196.79
726.467	2055.48
726.653	2200.88
726.84	2231.6
727.027	2211.12
727.213	2121.01
727.4	2170.16
727.586	2178.36
727.773	2186.55
727.959	2055.48
728.145	1987.89
728.332	2082.1
728.518	2088.25
728.705	2186.55
728.891	2065.72
729.077	2088.25
729.264	2004.28
729.45	2071.86
729.636	2069.81
729.823	2016.57
730.009	2075.96
730.195	2006.33
730.382	2131.25
730.568	2104.63
730.754	2018.61
730.94	2047.29
731.126	2059.57
731.313	2090.29
731.499	2090.29
731.685	1973.56
731.871	2096.44
732.057	2032.95
732.243	1969.46
732.429	2016.57
732.615	2080.05
732.801	1903.93
732.987	2096.44
733.173	1996.09
733.359	1973.56
733.545	1875.26
733.731	2014.52
733.917	1979.7
734.103	1871.16
734.289	1957.18
734.475	1953.08
734.661	1965.37
734.847	1963.32
735.033	1891.64
735.219	1893.69
735.404	1858.87
735.59	1932.6
735.776	1897.78
735.962	1781.05
736.148	1985.85
736.333	1922.36
736.519	1891.64
736.705	1899.83
736.89	1897.78
737.076	1842.49
737.262	1723.71
737.447	1738.04
737.633	1901.88
737.819	1797.43
738.004	1942.84
738.19	1871.16
738.375	1688.89
738.561	1779
738.747	1750.33
738.932	1852.73
739.118	1793.34
739.303	1817.91
739.489	1852.73
739.674	1805.63
739.859	1793.34
740.045	1828.15
740.23	1850.68
740.416	1697.08
740.601	1721.66
740.786	1746.23
740.972	1746.23
741.157	1772.86
741.342	1795.39
741.528	1701.18
741.713	1711.42
741.898	1654.08
742.084	1744.19
742.269	1719.61
742.454	1596.73
742.639	1715.52
742.824	1568.06
743.01	1584.45
743.195	1733.95
743.38	1576.25
743.565	1621.31
743.75	1676.6
743.935	1631.55
744.12	1680.7
744.305	1701.18
744.49	1543.49
744.675	1637.69
744.86	1504.57
745.045	1543.49
745.23	1457.47
745.415	1559.87
745.6	1541.44
745.785	1535.29
745.97	1553.73
746.155	1482.05
746.34	1596.73
746.525	1486.14
746.71	1570.11
746.895	1496.38
747.079	1471.81
747.264	1484.09
747.449	1518.91
747.634	1361.22
747.819	1541.44
748.003	1463.61
748.188	1414.46
748.373	1359.17
748.557	1500.48
748.742	1416.51
748.927	1396.03
749.111	1338.69
749.296	1375.55
749.481	1436.99
749.665	1420.61
749.85	1303.87
750.034	1291.59
750.219	1318.21
750.404	1248.58
750.588	1404.22
750.773	1310.02
750.957	1279.3
751.141	1303.87
751.326	1334.59
751.51	1258.82
751.695	1185.09
751.879	1203.52
752.064	1248.58
752.248	1215.81
752.432	1213.76
752.617	1240.39
752.801	1213.76
752.985	1219.91
753.17	1170.76
753.354	1162.56
753.538	1172.8
753.722	1086.79
753.907	1119.56
754.091	1101.12
754.275	1224
754.459	1140.04
754.643	1105.22
754.828	1115.46
755.012	1140.04
755.196	1051.97
755.38	1099.08
755.564	1137.99
755.748	1094.98
755.932	1137.99
756.116	1023.3
756.3	1109.32
756.484	1127.75
756.668	1058.12
756.852	1006.92
757.036	1084.74
757.22	943.43
757.404	970.05
757.588	986.44
757.772	1023.3
757.956	984.39
758.14	1146.18
758.323	980.29
758.507	990.53
758.691	957.77
758.875	1039.69
759.059	1082.69
759.242	875.85
759.426	900.42
759.61	908.62
759.794	851.27
759.977	910.66
760.161	974.15
760.345	853.32
760.528	982.34
760.712	965.96
760.895	863.56
761.079	949.57
761.263	914.76
761.446	912.71
761.63	920.9
761.813	978.25
761.997	875.85
762.18	925
762.364	789.83
762.547	859.46
762.731	896.33
762.914	795.98
763.098	920.9
763.281	912.71
763.464	863.56
763.648	851.27
763.831	793.93
764.015	773.45
764.198	820.55
764.381	861.51
764.564	853.32
764.748	804.17
764.931	793.93
765.114	822.6
765.297	789.83
765.481	816.46
765.664	845.13
765.847	720.2
766.03	795.98
766.213	843.08
766.397	871.75
766.58	734.54
766.763	834.89
766.946	736.59
767.129	732.49
767.312	703.82
767.495	824.65
767.678	761.16
767.861	793.93
768.044	777.55
768.227	681.29
768.41	720.2
768.593	777.55
768.776	744.78
768.959	759.11
769.142	720.2
769.324	820.55
769.507	750.92
769.69	736.59
769.873	695.63
770.056	845.13
770.239	716.11
770.421	795.98
770.604	779.59
770.787	728.39
770.97	712.01
771.152	720.2
771.335	759.11
771.518	681.29
771.7	712.01
771.883	720.2
772.066	716.11
772.248	662.86
772.431	720.2
772.613	648.52
772.796	660.81
772.978	695.63
773.161	765.26
773.343	679.24
773.526	605.52
773.708	695.63
773.891	605.52
774.073	720.2
774.256	650.57
774.438	646.48
774.621	607.56
774.803	574.8
774.985	582.99
775.168	589.13
775.35	656.72
775.532	564.56
775.715	589.13
775.897	736.59
776.079	617.8
776.261	691.53
776.444	619.85
776.626	550.22
776.808	542.03
776.99	580.94
777.173	599.37
777.355	525.65
777.537	564.56
777.719	566.6
777.901	552.27
778.083	591.18
778.265	511.31
778.447	535.89
778.629	507.21
778.811	580.94
778.993	546.12
779.175	542.03
779.357	552.27
779.539	507.21
779.721	507.21
779.903	521.55
780.085	447.82
780.267	564.56
780.449	470.35
780.631	484.69
780.812	548.17
780.994	478.54
781.176	556.36
781.358	482.64
781.54	462.16
781.721	572.75
781.903	478.54
782.085	447.82
782.267	507.21
782.448	427.34
782.63	523.6
782.812	466.25
782.993	507.21
783.175	458.06
783.357	425.29
783.538	451.92
783.72	462.16
783.901	445.77
784.083	388.43
784.264	484.69
784.446	408.91
784.627	429.39
784.809	400.72
784.99	351.57
785.172	468.3
785.353	460.11
785.535	456.01
785.716	402.77
785.897	351.57
786.079	363.86
786.26	433.49
786.441	419.15
786.623	308.56
786.804	343.38
786.985	380.24
787.167	415.05
787.348	417.1
787.529	386.38
787.71	398.67
787.891	329.04
788.073	355.66
788.254	359.76
788.435	376.14
788.616	417.1
788.797	384.34
788.978	357.71
789.159	322.9
789.34	351.57
789.522	326.99
789.703	220.5
789.884	335.18
790.065	345.42
790.246	277.84
790.427	335.18
790.607	304.46
790.788	345.42
790.969	304.46
791.15	329.04
791.331	308.56
791.512	345.42
791.693	304.46
791.874	302.42
792.054	326.99
792.235	206.16
792.416	324.94
792.597	277.84
792.778	314.7
792.958	249.17
793.139	322.9
793.32	228.69
793.5	247.12
793.681	255.31
793.862	326.99
794.042	253.27
794.223	253.27
794.404	261.46
794.584	286.03
794.765	345.42
794.945	265.55
795.126	247.12
795.306	257.36
795.487	269.65
795.667	197.97
795.848	279.89
796.028	300.37
796.209	255.31
796.389	298.32
796.57	212.31
796.75	173.39
796.93	224.59
797.111	263.51
797.291	206.16
797.471	236.88
797.652	273.75
797.832	234.83
798.012	222.55
798.192	226.64
798.373	187.73
798.553	228.69
798.733	294.22
798.913	208.21
799.093	245.07
799.274	273.75
799.454	245.07
799.634	263.51
799.814	212.31
799.994	294.22
800.174	214.35
800.354	191.83
800.534	177.49
800.714	228.69
800.894	222.55
801.074	220.5
801.254	212.31
801.434	206.16
801.614	173.39
801.794	216.4
801.974	902.47
802.154	212.31
802.334	167.25
802.514	208.21
802.693	247.12
802.873	159.06
803.053	195.92
803.233	204.11
803.413	179.54
803.592	208.21
803.772	161.11
803.952	189.78
804.131	142.68
804.311	253.27
804.491	208.21
804.67	136.53
804.85	140.63
805.03	249.17
805.209	200.02
805.389	214.35
805.568	228.69
805.748	171.35
805.928	193.87
806.107	165.2
806.287	154.96
806.466	195.92
806.646	232.79
806.825	136.53
807.004	171.35
807.184	232.79
807.363	197.97
807.543	187.73
807.722	140.63
807.901	154.96
808.081	185.68
808.26	159.06
808.439	187.73
808.619	200.02
808.798	124.24
808.977	200.02
809.156	152.91
809.336	85.33
809.515	171.35
809.694	136.53
809.873	83.28
810.052	159.06
810.231	157.01
810.411	185.68
810.59	187.73
810.769	150.87
810.948	263.51
811.127	105.81
811.306	99.67
811.485	146.77
811.664	220.5
811.843	150.87
812.022	150.87
812.201	171.35
812.38	128.34
812.559	56.66
812.737	89.43
812.916	105.81
813.095	91.48
813.274	126.29
813.453	118.1
813.632	163.15
813.811	124.24
813.989	154.96
814.168	169.3
814.347	146.77
814.526	132.44
814.704	208.21
814.883	159.06
815.062	97.62
815.24	132.44
815.419	58.71
815.598	64.85
815.776	89.43
815.955	177.49
816.133	118.1
816.312	122.2
816.49	73.04
816.669	105.81
816.847	75.09
817.026	101.72
817.204	56.66
817.383	81.24
817.561	89.43
817.74	146.77
817.918	118.1
818.097	97.62
818.275	97.62
818.453	140.63
818.632	114
818.81	91.48
818.988	66.9
819.167	154.96
819.345	150.87
819.523	138.58
819.701	101.72
819.879	81.24
820.058	105.81
820.236	195.92
820.414	116.05
820.592	116.05
820.77	48.47
820.948	93.52
821.127	101.72
821.305	91.48
821.483	97.62
821.661	136.53
821.839	27.99
822.017	101.72
822.195	105.81
822.373	146.77
822.551	66.9
822.729	173.39
822.907	118.1
823.085	56.66
823.262	140.63
823.44	66.9
823.618	73.04
823.796	134.48
823.974	32.08
824.152	48.47
824.329	109.91
824.507	99.67
824.685	32.08
824.863	103.76
825.04	99.67
825.218	132.44
825.396	85.33
825.574	97.62
825.751	116.05
825.929	114
826.107	91.48
826.284	83.28
826.462	60.76
826.639	77.14
826.817	-21.16
826.994	89.43
827.172	81.24
827.349	138.58
827.527	-2.73
827.704	128.34
827.882	66.9
828.059	97.62
828.237	93.52
828.414	66.9
828.591	71
828.769	48.47
828.946	87.38
829.124	77.14
829.301	122.2
829.478	64.85
829.655	103.76
829.833	81.24
830.01	97.62
830.187	66.9
830.364	68.95
830.542	87.38
830.719	124.24
830.896	116.05
831.073	50.52
831.25	105.81
831.427	118.1
831.604	32.08
831.782	77.14
831.959	101.72
832.136	81.24
832.313	116.05
832.49	15.7
832.667	62.8
832.844	42.32
833.021	99.67
833.198	97.62
833.374	48.47
833.551	85.33
833.728	75.09
833.905	130.39
834.082	11.61
834.259	73.04
834.436	48.47
834.612	40.28
834.789	52.56
834.966	138.58
835.143	60.76
835.319	60.76
835.496	89.43
835.673	60.76
835.85	105.81
836.026	105.81
836.203	142.68
836.38	36.18
836.556	-17.07
836.733	60.76
836.909	97.62
837.086	73.04
837.262	87.38
837.439	122.2
837.616	54.61
837.792	50.52
837.968	91.48
838.145	-39.59
838.321	48.47
838.498	81.24
838.674	1.37
838.851	64.85
839.027	15.7
839.203	105.81
839.38	101.72
839.556	62.8
839.732	58.71
839.909	32.08
840.085	-37.55
840.261	56.66
840.437	50.52
840.614	60.76
840.79	75.09
840.966	93.52
841.142	60.76
841.318	3.41
841.494	122.2
841.671	-25.26
841.847	77.14
842.023	-0.68
842.199	66.9
842.375	111.96
842.551	48.47
842.727	52.56
842.903	56.66
843.079	-27.31
843.255	91.48
843.431	32.08
843.607	11.61
843.783	77.14
843.959	23.89
844.134	101.72
844.31	27.99
844.486	34.13
844.662	32.08
844.838	27.99
845.013	32.08
845.189	122.2
845.365	-15.02
845.541	-37.55
845.716	79.19
845.892	54.61
846.068	7.51
846.244	60.76
846.419	15.7
846.595	25.94
846.77	58.71
846.946	23.89
847.122	7.51
847.297	7.51
847.473	114
847.648	30.04
847.824	-10.92
847.999	7.51
848.175	87.38
848.35	3.41
848.526	66.9
848.701	32.08
848.876	73.04
849.052	13.65
849.227	15.7
849.403	93.52
849.578	7.51
849.753	9.56
849.929	34.13
850.104	-31.4
850.279	97.62
850.454	25.94
850.63	122.2
850.805	-39.59
850.98	34.13
851.155	73.04
851.33	25.94
851.505	13.65
851.681	50.52
851.856	-17.07
852.031	126.29
852.206	44.37
852.381	89.43
852.556	-74.41
852.731	-21.16
852.906	56.66
853.081	60.76
853.256	-0.68
853.431	34.13
853.606	60.76
853.781	64.85
853.956	-0.68
854.131	-37.55
854.305	-4.78
854.48	89.43
854.655	44.37
854.83	-8.87
855.005	64.85
855.18	9.56
855.354	75.09
855.529	48.47
855.704	3.41
855.879	48.47
856.053	-66.22
856.228	15.7
856.403	66.9
856.577	40.28
856.752	1.37
856.926	-31.4
857.101	-19.11
857.276	-23.21
857.45	19.8
857.625	50.52
857.799	19.8
857.974	50.52
858.148	11.61
858.323	-6.83
858.497	-17.07
858.672	-8.87
858.846	-8.87
859.02	25.94
859.195	-17.07
859.369	15.7
859.543	-51.88
859.718	15.7
859.892	-0.68
860.066	19.8
860.241	-6.83
860.415	34.13
860.589	-21.16
860.763	44.37
860.938	-15.02
861.112	81.24
861.286	-72.36
861.46	40.28
861.634	23.89
861.808	50.52
861.982	-8.87
862.157	-0.68
862.331	-8.87
862.505	36.18
862.679	83.28
862.853	-6.83
863.027	-55.98
863.201	75.09
863.375	-45.74
863.549	48.47
863.722	81.24
863.896	23.89
864.07	5.46
864.244	1.37
864.418	-51.88
864.592	58.71
864.766	-2.73
864.939	15.7
865.113	-8.87
865.287	71
865.461	-37.55
865.634	64.85
865.808	50.52
865.982	-33.45
866.156	-25.26
866.329	-0.68
866.503	40.28
866.676	25.94
866.85	46.42
867.024	-8.87
867.197	-8.87
867.371	91.48
867.544	27.99
867.718	-15.02
867.891	-6.83
868.065	-47.79
868.238	38.23
868.412	66.9
868.585	40.28
868.759	64.85
868.932	-12.97
869.105	27.99
869.279	34.13
869.452	15.7
869.625	42.32
869.799	81.24
869.972	-17.07
870.145	-0.68
870.319	5.46
870.492	-55.98
870.665	-29.35
870.838	-49.83
871.011	-37.55
871.185	-55.98
871.358	-55.98
871.531	52.56
871.704	15.7
871.877	-45.74
872.05	27.99
872.223	-51.88
872.396	50.52
872.569	81.24
872.742	-49.83
872.915	48.47
873.088	13.65
873.261	21.84
873.434	-0.68
873.607	-4.78
873.78	56.66
873.953	56.66
874.126	-17.07
874.299	42.32
874.471	-17.07
874.644	-33.45
874.817	-15.02
874.99	99.67
875.163	-2.73
875.335	-49.83
875.508	-49.83
875.681	50.52
875.853	-66.22
876.026	-47.79
876.199	81.24
876.371	71
876.544	-10.92
876.717	5.46
876.889	56.66
877.062	-17.07
877.234	23.89
877.407	34.13
877.579	44.37
877.752	73.04
877.924	-12.97
878.097	122.2
878.269	56.66
878.442	-80.55
878.614	64.85
878.786	81.24
878.959	83.28
879.131	32.08
879.303	7.51
879.476	-8.87
879.648	62.8
879.82	27.99
879.993	19.8
880.165	-70.31
880.337	-86.7
880.509	-4.78
880.681	15.7
880.854	85.33
881.026	-31.4
881.198	79.19
881.37	17.75
881.542	32.08
881.714	-33.45
881.886	89.43
882.058	-41.64
882.23	13.65
882.402	52.56
882.574	77.14
882.746	11.61
882.918	38.23
883.09	52.56
883.262	83.28
883.434	9.56
883.606	-45.74
883.778	17.75
883.95	34.13
884.122	-0.68
884.293	40.28
884.465	1.37
884.637	99.67
884.809	3.41
884.98	-33.45
885.152	83.28
885.324	-37.55
885.496	-37.55
885.667	30.04
885.839	17.75
886.011	34.13
886.182	68.95
886.354	-25.26
886.525	1.37
886.697	-12.97
886.869	36.18
887.04	11.61
887.212	75.09
887.383	52.56
887.555	-49.83
887.726	-68.27
887.897	-29.35
888.069	64.85
888.24	60.76
888.412	87.38
888.583	1.37
888.754	-6.83
888.926	-12.97
889.097	25.94
889.268	-41.64
889.44	-25.26
889.611	36.18
889.782	34.13
889.953	-12.97
890.125	58.71
890.296	-15.02
890.467	30.04
890.638	23.89
890.809	40.28
890.98	3.41
891.151	23.89
891.323	40.28
891.494	-33.45
891.665	-25.26
891.836	-41.64
892.007	13.65
892.178	-39.59
892.349	32.08
892.52	-33.45
892.691	64.85
892.862	-19.11
893.032	-37.55
893.203	-47.79
893.374	-8.87
893.545	23.89
893.716	-33.45
893.887	93.52
894.057	-53.93
894.228	-49.83
894.399	7.51
894.57	64.85
894.74	-74.41
894.911	52.56
895.082	68.95
895.253	11.61
895.423	34.13
895.594	66.9
895.764	-12.97
895.935	-4.78
896.106	-25.26
896.276	46.42
896.447	-21.16
896.617	27.99
896.788	-0.68
896.958	-37.55
897.129	7.51
897.299	-35.5
897.47	23.89
897.64	50.52
897.81	-23.21
897.981	32.08
898.151	-8.87
898.322	60.76
898.492	-17.07
898.662	-47.79
898.832	7.51
899.003	5.46
899.173	130.39
899.343	-6.83
899.513	-31.4
