Data from USB4F104151__204__14-45-20-930.txt Node

Date: Thu Mar 13 14:45:20 EDT 2025
User: louis
Spectrometer: USB4F10415
Trigger mode: 4
Integration Time (sec): 2.000000E-2
Scans to average: 1
Electric dark correction enabled: true
Nonlinearity correction enabled: false
Boxcar width: 0
XAxis mode: Wavelengths
Number of Pixels in Spectrum: 3648
>>>>>Begin Spectral Data<<<<<
178.204	-18.94
178.424	-18.94
178.644	-18.94
178.864	-115.2
179.084	-86.53
179.304	-23.04
179.524	-61.95
179.744	-76.29
179.964	77.31
180.184	46.59
180.404	28.16
180.624	11.78
180.844	-4.61
181.064	-25.09
181.283	36.35
181.503	-8.7
181.723	-0.51
181.943	-12.8
182.163	124.41
182.383	11.78
182.602	87.55
182.822	40.45
183.042	126.46
183.262	15.87
183.482	87.55
183.701	73.21
183.921	77.31
184.141	-12.8
184.361	44.54
184.58	5.63
184.8	56.83
185.02	54.78
185.239	134.65
185.459	142.85
185.679	110.08
185.898	87.55
186.118	28.16
186.338	11.78
186.557	44.54
186.777	22.02
186.997	-29.18
187.216	36.35
187.436	62.98
187.655	48.64
187.875	91.65
188.095	-41.47
188.314	93.69
188.534	30.21
188.753	-14.85
188.973	7.68
189.192	130.56
189.412	87.55
189.631	56.83
189.851	26.11
190.07	75.26
190.29	-2.56
190.509	71.17
190.729	-0.51
190.948	101.89
191.168	165.37
191.387	48.64
191.607	50.69
191.826	69.12
192.045	44.54
192.265	-10.75
192.484	22.02
192.704	89.6
192.923	-23.04
193.142	85.5
193.362	146.94
193.581	101.89
193.8	56.83
194.02	46.59
194.239	85.5
194.458	36.35
194.678	-10.75
194.897	48.64
195.116	-0.51
195.335	3.58
195.555	56.83
195.774	15.87
195.993	52.74
196.212	48.64
196.432	44.54
196.651	30.21
196.87	93.69
197.089	93.69
197.308	38.4
197.528	99.84
197.747	11.78
197.966	22.02
198.185	99.84
198.404	85.5
198.623	28.16
198.842	-4.61
199.062	38.4
199.281	103.93
199.5	54.78
199.719	112.13
199.938	7.68
200.157	85.5
200.376	28.16
200.595	62.98
200.814	3.58
201.033	48.64
201.252	77.31
201.471	99.84
201.69	65.02
201.909	101.89
202.128	71.17
202.347	13.82
202.566	38.4
202.785	87.55
203.004	-4.61
203.223	32.26
203.442	46.59
203.661	52.74
203.879	19.97
204.098	130.56
204.317	60.93
204.536	159.23
204.755	97.79
204.974	73.21
205.193	71.17
205.411	65.02
205.63	50.69
205.849	85.5
206.068	46.59
206.287	13.82
206.505	60.93
206.724	36.35
206.943	56.83
207.162	30.21
207.381	32.26
207.599	26.11
207.818	28.16
208.037	85.5
208.255	48.64
208.474	93.69
208.693	60.93
208.911	11.78
209.13	65.02
209.349	77.31
209.567	46.59
209.786	65.02
210.005	36.35
210.223	44.54
210.442	36.35
210.661	46.59
210.879	77.31
211.098	67.07
211.316	-4.61
211.535	30.21
211.753	24.06
211.972	50.69
212.191	22.02
212.409	93.69
212.628	91.65
212.846	44.54
213.065	44.54
213.283	46.59
213.502	-4.61
213.72	71.17
213.938	-27.14
214.157	126.46
214.375	7.68
214.594	28.16
214.812	5.63
215.031	19.97
215.249	71.17
215.467	9.73
215.686	52.74
215.904	151.04
216.122	50.69
216.341	22.02
216.559	87.55
216.778	89.6
216.996	60.93
217.214	19.97
217.432	-53.76
217.651	62.98
217.869	13.82
218.087	44.54
218.306	50.69
218.524	134.65
218.742	5.63
218.96	112.13
219.179	52.74
219.397	118.27
219.615	112.13
219.833	54.78
220.051	60.93
220.27	54.78
220.488	56.83
220.706	38.4
220.924	28.16
221.142	-18.94
221.36	62.98
221.578	101.89
221.796	97.79
222.015	-33.28
222.233	46.59
222.451	110.08
222.669	-14.85
222.887	97.79
223.105	-4.61
223.323	28.16
223.541	36.35
223.759	85.5
223.977	36.35
224.195	69.12
224.413	48.64
224.631	91.65
224.849	-2.56
225.067	142.85
225.285	67.07
225.503	75.26
225.721	32.26
225.939	77.31
226.157	77.31
226.375	126.46
226.592	42.5
226.81	56.83
227.028	32.26
227.246	142.85
227.464	-0.51
227.682	34.3
227.9	36.35
228.117	138.75
228.335	52.74
228.553	69.12
228.771	19.97
228.989	93.69
229.206	42.5
229.424	89.6
229.642	52.74
229.86	73.21
230.077	54.78
230.295	40.45
230.513	95.74
230.731	54.78
230.948	95.74
231.166	120.32
231.384	32.26
231.601	19.97
231.819	91.65
232.037	58.88
232.254	30.21
232.472	46.59
232.689	11.78
232.907	126.46
233.125	3.58
233.342	101.89
233.56	73.21
233.777	50.69
233.995	44.54
234.213	65.02
234.43	81.41
234.648	15.87
234.865	-37.38
235.083	208.38
235.3	52.74
235.518	15.87
235.735	120.32
235.953	124.41
236.17	62.98
236.388	32.26
236.605	73.21
236.822	79.36
237.04	91.65
237.257	71.17
237.475	50.69
237.692	110.08
237.909	19.97
238.127	-27.14
238.344	67.07
238.562	69.12
238.779	-41.47
238.996	99.84
239.214	40.45
239.431	93.69
239.648	44.54
239.865	52.74
240.083	22.02
240.3	54.78
240.517	13.82
240.735	52.74
240.952	48.64
241.169	101.89
241.386	58.88
241.603	7.68
241.821	7.68
242.038	56.83
242.255	1.54
242.472	19.97
242.689	79.36
242.907	11.78
243.124	44.54
243.341	3.58
243.558	11.78
243.775	67.07
243.992	30.21
244.209	89.6
244.426	114.17
244.643	60.93
244.86	77.31
245.078	9.73
245.295	69.12
245.512	93.69
245.729	11.78
245.946	17.92
246.163	110.08
246.38	3.58
246.597	-33.28
246.814	83.45
247.031	79.36
247.248	95.74
247.464	56.83
247.681	48.64
247.898	-29.18
248.115	60.93
248.332	52.74
248.549	56.83
248.766	128.51
248.983	112.13
249.2	-8.7
249.417	54.78
249.633	40.45
249.85	73.21
250.067	50.69
250.284	83.45
250.501	75.26
250.717	85.5
250.934	77.31
251.151	52.74
251.368	52.74
251.585	75.26
251.801	79.36
252.018	-20.99
252.235	134.65
252.451	52.74
252.668	26.11
252.885	-2.56
253.102	77.31
253.318	36.35
253.535	44.54
253.752	48.64
253.968	-12.8
254.185	48.64
254.401	3.58
254.618	126.46
254.835	69.12
255.051	118.27
255.268	110.08
255.484	54.78
255.701	28.16
255.917	93.69
256.134	26.11
256.351	126.46
256.567	-8.7
256.784	110.08
257	5.63
257.217	81.41
257.433	28.16
257.65	-57.86
257.866	28.16
258.082	71.17
258.299	-16.9
258.515	122.37
258.732	-20.99
258.948	36.35
259.165	58.88
259.381	-49.66
259.597	69.12
259.814	71.17
260.03	44.54
260.246	81.41
260.463	101.89
260.679	89.6
260.895	83.45
261.112	79.36
261.328	42.5
261.544	46.59
261.761	69.12
261.977	110.08
262.193	11.78
262.409	77.31
262.626	-16.9
262.842	46.59
263.058	97.79
263.274	3.58
263.49	108.03
263.707	44.54
263.923	40.45
264.139	15.87
264.355	5.63
264.571	110.08
264.787	28.16
265.004	60.93
265.22	13.82
265.436	81.41
265.652	19.97
265.868	77.31
266.084	30.21
266.3	54.78
266.516	26.11
266.732	71.17
266.948	36.35
267.164	-2.56
267.38	93.69
267.596	-4.61
267.812	126.46
268.028	60.93
268.244	3.58
268.46	93.69
268.676	22.02
268.892	19.97
269.108	3.58
269.324	50.69
269.54	48.64
269.756	134.65
269.972	77.31
270.188	38.4
270.403	48.64
270.619	54.78
270.835	44.54
271.051	-8.7
271.267	58.88
271.483	77.31
271.698	159.23
271.914	138.75
272.13	24.06
272.346	48.64
272.562	34.3
272.777	48.64
272.993	32.26
273.209	77.31
273.425	118.27
273.64	77.31
273.856	19.97
274.072	-18.94
274.287	56.83
274.503	118.27
274.719	48.64
274.934	40.45
275.15	-16.9
275.366	85.5
275.581	-20.99
275.797	-12.8
276.012	62.98
276.228	112.13
276.444	52.74
276.659	71.17
276.875	112.13
277.09	60.93
277.306	15.87
277.521	146.94
277.737	15.87
277.952	24.06
278.168	-4.61
278.383	65.02
278.599	15.87
278.814	60.93
279.03	69.12
279.245	124.41
279.461	89.6
279.676	-12.8
279.892	19.97
280.107	26.11
280.322	11.78
280.538	110.08
280.753	77.31
280.969	93.69
281.184	52.74
281.399	91.65
281.615	11.78
281.83	52.74
282.045	44.54
282.26	19.97
282.476	24.06
282.691	36.35
282.906	60.93
283.122	19.97
283.337	24.06
283.552	138.75
283.767	69.12
283.983	71.17
284.198	103.93
284.413	126.46
284.628	101.89
284.843	-16.9
285.058	97.79
285.274	93.69
285.489	87.55
285.704	50.69
285.919	19.97
286.134	3.58
286.349	81.41
286.564	46.59
286.779	71.17
286.995	85.5
287.21	62.98
287.425	120.32
287.64	24.06
287.855	85.5
288.07	87.55
288.285	60.93
288.5	-18.94
288.715	101.89
288.93	52.74
289.145	105.98
289.36	67.07
289.575	52.74
289.79	126.46
290.004	46.59
290.219	48.64
290.434	48.64
290.649	44.54
290.864	79.36
291.079	95.74
291.294	112.13
291.509	81.41
291.724	65.02
291.938	56.83
292.153	85.5
292.368	32.26
292.583	52.74
292.798	126.46
293.012	99.84
293.227	-2.56
293.442	77.31
293.657	97.79
293.871	142.85
294.086	28.16
294.301	103.93
294.516	52.74
294.73	79.36
294.945	-4.61
295.16	65.02
295.374	44.54
295.589	36.35
295.804	-4.61
296.018	40.45
296.233	28.16
296.447	11.78
296.662	-12.8
296.877	69.12
297.091	103.93
297.306	114.17
297.52	46.59
297.735	114.17
297.949	75.26
298.164	40.45
298.378	7.68
298.593	103.93
298.807	56.83
299.022	91.65
299.236	60.93
299.451	28.16
299.665	-16.9
299.88	112.13
300.094	105.98
300.309	-0.51
300.523	13.82
300.737	36.35
300.952	79.36
301.166	24.06
301.381	-12.8
301.595	50.69
301.809	73.21
302.024	19.97
302.238	56.83
302.452	56.83
302.667	48.64
302.881	36.35
303.095	99.84
303.309	124.41
303.524	30.21
303.738	28.16
303.952	36.35
304.166	93.69
304.381	44.54
304.595	112.13
304.809	46.59
305.023	151.04
305.237	46.59
305.452	24.06
305.666	-18.94
305.88	79.36
306.094	30.21
306.308	11.78
306.522	79.36
306.736	89.6
306.95	36.35
307.164	60.93
307.379	56.83
307.593	79.36
307.807	120.32
308.021	62.98
308.235	93.69
308.449	38.4
308.663	81.41
308.877	144.89
309.091	42.5
309.305	146.94
309.519	-18.94
309.733	118.27
309.947	91.65
310.161	126.46
310.374	36.35
310.588	185.85
310.802	-10.75
311.016	65.02
311.23	26.11
311.444	44.54
311.658	13.82
311.872	126.46
312.085	77.31
312.299	75.26
312.513	128.51
312.727	54.78
312.941	60.93
313.154	56.83
313.368	65.02
313.582	126.46
313.796	28.16
314.009	85.5
314.223	15.87
314.437	75.26
314.651	11.78
314.864	48.64
315.078	95.74
315.292	60.93
315.505	38.4
315.719	99.84
315.933	93.69
316.146	48.64
316.36	77.31
316.573	134.65
316.787	110.08
317.001	36.35
317.214	50.69
317.428	120.32
317.641	24.06
317.855	54.78
318.068	19.97
318.282	69.12
318.495	81.41
318.709	155.13
318.922	24.06
319.136	101.89
319.349	77.31
319.563	110.08
319.776	77.31
319.99	-12.8
320.203	136.7
320.417	15.87
320.63	85.5
320.843	167.42
321.057	44.54
321.27	118.27
321.483	40.45
321.697	-10.75
321.91	81.41
322.124	22.02
322.337	-0.51
322.55	60.93
322.763	30.21
322.977	19.97
323.19	46.59
323.403	48.64
323.617	120.32
323.83	71.17
324.043	38.4
324.256	-20.99
324.469	3.58
324.683	110.08
324.896	13.82
325.109	24.06
325.322	44.54
325.535	101.89
325.748	62.98
325.962	24.06
326.175	-10.75
326.388	110.08
326.601	60.93
326.814	126.46
327.027	83.45
327.24	97.79
327.453	-33.28
327.666	120.32
327.879	52.74
328.092	36.35
328.305	48.64
328.518	5.63
328.731	28.16
328.944	54.78
329.157	95.74
329.37	52.74
329.583	134.65
329.796	48.64
330.009	13.82
330.222	54.78
330.435	87.55
330.648	7.68
330.861	79.36
331.073	44.54
331.286	65.02
331.499	118.27
331.712	30.21
331.925	103.93
332.138	95.74
332.35	114.17
332.563	-55.81
332.776	120.32
332.989	65.02
333.202	44.54
333.414	26.11
333.627	151.04
333.84	112.13
334.053	110.08
334.265	65.02
334.478	56.83
334.691	69.12
334.903	85.5
335.116	50.69
335.329	101.89
335.541	77.31
335.754	112.13
335.966	85.5
336.179	77.31
336.392	93.69
336.604	75.26
336.817	126.46
337.029	28.16
337.242	32.26
337.454	103.93
337.667	87.55
337.88	138.75
338.092	28.16
338.305	101.89
338.517	73.21
338.729	85.5
338.942	73.21
339.154	11.78
339.367	85.5
339.579	-0.51
339.792	50.69
340.004	62.98
340.217	110.08
340.429	97.79
340.641	73.21
340.854	110.08
341.066	54.78
341.278	87.55
341.491	101.89
341.703	87.55
341.915	44.54
342.128	138.75
342.34	32.26
342.552	46.59
342.764	42.5
342.977	81.41
343.189	105.98
343.401	48.64
343.613	93.69
343.826	19.97
344.038	62.98
344.25	73.21
344.462	48.64
344.674	126.46
344.886	-4.61
345.099	112.13
345.311	52.74
345.523	15.87
345.735	71.17
345.947	101.89
346.159	54.78
346.371	87.55
346.583	26.11
346.795	144.89
347.007	30.21
347.219	138.75
347.431	19.97
347.643	142.85
347.855	28.16
348.067	101.89
348.279	19.97
348.491	69.12
348.703	65.02
348.915	26.11
349.127	36.35
349.339	85.5
349.551	116.22
349.763	142.85
349.975	103.93
350.187	122.37
350.399	3.58
350.61	65.02
350.822	114.17
351.034	54.78
351.246	38.4
351.458	30.21
351.669	77.31
351.881	128.51
352.093	120.32
352.305	52.74
352.517	79.36
352.728	85.5
352.94	87.55
353.152	132.61
353.363	71.17
353.575	138.75
353.787	69.12
353.999	77.31
354.21	151.04
354.422	118.27
354.633	-10.75
354.845	62.98
355.057	60.93
355.268	44.54
355.48	87.55
355.692	58.88
355.903	42.5
356.115	77.31
356.326	24.06
356.538	52.74
356.749	65.02
356.961	130.56
357.172	-43.52
357.384	40.45
357.595	169.47
357.807	151.04
358.018	-2.56
358.23	112.13
358.441	216.57
358.653	161.28
358.864	-18.94
359.075	40.45
359.287	126.46
359.498	83.45
359.709	151.04
359.921	167.42
360.132	36.35
360.344	85.5
360.555	77.31
360.766	85.5
360.977	118.27
361.189	118.27
361.4	60.93
361.611	69.12
361.823	132.61
362.034	65.02
362.245	110.08
362.456	30.21
362.667	101.89
362.879	105.98
363.09	69.12
363.301	46.59
363.512	62.98
363.723	22.02
363.935	3.58
364.146	112.13
364.357	99.84
364.568	118.27
364.779	69.12
364.99	67.07
365.201	60.93
365.412	-2.56
365.623	85.5
365.834	118.27
366.045	69.12
366.256	134.65
366.467	77.31
366.678	77.31
366.889	40.45
367.1	138.75
367.311	93.69
367.522	54.78
367.733	103.93
367.944	159.23
368.155	93.69
368.366	62.98
368.577	19.97
368.788	89.6
368.999	32.26
369.209	60.93
369.42	108.03
369.631	151.04
369.842	85.5
370.053	120.32
370.264	73.21
370.474	52.74
370.685	108.03
370.896	50.69
371.107	44.54
371.317	87.55
371.528	32.26
371.739	132.61
371.95	116.22
372.16	85.5
372.371	77.31
372.582	93.69
372.792	69.12
373.003	108.03
373.214	95.74
373.424	136.7
373.635	60.93
373.846	48.64
374.056	187.9
374.267	60.93
374.477	52.74
374.688	73.21
374.898	110.08
375.109	19.97
375.319	118.27
375.53	42.5
375.74	56.83
375.951	142.85
376.161	120.32
376.372	101.89
376.582	32.26
376.793	85.5
377.003	7.68
377.214	32.26
377.424	105.98
377.635	38.4
377.845	15.87
378.055	97.79
378.266	19.97
378.476	60.93
378.686	93.69
378.897	48.64
379.107	93.69
379.317	46.59
379.528	24.06
379.738	110.08
379.948	28.16
380.158	79.36
380.369	110.08
380.579	32.26
380.789	28.16
380.999	134.65
381.21	22.02
381.42	151.04
381.63	85.5
381.84	71.17
382.05	116.22
382.261	105.98
382.471	132.61
382.681	79.36
382.891	89.6
383.101	71.17
383.311	24.06
383.521	62.98
383.731	44.54
383.941	101.89
384.151	60.93
384.361	130.56
384.571	151.04
384.781	120.32
384.991	69.12
385.201	79.36
385.411	54.78
385.621	120.32
385.831	95.74
386.041	112.13
386.251	65.02
386.461	11.78
386.671	75.26
386.881	46.59
387.091	69.12
387.301	126.46
387.511	122.37
387.72	120.32
387.93	87.55
388.14	95.74
388.35	122.37
388.56	120.32
388.769	120.32
388.979	114.17
389.189	71.17
389.399	105.98
389.609	103.93
389.818	118.27
390.028	69.12
390.238	151.04
390.447	52.74
390.657	48.64
390.867	134.65
391.076	54.78
391.286	87.55
391.496	110.08
391.705	-8.7
391.915	159.23
392.125	58.88
392.334	134.65
392.544	103.93
392.753	71.17
392.963	69.12
393.172	132.61
393.382	105.98
393.591	110.08
393.801	138.75
394.01	60.93
394.22	132.61
394.429	7.68
394.639	89.6
394.848	101.89
395.058	112.13
395.267	136.7
395.477	77.31
395.686	146.94
395.895	167.42
396.105	230.91
396.314	148.99
396.524	87.55
396.733	110.08
396.942	122.37
397.152	173.57
397.361	101.89
397.57	69.12
397.78	134.65
397.989	101.89
398.198	179.71
398.407	97.79
398.617	52.74
398.826	159.23
399.035	118.27
399.244	214.52
399.453	161.28
399.663	71.17
399.872	192
400.081	151.04
400.29	114.17
400.499	65.02
400.708	185.85
400.917	110.08
401.127	95.74
401.336	50.69
401.545	232.96
401.754	204.28
401.963	163.33
402.172	103.93
402.381	173.57
402.59	114.17
402.799	144.89
403.008	183.81
403.217	179.71
403.426	167.42
403.635	177.66
403.844	204.28
404.053	202.24
404.262	103.93
404.471	177.66
404.68	110.08
404.888	167.42
405.097	159.23
405.306	185.85
405.515	228.86
405.724	249.34
405.933	202.24
406.142	220.67
406.35	267.77
406.559	196.09
406.768	200.19
406.977	310.78
407.185	232.96
407.394	179.71
407.603	261.63
407.812	235
408.02	341.5
408.229	220.67
408.438	284.16
408.646	241.15
408.855	237.05
409.064	333.31
409.272	198.14
409.481	290.3
409.69	341.5
409.898	341.5
410.107	325.12
410.315	347.64
410.524	364.03
410.733	372.22
410.941	398.84
411.15	343.55
411.358	404.99
411.567	505.34
411.775	437.75
411.984	478.71
412.192	437.75
412.401	517.62
412.609	503.29
412.818	585.21
413.026	595.45
413.234	511.48
413.443	593.4
413.651	642.55
413.86	560.63
414.068	663.03
414.276	636.41
414.485	529.91
414.693	718.33
414.901	757.24
415.11	740.85
415.318	773.62
415.526	691.7
415.734	808.44
415.943	912.88
416.151	896.5
416.359	880.11
416.567	798.2
416.776	1021.42
416.984	1005.04
417.192	988.66
417.4	1011.18
417.608	1027.57
417.817	1068.53
418.025	1095.15
418.233	1373.68
418.441	1175.02
418.649	1175.02
418.857	1445.35
419.065	1353.2
419.273	1347.05
419.481	1361.39
419.689	1486.31
419.897	1547.75
420.105	1609.19
420.313	1666.53
420.521	1734.12
420.729	1840.61
420.937	1746.41
421.145	1773.03
421.353	1867.24
421.561	2029.03
421.769	1979.87
421.977	2170.33
422.185	2250.21
422.393	2203.1
422.601	2287.07
422.809	2315.74
423.017	2264.54
423.224	2541.02
423.432	2633.18
423.64	2571.74
423.848	2772.44
424.056	2719.19
424.263	3007.95
424.471	2848.21
424.679	3065.3
424.887	3110.35
425.094	3372.49
425.302	3220.94
425.51	3374.54
425.718	3616.2
425.925	3519.95
426.133	3661.26
426.341	3759.56
426.548	4142.53
426.756	4021.7
426.964	4115.91
427.171	4341.18
427.379	4320.7
427.586	4478.4
427.794	4556.22
428.001	4742.58
428.209	4980.15
428.417	4847.03
428.624	5451.18
428.832	5381.55
429.039	5275.06
429.247	5123.51
429.454	5713.32
429.662	6215.07
429.869	5731.75
430.076	6143.39
430.284	6114.72
430.491	6215.07
430.699	6675.87
430.906	6641.05
431.114	6749.59
431.321	6909.33
431.528	7200.15
431.736	7554.44
431.943	7816.58
432.15	7705.99
432.358	7837.06
432.565	8291.71
432.772	8154.5
432.979	8592.76
433.187	8781.18
433.394	8678.78
433.601	9368.95
433.808	9418.1
434.016	9418.1
434.223	9723.24
434.43	10208.61
434.637	9946.47
434.844	10657.12
435.052	11005.27
435.259	10861.91
435.466	10911.07
435.673	10798.43
435.88	11636.05
436.087	12062.02
436.294	12164.42
436.501	11705.68
436.708	11965.77
436.915	12492.1
437.122	12803.39
437.329	13153.59
437.537	13411.64
437.743	13741.36
437.95	13532.47
438.157	14216.49
438.364	14560.55
438.571	14671.14
438.778	14783.77
438.985	16166.15
439.192	15623.44
439.399	16127.24
439.606	15516.95
439.813	16868.61
440.02	17446.13
440.227	17165.56
440.433	16971.01
440.64	17876.21
440.847	17466.61
441.054	17992.94
441.261	19229.91
441.467	18566.37
441.674	19254.49
441.881	20124.88
442.088	19930.32
442.294	19703
442.501	20286.67
442.708	20739.27
442.914	21443.77
443.121	22353.07
443.328	21972.14
443.534	23332
443.741	22516.9
443.948	22367.4
444.154	24052.88
444.361	23932.05
444.568	24243.34
444.774	24071.31
444.981	24202.38
445.187	25076.87
445.394	25799.8
445.6	25769.08
445.807	28425.29
446.013	27190.37
446.22	27466.84
446.426	28204.11
446.633	28998.73
446.839	29953.08
447.046	28458.06
447.252	30137.4
447.459	30252.08
447.665	29912.12
447.871	31548.45
448.078	32592.91
448.284	31183.91
448.491	32255
448.697	33541.12
448.903	34169.85
449.11	34038.78
449.316	33391.62
449.522	33948.67
449.728	34821.1
449.935	35353.57
450.141	35372
450.347	36295.64
450.553	35189.74
450.76	35785.69
450.966	36899.79
451.172	36355.03
451.378	37508.04
451.584	36439
451.791	37794.75
451.997	37610.43
452.203	38001.6
452.409	38153.15
452.615	37970.88
452.821	36666.32
453.027	36113.37
453.233	37993.4
453.44	36621.27
453.646	37321.67
453.852	37419.97
454.058	38233.02
454.264	36776.91
454.47	37798.85
454.676	36721.62
454.882	37942.21
455.088	34790.38
455.294	35544.03
455.5	36183
455.705	36228.06
455.911	34986.99
456.117	34130.94
456.323	33758.2
456.529	32406.55
456.735	33557.5
456.941	32695.31
457.147	32381.97
457.352	31317.03
457.558	30772.27
457.764	30932.01
457.97	30356.53
458.176	29799.48
458.381	29852.73
458.587	28404.81
458.793	28386.38
458.999	27153.51
459.204	29170.75
459.41	28103.76
459.616	26348.65
459.821	26719.34
460.027	26412.14
460.233	25853.05
460.438	24802.44
460.644	24693.9
460.85	23649.43
461.055	23065.76
461.261	23272.6
461.466	21716.15
461.672	20749.51
461.878	22265
462.083	20970.69
462.289	20796.61
462.494	20434.12
462.7	19582.17
462.905	18881.76
463.111	19789.01
463.316	19756.24
463.522	19541.21
463.727	19447
463.932	19098.84
464.138	19025.12
464.343	19191
464.549	18631.91
464.754	19191
464.959	19223.77
465.165	19156.19
465.37	18230.51
465.575	17472.76
465.781	18330.86
465.986	18644.2
466.191	17771.76
466.397	17542.39
466.602	16659.71
466.807	17181.95
467.012	16944.38
467.218	17087.74
467.423	16968.96
467.628	17036.54
467.833	17951.98
468.038	16983.29
468.244	16622.85
468.449	17458.42
468.654	16856.32
468.859	16715.01
469.064	16592.13
469.269	15883.53
469.474	16233.74
469.679	16364.81
469.885	16051.47
470.09	15971.6
470.295	15998.22
470.5	15592.72
470.705	15645.97
470.91	15592.72
471.115	15318.29
471.32	15420.69
471.525	15422.74
471.73	14890.27
471.935	14966.04
472.139	14593.31
472.344	15013.15
472.549	14454.05
472.754	14431.52
472.959	14077.23
473.164	13798.7
473.369	13530.42
473.574	14187.82
473.778	14007.59
473.983	13817.13
474.188	13817.13
474.393	13227.32
474.598	13370.68
474.802	13305.14
475.007	13184.31
475.212	12944.7
475.417	12485.95
475.621	12891.45
475.826	12674.37
476.031	12401.99
476.235	12068.17
476.44	12291.4
476.645	12047.69
476.849	12340.55
477.054	11930.95
477.259	11840.84
477.463	11840.84
477.668	11451.73
477.872	11742.54
478.077	11400.53
478.282	11156.82
478.486	11312.47
478.691	11050.33
478.895	11162.97
479.1	10909.02
479.304	11060.57
479.509	10630.49
479.713	10851.67
479.918	10689.88
480.122	10554.72
480.326	10734.94
480.531	10603.87
480.735	10593.63
480.94	10542.43
481.144	10573.15
481.348	10298.72
481.553	10284.39
481.757	10014.06
481.961	10317.15
482.166	10448.22
482.37	10448.22
482.574	10126.69
482.778	10083.69
482.983	10306.91
483.187	10237.28
483.391	10214.76
483.595	10192.23
483.8	10018.15
484.004	10138.98
484.208	10374.5
484.412	10024.3
484.616	10251.62
484.821	10186.08
485.025	10104.17
485.229	10333.54
485.433	10186.08
485.637	10235.24
485.841	10268
486.045	9909.61
486.249	10095.97
486.453	10034.53
486.657	10245.48
486.861	10306.91
487.065	9866.6
487.269	10014.06
487.473	10046.82
487.677	10261.86
487.881	10349.92
488.085	10204.52
488.289	10325.35
488.493	10286.44
488.697	10349.92
488.901	10425.7
489.105	10446.18
489.309	10415.46
489.512	10452.32
489.716	10425.7
489.92	10319.2
490.124	10384.74
490.328	10562.91
490.531	10454.37
490.735	10493.28
490.939	10700.12
491.143	10519.9
491.346	10550.62
491.55	10636.64
491.754	10747.23
491.958	10949.98
492.161	10603.87
492.365	10929.5
492.569	10769.76
492.772	10798.43
492.976	11083.09
493.18	11140.44
493.383	11070.81
493.587	11337.04
493.79	11476.3
493.994	11226.45
494.197	11271.51
494.401	11439.44
494.605	11574.61
494.808	11627.85
495.012	11654.48
495.215	11973.96
495.419	11910.47
495.622	11697.49
495.825	12053.83
496.029	11949.39
496.232	12313.92
496.436	12381.51
496.639	12379.46
496.843	12418.37
497.046	13014.33
497.249	12979.51
497.453	13225.27
497.656	13063.48
497.859	13118.78
498.063	13495.6
498.266	13546.8
498.469	13677.87
498.673	13905.2
498.876	14097.7
499.079	14060.84
499.282	14179.62
499.485	14409
499.689	14423.33
499.892	14896.41
500.095	14900.51
500.298	15248.66
500.501	15041.82
500.705	15588.63
500.908	15645.97
501.111	15641.87
501.314	16026.89
501.517	16325.89
501.72	16297.22
501.923	16311.56
502.126	16624.9
502.329	16735.49
502.532	16925.95
502.735	17204.47
502.938	17626.36
503.141	17759.47
503.344	18013.42
503.547	17738.99
503.75	18216.17
503.953	18443.49
504.156	18855.14
504.359	18920.67
504.562	18822.37
504.765	19475.67
504.968	19338.46
505.17	19737.81
505.373	19934.42
505.576	20245.71
505.779	20540.61
505.982	20616.39
506.185	21048.51
506.387	21046.46
506.59	21230.78
506.793	21818.55
506.996	21656.76
507.198	22299.82
507.401	22049.97
507.604	22224.04
507.807	22824.1
508.009	23129.25
508.212	23176.35
508.415	23542.94
508.617	23958.67
508.82	23893.14
509.022	23882.9
509.225	24214.67
509.428	24609.93
509.63	24890.5
509.833	25101.44
510.035	25832.57
510.238	25449.6
510.44	26006.64
510.643	26438.76
510.845	26580.07
511.048	26520.68
511.25	27077.73
511.453	27364.45
511.655	28122.19
511.858	27386.97
512.06	28181.59
512.262	28476.49
512.465	28326.99
512.667	29006.92
512.87	29283.39
513.072	29199.43
513.274	29844.54
513.477	29928.5
513.679	30534.7
513.881	30901.29
514.084	30770.22
514.286	31159.33
514.488	31214.63
514.69	32285.72
514.893	32211.99
515.095	32621.58
515.297	32519.18
515.499	33051.66
515.701	33418.24
515.904	33836.03
516.106	33893.37
516.308	34421.75
516.51	34462.71
516.712	34378.74
516.914	35212.26
517.116	35951.58
517.318	35492.83
517.52	35761.12
517.722	35881.95
517.925	36492.24
518.127	37233.61
518.329	37092.3
518.531	37217.22
518.733	37782.46
518.935	38374.33
519.136	38640.56
519.338	38831.02
519.54	38833.07
519.742	39306.15
519.944	39285.67
520.146	40061.85
520.348	40237.98
520.55	40434.58
520.752	40377.24
520.954	41298.83
521.155	40928.14
521.357	40975.25
521.559	42279.8
521.761	42619.77
521.963	42466.17
522.164	42410.87
522.366	42859.38
522.568	42984.3
522.77	43508.58
522.971	44032.86
523.173	43770.72
523.375	44327.77
523.576	44178.27
523.778	44147.55
523.98	45130.58
524.181	44989.27
524.383	45169.49
524.584	45507.4
524.786	45974.34
524.988	45552.46
525.189	46086.98
525.391	46177.09
525.592	46807.86
525.794	46711.61
525.995	47182.64
526.197	47072.05
526.398	46992.18
526.6	47360.81
526.801	47020.85
527.003	47289.13
527.204	47915.81
527.406	48255.78
527.607	48161.57
527.808	48651.03
528.01	47919.91
528.211	48665.37
528.412	49529.61
528.614	49124.11
528.815	48831.25
529.016	49257.23
529.218	48997.14
529.419	49111.83
529.62	49212.18
529.822	49470.22
530.023	49746.7
530.224	49195.79
530.425	49455.89
530.626	49113.87
530.828	49054.48
531.029	50248.45
531.23	49920.77
531.431	49726.22
531.632	49840.9
531.833	49974.02
532.035	50262.79
532.236	50221.83
532.437	50086.66
532.638	49984.26
532.839	50066.18
533.04	50205.44
533.241	49941.25
533.442	50787.07
533.643	50625.28
533.844	50178.82
534.045	50512.64
534.246	50098.95
534.447	50782.97
534.648	50387.71
534.849	50559.74
535.05	50053.89
535.251	50438.91
535.451	50160.39
535.652	50715.39
535.853	50533.12
536.054	50643.71
536.255	50938.61
536.456	50242.31
536.657	51092.21
536.857	50569.98
537.058	50273.02
537.259	50701.05
537.46	50750.2
537.66	50381.57
537.861	50748.15
538.062	50461.44
538.263	50756.35
538.463	50522.88
538.664	50561.79
538.865	50815.74
539.065	50707.19
539.266	50344.7
539.466	51247.86
539.667	50072.32
539.868	50846.46
540.068	50168.58
540.269	50643.71
540.469	50707.19
540.67	50447.1
540.87	50840.31
541.071	50631.42
541.271	50653.95
541.472	50471.68
541.672	50340.61
541.873	50328.32
542.073	49683.21
542.274	50871.03
542.474	50397.95
542.675	50270.98
542.875	50463.49
543.075	50193.15
543.276	49767.18
543.476	50451.2
543.676	50012.93
543.877	50858.74
544.077	50023.17
544.277	50103.04
544.478	50529.02
544.678	50735.87
544.878	50465.53
545.078	50512.64
545.279	50123.52
545.479	50070.28
545.679	50113.28
545.879	50553.6
546.079	50590.46
546.28	50369.28
546.48	50135.81
546.68	50043.65
546.88	50414.33
547.08	50168.58
547.28	49996.55
547.48	49863.43
547.68	49988.36
547.88	49931.01
548.081	50299.65
548.281	50232.07
548.481	50244.35
548.681	50397.95
548.881	50166.53
549.081	49931.01
549.28	49658.63
549.48	50365.18
549.68	49812.23
549.88	50389.76
550.08	49937.16
550.28	49971.97
550.48	49888.01
550.68	50313.98
550.88	49468.17
551.08	49738.51
551.279	49928.97
551.479	49726.22
551.679	50023.17
551.879	49758.98
552.079	50367.23
552.278	49562.38
552.478	50070.28
552.678	49818.38
552.878	50078.47
553.077	49681.16
553.277	49347.34
553.477	49900.29
553.676	49464.08
553.876	49894.15
554.076	49459.98
554.275	49113.87
554.475	49111.83
554.674	49814.28
554.874	49486.6
555.074	49812.23
555.273	49521.42
555.473	49849.1
555.672	49152.79
555.872	49410.83
556.071	49386.25
556.271	49488.65
556.47	49283.86
556.67	48472.86
556.869	49355.53
557.068	49107.73
557.268	48931.61
557.467	49115.92
557.667	49066.77
557.866	49122.07
558.065	48943.89
558.265	48538.4
558.464	48339.74
558.663	49083.16
558.863	48444.19
559.062	49421.07
559.261	47989.54
559.461	48960.28
559.66	47913.76
559.859	48186.14
560.058	48122.66
560.258	48245.54
560.457	48458.52
560.656	48376.61
560.855	48091.94
561.054	48028.45
561.253	48075.55
561.453	48081.7
561.652	48177.95
561.851	47842.09
562.05	47610.67
562.249	47463.21
562.448	47743.78
562.647	47743.78
562.846	47268.65
563.045	48071.46
563.244	46924.6
563.443	47682.34
563.642	47088.43
563.841	47571.75
564.04	47049.52
564.239	47829.8
564.438	47076.15
564.637	47604.52
564.836	47153.97
565.035	46629.69
565.234	46760.76
565.432	46672.7
565.631	46719.8
565.83	47061.81
566.029	46146.37
566.228	46320.45
566.427	46730.04
566.625	46232.38
566.824	45996.87
567.023	46373.69
567.222	45521.74
567.42	46596.92
567.619	46015.3
567.818	45908.8
568.016	45740.87
568.215	46218.05
568.414	45247.31
568.612	46048.07
568.811	45214.54
569.01	45816.64
569.208	45212.49
569.407	45509.45
569.605	45364.04
569.804	45495.11
570.002	44579.67
570.201	45349.71
570.4	44651.35
570.598	44446.55
570.797	44542.81
570.995	44827.48
571.193	44104.54
571.392	44608.34
571.59	44163.93
571.789	44045.15
571.987	44145.5
572.186	44098.4
572.384	43631.46
572.582	43893.6
572.781	44147.55
572.979	43475.82
573.177	43809.64
573.376	43629.41
573.574	43516.78
573.772	43846.5
573.971	43090.8
574.169	42875.76
574.367	42914.67
574.565	43203.44
574.763	43008.88
574.962	42582.9
575.16	42462.07
575.358	42718.07
575.556	42396.54
575.754	42906.48
575.952	42333.05
576.151	42654.58
576.349	41898.88
576.547	42056.57
576.745	42261.37
576.943	42103.68
577.141	41669.51
577.339	41870.21
577.537	41151.37
577.735	41714.56
577.933	41214.86
578.131	41411.46
578.329	41272.2
578.527	41096.08
578.725	40860.56
578.923	41229.19
579.121	40739.73
579.319	40805.27
579.516	41001.87
579.714	40702.87
579.912	40557.46
580.11	40092.57
580.308	40244.12
580.506	40041.37
580.704	39867.3
580.901	40004.51
581.099	40436.63
581.297	39549.86
581.495	39517.09
581.692	39551.91
581.89	39191.47
582.088	39934.88
582.285	39627.68
582.483	39306.15
582.681	39332.78
582.878	38667.19
583.076	38691.76
583.274	39177.13
583.471	38542.26
583.669	38740.91
583.866	38417.33
584.064	38605.75
584.262	37925.82
584.459	38562.74
584.657	38216.63
584.854	38411.19
585.052	37749.7
585.249	37878.72
585.447	37958.59
585.644	37608.39
585.841	37460.93
586.039	37872.57
586.236	37090.25
586.434	37057.48
586.631	36996.04
586.828	37387.21
587.026	37333.96
587.223	36989.9
587.42	36881.36
587.618	36776.91
587.815	36697.04
588.012	36420.56
588.21	36168.66
588.407	36758.48
588.604	36344.79
588.801	36299.73
588.999	35648.48
589.196	35851.23
589.393	35920.86
589.59	35513.31
589.787	35707.87
589.984	35685.34
590.182	35144.68
590.379	35707.87
590.576	34720.75
590.773	35374.05
590.97	34946.03
591.167	35333.09
591.364	34698.22
591.561	35326.95
591.758	34696.17
591.955	34558.96
592.152	34466.8
592.349	34333.68
592.546	34386.93
592.743	34427.89
592.94	33805.31
593.137	33940.47
593.334	34348.02
593.531	33756.16
593.727	33754.11
593.924	33758.2
594.121	33227.78
594.318	33588.22
594.515	32982.02
594.712	33197.06
594.908	33184.77
595.105	33330.18
595.302	32846.86
595.499	32844.81
595.696	32607.25
595.892	32660.49
596.089	32703.5
596.286	32816.14
596.482	32150.55
596.679	32474.13
596.876	32353.3
597.072	31994.9
597.269	32171.03
597.466	31890.46
597.662	32039.96
597.859	31767.58
598.055	32025.62
598.252	31634.46
598.448	31714.33
598.645	31208.48
598.841	31329.31
599.038	31157.28
599.234	31235.11
599.431	30929.96
599.627	30616.62
599.824	30768.17
600.02	30776.36
600.217	30567.47
600.413	30780.46
600.609	30252.08
600.806	30377.01
601.002	30157.88
601.198	30356.53
601.395	30059.57
601.591	30094.39
601.787	30063.67
601.984	29885.5
602.18	30067.77
602.376	29717.56
602.572	29695.03
602.769	29774.91
602.965	29365.31
603.161	29613.12
603.357	29000.77
603.553	29221.95
603.75	29236.29
603.946	28857.42
604.142	29303.87
604.338	28877.9
604.534	28605.52
604.73	28324.94
604.926	28372.05
605.122	28775.5
605.318	28212.31
605.514	27962.45
605.71	28075.09
605.906	28134.48
606.102	28251.22
606.298	28367.95
606.494	27911.25
606.69	28019.8
606.886	28052.56
607.082	27395.17
607.278	27677.79
607.474	27286.62
607.67	27546.72
607.866	27327.58
608.062	27685.98
608.257	26995.81
608.453	27313.25
608.649	27411.55
608.845	26897.51
609.041	27194.47
609.236	27022.44
609.432	26715.24
609.628	26713.19
609.824	26901.61
610.019	26846.31
610.215	26414.19
610.411	26731.62
610.606	26629.23
610.802	26422.38
610.998	26528.88
611.193	26371.18
611.389	26297.45
611.584	26088.56
611.78	26137.71
611.976	26090.61
612.171	26258.54
612.367	26356.85
612.562	25822.33
612.758	25797.75
612.953	25848.95
613.149	26035.31
613.344	25425.02
613.539	25844.85
613.735	25691.26
613.93	25877.62
614.126	25345.15
614.321	25795.7
614.517	25529.47
614.712	25597.05
614.907	25429.12
615.103	25447.55
615.298	25322.62
615.493	25764.98
615.688	24958.08
615.884	25355.39
616.079	25134.21
616.274	25171.07
616.47	25072.77
616.665	24994.95
616.86	24951.94
617.055	24949.89
617.25	24607.88
617.445	24681.61
617.641	24448.14
617.836	24442
618.031	24040.59
618.226	24630.41
618.421	24011.92
618.616	24460.43
618.811	24140.94
619.006	24568.97
619.201	23616.66
619.396	23753.88
619.591	23669.91
619.786	24005.78
619.981	23293.08
620.176	23698.58
620.371	23303.32
620.566	23399.58
620.761	23270.56
620.956	23614.62
621.151	22869.16
621.346	23004.32
621.541	22557.86
621.735	22834.34
621.93	22518.95
622.125	22355.11
622.32	22357.16
622.515	22275.24
622.709	21966
622.904	21966
623.099	21845.17
623.294	21793.97
623.488	21523.64
623.683	21879.99
623.878	21048.51
624.072	21107.9
624.267	21394.62
624.462	20970.69
624.656	20737.22
624.851	20856
625.046	20901.06
625.24	20647.11
625.435	20587.72
625.629	20456.65
625.824	20333.77
626.018	20237.52
626.213	19735.76
626.407	20090.06
626.602	19705.04
626.796	20145.36
626.991	19815.63
627.185	19635.41
627.38	19530.97
627.574	19311.83
627.768	19102.94
627.963	18990.3
628.157	19037.41
628.352	19029.21
628.546	18773.22
628.74	18869.47
628.935	18623.72
629.129	18547.94
629.323	18334.95
629.517	18451.69
629.712	18279.66
629.906	18013.42
630.1	17829.1
630.294	18138.35
630.489	17716.47
630.683	17784.05
630.877	17384.69
631.071	17595.64
631.265	17591.54
631.459	17409.27
631.653	17196.28
631.848	17247.48
632.042	16876.8
632.236	17202.43
632.43	16899.33
632.624	17079.55
632.818	16663.81
633.012	16784.64
633.206	16719.1
633.4	16676.1
633.594	16524.55
633.788	16160.01
633.982	16469.25
634.176	16180.49
634.369	16073.99
634.563	16135.43
634.757	16203.02
634.951	15760.66
635.145	16094.47
635.339	15836.43
635.533	15469.84
635.726	15512.85
635.92	15469.84
636.114	15445.27
636.308	15344.92
636.501	15318.29
636.695	15201.56
636.889	15084.83
637.083	14841.12
637.276	15031.58
637.47	14619.94
637.664	14785.82
637.857	14650.66
638.051	14636.32
638.244	14671.14
638.438	14554.4
638.632	14429.48
638.825	14232.87
639.019	14224.68
639.212	14093.61
639.406	14155.05
639.599	14023.98
639.793	13813.04
639.986	13841.71
640.18	13825.33
640.373	13729.07
640.567	13370.68
640.76	13630.77
640.954	13342
641.147	13411.64
641.34	13370.68
641.534	13233.46
641.727	13210.93
641.92	13012.28
642.114	12911.93
642.307	13118.78
642.5	12778.81
642.694	12647.74
642.887	12678.46
643.08	12844.35
643.273	12533.06
643.467	12610.88
643.66	12320.07
643.853	12430.66
644.046	12137.8
644.239	12324.16
644.432	12201.29
644.626	12225.86
644.819	11887.95
645.012	12129.61
645.205	11900.23
645.398	12012.87
645.591	11779.4
645.784	11728.21
645.977	11627.85
646.17	11681.1
646.363	11382.1
646.556	11521.36
646.749	11226.45
646.942	11201.88
647.135	11152.73
647.328	11308.37
647.521	11140.44
647.714	11076.95
647.907	10909.02
648.099	10906.97
648.292	11072.86
648.485	10906.97
648.678	10808.67
648.871	10851.67
649.064	10519.9
649.256	10728.8
649.449	10364.26
649.642	10364.26
649.835	10337.63
650.027	10276.2
650.22	10200.42
650.413	10118.5
650.605	10210.66
650.798	10143.08
650.991	9973.1
651.183	9966.95
651.376	9989.48
651.568	9850.22
651.761	9825.64
651.954	9592.17
652.146	9633.13
652.339	9717.1
652.531	9698.67
652.724	9602.41
652.916	9434.48
653.109	9473.39
653.301	9311.6
653.494	9448.82
653.686	9293.17
653.879	9284.98
654.071	9219.44
654.263	9059.7
654.456	8969.59
654.648	9258.35
654.84	8836.47
655.033	9041.27
655.225	8963.45
655.417	8811.9
655.61	8977.78
655.802	8809.85
655.994	8588.67
656.186	8582.53
656.379	8609.15
656.571	8672.64
656.763	8275.33
656.955	8396.16
657.148	8398.21
657.34	8357.25
657.532	8402.3
657.724	8105.35
657.916	8334.72
658.108	8056.2
658.3	8166.79
658.492	8093.06
658.684	7816.58
658.876	7941.51
659.068	7859.59
659.26	7720.33
659.452	7949.7
659.644	7804.3
659.836	7624.08
660.028	7718.28
660.22	7562.64
660.412	7628.17
660.604	7677.32
660.796	7673.23
660.988	7509.39
661.18	7247.25
661.372	7243.15
661.563	7447.95
661.755	7142.8
661.947	7269.78
662.139	7202.19
662.331	7189.91
662.522	7046.55
662.714	7105.94
662.906	6960.53
663.097	6901.14
663.289	6886.81
663.481	7009.69
663.673	6909.33
663.864	6725.02
664.056	6725.02
664.247	6778.26
664.439	6663.58
664.631	6704.54
664.822	6679.96
665.014	6622.62
665.205	6389.15
665.397	6405.53
665.588	6483.36
665.78	6241.7
665.971	6391.2
666.163	6348.19
666.354	6360.48
666.546	6342.05
666.737	6202.79
666.929	6286.75
667.12	6075.81
667.311	5967.27
667.503	5961.13
667.694	5856.68
667.885	5914.02
668.077	5975.46
668.268	5854.63
668.459	5864.87
668.651	5840.29
668.842	5778.86
669.033	5828.01
669.224	5807.53
669.416	5698.99
669.607	5737.9
669.798	5690.79
669.989	5662.12
670.18	5598.63
670.371	5615.02
670.563	5428.65
670.754	5500.33
670.945	5486
671.136	5496.24
671.327	5426.61
671.518	5313.97
671.709	5584.3
671.9	5422.51
672.091	5418.41
672.282	5322.16
672.473	5279.15
672.664	5248.43
672.855	5336.49
673.046	5152.18
673.237	5295.54
673.428	5215.66
673.619	5176.75
673.809	5172.66
674	5164.47
674.191	5082.55
674.382	5115.31
674.573	4990.39
674.764	4978.1
674.954	5025.2
675.145	5012.92
675.336	4971.96
675.527	4836.79
675.717	4959.67
675.908	4804.02
676.099	4808.12
676.289	4734.39
676.48	4808.12
676.671	4666.81
676.861	4783.54
677.052	4675
677.243	4697.53
677.433	4754.87
677.624	4713.91
677.814	4601.27
678.005	4588.99
678.195	4607.42
678.386	4490.68
678.576	4599.23
678.767	4625.85
678.957	4482.49
679.148	4570.55
679.338	4490.68
679.529	4416.96
679.719	4488.64
679.909	4570.55
680.1	4339.13
680.29	4388.29
680.481	4392.38
680.671	4419
680.861	4371.9
681.052	4302.27
681.242	4353.47
681.432	4443.58
681.622	4412.86
681.813	4197.82
682.003	4197.82
682.193	4287.93
682.383	4347.33
682.573	4445.63
682.764	4152.77
682.954	4341.18
683.144	4218.3
683.334	4230.59
683.524	4238.78
683.714	4193.73
683.904	4111.81
684.094	4242.88
684.284	4099.52
684.474	4390.33
684.664	4296.13
684.854	4238.78
685.044	4140.48
685.234	4027.84
685.424	4091.33
685.614	4095.43
685.804	4091.33
685.994	4120
686.184	4060.61
686.374	4011.46
686.564	3986.88
686.753	3956.16
686.943	4117.95
687.133	3878.34
687.323	3900.87
687.513	3968.45
687.702	3925.44
687.892	4003.27
688.082	3804.61
688.272	3990.98
688.461	4001.22
688.651	3829.19
688.841	3825.09
689.03	3753.41
689.22	3700.17
689.41	3734.98
689.599	3771.85
689.789	3812.81
689.979	3708.36
690.168	3757.51
690.358	3599.82
690.547	3814.85
690.737	3614.15
690.926	3765.7
691.116	3528.14
691.305	3673.54
691.495	3685.83
691.684	3681.74
691.874	3640.78
692.063	3661.26
692.252	3591.63
692.442	3626.44
692.631	3534.28
692.82	3583.43
693.01	3487.18
693.199	3546.57
693.388	3509.71
693.578	3472.84
693.767	3548.62
693.956	3386.83
694.146	3364.3
694.335	3460.56
694.524	3489.23
694.713	3646.92
694.902	3476.94
695.092	3444.17
695.281	3501.51
695.47	3266
695.659	3427.79
695.848	3354.06
696.037	3329.49
696.226	3489.23
696.415	3233.23
696.604	3362.25
696.793	3374.54
696.982	3249.61
697.171	3247.57
697.36	3276.24
697.549	3206.61
697.738	3263.95
697.927	3261.9
698.116	3397.07
698.305	3362.25
698.494	3300.81
698.683	3159.5
698.872	3321.29
699.061	3288.53
699.25	3317.2
699.438	3210.7
699.627	3206.61
699.816	3323.34
700.005	3202.51
700.193	3200.46
700.382	3231.18
700.571	3167.7
700.76	3071.44
700.948	3276.24
701.137	3046.87
701.326	3126.74
701.514	3091.92
701.703	3063.25
701.892	2952.66
702.08	3116.5
702.269	3044.82
702.457	3139.02
702.646	3046.87
702.834	3046.87
703.023	3042.77
703.212	3053.01
703.4	2850.26
703.589	3055.06
703.777	2960.85
703.965	2989.52
704.154	3016.15
704.342	3007.95
704.531	2946.52
704.719	2876.88
704.907	2952.66
705.096	2797.01
705.284	2979.28
705.472	2840.02
705.661	2889.17
705.849	3018.19
706.037	2915.8
706.226	2979.28
706.414	2874.84
706.602	2842.07
706.79	2809.3
706.979	2893.27
707.167	2895.32
707.355	2854.36
707.543	2780.63
707.731	2960.85
707.919	2799.06
708.107	2833.88
708.296	2797.01
708.484	2655.7
708.672	2754.01
708.86	2708.95
709.048	2837.97
709.236	2829.78
709.424	2831.83
709.612	2756.05
709.8	2723.29
709.988	2602.46
710.176	2813.4
710.364	2784.73
710.551	2797.01
710.739	2706.9
710.927	2758.1
711.115	2649.56
711.303	2612.7
711.491	2645.46
711.679	2676.18
711.866	2635.22
712.054	2698.71
712.242	2534.87
712.43	2618.84
712.617	2622.94
712.805	2624.98
712.993	2616.79
713.181	2659.8
713.368	2608.6
713.556	2600.41
713.744	2493.91
713.931	2500.06
714.119	2586.07
714.306	2565.59
714.494	2467.29
714.682	2563.54
714.869	2436.57
715.057	2633.18
715.244	2547.16
715.432	2602.46
715.619	2565.59
715.807	2436.57
715.994	2397.66
716.182	2612.7
716.369	2528.73
716.556	2577.88
716.744	2340.32
716.931	2510.3
717.119	2510.3
717.306	2461.15
717.493	2358.75
717.681	2399.71
717.868	2407.9
718.055	2395.61
718.242	2424.28
718.43	2493.91
718.617	2420.19
718.804	2477.53
718.991	2403.8
719.179	2452.95
719.366	2412
719.553	2266.59
719.74	2393.56
719.927	2409.95
720.114	2336.22
720.301	2416.09
720.488	2338.27
720.676	2391.52
720.863	2309.6
721.05	2373.08
721.237	2344.41
721.424	2291.17
721.611	2342.36
721.798	2192.86
721.985	2297.31
722.172	2205.15
722.358	2239.97
722.545	2256.35
722.732	2323.93
722.919	2272.73
723.106	2194.91
723.293	2239.97
723.48	2328.03
723.667	2248.16
723.853	2170.33
724.04	2203.1
724.227	2227.68
724.414	2166.24
724.6	2108.9
724.787	2209.25
724.974	2276.83
725.161	2164.19
725.347	2065.89
725.534	2176.48
725.72	2209.25
725.907	2258.4
726.094	2248.16
726.28	2117.09
726.467	2100.7
726.653	2137.57
726.84	2143.71
727.027	2201.05
727.213	2166.24
727.4	2141.66
727.586	2129.38
727.773	2088.42
727.959	2061.79
728.145	2141.66
728.332	2035.17
728.518	2135.52
728.705	2092.51
728.891	2080.22
729.077	2106.85
729.264	2016.74
729.45	2121.18
729.636	2078.18
729.823	2059.74
730.009	2086.37
730.195	2156
730.382	2055.65
730.568	1979.87
730.754	2026.98
730.94	2002.4
731.126	2061.79
731.313	2055.65
731.499	2069.98
731.685	1885.67
731.871	2035.17
732.057	2022.88
732.243	1977.83
732.429	1988.07
732.615	2059.74
732.801	1990.11
732.987	1920.48
733.173	1938.91
733.359	1945.06
733.545	2037.22
733.731	1988.07
733.917	1947.11
734.103	1873.38
734.289	2010.59
734.475	1988.07
734.661	2080.22
734.847	1881.57
735.033	1963.49
735.219	1936.87
735.404	1881.57
735.59	1828.32
735.776	1828.32
735.962	1816.04
736.148	1969.63
736.333	1826.28
736.519	1801.7
736.705	1834.47
736.89	1838.56
737.076	2051.55
737.262	1871.33
737.447	1900
737.633	1865.19
737.819	1904.1
738.004	1871.33
738.19	1842.66
738.375	1811.94
738.561	1793.51
738.747	1799.65
738.932	1852.9
739.118	1848.8
739.303	1783.27
739.489	1789.41
739.674	1787.36
739.859	1752.55
740.045	1857
740.23	1797.6
740.416	1750.5
740.601	1746.41
740.786	1797.6
740.972	1838.56
741.157	1746.41
741.342	1709.54
741.528	1629.67
741.713	1764.84
741.898	1781.22
742.084	1732.07
742.269	1695.21
742.454	1820.13
742.639	1867.24
742.824	1670.63
743.01	1760.74
743.195	1715.69
743.38	1652.2
743.565	1613.29
743.75	1601
743.935	1594.86
744.12	1734.12
744.305	1650.15
744.49	1568.23
744.675	1623.53
744.86	1611.24
745.045	1674.73
745.23	1633.77
745.415	1605.1
745.6	1517.03
745.785	1529.32
745.97	1601
746.155	1650.15
746.34	1527.27
746.525	1539.56
746.71	1592.81
746.895	1514.98
747.079	1504.75
747.264	1480.17
747.449	1504.75
747.634	1431.02
747.819	1537.51
748.003	1449.45
748.188	1498.6
748.373	1437.16
748.557	1426.92
748.742	1445.35
748.927	1334.76
749.111	1406.44
749.296	1414.63
749.481	1383.91
749.665	1363.44
749.85	1431.02
750.034	1410.54
750.219	1375.72
750.404	1453.55
750.588	1422.83
750.773	1224.17
750.957	1342.96
751.141	1269.23
751.326	1254.89
751.51	1252.84
751.695	1330.67
751.879	1279.47
752.064	1388.01
752.248	1342.96
752.432	1289.71
752.617	1308.14
752.801	1195.5
752.985	1158.64
753.17	1203.69
753.354	1297.9
753.538	1166.83
753.722	1168.88
753.907	1209.84
754.091	1103.34
754.275	1199.6
754.459	1109.49
754.643	1183.21
754.828	1183.21
755.012	1127.92
755.196	1050.1
755.38	1193.45
755.564	1172.97
755.748	1191.41
755.932	1142.25
756.116	1060.34
756.3	1119.73
756.484	1154.54
756.668	1029.62
756.852	1072.62
757.036	1060.34
757.22	1089.01
757.404	1056.24
757.588	1039.86
757.772	939.51
757.956	1015.28
758.14	1050.1
758.323	990.7
758.507	1037.81
758.691	1060.34
758.875	1027.57
759.059	1046
759.242	1072.62
759.426	1011.18
759.61	962.03
759.794	1029.62
759.977	1023.47
760.161	1095.15
760.345	998.9
760.528	933.36
760.712	1097.2
760.895	884.21
761.079	941.55
761.263	878.07
761.446	929.27
761.63	962.03
761.813	945.65
761.997	898.55
762.18	839.16
762.364	882.16
762.547	808.44
762.731	843.25
762.914	904.69
763.098	888.31
763.281	806.39
763.464	800.24
763.648	798.2
763.831	847.35
764.015	925.17
764.198	898.55
764.381	888.31
764.564	880.11
764.748	849.4
764.931	888.31
765.114	800.24
765.297	882.16
765.481	806.39
765.664	810.48
765.847	843.25
766.03	833.01
766.213	824.82
766.397	847.35
766.58	796.15
766.763	865.78
766.946	767.48
767.129	781.81
767.312	814.58
767.495	828.92
767.678	849.4
767.861	851.44
768.044	814.58
768.227	830.96
768.41	845.3
768.593	767.48
768.776	759.28
768.959	775.67
769.142	773.62
769.324	749.04
769.507	744.95
769.69	773.62
769.873	740.85
770.056	814.58
770.239	767.48
770.421	781.81
770.604	765.43
770.787	798.2
770.97	683.51
771.152	683.51
771.335	755.19
771.518	728.56
771.7	781.81
771.883	740.85
772.066	667.13
772.248	843.25
772.431	749.04
772.613	781.81
772.796	622.07
772.978	767.48
773.161	757.24
773.343	726.52
773.526	642.55
773.708	628.21
773.891	693.75
774.073	681.46
774.256	691.7
774.438	798.2
774.621	648.69
774.803	646.65
774.985	683.51
775.168	699.89
775.35	654.84
775.532	685.56
775.715	671.22
775.897	708.09
776.079	687.61
776.261	667.13
776.444	570.87
776.626	611.83
776.808	669.17
776.99	554.49
777.173	675.32
777.355	617.97
777.537	613.88
777.719	634.36
777.901	675.32
778.083	570.87
778.265	593.4
778.447	652.79
778.629	634.36
778.811	683.51
778.993	574.97
779.175	605.69
779.357	544.25
779.539	503.29
779.721	581.11
779.903	587.26
780.085	544.25
780.267	617.97
780.449	585.21
780.631	660.98
780.812	527.86
780.994	529.91
781.176	669.17
781.358	544.25
781.54	484.86
781.721	527.86
781.903	534.01
782.085	536.06
782.267	536.06
782.448	435.71
782.63	474.62
782.812	521.72
782.993	480.76
783.175	450.04
783.357	544.25
783.538	445.95
783.72	437.75
783.901	527.86
784.083	460.28
784.264	417.27
784.446	450.04
784.627	357.88
784.809	478.71
784.99	454.14
785.172	466.42
785.353	478.71
785.535	417.27
785.716	441.85
785.897	388.6
786.079	478.71
786.26	445.95
786.441	396.79
786.623	331.26
786.804	404.99
786.985	394.75
787.167	466.42
787.348	349.69
787.529	400.89
787.71	495.1
787.891	497.14
788.073	388.6
788.254	374.27
788.435	366.07
788.616	511.48
788.797	333.31
788.978	325.12
789.159	425.47
789.34	314.88
789.522	314.88
789.703	341.5
789.884	325.12
790.065	396.79
790.246	404.99
790.427	366.07
790.607	349.69
790.788	400.89
790.969	343.55
791.15	366.07
791.331	325.12
791.512	253.44
791.693	298.49
791.874	374.27
792.054	409.08
792.235	394.75
792.416	329.21
792.597	228.86
792.778	273.92
792.958	404.99
793.139	275.96
793.32	331.26
793.5	327.16
793.681	396.79
793.862	396.79
794.042	275.96
794.223	239.1
794.404	341.5
794.584	333.31
794.765	286.2
794.945	368.12
795.126	298.49
795.306	267.77
795.487	327.16
795.667	226.81
795.848	331.26
796.028	318.97
796.209	284.16
796.389	259.58
796.57	230.91
796.75	312.83
796.93	273.92
797.111	271.87
797.291	355.83
797.471	241.15
797.652	232.96
797.832	288.25
798.012	265.72
798.192	273.92
798.373	261.63
798.553	288.25
798.733	267.77
798.913	228.86
799.093	273.92
799.274	237.05
799.454	216.57
799.634	331.26
799.814	204.28
799.994	265.72
800.174	314.88
800.354	243.2
800.534	210.43
800.714	265.72
800.894	144.89
801.074	169.47
801.254	290.3
801.434	292.35
801.614	220.67
801.794	218.62
801.974	880.11
802.154	251.39
802.334	235
802.514	155.13
802.693	183.81
802.873	243.2
803.053	341.5
803.233	290.3
803.413	284.16
803.592	212.48
803.772	232.96
803.952	226.81
804.131	144.89
804.311	196.09
804.491	226.81
804.67	192
804.85	218.62
805.03	144.89
805.209	275.96
805.389	204.28
805.568	187.9
805.748	167.42
805.928	185.85
806.107	306.68
806.287	175.61
806.466	151.04
806.646	167.42
806.825	120.32
807.004	151.04
807.184	220.67
807.363	165.37
807.543	179.71
807.722	224.76
807.901	239.1
808.081	167.42
808.26	157.18
808.439	224.76
808.619	185.85
808.798	185.85
808.977	161.28
809.156	183.81
809.336	210.43
809.515	257.53
809.694	214.52
809.873	128.51
810.052	157.18
810.231	208.38
810.411	179.71
810.59	155.13
810.769	171.52
810.948	155.13
811.127	136.7
811.306	237.05
811.485	126.46
811.664	175.61
811.843	134.65
812.022	71.17
812.201	208.38
812.38	212.48
812.559	157.18
812.737	216.57
812.916	132.61
813.095	126.46
813.274	194.05
813.453	216.57
813.632	189.95
813.811	177.66
813.989	136.7
814.168	208.38
814.347	155.13
814.526	183.81
814.704	151.04
814.883	220.67
815.062	71.17
815.24	167.42
815.419	130.56
815.598	101.89
815.776	153.09
815.955	163.33
816.133	77.31
816.312	192
816.49	153.09
816.669	144.89
816.847	93.69
817.026	73.21
817.204	144.89
817.383	85.5
817.561	71.17
817.74	155.13
817.918	148.99
818.097	60.93
818.275	114.17
818.453	97.79
818.632	93.69
818.81	218.62
818.988	175.61
819.167	103.93
819.345	75.26
819.523	108.03
819.701	85.5
819.879	130.56
820.058	46.59
820.236	173.57
820.414	30.21
820.592	126.46
820.77	7.68
820.948	69.12
821.127	79.36
821.305	165.37
821.483	112.13
821.661	130.56
821.839	159.23
822.017	50.69
822.195	142.85
822.373	144.89
822.551	130.56
822.729	126.46
822.907	24.06
823.085	142.85
823.262	75.26
823.44	103.93
823.618	122.37
823.796	71.17
823.974	151.04
824.152	81.41
824.329	75.26
824.507	85.5
824.685	97.79
824.863	128.51
825.04	40.45
825.218	146.94
825.396	93.69
825.574	77.31
825.751	105.98
825.929	151.04
826.107	89.6
826.284	79.36
826.462	155.13
826.639	81.41
826.817	93.69
826.994	142.85
827.172	50.69
827.349	128.51
827.527	85.5
827.704	159.23
827.882	60.93
828.059	99.84
828.237	48.64
828.414	93.69
828.591	19.97
828.769	122.37
828.946	48.64
829.124	122.37
829.301	118.27
829.478	97.79
829.655	79.36
829.833	60.93
830.01	93.69
830.187	126.46
830.364	148.99
830.542	71.17
830.719	151.04
830.896	91.65
831.073	122.37
831.25	71.17
831.427	87.55
831.604	95.74
831.782	153.09
831.959	65.02
832.136	79.36
832.313	77.31
832.49	71.17
832.667	40.45
832.844	56.83
833.021	142.85
833.198	99.84
833.374	116.22
833.551	77.31
833.728	60.93
833.905	134.65
834.082	46.59
834.259	118.27
834.436	112.13
834.612	44.54
834.789	122.37
834.966	28.16
835.143	44.54
835.319	52.74
835.496	44.54
835.673	71.17
835.85	22.02
836.026	108.03
836.203	155.13
836.38	67.07
836.556	36.35
836.733	-20.99
836.909	116.22
837.086	50.69
837.262	85.5
837.439	73.21
837.616	77.31
837.792	110.08
837.968	77.31
838.145	-0.51
838.321	44.54
838.498	30.21
838.674	116.22
838.851	146.94
839.027	69.12
839.203	46.59
839.38	134.65
839.556	60.93
839.732	138.75
839.909	-14.85
840.085	249.34
840.261	67.07
840.437	44.54
840.614	28.16
840.79	54.78
840.966	110.08
841.142	118.27
841.318	46.59
841.494	126.46
841.671	85.5
841.847	-8.7
842.023	-4.61
842.199	77.31
842.375	163.33
842.551	101.89
842.727	71.17
842.903	159.23
843.079	128.51
843.255	95.74
843.431	112.13
843.607	79.36
843.783	11.78
843.959	120.32
844.134	1.54
844.31	85.5
844.486	54.78
844.662	81.41
844.838	71.17
845.013	126.46
845.189	69.12
845.365	54.78
845.541	-4.61
845.716	77.31
845.892	60.93
846.068	85.5
846.244	-27.14
846.419	93.69
846.595	40.45
846.77	32.26
846.946	56.83
847.122	22.02
847.297	112.13
847.473	77.31
847.648	3.58
847.824	71.17
847.999	69.12
848.175	71.17
848.35	32.26
848.526	136.7
848.701	46.59
848.876	28.16
849.052	69.12
849.227	95.74
849.403	48.64
849.578	93.69
849.753	15.87
849.929	62.98
850.104	7.68
850.279	30.21
850.454	138.75
850.63	69.12
850.805	93.69
850.98	38.4
851.155	60.93
851.33	85.5
851.505	89.6
851.681	130.56
851.856	44.54
852.031	169.47
852.206	50.69
852.381	71.17
852.556	44.54
852.731	54.78
852.906	40.45
853.081	134.65
853.256	52.74
853.431	71.17
853.606	44.54
853.781	24.06
853.956	1.54
854.131	58.88
854.305	-57.86
854.48	34.3
854.655	-35.33
854.83	24.06
855.005	7.68
855.18	97.79
855.354	48.64
855.529	-20.99
855.704	60.93
855.879	103.93
856.053	-18.94
856.228	151.04
856.403	11.78
856.577	73.21
856.752	-8.7
856.926	118.27
857.101	40.45
857.276	38.4
857.45	19.97
857.625	62.98
857.799	60.93
857.974	130.56
858.148	5.63
858.323	134.65
858.497	3.58
858.672	44.54
858.846	-0.51
859.02	112.13
859.195	22.02
859.369	44.54
859.543	38.4
859.718	36.35
859.892	3.58
860.066	52.74
860.241	3.58
860.415	54.78
860.589	-20.99
860.763	28.16
860.938	11.78
861.112	95.74
861.286	77.31
861.46	26.11
861.634	56.83
861.808	71.17
861.982	85.5
862.157	-33.28
862.331	32.26
862.505	-2.56
862.679	-57.86
862.853	67.07
863.027	101.89
863.201	44.54
863.375	30.21
863.549	60.93
863.722	52.74
863.896	77.31
864.07	79.36
864.244	-12.8
864.418	32.26
864.592	79.36
864.766	3.58
864.939	71.17
865.113	28.16
865.287	69.12
865.461	13.82
865.634	69.12
865.808	9.73
865.982	40.45
866.156	-29.18
866.329	11.78
866.503	73.21
866.676	95.74
866.85	62.98
867.024	-29.18
867.197	-12.8
867.371	69.12
867.544	60.93
867.718	-27.14
867.891	56.83
868.065	-16.9
868.238	73.21
868.412	69.12
868.585	11.78
868.759	28.16
868.932	103.93
869.105	15.87
869.279	34.3
869.452	22.02
869.625	40.45
869.799	54.78
869.972	28.16
870.145	5.63
870.319	52.74
870.492	28.16
870.665	122.37
870.838	-31.23
871.011	-27.14
871.185	85.5
871.358	-51.71
871.531	-2.56
871.704	-29.18
871.877	67.07
872.05	24.06
872.223	-6.66
872.396	11.78
872.569	28.16
872.742	30.21
872.915	52.74
873.088	34.3
873.261	-14.85
873.434	87.55
873.607	44.54
873.78	24.06
873.953	-37.38
874.126	75.26
874.299	77.31
874.471	30.21
874.644	48.64
874.817	48.64
874.99	144.89
875.163	54.78
875.335	44.54
875.508	5.63
875.681	101.89
875.853	24.06
876.026	77.31
876.199	28.16
876.371	32.26
876.544	52.74
876.717	3.58
876.889	13.82
877.062	24.06
877.234	-29.18
877.407	-12.8
877.579	40.45
877.752	28.16
877.924	-6.66
878.097	60.93
878.269	36.35
878.442	-2.56
878.614	46.59
878.786	-18.94
878.959	11.78
879.131	67.07
879.303	-0.51
879.476	19.97
879.648	3.58
879.82	5.63
879.993	13.82
880.165	-6.66
880.337	36.35
880.509	24.06
880.681	11.78
880.854	36.35
881.026	-4.61
881.198	161.28
881.37	36.35
881.542	46.59
881.714	112.13
881.886	36.35
882.058	69.12
882.23	42.5
882.402	44.54
882.574	22.02
882.746	-8.7
882.918	77.31
883.09	11.78
883.262	24.06
883.434	7.68
883.606	-0.51
883.778	-20.99
883.95	-4.61
884.122	36.35
884.293	52.74
884.465	11.78
884.637	58.88
884.809	-8.7
884.98	65.02
885.152	69.12
885.324	77.31
885.496	-20.99
885.667	19.97
885.839	-6.66
886.011	71.17
886.182	30.21
886.354	60.93
886.525	-4.61
886.697	65.02
886.869	-16.9
887.04	3.58
887.212	11.78
887.383	130.56
887.555	95.74
887.726	32.26
887.897	24.06
888.069	65.02
888.24	-20.99
888.412	36.35
888.583	26.11
888.754	34.3
888.926	15.87
889.097	-18.94
889.268	-4.61
889.44	85.5
889.611	38.4
889.782	85.5
889.953	36.35
890.125	28.16
890.296	93.69
890.467	54.78
890.638	46.59
890.809	26.11
890.98	7.68
891.151	77.31
891.323	15.87
891.494	5.63
891.665	-33.28
891.836	-8.7
892.007	-37.38
892.178	62.98
892.349	-25.09
892.52	-25.09
892.691	-29.18
892.862	54.78
893.032	-39.42
893.203	-70.14
893.374	3.58
893.545	93.69
893.716	-18.94
893.887	126.46
894.057	13.82
894.228	69.12
894.399	5.63
894.57	89.6
894.74	30.21
894.911	79.36
895.082	19.97
895.253	13.82
895.423	30.21
895.594	85.5
895.764	73.21
895.935	42.5
896.106	-10.75
896.276	13.82
896.447	1.54
896.617	-0.51
896.788	-43.52
896.958	40.45
897.129	24.06
897.299	-10.75
897.47	69.12
897.64	-2.56
897.81	36.35
897.981	42.5
898.151	52.74
898.322	95.74
898.492	101.89
898.662	42.5
898.832	-33.28
899.003	5.63
899.173	54.78
899.343	32.26
899.513	11.78
