Data from USB4F104151__90__14-43-33-894.txt Node

Date: Thu Mar 13 14:43:33 EDT 2025
User: louis
Spectrometer: USB4F10415
Trigger mode: 4
Integration Time (sec): 2.000000E-2
Scans to average: 1
Electric dark correction enabled: true
Nonlinearity correction enabled: false
Boxcar width: 0
XAxis mode: Wavelengths
Number of Pixels in Spectrum: 3648
>>>>>Begin Spectral Data<<<<<
178.204	-67.24
178.424	-67.24
178.644	-67.24
178.864	-157.35
179.084	-79.53
179.304	-16.04
179.524	49.49
179.744	-42.67
179.964	10.58
180.184	37.2
180.404	29.01
180.624	-30.38
180.844	26.96
181.064	-44.71
181.283	18.77
181.503	-59.05
181.723	20.82
181.943	31.06
182.163	92.5
182.383	-38.57
182.602	59.73
182.822	43.35
183.042	6.49
183.262	43.35
183.482	-59.05
183.701	16.73
183.921	72.02
184.141	6.49
184.361	104.79
184.58	4.44
184.8	-22.19
185.02	43.35
185.239	10.58
185.459	55.64
185.679	35.16
185.898	12.63
186.118	2.39
186.338	49.49
186.557	137.56
186.777	-52.91
186.997	4.44
187.216	24.92
187.436	100.69
187.655	43.35
187.875	35.16
188.095	26.96
188.314	133.46
188.534	31.06
188.753	-34.47
188.973	67.92
189.192	16.73
189.412	-3.75
189.631	10.58
189.851	39.25
190.07	61.78
190.29	-7.85
190.509	37.2
190.729	2.39
190.948	51.54
191.168	53.59
191.387	2.39
191.607	-48.81
191.826	80.21
192.045	-38.57
192.265	-1.71
192.484	24.92
192.704	2.39
192.923	-11.95
193.142	43.35
193.362	-28.33
193.581	59.73
193.8	92.5
194.02	51.54
194.239	47.44
194.458	4.44
194.678	-63.15
194.897	84.31
195.116	-13.99
195.335	-9.9
195.555	112.98
195.774	35.16
195.993	-9.9
196.212	4.44
196.432	-61.1
196.651	10.58
196.87	84.31
197.089	108.88
197.308	-18.09
197.528	14.68
197.747	-22.19
197.966	31.06
198.185	51.54
198.404	4.44
198.623	41.3
198.842	20.82
199.062	39.25
199.281	61.78
199.5	26.96
199.719	82.26
199.938	43.35
200.157	84.31
200.376	31.06
200.595	84.31
200.814	4.44
201.033	10.58
201.252	24.92
201.471	18.77
201.69	24.92
201.909	47.44
202.128	82.26
202.347	-5.8
202.566	-34.47
202.785	67.92
203.004	45.4
203.223	133.46
203.442	57.68
203.661	51.54
203.879	26.96
204.098	26.96
204.317	67.92
204.536	67.92
204.755	86.36
204.974	-11.95
205.193	20.82
205.411	35.16
205.63	-22.19
205.849	78.16
206.068	10.58
206.287	10.58
206.505	51.54
206.724	108.88
206.943	59.73
207.162	74.07
207.381	37.2
207.599	-22.19
207.818	57.68
208.037	78.16
208.255	108.88
208.474	67.92
208.693	53.59
208.911	18.77
209.13	10.58
209.349	94.55
209.567	-46.76
209.786	29.01
210.005	39.25
210.223	84.31
210.442	10.58
210.661	45.4
210.879	-34.47
211.098	-34.47
211.316	-11.95
211.535	43.35
211.753	26.96
211.972	-11.95
212.191	-11.95
212.409	-11.95
212.628	-9.9
212.846	-1.71
213.065	43.35
213.283	125.27
213.502	-1.71
213.72	35.16
213.938	35.16
214.157	51.54
214.375	69.97
214.594	20.82
214.812	14.68
215.031	96.6
215.249	4.44
215.467	-63.15
215.686	41.3
215.904	-1.71
216.122	6.49
216.341	92.5
216.559	-16.04
216.778	61.78
216.996	72.02
217.214	-40.62
217.432	53.59
217.651	2.39
217.869	53.59
218.087	59.73
218.306	18.77
218.524	45.4
218.742	94.55
218.96	29.01
219.179	76.12
219.397	12.63
219.615	84.31
219.833	86.36
220.051	8.53
220.27	35.16
220.488	63.83
220.706	-11.95
220.924	-34.47
221.142	-3.75
221.36	-28.33
221.578	-5.8
221.796	-26.28
222.015	72.02
222.233	-36.52
222.451	39.25
222.669	31.06
222.887	90.45
223.105	-11.95
223.323	51.54
223.541	59.73
223.759	47.44
223.977	4.44
224.195	84.31
224.413	92.5
224.631	84.31
224.849	92.5
225.067	69.97
225.285	51.54
225.503	-36.52
225.721	41.3
225.939	37.2
226.157	84.31
226.375	137.56
226.592	35.16
226.81	51.54
227.028	115.03
227.246	43.35
227.464	-9.9
227.682	29.01
227.9	104.79
228.117	100.69
228.335	37.2
228.553	67.92
228.771	51.54
228.989	67.92
229.206	88.4
229.424	35.16
229.642	-3.75
229.86	-44.71
230.077	35.16
230.295	31.06
230.513	26.96
230.731	100.69
230.948	12.63
231.166	155.99
231.384	4.44
231.601	-38.57
231.819	0.34
232.037	-77.48
232.254	-11.95
232.472	20.82
232.689	6.49
232.907	20.82
233.125	-5.8
233.342	-30.38
233.56	67.92
233.777	69.97
233.995	96.6
234.213	31.06
234.43	-20.14
234.648	10.58
234.865	43.35
235.083	43.35
235.3	12.63
235.518	18.77
235.735	16.73
235.953	43.35
236.17	12.63
236.388	-5.8
236.605	67.92
236.822	84.31
237.04	31.06
237.257	61.78
237.475	-54.95
237.692	35.16
237.909	98.64
238.127	14.68
238.344	14.68
238.562	35.16
238.779	-48.81
238.996	6.49
239.214	-9.9
239.431	61.78
239.648	-44.71
239.865	20.82
240.083	18.77
240.3	51.54
240.517	51.54
240.735	22.87
240.952	53.59
241.169	88.4
241.386	43.35
241.603	4.44
241.821	33.11
242.038	20.82
242.255	20.82
242.472	-46.76
242.689	-3.75
242.907	12.63
243.124	12.63
243.341	-11.95
243.558	-1.71
243.775	67.92
243.992	-5.8
244.209	6.49
244.426	16.73
244.643	61.78
244.86	43.35
245.078	61.78
245.295	47.44
245.512	69.97
245.729	-30.38
245.946	35.16
246.163	18.77
246.38	18.77
246.597	35.16
246.814	2.39
247.031	29.01
247.248	125.27
247.464	67.92
247.681	-22.19
247.898	14.68
248.115	16.73
248.332	-52.91
248.549	110.93
248.766	63.83
248.983	74.07
249.2	22.87
249.417	37.2
249.633	29.01
249.85	41.3
250.067	12.63
250.284	-3.75
250.501	51.54
250.717	94.55
250.934	-5.8
251.151	26.96
251.368	20.82
251.585	74.07
251.801	-5.8
252.018	10.58
252.235	78.16
252.451	61.78
252.668	57.68
252.885	35.16
253.102	18.77
253.318	20.82
253.535	-67.24
253.752	-22.19
253.968	92.5
254.185	37.2
254.401	-13.99
254.618	18.77
254.835	39.25
255.051	61.78
255.268	84.31
255.484	45.4
255.701	-22.19
255.917	-18.09
256.134	74.07
256.351	20.82
256.567	33.11
256.784	53.59
257	2.39
257.217	35.16
257.433	10.58
257.65	-42.67
257.866	22.87
258.082	63.83
258.299	43.35
258.515	22.87
258.732	31.06
258.948	14.68
259.165	24.92
259.381	-28.33
259.597	59.73
259.814	76.12
260.03	92.5
260.246	47.44
260.463	104.79
260.679	67.92
260.895	4.44
261.112	43.35
261.328	20.82
261.544	10.58
261.761	143.7
261.977	14.68
262.193	-54.95
262.409	37.2
262.626	-32.43
262.842	4.44
263.058	8.53
263.274	35.16
263.49	108.88
263.707	4.44
263.923	10.58
264.139	-30.38
264.355	37.2
264.571	55.64
264.787	80.21
265.004	76.12
265.22	-34.47
265.436	18.77
265.652	-36.52
265.868	96.6
266.084	-59.05
266.3	84.31
266.516	31.06
266.732	45.4
266.948	24.92
267.164	72.02
267.38	92.5
267.596	45.4
267.812	94.55
268.028	8.53
268.244	26.96
268.46	84.31
268.676	2.39
268.892	51.54
269.108	-22.19
269.324	47.44
269.54	-7.85
269.756	35.16
269.972	-28.33
270.188	12.63
270.403	55.64
270.619	10.58
270.835	35.16
271.051	-38.57
271.267	-1.71
271.483	59.73
271.698	43.35
271.914	59.73
272.13	59.73
272.346	59.73
272.562	-22.19
272.777	47.44
272.993	55.64
273.209	72.02
273.425	39.25
273.64	94.55
273.856	-9.9
274.072	20.82
274.287	35.16
274.503	16.73
274.719	37.2
274.934	-5.8
275.15	14.68
275.366	43.35
275.581	39.25
275.797	55.64
276.012	-57
276.228	72.02
276.444	35.16
276.659	53.59
276.875	0.34
277.09	10.58
277.306	47.44
277.521	59.73
277.737	31.06
277.952	115.03
278.168	4.44
278.383	59.73
278.599	-5.8
278.814	14.68
279.03	47.44
279.245	67.92
279.461	80.21
279.676	47.44
279.892	29.01
280.107	45.4
280.322	-36.52
280.538	90.45
280.753	26.96
280.969	39.25
281.184	96.6
281.399	84.31
281.615	10.58
281.83	53.59
282.045	-54.95
282.26	-42.67
282.476	24.92
282.691	39.25
282.906	2.39
283.122	92.5
283.337	20.82
283.552	22.87
283.767	18.77
283.983	67.92
284.198	10.58
284.413	51.54
284.628	-16.04
284.843	14.68
285.058	18.77
285.274	59.73
285.489	31.06
285.704	84.31
285.919	-26.28
286.134	-30.38
286.349	26.96
286.564	31.06
286.779	41.3
286.995	35.16
287.21	39.25
287.425	39.25
287.64	43.35
287.855	117.08
288.07	-40.62
288.285	20.82
288.5	10.58
288.715	-1.71
288.93	31.06
289.145	55.64
289.36	51.54
289.575	-5.8
289.79	39.25
290.004	-13.99
290.219	26.96
290.434	67.92
290.649	-24.23
290.864	47.44
291.079	26.96
291.294	43.35
291.509	24.92
291.724	-22.19
291.938	-22.19
292.153	57.68
292.368	35.16
292.583	43.35
292.798	8.53
293.012	18.77
293.227	4.44
293.442	-18.09
293.657	78.16
293.871	121.17
294.086	24.92
294.301	76.12
294.516	18.77
294.73	45.4
294.945	10.58
295.16	67.92
295.374	-13.99
295.589	63.83
295.804	-44.71
296.018	67.92
296.233	94.55
296.447	-26.28
296.662	29.01
296.877	4.44
297.091	102.74
297.306	125.27
297.52	14.68
297.735	108.88
297.949	59.73
298.164	45.4
298.378	61.78
298.593	6.49
298.807	-22.19
299.022	53.59
299.236	-1.71
299.451	14.68
299.665	24.92
299.88	45.4
300.094	35.16
300.309	63.83
300.523	57.68
300.737	43.35
300.952	10.58
301.166	63.83
301.381	-26.28
301.595	-34.47
301.809	76.12
302.024	-13.99
302.238	-46.76
302.452	26.96
302.667	-1.71
302.881	43.35
303.095	-5.8
303.309	61.78
303.524	35.16
303.738	84.31
303.952	-46.76
304.166	6.49
304.381	-71.34
304.595	29.01
304.809	-30.38
305.023	47.44
305.237	20.82
305.452	45.4
305.666	37.2
305.88	92.5
306.094	37.2
306.308	35.16
306.522	-1.71
306.736	12.63
306.95	63.83
307.164	45.4
307.379	12.63
307.593	72.02
307.807	67.92
308.021	67.92
308.235	37.2
308.449	26.96
308.663	-34.47
308.877	158.03
309.091	6.49
309.305	98.64
309.519	6.49
309.733	63.83
309.947	-30.38
310.161	69.97
310.374	92.5
310.588	59.73
310.802	-44.71
311.016	43.35
311.23	61.78
311.444	35.16
311.658	39.25
311.872	59.73
312.085	20.82
312.299	53.59
312.513	61.78
312.727	51.54
312.941	18.77
313.154	-18.09
313.368	-3.75
313.582	84.31
313.796	31.06
314.009	-30.38
314.223	14.68
314.437	92.5
314.651	33.11
314.864	149.84
315.078	18.77
315.292	2.39
315.505	10.58
315.719	10.58
315.933	51.54
316.146	141.65
316.36	-22.19
316.573	59.73
316.787	51.54
317.001	-5.8
317.214	26.96
317.428	22.87
317.641	4.44
317.855	78.16
318.068	84.31
318.282	53.59
318.495	45.4
318.709	2.39
318.922	12.63
319.136	31.06
319.349	96.6
319.563	26.96
319.776	10.58
319.99	-42.67
320.203	76.12
320.417	18.77
320.63	45.4
320.843	110.93
321.057	-11.95
321.27	76.12
321.483	100.69
321.697	47.44
321.91	14.68
322.124	-22.19
322.337	10.58
322.55	63.83
322.763	57.68
322.977	69.97
323.19	-34.47
323.403	-9.9
323.617	10.58
323.83	67.92
324.043	26.96
324.256	100.69
324.469	76.12
324.683	18.77
324.896	10.58
325.109	29.01
325.322	10.58
325.535	18.77
325.748	59.73
325.962	-24.23
326.175	-5.8
326.388	76.12
326.601	-26.28
326.814	31.06
327.027	61.78
327.24	43.35
327.453	55.64
327.666	20.82
327.879	53.59
328.092	59.73
328.305	8.53
328.518	6.49
328.731	-44.71
328.944	20.82
329.157	49.49
329.37	18.77
329.583	45.4
329.796	43.35
330.009	55.64
330.222	80.21
330.435	43.35
330.648	31.06
330.861	26.96
331.073	37.2
331.286	43.35
331.499	-38.57
331.712	2.39
331.925	6.49
332.138	12.63
332.35	80.21
332.563	6.49
332.776	51.54
332.989	53.59
333.202	18.77
333.414	12.63
333.627	-5.8
333.84	61.78
334.053	26.96
334.265	2.39
334.478	22.87
334.691	59.73
334.903	43.35
335.116	-1.71
335.329	-44.71
335.541	67.92
335.754	110.93
335.966	88.4
336.179	2.39
336.392	67.92
336.604	29.01
336.817	24.92
337.029	45.4
337.242	69.97
337.454	45.4
337.667	88.4
337.88	69.97
338.092	100.69
338.305	2.39
338.517	-22.19
338.729	51.54
338.942	80.21
339.154	-11.95
339.367	-44.71
339.579	35.16
339.792	-20.14
340.004	45.4
340.217	-46.76
340.429	59.73
340.641	31.06
340.854	74.07
341.066	35.16
341.278	51.54
341.491	158.03
341.703	59.73
341.915	-38.57
342.128	20.82
342.34	-1.71
342.552	4.44
342.764	-7.85
342.977	43.35
343.189	67.92
343.401	-30.38
343.613	18.77
343.826	4.44
344.038	-3.75
344.25	67.92
344.462	29.01
344.674	-5.8
344.886	84.31
345.099	45.4
345.311	55.64
345.523	31.06
345.735	-18.09
345.947	59.73
346.159	-24.23
346.371	-22.19
346.583	31.06
346.795	86.36
347.007	59.73
347.219	67.92
347.431	-9.9
347.643	45.4
347.855	4.44
348.067	39.25
348.279	69.97
348.491	-67.24
348.703	72.02
348.915	-20.14
349.127	59.73
349.339	37.2
349.551	16.73
349.763	45.4
349.975	53.59
350.187	51.54
350.399	22.87
350.61	41.3
350.822	-20.14
351.034	49.49
351.246	10.58
351.458	2.39
351.669	35.16
351.881	61.78
352.093	24.92
352.305	127.32
352.517	82.26
352.728	26.96
352.94	39.25
353.152	-5.8
353.363	51.54
353.575	-26.28
353.787	53.59
353.999	43.35
354.21	125.27
354.422	63.83
354.633	51.54
354.845	12.63
355.057	43.35
355.268	2.39
355.48	69.97
355.692	39.25
355.903	59.73
356.115	6.49
356.326	45.4
356.538	121.17
356.749	51.54
356.961	137.56
357.172	43.35
357.384	-22.19
357.595	10.58
357.807	18.77
358.018	51.54
358.23	37.2
358.441	121.17
358.653	53.59
358.864	96.6
359.075	2.39
359.287	10.58
359.498	57.68
359.709	-5.8
359.921	49.49
360.132	10.58
360.344	-16.04
360.555	59.73
360.766	20.82
360.977	72.02
361.189	137.56
361.4	37.2
361.611	63.83
361.823	67.92
362.034	-1.71
362.245	59.73
362.456	84.31
362.667	-1.71
362.879	10.58
363.09	67.92
363.301	61.78
363.512	104.79
363.723	131.41
363.935	31.06
364.146	-24.23
364.357	39.25
364.568	-1.71
364.779	-61.1
364.99	104.79
365.201	-40.62
365.412	67.92
365.623	43.35
365.834	86.36
366.045	92.5
366.256	69.97
366.467	10.58
366.678	53.59
366.889	-1.71
367.1	10.58
367.311	33.11
367.522	-1.71
367.733	-20.14
367.944	88.4
368.155	2.39
368.366	4.44
368.577	47.44
368.788	76.12
368.999	-13.99
369.209	16.73
369.42	59.73
369.631	127.32
369.842	151.89
370.053	4.44
370.264	63.83
370.474	12.63
370.685	63.83
370.896	6.49
371.107	158.03
371.317	16.73
371.528	31.06
371.739	49.49
371.95	51.54
372.16	37.2
372.371	35.16
372.582	-16.04
372.792	43.35
373.003	106.84
373.214	88.4
373.424	2.39
373.635	10.58
373.846	59.73
374.056	22.87
374.267	-18.09
374.477	-9.9
374.688	117.08
374.898	59.73
375.109	55.64
375.319	59.73
375.53	63.83
375.74	10.58
375.951	-5.8
376.161	96.6
376.372	92.5
376.582	2.39
376.793	43.35
377.003	35.16
377.214	31.06
377.424	63.83
377.635	18.77
377.845	86.36
378.055	108.88
378.266	2.39
378.476	80.21
378.686	2.39
378.897	80.21
379.107	59.73
379.317	96.6
379.528	20.82
379.738	96.6
379.948	18.77
380.158	88.4
380.369	-79.53
380.579	37.2
380.789	4.44
380.999	76.12
381.21	20.82
381.42	45.4
381.63	26.96
381.84	84.31
382.05	90.45
382.261	22.87
382.471	53.59
382.681	45.4
382.891	123.22
383.101	26.96
383.311	-46.76
383.521	35.16
383.731	35.16
383.941	-13.99
384.151	72.02
384.361	35.16
384.571	78.16
384.781	76.12
384.991	57.68
385.201	59.73
385.411	12.63
385.621	29.01
385.831	119.12
386.041	57.68
386.251	29.01
386.461	76.12
386.671	10.58
386.881	129.36
387.091	31.06
387.301	61.78
387.511	6.49
387.72	12.63
387.93	166.23
388.14	4.44
388.35	18.77
388.56	121.17
388.769	88.4
388.979	104.79
389.189	-22.19
389.399	43.35
389.609	100.69
389.818	88.4
390.028	41.3
390.238	55.64
390.447	61.78
390.657	53.59
390.867	26.96
391.076	-1.71
391.286	59.73
391.496	20.82
391.705	33.11
391.915	112.98
392.125	84.31
392.334	80.21
392.544	51.54
392.753	112.98
392.963	20.82
393.172	110.93
393.382	96.6
393.591	166.23
393.801	94.55
394.01	158.03
394.22	92.5
394.429	26.96
394.639	26.96
394.848	108.88
395.058	2.39
395.267	117.08
395.477	94.55
395.686	182.61
395.895	59.73
396.105	45.4
396.314	51.54
396.524	67.92
396.733	2.39
396.942	166.23
397.152	166.23
397.361	29.01
397.57	14.68
397.78	59.73
397.989	98.64
398.198	80.21
398.407	31.06
398.617	39.25
398.826	86.36
399.035	125.27
399.244	112.98
399.453	108.88
399.663	67.92
399.872	119.12
400.081	127.32
400.29	164.18
400.499	100.69
400.708	151.89
400.917	108.88
401.127	57.68
401.336	98.64
401.545	182.61
401.754	182.61
401.963	139.6
402.172	26.96
402.381	92.5
402.59	117.08
402.799	125.27
403.008	63.83
403.217	145.75
403.426	102.74
403.635	104.79
403.844	133.46
404.053	139.6
404.262	139.6
404.471	162.13
404.68	76.12
404.888	51.54
405.097	51.54
405.306	166.23
405.515	137.56
405.724	158.03
405.933	170.32
406.142	182.61
406.35	256.34
406.559	190.8
406.768	172.37
406.977	178.51
407.185	168.27
407.394	135.51
407.603	125.27
407.812	223.57
408.02	258.39
408.229	219.47
408.438	180.56
408.646	223.57
408.855	215.38
409.064	244.05
409.272	260.43
409.481	285.01
409.69	266.58
409.898	264.53
410.107	268.63
410.315	348.5
410.524	280.91
410.733	299.34
410.941	301.39
411.15	323.92
411.358	395.6
411.567	387.41
411.775	266.58
411.984	362.83
412.192	330.06
412.401	411.98
412.609	446.8
412.818	403.79
413.026	516.43
413.234	500.05
413.443	495.95
413.651	498
413.86	584.01
414.068	477.52
414.276	584.01
414.485	428.37
414.693	487.76
414.901	551.24
415.11	663.88
415.318	659.79
415.526	627.02
415.734	710.99
415.943	659.79
416.151	776.52
416.359	715.08
416.567	805.19
416.776	725.32
416.984	899.4
417.192	842.06
417.4	866.63
417.608	844.1
417.817	964.93
418.025	870.73
418.233	1024.33
418.441	911.69
418.649	1059.14
418.857	1036.61
419.065	1057.09
419.273	1077.57
419.481	1173.83
419.689	1188.16
419.897	1268.03
420.105	1335.62
420.313	1345.86
420.521	1456.45
420.729	1440.06
420.937	1511.74
421.145	1413.44
421.353	1569.09
421.561	1712.44
421.769	1714.49
421.977	1648.96
422.185	1888.57
422.393	1919.29
422.601	2042.17
422.809	1960.25
423.017	1907
423.224	2132.28
423.432	2076.98
423.64	2140.47
423.848	2468.14
424.056	2335.03
424.263	2410.8
424.471	2455.86
424.679	2494.77
424.887	2574.64
425.094	2677.04
425.302	2648.36
425.51	2847.02
425.718	2873.64
425.925	2988.33
426.133	3017
426.341	3287.33
426.548	3320.1
426.756	3402.02
426.964	3338.53
427.171	3594.53
427.379	3475.74
427.586	3733.79
427.794	3899.67
428.001	4008.22
428.209	4229.4
428.417	4157.72
428.624	4372.75
428.832	4483.34
429.039	4411.67
429.247	4370.71
429.454	4835.6
429.662	5132.55
429.869	4921.61
430.076	5146.89
430.284	4968.71
430.491	5228.81
430.699	5353.73
430.906	5558.53
431.114	5585.15
431.321	5810.43
431.528	5949.69
431.736	6260.98
431.943	6770.93
432.15	6328.56
432.358	6418.68
432.565	6732.01
432.772	6799.6
432.979	7022.83
433.187	7117.03
433.394	7336.17
433.601	7678.18
433.808	7995.61
434.016	7526.63
434.223	8327.38
434.43	8575.19
434.637	8423.64
434.844	8925.39
435.052	9078.99
435.259	8730.83
435.466	8990.92
435.673	8775.89
435.88	9556.16
436.087	9957.57
436.294	10172.6
436.501	9810.11
436.708	9957.57
436.915	10338.49
437.122	10938.54
437.329	10868.91
437.537	11012.27
437.743	11153.58
437.95	11360.42
438.157	11987.1
438.364	12124.32
438.571	12136.6
438.778	12185.76
438.985	13316.23
439.192	12671.12
439.399	13363.34
439.606	12783.76
439.813	13727.88
440.02	14397.56
440.227	14149.76
440.433	14043.26
440.64	14772.34
440.847	14606.45
441.054	14977.14
441.261	15788.13
441.467	15708.26
441.674	15904.87
441.881	16607.32
442.088	16441.43
442.294	16250.97
442.501	16781.4
442.708	16963.67
442.914	17889.35
443.121	18464.83
443.328	17877.06
443.534	19159.09
443.741	18640.95
443.948	18264.13
444.154	19632.17
444.361	19806.25
444.568	19800.1
444.774	19583.02
444.981	19740.71
445.187	20273.18
445.394	21350.42
445.6	21057.56
445.807	23568.37
446.013	22267.91
446.22	22566.91
446.426	23623.66
446.633	23582.7
446.839	24586.21
447.046	23500.78
447.252	24885.21
447.459	24737.76
447.665	24492
447.871	25558.99
448.078	26634.17
448.284	25583.57
448.491	26157
448.697	27092.92
448.903	27713.45
449.11	27867.05
449.316	27436.98
449.522	27578.29
449.728	28657.57
449.935	28571.55
450.141	29036.44
450.347	29427.6
450.553	28964.76
450.76	29063.07
450.966	29849.49
451.172	29427.6
451.378	30658.43
451.584	29761.42
451.791	30717.82
451.997	30447.49
452.203	31469.43
452.409	30963.58
452.615	30889.85
452.821	30029.71
453.027	29448.08
453.233	30873.47
453.44	29867.92
453.646	30236.55
453.852	30443.4
454.058	31098.75
454.264	29880.21
454.47	30621.57
454.676	30101.39
454.882	30678.91
455.088	28321.7
455.294	28594.08
455.5	29355.93
455.705	29523.86
455.911	28170.15
456.117	27871.15
456.323	27539.38
456.529	25913.29
456.735	27322.29
456.941	26875.84
457.147	26453.95
457.352	25436.11
457.558	24958.94
457.764	25448.4
457.97	24684.51
458.176	24008.68
458.381	24430.56
458.587	23156.72
458.793	23119.86
458.999	21966.85
459.204	23603.18
459.41	22757.37
459.616	21352.46
459.821	21315.6
460.027	21614.6
460.233	20719.64
460.438	19925.03
460.644	20215.84
460.85	19210.29
461.055	18788.41
461.261	18968.63
461.466	17526.86
461.672	16781.4
461.878	18030.66
462.083	16975.95
462.289	16767.06
462.494	16287.84
462.7	15839.33
462.905	15272.04
463.111	15831.14
463.316	15935.59
463.522	15145.07
463.727	15466.6
463.932	15431.79
464.138	15347.82
464.343	15478.89
464.549	15059.06
464.754	15353.96
464.959	15321.2
465.165	14983.28
465.37	14346.36
465.575	14090.37
465.781	14872.69
465.986	14547.06
466.191	14297.21
466.397	14049.41
466.602	13267.08
466.807	13557.89
467.012	13781.12
467.218	13817.99
467.423	13338.76
467.628	13363.34
467.833	14307.45
468.038	13482.12
468.244	13283.47
468.449	13914.24
468.654	13416.58
468.859	13090.96
469.064	13240.46
469.269	12523.67
469.474	12920.98
469.679	12949.65
469.885	12570.77
470.09	12931.22
470.295	12822.67
470.5	12454.04
470.705	12394.65
470.91	12411.03
471.115	12054.69
471.32	12531.86
471.525	12462.23
471.73	11917.47
471.935	11571.36
472.139	11440.29
472.344	11481.25
472.549	11464.87
472.754	11229.35
472.959	11282.6
473.164	10926.25
473.369	10830
473.574	11229.35
473.778	11032.75
473.983	11110.57
474.188	10938.54
474.393	10457.27
474.598	10752.18
474.802	10426.55
475.007	10062.01
475.212	10248.38
475.417	10019
475.621	10096.83
475.826	10055.87
476.031	9584.84
476.235	9742.53
476.44	9842.88
476.645	9621.7
476.849	9676.99
477.054	9588.93
477.259	9359.56
477.463	9394.37
477.668	9210.06
477.872	9390.28
478.077	9072.84
478.282	8653.01
478.486	8648.91
478.691	8898.77
478.895	8878.29
479.1	8712.4
479.304	8825.04
479.509	8433.88
479.713	8440.02
479.918	8311
480.122	8245.46
480.326	8474.84
480.531	8298.71
480.735	8136.92
480.94	8126.68
481.144	8427.73
481.348	8112.35
481.553	8073.43
481.757	7928.03
481.961	8108.25
482.166	8239.32
482.37	7981.28
482.574	8057.05
482.778	8067.29
482.983	8071.39
483.187	7866.59
483.391	8040.67
483.595	7981.28
483.8	7866.59
484.004	7889.12
484.208	8079.58
484.412	8065.24
484.616	7850.21
484.821	7913.69
485.025	7876.83
485.229	8108.25
485.433	7866.59
485.637	8095.96
485.841	7770.33
486.045	7839.97
486.249	7921.88
486.453	7842.01
486.657	8075.48
486.861	8104.15
487.065	7762.14
487.269	7827.68
487.473	7979.23
487.677	8179.93
487.881	8116.44
488.085	7862.49
488.289	7936.22
488.493	7940.32
488.697	8095.96
488.901	8122.59
489.105	8030.43
489.309	8048.86
489.512	8003.8
489.716	8071.39
489.92	8055
490.124	7948.51
490.328	8169.69
490.531	8030.43
490.735	8329.43
490.939	8081.63
491.143	8233.18
491.346	8055
491.55	8431.83
491.754	8210.65
491.958	8454.36
492.161	8343.77
492.365	8544.47
492.569	8128.73
492.772	8458.45
492.976	8425.68
493.18	8513.75
493.383	8657.11
493.587	8464.6
493.79	8790.22
493.994	8489.17
494.197	8708.3
494.401	8693.97
494.605	8618.19
494.808	8923.34
495.012	9115.85
495.215	8845.52
495.419	9193.67
495.622	9097.42
495.825	9283.78
496.029	9117.9
496.232	9457.86
496.436	9316.55
496.639	9414.85
496.843	9566.4
497.046	9717.95
497.249	10000.57
497.453	9924.8
497.656	9949.37
497.859	9971.9
498.063	9971.9
498.266	10195.13
498.469	10178.75
498.673	10297.53
498.876	10660.02
499.079	10592.44
499.282	10594.48
499.485	10856.62
499.689	10913.97
499.892	10965.17
500.095	11178.15
500.298	11516.07
500.501	11153.58
500.705	11530.41
500.908	11763.87
501.111	11618.47
501.314	11866.27
501.517	12056.73
501.72	11995.29
501.923	12001.44
502.126	12411.03
502.329	12497.05
502.532	12570.77
502.735	12849.3
502.938	13064.33
503.141	13060.24
503.344	13367.43
503.547	13271.18
503.75	13377.67
503.953	13809.79
504.156	13809.79
504.359	13756.55
504.562	13955.2
504.765	14420.09
504.968	14463.1
505.17	14770.29
505.373	14495.86
505.576	15073.39
505.779	15202.41
505.982	15075.44
506.185	15474.79
506.387	15515.75
506.59	15480.94
506.793	15997.03
506.996	15822.95
507.198	16195.68
507.401	16289.88
507.604	16304.22
507.807	16787.54
508.009	16638.04
508.212	16924.76
508.415	17260.62
508.617	17373.26
508.82	17311.82
509.022	17332.3
509.225	17846.34
509.428	17823.81
509.63	18049.09
509.833	18081.86
510.035	18509.88
510.238	18477.12
510.44	18700.34
510.643	18970.68
510.845	19009.59
511.048	19007.54
511.25	19376.17
511.453	19390.51
511.655	20234.27
511.858	20031.52
512.06	19871.78
512.262	20410.4
512.465	20469.79
512.667	20850.71
512.87	20998.16
513.072	21022.74
513.274	21096.47
513.477	21143.57
513.679	21577.74
513.881	21936.13
514.084	22122.5
514.286	22110.21
514.488	22421.5
514.69	22677.5
514.893	22800.38
515.095	23109.62
515.297	23488.49
515.499	23373.81
515.701	23418.86
515.904	24180.71
516.106	23734.25
516.308	24336.35
516.51	24537.05
516.712	24438.75
516.914	24942.55
517.116	25305.04
517.318	25438.16
517.52	25376.72
517.722	25477.07
517.925	25997.26
518.127	26474.43
518.329	26435.52
518.531	26195.91
518.733	26847.16
518.935	26853.31
519.136	26845.12
519.338	27363.25
519.54	27676.59
519.742	27764.65
519.944	27690.93
520.146	28458.92
520.348	28456.87
520.55	28471.2
520.752	28551.07
520.954	29020.06
521.155	29015.96
521.357	29183.9
521.559	29640.59
521.761	29611.92
521.963	30132.11
522.164	29966.22
522.366	30455.68
522.568	30404.49
522.77	30642.05
522.971	30885.76
523.173	30916.48
523.375	31582.07
523.576	31461.24
523.778	31328.12
523.98	31709.04
524.181	31823.73
524.383	32399.21
524.584	32427.88
524.786	32218.99
524.988	32206.7
525.189	32720.74
525.391	32397.16
525.592	32882.53
525.794	33193.82
525.995	33251.16
526.197	33343.32
526.398	33230.68
526.6	33480.53
526.801	33734.48
527.003	34051.92
527.204	33648.47
527.406	34070.35
527.607	34283.34
527.808	34903.87
528.01	33838.93
528.211	34107.21
528.412	34910.02
528.614	34770.75
528.815	34441.03
529.016	34895.68
529.218	34754.37
529.419	34907.97
529.62	34963.26
529.822	34688.84
530.023	34875.2
530.224	35571.51
530.425	34922.3
530.626	34842.43
530.828	34875.2
531.029	35585.85
531.23	35184.44
531.431	35602.23
531.632	35481.4
531.833	35415.86
532.035	35759.92
532.236	35974.96
532.437	35270.46
532.638	35405.63
532.839	35841.84
533.04	35450.68
533.241	35462.97
533.442	35968.82
533.643	35708.72
533.844	35856.18
534.045	35958.58
534.246	35370.81
534.447	35981.1
534.648	35348.28
534.849	35772.21
535.05	35864.37
535.251	35759.92
535.451	35356.47
535.652	35991.34
535.853	35782.45
536.054	36175.66
536.255	35895.09
536.456	35729.2
536.657	35829.55
536.857	35923.76
537.058	35759.92
537.259	35991.34
537.46	35632.95
537.66	35993.39
537.861	35761.97
538.062	35804.98
538.263	35970.86
538.463	35974.96
538.664	36081.45
538.865	36310.83
539.065	35905.33
539.266	35409.72
539.466	36007.73
539.667	35491.64
539.868	35905.33
540.068	35755.83
540.269	35739.44
540.469	35661.62
540.67	35338.04
540.87	35831.6
541.071	35479.35
541.271	35362.62
541.472	35370.81
541.672	35663.67
541.873	35551.03
542.073	35850.03
542.274	35921.71
542.474	35569.46
542.675	35170.11
542.875	35954.48
543.075	35436.34
543.276	34979.65
543.476	35446.58
543.676	35385.15
543.877	35637.05
544.077	35757.88
544.277	35499.83
544.478	35278.65
544.678	35786.55
544.878	35278.65
545.078	35688.24
545.279	35086.14
545.479	35123.01
545.679	35716.92
545.879	35395.39
546.079	35370.81
546.28	35225.4
546.48	34641.73
546.68	35680.05
546.88	35487.54
547.08	35526.46
547.28	35127.1
547.48	35086.14
547.68	35467.06
547.88	34885.44
548.081	35247.93
548.281	35331.9
548.481	34971.46
548.681	35493.69
548.881	35129.15
549.081	35358.52
549.28	34830.15
549.48	35381.05
549.68	35430.2
549.88	35829.55
550.08	35131.2
550.28	34862.91
550.48	34877.25
550.68	35497.78
550.88	34856.77
551.08	34895.68
551.279	35440.44
551.479	34912.06
551.679	34811.71
551.879	34733.89
552.079	35249.98
552.278	35014.46
552.478	35088.19
552.678	34697.03
552.878	35444.54
553.077	34555.72
553.277	34543.43
553.477	35471.16
553.676	34953.02
553.876	35161.92
554.076	34590.53
554.275	34694.98
554.475	34660.16
554.674	34684.74
554.874	34991.94
555.074	34451.27
555.273	34690.88
555.473	34735.94
555.672	34389.83
555.872	34541.38
556.071	34791.23
556.271	34830.15
556.47	34586.44
556.67	33838.93
556.869	34125.64
557.068	34539.33
557.268	34381.64
557.467	34469.7
557.667	34248.52
557.866	34266.95
558.065	34062.16
558.265	33992.53
558.464	33742.67
558.663	34592.58
558.863	33832.79
559.062	34256.71
559.261	33646.42
559.461	34156.36
559.66	33806.16
559.859	34045.77
560.058	33501.01
560.258	33877.84
560.457	33312.6
560.656	33681.24
560.855	33560.41
561.054	33589.08
561.253	33314.65
561.453	33357.66
561.652	33599.32
561.851	33877.84
562.05	33494.87
562.249	33005.41
562.448	33290.07
562.647	33171.29
562.846	33515.35
563.045	33814.35
563.244	33003.36
563.443	33343.32
563.642	32696.16
563.841	32722.79
564.04	32479.08
564.239	33357.66
564.438	32544.61
564.637	32630.63
564.836	32630.63
565.035	32444.26
565.234	32634.72
565.432	32468.84
565.631	32130.92
565.83	32565.09
566.029	32110.44
566.228	32493.41
566.427	31915.89
566.625	31817.58
566.824	31747.95
567.023	32012.14
567.222	31799.15
567.42	32173.93
567.619	31686.51
567.818	31442.81
568.016	31645.55
568.215	31874.93
568.414	31690.61
568.612	31569.78
568.811	31666.03
569.01	31377.27
569.208	31217.53
569.407	31313.78
569.605	31082.36
569.804	31586.16
570.002	30971.77
570.201	31047.55
570.4	30779.26
570.598	30695.3
570.797	30347.14
570.995	30775.17
571.193	30629.76
571.392	30898.05
571.59	30408.58
571.789	30648.19
571.987	30091.15
572.186	30203.78
572.384	30263.18
572.582	30408.58
572.781	30453.64
572.979	30003.08
573.177	30218.12
573.376	30306.18
573.574	29548.43
573.772	29788.05
573.971	29855.63
574.169	29382.55
574.367	29603.73
574.565	29589.39
574.763	29310.87
574.962	29493.14
575.16	29327.25
575.358	29357.97
575.556	29120.41
575.754	29530
575.952	28737.44
576.151	29073.31
576.349	28751.77
576.547	28589.99
576.745	28968.86
576.943	29061.02
577.141	28626.85
577.339	28524.45
577.537	28415.91
577.735	28618.66
577.933	27998.12
578.131	28551.07
578.329	28139.43
578.527	27803.57
578.725	28180.39
578.923	28065.71
579.121	28116.9
579.319	27766.7
579.516	28395.43
579.714	28170.15
579.912	27903.92
580.11	27625.39
580.308	27760.56
580.506	27314.1
580.704	27328.44
580.901	27396.02
581.099	27649.97
581.297	27219.89
581.495	27314.1
581.692	27019.19
581.89	26941.37
582.088	27068.34
582.285	27099.06
582.483	27129.78
582.681	27041.72
582.878	27152.31
583.076	26585.02
583.274	26853.31
583.471	26544.06
583.669	26779.58
583.866	26150.85
584.064	26654.65
584.262	26122.18
584.459	26351.56
584.657	26472.39
584.854	26347.46
585.052	25722.83
585.249	25952.2
585.447	25909.19
585.644	25622.48
585.841	25675.73
586.039	25968.59
586.236	25645.01
586.434	25440.21
586.631	25341.91
586.828	25524.18
587.026	25503.7
587.223	25198.55
587.42	25253.84
587.618	25128.92
587.815	25006.04
588.012	24817.63
588.21	24844.25
588.407	25108.44
588.604	24608.73
588.801	24457.18
588.999	24498.14
589.196	24561.63
589.393	24727.52
589.59	24262.63
589.787	24494.05
589.984	24297.44
590.182	24209.38
590.379	24027.11
590.576	24039.4
590.773	24238.05
590.97	24029.16
591.167	24127.46
591.364	23580.65
591.561	23941.1
591.758	23468.02
591.955	23672.81
592.152	23898.09
592.349	23590.89
592.546	23461.87
592.743	23400.43
592.94	23156.72
593.137	23171.06
593.334	23435.25
593.531	22781.95
593.727	22976.5
593.924	22996.98
594.121	23134.2
594.318	22890.49
594.515	22616.06
594.712	22833.14
594.908	22757.37
595.105	22466.56
595.302	22380.54
595.499	22560.77
595.696	22319.1
595.892	22454.27
596.089	22202.37
596.286	22134.79
596.482	22364.16
596.679	22059.01
596.876	22317.06
597.072	21817.35
597.269	22061.06
597.466	21956.61
597.662	21782.54
597.859	21731.34
598.055	21866.5
598.252	21606.41
598.448	21446.67
598.645	21493.77
598.841	21080.08
599.038	21440.53
599.234	21432.33
599.431	21108.76
599.627	21123.09
599.824	20981.78
600.02	20916.25
600.217	20926.49
600.413	20707.35
600.609	20789.27
600.806	20670.49
601.002	20791.32
601.198	20727.83
601.395	20600.86
601.591	20523.04
601.787	20221.98
601.984	20455.45
602.18	20656.15
602.376	20117.54
602.572	20293.66
602.769	19994.66
602.965	19959.84
603.161	20170.79
603.357	19828.77
603.553	19707.94
603.75	19861.54
603.946	19918.89
604.142	19744.81
604.338	19435.56
604.534	19718.18
604.73	19591.21
604.926	19421.23
605.122	19482.67
605.318	19386.41
605.514	19370.03
605.71	19273.78
605.906	19406.89
606.102	19419.18
606.298	19083.31
606.494	19025.97
606.69	19101.75
606.886	19152.95
607.082	18853.94
607.278	18899
607.474	18731.06
607.67	18614.33
607.866	18675.77
608.062	18815.03
608.257	18831.41
608.453	18937.91
608.649	18567.23
608.845	18356.29
609.041	18583.61
609.236	18581.56
609.432	18636.86
609.628	18573.37
609.824	18647.1
610.019	18520.12
610.215	18184.26
610.411	18444.35
610.606	18368.57
610.802	18253.89
610.998	18010.18
611.193	18389.05
611.389	17938.5
611.584	18135.1
611.78	17846.34
611.976	18229.31
612.171	17909.83
612.367	17784.9
612.562	17676.36
612.758	17754.18
612.953	17637.45
613.149	17905.73
613.344	17684.55
613.539	17989.7
613.735	17328.2
613.93	17664.07
614.126	17819.72
614.321	17504.33
614.517	17492.04
614.712	17385.55
614.907	17528.91
615.103	17668.17
615.298	17381.45
615.493	17541.19
615.688	17162.32
615.884	17590.34
616.079	17234
616.274	17582.15
616.47	17074.26
616.665	16969.81
616.86	16994.39
617.055	17395.79
617.25	16736.34
617.445	17057.87
617.641	16799.83
617.836	16998.48
618.031	16717.91
618.226	16724.05
618.421	16783.45
618.616	16992.34
618.811	16668.76
619.006	16875.6
619.201	16451.67
619.396	16453.72
619.591	16318.56
619.786	16185.44
619.981	16169.05
620.176	16324.7
620.371	15964.26
620.566	16040.03
620.761	16101.47
620.956	16095.33
621.151	15648.87
621.346	15863.91
621.541	15521.9
621.735	15732.84
621.93	15573.1
622.125	15575.14
622.32	15226.99
622.515	15478.89
622.709	15335.53
622.904	15108.21
623.099	14887.03
623.294	15231.08
623.488	14850.16
623.683	14979.18
623.878	14837.87
624.072	14880.88
624.267	14579.83
624.462	14479.48
624.656	14678.13
624.851	14540.92
625.046	14217.34
625.24	14354.55
625.435	14366.84
625.629	14028.93
625.824	14168.19
626.018	14182.52
626.213	13805.7
626.407	13904
626.602	13553.8
626.796	13684.87
626.991	13645.96
627.185	13535.37
627.38	13482.12
627.574	13449.35
627.768	13342.86
627.963	13021.33
628.157	12945.55
628.352	13293.71
628.546	13076.62
628.74	13097.1
628.935	12839.06
629.129	12943.5
629.323	12619.92
629.517	12761.23
629.712	12662.93
629.906	12605.59
630.1	12275.87
630.294	12329.11
630.489	12472.47
630.683	12486.81
630.877	12126.36
631.071	12103.84
631.265	12056.73
631.459	11972.77
631.653	11874.46
631.848	11933.86
632.042	11894.94
632.236	11782.31
632.43	11925.66
632.624	11700.39
632.818	11593.89
633.012	11511.97
633.206	11600.04
633.4	11688.1
633.594	11258.03
633.788	11303.08
633.982	11380.9
634.176	11298.98
634.369	11110.57
634.563	11180.2
634.757	10975.41
634.951	11036.84
635.145	10993.84
635.339	10895.54
635.533	10758.32
635.726	10887.34
635.92	10453.17
636.114	10668.21
636.308	10619.06
636.501	10565.81
636.695	10569.91
636.889	10275
637.083	10180.79
637.276	10401.97
637.47	10240.19
637.664	10201.27
637.857	10172.6
638.051	9951.42
638.244	10287.29
638.438	10037.44
638.632	10066.11
638.825	9799.87
639.019	9824.45
639.212	9783.49
639.406	9785.54
639.599	9636.03
639.793	9607.36
639.986	9558.21
640.18	9441.48
640.373	9564.36
640.567	9384.13
640.76	9367.75
640.954	9230.54
641.147	9279.69
641.34	9103.56
641.534	9165
641.727	9128.14
641.92	9046.22
642.114	8943.82
642.307	9015.5
642.5	8931.53
642.694	8792.27
642.887	8702.16
643.08	8966.35
643.273	8696.02
643.467	8671.44
643.66	8880.33
643.853	8626.39
644.046	8407.25
644.239	8407.25
644.432	8552.66
644.626	8292.57
644.819	8358.1
645.012	8227.03
645.205	8282.33
645.398	8413.4
645.591	8270.04
645.784	8159.45
645.977	7934.17
646.17	8202.46
646.363	8026.33
646.556	8003.8
646.749	8091.87
646.942	8050.91
647.135	7770.33
647.328	7960.8
647.521	7815.39
647.714	7686.37
647.907	7815.39
648.099	7655.65
648.292	7766.24
648.485	7543.01
648.678	7577.83
648.871	7463.14
649.064	7504.1
649.256	7475.43
649.449	7280.87
649.642	7082.22
649.835	7336.17
650.027	7303.4
650.22	7301.35
650.413	7237.86
650.605	7135.46
650.798	7082.22
650.991	7024.87
651.183	6961.39
651.376	6955.24
651.568	6994.15
651.761	6893.8
651.954	6846.7
652.146	6942.96
652.339	6834.41
652.531	6836.46
652.724	6809.84
652.916	6545.65
653.109	6510.83
653.301	6625.52
653.494	6670.58
653.686	6394.1
653.879	6697.2
654.071	6523.12
654.263	6564.08
654.456	6336.76
654.648	6433.01
654.84	6295.8
655.033	6297.85
655.225	6252.79
655.417	6082.81
655.61	6211.83
655.802	6078.71
655.994	6154.49
656.186	6179.06
656.379	6047.99
656.571	6088.95
656.763	6064.38
656.955	5871.87
657.148	6060.28
657.34	6025.47
657.532	5818.62
657.724	6002.94
657.916	5796.09
658.108	5953.79
658.3	5675.26
658.492	5732.61
658.684	5708.03
658.876	5667.07
659.068	5609.73
659.26	5591.3
659.452	5523.71
659.644	5495.04
659.836	5460.23
660.028	5628.16
660.22	5409.03
660.412	5597.44
660.604	5361.92
660.796	5445.89
660.988	5394.69
661.18	5368.07
661.372	5351.68
661.563	5421.31
661.755	5382.4
661.947	5253.38
662.139	5157.13
662.331	5189.89
662.522	5122.31
662.714	5030.15
662.906	5097.74
663.097	5101.83
663.289	5019.91
663.481	4806.92
663.673	4897.03
663.864	5058.82
664.056	4860.17
664.247	4903.18
664.439	4835.6
664.631	4868.36
664.822	4729.1
665.014	4786.44
665.205	4831.5
665.397	4770.06
665.588	4720.91
665.78	4741.39
665.971	4763.92
666.163	4632.85
666.354	4647.18
666.546	4503.82
666.737	4409.62
666.929	4532.5
667.12	4653.33
667.311	4575.5
667.503	4479.25
667.694	4393.23
667.885	4477.2
668.077	4477.2
668.268	4253.97
668.459	4305.17
668.651	4290.84
668.842	4305.17
669.033	4292.88
669.224	4329.75
669.416	4311.32
669.607	4210.97
669.798	4286.74
669.989	4223.25
670.18	4233.49
670.371	4110.61
670.563	4114.71
670.754	4174.1
670.945	4004.12
671.136	4159.77
671.327	4090.13
671.518	4081.94
671.709	4038.94
671.9	3926.3
672.091	3997.98
672.282	3950.87
672.473	3893.53
672.664	3858.71
672.855	3836.19
673.046	3922.2
673.237	4081.94
673.428	3868.95
673.619	3877.15
673.809	3803.42
674	3868.95
674.191	3713.31
674.382	3729.69
674.573	3756.32
674.764	3838.23
674.954	3772.7
675.145	3664.16
675.336	3551.52
675.527	3713.31
675.717	3733.79
675.908	3676.45
676.099	3606.81
676.289	3737.88
676.48	3576.09
676.671	3602.72
676.861	3481.89
677.052	3604.77
677.243	3447.07
677.433	3569.95
677.624	3557.66
677.814	3490.08
678.005	3451.17
678.195	3492.13
678.386	3553.57
678.576	3418.4
678.767	3420.45
678.957	3537.18
679.148	3453.22
679.338	3328.29
679.529	3440.93
679.719	3352.87
679.909	3467.55
680.1	3412.26
680.29	3410.21
680.481	3420.45
680.671	3375.39
680.861	3256.61
681.052	3279.14
681.242	3336.48
681.432	3350.82
681.622	3283.24
681.813	3211.56
682.003	3305.76
682.193	3381.54
682.383	3354.91
682.573	3205.41
682.764	3205.41
682.954	3174.69
683.144	3287.33
683.334	3127.59
683.524	3262.76
683.714	3197.22
683.904	3098.92
684.094	3191.08
684.284	3115.3
684.474	3156.26
684.664	3049.77
684.854	3051.81
685.044	3076.39
685.234	3041.57
685.424	3017
685.614	2933.03
685.804	3105.06
685.994	2988.33
686.184	2971.94
686.374	3033.38
686.564	2978.09
686.753	2947.37
686.943	3094.82
687.133	2814.25
687.323	2961.7
687.513	2984.23
687.702	2937.13
687.892	2836.78
688.082	2795.82
688.272	2879.79
688.461	2957.61
688.651	2912.55
688.841	2707.76
689.03	2771.24
689.22	2763.05
689.41	2797.87
689.599	2707.76
689.789	2568.49
689.979	2881.83
690.168	2672.94
690.358	2738.48
690.547	2734.38
690.737	2804.01
690.926	2574.64
691.116	2658.6
691.305	2576.69
691.495	2699.56
691.684	2564.4
691.874	2627.89
692.063	2560.3
692.252	2715.95
692.442	2707.76
692.631	2586.93
692.82	2691.37
693.01	2558.25
693.199	2433.33
693.388	2451.76
693.578	2568.49
693.767	2552.11
693.956	2472.24
694.146	2584.88
694.335	2421.04
694.524	2466.1
694.713	2505.01
694.902	2539.82
695.092	2353.46
695.281	2361.65
695.47	2388.27
695.659	2369.84
695.848	2380.08
696.037	2459.95
696.226	2445.62
696.415	2283.83
696.604	2357.55
696.793	2410.8
696.982	2373.94
697.171	2306.35
697.36	2240.82
697.549	2328.88
697.738	2320.69
697.927	2257.2
698.116	2322.74
698.305	2296.11
698.494	2347.31
698.683	2246.96
698.872	2246.96
699.061	2115.89
699.25	2210.1
699.438	2271.54
699.627	2283.83
699.816	2281.78
700.005	2165.04
700.193	2312.5
700.382	2230.58
700.571	2224.44
700.76	2230.58
700.948	2281.78
701.137	2265.39
701.326	2160.95
701.514	2119.99
701.703	2341.17
701.892	2072.89
702.08	2208.05
702.269	2124.08
702.457	2083.13
702.646	2148.66
702.834	2148.66
703.023	2117.94
703.212	2222.39
703.4	2193.72
703.589	2091.32
703.777	2165.04
703.965	2044.21
704.154	2136.37
704.342	2107.7
704.531	2175.28
704.719	2175.28
704.907	2173.24
705.096	2058.55
705.284	2140.47
705.472	2074.93
705.661	2072.89
705.849	2134.32
706.037	2060.6
706.226	2044.21
706.414	2097.46
706.602	2003.25
706.79	2113.85
706.979	2029.88
707.167	2070.84
707.355	2072.89
707.543	2132.28
707.731	2058.55
707.919	2083.13
708.107	2048.31
708.296	2025.78
708.484	2140.47
708.672	2089.27
708.86	2085.17
709.048	2134.32
709.236	2033.97
709.424	2142.52
709.612	2001.21
709.8	2042.17
709.988	2005.3
710.176	1915.19
710.364	2115.89
710.551	1970.49
710.739	1993.01
710.927	2136.37
711.115	2109.75
711.303	2091.32
711.491	1968.44
711.679	1972.54
711.866	2093.37
712.054	2117.94
712.242	2083.13
712.43	2019.64
712.617	2036.02
712.805	2029.88
712.993	2027.83
713.181	2029.88
713.368	2042.17
713.556	1970.49
713.744	1939.77
713.931	2079.03
714.119	1982.78
714.306	2066.74
714.494	2005.3
714.682	2136.37
714.869	2128.18
715.057	2013.49
715.244	1993.01
715.432	1976.63
715.619	1870.14
715.807	1952.06
715.994	1954.1
716.182	1984.82
716.369	2019.64
716.556	2066.74
716.744	1952.06
716.931	1968.44
717.119	1968.44
717.306	2009.4
717.493	2087.22
717.681	2021.69
717.868	1986.87
718.055	2117.94
718.242	2027.83
718.43	2111.8
718.617	2042.17
718.804	1923.38
718.991	1962.3
719.179	1984.82
719.366	2107.7
719.553	1990.97
719.74	2058.55
719.927	1941.82
720.114	2083.13
720.301	1982.78
720.488	2013.49
720.676	1982.78
720.863	1984.82
721.05	1937.72
721.237	1937.72
721.424	1968.44
721.611	2056.5
721.798	2007.35
721.985	1943.86
722.172	1993.01
722.358	1927.48
722.545	1978.68
722.732	1935.67
722.919	2011.45
723.106	1902.9
723.293	1921.34
723.48	1947.96
723.667	2027.83
723.853	1968.44
724.04	1935.67
724.227	1919.29
724.414	1943.86
724.6	2064.69
724.787	2009.4
724.974	1947.96
725.161	2042.17
725.347	1941.82
725.534	2095.41
725.72	2079.03
725.907	2115.89
726.094	2054.45
726.28	1978.68
726.467	1941.82
726.653	1909.05
726.84	2015.54
727.027	2083.13
727.213	1870.14
727.4	1935.67
727.586	2009.4
727.773	1997.11
727.959	2079.03
728.145	1993.01
728.332	2017.59
728.518	2003.25
728.705	2011.45
728.891	1978.68
729.077	1933.62
729.264	1935.67
729.45	2007.35
729.636	1970.49
729.823	2038.07
730.009	2050.36
730.195	1995.06
730.382	2044.21
730.568	1990.97
730.754	1995.06
730.94	1937.72
731.126	2038.07
731.313	1990.97
731.499	1974.58
731.685	2042.17
731.871	1966.39
732.057	2056.5
732.243	2027.83
732.429	2001.21
732.615	1993.01
732.801	1984.82
732.987	2066.74
733.173	1896.76
733.359	2074.93
733.545	1882.42
733.731	1911.1
733.917	2001.21
734.103	1945.91
734.289	2101.56
734.475	1868.09
734.661	2033.97
734.847	1954.1
735.033	1921.34
735.219	1997.11
735.404	1898.81
735.59	1839.42
735.776	1913.14
735.962	1909.05
736.148	1911.1
736.333	1896.76
736.519	1904.95
736.705	1847.61
736.89	1904.95
737.076	1833.27
737.262	1820.99
737.447	1935.67
737.633	1929.53
737.819	1976.63
738.004	1831.23
738.19	1939.77
738.375	1845.56
738.561	1913.14
738.747	1888.57
738.932	1847.61
739.118	1882.42
739.303	1837.37
739.489	1960.25
739.674	1796.41
739.859	1902.9
740.045	1859.9
740.23	1845.56
740.416	1767.74
740.601	1847.61
740.786	1943.86
740.972	1872.18
741.157	1818.94
741.342	1816.89
741.528	1841.47
741.713	1825.08
741.898	1816.89
742.084	1845.56
742.269	1714.49
742.454	1673.53
742.639	1763.64
742.824	1814.84
743.01	1767.74
743.195	1804.6
743.38	1751.35
743.565	1814.84
743.75	1712.44
743.935	1757.5
744.12	1853.75
744.305	1657.15
744.49	1747.26
744.675	1665.34
744.86	1708.35
745.045	1747.26
745.23	1734.97
745.415	1820.99
745.6	1780.03
745.785	1634.62
745.97	1749.31
746.155	1685.82
746.34	1722.68
746.525	1653.05
746.71	1620.28
746.895	1616.19
747.079	1669.44
747.264	1571.13
747.449	1562.94
747.634	1665.34
747.819	1653.05
748.003	1575.23
748.188	1536.32
748.373	1524.03
748.557	1601.85
748.742	1585.47
748.927	1470.78
749.111	1493.31
749.296	1478.97
749.481	1538.37
749.665	1558.85
749.85	1438.02
750.034	1517.89
750.219	1489.21
750.404	1524.03
750.588	1417.54
750.773	1505.6
750.957	1409.34
751.141	1435.97
751.326	1468.73
751.51	1440.06
751.695	1395.01
751.879	1358.14
752.064	1501.5
752.248	1354.05
752.432	1413.44
752.617	1526.08
752.801	1427.78
752.985	1395.01
753.17	1374.53
753.354	1292.61
753.538	1382.72
753.722	1294.66
753.907	1407.3
754.091	1274.18
754.275	1268.03
754.459	1231.17
754.643	1333.57
754.828	1280.32
755.012	1323.33
755.196	1245.51
755.38	1227.07
755.564	1182.02
755.748	1200.45
755.932	1216.83
756.116	1239.36
756.3	1151.3
756.484	1231.17
756.668	1194.31
756.852	1085.76
757.036	1208.64
757.22	1149.25
757.404	1157.44
757.588	1116.48
757.772	1210.69
757.956	1116.48
758.14	1134.92
758.323	1034.57
758.507	1149.25
758.691	1186.12
758.875	1106.24
759.059	1034.57
759.242	1069.38
759.426	1044.81
759.61	1102.15
759.794	969.03
759.977	1141.06
760.161	1134.92
760.345	1059.14
760.528	1061.19
760.712	1057.09
760.895	979.27
761.079	928.07
761.263	1009.99
761.446	1063.24
761.63	942.41
761.813	1143.11
761.997	997.7
762.18	1042.76
762.364	993.61
762.547	948.55
762.731	921.93
762.914	997.7
763.098	895.3
763.281	973.13
763.464	919.88
763.648	878.92
763.831	944.45
764.015	835.91
764.198	878.92
764.381	962.89
764.564	893.26
764.748	930.12
764.931	940.36
765.114	921.93
765.297	981.32
765.481	993.61
765.664	854.34
765.847	899.4
766.03	872.78
766.213	801.1
766.397	856.39
766.58	930.12
766.763	903.5
766.946	878.92
767.129	821.58
767.312	930.12
767.495	895.3
767.678	938.31
767.861	870.73
768.044	862.54
768.227	895.3
768.41	870.73
768.593	913.74
768.776	835.91
768.959	880.97
769.142	895.3
769.324	809.29
769.507	751.95
769.69	848.2
769.873	868.68
770.056	862.54
770.239	866.63
770.421	829.77
770.604	840.01
770.787	870.73
770.97	821.58
771.152	706.89
771.335	772.43
771.518	774.47
771.7	831.82
771.883	817.48
772.066	729.42
772.248	807.24
772.431	844.1
772.613	717.13
772.796	690.51
772.978	743.75
773.161	735.56
773.343	715.08
773.526	764.23
773.708	674.12
773.891	723.27
774.073	719.18
774.256	698.7
774.438	821.58
774.621	782.67
774.803	721.23
774.985	678.22
775.168	780.62
775.35	627.02
775.532	672.08
775.715	653.64
775.897	723.27
776.079	708.94
776.261	719.18
776.444	696.65
776.626	684.36
776.808	715.08
776.99	665.93
777.173	645.45
777.355	624.97
777.537	676.17
777.719	616.78
777.901	700.75
778.083	602.44
778.265	575.82
778.447	708.94
778.629	651.6
778.811	541.01
778.993	614.73
779.175	627.02
779.357	586.06
779.539	608.59
779.721	649.55
779.903	528.72
780.085	586.06
780.267	565.58
780.449	627.02
780.631	610.64
780.812	641.36
780.994	567.63
781.176	563.53
781.358	461.13
781.54	526.67
781.721	543.05
781.903	559.44
782.085	461.13
782.267	520.53
782.448	485.71
782.63	430.41
782.812	526.67
782.993	452.94
783.175	491.85
783.357	510.29
783.538	485.71
783.72	534.86
783.901	444.75
784.083	514.38
784.264	452.94
784.446	436.56
784.627	414.03
784.809	467.28
784.99	395.6
785.172	393.55
785.353	495.95
785.535	465.23
785.716	461.13
785.897	426.32
786.079	403.79
786.26	356.69
786.441	371.02
786.623	407.89
786.804	420.17
786.985	416.08
787.167	463.18
787.348	395.6
787.529	381.26
787.71	461.13
787.891	422.22
788.073	397.65
788.254	397.65
788.435	428.37
788.616	364.88
788.797	452.94
788.978	338.26
789.159	348.5
789.34	371.02
789.522	360.78
789.703	346.45
789.884	391.5
790.065	424.27
790.246	338.26
790.427	291.15
790.607	344.4
790.788	446.8
790.969	381.26
791.15	338.26
791.331	385.36
791.512	371.02
791.693	272.72
791.874	287.06
792.054	325.97
792.235	274.77
792.416	280.91
792.597	340.3
792.778	311.63
792.958	289.1
793.139	321.87
793.32	266.58
793.5	276.82
793.681	303.44
793.862	336.21
794.042	313.68
794.223	207.19
794.404	395.6
794.584	250.19
794.765	325.97
794.945	250.19
795.126	203.09
795.306	313.68
795.487	332.11
795.667	358.74
795.848	276.82
796.028	317.78
796.209	239.95
796.389	301.39
796.57	264.53
796.75	264.53
796.93	354.64
797.111	256.34
797.291	221.52
797.471	270.67
797.652	274.77
797.832	274.77
798.012	342.35
798.192	272.72
798.373	256.34
798.553	207.19
798.733	342.35
798.913	160.08
799.093	231.76
799.274	233.81
799.454	289.1
799.634	233.81
799.814	305.49
799.994	137.56
800.174	260.43
800.354	239.95
800.534	184.66
800.714	198.99
800.894	262.48
801.074	194.9
801.254	293.2
801.434	209.23
801.614	305.49
801.794	227.67
801.974	817.48
802.154	190.8
802.334	250.19
802.514	190.8
802.693	207.19
802.873	166.23
803.053	256.34
803.233	215.38
803.413	207.19
803.592	192.85
803.772	242
803.952	207.19
804.131	242
804.311	231.76
804.491	242
804.67	231.76
804.85	186.71
805.03	203.09
805.209	211.28
805.389	221.52
805.568	151.89
805.748	233.81
805.928	248.15
806.107	182.61
806.287	225.62
806.466	207.19
806.646	176.47
806.825	174.42
807.004	260.43
807.184	137.56
807.363	141.65
807.543	227.67
807.722	153.94
807.901	256.34
808.081	143.7
808.26	190.8
808.439	225.62
808.619	158.03
808.798	151.89
808.977	246.1
809.156	211.28
809.336	231.76
809.515	149.84
809.694	153.94
809.873	129.36
810.052	223.57
810.231	190.8
810.411	162.13
810.59	129.36
810.769	213.33
810.948	209.23
811.127	67.92
811.306	168.27
811.485	125.27
811.664	285.01
811.843	141.65
812.022	184.66
812.201	112.98
812.38	229.71
812.559	166.23
812.737	178.51
812.916	143.7
813.095	133.46
813.274	168.27
813.453	149.84
813.632	145.75
813.811	250.19
813.989	96.6
814.168	76.12
814.347	80.21
814.526	119.12
814.704	149.84
814.883	223.57
815.062	121.17
815.24	145.75
815.419	170.32
815.598	198.99
815.776	84.31
815.955	125.27
816.133	94.55
816.312	145.75
816.49	117.08
816.669	168.27
816.847	108.88
817.026	145.75
817.204	108.88
817.383	151.89
817.561	145.75
817.74	139.6
817.918	115.03
818.097	125.27
818.275	131.41
818.453	196.95
818.632	86.36
818.81	129.36
818.988	67.92
819.167	88.4
819.345	108.88
819.523	100.69
819.701	102.74
819.879	137.56
820.058	72.02
820.236	149.84
820.414	104.79
820.592	123.22
820.77	67.92
820.948	158.03
821.127	133.46
821.305	110.93
821.483	170.32
821.661	162.13
821.839	141.65
822.017	125.27
822.195	149.84
822.373	112.98
822.551	67.92
822.729	112.98
822.907	92.5
823.085	174.42
823.262	168.27
823.44	10.58
823.618	84.31
823.796	98.64
823.974	67.92
824.152	55.64
824.329	74.07
824.507	129.36
824.685	137.56
824.863	67.92
825.04	78.16
825.218	90.45
825.396	149.84
825.574	86.36
825.751	108.88
825.929	119.12
826.107	104.79
826.284	121.17
826.462	59.73
826.639	-11.95
826.817	96.6
826.994	76.12
827.172	47.44
827.349	139.6
827.527	119.12
827.704	67.92
827.882	26.96
828.059	133.46
828.237	82.26
828.414	59.73
828.591	76.12
828.769	88.4
828.946	65.88
829.124	92.5
829.301	119.12
829.478	65.88
829.655	137.56
829.833	78.16
830.01	65.88
830.187	100.69
830.364	94.55
830.542	123.22
830.719	194.9
830.896	16.73
831.073	98.64
831.25	110.93
831.427	55.64
831.604	37.2
831.782	-11.95
831.959	123.22
832.136	125.27
832.313	92.5
832.49	-30.38
832.667	41.3
832.844	57.68
833.021	51.54
833.198	86.36
833.374	72.02
833.551	125.27
833.728	84.31
833.905	100.69
834.082	51.54
834.259	12.63
834.436	67.92
834.612	92.5
834.789	86.36
834.966	33.11
835.143	176.47
835.319	37.2
835.496	57.68
835.673	22.87
835.85	135.51
836.026	45.4
836.203	37.2
836.38	61.78
836.556	43.35
836.733	84.31
836.909	49.49
837.086	-5.8
837.262	51.54
837.439	82.26
837.616	65.88
837.792	31.06
837.968	59.73
838.145	20.82
838.321	69.97
838.498	88.4
838.674	35.16
838.851	100.69
839.027	43.35
839.203	61.78
839.38	59.73
839.556	100.69
839.732	78.16
839.909	26.96
840.085	106.84
840.261	43.35
840.437	2.39
840.614	59.73
840.79	88.4
840.966	53.59
841.142	119.12
841.318	43.35
841.494	22.87
841.671	76.12
841.847	78.16
842.023	59.73
842.199	59.73
842.375	67.92
842.551	-87.72
842.727	18.77
842.903	219.47
843.079	26.96
843.255	119.12
843.431	69.97
843.607	72.02
843.783	8.53
843.959	20.82
844.134	47.44
844.31	67.92
844.486	26.96
844.662	-7.85
844.838	18.77
845.013	76.12
845.189	100.69
845.365	47.44
845.541	45.4
845.716	88.4
845.892	94.55
846.068	69.97
846.244	29.01
846.419	26.96
846.595	80.21
846.77	-30.38
846.946	100.69
847.122	84.31
847.297	26.96
847.473	76.12
847.648	61.78
847.824	26.96
847.999	0.34
848.175	53.59
848.35	133.46
848.526	86.36
848.701	76.12
848.876	2.39
849.052	26.96
849.227	14.68
849.403	43.35
849.578	26.96
849.753	76.12
849.929	51.54
850.104	-38.57
850.279	47.44
850.454	31.06
850.63	31.06
850.805	6.49
850.98	65.88
851.155	51.54
851.33	51.54
851.505	31.06
851.681	69.97
851.856	72.02
852.031	51.54
852.206	59.73
852.381	37.2
852.556	47.44
852.731	4.44
852.906	37.2
853.081	18.77
853.256	117.08
853.431	2.39
853.606	59.73
853.781	31.06
853.956	61.78
854.131	26.96
854.305	20.82
854.48	-1.71
854.655	41.3
854.83	-13.99
855.005	-7.85
855.18	67.92
855.354	-20.14
855.529	10.58
855.704	-1.71
855.879	59.73
856.053	-59.05
856.228	53.59
856.403	67.92
856.577	-3.75
856.752	-71.34
856.926	59.73
857.101	55.64
857.276	59.73
857.45	-7.85
857.625	6.49
857.799	61.78
857.974	-48.81
858.148	-38.57
858.323	20.82
858.497	88.4
858.672	53.59
858.846	-36.52
859.02	135.51
859.195	-38.57
859.369	39.25
859.543	35.16
859.718	-26.28
859.892	65.88
860.066	24.92
860.241	-71.34
860.415	-16.04
860.589	2.39
860.763	59.73
860.938	-22.19
861.112	63.83
861.286	-38.57
861.46	-16.04
861.634	92.5
861.808	39.25
861.982	10.58
862.157	8.53
862.331	26.96
862.505	33.11
862.679	31.06
862.853	33.11
863.027	-9.9
863.201	20.82
863.375	10.58
863.549	43.35
863.722	6.49
863.896	10.58
864.07	41.3
864.244	14.68
864.418	51.54
864.592	18.77
864.766	53.59
864.939	-69.29
865.113	4.44
865.287	22.87
865.461	12.63
865.634	-61.1
865.808	6.49
865.982	49.49
866.156	-22.19
866.329	2.39
866.503	100.69
866.676	8.53
866.85	51.54
867.024	26.96
867.197	31.06
867.371	20.82
867.544	-36.52
867.718	20.82
867.891	10.58
868.065	51.54
868.238	51.54
868.412	160.08
868.585	39.25
868.759	37.2
868.932	-11.95
869.105	39.25
869.279	51.54
869.452	-11.95
869.625	6.49
869.799	41.3
869.972	26.96
870.145	-13.99
870.319	10.58
870.492	-59.05
870.665	57.68
870.838	-77.48
871.011	8.53
871.185	6.49
871.358	14.68
871.531	31.06
871.704	-11.95
871.877	18.77
872.05	94.55
872.223	2.39
872.396	-1.71
872.569	-1.71
872.742	37.2
872.915	-5.8
873.088	-30.38
873.261	-13.99
873.434	-9.9
873.607	-5.8
873.78	-38.57
873.953	2.39
874.126	-20.14
874.299	39.25
874.471	-3.75
874.644	41.3
874.817	-5.8
874.99	18.77
875.163	47.44
875.335	-5.8
875.508	35.16
875.681	72.02
875.853	8.53
876.026	-3.75
876.199	59.73
876.371	-18.09
876.544	-13.99
876.717	4.44
876.889	-13.99
877.062	4.44
877.234	-3.75
877.407	92.5
877.579	29.01
877.752	12.63
877.924	18.77
878.097	53.59
878.269	26.96
878.442	76.12
878.614	72.02
878.786	53.59
878.959	8.53
879.131	-22.19
879.303	-26.28
879.476	22.87
879.648	39.25
879.82	45.4
879.993	4.44
880.165	-5.8
880.337	-30.38
880.509	20.82
880.681	39.25
880.854	20.82
881.026	-36.52
881.198	67.92
881.37	26.96
881.542	69.97
881.714	-54.95
881.886	45.4
882.058	-13.99
882.23	-11.95
882.402	12.63
882.574	18.77
882.746	-61.1
882.918	31.06
883.09	47.44
883.262	86.36
883.434	53.59
883.606	4.44
883.778	8.53
883.95	35.16
884.122	10.58
884.293	37.2
884.465	-52.91
884.637	117.08
884.809	-13.99
884.98	14.68
885.152	78.16
885.324	51.54
885.496	86.36
885.667	6.49
885.839	14.68
886.011	37.2
886.182	10.58
886.354	-18.09
886.525	22.87
886.697	43.35
886.869	26.96
887.04	-38.57
887.212	10.58
887.383	45.4
887.555	59.73
887.726	-5.8
887.897	-20.14
888.069	26.96
888.24	35.16
888.412	-11.95
888.583	-63.15
888.754	104.79
888.926	-11.95
889.097	24.92
889.268	-42.67
889.44	18.77
889.611	-28.33
889.782	-48.81
889.953	-34.47
890.125	6.49
890.296	72.02
890.467	-85.67
890.638	45.4
890.809	-9.9
890.98	-30.38
891.151	10.58
891.323	6.49
891.494	37.2
891.665	-20.14
891.836	14.68
892.007	69.97
892.178	45.4
892.349	51.54
892.52	-67.24
892.691	10.58
892.862	55.64
893.032	-44.71
893.203	-28.33
893.374	-13.99
893.545	10.58
893.716	-1.71
893.887	63.83
894.057	74.07
894.228	-26.28
894.399	-44.71
894.57	-3.75
894.74	35.16
894.911	35.16
895.082	-26.28
895.253	0.34
895.423	72.02
895.594	2.39
895.764	-5.8
895.935	-30.38
896.106	22.87
896.276	51.54
896.447	-22.19
896.617	-30.38
896.788	-46.76
896.958	20.82
897.129	26.96
897.299	-63.15
897.47	57.68
897.64	8.53
897.81	37.2
897.981	-11.95
898.151	-46.76
898.322	18.77
898.492	-18.09
898.662	55.64
898.832	-40.62
899.003	12.63
899.173	2.39
899.343	-18.09
899.513	-26.28
