Data from USB4F104151__118__14-43-53-850.txt Node

Date: Thu Mar 13 14:43:53 EDT 2025
User: louis
Spectrometer: USB4F10415
Trigger mode: 4
Integration Time (sec): 2.000000E-2
Scans to average: 1
Electric dark correction enabled: true
Nonlinearity correction enabled: false
Boxcar width: 0
XAxis mode: Wavelengths
Number of Pixels in Spectrum: 3648
>>>>>Begin Spectral Data<<<<<
178.204	-96.43
178.424	-96.43
178.644	-96.43
178.864	-161.96
179.084	-112.81
179.304	-22.7
179.524	14.17
179.744	-10.41
179.964	85.84
180.184	-51.37
180.404	-0.17
180.624	-34.99
180.844	3.93
181.064	-12.46
181.283	1.88
181.503	-10.41
181.723	36.69
181.943	-39.08
182.163	112.47
182.383	22.36
182.602	18.26
182.822	1.88
183.042	20.31
183.262	57.17
183.482	18.26
183.701	51.03
183.921	18.26
184.141	-22.7
184.361	59.22
184.58	14.17
184.8	-41.13
185.02	-20.65
185.239	67.41
185.459	59.22
185.679	51.03
185.898	-14.51
186.118	14.17
186.338	42.84
186.557	20.31
186.777	-51.37
186.997	-24.75
187.216	18.26
187.436	102.23
187.655	48.98
187.875	108.37
188.095	-4.27
188.314	32.6
188.534	57.17
188.753	-2.22
188.973	-22.7
189.192	112.47
189.412	63.32
189.631	69.46
189.851	-14.51
190.07	18.26
190.29	-10.41
190.509	-2.22
190.729	53.08
190.948	87.89
191.168	108.37
191.387	53.08
191.607	42.84
191.826	32.6
192.045	-16.55
192.265	18.26
192.484	-30.89
192.704	-22.7
192.923	-26.79
193.142	38.74
193.362	28.5
193.581	61.27
193.8	20.31
194.02	20.31
194.239	-45.23
194.458	-45.23
194.678	36.69
194.897	12.12
195.116	-2.22
195.335	26.45
195.555	-39.08
195.774	-8.36
195.993	-22.7
196.212	3.93
196.432	1.88
196.651	-22.7
196.87	34.64
197.089	36.69
197.308	18.26
197.528	-24.75
197.747	-10.41
197.966	59.22
198.185	-8.36
198.404	14.17
198.623	3.93
198.842	18.26
199.062	46.93
199.281	18.26
199.5	-39.08
199.719	18.26
199.938	18.26
200.157	10.07
200.376	-12.46
200.595	1.88
200.814	59.22
201.033	81.75
201.252	3.93
201.471	5.97
201.69	102.23
201.909	30.55
202.128	83.8
202.347	-8.36
202.566	12.12
202.785	-30.89
203.004	-49.32
203.223	69.46
203.442	22.36
203.661	-45.23
203.879	83.8
204.098	108.37
204.317	12.12
204.536	46.93
204.755	59.22
204.974	77.65
205.193	-22.7
205.411	102.23
205.63	-4.27
205.849	-53.42
206.068	14.17
206.287	-6.31
206.505	91.99
206.724	-10.41
206.943	-12.46
207.162	22.36
207.381	46.93
207.599	67.41
207.818	-51.37
208.037	42.84
208.255	67.41
208.474	3.93
208.693	20.31
208.911	34.64
209.13	-71.85
209.349	51.03
209.567	30.55
209.786	26.45
210.005	30.55
210.223	-47.27
210.442	10.07
210.661	79.7
210.879	55.12
211.098	-2.22
211.316	53.08
211.535	-14.51
211.753	-14.51
211.972	16.21
212.191	-53.42
212.409	26.45
212.628	38.74
212.846	38.74
213.065	42.84
213.283	53.08
213.502	-0.17
213.72	79.7
213.938	63.32
214.157	67.41
214.375	69.46
214.594	44.88
214.812	91.99
215.031	85.84
215.249	24.4
215.467	-30.89
215.686	5.97
215.904	91.99
216.122	-30.89
216.341	63.32
216.559	-28.84
216.778	91.99
216.996	51.03
217.214	-43.18
217.432	1.88
217.651	20.31
217.869	10.07
218.087	34.64
218.306	-4.27
218.524	34.64
218.742	24.4
218.96	26.45
219.179	-2.22
219.397	118.61
219.615	79.7
219.833	51.03
220.051	26.45
220.27	18.26
220.488	73.56
220.706	69.46
220.924	44.88
221.142	12.12
221.36	-22.7
221.578	73.56
221.796	-84.14
222.015	18.26
222.233	34.64
222.451	-6.31
222.669	-32.94
222.887	1.88
223.105	20.31
223.323	96.08
223.541	-47.27
223.759	63.32
223.977	55.12
224.195	104.28
224.413	34.64
224.631	12.12
224.849	-2.22
225.067	149.33
225.285	30.55
225.503	44.88
225.721	-4.27
225.939	-6.31
226.157	-34.99
226.375	145.24
226.592	-37.03
226.81	59.22
227.028	34.64
227.246	108.37
227.464	-4.27
227.682	26.45
227.9	26.45
228.117	83.8
228.335	-22.7
228.553	1.88
228.771	-22.7
228.989	51.03
229.206	3.93
229.424	55.12
229.642	48.98
229.86	-30.89
230.077	1.88
230.295	28.5
230.513	10.07
230.731	85.84
230.948	67.41
231.166	34.64
231.384	63.32
231.601	-12.46
231.819	104.28
232.037	3.93
232.254	-39.08
232.472	-12.46
232.689	-34.99
232.907	18.26
233.125	-18.6
233.342	-30.89
233.56	-6.31
233.777	-2.22
233.995	-55.47
234.213	96.08
234.43	-51.37
234.648	-6.31
234.865	28.5
235.083	73.56
235.3	120.66
235.518	1.88
235.735	40.79
235.953	14.17
236.17	20.31
236.388	38.74
236.605	46.93
236.822	83.8
237.04	44.88
237.257	8.02
237.475	46.93
237.692	63.32
237.909	30.55
238.127	-2.22
238.344	18.26
238.562	5.97
238.779	-2.22
238.996	-28.84
239.214	-2.22
239.431	55.12
239.648	71.51
239.865	69.46
240.083	102.23
240.3	20.31
240.517	26.45
240.735	42.84
240.952	18.26
241.169	22.36
241.386	46.93
241.603	5.97
241.821	-53.42
242.038	26.45
242.255	65.36
242.472	46.93
242.689	5.97
242.907	59.22
243.124	18.26
243.341	-47.27
243.558	44.88
243.775	-10.41
243.992	-88.23
244.209	65.36
244.426	67.41
244.643	67.41
244.86	-20.65
245.078	75.6
245.295	-6.31
245.512	83.8
245.729	5.97
245.946	-26.79
246.163	32.6
246.38	26.45
246.597	-34.99
246.814	14.17
247.031	-14.51
247.248	-34.99
247.464	108.37
247.681	16.21
247.898	12.12
248.115	34.64
248.332	-61.61
248.549	28.5
248.766	94.04
248.983	100.18
249.2	10.07
249.417	-10.41
249.633	38.74
249.85	83.8
250.067	36.69
250.284	-26.79
250.501	59.22
250.717	53.08
250.934	42.84
251.151	100.18
251.368	-18.6
251.585	22.36
251.801	48.98
252.018	10.07
252.235	73.56
252.451	22.36
252.668	-6.31
252.885	79.7
253.102	48.98
253.318	26.45
253.535	44.88
253.752	30.55
253.968	24.4
254.185	8.02
254.401	-10.41
254.618	-10.41
254.835	-6.31
255.051	75.6
255.268	-12.46
255.484	100.18
255.701	59.22
255.917	108.37
256.134	-26.79
256.351	51.03
256.567	-32.94
256.784	67.41
257	-14.51
257.217	83.8
257.433	48.98
257.65	51.03
257.866	91.99
258.082	65.36
258.299	3.93
258.515	67.41
258.732	3.93
258.948	-0.17
259.165	-55.47
259.381	1.88
259.597	-6.31
259.814	57.17
260.03	-2.22
260.246	10.07
260.463	-37.03
260.679	67.41
260.895	-20.65
261.112	71.51
261.328	-51.37
261.544	-63.66
261.761	124.76
261.977	3.93
262.193	10.07
262.409	26.45
262.626	-55.47
262.842	108.37
263.058	16.21
263.274	-14.51
263.49	22.36
263.707	83.8
263.923	12.12
264.139	-45.23
264.355	79.7
264.571	77.65
264.787	16.21
265.004	59.22
265.22	-51.37
265.436	8.02
265.652	28.5
265.868	18.26
266.084	26.45
266.3	-2.22
266.516	-53.42
266.732	85.84
266.948	36.69
267.164	44.88
267.38	116.56
267.596	55.12
267.812	153.43
268.028	44.88
268.244	14.17
268.46	-20.65
268.676	18.26
268.892	34.64
269.108	-49.32
269.324	-2.22
269.54	42.84
269.756	79.7
269.972	46.93
270.188	53.08
270.403	-63.66
270.619	3.93
270.835	53.08
271.051	-22.7
271.267	-20.65
271.483	-20.65
271.698	30.55
271.914	14.17
272.13	55.12
272.346	18.26
272.562	-14.51
272.777	12.12
272.993	10.07
273.209	-14.51
273.425	18.26
273.64	10.07
273.856	20.31
274.072	-86.19
274.287	34.64
274.503	53.08
274.719	22.36
274.934	16.21
275.15	22.36
275.366	-37.03
275.581	18.26
275.797	12.12
276.012	1.88
276.228	-14.51
276.444	34.64
276.659	85.84
276.875	28.5
277.09	28.5
277.306	40.79
277.521	48.98
277.737	14.17
277.952	8.02
278.168	38.74
278.383	53.08
278.599	10.07
278.814	10.07
279.03	20.31
279.245	104.28
279.461	61.27
279.676	61.27
279.892	3.93
280.107	-10.41
280.322	26.45
280.538	118.61
280.753	-10.41
280.969	22.36
281.184	36.69
281.399	-30.89
281.615	-12.46
281.83	59.22
282.045	-4.27
282.26	10.07
282.476	44.88
282.691	22.36
282.906	-14.51
283.122	24.4
283.337	81.75
283.552	-34.99
283.767	18.26
283.983	57.17
284.198	-30.89
284.413	30.55
284.628	12.12
284.843	83.8
285.058	18.26
285.274	16.21
285.489	59.22
285.704	51.03
285.919	-24.75
286.134	18.26
286.349	77.65
286.564	1.88
286.779	57.17
286.995	40.79
287.21	20.31
287.425	46.93
287.64	-2.22
287.855	5.97
288.07	-6.31
288.285	24.4
288.5	24.4
288.715	59.22
288.93	26.45
289.145	51.03
289.36	-6.31
289.575	44.88
289.79	-43.18
290.004	-14.51
290.219	75.6
290.434	44.88
290.649	3.93
290.864	-4.27
291.079	34.64
291.294	59.22
291.509	59.22
291.724	26.45
291.938	38.74
292.153	28.5
292.368	-28.84
292.583	55.12
292.798	22.36
293.012	12.12
293.227	1.88
293.442	12.12
293.657	77.65
293.871	59.22
294.086	5.97
294.301	85.84
294.516	59.22
294.73	1.88
294.945	-6.31
295.16	-80.04
295.374	46.93
295.589	51.03
295.804	63.32
296.018	67.41
296.233	12.12
296.447	67.41
296.662	30.55
296.877	77.65
297.091	3.93
297.306	10.07
297.52	14.17
297.735	1.88
297.949	-10.41
298.164	40.79
298.378	-61.61
298.593	20.31
298.807	38.74
299.022	12.12
299.236	61.27
299.451	-41.13
299.665	59.22
299.88	75.6
300.094	5.97
300.309	14.17
300.523	-4.27
300.737	5.97
300.952	-2.22
301.166	32.6
301.381	18.26
301.595	-2.22
301.809	20.31
302.024	20.31
302.238	10.07
302.452	16.21
302.667	-4.27
302.881	-30.89
303.095	12.12
303.309	34.64
303.524	-49.32
303.738	48.98
303.952	42.84
304.166	96.08
304.381	32.6
304.595	106.32
304.809	10.07
305.023	77.65
305.237	34.64
305.452	38.74
305.666	91.99
305.88	34.64
306.094	118.61
306.308	10.07
306.522	34.64
306.736	-53.42
306.95	24.4
307.164	55.12
307.379	10.07
307.593	51.03
307.807	-0.17
308.021	26.45
308.235	16.21
308.449	-86.19
308.663	3.93
308.877	145.24
309.091	-8.36
309.305	87.89
309.519	-61.61
309.733	3.93
309.947	-0.17
310.161	30.55
310.374	77.65
310.588	91.99
310.802	-30.89
311.016	44.88
311.23	94.04
311.444	-6.31
311.658	-61.61
311.872	-14.51
312.085	69.46
312.299	106.32
312.513	87.89
312.727	53.08
312.941	-22.7
313.154	46.93
313.368	-34.99
313.582	46.93
313.796	94.04
314.009	51.03
314.223	112.47
314.437	61.27
314.651	20.31
314.864	46.93
315.078	8.02
315.292	-6.31
315.505	-14.51
315.719	20.31
315.933	-0.17
316.146	42.84
316.36	1.88
316.573	46.93
316.787	-16.55
317.001	-26.79
317.214	-6.31
317.428	85.84
317.641	42.84
317.855	22.36
318.068	30.55
318.282	42.84
318.495	83.8
318.709	53.08
318.922	-2.22
319.136	85.84
319.349	55.12
319.563	10.07
319.776	20.31
319.99	36.69
320.203	55.12
320.417	63.32
320.63	42.84
320.843	102.23
321.057	42.84
321.27	44.88
321.483	-20.65
321.697	55.12
321.91	-6.31
322.124	71.51
322.337	-22.7
322.55	22.36
322.763	46.93
322.977	-34.99
323.19	10.07
323.403	65.36
323.617	42.84
323.83	61.27
324.043	-22.7
324.256	42.84
324.469	-26.79
324.683	51.03
324.896	51.03
325.109	53.08
325.322	48.98
325.535	18.26
325.748	18.26
325.962	42.84
326.175	24.4
326.388	22.36
326.601	42.84
326.814	-0.17
327.027	18.26
327.24	89.94
327.453	18.26
327.666	26.45
327.879	34.64
328.092	32.6
328.305	-12.46
328.518	51.03
328.731	18.26
328.944	-2.22
329.157	79.7
329.37	-0.17
329.583	83.8
329.796	91.99
330.009	18.26
330.222	53.08
330.435	28.5
330.648	-2.22
330.861	116.56
331.073	59.22
331.286	59.22
331.499	32.6
331.712	-18.6
331.925	20.31
332.138	18.26
332.35	85.84
332.563	32.6
332.776	96.08
332.989	-80.04
333.202	-14.51
333.414	-20.65
333.627	8.02
333.84	5.97
334.053	40.79
334.265	26.45
334.478	28.5
334.691	-24.75
334.903	46.93
335.116	-30.89
335.329	69.46
335.541	20.31
335.754	87.89
335.966	16.21
336.179	5.97
336.392	-80.04
336.604	-18.6
336.817	44.88
337.029	32.6
337.242	5.97
337.454	-2.22
337.667	46.93
337.88	24.4
338.092	53.08
338.305	118.61
338.517	-20.65
338.729	36.69
338.942	-55.47
339.154	51.03
339.367	-8.36
339.579	-2.22
339.792	46.93
340.004	116.56
340.217	20.31
340.429	75.6
340.641	30.55
340.854	28.5
341.066	46.93
341.278	85.84
341.491	61.27
341.703	75.6
341.915	-30.89
342.128	63.32
342.34	-39.08
342.552	-2.22
342.764	22.36
342.977	118.61
343.189	28.5
343.401	69.46
343.613	-2.22
343.826	46.93
344.038	14.17
344.25	12.12
344.462	-10.41
344.674	59.22
344.886	30.55
345.099	94.04
345.311	102.23
345.523	-77.99
345.735	10.07
345.947	77.65
346.159	10.07
346.371	130.9
346.583	83.8
346.795	77.65
347.007	22.36
347.219	10.07
347.431	-22.7
347.643	10.07
347.855	-20.65
348.067	116.56
348.279	-10.41
348.491	14.17
348.703	3.93
348.915	36.69
349.127	12.12
349.339	-2.22
349.551	-18.6
349.763	63.32
349.975	20.31
350.187	-8.36
350.399	100.18
350.61	-18.6
350.822	-32.94
351.034	18.26
351.246	20.31
351.458	42.84
351.669	46.93
351.881	83.8
352.093	14.17
352.305	18.26
352.517	34.64
352.728	81.75
352.94	69.46
353.152	-22.7
353.363	-10.41
353.575	51.03
353.787	100.18
353.999	1.88
354.21	110.42
354.422	14.17
354.633	3.93
354.845	48.98
355.057	61.27
355.268	1.88
355.48	83.8
355.692	18.26
355.903	-4.27
356.115	32.6
356.326	36.69
356.538	61.27
356.749	22.36
356.961	59.22
357.172	-10.41
357.384	12.12
357.595	59.22
357.807	-102.57
358.018	-6.31
358.23	34.64
358.441	34.64
358.653	108.37
358.864	61.27
359.075	51.03
359.287	34.64
359.498	61.27
359.709	51.03
359.921	69.46
360.132	55.12
360.344	85.84
360.555	-14.51
360.766	28.5
360.977	10.07
361.189	106.32
361.4	75.6
361.611	36.69
361.823	32.6
362.034	69.46
362.245	16.21
362.456	124.76
362.667	16.21
362.879	-2.22
363.09	30.55
363.301	59.22
363.512	26.45
363.723	30.55
363.935	-26.79
364.146	-47.27
364.357	-45.23
364.568	110.42
364.779	1.88
364.99	44.88
365.201	-6.31
365.412	1.88
365.623	-2.22
365.834	5.97
366.045	12.12
366.256	87.89
366.467	61.27
366.678	30.55
366.889	5.97
367.1	38.74
367.311	26.45
367.522	44.88
367.733	67.41
367.944	12.12
368.155	28.5
368.366	36.69
368.577	30.55
368.788	44.88
368.999	12.12
369.209	100.18
369.42	106.32
369.631	143.19
369.842	20.31
370.053	-12.46
370.264	102.23
370.474	14.17
370.685	69.46
370.896	83.8
371.107	75.6
371.317	51.03
371.528	51.03
371.739	75.6
371.95	3.93
372.16	126.8
372.371	5.97
372.582	42.84
372.792	61.27
373.003	79.7
373.214	-6.31
373.424	42.84
373.635	26.45
373.846	59.22
374.056	12.12
374.267	46.93
374.477	55.12
374.688	42.84
374.898	48.98
375.109	24.4
375.319	59.22
375.53	100.18
375.74	44.88
375.951	20.31
376.161	55.12
376.372	75.6
376.582	26.45
376.793	59.22
377.003	85.84
377.214	59.22
377.424	75.6
377.635	53.08
377.845	55.12
378.055	73.56
378.266	1.88
378.476	61.27
378.686	61.27
378.897	-14.51
379.107	44.88
379.317	42.84
379.528	14.17
379.738	38.74
379.948	61.27
380.158	67.41
380.369	8.02
380.579	16.21
380.789	38.74
380.999	30.55
381.21	71.51
381.42	26.45
381.63	3.93
381.84	46.93
382.05	-18.6
382.261	42.84
382.471	55.12
382.681	26.45
382.891	22.36
383.101	34.64
383.311	30.55
383.521	20.31
383.731	-20.65
383.941	5.97
384.151	51.03
384.361	57.17
384.571	34.64
384.781	16.21
384.991	128.85
385.201	55.12
385.411	108.37
385.621	67.41
385.831	3.93
386.041	42.84
386.251	32.6
386.461	32.6
386.671	83.8
386.881	18.26
387.091	-69.8
387.301	77.65
387.511	18.26
387.72	34.64
387.93	30.55
388.14	-18.6
388.35	-2.22
388.56	32.6
388.769	153.43
388.979	22.36
389.189	36.69
389.399	65.36
389.609	55.12
389.818	100.18
390.028	28.5
390.238	69.46
390.447	59.22
390.657	124.76
390.867	26.45
391.076	26.45
391.286	18.26
391.496	12.12
391.705	91.99
391.915	75.6
392.125	44.88
392.334	108.37
392.544	46.93
392.753	44.88
392.963	-39.08
393.172	1.88
393.382	122.71
393.591	149.33
393.801	28.5
394.01	3.93
394.22	59.22
394.429	55.12
394.639	18.26
394.848	16.21
395.058	128.85
395.267	30.55
395.477	38.74
395.686	55.12
395.895	110.42
396.105	96.08
396.314	30.55
396.524	10.07
396.733	67.41
396.942	30.55
397.152	128.85
397.361	233.3
397.57	-6.31
397.78	36.69
397.989	165.71
398.198	110.42
398.407	61.27
398.617	130.9
398.826	12.12
399.035	71.51
399.244	141.14
399.453	10.07
399.663	61.27
399.872	151.38
400.081	124.76
400.29	59.22
400.499	102.23
400.708	120.66
400.917	77.65
401.127	44.88
401.336	106.32
401.545	157.52
401.754	91.99
401.963	108.37
402.172	-2.22
402.381	30.55
402.59	48.98
402.799	18.26
403.008	102.23
403.217	26.45
403.426	132.95
403.635	100.18
403.844	214.87
404.053	135
404.262	26.45
404.471	132.95
404.68	143.19
404.888	124.76
405.097	102.23
405.306	132.95
405.515	132.95
405.724	67.41
405.933	75.6
406.142	135
406.35	126.8
406.559	104.28
406.768	85.84
406.977	132.95
407.185	157.52
407.394	137.04
407.603	102.23
407.812	192.34
408.02	243.54
408.229	175.95
408.438	173.91
408.646	108.37
408.855	190.29
409.064	173.91
409.272	198.48
409.481	184.15
409.69	196.43
409.898	141.14
410.107	173.91
410.315	161.62
410.524	237.39
410.733	284.5
410.941	284.5
411.15	223.06
411.358	270.16
411.567	206.67
411.775	251.73
411.984	261.97
412.192	304.98
412.401	317.26
412.609	434
412.818	337.74
413.026	337.74
413.234	403.28
413.443	345.94
413.651	321.36
413.86	407.38
414.068	460.62
414.276	405.33
414.485	370.51
414.693	421.71
414.901	577.36
415.11	427.85
415.318	448.33
415.526	513.87
415.734	522.06
415.943	558.92
416.151	616.27
416.359	483.15
416.567	528.21
416.776	610.12
416.984	642.89
417.192	630.6
417.4	632.65
417.608	634.7
417.817	661.32
418.025	667.47
418.233	757.58
418.441	657.23
418.649	749.39
418.857	786.25
419.065	902.98
419.273	913.22
419.481	888.65
419.689	921.42
419.897	960.33
420.105	1009.48
420.313	1042.25
420.521	1079.11
420.729	1111.88
420.937	1161.03
421.145	1052.49
421.353	1265.47
421.561	1337.15
421.769	1310.53
421.977	1298.24
422.185	1333.06
422.393	1386.3
422.601	1482.56
422.809	1492.8
423.017	1500.99
423.224	1552.19
423.432	1623.87
423.64	1691.45
423.848	1861.43
424.056	1656.64
424.263	1816.38
424.471	1896.25
424.679	1988.41
424.887	1976.12
425.094	1972.02
425.302	2074.42
425.51	2090.81
425.718	2221.88
425.925	2215.73
426.133	2373.43
426.341	2484.02
426.548	2547.5
426.756	2524.97
426.964	2545.45
427.171	2729.77
427.379	2774.83
427.586	2948.9
427.794	2916.14
428.001	3018.54
428.209	3223.33
428.417	3041.06
428.624	3405.6
428.832	3209
429.039	3254.05
429.247	3258.15
429.454	3608.35
429.662	3962.65
429.869	3524.38
430.076	3983.13
430.284	3823.39
430.491	3841.82
430.699	4151.06
430.906	4206.36
431.114	4171.54
431.321	4474.64
431.528	4511.5
431.736	4790.03
431.943	4998.92
432.15	4820.75
432.358	4941.58
432.565	5158.66
432.772	5037.83
432.979	5402.37
433.187	5609.22
433.394	5590.78
433.601	5875.45
433.808	5953.27
434.016	5893.88
434.223	5883.64
434.43	6444.79
434.637	6463.22
434.844	6782.7
435.052	6825.71
435.259	6735.6
435.466	6926.06
435.673	6819.57
435.88	7374.56
436.087	7560.93
436.294	7522.02
436.501	7560.93
436.708	7679.71
436.915	7956.19
437.122	8185.56
437.329	8224.47
437.537	8279.77
437.743	8627.92
437.95	8554.19
438.157	8890.06
438.364	9070.28
438.571	9158.35
438.778	9424.58
438.985	10028.73
439.192	9776.83
439.399	10065.6
439.606	9940.67
439.813	10337.98
440.02	11052.72
440.227	10835.63
440.433	10479.29
440.64	11071.15
440.847	10774.19
441.054	11099.82
441.261	11835.04
441.467	11822.75
441.674	11873.95
441.881	12453.53
442.088	12387.99
442.294	12238.49
442.501	12379.8
442.708	12680.85
442.914	13448.84
443.121	13866.63
443.328	13651.59
443.534	14689.91
443.741	14096
443.948	13801.09
444.154	15066.74
444.361	15025.78
444.568	14849.65
444.774	14986.86
444.981	15040.11
445.187	15521.38
445.394	16160.35
445.6	15814.24
445.807	17565.26
446.013	16815.7
446.22	16991.83
446.426	17589.83
446.633	17884.74
446.839	18437.69
447.046	17505.87
447.252	18753.08
447.459	18802.23
447.665	18712.12
447.871	19510.83
448.078	20309.54
448.284	19351.09
448.491	19973.67
448.697	20575.77
448.903	20848.15
449.11	21063.19
449.316	20870.68
449.522	21192.21
449.728	21751.31
449.935	21739.02
450.141	21655.05
450.347	22420.99
450.553	21923.33
450.76	22273.54
450.966	22552.06
451.172	22359.55
451.378	23182.84
451.584	22726.14
451.791	23272.95
451.997	23281.14
452.203	23686.64
452.409	23684.59
452.615	23346.67
452.821	22578.68
453.027	22320.64
453.233	23727.6
453.44	22449.66
453.646	22832.63
453.852	22801.91
454.058	23342.58
454.264	22490.62
454.47	23113.2
454.676	22560.25
454.882	23236.08
455.088	21466.64
455.294	21620.24
455.5	22101.51
455.705	22590.97
455.911	21212.69
456.117	21181.97
456.323	20860.44
456.529	19545.64
456.735	20551.2
456.941	20131.36
457.147	19500.59
457.352	18994.74
457.558	18908.72
457.764	19064.37
457.97	18693.69
458.176	18015.81
458.381	18124.35
458.587	17405.52
458.793	17348.17
458.999	16461.4
459.204	17614.41
459.41	17133.14
459.616	16004.71
459.821	15887.97
460.027	16139.87
460.233	15672.93
460.438	14968.43
460.644	15031.92
460.85	14395
461.055	14016.13
461.261	14255.74
461.466	13297.29
461.672	12621.46
461.878	13405.83
462.083	12717.72
462.289	12517.01
462.494	12373.66
462.7	11724.45
462.905	11427.49
463.111	11857.57
463.316	11789.99
463.522	11513.51
463.727	11533.99
463.932	11605.67
464.138	11712.16
464.343	11626.15
464.549	11265.71
464.754	11611.81
464.959	11474.6
465.165	11445.93
465.37	10735.28
465.575	10641.07
465.781	11167.4
465.986	11267.75
466.191	10737.33
466.397	10610.36
466.602	9875.13
466.807	10448.57
467.012	10307.26
467.218	10315.45
467.423	10127.03
467.628	10159.8
467.833	10593.97
468.038	10229.43
468.244	9955.01
468.449	10516.15
468.654	10102.46
468.859	9871.04
469.064	9864.89
469.269	9572.04
469.474	9586.37
469.679	9719.49
469.885	9686.72
470.09	9666.24
470.295	9604.8
470.5	9326.28
470.705	9565.89
470.91	9301.7
471.115	9019.08
471.32	9252.55
471.525	9084.62
471.73	9041.61
471.935	8888.01
472.139	8668.88
472.344	8830.67
472.549	8701.65
472.754	8715.98
472.959	8425.17
473.164	8498.9
473.369	8154.84
473.574	8548.05
473.778	8367.83
473.983	8257.24
474.188	8390.36
474.393	7751.39
474.598	7913.18
474.802	7769.82
475.007	7847.65
475.212	7671.52
475.417	7644.9
475.621	7595.75
475.826	7456.48
476.031	7413.48
476.235	7153.38
476.44	7272.17
476.645	7309.03
476.849	7395.04
477.054	6985.45
477.259	6874.86
477.463	7087.85
477.668	6727.41
477.872	6999.79
478.077	6604.53
478.282	6737.65
478.486	6661.87
478.691	6606.58
478.895	6573.81
479.1	6514.42
479.304	6606.58
479.509	6385.4
479.713	6487.79
479.918	6317.81
480.122	6239.99
480.326	6285.05
480.531	6153.98
480.735	6244.09
480.94	6231.8
481.144	6407.92
481.348	5943.03
481.553	6270.71
481.757	6065.91
481.961	6219.51
482.166	6098.68
482.37	6160.12
482.574	6080.25
482.778	5990.14
482.983	6016.76
483.187	6078.2
483.391	6141.69
483.595	5990.14
483.8	5838.59
484.004	6039.29
484.208	6006.52
484.412	6076.15
484.616	6092.54
484.821	5990.14
485.025	5871.36
485.229	6084.34
485.433	5863.16
485.637	6035.19
485.841	5953.27
486.045	5904.12
486.249	5949.18
486.453	6029.05
486.657	6074.1
486.861	5875.45
487.065	5654.27
487.269	5977.85
487.473	6037.24
487.677	5983.99
487.881	6072.06
488.085	6022.91
488.289	5940.99
488.493	6172.41
488.697	6113.02
488.901	6008.57
489.105	6246.13
489.309	6151.93
489.512	6074.1
489.716	6158.07
489.92	6053.62
490.124	6098.68
490.328	6160.12
490.531	6156.02
490.735	6250.23
490.939	6270.71
491.143	6321.91
491.346	6190.84
491.55	6225.65
491.754	6223.61
491.958	6205.17
492.161	6336.24
492.365	6356.72
492.569	6313.72
492.772	6381.3
492.976	6356.72
493.18	6440.69
493.383	6446.83
493.587	6557.43
493.79	6518.51
493.994	6543.09
494.197	6536.95
494.401	6629.1
494.605	6731.5
494.808	6850.28
495.012	6774.51
495.215	6754.03
495.419	6840.04
495.622	6864.62
495.825	7114.47
496.029	7042.79
496.232	7046.89
496.436	7022.31
496.639	7364.32
496.843	7247.59
497.046	7403.24
497.249	7536.35
497.453	7612.13
497.656	7620.32
497.859	7460.58
498.063	7698.14
498.266	7853.79
498.469	7669.47
498.673	7878.37
498.876	8019.67
499.079	7935.71
499.282	8056.54
499.485	8349.4
499.689	8365.78
499.892	8310.49
500.095	8562.39
500.298	8709.84
500.501	8566.48
500.705	8849.1
500.908	8785.62
501.111	8779.47
501.314	8853.2
501.517	9244.36
501.72	9242.31
501.923	9385.67
502.126	9336.52
502.329	9610.95
502.532	9619.14
502.735	9766.59
502.938	10004.16
503.141	10004.16
503.344	10030.78
503.547	10045.12
503.75	10094.27
503.953	10182.33
504.156	10217.15
504.359	10491.57
504.562	10471.09
504.765	10755.76
504.968	10870.45
505.17	11142.83
505.373	11230.89
505.576	11226.79
505.779	11368.1
505.982	11294.38
506.185	11660.96
506.387	11859.62
506.59	11843.23
506.793	12076.7
506.996	11880.1
507.198	12359.32
507.401	12330.65
507.604	12476.05
507.807	12586.65
508.009	12899.98
508.212	12889.74
508.415	12994.19
508.617	13258.38
508.82	13125.26
509.022	13272.71
509.225	13698.69
509.428	13708.93
509.63	13710.98
509.833	13876.87
510.035	14429.82
510.238	14169.73
510.44	14026.37
510.643	14501.5
510.845	14751.35
511.048	14569.08
511.25	14792.31
511.453	14978.67
511.655	15470.19
511.858	15466.09
512.06	15572.58
512.262	15363.69
512.465	15584.87
512.667	16129.63
512.87	16078.43
513.072	16322.14
513.274	16387.68
513.477	16219.74
513.679	16651.86
513.881	16819.8
514.084	17075.79
514.286	16985.68
514.488	17204.81
514.69	17679.94
514.893	17645.13
515.095	17665.61
515.297	17714.76
515.499	18146.88
515.701	18175.55
515.904	18644.54
516.106	18691.64
516.308	18787.89
516.51	18804.28
516.712	19031.6
516.914	19179.06
517.116	19525.16
517.318	19514.92
517.52	19791.4
517.722	19869.22
517.925	20098.59
518.127	20338.21
518.329	20518.43
518.531	20305.44
518.733	20745.75
518.935	20858.39
519.136	20928.02
519.338	20930.07
519.54	21464.59
519.742	21581.32
519.944	21571.08
520.146	21835.27
520.348	22220.29
520.55	22038.02
520.752	22130.18
520.954	22410.75
521.155	22441.47
521.357	22873.59
521.559	23209.46
521.761	23156.21
521.963	23490.03
522.164	23422.45
522.366	23610.86
522.568	23842.28
522.77	23660.01
522.971	24301.03
523.173	24026.6
523.375	24233.44
523.576	24489.44
523.778	24311.27
523.98	24604.13
524.181	24772.06
524.383	24804.83
524.584	25255.38
524.786	25216.47
524.988	25396.69
525.189	25402.83
525.391	25808.33
525.592	25656.78
525.794	25755.08
525.995	25984.46
526.197	26058.18
526.398	26111.43
526.6	26099.14
526.801	26283.46
527.003	26072.52
527.204	26484.16
527.406	26676.67
527.607	26473.92
527.808	26875.32
528.01	26445.25
528.211	26873.28
528.412	27178.42
528.614	27002.3
528.815	27491.76
529.016	27508.15
529.218	27286.96
529.419	27420.08
529.62	27248.05
529.822	27309.49
530.023	27354.55
530.224	27704.75
530.425	27508.15
530.626	27579.82
530.828	27600.3
531.029	28155.3
531.23	27254.2
531.431	28118.44
531.632	28159.4
531.833	27813.29
532.035	27774.38
532.236	28011.95
532.437	28179.88
532.638	27667.89
532.839	28038.57
533.04	28276.13
533.241	27653.55
533.442	28493.22
533.643	28120.49
533.844	28220.84
534.045	28118.44
534.246	27864.49
534.447	28089.77
534.648	28042.67
534.849	27968.94
535.05	27827.63
535.251	28200.36
535.451	28151.21
535.652	28044.71
535.853	27936.17
536.054	27911.6
536.255	28247.46
536.456	27731.37
536.657	28480.93
536.857	28319.14
537.058	27985.32
537.259	28413.35
537.46	28261.8
537.66	28220.84
537.861	28302.76
538.062	28151.21
538.263	28433.83
538.463	28011.95
538.664	27923.88
538.865	28175.78
539.065	28472.74
539.266	28032.43
539.466	28337.57
539.667	27768.24
539.868	28462.5
540.068	28030.38
540.269	28186.02
540.469	28147.11
540.67	28288.42
540.87	28057
541.071	28149.16
541.271	28226.98
541.472	28294.57
541.672	27948.46
541.873	27921.84
542.073	27372.98
542.274	28198.31
542.474	27798.96
542.675	27932.08
542.875	27930.03
543.075	27878.83
543.276	27909.55
543.476	28044.71
543.676	27430.32
543.877	28077.48
544.077	27887.02
544.277	27952.55
544.478	27702.7
544.678	28075.43
544.878	27639.22
545.078	27966.89
545.279	27985.32
545.479	27614.64
545.679	27823.53
545.879	27936.17
546.079	27952.55
546.28	27620.78
546.48	27620.78
546.68	27858.35
546.88	27622.83
547.08	27891.12
547.28	27645.36
547.48	27387.32
547.68	27631.02
547.88	27264.44
548.081	28136.87
548.281	28011.95
548.481	27674.03
548.681	27995.56
548.881	27735.47
549.081	27637.17
549.28	27452.85
549.48	27616.69
549.68	27655.6
549.88	27798.96
550.08	27438.51
550.28	27489.71
550.48	27418.03
550.68	27567.54
550.88	27407.8
551.08	27614.64
551.279	27420.08
551.479	27667.89
551.679	27471.28
551.879	27458.99
552.079	27514.29
552.278	27262.39
552.478	27594.16
552.678	27477.43
552.878	27733.42
553.077	27164.09
553.277	27243.96
553.477	27610.54
553.676	27334.07
553.876	27295.16
554.076	27092.41
554.275	27405.75
554.475	27262.39
554.674	27528.63
554.874	27278.77
555.074	27016.63
555.273	27200.95
555.473	27436.47
555.672	26924.47
555.872	27127.22
556.071	27125.18
556.271	27377.08
556.47	27084.22
556.67	26932.67
556.869	26709.44
557.068	27123.13
557.268	26891.71
557.467	26926.52
557.667	27141.56
557.866	26879.42
558.065	26760.64
558.265	26609.09
558.464	26598.85
558.663	27198.9
558.863	26355.14
559.062	27041.21
559.261	26551.74
559.461	27071.93
559.66	26508.74
559.859	26377.67
560.058	26209.73
560.258	26502.59
560.457	25976.26
560.656	26389.95
560.855	26224.07
561.054	26103.24
561.253	26113.48
561.453	26162.63
561.652	25970.12
561.851	26414.53
562.05	25845.19
562.249	25877.96
562.448	26246.6
562.647	26121.67
562.846	25904.59
563.045	25943.5
563.244	25408.98
563.443	26217.93
563.642	25529.81
563.841	25648.59
564.04	25662.93
564.239	25941.45
564.438	25597.39
564.637	25304.53
564.836	25001.43
565.035	25107.93
565.234	25077.21
565.432	25040.34
565.631	25130.45
565.83	25314.77
566.029	24794.59
566.228	24626.65
566.427	25126.36
566.625	24851.93
566.824	24444.38
567.023	24964.57
567.222	24569.31
567.42	24858.07
567.619	24778.2
567.818	24681.95
568.016	24493.54
568.215	24487.39
568.414	24376.8
568.612	24847.83
568.811	24104.42
569.01	24403.42
569.208	24042.98
569.407	24317.41
569.605	24200.68
569.804	24245.73
570.002	23743.98
570.201	23901.67
570.4	23836.14
570.598	23807.47
570.797	23676.4
570.995	23635.44
571.193	23318
571.392	23834.09
571.59	23559.66
571.789	23588.33
571.987	23563.76
572.186	23801.32
572.384	23250.42
572.582	23305.71
572.781	23229.94
572.979	23102.96
573.177	23236.08
573.376	23141.88
573.574	23006.71
573.772	22883.83
573.971	22617.6
574.169	22732.28
574.367	22580.73
574.565	22965.75
574.763	22711.8
574.962	22683.13
575.16	22277.63
575.358	22504.96
575.556	22453.76
575.754	22251.01
575.952	22048.26
576.151	22328.83
576.349	22167.04
576.547	22349.31
576.745	22027.78
576.943	22177.28
577.141	21988.87
577.339	21988.87
577.537	21771.79
577.735	21689.87
577.933	21599.76
578.131	21812.74
578.329	21825.03
578.527	21808.65
578.725	21696.01
578.923	21378.58
579.121	21331.47
579.319	21261.84
579.516	21272.08
579.714	21249.55
579.912	21730.83
580.11	20960.79
580.308	21358.1
580.506	20997.65
580.704	20817.43
580.901	20821.53
581.099	21003.8
581.297	20835.86
581.495	20764.18
581.692	20891.16
581.89	20639.26
582.088	20866.58
582.285	20647.45
582.483	20784.66
582.681	20465.18
582.878	20643.35
583.076	20194.85
583.274	20227.62
583.471	20112.93
583.669	20258.34
583.866	20252.19
584.064	20153.89
584.262	19955.24
584.459	20170.27
584.657	20057.64
584.854	20260.38
585.052	19799.59
585.249	19834.41
585.447	19650.09
585.644	19340.85
585.841	19514.92
586.039	19584.55
586.236	19650.09
586.434	19455.53
586.631	19291.69
586.828	19371.57
587.026	19263.02
587.223	19371.57
587.42	19164.72
587.618	19142.19
587.815	19150.39
588.012	19152.43
588.21	18923.06
588.407	19023.41
588.604	18835
588.801	18658.87
588.999	18753.08
589.196	18546.23
589.393	18540.09
589.59	18456.12
589.787	18415.16
589.984	18361.92
590.182	18179.65
590.379	18314.81
590.576	18126.4
590.773	18429.5
590.97	18232.9
591.167	18179.65
591.364	17839.69
591.561	18054.72
591.758	17987.14
591.955	17686.09
592.152	18316.86
592.349	17618.5
592.546	17784.39
592.743	17995.33
592.94	17587.78
593.137	17696.33
593.334	17505.87
593.531	17372.75
593.727	17696.33
593.924	17428.04
594.121	17262.16
594.318	17456.71
594.515	17196.62
594.712	17196.62
594.908	17110.61
595.105	17344.08
595.302	16713.3
595.499	17077.84
595.696	17088.08
595.892	16840.28
596.089	16877.14
596.286	16784.98
596.482	16633.43
596.679	16840.28
596.876	16696.92
597.072	16549.46
597.269	16582.23
597.466	16533.08
597.662	16289.37
597.859	16299.61
598.055	16420.44
598.252	16064.1
598.448	16229.98
598.645	16025.18
598.841	16107.1
599.038	16213.6
599.234	16281.18
599.431	15750.76
599.627	15900.26
599.824	15849.06
600.02	15793.76
600.217	16051.81
600.413	15922.79
600.609	15804
600.806	15677.03
601.002	15732.33
601.198	15560.3
601.395	15271.53
601.591	15627.88
601.787	15548.01
601.984	15281.77
602.18	15650.41
602.376	15169.13
602.572	15369.83
602.769	15312.49
602.965	15156.85
603.161	15076.98
603.357	15089.26
603.553	15060.59
603.75	15027.82
603.946	14823.03
604.142	14939.76
604.338	14845.55
604.534	14755.44
604.73	14800.5
604.926	14665.33
605.122	14976.62
605.318	14722.68
605.514	14616.18
605.71	14552.7
605.906	14397.05
606.102	14438.01
606.298	14550.65
606.494	14487.16
606.69	14534.26
606.886	14585.46
607.082	14208.64
607.278	14276.22
607.474	13938.3
607.67	14253.69
607.866	14020.22
608.062	14345.85
608.257	14034.56
608.453	13860.48
608.649	13854.34
608.845	13862.53
609.041	14087.81
609.236	13962.88
609.432	13829.76
609.628	13690.5
609.824	13895.3
610.019	13760.13
610.215	13725.32
610.411	13733.51
610.606	13897.35
610.802	13831.81
610.998	13532.81
611.193	13629.06
611.389	13704.84
611.584	13538.95
611.78	13495.94
611.976	13321.87
612.171	13698.69
612.367	13571.72
612.562	13293.19
612.758	13411.98
612.953	13282.95
613.149	13387.4
613.344	13016.72
613.539	13696.64
613.735	13229.71
613.93	13305.48
614.126	13072.01
614.321	13278.86
614.517	12986
614.712	13313.67
614.907	13151.88
615.103	13242
615.298	13121.17
615.493	13041.29
615.688	12834.45
615.884	13104.78
616.079	12725.91
616.274	12910.22
616.47	13008.53
616.665	12920.46
616.86	12781.2
617.055	12783.25
617.25	12848.79
617.445	12783.25
617.641	12547.73
617.836	12830.35
618.031	12406.42
618.226	12654.23
618.421	12629.65
618.616	12533.4
618.811	12277.4
619.006	12494.49
619.201	12408.47
619.396	12347.03
619.591	12027.55
619.786	12228.25
619.981	12306.07
620.176	12365.46
620.371	11931.3
620.566	12218.01
620.761	12078.75
620.956	12076.7
621.151	12066.46
621.346	11857.57
621.541	11609.76
621.735	11892.38
621.93	11507.37
622.125	11769.51
622.32	11220.65
622.515	11667.11
622.709	11384.49
622.904	11232.94
623.099	11306.66
623.294	11513.51
623.488	11214.51
623.683	11382.44
623.878	10876.59
624.072	11280.04
624.267	10766
624.462	10954.41
624.656	10919.6
624.851	10938.03
625.046	10593.97
625.24	10589.88
625.435	10499.77
625.629	10622.64
625.824	10563.25
626.018	10356.41
626.213	10190.52
626.407	10426.04
626.602	10258.1
626.796	10278.58
626.991	10331.83
627.185	10067.64
627.38	10161.85
627.574	9944.77
627.768	10053.31
627.963	9823.94
628.157	9725.63
628.352	9881.28
628.546	9563.84
628.74	9897.66
628.935	9574.08
629.129	9746.11
629.323	9574.08
629.517	9422.53
629.712	9391.81
629.906	9524.93
630.1	9248.46
630.294	9215.69
630.489	9113.29
630.683	9420.49
630.877	9105.1
631.071	9031.37
631.265	9029.32
631.459	8906.45
631.653	8851.15
631.848	9062.09
632.042	8933.07
632.236	8949.45
632.43	8756.94
632.624	8832.72
632.818	8505.04
633.012	8677.07
633.206	8507.09
633.4	8627.92
633.594	8701.65
633.788	8556.24
633.982	8343.25
634.176	8416.98
634.369	8326.87
634.563	8316.63
634.757	8197.85
634.951	8349.4
635.145	8079.07
635.339	8203.99
635.533	8058.59
635.726	8009.44
635.92	7892.7
636.114	7982.81
636.308	7909.08
636.501	7771.87
636.695	7950.04
636.889	7653.09
637.083	7718.62
637.276	7700.19
637.47	7612.13
637.664	7554.79
637.857	7685.86
638.051	7722.72
638.244	7622.37
638.438	7341.8
638.632	7452.39
638.825	7200.49
639.019	7263.97
639.212	7169.77
639.406	7259.88
639.599	7212.78
639.793	7325.41
639.986	6997.74
640.18	7059.18
640.373	7184.1
640.567	6856.43
640.76	6936.3
640.954	6901.48
641.147	6878.96
641.34	6911.72
641.534	6792.94
641.727	6846.19
641.92	6764.27
642.114	6686.45
642.307	6797.04
642.5	6704.88
642.694	6495.99
642.887	6504.18
643.08	6756.08
643.273	6477.55
643.467	6434.55
643.66	6387.44
643.853	6391.54
644.046	6432.5
644.239	6563.57
644.432	6469.36
644.626	6285.05
644.819	6334.2
645.012	6196.98
645.205	6174.46
645.398	6221.56
645.591	6141.69
645.784	5975.8
645.977	5908.22
646.17	5967.61
646.363	5883.64
646.556	6072.06
646.749	5871.36
646.942	5973.75
647.135	5848.83
647.328	5705.47
647.521	5781.25
647.714	5738.24
647.907	5785.34
648.099	5818.11
648.292	5771.01
648.485	5660.41
648.678	5662.46
648.871	5541.63
649.064	5598.98
649.256	5486.34
649.449	5394.18
649.642	5515.01
649.835	5406.47
650.027	5394.18
650.22	5418.75
650.413	5299.97
650.605	5254.92
650.798	5306.12
650.991	5302.02
651.183	5228.29
651.376	5162.76
651.568	5189.38
651.761	5256.97
651.954	5023.5
652.146	5205.77
652.339	5019.4
652.531	5064.46
652.724	5166.85
652.916	4898.57
653.109	4960.01
653.301	5007.11
653.494	4962.06
653.686	4796.17
653.879	4941.58
654.071	4859.66
654.263	4761.36
654.456	4810.51
654.648	4763.4
654.84	4620.05
655.033	4636.43
655.225	4591.38
655.417	4683.53
655.61	4761.36
655.802	4747.02
655.994	4691.73
656.186	4581.14
656.379	4554.51
656.571	4499.22
656.763	4583.18
656.955	4511.5
657.148	4497.17
657.34	4409.11
657.532	4470.55
657.724	4345.62
657.916	4427.54
658.108	4345.62
658.3	4362
658.492	4306.71
658.684	4187.93
658.876	4323.09
659.068	4390.67
659.26	4241.17
659.452	4249.36
659.644	4284.18
659.836	4144.92
660.028	4073.24
660.22	4146.97
660.412	4011.8
660.604	4169.49
660.796	4067.1
660.988	4026.14
661.18	4083.48
661.372	3893.02
661.563	4118.29
661.755	3886.87
661.947	3870.49
662.139	3921.69
662.331	4001.56
662.522	3786.52
662.714	3880.73
662.906	3745.56
663.097	3864.35
663.289	3745.56
663.481	3733.28
663.673	3821.34
663.864	3788.57
664.056	3696.41
664.247	3761.95
664.439	3739.42
664.631	3753.76
664.822	3616.54
665.014	3508
665.205	3589.92
665.397	3600.16
665.588	3671.84
665.78	3571.49
665.971	3491.62
666.163	3614.49
666.354	3632.93
666.546	3426.08
666.737	3446.56
666.929	3426.08
667.12	3508
667.311	3477.28
667.503	3639.07
667.694	3534.62
667.885	3434.27
668.077	3389.22
668.268	3378.98
668.459	3409.7
668.651	3233.57
668.842	3335.97
669.033	3188.52
669.224	3258.15
669.416	3401.51
669.607	3350.31
669.798	3376.93
669.989	3338.02
670.18	3209
670.371	3229.48
670.563	3155.75
670.754	3295.01
670.945	3182.37
671.136	3260.2
671.327	3143.46
671.518	3172.13
671.709	3204.9
671.9	3198.76
672.091	3200.8
672.282	3190.56
672.473	3155.75
672.664	3168.04
672.855	3182.37
673.046	3157.8
673.237	3221.28
673.428	3067.69
673.619	3069.73
673.809	3004.2
674	3043.11
674.191	3041.06
674.382	3065.64
674.573	3061.54
674.764	3084.07
674.954	2950.95
675.145	2946.86
675.336	3020.58
675.527	3043.11
675.717	2946.86
675.908	2996.01
676.099	3079.97
676.289	2987.82
676.48	3028.78
676.671	2959.14
676.861	2856.75
677.052	2922.28
677.243	2926.38
677.433	2852.65
677.624	2963.24
677.814	3020.58
678.005	2879.27
678.195	3065.64
678.386	2907.94
678.576	2918.18
678.767	2864.94
678.957	2918.18
679.148	2854.7
679.338	2944.81
679.529	2942.76
679.719	2842.41
679.909	2934.57
680.1	2875.18
680.29	2813.74
680.481	2946.86
680.671	2875.18
680.861	2950.95
681.052	2967.34
681.242	2844.46
681.432	2826.03
681.622	2961.19
681.813	2856.75
682.003	2891.56
682.193	2862.89
682.383	2903.85
682.573	2873.13
682.764	2746.16
682.954	2848.55
683.144	2922.28
683.334	2836.27
683.524	2762.54
683.714	2893.61
683.904	2862.89
684.094	2860.84
684.284	2811.69
684.474	2854.7
684.664	2846.51
684.854	2729.77
685.044	2842.41
685.234	2844.46
685.424	2893.61
685.614	2756.4
685.804	2711.34
685.994	2789.16
686.184	2795.31
686.374	2727.72
686.564	2844.46
686.753	2705.2
686.943	2633.52
687.133	2623.28
687.323	2703.15
687.513	2766.64
687.702	2637.61
687.892	2656.04
688.082	2633.52
688.272	2682.67
688.461	2654
688.651	2629.42
688.841	2549.55
689.03	2664.24
689.22	2592.56
689.41	2670.38
689.599	2553.65
689.789	2508.59
689.979	2451.25
690.168	2510.64
690.358	2516.78
690.547	2549.55
690.737	2475.82
690.926	2455.34
691.116	2348.85
691.305	2459.44
691.495	2426.67
691.684	2486.06
691.874	2453.3
692.063	2363.19
692.252	2447.15
692.442	2361.14
692.631	2283.31
692.82	2385.71
693.01	2209.59
693.199	2250.55
693.388	2316.08
693.578	2232.12
693.767	2303.79
693.956	2377.52
694.146	2191.16
694.335	2328.37
694.524	2309.94
694.713	2291.51
694.902	2211.64
695.092	2291.51
695.281	2172.72
695.47	2199.35
695.659	2246.45
695.848	2232.12
696.037	2273.07
696.226	2203.44
696.415	2137.91
696.604	2232.12
696.793	2199.35
696.982	2168.63
697.171	2142
697.36	2191.16
697.549	2117.43
697.738	1990.45
697.927	2088.76
698.116	2283.31
698.305	2131.76
698.494	2205.49
698.683	2074.42
698.872	2146.1
699.061	2094.9
699.25	2142
699.438	2107.19
699.627	2055.99
699.816	2185.01
700.005	2055.99
700.193	2025.27
700.382	2043.7
700.571	2180.92
700.76	2090.81
700.948	2058.04
701.137	2135.86
701.326	2164.53
701.514	2041.65
701.703	2078.52
701.892	2033.46
702.08	2115.38
702.269	1951.54
702.457	2090.81
702.646	2008.89
702.834	2019.13
703.023	2096.95
703.212	2021.17
703.4	2049.85
703.589	2002.74
703.777	2019.13
703.965	2002.74
704.154	2023.22
704.342	1994.55
704.531	2053.94
704.719	1976.12
704.907	2107.19
705.096	2000.69
705.284	2088.76
705.472	1945.4
705.661	2125.62
705.849	2137.91
706.037	1965.88
706.226	1851.19
706.414	2000.69
706.602	1959.74
706.79	2172.72
706.979	1902.39
707.167	2004.79
707.355	1996.6
707.543	2133.81
707.731	2064.18
707.919	1990.45
708.107	1951.54
708.296	2074.42
708.484	1978.17
708.672	1992.5
708.86	2019.13
709.048	2053.94
709.236	2066.23
709.424	2066.23
709.612	1904.44
709.8	1992.5
709.988	1984.31
710.176	2123.57
710.364	1988.41
710.551	2053.94
710.739	2002.74
710.927	2017.08
711.115	1912.63
711.303	2105.14
711.491	1951.54
711.679	1926.97
711.866	2035.51
712.054	2043.7
712.242	1961.78
712.43	2000.69
712.617	2029.37
712.805	1978.17
712.993	2051.89
713.181	2017.08
713.368	2012.98
713.556	2101.05
713.744	2023.22
713.931	2119.48
714.119	2019.13
714.306	2019.13
714.494	2144.05
714.682	1990.45
714.869	2084.66
715.057	2000.69
715.244	2037.56
715.432	2049.85
715.619	2082.61
715.807	2027.32
715.994	2078.52
716.182	2090.81
716.369	1943.35
716.556	2033.46
716.744	2023.22
716.931	1931.06
717.119	2105.14
717.306	2170.68
717.493	2074.42
717.681	2101.05
717.868	2043.7
718.055	2119.48
718.242	1914.68
718.43	2150.2
718.617	2041.65
718.804	1992.5
718.991	1976.12
719.179	2002.74
719.366	2160.44
719.553	2082.61
719.74	2131.76
719.927	2082.61
720.114	2084.66
720.301	2082.61
720.488	2156.34
720.676	2135.86
720.863	2019.13
721.05	2148.15
721.237	2152.24
721.424	2094.9
721.611	2156.34
721.798	2096.95
721.985	2117.43
722.172	2127.67
722.358	2072.37
722.545	2082.61
722.732	2107.19
722.919	2197.3
723.106	2156.34
723.293	2152.24
723.48	2162.48
723.667	2133.81
723.853	2109.24
724.04	2137.91
724.227	2166.58
724.414	2215.73
724.6	2246.45
724.787	2197.3
724.974	2242.36
725.161	2119.48
725.347	2107.19
725.534	2160.44
725.72	2254.64
725.907	2158.39
726.094	2201.4
726.28	2189.11
726.467	2139.96
726.653	2144.05
726.84	2170.68
727.027	2230.07
727.213	2150.2
727.4	2201.4
727.586	2137.91
727.773	2180.92
727.959	2162.48
728.145	2287.41
728.332	2211.64
728.518	2275.12
728.705	2246.45
728.891	2281.27
729.077	2066.23
729.264	2352.95
729.45	2262.83
729.636	2221.88
729.823	2346.8
730.009	2324.27
730.195	2258.74
730.382	2320.18
730.568	2154.29
730.754	2379.57
730.94	2238.26
731.126	2246.45
731.313	2369.33
731.499	2201.4
731.685	2275.12
731.871	2320.18
732.057	2281.27
732.243	2277.17
732.429	2258.74
732.615	2455.34
732.801	2307.89
732.987	2172.72
733.173	2217.78
733.359	2252.59
733.545	2217.78
733.731	2357.04
733.917	2338.61
734.103	2258.74
734.289	2254.64
734.475	2295.6
734.661	2381.62
734.847	2428.72
735.033	2369.33
735.219	2295.6
735.404	2404.14
735.59	2383.66
735.776	2199.35
735.962	2299.7
736.148	2334.51
736.333	2281.27
736.519	2281.27
736.705	2369.33
736.89	2209.59
737.076	2262.83
737.262	2197.3
737.447	2412.34
737.633	2258.74
737.819	2406.19
738.004	2428.72
738.19	2291.51
738.375	2279.22
738.561	2303.79
738.747	2242.36
738.932	2258.74
739.118	2385.71
739.303	2352.95
739.489	2230.07
739.674	2201.4
739.859	2277.17
740.045	2213.68
740.23	2197.3
740.416	2238.26
740.601	2295.6
740.786	2213.68
740.972	2172.72
741.157	2299.7
741.342	2371.38
741.528	2182.96
741.713	2287.41
741.898	2326.32
742.084	2238.26
742.269	2205.49
742.454	2199.35
742.639	2209.59
742.824	2178.87
743.01	2254.64
743.195	2232.12
743.38	2142
743.565	2223.92
743.75	2207.54
743.935	2066.23
744.12	2197.3
744.305	2131.76
744.49	2103.09
744.675	2164.53
744.86	2099
745.045	2160.44
745.23	2074.42
745.415	1937.21
745.6	2115.38
745.785	2088.76
745.97	2125.62
746.155	2164.53
746.34	2088.76
746.525	2041.65
746.71	2094.9
746.895	1984.31
747.079	2094.9
747.264	2076.47
747.449	1935.16
747.634	1982.26
747.819	1945.4
748.003	2049.85
748.188	1912.63
748.373	1974.07
748.557	1892.15
748.742	1929.02
748.927	1976.12
749.111	1929.02
749.296	1861.43
749.481	1775.42
749.665	1904.44
749.85	1900.34
750.034	1853.24
750.219	1879.86
750.404	1814.33
750.588	1836.86
750.773	1736.51
750.957	1845.05
751.141	1675.07
751.326	1675.07
751.51	1795.9
751.695	1722.17
751.879	1791.8
752.064	1756.99
752.248	1611.58
752.432	1738.55
752.617	1734.46
752.801	1656.64
752.985	1607.48
753.17	1650.49
753.354	1736.51
753.538	1568.57
753.722	1582.91
753.907	1666.88
754.091	1658.68
754.275	1560.38
754.459	1574.72
754.643	1533.76
754.828	1513.28
755.012	1574.72
755.196	1523.52
755.38	1533.76
755.564	1476.41
755.748	1541.95
755.932	1513.28
756.116	1462.08
756.3	1498.94
756.484	1429.31
756.668	1478.46
756.852	1371.97
757.036	1498.94
757.22	1406.78
757.404	1396.54
757.588	1472.32
757.772	1361.73
757.956	1324.87
758.14	1273.67
758.323	1304.39
758.507	1371.97
758.691	1281.86
758.875	1382.21
759.059	1331.01
759.242	1312.58
759.426	1163.08
759.61	1240.9
759.794	1290.05
759.977	1306.43
760.161	1304.39
760.345	1296.19
760.528	1316.67
760.712	1165.12
760.895	1249.09
761.079	1255.23
761.263	1238.85
761.446	1238.85
761.63	1249.09
761.813	1199.94
761.997	1191.75
762.18	1197.89
762.364	1216.32
762.547	1181.51
762.731	1183.56
762.914	1144.64
763.098	1093.44
763.281	1099.59
763.464	1132.36
763.648	1042.25
763.831	1189.7
764.015	1173.32
764.198	1087.3
764.381	1103.68
764.564	1085.25
764.748	1095.49
764.931	1120.07
765.114	1072.96
765.297	1167.17
765.481	1021.77
765.664	1085.25
765.847	1134.4
766.03	1175.36
766.213	968.52
766.397	1075.01
766.58	1036.1
766.763	1013.57
766.946	1060.68
767.129	1009.48
767.312	999.24
767.495	1017.67
767.678	1058.63
767.861	1027.91
768.044	986.95
768.227	941.89
768.41	1109.83
768.593	960.33
768.776	962.37
768.959	1075.01
769.142	1105.73
769.324	911.18
769.507	939.85
769.69	898.89
769.873	1007.43
770.056	1064.77
770.239	941.89
770.421	954.18
770.604	1029.96
770.787	980.81
770.97	880.46
771.152	880.46
771.335	993.09
771.518	878.41
771.7	950.09
771.883	833.35
772.066	886.6
772.248	905.03
772.431	1011.53
772.613	804.68
772.796	874.31
772.978	831.3
773.161	870.22
773.343	847.69
773.526	804.68
773.708	823.11
773.891	782.15
774.073	784.2
774.256	798.54
774.438	829.26
774.621	829.26
774.803	827.21
774.985	921.42
775.168	829.26
775.35	730.95
775.532	841.54
775.715	821.06
775.897	726.86
776.079	751.43
776.261	825.16
776.444	812.87
776.626	716.62
776.808	739.15
776.99	673.61
777.173	724.81
777.355	722.76
777.537	640.84
777.719	739.15
777.901	730.95
778.083	702.28
778.265	659.28
778.447	718.67
778.629	724.81
778.811	708.43
778.993	685.9
779.175	741.19
779.357	669.52
779.539	651.08
779.721	620.36
779.903	683.85
780.085	628.56
780.267	665.42
780.449	632.65
780.631	589.64
780.812	583.5
780.994	497.49
781.176	616.27
781.358	681.8
781.54	534.35
781.721	624.46
781.903	538.45
782.085	622.41
782.267	550.73
782.448	548.68
782.63	558.92
782.812	558.92
782.993	554.83
783.175	567.12
783.357	524.11
783.538	538.45
783.72	581.45
783.901	468.81
784.083	509.77
784.264	503.63
784.446	493.39
784.627	487.25
784.809	485.2
784.99	522.06
785.172	522.06
785.353	522.06
785.535	526.16
785.716	487.25
785.897	493.39
786.079	462.67
786.26	436.05
786.441	511.82
786.623	405.33
786.804	474.96
786.985	485.2
787.167	489.29
787.348	505.68
787.529	485.2
787.71	485.2
787.891	415.57
788.073	446.29
788.254	382.8
788.435	544.59
788.616	468.81
788.797	407.38
788.978	419.66
789.159	341.84
789.34	477.01
789.522	386.9
789.703	382.8
789.884	386.9
790.065	448.33
790.246	464.72
790.427	337.74
790.607	436.05
790.788	403.28
790.969	429.9
791.15	438.09
791.331	403.28
791.512	304.98
791.693	311.12
791.874	362.32
792.054	466.77
792.235	415.57
792.416	360.27
792.597	378.7
792.778	370.51
792.958	413.52
793.139	323.41
793.32	378.7
793.5	339.79
793.681	501.58
793.862	296.78
794.042	286.54
794.223	284.5
794.404	333.65
794.584	296.78
794.765	296.78
794.945	315.22
795.126	309.07
795.306	321.36
795.487	343.89
795.667	300.88
795.848	345.94
796.028	345.94
796.209	345.94
796.389	304.98
796.57	364.37
796.75	354.13
796.93	298.83
797.111	304.98
797.291	315.22
797.471	284.5
797.652	255.83
797.832	272.21
798.012	356.18
798.192	241.49
798.373	249.68
798.553	309.07
798.733	206.67
798.913	255.83
799.093	282.45
799.274	309.07
799.454	307.02
799.634	182.1
799.814	319.31
799.994	243.54
800.174	296.78
800.354	231.25
800.534	186.19
800.714	233.3
800.894	266.07
801.074	259.92
801.254	241.49
801.434	280.4
801.614	257.87
801.794	243.54
801.974	788.3
802.154	214.87
802.334	327.5
802.514	264.02
802.693	214.87
802.873	235.35
803.053	321.36
803.233	231.25
803.413	245.59
803.592	173.91
803.772	216.91
803.952	190.29
804.131	227.15
804.311	251.73
804.491	245.59
804.67	227.15
804.85	231.25
805.03	229.2
805.209	175.95
805.389	231.25
805.568	194.39
805.748	227.15
805.928	233.3
806.107	186.19
806.287	266.07
806.466	208.72
806.646	192.34
806.825	233.3
807.004	223.06
807.184	264.02
807.363	159.57
807.543	190.29
807.722	149.33
807.901	206.67
808.081	243.54
808.26	98.13
808.439	167.76
808.619	235.35
808.798	218.96
808.977	149.33
809.156	153.43
809.336	251.73
809.515	186.19
809.694	126.8
809.873	218.96
810.052	243.54
810.231	223.06
810.411	184.15
810.59	194.39
810.769	161.62
810.948	149.33
811.127	173.91
811.306	132.95
811.485	61.27
811.664	223.06
811.843	126.8
812.022	118.61
812.201	104.28
812.38	214.87
812.559	141.14
812.737	216.91
812.916	141.14
813.095	124.76
813.274	184.15
813.453	94.04
813.632	233.3
813.811	178
813.989	112.47
814.168	139.09
814.347	145.24
814.526	139.09
814.704	155.47
814.883	128.85
815.062	128.85
815.24	149.33
815.419	190.29
815.598	190.29
815.776	116.56
815.955	184.15
816.133	77.65
816.312	81.75
816.49	116.56
816.669	130.9
816.847	137.04
817.026	204.63
817.204	91.99
817.383	186.19
817.561	96.08
817.74	147.28
817.918	149.33
818.097	163.67
818.275	59.22
818.453	190.29
818.632	116.56
818.81	227.15
818.988	178
819.167	67.41
819.345	173.91
819.523	108.37
819.701	128.85
819.879	167.76
820.058	147.28
820.236	149.33
820.414	141.14
820.592	178
820.77	198.48
820.948	135
821.127	110.42
821.305	112.47
821.483	132.95
821.661	128.85
821.839	100.18
822.017	110.42
822.195	81.75
822.373	137.04
822.551	65.36
822.729	130.9
822.907	83.8
823.085	102.23
823.262	118.61
823.44	87.89
823.618	110.42
823.796	114.52
823.974	112.47
824.152	59.22
824.329	22.36
824.507	184.15
824.685	87.89
824.863	126.8
825.04	151.38
825.218	118.61
825.396	141.14
825.574	42.84
825.751	75.6
825.929	198.48
826.107	-2.22
826.284	137.04
826.462	65.36
826.639	157.52
826.817	63.32
826.994	108.37
827.172	75.6
827.349	190.29
827.527	83.8
827.704	112.47
827.882	126.8
828.059	75.6
828.237	87.89
828.414	145.24
828.591	102.23
828.769	91.99
828.946	65.36
829.124	110.42
829.301	83.8
829.478	143.19
829.655	100.18
829.833	79.7
830.01	94.04
830.187	85.84
830.364	165.71
830.542	94.04
830.719	110.42
830.896	81.75
831.073	5.97
831.25	75.6
831.427	120.66
831.604	46.93
831.782	147.28
831.959	128.85
832.136	63.32
832.313	75.6
832.49	75.6
832.667	34.64
832.844	53.08
833.021	53.08
833.198	112.47
833.374	53.08
833.551	61.27
833.728	137.04
833.905	59.22
834.082	46.93
834.259	108.37
834.436	163.67
834.612	20.31
834.789	77.65
834.966	124.76
835.143	143.19
835.319	118.61
835.496	79.7
835.673	104.28
835.85	71.51
836.026	96.08
836.203	141.14
836.38	32.6
836.556	118.61
836.733	75.6
836.909	126.8
837.086	30.55
837.262	26.45
837.439	75.6
837.616	85.84
837.792	85.84
837.968	104.28
838.145	63.32
838.321	59.22
838.498	91.99
838.674	128.85
838.851	34.64
839.027	-0.17
839.203	42.84
839.38	51.03
839.556	28.5
839.732	71.51
839.909	1.88
840.085	83.8
840.261	71.51
840.437	91.99
840.614	51.03
840.79	91.99
840.966	48.98
841.142	71.51
841.318	22.36
841.494	94.04
841.671	63.32
841.847	51.03
842.023	26.45
842.199	79.7
842.375	83.8
842.551	-30.89
842.727	94.04
842.903	51.03
843.079	-59.56
843.255	100.18
843.431	75.6
843.607	38.74
843.783	20.31
843.959	36.69
844.134	55.12
844.31	116.56
844.486	22.36
844.662	20.31
844.838	34.64
845.013	73.56
845.189	26.45
845.365	42.84
845.541	5.97
845.716	10.07
845.892	106.32
846.068	59.22
846.244	-41.13
846.419	38.74
846.595	-2.22
846.77	67.41
846.946	42.84
847.122	59.22
847.297	-4.27
847.473	59.22
847.648	-32.94
847.824	5.97
847.999	28.5
848.175	46.93
848.35	26.45
848.526	3.93
848.701	34.64
848.876	-14.51
849.052	75.6
849.227	-18.6
849.403	22.36
849.578	59.22
849.753	81.75
849.929	51.03
850.104	55.12
850.279	59.22
850.454	12.12
850.63	-16.55
850.805	-2.22
850.98	42.84
851.155	83.8
851.33	100.18
851.505	20.31
851.681	28.5
851.856	34.64
852.031	85.84
852.206	20.31
852.381	-37.03
852.556	61.27
852.731	53.08
852.906	61.27
853.081	53.08
853.256	53.08
853.431	1.88
853.606	46.93
853.781	46.93
853.956	30.55
854.131	12.12
854.305	18.26
854.48	96.08
854.655	71.51
854.83	79.7
855.005	-6.31
855.18	79.7
855.354	-18.6
855.529	3.93
855.704	-63.66
855.879	42.84
856.053	55.12
856.228	51.03
856.403	30.55
856.577	96.08
856.752	22.36
856.926	20.31
857.101	46.93
857.276	22.36
857.45	77.65
857.625	130.9
857.799	-6.31
857.974	63.32
858.148	34.64
858.323	3.93
858.497	-4.27
858.672	40.79
858.846	-12.46
859.02	61.27
859.195	-22.7
859.369	1.88
859.543	53.08
859.718	51.03
859.892	53.08
860.066	28.5
860.241	20.31
860.415	1.88
860.589	53.08
860.763	34.64
860.938	51.03
861.112	149.33
861.286	75.6
861.46	51.03
861.634	-4.27
861.808	71.51
861.982	18.26
862.157	5.97
862.331	34.64
862.505	40.79
862.679	-61.61
862.853	46.93
863.027	-18.6
863.201	67.41
863.375	55.12
863.549	75.6
863.722	30.55
863.896	32.6
864.07	69.46
864.244	10.07
864.418	-2.22
864.592	-84.14
864.766	-22.7
864.939	-22.7
865.113	-22.7
865.287	42.84
865.461	20.31
865.634	67.41
865.808	-12.46
865.982	-26.79
866.156	-14.51
866.329	67.41
866.503	36.69
866.676	77.65
866.85	14.17
867.024	-6.31
867.197	-4.27
867.371	12.12
867.544	83.8
867.718	-63.66
867.891	124.76
868.065	100.18
868.238	-8.36
868.412	71.51
868.585	16.21
868.759	44.88
868.932	-14.51
869.105	-12.46
869.279	-32.94
869.452	10.07
869.625	26.45
869.799	18.26
869.972	-102.57
870.145	-37.03
870.319	38.74
870.492	100.18
870.665	-75.95
870.838	51.03
871.011	-14.51
871.185	34.64
871.358	-4.27
871.531	63.32
871.704	1.88
871.877	38.74
872.05	-71.85
872.223	-39.08
872.396	-51.37
872.569	34.64
872.742	63.32
872.915	28.5
873.088	42.84
873.261	-24.75
873.434	26.45
873.607	20.31
873.78	-30.89
873.953	18.26
874.126	34.64
874.299	5.97
874.471	32.6
874.644	28.5
874.817	1.88
874.99	-10.41
875.163	5.97
875.335	-6.31
875.508	22.36
875.681	10.07
875.853	-73.9
876.026	-20.65
876.199	87.89
876.371	1.88
876.544	-39.08
876.717	-6.31
876.889	-10.41
877.062	-0.17
877.234	22.36
877.407	-6.31
877.579	20.31
877.752	51.03
877.924	3.93
878.097	-0.17
878.269	-4.27
878.442	69.46
878.614	40.79
878.786	-4.27
878.959	-90.28
879.131	75.6
879.303	-47.27
879.476	36.69
879.648	34.64
879.82	44.88
879.993	-30.89
880.165	30.55
880.337	3.93
880.509	12.12
880.681	-65.71
880.854	34.64
881.026	-39.08
881.198	59.22
881.37	42.84
881.542	26.45
881.714	20.31
881.886	3.93
882.058	36.69
882.23	-32.94
882.402	-32.94
882.574	20.31
882.746	20.31
882.918	18.26
883.09	-22.7
883.262	5.97
883.434	32.6
883.606	-43.18
883.778	-110.76
883.95	-37.03
884.122	-32.94
884.293	96.08
884.465	34.64
884.637	28.5
884.809	42.84
884.98	-30.89
885.152	51.03
885.324	-6.31
885.496	22.36
885.667	-88.23
885.839	38.74
886.011	77.65
886.182	14.17
886.354	61.27
886.525	28.5
886.697	-59.56
886.869	-2.22
887.04	-30.89
887.212	-47.27
887.383	14.17
887.555	28.5
887.726	1.88
887.897	20.31
888.069	-71.85
888.24	112.47
888.412	87.89
888.583	36.69
888.754	5.97
888.926	-30.89
889.097	24.4
889.268	-22.7
889.44	-30.89
889.611	-100.52
889.782	18.26
889.953	-121
890.125	-16.55
890.296	14.17
890.467	24.4
890.638	-57.51
890.809	44.88
890.98	-28.84
891.151	83.8
891.323	59.22
891.494	18.26
891.665	34.64
891.836	-6.31
892.007	-28.84
892.178	26.45
892.349	10.07
892.52	10.07
892.691	-0.17
892.862	20.31
893.032	-43.18
893.203	51.03
893.374	44.88
893.545	-4.27
893.716	-30.89
893.887	5.97
894.057	22.36
894.228	18.26
894.399	38.74
894.57	-2.22
894.74	28.5
894.911	61.27
895.082	44.88
895.253	-53.42
895.423	10.07
895.594	79.7
895.764	16.21
895.935	-24.75
896.106	-16.55
896.276	-10.41
896.447	-0.17
896.617	-14.51
896.788	-14.51
896.958	53.08
897.129	-22.7
897.299	-39.08
897.47	14.17
897.64	55.12
897.81	-22.7
897.981	28.5
898.151	-69.8
898.322	5.97
898.492	10.07
898.662	5.97
898.832	-57.51
899.003	-39.08
899.173	40.79
899.343	26.45
899.513	-71.85
