Data from USB4F104151__271__14-46-10-038.txt Node

Date: Thu Mar 13 14:46:10 EDT 2025
User: louis
Spectrometer: USB4F10415
Trigger mode: 4
Integration Time (sec): 2.000000E-2
Scans to average: 1
Electric dark correction enabled: true
Nonlinearity correction enabled: false
Boxcar width: 0
XAxis mode: Wavelengths
Number of Pixels in Spectrum: 3648
>>>>>Begin Spectral Data<<<<<
178.204	-88.06
178.424	-88.06
178.644	-88.06
178.864	-137.21
179.084	-110.59
179.304	49.15
179.524	0
179.744	-57.34
179.964	-6.14
180.184	26.62
180.404	16.38
180.624	4.1
180.844	26.62
181.064	-73.73
181.283	10.24
181.503	-55.3
181.723	59.39
181.943	-65.53
182.163	108.54
182.383	55.3
182.602	32.77
182.822	49.15
183.042	69.63
183.262	-6.14
183.482	-6.14
183.701	6.14
183.921	-4.1
184.141	-12.29
184.361	32.77
184.58	57.34
184.8	0
185.02	40.96
185.239	14.34
185.459	24.58
185.679	4.1
185.898	-2.05
186.118	0
186.338	-24.58
186.557	22.53
186.777	-22.53
186.997	12.29
187.216	24.58
187.436	81.92
187.655	-28.67
187.875	49.15
188.095	2.05
188.314	-28.67
188.534	53.25
188.753	6.14
188.973	36.86
189.192	47.1
189.412	75.77
189.631	59.39
189.851	53.25
190.07	86.01
190.29	-38.91
190.509	32.77
190.729	-83.97
190.948	88.06
191.168	86.01
191.387	10.24
191.607	16.38
191.826	24.58
192.045	-18.43
192.265	0
192.484	8.19
192.704	16.38
192.923	4.1
193.142	-8.19
193.362	18.43
193.581	73.73
193.8	26.62
194.02	116.73
194.239	-26.62
194.458	53.25
194.678	-20.48
194.897	-4.1
195.116	75.77
195.335	-12.29
195.555	69.63
195.774	45.06
195.993	16.38
196.212	51.2
196.432	65.54
196.651	36.86
196.87	24.58
197.089	79.87
197.308	2.05
197.528	120.83
197.747	-69.63
197.966	-32.77
198.185	8.19
198.404	65.54
198.623	32.77
198.842	43.01
199.062	0
199.281	114.69
199.5	32.77
199.719	10.24
199.938	-6.14
200.157	18.43
200.376	-8.19
200.595	43.01
200.814	16.38
201.033	16.38
201.252	20.48
201.471	36.86
201.69	8.19
201.909	53.25
202.128	69.63
202.347	49.15
202.566	-47.1
202.785	-24.58
203.004	-22.53
203.223	159.74
203.442	-36.86
203.661	-12.29
203.879	2.05
204.098	38.91
204.317	96.25
204.536	49.15
204.755	49.15
204.974	81.92
205.193	34.82
205.411	153.6
205.63	4.1
205.849	-8.19
206.068	38.91
206.287	-22.53
206.505	57.34
206.724	-16.38
206.943	26.62
207.162	36.86
207.381	79.87
207.599	18.43
207.818	-10.24
208.037	-32.77
208.255	-53.25
208.474	-12.29
208.693	-12.29
208.911	81.92
209.13	53.25
209.349	77.82
209.567	135.17
209.786	-22.53
210.005	8.19
210.223	47.1
210.442	-32.77
210.661	18.43
210.879	-12.29
211.098	36.86
211.316	61.44
211.535	57.34
211.753	32.77
211.972	26.62
212.191	47.1
212.409	53.25
212.628	0
212.846	-6.14
213.065	51.2
213.283	147.45
213.502	-47.1
213.72	102.4
213.938	-24.58
214.157	43.01
214.375	43.01
214.594	36.86
214.812	69.63
215.031	32.77
215.249	69.63
215.467	-20.48
215.686	43.01
215.904	92.16
216.122	-14.34
216.341	114.69
216.559	16.38
216.778	-92.16
216.996	24.58
217.214	8.19
217.432	-38.91
217.651	-16.38
217.869	16.38
218.087	-26.62
218.306	16.38
218.524	40.96
218.742	-47.1
218.96	28.67
219.179	16.38
219.397	65.54
219.615	75.77
219.833	20.48
220.051	0
220.27	59.39
220.488	51.2
220.706	32.77
220.924	0
221.142	10.24
221.36	-28.67
221.578	18.43
221.796	12.29
222.015	18.43
222.233	-2.05
222.451	102.4
222.669	-6.14
222.887	28.67
223.105	67.58
223.323	-36.86
223.541	-59.39
223.759	24.58
223.977	-49.15
224.195	75.77
224.413	90.11
224.631	40.96
224.849	45.06
225.067	96.25
225.285	12.29
225.503	49.15
225.721	30.72
225.939	34.82
226.157	61.44
226.375	108.54
226.592	16.38
226.81	-20.48
227.028	49.15
227.246	10.24
227.464	0
227.682	40.96
227.9	-12.29
228.117	26.62
228.335	-12.29
228.553	45.06
228.771	16.38
228.989	49.15
229.206	32.77
229.424	-14.34
229.642	-14.34
229.86	10.24
230.077	16.38
230.295	-4.1
230.513	32.77
230.731	67.58
230.948	40.96
231.166	67.58
231.384	-16.38
231.601	20.48
231.819	6.14
232.037	98.3
232.254	-2.05
232.472	53.25
232.689	45.06
232.907	57.34
233.125	0
233.342	16.38
233.56	4.1
233.777	34.82
233.995	16.38
234.213	90.11
234.43	69.63
234.648	51.2
234.865	49.15
235.083	-6.14
235.3	43.01
235.518	94.21
235.735	114.69
235.953	57.34
236.17	-8.19
236.388	0
236.605	-51.2
236.822	8.19
237.04	53.25
237.257	10.24
237.475	49.15
237.692	22.53
237.909	65.54
238.127	49.15
238.344	-12.29
238.562	49.15
238.779	-22.53
238.996	-16.38
239.214	36.86
239.431	40.96
239.648	12.29
239.865	57.34
240.083	-12.29
240.3	-14.34
240.517	110.59
240.735	-30.72
240.952	-4.1
241.169	49.15
241.386	43.01
241.603	40.96
241.821	59.39
242.038	36.86
242.255	59.39
242.472	20.48
242.689	10.24
242.907	65.54
243.124	-53.25
243.341	24.58
243.558	43.01
243.775	-12.29
243.992	38.91
244.209	81.92
244.426	75.77
244.643	71.68
244.86	-30.72
245.078	63.49
245.295	34.82
245.512	36.86
245.729	-20.48
245.946	16.38
246.163	73.73
246.38	92.16
246.597	-22.53
246.814	73.73
247.031	36.86
247.248	108.54
247.464	49.15
247.681	26.62
247.898	34.82
248.115	16.38
248.332	-32.77
248.549	106.49
248.766	16.38
248.983	49.15
249.2	57.34
249.417	131.07
249.633	65.54
249.85	49.15
250.067	49.15
250.284	40.96
250.501	28.67
250.717	28.67
250.934	40.96
251.151	40.96
251.368	-16.38
251.585	24.58
251.801	67.58
252.018	49.15
252.235	2.05
252.451	-6.14
252.668	-22.53
252.885	40.96
253.102	-14.34
253.318	24.58
253.535	-8.19
253.752	43.01
253.968	90.11
254.185	10.24
254.401	-36.86
254.618	57.34
254.835	16.38
255.051	114.69
255.268	102.4
255.484	43.01
255.701	12.29
255.917	83.97
256.134	18.43
256.351	-14.34
256.567	-38.91
256.784	53.25
257	-32.77
257.217	83.97
257.433	83.97
257.65	-16.38
257.866	47.1
258.082	-67.58
258.299	-38.91
258.515	43.01
258.732	24.58
258.948	38.91
259.165	59.39
259.381	40.96
259.597	26.62
259.814	32.77
260.03	-4.1
260.246	26.62
260.463	45.06
260.679	26.62
260.895	20.48
261.112	-20.48
261.328	-61.44
261.544	-22.53
261.761	45.06
261.977	-22.53
262.193	-20.48
262.409	32.77
262.626	77.82
262.842	0
263.058	81.92
263.274	16.38
263.49	28.67
263.707	45.06
263.923	-65.53
264.139	10.24
264.355	8.19
264.571	57.34
264.787	131.07
265.004	90.11
265.22	-12.29
265.436	-16.38
265.652	43.01
265.868	34.82
266.084	-14.34
266.3	-22.53
266.516	26.62
266.732	51.2
266.948	2.05
267.164	-6.14
267.38	57.34
267.596	18.43
267.812	45.06
268.028	67.58
268.244	-24.58
268.46	100.35
268.676	40.96
268.892	151.55
269.108	69.63
269.324	43.01
269.54	-24.58
269.756	65.54
269.972	-43.01
270.188	30.72
270.403	-53.25
270.619	36.86
270.835	24.58
271.051	141.31
271.267	0
271.483	53.25
271.698	-49.15
271.914	45.06
272.13	18.43
272.346	-20.48
272.562	-32.77
272.777	22.53
272.993	-59.39
273.209	32.77
273.425	77.82
273.64	-40.96
273.856	32.77
274.072	32.77
274.287	12.29
274.503	26.62
274.719	94.21
274.934	61.44
275.15	53.25
275.366	53.25
275.581	32.77
275.797	49.15
276.012	8.19
276.228	114.69
276.444	57.34
276.659	36.86
276.875	-67.58
277.09	-73.73
277.306	57.34
277.521	26.62
277.737	34.82
277.952	53.25
278.168	32.77
278.383	65.54
278.599	108.54
278.814	81.92
279.03	38.91
279.245	94.21
279.461	59.39
279.676	129.02
279.892	16.38
280.107	34.82
280.322	8.19
280.538	102.4
280.753	59.39
280.969	86.01
281.184	-40.96
281.399	34.82
281.615	-12.29
281.83	12.29
282.045	-57.34
282.26	-59.39
282.476	49.15
282.691	16.38
282.906	8.19
283.122	10.24
283.337	-16.38
283.552	36.86
283.767	-4.1
283.983	96.25
284.198	59.39
284.413	32.77
284.628	28.67
284.843	-8.19
285.058	65.54
285.274	45.06
285.489	-2.05
285.704	20.48
285.919	24.58
286.134	24.58
286.349	0
286.564	36.86
286.779	30.72
286.995	14.34
287.21	8.19
287.425	-20.48
287.64	-36.86
287.855	75.77
288.07	26.62
288.285	75.77
288.5	67.58
288.715	126.97
288.93	57.34
289.145	0
289.36	59.39
289.575	94.21
289.79	102.4
290.004	-6.14
290.219	28.67
290.434	12.29
290.649	-16.38
290.864	81.92
291.079	12.29
291.294	36.86
291.509	24.58
291.724	40.96
291.938	2.05
292.153	8.19
292.368	-4.1
292.583	12.29
292.798	26.62
293.012	-55.3
293.227	40.96
293.442	8.19
293.657	73.73
293.871	26.62
294.086	30.72
294.301	90.11
294.516	57.34
294.73	59.39
294.945	-16.38
295.16	51.2
295.374	57.34
295.589	8.19
295.804	0
296.018	28.67
296.233	94.21
296.447	8.19
296.662	43.01
296.877	114.69
297.091	36.86
297.306	-16.38
297.52	40.96
297.735	49.15
297.949	18.43
298.164	53.25
298.378	12.29
298.593	57.34
298.807	-8.19
299.022	118.78
299.236	77.82
299.451	40.96
299.665	51.2
299.88	12.29
300.094	43.01
300.309	67.58
300.523	0
300.737	2.05
300.952	34.82
301.166	63.49
301.381	-24.58
301.595	24.58
301.809	24.58
302.024	86.01
302.238	114.69
302.452	16.38
302.667	0
302.881	90.11
303.095	16.38
303.309	34.82
303.524	47.1
303.738	86.01
303.952	53.25
304.166	16.38
304.381	-4.1
304.595	106.49
304.809	28.67
305.023	79.87
305.237	-34.82
305.452	73.73
305.666	0
305.88	28.67
306.094	-8.19
306.308	81.92
306.522	65.54
306.736	92.16
306.95	49.15
307.164	-12.29
307.379	0
307.593	51.2
307.807	-47.1
308.021	67.58
308.235	16.38
308.449	40.96
308.663	-4.1
308.877	57.34
309.091	8.19
309.305	34.82
309.519	30.72
309.733	61.44
309.947	-18.43
310.161	88.06
310.374	16.38
310.588	57.34
310.802	-53.25
311.016	16.38
311.23	8.19
311.444	8.19
311.658	32.77
311.872	10.24
312.085	81.92
312.299	65.54
312.513	51.2
312.727	-14.34
312.941	-8.19
313.154	32.77
313.368	75.77
313.582	32.77
313.796	53.25
314.009	-16.38
314.223	92.16
314.437	65.54
314.651	34.82
314.864	-14.34
315.078	18.43
315.292	18.43
315.505	-22.53
315.719	24.58
315.933	51.2
316.146	-24.58
316.36	26.62
316.573	92.16
316.787	92.16
317.001	77.82
317.214	-8.19
317.428	174.08
317.641	141.31
317.855	-12.29
318.068	22.53
318.282	98.3
318.495	73.73
318.709	77.82
318.922	26.62
319.136	-14.34
319.349	65.54
319.563	20.48
319.776	-16.38
319.99	-4.1
320.203	-10.24
320.417	40.96
320.63	6.14
320.843	149.5
321.057	38.91
321.27	6.14
321.483	28.67
321.697	18.43
321.91	32.77
322.124	14.34
322.337	-6.14
322.55	24.58
322.763	16.38
322.977	24.58
323.19	-30.72
323.403	18.43
323.617	22.53
323.83	16.38
324.043	36.86
324.256	34.82
324.469	-16.38
324.683	6.14
324.896	-16.38
325.109	102.4
325.322	-8.19
325.535	69.63
325.748	75.77
325.962	10.24
326.175	40.96
326.388	53.25
326.601	65.54
326.814	79.87
327.027	45.06
327.24	94.21
327.453	32.77
327.666	-24.58
327.879	49.15
328.092	-24.58
328.305	-6.14
328.518	26.62
328.731	92.16
328.944	47.1
329.157	49.15
329.37	63.49
329.583	-22.53
329.796	59.39
330.009	0
330.222	12.29
330.435	49.15
330.648	26.62
330.861	67.58
331.073	2.05
331.286	34.82
331.499	47.1
331.712	-8.19
331.925	73.73
332.138	16.38
332.35	57.34
332.563	75.77
332.776	90.11
332.989	0
333.202	20.48
333.414	22.53
333.627	55.3
333.84	55.3
334.053	-24.58
334.265	6.14
334.478	16.38
334.691	65.54
334.903	2.05
335.116	30.72
335.329	71.68
335.541	32.77
335.754	126.97
335.966	63.49
336.179	65.54
336.392	49.15
336.604	-4.1
336.817	69.63
337.029	45.06
337.242	16.38
337.454	65.54
337.667	6.14
337.88	90.11
338.092	59.39
338.305	8.19
338.517	57.34
338.729	18.43
338.942	49.15
339.154	-20.48
339.367	-2.05
339.579	55.3
339.792	-28.67
340.004	-6.14
340.217	49.15
340.429	32.77
340.641	40.96
340.854	-24.58
341.066	2.05
341.278	36.86
341.491	126.97
341.703	24.58
341.915	-22.53
342.128	77.82
342.34	24.58
342.552	49.15
342.764	92.16
342.977	83.97
343.189	-10.24
343.401	24.58
343.613	-24.58
343.826	79.87
344.038	4.1
344.25	63.49
344.462	59.39
344.674	102.4
344.886	2.05
345.099	75.77
345.311	40.96
345.523	86.01
345.735	-6.14
345.947	92.16
346.159	38.91
346.371	47.1
346.583	0
346.795	139.26
347.007	-6.14
347.219	24.58
347.431	16.38
347.643	49.15
347.855	-47.1
348.067	57.34
348.279	-2.05
348.491	38.91
348.703	24.58
348.915	59.39
349.127	28.67
349.339	2.05
349.551	36.86
349.763	75.77
349.975	36.86
350.187	57.34
350.399	69.63
350.61	57.34
350.822	0
351.034	106.49
351.246	102.4
351.458	20.48
351.669	57.34
351.881	8.19
352.093	73.73
352.305	120.83
352.517	81.92
352.728	81.92
352.94	10.24
353.152	32.77
353.363	59.39
353.575	57.34
353.787	92.16
353.999	30.72
354.21	83.97
354.422	81.92
354.633	49.15
354.845	83.97
355.057	51.2
355.268	51.2
355.48	75.77
355.692	77.82
355.903	98.3
356.115	16.38
356.326	-30.72
356.538	94.21
356.749	59.39
356.961	63.49
357.172	45.06
357.384	-24.58
357.595	163.84
357.807	75.77
358.018	-24.58
358.23	57.34
358.441	98.3
358.653	57.34
358.864	20.48
359.075	57.34
359.287	-4.1
359.498	106.49
359.709	-20.48
359.921	61.44
360.132	92.16
360.344	133.12
360.555	-24.58
360.766	18.43
360.977	57.34
361.189	24.58
361.4	16.38
361.611	16.38
361.823	106.49
362.034	-24.58
362.245	8.19
362.456	0
362.667	36.86
362.879	45.06
363.09	14.34
363.301	73.73
363.512	167.93
363.723	22.53
363.935	40.96
364.146	69.63
364.357	67.58
364.568	104.45
364.779	-4.1
364.99	75.77
365.201	40.96
365.412	57.34
365.623	-8.19
365.834	34.82
366.045	10.24
366.256	90.11
366.467	43.01
366.678	26.62
366.889	45.06
367.1	24.58
367.311	67.58
367.522	71.68
367.733	-10.24
367.944	59.39
368.155	45.06
368.366	10.24
368.577	110.59
368.788	57.34
368.999	-43.01
369.209	112.64
369.42	86.01
369.631	118.78
369.842	8.19
370.053	75.77
370.264	118.78
370.474	73.73
370.685	16.38
370.896	43.01
371.107	83.97
371.317	-20.48
371.528	-24.58
371.739	114.69
371.95	114.69
372.16	16.38
372.371	-30.72
372.582	24.58
372.792	24.58
373.003	24.58
373.214	38.91
373.424	77.82
373.635	16.38
373.846	106.49
374.056	16.38
374.267	34.82
374.477	49.15
374.688	81.92
374.898	67.58
375.109	81.92
375.319	90.11
375.53	65.54
375.74	73.73
375.951	51.2
376.161	83.97
376.372	34.82
376.582	16.38
376.793	-28.67
377.003	57.34
377.214	49.15
377.424	45.06
377.635	10.24
377.845	83.97
378.055	49.15
378.266	16.38
378.476	-28.67
378.686	53.25
378.897	38.91
379.107	114.69
379.317	79.87
379.528	45.06
379.738	30.72
379.948	57.34
380.158	-16.38
380.369	26.62
380.579	12.29
380.789	8.19
380.999	51.2
381.21	12.29
381.42	51.2
381.63	79.87
381.84	40.96
382.05	59.39
382.261	32.77
382.471	65.54
382.681	-10.24
382.891	40.96
383.101	116.73
383.311	-26.62
383.521	94.21
383.731	-4.1
383.941	47.1
384.151	88.06
384.361	-6.14
384.571	59.39
384.781	108.54
384.991	176.13
385.201	116.73
385.411	110.59
385.621	157.69
385.831	137.21
386.041	106.49
386.251	98.3
386.461	20.48
386.671	36.86
386.881	90.11
387.091	22.53
387.301	16.38
387.511	49.15
387.72	86.01
387.93	77.82
388.14	49.15
388.35	-38.91
388.56	94.21
388.769	57.34
388.979	57.34
389.189	-6.14
389.399	24.58
389.609	65.54
389.818	100.35
390.028	43.01
390.238	147.45
390.447	120.83
390.657	90.11
390.867	10.24
391.076	-8.19
391.286	106.49
391.496	118.78
391.705	-4.1
391.915	139.26
392.125	149.5
392.334	159.74
392.544	104.45
392.753	4.1
392.963	22.53
393.172	94.21
393.382	45.06
393.591	55.3
393.801	61.44
394.01	77.82
394.22	100.35
394.429	43.01
394.639	22.53
394.848	67.58
395.058	83.97
395.267	94.21
395.477	90.11
395.686	59.39
395.895	94.21
396.105	147.45
396.314	59.39
396.524	57.34
396.733	63.49
396.942	116.73
397.152	77.82
397.361	147.45
397.57	59.39
397.78	59.39
397.989	92.16
398.198	133.12
398.407	28.67
398.617	69.63
398.826	83.97
399.035	133.12
399.244	65.54
399.453	18.43
399.663	94.21
399.872	100.35
400.081	71.68
400.29	147.45
400.499	81.92
400.708	81.92
400.917	32.77
401.127	81.92
401.336	114.69
401.545	190.46
401.754	186.37
401.963	180.22
402.172	59.39
402.381	51.2
402.59	102.4
402.799	116.73
403.008	96.25
403.217	73.73
403.426	102.4
403.635	73.73
403.844	149.5
404.053	133.12
404.262	180.22
404.471	83.97
404.68	137.21
404.888	147.45
405.097	120.83
405.306	147.45
405.515	149.5
405.724	114.69
405.933	106.49
406.142	131.07
406.35	180.22
406.559	139.26
406.768	161.79
406.977	225.28
407.185	131.07
407.394	215.04
407.603	114.69
407.812	174.08
408.02	196.61
408.229	174.08
408.438	178.17
408.646	190.46
408.855	206.84
409.064	270.33
409.272	206.84
409.481	204.8
409.69	249.85
409.898	237.56
410.107	204.8
410.315	249.85
410.524	247.8
410.733	237.56
410.941	303.1
411.15	403.45
411.358	233.47
411.567	417.79
411.775	342.01
411.984	325.63
412.192	366.59
412.401	401.4
412.609	438.27
412.818	460.79
413.026	428.03
413.234	372.73
413.443	452.6
413.651	444.41
413.86	483.32
414.068	532.47
414.276	524.28
414.485	462.84
414.693	557.05
414.901	729.08
415.11	651.25
415.318	602.1
415.526	581.62
415.734	606.2
415.943	645.11
416.151	686.07
416.359	659.45
416.567	737.27
416.776	743.41
416.984	763.89
417.192	870.39
417.4	905.2
417.608	835.57
417.817	862.19
418.025	925.68
418.233	1015.79
418.441	931.83
418.649	1042.42
418.857	1112.05
419.065	1163.25
419.273	1081.33
419.481	1208.3
419.689	1210.35
419.897	1212.4
420.105	1302.51
420.313	1255.4
420.521	1376.23
420.729	1337.32
420.937	1445.87
421.145	1511.4
421.353	1662.95
421.561	1609.7
421.769	1638.37
421.977	1691.62
422.185	1703.91
422.393	1904.61
422.601	1949.67
422.809	1925.09
423.017	2058.21
423.224	2082.78
423.432	2213.85
423.64	2115.55
423.848	2287.58
424.056	2172.89
424.263	2293.73
424.471	2361.31
424.679	2600.92
424.887	2660.31
425.094	2639.83
425.302	2641.88
425.51	2727.89
425.718	2906.07
425.925	2904.02
426.133	3055.57
426.341	3170.26
426.548	3284.94
426.756	3254.22
426.964	3440.59
427.171	3629
427.379	3731.4
427.586	3684.3
427.794	3856.33
428.001	3960.77
428.209	4018.11
428.417	4151.23
428.624	4374.46
428.832	4300.73
429.039	4394.94
429.247	4405.18
429.454	4730.81
429.662	5089.2
429.869	4636.6
430.076	4888.5
430.284	4886.45
430.491	5242.8
430.699	5365.68
430.906	5531.56
431.114	5463.98
431.321	5851.05
431.528	5955.49
431.736	6121.38
431.943	6506.4
432.15	6373.28
432.358	6301.6
432.565	6698.91
432.772	6737.82
432.979	7014.29
433.187	7024.53
433.394	7223.19
433.601	7683.98
433.808	7679.88
434.016	7563.15
434.223	7993.22
434.43	8411.01
434.637	8429.44
434.844	8810.36
435.052	9019.25
435.259	8765.31
435.466	8961.91
435.673	8929.14
435.88	9447.28
436.087	9944.94
436.294	10057.57
436.501	9633.64
436.708	9922.41
436.915	10403.68
437.122	10864.47
437.329	10731.36
437.537	10800.99
437.743	11280.21
437.95	11167.57
438.157	11642.7
438.364	12242.76
438.571	12105.54
438.778	12193.61
438.985	13334.32
439.192	12734.27
439.399	13141.82
439.606	12982.07
439.813	13692.72
440.02	14378.79
440.227	14497.57
440.433	14036.78
440.64	14421.8
440.847	14477.09
441.054	15167.26
441.261	15712.02
441.467	15714.06
441.674	15724.3
441.881	16649.99
442.088	16576.26
442.294	16699.14
442.501	16711.42
442.708	17211.13
442.914	17581.81
443.121	18310.89
443.328	18177.77
443.534	19398.36
443.741	18890.46
443.948	18487.01
444.154	19914.45
444.361	19924.69
444.568	19795.67
444.774	19875.54
444.981	20174.54
445.187	20715.2
445.394	21577.4
445.6	21409.47
445.807	23795.35
446.013	22437.55
446.22	23049.89
446.426	23580.31
446.633	23940.75
446.839	24950.4
447.046	23815.83
447.252	24958.6
447.459	24923.78
447.665	24985.22
447.871	26277.49
448.078	26990.18
448.284	25908.85
448.491	26951.27
448.697	28122.71
448.903	28118.61
449.11	28382.8
449.316	28055.12
449.522	28503.63
449.728	29257.28
449.935	29351.49
450.141	29623.87
450.347	30236.21
450.553	29527.61
450.76	29720.12
450.966	30662.19
451.172	30379.57
451.378	31184.42
451.584	30590.51
451.791	31333.92
451.997	31088.17
452.203	31714.84
452.409	31823.39
452.615	31729.18
452.821	30803.5
453.027	30604.85
453.233	31909.4
453.44	30606.89
453.646	31307.3
453.852	31125.03
454.058	31925.78
454.264	30686.76
454.47	31708.7
454.676	30846.51
454.882	31985.18
455.088	29191.75
455.294	29306.43
455.5	30115.38
455.705	30428.72
455.911	29048.39
456.117	28837.45
456.323	28444.24
456.529	26947.17
456.735	27977.3
456.941	27080.29
457.147	26877.54
457.352	26340.97
457.558	25833.08
457.764	26015.35
457.97	25308.8
458.176	25036.42
458.381	25042.56
458.587	23785.11
458.793	23606.94
458.999	22406.83
459.204	24082.06
459.41	23459.48
459.616	22224.56
459.821	22130.35
460.027	21978.8
460.233	21624.5
460.438	20514.5
460.644	20700.87
460.85	19611.35
461.055	19498.71
461.261	19726.03
461.466	18030.32
461.672	17549.04
461.878	18726.63
462.083	17563.38
462.289	17104.64
462.494	17051.39
462.7	16367.37
462.905	15707.92
463.111	16461.57
463.316	16383.75
463.522	16228.1
463.727	16273.16
463.932	16416.52
464.138	16033.55
464.343	16011.02
464.549	15533.84
464.754	15918.86
464.959	16264.97
465.165	16015.12
465.37	15261.46
465.575	14870.3
465.781	15597.33
465.986	15501.08
466.191	14810.91
466.397	14647.07
466.602	13879.08
466.807	14540.58
467.012	14610.21
467.218	14253.86
467.423	14266.15
467.628	14585.63
467.833	14812.96
468.038	14565.15
468.244	14217
468.449	14716.7
468.654	14018.35
468.859	14169.9
469.064	13924.14
469.269	13385.52
469.474	13461.3
469.679	13666.1
469.885	13455.15
470.09	13631.28
470.295	13545.27
470.5	13111.1
470.705	13156.15
470.91	12994.36
471.115	13055.8
471.32	13246.26
471.525	13252.41
471.73	12767.04
471.935	12549.95
472.139	12353.35
472.344	12508.99
472.549	12126.02
472.754	12308.29
472.959	12037.96
473.164	11472.72
473.369	11591.5
473.574	12001.1
473.778	12105.54
473.983	11779.92
474.188	11824.97
474.393	11079.51
474.598	11124.57
474.802	11130.71
475.007	11155.29
475.212	11032.41
475.417	10551.13
475.621	10719.07
475.826	10547.04
476.031	10596.19
476.235	10202.98
476.44	10512.22
476.645	10309.47
476.849	10241.89
477.054	10141.54
477.259	9936.74
477.463	10137.45
477.668	9723.76
477.872	9822.06
478.077	9920.36
478.282	9447.28
478.486	9512.81
478.691	9363.31
478.895	9473.9
479.1	9437.04
479.304	9174.9
479.509	9011.06
479.713	9387.89
479.918	9006.97
480.122	8863.61
480.326	9002.87
480.531	8882.04
480.735	8759.16
480.94	8839.03
481.144	8982.39
481.348	8796.03
481.553	8855.42
481.757	8445.82
481.961	8490.88
482.166	8828.79
482.37	8720.25
482.574	8472.45
482.778	8488.83
482.983	8628.09
483.187	8732.54
483.391	8726.39
483.595	8572.8
483.8	8478.59
484.004	8789.88
484.208	8638.33
484.412	8572.8
484.616	8728.44
484.821	8585.08
485.025	8488.83
485.229	8753.02
485.433	8472.45
485.637	8619.9
485.841	8499.07
486.045	8607.61
486.249	8693.63
486.453	8458.11
486.657	8576.89
486.861	8716.15
487.065	8339.33
487.269	8605.56
487.473	8324.99
487.677	8773.5
487.881	8734.59
488.085	8556.41
488.289	8734.59
488.493	8710.01
488.697	8875.9
488.901	8748.92
489.105	8580.99
489.309	8869.75
489.512	8974.2
489.716	8869.75
489.92	8714.11
490.124	8750.97
490.328	8961.91
490.531	8765.31
490.735	9029.49
490.939	8918.9
491.143	8951.67
491.346	8949.62
491.55	9240.43
491.754	8976.25
491.958	9361.27
492.161	9062.26
492.365	9217.91
492.569	9185.14
492.772	9346.93
492.976	9408.37
493.18	9490.29
493.383	9473.9
493.587	9510.77
493.79	9797.48
493.994	9611.12
494.197	9801.58
494.401	9727.85
494.605	9826.15
494.808	9949.03
495.012	10098.53
495.215	10053.48
495.419	10202.98
495.622	10309.47
495.825	10501.98
496.029	10403.68
496.232	10712.92
496.436	10598.24
496.639	10698.59
496.843	10872.67
497.046	11120.47
497.249	11079.51
497.453	11087.7
497.656	11229.01
497.859	11206.48
498.063	11390.8
498.266	11704.14
498.469	11454.29
498.673	11763.53
498.876	11759.44
499.079	12076.87
499.282	12148.55
499.485	12298.05
499.689	12599.1
499.892	12816.19
500.095	12820.28
500.298	12947.26
500.501	13010.75
500.705	13467.44
500.908	13680.43
501.111	13784.88
501.314	13455.15
501.517	13770.54
501.72	13850.41
501.923	14126.89
502.126	14389.03
502.329	14585.63
502.532	14749.47
502.735	14747.42
502.938	15132.44
503.141	15218.46
503.344	15384.34
503.547	15619.86
503.75	15687.44
503.953	16039.69
504.156	16123.66
504.359	16201.48
504.562	16654.08
504.765	16840.45
504.968	17080.06
505.17	17084.16
505.373	17237.75
505.576	17583.86
505.779	17706.74
505.982	18073.32
506.185	18020.08
506.387	18312.94
506.59	18501.35
506.793	18861.79
506.996	18661.09
507.198	19531.48
507.401	19205.85
507.604	19547.86
507.807	20000.46
508.009	19738.32
508.212	20182.73
508.415	20637.38
508.617	20637.38
508.82	20741.83
509.022	20803.27
509.225	21268.16
509.428	21814.96
509.63	21784.24
509.833	21788.34
510.035	22290.09
510.238	22298.28
510.44	22525.61
510.643	22937.25
510.845	23105.18
511.048	22900.39
511.25	23752.34
511.453	24016.53
511.655	24669.83
511.858	24460.94
512.06	24602.25
512.262	24964.74
512.465	24860.29
512.667	25400.96
512.87	25724.54
513.072	25732.73
513.274	26355.31
513.477	26566.25
513.679	26605.16
513.881	27174.5
514.084	27074.15
514.286	27373.15
514.488	27485.79
514.69	28264.02
514.893	28458.57
515.095	28673.61
515.297	28810.82
515.499	29171.27
515.701	29357.63
515.904	29834.81
516.106	30035.51
516.308	30029.37
516.51	30512.69
516.712	30209.59
516.914	31039.01
517.116	31628.83
517.318	31604.25
517.52	31702.56
517.722	32321.04
517.925	32411.15
518.127	32892.43
518.329	32708.11
518.531	32919.05
518.733	33285.64
518.935	33707.52
519.136	33549.82
519.338	34565.62
519.54	34721.26
519.742	34668.01
519.944	35020.27
520.146	35857.88
520.348	35900.89
520.55	35960.28
520.752	36087.26
520.954	36810.19
521.155	36474.32
521.357	37078.47
521.559	37129.67
521.761	37428.68
521.963	37860.8
522.164	37625.28
522.366	38153.66
522.568	38280.63
522.77	38725.04
522.971	39171.5
523.173	39527.84
523.375	39867.81
523.576	39445.93
523.778	39669.15
523.98	40312.22
524.181	40113.56
524.383	40250.78
524.584	40625.56
524.786	40707.47
524.988	40469.91
525.189	41080.21
525.391	41522.57
525.592	42012.03
525.794	41923.97
525.995	41954.69
526.197	42163.58
526.398	42167.68
526.6	42276.22
526.801	42241.4
527.003	43050.35
527.204	42265.98
527.406	43588.97
527.607	42921.33
527.808	43599.21
528.01	42773.88
528.211	43416.94
528.412	44275.04
528.614	43982.18
528.815	43857.25
529.016	43953.51
529.218	43857.25
529.419	44481.88
529.62	44266.84
529.822	44064.1
530.023	44471.64
530.224	44295.52
530.425	43937.12
530.626	44397.91
530.828	44631.38
531.029	45399.37
531.23	44825.94
531.431	44881.24
531.632	44938.58
531.833	45024.59
532.035	45165.9
532.236	45018.45
532.437	45155.66
532.638	45006.16
532.839	45311.31
533.04	45368.65
533.241	44877.14
533.442	45833.54
533.643	45321.55
533.844	45667.66
534.045	45649.22
534.246	45438.28
534.447	45864.26
534.648	45296.97
534.849	45684.04
535.05	45638.98
535.251	45499.72
535.451	45616.46
535.652	45884.74
535.853	45333.84
536.054	45913.41
536.255	45800.77
536.456	45696.33
536.657	45864.26
536.857	45454.67
537.058	45331.79
537.259	45882.69
537.46	45968.71
537.66	45440.33
537.861	45772.1
538.062	45471.05
538.263	45745.48
538.463	45391.18
538.664	45602.12
538.865	45675.85
539.065	46087.49
539.266	45217.1
539.466	45792.58
539.667	45157.71
539.868	46122.3
540.068	45759.81
540.269	45473.1
540.469	45718.85
540.67	45548.87
540.87	45933.89
541.071	45507.91
541.271	46028.1
541.472	45847.88
541.672	45536.59
541.873	45774.15
542.073	45266.25
542.274	45856.07
542.474	45614.41
542.675	45167.95
542.875	45714.76
543.075	45290.83
543.276	45210.96
543.476	45962.56
543.676	45290.83
543.877	45401.42
544.077	45522.25
544.277	45446.47
544.478	45200.72
544.678	45587.78
544.878	45686.09
545.078	45471.05
545.279	45446.47
545.479	45567.3
545.679	45851.97
545.879	45258.06
546.079	45714.76
546.28	45249.87
546.48	45151.57
546.68	45759.81
546.88	45395.28
547.08	45471.05
547.28	45407.56
547.48	45030.74
547.68	45223.25
547.88	45135.18
548.081	45729.09
548.281	45135.18
548.481	45045.07
548.681	46021.95
548.881	45356.36
549.081	45421.9
549.28	45356.36
549.48	45716.81
549.68	45376.84
549.88	45905.22
550.08	45004.11
550.28	45399.37
550.48	45040.98
550.68	45710.66
550.88	45012.31
551.08	45673.8
551.279	45145.42
551.479	44834.13
551.679	45497.67
551.879	44871
552.079	45405.52
552.278	44932.43
552.478	45036.88
552.678	45180.24
552.878	45667.66
553.077	45014.35
553.277	44701.01
553.477	45337.93
553.676	45348.17
553.876	44942.67
554.076	45331.79
554.275	44977.49
554.475	44485.98
554.674	44963.15
554.874	45170
555.074	44662.1
555.273	44807.51
555.473	45299.02
555.672	44473.69
555.872	44608.86
556.071	45167.95
556.271	44825.94
556.47	44299.61
556.67	44039.52
556.869	44068.19
557.068	44821.84
557.268	44559.7
557.467	44311.9
557.667	44717.4
557.866	44176.73
558.065	44629.33
558.265	44141.92
558.464	44201.31
558.663	44229.98
558.863	43890.02
559.062	44598.62
559.261	43593.06
559.461	44336.48
559.66	43705.7
559.859	44103.01
560.058	43646.31
560.258	43879.78
560.457	43507.05
560.656	43789.67
560.855	43726.18
561.054	43562.34
561.253	43736.42
561.453	43398.51
561.652	43785.57
561.851	43826.53
562.05	43558.25
562.249	42747.25
562.448	43795.81
562.647	43390.31
562.846	43101.55
563.045	43398.51
563.244	42636.66
563.443	43283.82
563.642	42591.61
563.841	43181.42
564.04	42691.96
564.239	42804.59
564.438	42546.55
564.637	43101.55
564.836	42956.14
565.035	42112.38
565.234	42458.49
565.432	42419.58
565.631	42231.16
565.83	42569.08
566.029	42261.88
566.228	42165.63
566.427	42052.99
566.625	42069.37
566.824	41442.7
567.023	41833.86
567.222	41514.37
567.42	42120.57
567.619	41631.11
567.818	41573.77
568.016	41629.06
568.215	42018.17
568.414	41391.5
568.612	41809.28
568.811	41014.67
569.01	41250.19
569.208	40926.61
569.407	41330.06
569.605	40605.08
569.804	41373.06
570.002	40807.83
570.201	40635.8
570.4	40390.04
570.598	40668.56
570.797	40342.94
570.995	40381.85
571.193	40091.04
571.392	40310.17
571.59	40058.27
571.789	40013.21
571.987	39945.63
572.186	40160.67
572.384	39505.32
572.582	40291.74
572.781	39876
572.979	39224.75
573.177	39562.66
573.376	39908.77
573.574	39359.91
573.772	39644.58
573.971	38991.28
574.169	39040.43
574.367	38761.9
574.565	39093.68
574.763	38843.82
574.962	38630.83
575.16	38329.78
575.358	38722.99
575.556	37864.89
575.754	38860.21
575.952	38069.69
576.151	38561.2
576.349	37914.05
576.547	37707.2
576.745	37899.71
576.943	37793.22
577.141	38030.78
577.339	37815.74
577.537	37518.79
577.735	37653.95
577.933	37178.82
578.131	37256.65
578.329	37137.87
578.527	37381.57
578.725	37334.47
578.923	37158.35
579.121	36998.6
579.319	36713.94
579.516	37105.1
579.714	36679.12
579.912	36443.6
580.11	36572.63
580.308	36447.7
580.506	36521.43
580.704	35569.12
580.901	36236.76
581.099	36179.42
581.297	35759.58
581.495	35798.49
581.692	36001.24
581.89	35493.35
582.088	36023.77
582.285	35636.7
582.483	35380.71
582.681	35130.86
582.878	35048.94
583.076	34805.23
583.274	35354.08
583.471	34184.69
583.669	34749.93
583.866	34600.43
584.064	34874.86
584.262	34328.05
584.459	34711.02
584.657	34440.69
584.854	34070.01
585.052	34063.86
585.249	34188.79
585.447	34452.98
585.644	33951.23
585.841	33744.38
586.039	34065.91
586.236	33267.2
586.434	33639.93
586.631	33535.49
586.828	33363.46
587.026	33435.14
587.223	33400.32
587.42	33216.01
587.618	33291.78
587.815	32628.24
588.012	33117.7
588.21	32540.18
588.407	32925.19
588.604	32697.87
588.801	32290.32
588.999	32271.89
589.196	32515.6
589.393	32384.53
589.59	32333.33
589.787	31696.41
589.984	31798.81
590.182	31634.97
590.379	31884.83
590.576	31594.01
590.773	31612.45
590.97	31520.29
591.167	31651.36
591.364	30787.11
591.561	31551.01
591.758	30737.96
591.955	30977.58
592.152	30963.24
592.349	31194.66
592.546	30780.97
592.743	30588.46
592.94	30512.69
593.137	30795.31
593.334	30694.96
593.531	30193.2
593.727	30649.9
593.924	30428.72
594.121	30217.78
594.318	30250.55
594.515	29761.08
594.712	30019.13
594.908	29640.25
595.105	29806.14
595.302	29386.3
595.499	29400.64
595.696	29660.73
595.892	29019.72
596.089	29273.67
596.286	29546.05
596.482	28948.04
596.679	29150.79
596.876	29161.03
597.072	28823.11
597.269	28487.25
597.466	28612.17
597.662	28614.22
597.859	28620.36
598.055	28517.96
598.252	28229.2
598.448	28345.94
598.645	28321.36
598.841	28032.6
599.038	28407.37
599.234	28128.85
599.431	28014.16
599.627	27817.56
599.824	27631.19
600.02	27354.72
600.217	27498.08
600.413	27371.1
600.609	27356.77
600.806	27567.71
601.002	27594.33
601.198	27098.72
601.395	26877.54
601.591	27403.87
601.787	27055.72
601.984	26650.22
602.18	26930.79
602.376	26490.48
602.572	26629.74
602.769	26670.7
602.965	26263.15
603.161	26347.12
603.357	26340.97
603.553	26001.01
603.75	26103.41
603.946	25794.17
604.142	25861.75
604.338	25929.33
604.534	25773.69
604.73	25699.96
604.926	25355.9
605.122	25820.79
605.318	25509.5
605.514	25357.95
605.71	25452.16
605.906	25126.53
606.102	25173.63
606.298	25116.29
606.494	25226.88
606.69	25251.45
606.886	25050.75
607.082	24503.95
607.278	24993.41
607.474	24344.2
607.67	24850.05
607.866	24342.16
608.062	24911.49
608.257	24262.29
608.453	24280.72
608.649	24391.31
608.845	23961.23
609.041	24008.34
609.236	23932.56
609.432	24082.06
609.628	23682.71
609.824	23879.32
610.019	23844.5
610.215	24080.02
610.411	24153.74
610.606	23725.72
610.802	23838.36
610.998	23492.25
611.193	23731.86
611.389	23373.47
611.584	23369.37
611.78	23176.86
611.976	23213.73
612.171	23469.72
612.367	23299.74
612.562	23494.3
612.758	23021.22
612.953	22867.62
613.149	23213.73
613.344	23074.46
613.539	23125.66
613.735	22914.72
613.93	23099.04
614.126	22822.56
614.321	22996.64
614.517	22560.42
614.712	22793.89
614.907	22697.64
615.103	22853.28
615.298	22023.86
615.493	22625.96
615.688	22308.52
615.884	22476.46
616.079	22087.34
616.274	22533.8
616.47	22386.35
616.665	22642.34
616.86	22361.77
617.055	22011.57
617.25	22120.11
617.445	22218.41
617.641	21513.91
617.836	21790.39
618.031	21649.08
618.226	21685.94
618.421	21731
618.616	22003.38
618.811	21518.01
619.006	21667.51
619.201	21137.09
619.396	21378.75
619.591	20895.43
619.786	21233.34
619.981	20975.3
620.176	20922.05
620.371	20844.23
620.566	20743.88
620.761	20702.92
620.956	20692.68
621.151	20375.24
621.346	20651.72
621.541	20041.42
621.735	20381.39
621.93	19906.26
622.125	20072.14
622.32	19666.64
622.515	19898.06
622.709	19584.73
622.904	19527.38
623.099	19488.47
623.294	19556.05
623.488	19234.52
623.683	19189.47
623.878	19021.53
624.072	19089.12
624.267	19218.14
624.462	18953.95
624.656	18710.24
624.851	18794.21
625.046	18401
625.24	18444.01
625.435	18409.19
625.629	18155.24
625.824	18132.72
626.018	18003.69
626.213	17567.48
626.407	17759.99
626.602	17479.41
626.796	17721.07
626.991	17569.52
627.185	17448.69
627.38	17260.28
627.574	17116.92
627.768	17161.98
627.963	17178.36
628.157	16959.23
628.352	17225.47
628.546	16500.48
628.74	16580.35
628.935	16570.12
629.129	16617.22
629.323	16230.15
629.517	16363.27
629.712	16264.97
629.906	16267.02
630.1	15959.82
630.294	15871.76
630.489	15738.64
630.683	15632.15
630.877	15793.93
631.071	15845.13
631.265	15648.53
631.459	15818.51
631.653	15544.08
631.848	15435.54
632.042	15308.57
632.236	15179.54
632.43	15091.48
632.624	15230.74
632.818	14923.55
633.012	14843.68
633.206	14952.22
633.4	14743.33
633.594	14573.35
633.788	14493.47
633.982	14497.57
634.176	14548.77
634.369	14458.66
634.563	14163.75
634.757	14024.49
634.951	14139.18
635.145	14053.16
635.339	14083.88
635.533	13936.43
635.726	13926.19
635.92	13774.64
636.114	13666.1
636.308	13383.48
636.501	13725.49
636.695	13530.93
636.889	13291.32
637.083	13373.24
637.276	13311.8
637.47	13121.34
637.664	13004.6
637.857	12810.04
638.051	13080.38
638.244	12681.02
638.438	12879.68
638.632	12660.54
638.825	12697.41
639.019	12721.98
639.212	12549.95
639.406	12576.58
639.599	12293.96
639.793	12384.07
639.986	12234.57
640.18	12263.24
640.373	12328.77
640.567	12062.54
640.76	12052.3
640.954	12091.21
641.147	11779.92
641.34	11788.11
641.534	11804.49
641.727	11779.92
641.92	11636.56
642.114	11417.43
642.307	11394.9
642.5	11468.62
642.694	11169.62
642.887	11292.5
643.08	11245.4
643.273	11263.83
643.467	11102.04
643.66	10964.82
643.853	10776.41
644.046	10706.78
644.239	10837.85
644.432	10618.72
644.626	10809.18
644.819	10551.13
645.012	10800.99
645.205	10692.44
645.398	10475.36
645.591	10346.34
645.784	10450.78
645.977	10235.75
646.17	10266.47
646.363	10061.67
646.556	9817.96
646.749	10186.6
646.942	10145.64
647.135	9942.89
647.328	9799.53
647.521	9723.76
647.714	9729.9
647.907	9729.9
648.099	9521.01
648.292	9660.27
648.485	9529.2
648.678	9527.15
648.871	9379.7
649.064	9402.22
649.256	9379.7
649.449	9316.21
649.642	9195.38
649.835	8943.48
650.027	9092.98
650.22	9084.79
650.413	9006.97
650.605	9019.25
650.798	8771.45
650.991	8990.58
651.183	8904.57
651.376	8732.54
651.568	8759.16
651.761	8707.96
651.954	8781.69
652.146	8552.32
652.339	8488.83
652.531	8552.32
652.724	8531.84
652.916	8101.76
653.109	8404.86
653.301	8204.16
653.494	8281.99
653.686	8062.85
653.879	8265.6
654.071	8032.13
654.263	7956.36
654.456	8001.41
654.648	7944.07
654.84	7954.31
655.033	7864.2
655.225	7829.38
655.417	7759.75
655.61	7792.52
655.802	7579.53
655.994	7589.77
656.186	7554.96
656.379	7548.81
656.571	7481.23
656.763	7284.62
656.955	7405.45
657.148	7374.74
657.34	7344.02
657.532	7210.9
657.724	7196.56
657.916	7382.93
658.108	7278.48
658.3	7004.05
658.492	7108.5
658.684	6999.96
658.876	7067.54
659.068	6967.19
659.26	7024.53
659.452	6842.26
659.644	6719.39
659.836	6797.21
660.028	6762.39
660.22	6455.2
660.412	6520.73
660.604	6496.16
660.796	6537.12
660.988	6547.36
661.18	6457.25
661.372	6457.25
661.563	6444.96
661.755	6152.1
661.947	6373.28
662.139	6176.67
662.331	6162.34
662.522	6256.54
662.714	6158.24
662.906	6008.74
663.097	6121.38
663.289	6086.56
663.481	5943.21
663.673	5971.88
663.864	5969.83
664.056	5885.86
664.247	5676.97
664.439	5744.55
664.631	5685.16
664.822	5744.55
665.014	5652.39
665.205	5623.72
665.397	5560.24
665.588	5373.87
665.78	5586.86
665.971	5484.46
666.163	5461.93
666.354	5500.84
666.546	5369.77
666.737	5359.53
666.929	5435.31
667.12	5234.61
667.311	5234.61
667.503	5240.75
667.694	5236.66
667.885	5097.39
668.077	5189.55
668.268	4999.09
668.459	5078.96
668.651	5275.57
668.842	4990.9
669.033	4997.04
669.224	4933.56
669.416	4870.07
669.607	4956.08
669.798	4933.56
669.989	5025.72
670.18	4724.66
670.371	4704.18
670.563	4874.17
670.754	4710.33
670.945	4724.66
671.136	4669.37
671.327	4693.94
671.518	4736.95
671.709	4687.8
671.9	4661.18
672.091	4614.07
672.282	4509.63
672.473	4544.44
672.664	4663.22
672.855	4433.85
673.046	4423.61
673.237	4401.08
673.428	4513.72
673.619	4489.15
673.809	4325.31
674	4253.63
674.191	4339.65
674.382	4253.63
674.573	4216.77
674.764	4370.37
674.954	4300.73
675.145	4286.4
675.336	4161.47
675.527	4097.99
675.717	4153.28
675.908	4067.27
676.099	4249.54
676.289	4173.76
676.48	4046.79
676.671	4075.46
676.861	4206.53
677.052	4143.04
677.243	3907.52
677.433	3971.01
677.624	4102.08
677.814	3989.44
678.005	4057.03
678.195	3987.4
678.386	3942.34
678.576	3835.85
678.767	3819.46
678.957	3862.47
679.148	3948.48
679.338	3915.72
679.529	3948.48
679.719	3891.14
679.909	3870.66
680.1	3839.94
680.29	3893.19
680.481	3940.29
680.671	3923.91
680.861	3807.17
681.052	3837.89
681.242	3782.6
681.432	3776.45
681.622	3792.84
681.813	3762.12
682.003	3807.17
682.193	3727.3
682.383	3729.35
682.573	3755.97
682.764	3669.96
682.954	3823.56
683.144	3706.82
683.334	3809.22
683.524	3753.93
683.714	3737.54
683.904	3579.85
684.094	3600.33
684.284	3612.62
684.474	3702.73
684.664	3602.38
684.854	3639.24
685.044	3688.39
685.234	3563.47
685.424	3631.05
685.614	3563.47
685.804	3637.19
685.994	3596.23
686.184	3514.31
686.374	3489.74
686.564	3514.31
686.753	3629
686.943	3393.48
687.133	3518.41
687.323	3489.74
687.513	3514.31
687.702	3508.17
687.892	3473.35
688.082	3620.81
688.272	3497.93
688.461	3448.78
688.651	3639.24
688.841	3401.68
689.03	3418.06
689.22	3196.88
689.41	3354.57
689.599	3473.35
689.789	3342.28
689.979	3334.09
690.168	3340.24
690.358	3360.72
690.547	3352.52
690.737	3317.71
690.926	3411.92
691.116	3203.02
691.305	3278.8
691.495	3323.85
691.684	3282.89
691.874	3219.41
692.063	3350.48
692.252	3293.13
692.442	3399.63
692.631	3262.41
692.82	3207.12
693.01	3280.85
693.199	3104.72
693.388	3221.45
693.578	3117.01
693.767	3219.41
693.956	3143.63
694.146	3121.1
694.335	3106.77
694.524	3106.77
694.713	3233.74
694.902	3100.62
695.092	3067.86
695.281	2992.08
695.47	3127.25
695.659	3129.3
695.848	3104.72
696.037	3053.52
696.226	3055.57
696.415	3246.03
696.604	3041.23
696.793	3006.42
696.982	3016.66
697.171	3092.43
697.36	3059.67
697.549	3112.91
697.738	2998.23
697.927	2910.16
698.116	2953.17
698.305	2961.36
698.494	2949.07
698.683	2963.41
698.872	2926.55
699.061	2985.94
699.25	3006.42
699.438	3037.14
699.627	2899.92
699.816	3016.66
700.005	2932.69
700.193	2861.01
700.382	3006.42
700.571	2811.86
700.76	2834.39
700.948	2932.69
701.137	3008.47
701.326	2928.6
701.514	2836.44
701.703	2951.12
701.892	2836.44
702.08	2899.92
702.269	2897.88
702.457	2740.18
702.646	2686.93
702.834	2803.67
703.023	2867.16
703.212	2947.03
703.4	2813.91
703.589	2688.98
703.777	2766.81
703.965	2719.7
704.154	2760.66
704.342	2729.94
704.531	2779.09
704.719	2662.36
704.907	2820.05
705.096	2758.61
705.284	2791.38
705.472	2752.47
705.661	2731.99
705.849	2680.79
706.037	2789.33
706.226	2621.4
706.414	2731.99
706.602	2678.74
706.79	2750.42
706.979	2631.64
707.167	2697.17
707.355	2559.96
707.543	2541.53
707.731	2664.41
707.919	2592.73
708.107	2658.26
708.296	2617.3
708.484	2506.71
708.672	2533.34
708.86	2531.29
709.048	2611.16
709.236	2592.73
709.424	2527.19
709.612	2553.82
709.8	2529.24
709.988	2445.27
710.176	2465.75
710.364	2574.3
710.551	2469.85
710.739	2541.53
710.927	2541.53
711.115	2500.57
711.303	2584.54
711.491	2441.18
711.679	2533.34
711.866	2547.67
712.054	2492.38
712.242	2527.19
712.43	2574.3
712.617	2494.43
712.805	2453.47
712.993	2392.03
713.181	2320.35
713.368	2398.17
713.556	2484.19
713.744	2361.31
713.931	2555.86
714.119	2371.55
714.306	2467.8
714.494	2375.64
714.682	2353.12
714.869	2383.84
715.057	2334.68
715.244	2359.26
715.432	2398.17
715.619	2301.92
715.807	2359.26
715.994	2306.01
716.182	2353.12
716.369	2301.92
716.556	2232.29
716.744	2224.09
716.931	2371.55
717.119	2371.55
717.306	2172.89
717.493	2379.74
717.681	2248.67
717.868	2246.62
718.055	2222.05
718.242	2306.01
718.43	2199.52
718.617	2330.59
718.804	2213.85
718.991	2265.05
719.179	2303.96
719.366	2254.81
719.553	2240.48
719.74	2164.7
719.927	2334.68
720.114	2199.52
720.301	2117.6
720.488	2080.74
720.676	2109.41
720.863	2142.18
721.05	2119.65
721.237	1990.63
721.424	2244.57
721.611	2154.46
721.798	2088.93
721.985	2068.45
722.172	2025.44
722.358	2101.22
722.545	2121.7
722.732	2318.3
722.919	2129.89
723.106	2031.58
723.293	2189.28
723.48	2183.13
723.667	2103.26
723.853	2072.54
724.04	1968.1
724.227	2072.54
724.414	2019.3
724.6	2050.02
724.787	2082.78
724.974	1990.63
725.161	2019.3
725.347	1875.94
725.534	1988.58
725.72	1957.86
725.907	1998.82
726.094	2064.35
726.28	1912.8
726.467	2023.39
726.653	2060.26
726.84	1974.24
727.027	2011.11
727.213	1845.22
727.4	1918.95
727.586	2047.97
727.773	1886.18
727.959	1875.94
728.145	1892.32
728.332	1884.13
728.518	1802.21
728.705	1994.72
728.891	1976.29
729.077	1892.32
729.264	1966.05
729.45	1818.6
729.636	1849.32
729.823	1845.22
730.009	1984.48
730.195	1884.13
730.382	1943.52
730.568	1847.27
730.754	1794.02
730.94	1853.41
731.126	1771.49
731.313	1824.74
731.499	1771.49
731.685	1851.36
731.871	1794.02
732.057	1839.08
732.243	1906.66
732.429	1837.03
732.615	1841.12
732.801	1761.25
732.987	1865.7
733.173	1837.03
733.359	1748.97
733.545	1771.49
733.731	1798.12
733.917	1736.68
734.103	1845.22
734.289	1818.6
734.475	1630.18
734.661	1703.91
734.847	1746.92
735.033	1871.84
735.219	1781.73
735.404	1746.92
735.59	1753.06
735.776	1597.42
735.962	1791.97
736.148	1822.69
736.333	1728.49
736.519	1777.64
736.705	1714.15
736.89	1718.25
737.076	1697.77
737.262	1753.06
737.447	1712.1
737.633	1642.47
737.819	1656.81
738.004	1615.85
738.19	1679.33
738.375	1630.18
738.561	1638.37
738.747	1685.48
738.932	1654.76
739.118	1593.32
739.303	1570.79
739.489	1566.7
739.674	1568.74
739.859	1576.94
740.045	1570.79
740.23	1521.64
740.416	1519.59
740.601	1632.23
740.786	1564.65
740.972	1517.54
741.157	1499.11
741.342	1511.4
741.528	1513.45
741.713	1583.08
741.898	1517.54
742.084	1476.59
742.269	1550.31
742.454	1566.7
742.639	1546.22
742.824	1417.19
743.01	1501.16
743.195	1611.75
743.38	1425.39
743.565	1452.01
743.75	1376.23
743.935	1478.63
744.12	1443.82
744.305	1376.23
744.49	1441.77
744.675	1419.24
744.86	1398.76
745.045	1402.86
745.23	1456.11
745.415	1392.62
745.6	1427.43
745.785	1372.14
745.97	1415.15
746.155	1429.48
746.34	1349.61
746.525	1316.84
746.71	1359.85
746.895	1339.37
747.079	1318.89
747.264	1361.9
747.449	1335.28
747.634	1368.04
747.819	1409
748.003	1288.17
748.188	1286.12
748.373	1245.17
748.557	1353.71
748.742	1269.74
748.927	1296.36
749.111	1294.32
749.296	1226.73
749.481	1230.83
749.665	1196.01
749.85	1165.29
750.034	1222.64
750.219	1236.97
750.404	1236.97
750.588	1200.11
750.773	1126.38
750.957	1169.39
751.141	1107.95
751.326	1265.64
751.51	1189.87
751.695	1138.67
751.879	1193.97
752.064	1177.58
752.248	1173.49
752.432	1132.53
752.617	1032.18
752.801	1187.82
752.985	1146.86
753.17	1212.4
753.354	1023.98
753.538	1015.79
753.722	1097.71
753.907	1138.67
754.091	991.22
754.275	1034.22
754.459	1064.94
754.643	987.12
754.828	958.45
755.012	1050.61
755.196	1075.18
755.38	1046.51
755.564	983.02
755.748	929.78
755.932	946.16
756.116	1026.03
756.3	884.72
756.484	964.59
756.668	997.36
756.852	995.31
757.036	980.98
757.22	888.82
757.404	983.02
757.588	925.68
757.772	993.26
757.956	1056.75
758.14	892.91
758.323	884.72
758.507	819.19
758.691	876.53
758.875	837.62
759.059	880.63
759.242	897.01
759.426	874.48
759.61	856.05
759.794	837.62
759.977	935.92
760.161	913.39
760.345	960.5
760.528	821.24
760.712	886.77
760.895	894.96
761.079	870.39
761.263	753.65
761.446	729.08
761.63	845.81
761.813	794.61
761.997	757.75
762.18	847.86
762.364	825.33
762.547	749.56
762.731	755.7
762.914	794.61
763.098	759.8
763.281	733.17
763.464	772.08
763.648	823.28
763.831	741.36
764.015	724.98
764.198	770.04
764.381	770.04
764.564	819.19
764.748	798.71
764.931	796.66
765.114	731.12
765.297	673.78
765.481	741.36
765.664	747.51
765.847	692.21
766.03	806.9
766.213	681.97
766.397	702.45
766.58	638.97
766.763	727.03
766.946	692.21
767.129	638.97
767.312	706.55
767.495	714.74
767.678	692.21
767.861	724.98
768.044	718.84
768.227	714.74
768.41	729.08
768.593	712.69
768.776	669.69
768.959	671.73
769.142	720.88
769.324	684.02
769.507	626.68
769.69	782.32
769.873	632.82
770.056	585.72
770.239	626.68
770.421	720.88
770.604	638.97
770.787	647.16
770.97	593.91
771.152	731.12
771.335	589.81
771.518	581.62
771.7	663.54
771.883	690.17
772.066	632.82
772.248	602.1
772.431	602.1
772.613	647.16
772.796	681.97
772.978	567.29
773.161	651.25
773.343	632.82
773.526	511.99
773.708	534.52
773.891	657.4
774.073	636.92
774.256	548.86
774.438	647.16
774.621	610.29
774.803	567.29
774.985	581.62
775.168	622.58
775.35	690.17
775.532	536.57
775.715	571.38
775.897	518.14
776.079	514.04
776.261	618.49
776.444	460.79
776.626	649.21
776.808	561.14
776.99	491.51
777.173	452.6
777.355	509.94
777.537	528.38
777.719	581.62
777.901	438.27
778.083	466.94
778.265	483.32
778.447	565.24
778.629	491.51
778.811	487.42
778.993	557.05
779.175	460.79
779.357	475.13
779.539	450.55
779.721	557.05
779.903	452.6
780.085	450.55
780.267	466.94
780.449	497.66
780.631	458.75
780.812	430.07
780.994	425.98
781.176	372.73
781.358	483.32
781.54	497.66
781.721	460.79
781.903	489.46
782.085	425.98
782.267	413.69
782.448	395.26
782.63	368.63
782.812	399.35
782.993	417.79
783.175	403.45
783.357	407.55
783.538	532.47
783.72	368.63
783.901	436.22
784.083	397.31
784.264	397.31
784.446	362.49
784.627	339.96
784.809	378.87
784.99	458.75
785.172	385.02
785.353	368.63
785.535	352.25
785.716	362.49
785.897	303.1
786.079	323.58
786.26	346.11
786.441	344.06
786.623	294.91
786.804	378.87
786.985	333.82
787.167	372.73
787.348	276.48
787.529	319.48
787.71	401.4
787.891	362.49
788.073	303.1
788.254	335.87
788.435	319.48
788.616	350.2
788.797	264.19
788.978	311.29
789.159	315.39
789.34	352.25
789.522	319.48
789.703	253.95
789.884	356.35
790.065	278.52
790.246	319.48
790.427	327.67
790.607	294.91
790.788	311.29
790.969	331.77
791.15	288.76
791.331	272.38
791.512	256
791.693	317.44
791.874	253.95
792.054	272.38
792.235	366.59
792.416	286.72
792.597	229.37
792.778	319.48
792.958	305.15
793.139	268.28
793.32	221.18
793.5	206.84
793.681	290.81
793.862	229.37
794.042	288.76
794.223	172.03
794.404	233.47
794.584	159.74
794.765	276.48
794.945	262.14
795.126	307.2
795.306	256
795.487	223.23
795.667	204.8
795.848	266.24
796.028	200.7
796.209	258.04
796.389	231.42
796.57	253.95
796.75	229.37
796.93	208.89
797.111	190.46
797.291	212.99
797.471	200.7
797.652	202.75
797.832	186.37
798.012	237.56
798.192	196.61
798.373	233.47
798.553	178.17
798.733	247.8
798.913	196.61
799.093	174.08
799.274	174.08
799.454	174.08
799.634	294.91
799.814	260.09
799.994	180.22
800.174	204.8
800.354	223.23
800.534	135.17
800.714	223.23
800.894	98.3
801.074	217.08
801.254	196.61
801.434	202.75
801.614	221.18
801.794	192.51
801.974	765.94
802.154	157.69
802.334	253.95
802.514	247.8
802.693	124.93
802.873	239.61
803.053	163.84
803.233	215.04
803.413	129.02
803.592	163.84
803.772	186.37
803.952	172.03
804.131	155.65
804.311	204.8
804.491	217.08
804.67	212.99
804.85	174.08
805.03	196.61
805.209	241.66
805.389	100.35
805.568	112.64
805.748	122.88
805.928	172.03
806.107	124.93
806.287	212.99
806.466	186.37
806.646	106.49
806.825	141.31
807.004	131.07
807.184	188.41
807.363	184.32
807.543	155.65
807.722	133.12
807.901	190.46
808.081	147.45
808.26	122.88
808.439	139.26
808.619	176.13
808.798	75.77
808.977	159.74
809.156	141.31
809.336	122.88
809.515	147.45
809.694	100.35
809.873	143.36
810.052	178.17
810.231	110.59
810.411	106.49
810.59	143.36
810.769	108.54
810.948	198.65
811.127	106.49
811.306	124.93
811.485	116.73
811.664	118.78
811.843	182.27
812.022	57.34
812.201	198.65
812.38	131.07
812.559	151.55
812.737	98.3
812.916	53.25
813.095	116.73
813.274	133.12
813.453	139.26
813.632	172.03
813.811	147.45
813.989	86.01
814.168	114.69
814.347	65.54
814.526	139.26
814.704	98.3
814.883	182.27
815.062	40.96
815.24	133.12
815.419	131.07
815.598	167.93
815.776	114.69
815.955	90.11
816.133	43.01
816.312	151.55
816.49	18.43
816.669	114.69
816.847	110.59
817.026	34.82
817.204	47.1
817.383	163.84
817.561	151.55
817.74	75.77
817.918	102.4
818.097	73.73
818.275	133.12
818.453	88.06
818.632	53.25
818.81	75.77
818.988	40.96
819.167	92.16
819.345	100.35
819.523	92.16
819.701	77.82
819.879	18.43
820.058	36.86
820.236	133.12
820.414	57.34
820.592	75.77
820.77	133.12
820.948	73.73
821.127	51.2
821.305	81.92
821.483	43.01
821.661	172.03
821.839	96.25
822.017	22.53
822.195	61.44
822.373	49.15
822.551	69.63
822.729	139.26
822.907	55.3
823.085	141.31
823.262	49.15
823.44	126.97
823.618	45.06
823.796	12.29
823.974	92.16
824.152	98.3
824.329	102.4
824.507	106.49
824.685	75.77
824.863	69.63
825.04	67.58
825.218	77.82
825.396	81.92
825.574	77.82
825.751	49.15
825.929	92.16
826.107	94.21
826.284	69.63
826.462	69.63
826.639	122.88
826.817	45.06
826.994	45.06
827.172	108.54
827.349	40.96
827.527	57.34
827.704	75.77
827.882	61.44
828.059	73.73
828.237	79.87
828.414	163.84
828.591	43.01
828.769	67.58
828.946	83.97
829.124	94.21
829.301	30.72
829.478	32.77
829.655	-24.58
829.833	106.49
830.01	26.62
830.187	24.58
830.364	49.15
830.542	73.73
830.719	124.93
830.896	26.62
831.073	32.77
831.25	108.54
831.427	73.73
831.604	12.29
831.782	102.4
831.959	55.3
832.136	32.77
832.313	47.1
832.49	106.49
832.667	116.73
832.844	43.01
833.021	49.15
833.198	24.58
833.374	34.82
833.551	16.38
833.728	51.2
833.905	53.25
834.082	53.25
834.259	59.39
834.436	59.39
834.612	8.19
834.789	114.69
834.966	57.34
835.143	49.15
835.319	8.19
835.496	131.07
835.673	83.97
835.85	124.93
836.026	65.54
836.203	139.26
836.38	81.92
836.556	122.88
836.733	-47.1
836.909	86.01
837.086	16.38
837.262	4.1
837.439	20.48
837.616	-8.19
837.792	61.44
837.968	38.91
838.145	61.44
838.321	49.15
838.498	67.58
838.674	69.63
838.851	55.3
839.027	18.43
839.203	116.73
839.38	34.82
839.556	51.2
839.732	108.54
839.909	116.73
840.085	65.54
840.261	77.82
840.437	24.58
840.614	-28.67
840.79	67.58
840.966	135.17
841.142	75.77
841.318	36.86
841.494	53.25
841.671	24.58
841.847	53.25
842.023	40.96
842.199	40.96
842.375	81.92
842.551	-22.53
842.727	10.24
842.903	55.3
843.079	-53.25
843.255	57.34
843.431	102.4
843.607	75.77
843.783	-8.19
843.959	57.34
844.134	-24.58
844.31	67.58
844.486	4.1
844.662	34.82
844.838	69.63
845.013	4.1
845.189	32.77
845.365	57.34
845.541	32.77
845.716	92.16
845.892	77.82
846.068	24.58
846.244	126.97
846.419	49.15
846.595	20.48
846.77	40.96
846.946	24.58
847.122	61.44
847.297	-6.14
847.473	4.1
847.648	83.97
847.824	49.15
847.999	-18.43
848.175	-14.34
848.35	8.19
848.526	-6.14
848.701	96.25
848.876	38.91
849.052	126.97
849.227	90.11
849.403	10.24
849.578	10.24
849.753	12.29
849.929	100.35
850.104	-30.72
850.279	-55.3
850.454	24.58
850.63	34.82
850.805	88.06
850.98	51.2
851.155	28.67
851.33	0
851.505	-24.58
851.681	108.54
851.856	28.67
852.031	47.1
852.206	65.54
852.381	86.01
852.556	26.62
852.731	83.97
852.906	96.25
853.081	4.1
853.256	12.29
853.431	20.48
853.606	4.1
853.781	49.15
853.956	-10.24
854.131	47.1
854.305	-28.67
854.48	-6.14
854.655	-51.2
854.83	36.86
855.005	51.2
855.18	59.39
855.354	26.62
855.529	36.86
855.704	24.58
855.879	16.38
856.053	51.2
856.228	51.2
856.403	83.97
856.577	40.96
856.752	57.34
856.926	49.15
857.101	-26.62
857.276	32.77
857.45	36.86
857.625	65.54
857.799	49.15
857.974	32.77
858.148	22.53
858.323	26.62
858.497	73.73
858.672	24.58
858.846	-94.21
859.02	143.36
859.195	-47.1
859.369	20.48
859.543	67.58
859.718	-32.77
859.892	40.96
860.066	59.39
860.241	69.63
860.415	14.34
860.589	57.34
860.763	38.91
860.938	45.06
861.112	57.34
861.286	-16.38
861.46	-20.48
861.634	-4.1
861.808	86.01
861.982	51.2
862.157	8.19
862.331	-12.29
862.505	18.43
862.679	26.62
862.853	-4.1
863.027	53.25
863.201	114.69
863.375	-40.96
863.549	94.21
863.722	16.38
863.896	59.39
864.07	-14.34
864.244	18.43
864.418	24.58
864.592	-8.19
864.766	-36.86
864.939	16.38
865.113	36.86
865.287	38.91
865.461	-16.38
865.634	45.06
865.808	-24.58
865.982	98.3
866.156	-10.24
866.329	0
866.503	-32.77
866.676	49.15
866.85	32.77
867.024	-45.06
867.197	-16.38
867.371	32.77
867.544	43.01
867.718	-59.39
867.891	86.01
868.065	-10.24
868.238	40.96
868.412	77.82
868.585	-16.38
868.759	-18.43
868.932	45.06
869.105	-14.34
869.279	32.77
869.452	49.15
869.625	49.15
869.799	38.91
869.972	-73.73
870.145	10.24
870.319	51.2
870.492	16.38
870.665	-102.4
870.838	36.86
871.011	34.82
871.185	16.38
871.358	-6.14
871.531	40.96
871.704	-8.19
871.877	51.2
872.05	8.19
872.223	-22.53
872.396	49.15
872.569	59.39
872.742	-8.19
872.915	65.54
873.088	6.14
873.261	-6.14
873.434	-24.58
873.607	-4.1
873.78	67.58
873.953	-20.48
874.126	45.06
874.299	2.05
874.471	-40.96
874.644	75.77
874.817	4.1
874.99	73.73
875.163	-22.53
875.335	47.1
875.508	-69.63
875.681	22.53
875.853	20.48
876.026	-30.72
876.199	32.77
876.371	28.67
876.544	12.29
876.717	4.1
876.889	34.82
877.062	26.62
877.234	-20.48
877.407	-30.72
877.579	4.1
877.752	43.01
877.924	67.58
878.097	49.15
878.269	30.72
878.442	47.1
878.614	-38.91
878.786	57.34
878.959	8.19
879.131	40.96
879.303	20.48
879.476	4.1
879.648	63.49
879.82	32.77
879.993	26.62
880.165	-32.77
880.337	0
880.509	-16.38
880.681	8.19
880.854	-22.53
881.026	-71.68
881.198	83.97
881.37	53.25
881.542	20.48
881.714	8.19
881.886	-8.19
882.058	-90.11
882.23	-6.14
882.402	-20.48
882.574	4.1
882.746	-98.3
882.918	57.34
883.09	40.96
883.262	-4.1
883.434	24.58
883.606	6.14
883.778	-24.58
883.95	75.77
884.122	34.82
884.293	45.06
884.465	20.48
884.637	16.38
884.809	2.05
884.98	-12.29
885.152	83.97
885.324	81.92
885.496	8.19
885.667	14.34
885.839	-40.96
886.011	-16.38
886.182	24.58
886.354	-14.34
886.525	40.96
886.697	-12.29
886.869	-20.48
887.04	8.19
887.212	24.58
887.383	106.49
887.555	-8.19
887.726	0
887.897	8.19
888.069	-4.1
888.24	8.19
888.412	32.77
888.583	-94.21
888.754	20.48
888.926	18.43
889.097	24.58
889.268	-24.58
889.44	16.38
889.611	-71.68
889.782	45.06
889.953	38.91
890.125	2.05
890.296	12.29
890.467	122.88
890.638	-4.1
890.809	-8.19
890.98	-6.14
891.151	-8.19
891.323	45.06
891.494	0
891.665	-30.72
891.836	28.67
892.007	8.19
892.178	88.06
892.349	28.67
892.52	-22.53
892.691	-32.77
892.862	49.15
893.032	59.39
893.203	20.48
893.374	-8.19
893.545	16.38
893.716	-22.53
893.887	45.06
894.057	-18.43
894.228	-28.67
894.399	-10.24
894.57	53.25
894.74	4.1
894.911	16.38
895.082	-14.34
895.253	-57.34
895.423	-36.86
895.594	-49.15
895.764	40.96
895.935	2.05
896.106	-38.91
896.276	-81.92
896.447	2.05
896.617	-45.06
896.788	-40.96
896.958	-34.82
897.129	-20.48
897.299	32.77
897.47	32.77
897.64	36.86
897.81	57.34
897.981	34.82
898.151	-12.29
898.322	-24.58
898.492	67.58
898.662	8.19
898.832	-32.77
899.003	-45.06
899.173	110.59
899.343	-22.53
899.513	-55.3
