Data from USB4F104151__295__14-46-31-433.txt Node

Date: Thu Mar 13 14:46:31 EDT 2025
User: louis
Spectrometer: USB4F10415
Trigger mode: 4
Integration Time (sec): 2.000000E-2
Scans to average: 1
Electric dark correction enabled: true
Nonlinearity correction enabled: false
Boxcar width: 0
XAxis mode: Wavelengths
Number of Pixels in Spectrum: 3648
>>>>>Begin Spectral Data<<<<<
178.204	-104.45
178.424	-104.45
178.644	-104.45
178.864	-100.35
179.084	-96.25
179.304	-14.34
179.524	-18.43
179.744	-4.1
179.964	43.01
180.184	18.43
180.404	-45.06
180.624	30.72
180.844	-32.77
181.064	14.34
181.283	34.82
181.503	-4.1
181.723	-22.53
181.943	-22.53
182.163	135.17
182.383	34.82
182.602	26.62
182.822	94.21
183.042	45.06
183.262	-55.3
183.482	34.82
183.701	36.86
183.921	61.44
184.141	-2.05
184.361	28.67
184.58	96.25
184.8	-24.58
185.02	24.58
185.239	34.82
185.459	55.3
185.679	75.77
185.898	12.29
186.118	14.34
186.338	4.1
186.557	10.24
186.777	-49.15
186.997	18.43
187.216	-36.86
187.436	67.58
187.655	-22.53
187.875	28.67
188.095	-65.53
188.314	98.3
188.534	-10.24
188.753	63.49
188.973	18.43
189.192	118.78
189.412	45.06
189.631	24.58
189.851	16.38
190.07	14.34
190.29	-26.62
190.509	-8.19
190.729	18.43
190.948	18.43
191.168	135.17
191.387	51.2
191.607	-18.43
191.826	-6.14
192.045	32.77
192.265	-26.62
192.484	0
192.704	71.68
192.923	-43.01
193.142	55.3
193.362	59.39
193.581	83.97
193.8	77.82
194.02	-14.34
194.239	45.06
194.458	-8.19
194.678	-22.53
194.897	4.1
195.116	51.2
195.335	20.48
195.555	-2.05
195.774	2.05
195.993	20.48
196.212	24.58
196.432	10.24
196.651	24.58
196.87	-55.3
197.089	96.25
197.308	22.53
197.528	-8.19
197.747	-10.24
197.966	-10.24
198.185	55.3
198.404	2.05
198.623	38.91
198.842	-6.14
199.062	38.91
199.281	118.78
199.5	26.62
199.719	26.62
199.938	-63.49
200.157	18.43
200.376	-26.62
200.595	102.4
200.814	38.91
201.033	12.29
201.252	43.01
201.471	14.34
201.69	22.53
201.909	61.44
202.128	43.01
202.347	69.63
202.566	59.39
202.785	12.29
203.004	-32.77
203.223	55.3
203.442	-14.34
203.661	43.01
203.879	75.77
204.098	45.06
204.317	75.77
204.536	55.3
204.755	45.06
204.974	34.82
205.193	-18.43
205.411	73.73
205.63	-2.05
205.849	49.15
206.068	18.43
206.287	28.67
206.505	32.77
206.724	-8.19
206.943	-6.14
207.162	12.29
207.381	75.77
207.599	-30.72
207.818	-18.43
208.037	2.05
208.255	20.48
208.474	18.43
208.693	34.82
208.911	6.14
209.13	-55.3
209.349	94.21
209.567	51.2
209.786	94.21
210.005	-4.1
210.223	-22.53
210.442	18.43
210.661	-14.34
210.879	14.34
211.098	8.19
211.316	18.43
211.535	65.54
211.753	59.39
211.972	-47.1
212.191	34.82
212.409	6.14
212.628	71.68
212.846	40.96
213.065	47.1
213.283	61.44
213.502	51.2
213.72	-6.14
213.938	18.43
214.157	-28.67
214.375	-30.72
214.594	-36.86
214.812	-16.38
215.031	28.67
215.249	-14.34
215.467	-26.62
215.686	-6.14
215.904	12.29
216.122	-43.01
216.341	51.2
216.559	26.62
216.778	102.4
216.996	92.16
217.214	-28.67
217.432	28.67
217.651	47.1
217.869	-12.29
218.087	38.91
218.306	24.58
218.524	18.43
218.742	12.29
218.96	-22.53
219.179	43.01
219.397	88.06
219.615	61.44
219.833	102.4
220.051	-10.24
220.27	53.25
220.488	-43.01
220.706	-2.05
220.924	38.91
221.142	34.82
221.36	-88.06
221.578	-6.14
221.796	2.05
222.015	10.24
222.233	-2.05
222.451	137.21
222.669	-10.24
222.887	34.82
223.105	2.05
223.323	-2.05
223.541	-34.82
223.759	-12.29
223.977	30.72
224.195	10.24
224.413	6.14
224.631	43.01
224.849	10.24
225.067	34.82
225.285	0
225.503	20.48
225.721	30.72
225.939	-4.1
226.157	61.44
226.375	43.01
226.592	2.05
226.81	4.1
227.028	-47.1
227.246	10.24
227.464	61.44
227.682	30.72
227.9	116.73
228.117	22.53
228.335	63.49
228.553	92.16
228.771	67.58
228.989	63.49
229.206	38.91
229.424	90.11
229.642	22.53
229.86	-12.29
230.077	6.14
230.295	63.49
230.513	88.06
230.731	61.44
230.948	45.06
231.166	-6.14
231.384	-14.34
231.601	-38.91
231.819	53.25
232.037	34.82
232.254	-26.62
232.472	36.86
232.689	-26.62
232.907	-14.34
233.125	8.19
233.342	-38.91
233.56	-61.44
233.777	-16.38
233.995	-18.43
234.213	59.39
234.43	-2.05
234.648	-6.14
234.865	-49.15
235.083	47.1
235.3	51.2
235.518	14.34
235.735	47.1
235.953	36.86
236.17	-16.38
236.388	141.31
236.605	-28.67
236.822	12.29
237.04	71.68
237.257	51.2
237.475	96.25
237.692	47.1
237.909	16.38
238.127	88.06
238.344	81.92
238.562	92.16
238.779	26.62
238.996	-28.67
239.214	2.05
239.431	28.67
239.648	-63.49
239.865	79.87
240.083	10.24
240.3	-14.34
240.517	18.43
240.735	-18.43
240.952	63.49
241.169	51.2
241.386	59.39
241.603	-53.25
241.821	36.86
242.038	-22.53
242.255	45.06
242.472	2.05
242.689	10.24
242.907	67.58
243.124	10.24
243.341	-61.44
243.558	47.1
243.775	-16.38
243.992	-26.62
244.209	10.24
244.426	61.44
244.643	26.62
244.86	10.24
245.078	43.01
245.295	-2.05
245.512	57.34
245.729	43.01
245.946	10.24
246.163	-6.14
246.38	-6.14
246.597	18.43
246.814	-22.53
247.031	51.2
247.248	10.24
247.464	34.82
247.681	108.54
247.898	-4.1
248.115	43.01
248.332	38.91
248.549	59.39
248.766	143.36
248.983	28.67
249.2	-30.72
249.417	59.39
249.633	-22.53
249.85	36.86
250.067	20.48
250.284	-16.38
250.501	51.2
250.717	-6.14
250.934	-51.2
251.151	-43.01
251.368	59.39
251.585	-36.86
251.801	2.05
252.018	4.1
252.235	38.91
252.451	-6.14
252.668	51.2
252.885	14.34
253.102	4.1
253.318	14.34
253.535	92.16
253.752	-2.05
253.968	-4.1
254.185	32.77
254.401	0
254.618	45.06
254.835	4.1
255.051	36.86
255.268	-6.14
255.484	28.67
255.701	-12.29
255.917	55.3
256.134	22.53
256.351	-14.34
256.567	12.29
256.784	10.24
257	-30.72
257.217	108.54
257.433	-10.24
257.65	12.29
257.866	81.92
258.082	-2.05
258.299	67.58
258.515	51.2
258.732	32.77
258.948	-12.29
259.165	6.14
259.381	-22.53
259.597	-108.54
259.814	59.39
260.03	6.14
260.246	-6.14
260.463	43.01
260.679	-6.14
260.895	-14.34
261.112	6.14
261.328	4.1
261.544	34.82
261.761	149.5
261.977	20.48
262.193	-22.53
262.409	-40.96
262.626	12.29
262.842	28.67
263.058	-6.14
263.274	18.43
263.49	10.24
263.707	38.91
263.923	-30.72
264.139	-28.67
264.355	14.34
264.571	104.45
264.787	-51.2
265.004	2.05
265.22	-20.48
265.436	-18.43
265.652	-24.58
265.868	18.43
266.084	36.86
266.3	43.01
266.516	10.24
266.732	102.4
266.948	10.24
267.164	18.43
267.38	49.15
267.596	100.35
267.812	32.77
268.028	83.97
268.244	51.2
268.46	77.82
268.676	18.43
268.892	-12.29
269.108	-12.29
269.324	-34.82
269.54	43.01
269.756	34.82
269.972	34.82
270.188	59.39
270.403	10.24
270.619	12.29
270.835	32.77
271.051	26.62
271.267	28.67
271.483	20.48
271.698	20.48
271.914	30.72
272.13	47.1
272.346	0
272.562	-6.14
272.777	57.34
272.993	-14.34
273.209	63.49
273.425	34.82
273.64	20.48
273.856	65.54
274.072	-47.1
274.287	20.48
274.503	36.86
274.719	26.62
274.934	36.86
275.15	18.43
275.366	38.91
275.581	53.25
275.797	10.24
276.012	12.29
276.228	18.43
276.444	114.69
276.659	77.82
276.875	-32.77
277.09	45.06
277.306	-14.34
277.521	65.54
277.737	-6.14
277.952	12.29
278.168	43.01
278.383	2.05
278.599	22.53
278.814	77.82
279.03	43.01
279.245	81.92
279.461	4.1
279.676	112.64
279.892	-96.25
280.107	43.01
280.322	16.38
280.538	30.72
280.753	-2.05
280.969	-47.1
281.184	10.24
281.399	-36.86
281.615	-12.29
281.83	34.82
282.045	-22.53
282.26	51.2
282.476	-14.34
282.691	79.87
282.906	-59.39
283.122	49.15
283.337	-45.06
283.552	81.92
283.767	14.34
283.983	67.58
284.198	30.72
284.413	-20.48
284.628	22.53
284.843	53.25
285.058	43.01
285.274	28.67
285.489	47.1
285.704	71.68
285.919	28.67
286.134	-26.62
286.349	28.67
286.564	10.24
286.779	20.48
286.995	-49.15
287.21	-16.38
287.425	45.06
287.64	83.97
287.855	69.63
288.07	-36.86
288.285	108.54
288.5	61.44
288.715	116.73
288.93	43.01
289.145	77.82
289.36	57.34
289.575	34.82
289.79	53.25
290.004	-6.14
290.219	88.06
290.434	14.34
290.649	-8.19
290.864	-26.62
291.079	26.62
291.294	16.38
291.509	-4.1
291.724	45.06
291.938	4.1
292.153	149.5
292.368	-10.24
292.583	12.29
292.798	71.68
293.012	-28.67
293.227	10.24
293.442	28.67
293.657	4.1
293.871	12.29
294.086	-43.01
294.301	100.35
294.516	10.24
294.73	20.48
294.945	-24.58
295.16	34.82
295.374	20.48
295.589	108.54
295.804	6.14
296.018	49.15
296.233	73.73
296.447	-2.05
296.662	24.58
296.877	24.58
297.091	18.43
297.306	67.58
297.52	-4.1
297.735	79.87
297.949	59.39
298.164	45.06
298.378	10.24
298.593	47.1
298.807	10.24
299.022	-47.1
299.236	22.53
299.451	-14.34
299.665	-34.82
299.88	24.58
300.094	-2.05
300.309	4.1
300.523	24.58
300.737	36.86
300.952	-53.25
301.166	34.82
301.381	34.82
301.595	55.3
301.809	34.82
302.024	51.2
302.238	-69.63
302.452	67.58
302.667	4.1
302.881	63.49
303.095	18.43
303.309	-28.67
303.524	2.05
303.738	2.05
303.952	30.72
304.166	67.58
304.381	-24.58
304.595	110.59
304.809	-2.05
305.023	-4.1
305.237	-26.62
305.452	34.82
305.666	-2.05
305.88	104.45
306.094	10.24
306.308	0
306.522	118.78
306.736	51.2
306.95	12.29
307.164	49.15
307.379	-34.82
307.593	75.77
307.807	22.53
308.021	34.82
308.235	100.35
308.449	-18.43
308.663	28.67
308.877	110.59
309.091	-14.34
309.305	88.06
309.519	4.1
309.733	28.67
309.947	2.05
310.161	71.68
310.374	28.67
310.588	-6.14
310.802	10.24
311.016	-6.14
311.23	43.01
311.444	-16.38
311.658	94.21
311.872	116.73
312.085	47.1
312.299	79.87
312.513	77.82
312.727	30.72
312.941	36.86
313.154	-14.34
313.368	-18.43
313.582	51.2
313.796	67.58
314.009	59.39
314.223	-14.34
314.437	61.44
314.651	16.38
314.864	20.48
315.078	-12.29
315.292	-8.19
315.505	-55.3
315.719	-38.91
315.933	-34.82
316.146	18.43
316.36	-18.43
316.573	22.53
316.787	75.77
317.001	34.82
317.214	51.2
317.428	16.38
317.641	-53.25
317.855	-14.34
318.068	2.05
318.282	-53.25
318.495	67.58
318.709	69.63
318.922	59.39
319.136	102.4
319.349	77.82
319.563	26.62
319.776	-30.72
319.99	18.43
320.203	8.19
320.417	8.19
320.63	-14.34
320.843	69.63
321.057	22.53
321.27	-34.82
321.483	120.83
321.697	116.73
321.91	-14.34
322.124	22.53
322.337	26.62
322.55	-28.67
322.763	-14.34
322.977	18.43
323.19	-53.25
323.403	4.1
323.617	28.67
323.83	-8.19
324.043	-45.06
324.256	2.05
324.469	24.58
324.683	112.64
324.896	10.24
325.109	67.58
325.322	12.29
325.535	98.3
325.748	14.34
325.962	10.24
326.175	26.62
326.388	6.14
326.601	30.72
326.814	-26.62
327.027	92.16
327.24	96.25
327.453	-28.67
327.666	4.1
327.879	22.53
328.092	-12.29
328.305	6.14
328.518	28.67
328.731	38.91
328.944	47.1
329.157	112.64
329.37	14.34
329.583	18.43
329.796	59.39
330.009	2.05
330.222	22.53
330.435	10.24
330.648	10.24
330.861	34.82
331.073	22.53
331.286	14.34
331.499	63.49
331.712	-14.34
331.925	63.49
332.138	14.34
332.35	69.63
332.563	28.67
332.776	86.01
332.989	-16.38
333.202	96.25
333.414	-18.43
333.627	-6.14
333.84	14.34
334.053	94.21
334.265	53.25
334.478	49.15
334.691	36.86
334.903	49.15
335.116	43.01
335.329	-43.01
335.541	51.2
335.754	100.35
335.966	-43.01
336.179	-6.14
336.392	47.1
336.604	-24.58
336.817	71.68
337.029	45.06
337.242	20.48
337.454	26.62
337.667	30.72
337.88	4.1
338.092	18.43
338.305	81.92
338.517	2.05
338.729	53.25
338.942	67.58
339.154	51.2
339.367	-22.53
339.579	126.97
339.792	-26.62
340.004	43.01
340.217	40.96
340.429	12.29
340.641	-10.24
340.854	-36.86
341.066	-55.3
341.278	-6.14
341.491	14.34
341.703	63.49
341.915	83.97
342.128	10.24
342.34	-49.15
342.552	43.01
342.764	22.53
342.977	14.34
343.189	49.15
343.401	-47.1
343.613	10.24
343.826	61.44
344.038	67.58
344.25	67.58
344.462	-6.14
344.674	-14.34
344.886	86.01
345.099	43.01
345.311	30.72
345.523	-30.72
345.735	43.01
345.947	53.25
346.159	-34.82
346.371	-20.48
346.583	-14.34
346.795	90.11
347.007	55.3
347.219	92.16
347.431	-20.48
347.643	-10.24
347.855	-10.24
348.067	36.86
348.279	38.91
348.491	51.2
348.703	83.97
348.915	4.1
349.127	-86.01
349.339	2.05
349.551	-32.77
349.763	79.87
349.975	34.82
350.187	51.2
350.399	24.58
350.61	118.78
350.822	77.82
351.034	24.58
351.246	67.58
351.458	69.63
351.669	69.63
351.881	26.62
352.093	18.43
352.305	-30.72
352.517	47.1
352.728	96.25
352.94	-10.24
353.152	59.39
353.363	-6.14
353.575	96.25
353.787	34.82
353.999	18.43
354.21	45.06
354.422	43.01
354.633	40.96
354.845	28.67
355.057	51.2
355.268	45.06
355.48	94.21
355.692	-55.3
355.903	57.34
356.115	45.06
356.326	43.01
356.538	59.39
356.749	14.34
356.961	38.91
357.172	6.14
357.384	-14.34
357.595	30.72
357.807	53.25
358.018	-61.44
358.23	118.78
358.441	116.73
358.653	30.72
358.864	28.67
359.075	-6.14
359.287	12.29
359.498	69.63
359.709	47.1
359.921	22.53
360.132	36.86
360.344	49.15
360.555	-22.53
360.766	38.91
360.977	36.86
361.189	53.25
361.4	55.3
361.611	43.01
361.823	30.72
362.034	-12.29
362.245	-10.24
362.456	-12.29
362.667	36.86
362.879	34.82
363.09	88.06
363.301	26.62
363.512	88.06
363.723	40.96
363.935	34.82
364.146	30.72
364.357	38.91
364.568	22.53
364.779	-22.53
364.99	102.4
365.201	14.34
365.412	49.15
365.623	18.43
365.834	12.29
366.045	67.58
366.256	36.86
366.467	-18.43
366.678	55.3
366.889	53.25
367.1	43.01
367.311	-6.14
367.522	-20.48
367.733	10.24
367.944	24.58
368.155	81.92
368.366	28.67
368.577	126.97
368.788	34.82
368.999	40.96
369.209	10.24
369.42	51.2
369.631	92.16
369.842	26.62
370.053	-20.48
370.264	34.82
370.474	79.87
370.685	18.43
370.896	-22.53
371.107	43.01
371.317	-55.3
371.528	-14.34
371.739	83.97
371.95	47.1
372.16	12.29
372.371	4.1
372.582	-47.1
372.792	43.01
373.003	96.25
373.214	-61.44
373.424	53.25
373.635	34.82
373.846	38.91
374.056	18.43
374.267	75.77
374.477	22.53
374.688	12.29
374.898	-2.05
375.109	16.38
375.319	32.77
375.53	22.53
375.74	-16.38
375.951	-4.1
376.161	38.91
376.372	55.3
376.582	28.67
376.793	-22.53
377.003	-36.86
377.214	-51.2
377.424	51.2
377.635	10.24
377.845	69.63
378.055	43.01
378.266	6.14
378.476	61.44
378.686	16.38
378.897	59.39
379.107	61.44
379.317	81.92
379.528	8.19
379.738	61.44
379.948	-30.72
380.158	30.72
380.369	-4.1
380.579	26.62
380.789	-6.14
380.999	-30.72
381.21	51.2
381.42	20.48
381.63	43.01
381.84	43.01
382.05	-45.06
382.261	131.07
382.471	108.54
382.681	14.34
382.891	61.44
383.101	45.06
383.311	38.91
383.521	-14.34
383.731	61.44
383.941	28.67
384.151	-16.38
384.361	-18.43
384.571	6.14
384.781	26.62
384.991	61.44
385.201	112.64
385.411	40.96
385.621	69.63
385.831	-4.1
386.041	-22.53
386.251	45.06
386.461	120.83
386.671	-2.05
386.881	2.05
387.091	-94.21
387.301	126.97
387.511	53.25
387.72	61.44
387.93	55.3
388.14	-30.72
388.35	20.48
388.56	-24.58
388.769	38.91
388.979	26.62
389.189	51.2
389.399	26.62
389.609	100.35
389.818	38.91
390.028	-26.62
390.238	81.92
390.447	38.91
390.657	-22.53
390.867	26.62
391.076	-6.14
391.286	51.2
391.496	-45.06
391.705	38.91
391.915	26.62
392.125	34.82
392.334	92.16
392.544	83.97
392.753	-6.14
392.963	69.63
393.172	10.24
393.382	30.72
393.591	77.82
393.801	104.45
394.01	47.1
394.22	-26.62
394.429	63.49
394.639	45.06
394.848	100.35
395.058	2.05
395.267	69.63
395.477	108.54
395.686	71.68
395.895	53.25
396.105	112.64
396.314	14.34
396.524	51.2
396.733	67.58
396.942	73.73
397.152	18.43
397.361	67.58
397.57	18.43
397.78	77.82
397.989	83.97
398.198	100.35
398.407	71.68
398.617	-14.34
398.826	14.34
399.035	67.58
399.244	34.82
399.453	43.01
399.663	47.1
399.872	61.44
400.081	28.67
400.29	36.86
400.499	67.58
400.708	67.58
400.917	100.35
401.127	69.63
401.336	49.15
401.545	116.73
401.754	98.3
401.963	100.35
402.172	26.62
402.381	-30.72
402.59	14.34
402.799	71.68
403.008	133.12
403.217	75.77
403.426	71.68
403.635	-18.43
403.844	86.01
404.053	-28.67
404.262	67.58
404.471	104.45
404.68	188.41
404.888	90.11
405.097	40.96
405.306	34.82
405.515	26.62
405.724	67.58
405.933	110.59
406.142	67.58
406.35	36.86
406.559	102.4
406.768	90.11
406.977	106.49
407.185	133.12
407.394	79.87
407.603	83.97
407.812	36.86
408.02	55.3
408.229	100.35
408.438	100.35
408.646	49.15
408.855	124.93
409.064	196.61
409.272	110.59
409.481	182.27
409.69	141.31
409.898	75.77
410.107	276.48
410.315	198.65
410.524	149.5
410.733	122.88
410.941	126.97
411.15	165.89
411.358	239.61
411.567	225.28
411.775	178.17
411.984	217.08
412.192	202.75
412.401	272.38
412.609	262.14
412.818	276.48
413.026	284.67
413.234	219.13
413.443	194.56
413.651	272.38
413.86	239.61
414.068	366.59
414.276	309.24
414.485	348.15
414.693	290.81
414.901	313.34
415.11	272.38
415.318	391.16
415.526	411.64
415.734	415.74
415.943	387.07
416.151	403.45
416.359	397.31
416.567	452.6
416.776	538.62
416.984	524.28
417.192	563.19
417.4	499.7
417.608	446.46
417.817	548.86
418.025	569.34
418.233	618.49
418.441	575.48
418.649	647.16
418.857	595.96
419.065	749.56
419.273	641.01
419.481	669.69
419.689	714.74
419.897	731.12
420.105	673.78
420.313	886.77
420.521	808.95
420.729	804.85
420.937	880.63
421.145	960.5
421.353	917.49
421.561	1005.55
421.769	919.54
421.977	940.02
422.185	1021.94
422.393	1128.43
422.601	1155.05
422.809	1189.87
423.017	1110
423.224	1228.78
423.432	1249.26
423.64	1329.13
423.848	1404.91
424.056	1300.46
424.263	1460.2
424.471	1445.87
424.679	1515.5
424.887	1470.44
425.094	1583.08
425.302	1562.6
425.51	1652.71
425.718	1783.78
425.925	1697.77
426.133	1902.56
426.341	1923.04
426.548	1927.14
426.756	1992.67
426.964	1994.72
427.171	1992.67
427.379	2035.68
427.586	2146.27
427.794	2279.39
428.001	2338.78
428.209	2492.38
428.417	2418.65
428.624	2478.04
428.832	2729.94
429.039	2693.08
429.247	2570.2
429.454	2803.67
429.662	3086.29
429.869	2803.67
430.076	3074
430.284	2863.06
430.491	3094.48
430.699	3289.04
430.906	3311.57
431.114	3291.09
431.321	3450.83
431.528	3471.31
431.736	3624.9
431.943	3786.69
432.15	3698.63
432.358	3792.84
432.565	4003.78
432.772	3930.05
432.979	4145.09
433.187	4151.23
433.394	4304.83
433.601	4609.98
433.808	4589.5
434.016	4403.13
434.223	4861.88
434.43	5035.96
434.637	4939.7
434.844	5287.86
435.052	5152.69
435.259	5187.5
435.466	5300.14
435.673	5365.68
435.88	5705.64
436.087	5969.83
436.294	5994.4
436.501	5719.98
436.708	5965.73
436.915	6080.42
437.122	6526.88
437.329	6373.28
437.537	6598.56
437.743	6690.71
437.95	6500.25
438.157	7055.25
438.364	7268.24
438.571	7149.46
438.778	7280.53
438.985	7866.25
439.192	7485.33
439.399	7810.95
439.606	7358.35
439.813	8097.67
440.02	8636.28
440.227	8101.76
440.433	8419.2
440.64	8431.49
440.847	8523.65
441.054	8732.54
441.261	9287.54
441.467	9164.66
441.674	9219.96
441.881	9559.92
442.088	9488.24
442.294	9430.9
442.501	10037.09
442.708	10035.05
442.914	10436.45
443.121	10631.01
443.328	10553.18
443.534	11358.03
443.741	10989.4
443.948	10717.02
444.154	11585.36
444.361	11274.07
444.568	11554.64
444.774	11528.02
444.981	11540.3
445.187	12087.11
445.394	12599.1
445.6	12379.97
445.807	13668.14
446.013	13068.09
446.22	13154.1
446.426	13700.91
446.633	13692.72
446.839	14470.95
447.046	13752.11
447.252	14872.35
447.459	14722.85
447.665	14741.28
447.871	14987.04
448.078	15623.95
448.284	15144.73
448.491	15456.02
448.697	16017.16
448.903	16418.57
449.11	16371.46
449.316	15812.37
449.522	16527.11
449.728	16922.37
449.935	16916.22
450.141	17092.35
450.347	17635.06
450.553	17006.33
450.76	17024.76
450.966	17665.78
451.172	17569.52
451.378	17882.86
451.584	17616.63
451.791	18145
451.997	18130.67
452.203	18308.84
452.409	18155.24
452.615	18175.72
452.821	17708.79
453.027	17547
453.233	18226.92
453.44	17692.4
453.646	17870.58
453.852	18013.93
454.058	18329.32
454.264	17723.12
454.47	18355.94
454.676	17434.36
454.882	18251.5
455.088	16822.02
455.294	16955.13
455.5	17366.77
455.705	17549.04
455.911	16715.52
456.117	16475.91
456.323	16170.76
456.529	15468.31
456.735	16135.95
456.941	15638.29
457.147	15742.74
457.352	15017.75
457.558	14870.3
457.764	14925.6
457.97	14958.36
458.176	14489.38
458.381	14245.67
458.587	13649.71
458.793	13625.14
458.999	12906.3
459.204	13940.52
459.41	13528.88
459.616	12558.14
459.821	12683.07
460.027	12789.56
460.233	12357.44
460.438	11790.16
460.644	11712.33
460.85	11415.38
461.055	11061.08
461.261	11075.42
461.466	10307.43
461.672	10135.4
461.878	10573.66
462.083	10000.23
462.289	9723.76
462.494	9850.73
462.7	9353.07
462.905	9101.17
463.111	9516.91
463.316	9340.79
463.522	9086.84
463.727	9119.6
463.932	9185.14
464.138	9047.93
464.343	9117.56
464.549	8834.94
464.754	8998.77
464.959	8912.76
465.165	8826.75
465.37	8572.8
465.575	8337.28
465.781	8787.83
465.986	8687.48
466.191	8333.18
466.397	8284.03
466.602	8005.51
466.807	8236.93
467.012	8136.58
467.218	8193.92
467.423	7939.97
467.628	7970.69
467.833	8587.13
468.038	8116.1
468.244	7894.92
468.449	8202.11
468.654	7956.36
468.859	7892.87
469.064	7792.52
469.269	7610.25
469.474	7579.53
469.679	7700.36
469.885	7649.16
470.09	7567.24
470.295	7550.86
470.5	7384.98
470.705	7391.12
470.91	7372.69
471.115	7124.88
471.32	7376.78
471.525	7335.82
471.73	7100.31
471.935	7194.51
472.139	6868.89
472.344	7157.65
472.549	6907.8
472.754	6905.75
472.959	6723.48
473.164	6645.66
473.369	6494.11
473.574	6596.51
473.778	6492.06
473.983	6590.36
474.188	6506.4
474.393	6260.64
474.598	6311.84
474.802	6088.61
475.007	6072.23
475.212	6330.27
475.417	5844.9
475.621	6008.74
475.826	6158.24
476.031	5803.94
476.235	5892.01
476.44	5691.31
476.645	5699.5
476.849	5719.98
477.054	5693.35
477.259	5584.81
477.463	5609.39
477.668	5455.79
477.872	5627.82
478.077	5408.69
478.282	5287.86
478.486	5175.22
478.691	5187.5
478.895	5146.55
479.1	5240.75
479.304	5261.23
479.509	5095.35
479.713	5130.16
479.918	4933.56
480.122	4900.79
480.326	5015.48
480.531	5060.53
480.735	4892.6
480.94	4802.49
481.144	5005.24
481.348	4771.77
481.553	4843.45
481.757	4816.82
481.961	4712.38
482.166	4900.79
482.37	4917.17
482.574	4769.72
482.778	4716.47
482.983	5076.91
483.187	4810.68
483.391	4771.77
483.595	4726.71
483.8	4671.42
484.004	4691.9
484.208	4671.42
484.412	4820.92
484.616	4839.35
484.821	4800.44
485.025	4730.81
485.229	4878.26
485.433	4683.7
485.637	4757.43
485.841	4734.9
486.045	4630.46
486.249	4831.16
486.453	4560.83
486.657	4704.18
486.861	4720.57
487.065	4591.55
487.269	4644.79
487.473	4675.51
487.677	4865.97
487.881	4990.9
488.085	4702.14
488.289	4816.82
488.493	4837.3
488.697	4822.97
488.901	4827.06
489.105	4843.45
489.309	4786.1
489.512	4915.12
489.716	4913.08
489.92	4861.88
490.124	4736.95
490.328	4902.84
490.531	4927.41
490.735	4825.01
490.939	4988.85
491.143	4925.36
491.346	5019.57
491.55	5062.58
491.754	4872.12
491.958	4931.51
492.161	5023.67
492.365	5081.01
492.569	5054.39
492.772	4939.7
492.976	4874.17
493.18	4861.88
493.383	5140.4
493.587	5097.39
493.79	5142.45
493.994	5121.97
494.197	5232.56
494.401	5304.24
494.605	5113.78
494.808	5269.42
495.012	5203.89
495.215	5375.92
495.419	5474.22
495.622	5384.11
495.825	5443.5
496.029	5517.23
496.232	5590.95
496.436	5566.38
496.639	5732.26
496.843	5662.63
497.046	5719.98
497.249	5760.94
497.453	5873.57
497.656	5943.21
497.859	5859.24
498.063	5824.42
498.266	6135.71
498.469	6129.57
498.673	6094.75
498.876	6414.24
499.079	6485.92
499.282	6295.46
499.485	6420.38
499.689	6588.32
499.892	6539.16
500.095	6502.3
500.298	6907.8
500.501	6580.12
500.705	6893.46
500.908	6893.46
501.111	6946.71
501.314	7092.12
501.517	7190.42
501.72	7303.06
501.923	7202.71
502.126	7303.06
502.329	7640.97
502.532	7597.96
502.735	7638.92
502.938	7800.71
503.141	7792.52
503.344	7872.39
503.547	7913.35
503.75	7956.36
503.953	7950.21
504.156	8269.7
504.359	8234.88
504.562	8279.94
504.765	8564.61
504.968	8578.94
505.17	8742.78
505.373	8712.06
505.576	8861.56
505.779	8925.05
505.982	8906.62
506.185	9117.56
506.387	9078.65
506.59	9455.47
506.793	9541.49
506.996	9523.05
507.198	9654.12
507.401	9777
507.604	9815.91
507.807	10182.5
508.009	10209.12
508.212	9983.85
508.415	10372.96
508.617	10364.77
508.82	10465.12
509.022	10329.95
509.225	10704.73
509.428	10741.6
509.63	10725.21
509.833	10932.06
510.035	11126.61
510.238	11255.64
510.44	11153.24
510.643	11663.18
510.845	11673.42
511.048	11523.92
511.25	11720.53
511.453	11743.05
511.655	12480.32
511.858	12197.7
512.06	12279.62
512.262	12379.97
512.465	12461.89
512.667	12736.32
512.87	12707.65
513.072	12863.29
513.274	13111.1
513.477	13168.44
513.679	13352.76
513.881	13483.83
514.084	13723.44
514.286	13821.74
514.488	13793.07
514.69	13995.82
514.893	14233.38
515.095	14251.81
515.297	14411.56
515.499	14491.43
515.701	14645.02
515.904	14915.36
516.106	14960.41
516.308	15050.52
516.51	15376.15
516.712	15329.05
516.914	15353.62
517.116	15697.68
517.318	15783.7
517.52	15906.57
517.722	16021.26
517.925	16455.43
518.127	16529.16
518.329	16523.01
518.531	16811.78
518.733	17180.41
518.935	17149.69
519.136	17063.68
519.338	17118.97
519.54	17575.67
519.742	17653.49
519.944	17805.04
520.146	17952.49
520.348	18319.08
520.55	18298.6
520.752	18448.1
520.954	18650.85
521.155	18712.29
521.357	18824.93
521.559	19140.32
521.761	19234.52
521.963	19502.81
522.164	19816.15
522.366	19703.51
522.568	19656.4
522.77	19957.46
522.971	20104.91
523.173	20113.1
523.375	20262.6
523.576	20334.28
523.778	20356.81
523.98	20940.48
524.181	20987.58
524.383	20987.58
524.584	21341.88
524.786	21395.13
524.988	21247.68
525.189	21860.02
525.391	21962.42
525.592	21634.74
525.794	21808.82
525.995	21825.2
526.197	22236.84
526.398	21915.31
526.6	22113.97
526.801	22269.61
527.003	22269.61
527.204	22589.1
527.406	22781.6
527.607	22970.02
527.808	22961.83
528.01	22646.44
528.211	22939.3
528.412	23330.46
528.614	23150.24
528.815	23070.37
529.016	23539.35
529.218	23273.12
529.419	23416.47
529.62	23506.59
529.822	23617.18
530.023	23531.16
530.224	23834.26
530.425	23762.58
530.626	23793.3
530.828	23475.87
531.029	24200.85
531.23	23819.92
531.431	24100.5
531.632	23991.95
531.833	23994
532.035	24094.35
532.236	24301.2
532.437	24221.33
532.638	24241.81
532.839	24186.51
533.04	24575.62
533.241	24301.2
533.442	24608.39
533.643	24534.67
533.844	24589.96
534.045	24301.2
534.246	24260.24
534.447	24628.87
534.648	24387.21
534.849	24647.3
535.05	24364.68
535.251	24696.46
535.451	24469.13
535.652	24444.55
535.853	24606.34
536.054	24766.09
536.255	24718.98
536.456	24344.2
536.657	24833.67
536.857	24651.4
537.058	24579.72
537.259	24761.99
537.46	24856.2
537.66	24559.24
537.861	24815.24
538.062	24614.54
538.263	24653.45
538.463	24551.05
538.664	24694.41
538.865	24594.06
539.065	25024.13
539.266	24360.59
539.466	24962.69
539.667	24514.19
539.868	24827.53
540.068	24657.54
540.269	24960.64
540.469	24725.13
540.67	24618.63
540.87	24802.95
541.071	24536.71
541.271	24870.53
541.472	25011.84
541.672	24350.35
541.873	24469.13
542.073	24340.11
542.274	24909.44
542.474	24620.68
542.675	24462.99
542.875	25202.3
543.075	24561.29
543.276	24618.63
543.476	24991.36
543.676	24460.94
543.877	24987.27
544.077	24581.77
544.277	24641.16
544.478	24706.69
544.678	24725.13
544.878	24581.77
545.078	24651.4
545.279	24647.3
545.479	24667.78
545.679	24895.11
545.879	24714.89
546.079	24579.72
546.28	24426.12
546.48	24233.61
546.68	24669.83
546.88	24749.7
547.08	24807.05
547.28	24514.19
547.48	24405.64
547.68	24583.82
547.88	24614.54
548.081	24940.16
548.281	24444.55
548.481	24385.16
548.681	24444.55
548.881	24462.99
549.081	24637.06
549.28	24372.88
549.48	24497.8
549.68	24534.67
549.88	25032.32
550.08	24329.87
550.28	24376.97
550.48	24391.31
550.68	24649.35
550.88	24510.09
551.08	24532.62
551.279	24299.15
551.479	24364.68
551.679	24340.11
551.879	24358.54
552.079	24805
552.278	24336.01
552.478	24536.71
552.678	24323.72
552.878	24604.3
553.077	24288.91
553.277	24061.58
553.477	24735.37
553.676	24184.46
553.876	24389.26
554.076	23914.13
554.275	24372.88
554.475	23998.1
554.674	24297.1
554.874	23848.6
555.074	24057.49
555.273	24268.43
555.473	24356.49
555.672	23860.88
555.872	24331.92
556.071	24293.01
556.271	24137.36
556.47	24028.82
556.67	24037.01
556.869	23901.84
557.068	24063.63
557.268	23910.04
557.467	23813.78
557.667	23760.53
557.866	24020.63
558.065	23807.64
558.265	23807.64
558.464	23371.42
558.663	23953.04
558.863	23563.93
559.062	23852.69
559.261	23281.31
559.461	23805.59
559.66	23209.63
559.859	23207.58
560.058	23479.96
560.258	23678.61
560.457	23326.36
560.656	23471.77
560.855	23402.14
561.054	23645.85
561.253	23232.16
561.453	23248.54
561.652	23162.53
561.851	23137.95
562.05	22933.15
562.249	23021.22
562.448	23383.71
562.647	23326.36
562.846	22949.54
563.045	22998.69
563.244	22498.98
563.443	22793.89
563.642	22339.24
563.841	22625.96
564.04	22671.01
564.239	22644.39
564.438	22447.79
564.637	22386.35
564.836	22490.79
565.035	22154.93
565.234	22453.93
565.432	22228.65
565.631	22171.31
565.83	22214.32
566.029	21931.7
566.228	21999.28
566.427	22066.86
566.625	21513.91
566.824	21890.74
567.023	21614.26
567.222	21286.59
567.42	21915.31
567.619	21667.51
567.818	21350.07
568.016	21540.54
568.215	21495.48
568.414	21290.68
568.612	21702.32
568.811	21186.24
569.01	21313.21
569.208	21231.29
569.407	21233.34
569.605	20827.84
569.804	21255.87
570.002	20733.64
570.201	21151.42
570.4	20979.39
570.598	20459.21
570.797	20375.24
570.995	20461.26
571.193	20387.53
571.392	20424.39
571.59	20276.94
571.789	20469.45
571.987	19908.3
572.186	20231.88
572.384	20078.29
572.582	20137.68
572.781	20076.24
572.979	19941.07
573.177	19586.77
573.376	20076.24
573.574	19609.3
573.772	19539.67
573.971	19687.12
574.169	19447.51
574.367	19625.68
574.565	19580.63
574.763	19472.09
574.962	19343.06
575.16	19261.15
575.358	19248.86
575.556	19025.63
575.754	19472.09
575.952	19140.32
576.151	19287.77
576.349	18890.46
576.547	19091.16
576.745	18976.48
576.943	18812.64
577.141	18630.37
577.339	18546.4
577.537	18824.93
577.735	18648.8
577.933	18487.01
578.131	18675.43
578.329	18276.07
578.527	18368.23
578.725	18102
578.923	18540.26
579.121	18210.54
579.319	17835.76
579.516	18063.08
579.714	17897.2
579.912	17942.25
580.11	18095.85
580.308	17696.5
580.506	17899.25
580.704	17581.81
580.901	17659.63
581.099	17843.95
581.297	17547
581.495	17598.2
581.692	17512.18
581.89	17354.49
582.088	17391.35
582.285	17307.38
582.483	17489.65
582.681	17215.23
582.878	17250.04
583.076	17069.82
583.274	17278.71
583.471	16901.89
583.669	17254.14
583.866	16695.04
584.064	16965.37
584.262	16817.92
584.459	17035
584.657	16629.51
584.854	16852.73
585.052	16539.4
585.249	16711.42
585.447	16641.79
585.644	16353.03
585.841	16361.22
586.039	16799.49
586.236	16549.64
586.434	15951.63
586.631	15902.48
586.828	16320.26
587.026	16199.43
587.223	16242.44
587.42	16064.27
587.618	16166.67
587.815	16080.65
588.012	16056.07
588.21	15879.95
588.407	15855.37
588.604	15879.95
588.801	15755.02
588.999	15712.02
589.196	15451.92
589.393	15345.43
589.59	15460.12
589.787	15257.37
589.984	15656.72
590.182	15435.54
590.379	15406.87
590.576	15232.79
590.773	15202.07
590.97	15163.16
591.167	15322.9
591.364	14905.12
591.561	14874.4
591.758	14890.78
591.955	14923.55
592.152	14997.28
592.349	14929.69
592.546	14917.4
592.743	14724.9
592.94	14315.3
593.137	14645.02
593.334	14728.99
593.531	14485.28
593.727	14735.14
593.924	14599.97
594.121	14325.54
594.318	14456.61
594.515	14436.13
594.712	14534.43
594.908	14321.45
595.105	14253.86
595.302	14102.31
595.499	14337.83
595.696	14004.01
595.892	13770.54
596.089	13938.48
596.286	14071.59
596.482	14010.15
596.679	14165.8
596.876	14034.73
597.072	13973.29
597.269	13657.9
597.466	13666.1
597.662	13856.56
597.859	13657.9
598.055	13668.14
598.252	13446.96
598.448	13360.95
598.645	13557.55
598.841	13516.59
599.038	13561.65
599.234	13373.24
599.431	13170.49
599.627	13104.95
599.824	13221.69
600.02	13043.51
600.217	13285.17
600.413	13025.08
600.609	13147.96
600.806	13125.43
601.002	13197.11
601.198	12992.31
601.395	12744.51
601.591	12851
601.787	12957.5
601.984	12758.85
602.18	12838.72
602.376	12613.44
602.572	12508.99
602.769	12736.32
602.965	12441.41
603.161	12668.73
603.357	12519.23
603.553	12599.1
603.75	12519.23
603.946	12433.22
604.142	12390.21
604.338	12191.56
604.534	12197.7
604.73	12150.6
604.926	12134.21
605.122	12267.33
605.318	12017.48
605.514	12078.92
605.71	12060.49
605.906	12072.78
606.102	11966.28
606.298	11896.65
606.494	11908.94
606.69	11718.48
606.886	12015.43
607.082	11585.36
607.278	11779.92
607.474	11552.59
607.67	11827.02
607.866	11589.46
608.062	11657.04
608.257	11540.3
608.453	11687.76
608.649	11544.4
608.845	11372.37
609.041	11439.95
609.236	11528.02
609.432	11544.4
609.628	11519.82
609.824	11398.99
610.019	11351.89
610.215	11169.62
610.411	11413.33
610.606	11276.12
610.802	11231.06
610.998	11251.54
611.193	11292.5
611.389	10921.82
611.584	10975.06
611.78	11175.77
611.976	11214.68
612.171	11237.2
612.367	11155.29
612.562	10946.39
612.758	10757.98
612.953	10735.45
613.149	11046.74
613.344	11161.43
613.539	11005.78
613.735	11018.07
613.93	10764.12
614.126	10692.44
614.321	10907.48
614.517	10878.81
614.712	10774.36
614.907	10843.99
615.103	10952.54
615.298	10522.46
615.493	10782.56
615.688	10463.07
615.884	10813.27
616.079	10303.33
616.274	10807.13
616.47	10583.9
616.665	10461.02
616.86	10483.55
617.055	10555.23
617.25	10360.67
617.445	10409.83
617.641	10319.71
617.836	10375.01
618.031	10188.64
618.226	10489.7
618.421	10170.21
618.616	10434.4
618.811	10028.9
619.006	10307.43
619.201	9996.14
619.396	9996.14
619.591	9781.1
619.786	10065.77
619.981	9938.79
620.176	9826.15
620.371	9752.43
620.566	9940.84
620.761	9705.32
620.956	9578.35
621.151	9746.28
621.346	9541.49
621.541	9406.32
621.735	9600.88
621.93	9557.87
622.125	9430.9
622.32	9258.87
622.515	9275.25
622.709	9191.28
622.904	9322.35
623.099	9119.6
623.294	9260.91
623.488	9006.97
623.683	9148.28
623.878	8841.08
624.072	9088.89
624.267	8941.43
624.462	8845.18
624.656	8767.35
624.851	8654.72
625.046	8693.63
625.24	8783.74
625.435	8570.75
625.629	8535.93
625.824	8603.52
626.018	8533.89
626.213	8456.06
626.407	8406.91
626.602	8347.52
626.796	8402.82
626.991	8277.89
627.185	8269.7
627.38	8271.75
627.574	7964.55
627.768	8109.96
627.963	8179.59
628.157	8017.8
628.352	7956.36
628.546	7860.1
628.74	8179.59
628.935	7778.19
629.129	7632.78
629.323	7526.29
629.517	7618.44
629.712	7538.57
629.906	7554.96
630.1	7618.44
630.294	7536.52
630.489	7554.96
630.683	7427.98
630.877	7548.81
631.071	7311.25
631.265	7384.98
631.459	7309.2
631.653	7206.8
631.848	7169.94
632.042	7047.06
632.236	7319.44
632.43	7145.36
632.624	7026.58
632.818	7045.01
633.012	7047.06
633.206	6985.62
633.4	6920.09
633.594	7026.58
633.788	6950.81
633.982	6858.65
634.176	6866.84
634.369	6768.54
634.563	6709.15
634.757	6588.32
634.951	6627.23
635.145	6557.6
635.339	6530.97
635.533	6596.51
635.726	6637.47
635.92	6320.03
636.114	6506.4
636.308	6547.36
636.501	6375.33
636.695	6262.69
636.889	6188.96
637.083	6231.97
637.276	6166.43
637.47	6088.61
637.664	6227.87
637.857	6248.35
638.051	6066.08
638.244	6227.87
638.438	6041.51
638.632	6057.89
638.825	5849
639.019	5918.63
639.212	5861.29
639.406	5910.44
639.599	5859.24
639.793	5691.31
639.986	5777.32
640.18	5625.77
640.373	5734.31
640.567	5509.04
640.76	5523.37
640.954	5646.25
641.147	5525.42
641.34	5478.32
641.534	5506.99
641.727	5404.59
641.92	5486.51
642.114	5408.69
642.307	5457.84
642.5	5343.15
642.694	5324.72
642.887	5259.18
643.08	5285.81
643.273	5427.12
643.467	5199.79
643.66	5236.66
643.853	4939.7
644.046	5011.38
644.239	5160.88
644.432	5052.34
644.626	5113.78
644.819	4945.84
645.012	4958.13
645.205	4958.13
645.398	4917.17
645.591	4853.69
645.784	4947.89
645.977	4863.93
646.17	4868.02
646.363	4739
646.556	4648.89
646.749	4634.55
646.942	4687.8
647.135	4609.98
647.328	4564.92
647.521	4640.7
647.714	4636.6
647.907	4413.37
648.099	4548.54
648.292	4528.06
648.485	4548.54
648.678	4413.37
648.871	4409.28
649.064	4417.47
649.256	4433.85
649.449	4458.43
649.642	4388.8
649.835	4329.41
650.027	4310.97
650.22	4192.19
650.413	4343.74
650.605	4337.6
650.798	4272.06
650.991	4140.99
651.183	4124.61
651.376	4245.44
651.568	4057.03
651.761	4089.79
651.954	3975.11
652.146	4143.04
652.339	4016.07
652.531	4143.04
652.724	4022.21
652.916	3917.76
653.109	4128.7
653.301	3977.16
653.494	4032.45
653.686	3782.6
653.879	3872.71
654.071	3749.83
654.263	3821.51
654.456	3692.49
654.648	3792.84
654.84	3598.28
655.033	3614.66
655.225	3747.78
655.417	3717.06
655.61	3592.14
655.802	3612.62
655.994	3610.57
656.186	3614.66
656.379	3602.38
656.571	3575.75
656.763	3655.62
656.955	3669.96
657.148	3518.41
657.34	3571.66
657.532	3393.48
657.724	3401.68
657.916	3469.26
658.108	3456.97
658.3	3424.2
658.492	3356.62
658.684	3297.23
658.876	3303.37
659.068	3272.65
659.26	3272.65
659.452	3332.05
659.644	3237.84
659.836	3305.42
660.028	3278.8
660.22	3176.4
660.412	3090.38
660.604	3110.86
660.796	3098.58
660.988	3196.88
661.18	3166.16
661.372	3114.96
661.563	3166.16
661.755	3069.91
661.947	3022.8
662.139	2983.89
662.331	3100.62
662.522	2842.58
662.714	3039.19
662.906	2910.16
663.097	2992.08
663.289	2910.16
663.481	2897.88
663.673	3008.47
663.864	2869.2
664.056	2992.08
664.247	2824.15
664.439	2772.95
664.631	2787.29
664.822	2910.16
665.014	2916.31
665.205	2858.96
665.397	2820.05
665.588	2762.71
665.78	2791.38
665.971	2725.85
666.163	2805.72
666.354	2758.61
666.546	2711.51
666.737	2709.46
666.929	2729.94
667.12	2611.16
667.311	2684.89
667.503	2783.19
667.694	2674.65
667.885	2668.5
668.077	2625.5
668.268	2568.15
668.459	2615.26
668.651	2592.73
668.842	2559.96
669.033	2539.48
669.224	2475.99
669.416	2590.68
669.607	2519
669.798	2437.08
669.989	2525.15
670.18	2531.29
670.371	2541.53
670.563	2385.88
670.754	2484.19
670.945	2435.03
671.136	2543.58
671.327	2336.73
671.518	2383.84
671.709	2496.47
671.9	2504.67
672.091	2461.66
672.282	2363.36
672.473	2459.61
672.664	2207.71
672.855	2230.24
673.046	2404.32
673.237	2328.54
673.428	2248.67
673.619	2258.91
673.809	2320.35
674	2289.63
674.191	2295.77
674.382	2267.1
674.573	2201.57
674.764	2207.71
674.954	2140.13
675.145	2289.63
675.336	2324.44
675.527	2189.28
675.717	2230.24
675.908	2224.09
676.099	2195.42
676.289	2164.7
676.48	2248.67
676.671	2168.8
676.861	2160.61
677.052	2191.33
677.243	2179.04
677.433	2140.13
677.624	2185.18
677.814	2230.24
678.005	2045.92
678.195	2162.65
678.386	2088.93
678.576	2109.41
678.767	2039.78
678.957	2117.6
679.148	2111.46
679.338	2154.46
679.529	2052.06
679.719	2058.21
679.909	2093.02
680.1	1945.57
680.29	1976.29
680.481	1984.48
680.671	2066.4
680.861	2107.36
681.052	2070.5
681.242	2090.98
681.432	1951.71
681.622	2017.25
681.813	2021.35
682.003	1984.48
682.193	2062.3
682.383	1910.75
682.573	1984.48
682.764	1886.18
682.954	1994.72
683.144	2013.15
683.334	1906.66
683.524	1961.95
683.714	1959.91
683.904	1959.91
684.094	1943.52
684.284	1968.1
684.474	1961.95
684.664	1920.99
684.854	1884.13
685.044	1945.57
685.234	1888.23
685.424	1925.09
685.614	1935.33
685.804	1941.47
685.994	1877.99
686.184	1830.88
686.374	1841.12
686.564	1847.27
686.753	1880.04
686.943	1828.84
687.133	1834.98
687.323	1959.91
687.513	1820.64
687.702	1798.12
687.892	1767.4
688.082	1888.23
688.272	1847.27
688.461	1933.28
688.651	1845.22
688.841	1726.44
689.03	1857.51
689.22	1806.31
689.41	1771.49
689.599	1832.93
689.789	1820.64
689.979	1716.2
690.168	1646.57
690.358	1759.21
690.547	1830.88
690.737	1779.68
690.926	1667.05
691.116	1656.81
691.305	1671.14
691.495	1746.92
691.684	1740.77
691.874	1660.9
692.063	1687.53
692.252	1740.77
692.442	1716.2
692.631	1595.37
692.82	1705.96
693.01	1660.9
693.199	1796.07
693.388	1603.56
693.578	1677.29
693.767	1681.38
693.956	1691.62
694.146	1685.48
694.335	1568.74
694.524	1617.9
694.713	1751.01
694.902	1564.65
695.092	1626.09
695.281	1626.09
695.47	1611.75
695.659	1540.07
695.848	1658.85
696.037	1681.38
696.226	1599.46
696.415	1695.72
696.604	1648.61
696.793	1626.09
696.982	1644.52
697.171	1673.19
697.36	1660.9
697.549	1624.04
697.738	1597.42
697.927	1665
698.116	1591.27
698.305	1644.52
698.494	1656.81
698.683	1642.47
698.872	1669.09
699.061	1662.95
699.25	1683.43
699.438	1693.67
699.627	1585.13
699.816	1669.09
700.005	1630.18
700.193	1591.27
700.382	1687.53
700.571	1640.42
700.76	1611.75
700.948	1660.9
701.137	1648.61
701.326	1607.66
701.514	1638.38
701.703	1552.36
701.892	1652.71
702.08	1648.61
702.269	1599.46
702.457	1685.48
702.646	1669.09
702.834	1591.27
703.023	1619.94
703.212	1570.79
703.4	1632.23
703.589	1708.01
703.777	1628.14
703.965	1492.97
704.154	1585.13
704.342	1636.33
704.531	1632.23
704.719	1640.42
704.907	1660.9
705.096	1656.81
705.284	1605.61
705.472	1683.43
705.661	1665
705.849	1722.34
706.037	1675.24
706.226	1708.01
706.414	1738.73
706.602	1691.62
706.79	1611.75
706.979	1746.92
707.167	1669.09
707.355	1636.33
707.543	1617.9
707.731	1699.81
707.919	1722.34
708.107	1695.72
708.296	1626.09
708.484	1679.33
708.672	1685.48
708.86	1738.73
709.048	1644.52
709.236	1697.77
709.424	1701.86
709.612	1558.5
709.8	1667.05
709.988	1648.61
710.176	1761.25
710.364	1781.73
710.551	1708.01
710.739	1615.85
710.927	1685.48
711.115	1665
711.303	1648.61
711.491	1771.49
711.679	1720.29
711.866	1722.34
712.054	1681.38
712.242	1658.85
712.43	1738.73
712.617	1654.76
712.805	1746.92
712.993	1716.2
713.181	1660.9
713.368	1771.49
713.556	1834.98
713.744	1701.86
713.931	1748.97
714.119	1742.82
714.306	1732.58
714.494	1742.82
714.682	1644.52
714.869	1759.21
715.057	1767.4
715.244	1644.52
715.432	1681.38
715.619	1779.68
715.807	1677.29
715.994	1759.21
716.182	1685.48
716.369	1728.49
716.556	1767.4
716.744	1640.42
716.931	1628.14
717.119	1634.28
717.306	1646.57
717.493	1710.05
717.681	1724.39
717.868	1617.9
718.055	1712.1
718.242	1650.66
718.43	1660.9
718.617	1650.66
718.804	1710.05
718.991	1820.64
719.179	1828.84
719.366	1718.25
719.553	1710.05
719.74	1689.57
719.927	1716.2
720.114	1765.35
720.301	1761.25
720.488	1705.96
720.676	1802.21
720.863	1714.15
721.05	1744.87
721.237	1720.29
721.424	1673.19
721.611	1726.44
721.798	1732.58
721.985	1759.21
722.172	1673.19
722.358	1617.9
722.545	1648.61
722.732	1705.96
722.919	1667.05
723.106	1705.96
723.293	1722.34
723.48	1648.61
723.667	1621.99
723.853	1722.34
724.04	1697.77
724.227	1728.49
724.414	1716.2
724.6	1613.8
724.787	1683.43
724.974	1705.96
725.161	1724.39
725.347	1699.81
725.534	1615.85
725.72	1689.57
725.907	1703.91
726.094	1681.38
726.28	1576.94
726.467	1710.05
726.653	1730.53
726.84	1714.15
727.027	1755.11
727.213	1748.97
727.4	1806.31
727.586	1714.15
727.773	1587.18
727.959	1705.96
728.145	1716.2
728.332	1669.09
728.518	1609.7
728.705	1673.19
728.891	1722.34
729.077	1632.23
729.264	1609.7
729.45	1644.52
729.636	1589.22
729.823	1632.23
730.009	1648.61
730.195	1726.44
730.382	1658.85
730.568	1673.19
730.754	1599.46
730.94	1648.61
731.126	1650.66
731.313	1705.96
731.499	1685.48
731.685	1705.96
731.871	1605.61
732.057	1652.71
732.243	1624.04
732.429	1558.5
732.615	1640.42
732.801	1624.04
732.987	1624.04
733.173	1568.74
733.359	1558.5
733.545	1564.65
733.731	1570.79
733.917	1634.28
734.103	1554.41
734.289	1599.46
734.475	1595.37
734.661	1730.53
734.847	1597.42
735.033	1648.61
735.219	1636.33
735.404	1505.26
735.59	1654.76
735.776	1501.16
735.962	1607.66
736.148	1583.08
736.333	1578.98
736.519	1542.12
736.705	1527.78
736.89	1585.13
737.076	1527.78
737.262	1556.46
737.447	1626.09
737.633	1509.35
737.819	1585.13
738.004	1517.54
738.19	1558.5
738.375	1599.46
738.561	1462.25
738.747	1558.5
738.932	1435.63
739.118	1542.12
739.303	1478.63
739.489	1484.78
739.674	1548.26
739.859	1531.88
740.045	1546.22
740.23	1443.82
740.416	1519.59
740.601	1468.39
740.786	1419.24
740.972	1583.08
741.157	1351.66
741.342	1421.29
741.528	1437.67
741.713	1439.72
741.898	1431.53
742.084	1454.06
742.269	1347.56
742.454	1470.44
742.639	1378.28
742.824	1427.43
743.01	1433.58
743.195	1396.71
743.38	1433.58
743.565	1376.23
743.75	1380.33
743.935	1357.8
744.12	1476.59
744.305	1349.61
744.49	1398.76
744.675	1370.09
744.86	1421.29
745.045	1374.19
745.23	1331.18
745.415	1388.52
745.6	1255.4
745.785	1341.42
745.97	1335.28
746.155	1298.41
746.34	1345.52
746.525	1247.21
746.71	1318.89
746.895	1288.17
747.079	1212.4
747.264	1249.26
747.449	1296.36
747.634	1347.56
747.819	1345.52
748.003	1335.28
748.188	1275.88
748.373	1202.16
748.557	1314.8
748.742	1232.88
748.927	1234.93
749.111	1232.88
749.296	1183.73
749.481	1263.6
749.665	1279.98
749.85	1177.58
750.034	1128.43
750.219	1181.68
750.404	1173.49
750.588	1173.49
750.773	1042.42
750.957	1073.14
751.141	1118.19
751.326	1191.92
751.51	1071.09
751.695	1105.9
751.879	1097.71
752.064	1167.34
752.248	1042.42
752.432	1081.33
752.617	1071.09
752.801	1075.18
752.985	1038.32
753.17	1103.86
753.354	1021.94
753.538	983.03
753.722	962.55
753.907	985.07
754.091	1017.84
754.275	1028.08
754.459	919.54
754.643	995.31
754.828	1021.94
755.012	1042.42
755.196	964.59
755.38	1009.65
755.564	952.31
755.748	976.88
755.932	970.74
756.116	899.06
756.3	862.19
756.484	905.2
756.668	923.63
756.852	854
757.036	870.39
757.22	878.58
757.404	870.39
757.588	849.91
757.772	847.86
757.956	919.54
758.14	937.97
758.323	854
758.507	915.44
758.691	843.76
758.875	882.67
759.059	927.73
759.242	823.28
759.426	899.06
759.61	792.56
759.794	767.99
759.977	829.43
760.161	847.86
760.345	796.66
760.528	903.15
760.712	806.9
760.895	759.8
761.079	837.62
761.263	845.81
761.446	815.09
761.63	761.84
761.813	741.36
761.997	800.76
762.18	700.41
762.364	860.15
762.547	722.93
762.731	798.71
762.914	782.32
763.098	731.12
763.281	763.89
763.464	786.42
763.648	761.84
763.831	722.93
764.015	714.74
764.198	714.74
764.381	698.36
764.564	710.65
764.748	757.75
764.931	743.41
765.114	724.98
765.297	761.84
765.481	755.7
765.664	628.73
765.847	749.56
766.03	681.97
766.213	759.8
766.397	684.02
766.58	636.92
766.763	741.36
766.946	694.26
767.129	610.29
767.312	690.17
767.495	632.82
767.678	591.86
767.861	671.73
768.044	593.91
768.227	626.68
768.41	671.73
768.593	641.01
768.776	679.93
768.959	587.77
769.142	727.03
769.324	600.05
769.507	694.26
769.69	559.1
769.873	647.16
770.056	677.88
770.239	661.49
770.421	677.88
770.604	655.35
770.787	628.73
770.97	653.3
771.152	649.21
771.335	630.77
771.518	612.34
771.7	643.06
771.883	636.92
772.066	505.85
772.248	632.82
772.431	643.06
772.613	641.01
772.796	532.47
772.978	591.86
773.161	634.87
773.343	520.18
773.526	462.84
773.708	602.1
773.891	501.75
774.073	591.86
774.256	501.75
774.438	645.11
774.621	464.89
774.803	579.58
774.985	530.42
775.168	583.67
775.35	460.79
775.532	614.39
775.715	448.51
775.897	509.94
776.079	511.99
776.261	567.29
776.444	432.12
776.626	481.27
776.808	493.56
776.99	456.7
777.173	468.98
777.355	509.94
777.537	466.94
777.719	370.68
777.901	505.85
778.083	468.98
778.265	460.79
778.447	423.93
778.629	436.22
778.811	428.03
778.993	534.52
779.175	481.27
779.357	430.07
779.539	428.03
779.721	425.98
779.903	421.88
780.085	452.6
780.267	436.22
780.449	468.98
780.631	428.03
780.812	419.83
780.994	481.27
781.176	413.69
781.358	415.74
781.54	378.87
781.721	405.5
781.903	421.88
782.085	354.3
782.267	370.68
782.448	354.3
782.63	389.11
782.812	382.97
782.993	317.44
783.175	395.26
783.357	329.72
783.538	382.97
783.72	350.2
783.901	348.15
784.083	391.16
784.264	337.91
784.446	321.53
784.627	350.2
784.809	362.49
784.99	317.44
785.172	364.54
785.353	348.15
785.535	391.16
785.716	264.19
785.897	317.44
786.079	370.68
786.26	317.44
786.441	362.49
786.623	305.15
786.804	362.49
786.985	290.81
787.167	290.81
787.348	309.24
787.529	329.72
787.71	342.01
787.891	280.57
788.073	280.57
788.254	264.19
788.435	305.15
788.616	303.1
788.797	249.85
788.978	288.76
789.159	276.48
789.34	301.05
789.522	258.04
789.703	292.86
789.884	256
790.065	215.04
790.246	329.72
790.427	223.23
790.607	284.67
790.788	260.09
790.969	217.08
791.15	299
791.331	264.19
791.512	309.24
791.693	231.42
791.874	159.74
792.054	342.01
792.235	247.8
792.416	182.27
792.597	284.67
792.778	241.66
792.958	296.96
793.139	260.09
793.32	231.42
793.5	206.84
793.681	294.91
793.862	290.81
794.042	258.04
794.223	223.23
794.404	225.28
794.584	67.58
794.765	288.76
794.945	241.66
795.126	200.7
795.306	202.75
795.487	133.12
795.667	215.04
795.848	260.09
796.028	204.8
796.209	188.41
796.389	235.52
796.57	200.7
796.75	200.7
796.93	215.04
797.111	182.27
797.291	196.61
797.471	268.28
797.652	174.08
797.832	223.23
798.012	165.89
798.192	143.36
798.373	194.56
798.553	200.7
798.733	167.93
798.913	174.08
799.093	215.04
799.274	200.7
799.454	153.6
799.634	223.23
799.814	208.89
799.994	253.95
800.174	198.65
800.354	190.46
800.534	124.93
800.714	272.38
800.894	98.3
801.074	223.23
801.254	217.08
801.434	206.84
801.614	190.46
801.794	110.59
801.974	731.12
802.154	219.13
802.334	163.84
802.514	182.27
802.693	98.3
802.873	229.37
803.053	165.89
803.233	135.17
803.413	247.8
803.592	145.41
803.772	190.46
803.952	120.83
804.131	83.97
804.311	153.6
804.491	182.27
804.67	178.17
804.85	141.31
805.03	249.85
805.209	110.59
805.389	92.16
805.568	208.89
805.748	92.16
805.928	151.55
806.107	161.79
806.287	210.94
806.466	137.21
806.646	169.98
806.825	133.12
807.004	165.89
807.184	206.84
807.363	153.6
807.543	100.35
807.722	116.73
807.901	92.16
808.081	120.83
808.26	100.35
808.439	75.77
808.619	86.01
808.798	55.3
808.977	176.13
809.156	86.01
809.336	126.97
809.515	231.42
809.694	143.36
809.873	149.5
810.052	110.59
810.231	86.01
810.411	122.88
810.59	145.41
810.769	100.35
810.948	145.41
811.127	51.2
811.306	116.73
811.485	90.11
811.664	51.2
811.843	100.35
812.022	174.08
812.201	149.5
812.38	47.1
812.559	96.25
812.737	143.36
812.916	79.87
813.095	116.73
813.274	104.45
813.453	169.98
813.632	145.41
813.811	112.64
813.989	88.06
814.168	192.51
814.347	75.77
814.526	83.97
814.704	147.45
814.883	94.21
815.062	49.15
815.24	153.6
815.419	45.06
815.598	51.2
815.776	45.06
815.955	116.73
816.133	26.62
816.312	86.01
816.49	47.1
816.669	59.39
816.847	57.34
817.026	55.3
817.204	108.54
817.383	75.77
817.561	102.4
817.74	102.4
817.918	88.06
818.097	141.31
818.275	137.21
818.453	104.45
818.632	88.06
818.81	45.06
818.988	65.54
819.167	65.54
819.345	67.58
819.523	24.58
819.701	40.96
819.879	90.11
820.058	112.64
820.236	-26.62
820.414	57.34
820.592	38.91
820.77	116.73
820.948	118.78
821.127	92.16
821.305	6.14
821.483	118.78
821.661	122.88
821.839	71.68
822.017	38.91
822.195	102.4
822.373	69.63
822.551	96.25
822.729	149.5
822.907	75.77
823.085	67.58
823.262	108.54
823.44	53.25
823.618	26.62
823.796	67.58
823.974	20.48
824.152	83.97
824.329	106.49
824.507	92.16
824.685	67.58
824.863	59.39
825.04	71.68
825.218	75.77
825.396	43.01
825.574	96.25
825.751	43.01
825.929	116.73
826.107	-6.14
826.284	110.59
826.462	67.58
826.639	75.77
826.817	133.12
826.994	108.54
827.172	102.4
827.349	145.41
827.527	57.34
827.704	45.06
827.882	51.2
828.059	100.35
828.237	57.34
828.414	112.64
828.591	131.07
828.769	22.53
828.946	69.63
829.124	88.06
829.301	55.3
829.478	92.16
829.655	59.39
829.833	118.78
830.01	22.53
830.187	110.59
830.364	20.48
830.542	92.16
830.719	88.06
830.896	159.74
831.073	88.06
831.25	102.4
831.427	38.91
831.604	77.82
831.782	20.48
831.959	61.44
832.136	-30.72
832.313	22.53
832.49	83.97
832.667	53.25
832.844	38.91
833.021	57.34
833.198	43.01
833.374	169.98
833.551	18.43
833.728	12.29
833.905	-18.43
834.082	61.44
834.259	14.34
834.436	83.97
834.612	43.01
834.789	96.25
834.966	-22.53
835.143	141.31
835.319	59.39
835.496	18.43
835.673	16.38
835.85	36.86
836.026	67.58
836.203	94.21
836.38	63.49
836.556	12.29
836.733	4.1
836.909	51.2
837.086	14.34
837.262	67.58
837.439	-28.67
837.616	77.82
837.792	92.16
837.968	57.34
838.145	-30.72
838.321	67.58
838.498	-2.05
838.674	43.01
838.851	55.3
839.027	26.62
839.203	30.72
839.38	75.77
839.556	-45.06
839.732	69.63
839.909	53.25
840.085	26.62
840.261	10.24
840.437	67.58
840.614	-14.34
840.79	22.53
840.966	59.39
841.142	34.82
841.318	38.91
841.494	75.77
841.671	14.34
841.847	-51.2
842.023	-6.14
842.199	59.39
842.375	10.24
842.551	-38.91
842.727	-4.1
842.903	71.68
843.079	47.1
843.255	45.06
843.431	-45.06
843.607	63.49
843.783	-6.14
843.959	59.39
844.134	51.2
844.31	96.25
844.486	28.67
844.662	22.53
844.838	-20.48
845.013	49.15
845.189	98.3
845.365	71.68
845.541	34.82
845.716	20.48
845.892	-38.91
846.068	-34.82
846.244	28.67
846.419	51.2
846.595	-53.25
846.77	-28.67
846.946	2.05
847.122	34.82
847.297	6.14
847.473	14.34
847.648	36.86
847.824	-16.38
847.999	45.06
848.175	-4.1
848.35	71.68
848.526	43.01
848.701	20.48
848.876	88.06
849.052	40.96
849.227	26.62
849.403	14.34
849.578	38.91
849.753	6.14
849.929	108.54
850.104	-100.35
850.279	-75.77
850.454	-8.19
850.63	86.01
850.805	34.82
850.98	67.58
851.155	45.06
851.33	30.72
851.505	20.48
851.681	51.2
851.856	-32.77
852.031	14.34
852.206	10.24
852.381	47.1
852.556	-6.14
852.731	47.1
852.906	30.72
853.081	14.34
853.256	-18.43
853.431	28.67
853.606	26.62
853.781	4.1
853.956	-53.25
854.131	49.15
854.305	-20.48
854.48	-88.06
854.655	-14.34
854.83	24.58
855.005	-18.43
855.18	4.1
855.354	-2.05
855.529	94.21
855.704	38.91
855.879	10.24
856.053	4.1
856.228	-6.14
856.403	-4.1
856.577	69.63
856.752	-38.91
856.926	28.67
857.101	18.43
857.276	36.86
857.45	51.2
857.625	26.62
857.799	-28.67
857.974	-6.14
858.148	-6.14
858.323	18.43
858.497	-14.34
858.672	45.06
858.846	69.63
859.02	4.1
859.195	28.67
859.369	45.06
859.543	-38.91
859.718	12.29
859.892	34.82
860.066	43.01
860.241	-16.38
860.415	18.43
860.589	51.2
860.763	34.82
860.938	-16.38
861.112	2.05
861.286	30.72
861.46	59.39
861.634	6.14
861.808	36.86
861.982	-43.01
862.157	10.24
862.331	45.06
862.505	-63.49
862.679	69.63
862.853	34.82
863.027	-4.1
863.201	20.48
863.375	2.05
863.549	47.1
863.722	-63.49
863.896	8.19
864.07	12.29
864.244	53.25
864.418	34.82
864.592	6.14
864.766	40.96
864.939	-22.53
865.113	65.54
865.287	43.01
865.461	-45.06
865.634	51.2
865.808	38.91
865.982	-12.29
866.156	26.62
866.329	4.1
866.503	-51.2
866.676	22.53
866.85	-32.77
867.024	-22.53
867.197	8.19
867.371	83.97
867.544	102.4
867.718	-2.05
867.891	-18.43
868.065	36.86
868.238	10.24
868.412	61.44
868.585	-12.29
868.759	30.72
868.932	4.1
869.105	-2.05
869.279	-4.1
869.452	-38.91
869.625	-57.34
869.799	100.35
869.972	-22.53
870.145	-69.63
870.319	18.43
870.492	28.67
870.665	10.24
870.838	-22.53
871.011	-22.53
871.185	-34.82
871.358	-20.48
871.531	-47.1
871.704	-32.77
871.877	51.2
872.05	28.67
872.223	-26.62
872.396	18.43
872.569	-77.82
872.742	-63.49
872.915	2.05
873.088	-55.3
873.261	-20.48
873.434	-63.49
873.607	12.29
873.78	6.14
873.953	-45.06
874.126	4.1
874.299	-18.43
874.471	94.21
874.644	-16.38
874.817	-6.14
874.99	-10.24
875.163	-2.05
875.335	38.91
875.508	-49.15
875.681	-14.34
875.853	-2.05
876.026	-14.34
876.199	2.05
876.371	-63.49
876.544	30.72
876.717	14.34
876.889	22.53
877.062	100.35
877.234	-18.43
877.407	-100.35
877.579	-36.86
877.752	-24.58
877.924	-2.05
878.097	-36.86
878.269	-59.39
878.442	-53.25
878.614	100.35
878.786	30.72
878.959	18.43
879.131	-34.82
879.303	-47.1
879.476	38.91
879.648	-47.1
879.82	12.29
879.993	-51.2
880.165	12.29
880.337	-47.1
880.509	83.97
880.681	18.43
880.854	-38.91
881.026	2.05
881.198	59.39
881.37	12.29
881.542	34.82
881.714	4.1
881.886	59.39
882.058	-45.06
882.23	92.16
882.402	-20.48
882.574	90.11
882.746	43.01
882.918	69.63
883.09	-4.1
883.262	-22.53
883.434	-2.05
883.606	10.24
883.778	-14.34
883.95	-22.53
884.122	-6.14
884.293	-26.62
884.465	-30.72
884.637	14.34
884.809	2.05
884.98	0
885.152	10.24
885.324	-6.14
885.496	-28.67
885.667	63.49
885.839	-6.14
886.011	16.38
886.182	-6.14
886.354	55.3
886.525	-16.38
886.697	-36.86
886.869	2.05
887.04	-71.68
887.212	51.2
887.383	69.63
887.555	-92.16
887.726	26.62
887.897	-10.24
888.069	18.43
888.24	-38.91
888.412	-55.3
888.583	-26.62
888.754	98.3
888.926	-4.1
889.097	38.91
889.268	12.29
889.44	-10.24
889.611	-96.25
889.782	61.44
889.953	-43.01
890.125	79.87
890.296	-51.2
890.467	8.19
890.638	-28.67
890.809	10.24
890.98	43.01
891.151	30.72
891.323	-28.67
891.494	-10.24
891.665	-34.82
891.836	6.14
892.007	22.53
892.178	-26.62
892.349	-16.38
892.52	71.68
892.691	-88.06
892.862	-63.49
893.032	-75.77
893.203	4.1
893.374	-14.34
893.545	26.62
893.716	26.62
893.887	77.82
894.057	10.24
894.228	-24.58
894.399	-65.53
894.57	30.72
894.74	45.06
894.911	2.05
895.082	51.2
895.253	-12.29
895.423	-45.06
895.594	2.05
895.764	-6.14
895.935	6.14
896.106	92.16
896.276	47.1
896.447	-26.62
896.617	-8.19
896.788	-4.1
896.958	59.39
897.129	-55.3
897.299	-63.49
897.47	8.19
897.64	-4.1
897.81	45.06
897.981	45.06
898.151	10.24
898.322	-22.53
898.492	-36.86
898.662	75.77
898.832	-43.01
899.003	-12.29
899.173	22.53
899.343	32.77
899.513	0
