Data from USB4F104151__244__14-45-48-323.txt Node

Date: Thu Mar 13 14:45:48 EDT 2025
User: louis
Spectrometer: USB4F10415
Trigger mode: 4
Integration Time (sec): 2.000000E-2
Scans to average: 1
Electric dark correction enabled: true
Nonlinearity correction enabled: false
Boxcar width: 0
XAxis mode: Wavelengths
Number of Pixels in Spectrum: 3648
>>>>>Begin Spectral Data<<<<<
178.204	-98.64
178.424	-98.64
178.644	-98.64
178.864	-131.41
179.084	-96.6
179.304	-47.44
179.524	46.76
179.744	24.23
179.964	1.71
180.184	24.23
180.404	40.62
180.624	7.85
180.844	-16.73
181.064	-47.44
181.283	-26.96
181.503	-8.53
181.723	1.71
181.943	-12.63
182.163	89.77
182.383	-29.01
182.602	59.05
182.822	87.72
183.042	-22.87
183.262	-22.87
183.482	16.04
183.701	-16.73
183.921	50.86
184.141	7.85
184.361	34.47
184.58	18.09
184.8	24.23
185.02	-20.82
185.239	65.19
185.459	85.67
185.679	69.29
185.898	-96.6
186.118	69.29
186.338	-0.34
186.557	1.71
186.777	36.52
186.997	-12.63
187.216	34.47
187.436	91.82
187.655	36.52
187.875	85.67
188.095	50.86
188.314	81.58
188.534	46.76
188.753	-2.39
188.973	-12.63
189.192	9.9
189.412	50.86
189.631	16.04
189.851	48.81
190.07	42.67
190.29	-16.73
190.509	18.09
190.729	-29.01
190.948	52.91
191.168	71.34
191.387	65.19
191.607	7.85
191.826	50.86
192.045	116.39
192.265	57
192.484	3.75
192.704	75.43
192.923	-39.25
193.142	100.01
193.362	32.43
193.581	52.91
193.8	48.81
194.02	18.09
194.239	65.19
194.458	52.91
194.678	-49.49
194.897	50.86
195.116	44.71
195.335	7.85
195.555	-20.82
195.774	24.23
195.993	40.62
196.212	22.19
196.432	26.28
196.651	57
196.87	42.67
197.089	73.39
197.308	93.87
197.528	-14.68
197.747	-0.34
197.966	16.04
198.185	40.62
198.404	-6.49
198.623	-24.92
198.842	77.48
199.062	-0.34
199.281	16.04
199.5	-14.68
199.719	67.24
199.938	73.39
200.157	71.34
200.376	20.14
200.595	11.95
200.814	57
201.033	83.63
201.252	7.85
201.471	13.99
201.69	16.04
201.909	50.86
202.128	57
202.347	57
202.566	-26.96
202.785	20.14
203.004	40.62
203.223	85.67
203.442	7.85
203.661	-29.01
203.879	-29.01
204.098	65.19
204.317	-31.06
204.536	7.85
204.755	-59.73
204.974	114.34
205.193	-8.53
205.411	97.96
205.63	67.24
205.849	-16.73
206.068	-0.34
206.287	-22.87
206.505	-31.06
206.724	48.81
206.943	65.19
207.162	-6.49
207.381	-37.2
207.599	57
207.818	75.43
208.037	-4.44
208.255	42.67
208.474	-16.73
208.693	32.43
208.911	13.99
209.13	-14.68
209.349	65.19
209.567	40.62
209.786	-8.53
210.005	34.47
210.223	-22.87
210.442	7.85
210.661	57
210.879	48.81
211.098	18.09
211.316	65.19
211.535	52.91
211.753	69.29
211.972	59.05
212.191	-39.25
212.409	9.9
212.628	16.04
212.846	-12.63
213.065	28.33
213.283	134.82
213.502	44.71
213.72	100.01
213.938	-4.44
214.157	79.53
214.375	-29.01
214.594	-8.53
214.812	40.62
215.031	-12.63
215.249	-22.87
215.467	-0.34
215.686	-0.34
215.904	26.28
216.122	26.28
216.341	73.39
216.559	40.62
216.778	57
216.996	67.24
217.214	-4.44
217.432	-37.2
217.651	-8.53
217.869	40.62
218.087	40.62
218.306	-8.53
218.524	65.19
218.742	-4.44
218.96	50.86
219.179	22.19
219.397	50.86
219.615	50.86
219.833	89.77
220.051	44.71
220.27	-33.11
220.488	65.19
220.706	44.71
220.924	9.9
221.142	30.38
221.36	-33.11
221.578	-6.49
221.796	65.19
222.015	52.91
222.233	-14.68
222.451	52.91
222.669	-53.59
222.887	149.16
223.105	-76.12
223.323	24.23
223.541	42.67
223.759	1.71
223.977	3.75
224.195	65.19
224.413	57
224.631	16.04
224.849	32.43
225.067	143.02
225.285	20.14
225.503	-2.39
225.721	24.23
225.939	-20.82
226.157	38.57
226.375	54.95
226.592	16.04
226.81	16.04
227.028	108.2
227.246	81.58
227.464	52.91
227.682	61.1
227.9	11.95
228.117	34.47
228.335	-0.34
228.553	-35.16
228.771	-10.58
228.989	106.15
229.206	-33.11
229.424	22.19
229.642	54.95
229.86	11.95
230.077	73.39
230.295	18.09
230.513	77.48
230.731	67.24
230.948	61.1
231.166	36.52
231.384	1.71
231.601	-26.96
231.819	122.54
232.037	-0.34
232.254	-20.82
232.472	-37.2
232.689	11.95
232.907	9.9
233.125	24.23
233.342	26.28
233.56	79.53
233.777	65.19
233.995	16.04
234.213	48.81
234.43	34.47
234.648	16.04
234.865	34.47
235.083	95.91
235.3	114.34
235.518	-74.07
235.735	5.8
235.953	102.06
236.17	44.71
236.388	32.43
236.605	-6.49
236.822	65.19
237.04	1.71
237.257	-0.34
237.475	-41.3
237.692	34.47
237.909	18.09
238.127	-82.26
238.344	26.28
238.562	59.05
238.779	16.04
238.996	-16.73
239.214	-4.44
239.431	57
239.648	11.95
239.865	50.86
240.083	67.24
240.3	46.76
240.517	24.23
240.735	7.85
240.952	20.14
241.169	40.62
241.386	38.57
241.603	-0.34
241.821	-8.53
242.038	7.85
242.255	13.99
242.472	20.14
242.689	50.86
242.907	11.95
243.124	-2.39
243.341	73.39
243.558	-41.3
243.775	40.62
243.992	3.75
244.209	52.91
244.426	69.29
244.643	75.43
244.86	-14.68
245.078	11.95
245.295	16.04
245.512	50.86
245.729	67.24
245.946	5.8
246.163	-24.92
246.38	3.75
246.597	91.82
246.814	91.82
247.031	20.14
247.248	81.58
247.464	13.99
247.681	50.86
247.898	57
248.115	61.1
248.332	-4.44
248.549	110.25
248.766	81.58
248.983	59.05
249.2	-18.77
249.417	9.9
249.633	16.04
249.85	16.04
250.067	59.05
250.284	44.71
250.501	46.76
250.717	-12.63
250.934	11.95
251.151	-59.73
251.368	18.09
251.585	7.85
251.801	75.43
252.018	48.81
252.235	-37.2
252.451	40.62
252.668	57
252.885	81.58
253.102	75.43
253.318	-31.06
253.535	-20.82
253.752	28.33
253.968	1.71
254.185	85.67
254.401	57
254.618	59.05
254.835	-33.11
255.051	65.19
255.268	-37.2
255.484	-6.49
255.701	48.81
255.917	42.67
256.134	-39.25
256.351	48.81
256.567	18.09
256.784	-41.3
257	7.85
257.217	-4.44
257.433	3.75
257.65	75.43
257.866	-0.34
258.082	-47.44
258.299	13.99
258.515	26.28
258.732	-43.35
258.948	16.04
259.165	22.19
259.381	-24.92
259.597	-24.92
259.814	36.52
260.03	69.29
260.246	-33.11
260.463	124.58
260.679	28.33
260.895	57
261.112	89.77
261.328	81.58
261.544	-35.16
261.761	118.44
261.977	61.1
262.193	40.62
262.409	83.63
262.626	-8.53
262.842	26.28
263.058	-14.68
263.274	28.33
263.49	65.19
263.707	100.01
263.923	61.1
264.139	-29.01
264.355	42.67
264.571	149.16
264.787	48.81
265.004	18.09
265.22	67.24
265.436	-31.06
265.652	-49.49
265.868	110.25
266.084	-59.73
266.3	42.67
266.516	7.85
266.732	-0.34
266.948	-49.49
267.164	50.86
267.38	16.04
267.596	-14.68
267.812	69.29
268.028	61.1
268.244	-29.01
268.46	1.71
268.676	77.48
268.892	81.58
269.108	-8.53
269.324	-37.2
269.54	-8.53
269.756	97.96
269.972	-39.25
270.188	7.85
270.403	-33.11
270.619	-24.92
270.835	-12.63
271.051	57
271.267	7.85
271.483	26.28
271.698	-29.01
271.914	-61.78
272.13	-0.34
272.346	13.99
272.562	24.23
272.777	65.19
272.993	79.53
273.209	16.04
273.425	61.1
273.64	24.23
273.856	24.23
274.072	-8.53
274.287	-20.82
274.503	-49.49
274.719	-10.58
274.934	-22.87
275.15	32.43
275.366	-45.4
275.581	-33.11
275.797	57
276.012	1.71
276.228	24.23
276.444	-6.49
276.659	18.09
276.875	-24.92
277.09	24.23
277.306	20.14
277.521	-0.34
277.737	-4.44
277.952	59.05
278.168	28.33
278.383	57
278.599	-12.63
278.814	59.05
279.03	34.47
279.245	57
279.461	28.33
279.676	44.71
279.892	-45.4
280.107	-2.39
280.322	130.73
280.538	-8.53
280.753	-16.73
280.969	28.33
281.184	11.95
281.399	106.15
281.615	30.38
281.83	61.1
282.045	-2.39
282.26	-41.3
282.476	-14.68
282.691	65.19
282.906	-20.82
283.122	59.05
283.337	36.52
283.552	24.23
283.767	16.04
283.983	20.14
284.198	7.85
284.413	46.76
284.628	-24.92
284.843	-47.44
285.058	85.67
285.274	46.76
285.489	26.28
285.704	22.19
285.919	-16.73
286.134	13.99
286.349	85.67
286.564	42.67
286.779	85.67
286.995	32.43
287.21	-10.58
287.425	81.58
287.64	-0.34
287.855	73.39
288.07	9.9
288.285	81.58
288.5	75.43
288.715	16.04
288.93	-24.92
289.145	-41.3
289.36	11.95
289.575	-4.44
289.79	26.28
290.004	48.81
290.219	38.57
290.434	48.81
290.649	-2.39
290.864	1.71
291.079	24.23
291.294	-2.39
291.509	34.47
291.724	65.19
291.938	22.19
292.153	85.67
292.368	24.23
292.583	-41.3
292.798	-8.53
293.012	52.91
293.227	-26.96
293.442	40.62
293.657	44.71
293.871	151.21
294.086	18.09
294.301	97.96
294.516	71.34
294.73	40.62
294.945	-6.49
295.16	20.14
295.374	83.63
295.589	-8.53
295.804	-0.34
296.018	34.47
296.233	-8.53
296.447	-4.44
296.662	11.95
296.877	65.19
297.091	91.82
297.306	24.23
297.52	28.33
297.735	18.09
297.949	3.75
298.164	81.58
298.378	-53.59
298.593	36.52
298.807	-16.73
299.022	57
299.236	-33.11
299.451	40.62
299.665	42.67
299.88	-16.73
300.094	-57.68
300.309	75.43
300.523	44.71
300.737	40.62
300.952	11.95
301.166	3.75
301.381	-22.87
301.595	-31.06
301.809	79.53
302.024	24.23
302.238	1.71
302.452	28.33
302.667	28.33
302.881	18.09
303.095	26.28
303.309	48.81
303.524	32.43
303.738	36.52
303.952	-6.49
304.166	44.71
304.381	-63.83
304.595	89.77
304.809	-12.63
305.023	118.44
305.237	106.15
305.452	22.19
305.666	-6.49
305.88	-47.44
306.094	24.23
306.308	32.43
306.522	79.53
306.736	9.9
306.95	87.72
307.164	77.48
307.379	-8.53
307.593	59.05
307.807	77.48
308.021	32.43
308.235	32.43
308.449	16.04
308.663	34.47
308.877	83.63
309.091	57
309.305	34.47
309.519	-37.2
309.733	44.71
309.947	5.8
310.161	20.14
310.374	13.99
310.588	89.77
310.802	9.9
311.016	1.71
311.23	-33.11
311.444	11.95
311.658	7.85
311.872	38.57
312.085	36.52
312.299	9.9
312.513	100.01
312.727	24.23
312.941	-47.44
313.154	50.86
313.368	-18.77
313.582	24.23
313.796	50.86
314.009	7.85
314.223	93.87
314.437	36.52
314.651	7.85
314.864	-41.3
315.078	61.1
315.292	-8.53
315.505	42.67
315.719	3.75
315.933	-33.11
316.146	48.81
316.36	3.75
316.573	24.23
316.787	93.87
317.001	20.14
317.214	-49.49
317.428	20.14
317.641	18.09
317.855	-12.63
318.068	16.04
318.282	59.05
318.495	77.48
318.709	61.1
318.922	61.1
319.136	54.95
319.349	73.39
319.563	42.67
319.776	-10.58
319.99	1.71
320.203	67.24
320.417	18.09
320.63	-29.01
320.843	-20.82
321.057	85.67
321.27	57
321.483	1.71
321.697	11.95
321.91	7.85
322.124	1.71
322.337	-49.49
322.55	9.9
322.763	7.85
322.977	7.85
323.19	73.39
323.403	-37.2
323.617	-10.58
323.83	65.19
324.043	34.47
324.256	67.24
324.469	69.29
324.683	63.15
324.896	-41.3
325.109	20.14
325.322	16.04
325.535	69.29
325.748	1.71
325.962	24.23
326.175	28.33
326.388	-8.53
326.601	40.62
326.814	28.33
327.027	24.23
327.24	65.19
327.453	-37.2
327.666	48.81
327.879	59.05
328.092	57
328.305	97.96
328.518	20.14
328.731	48.81
328.944	-0.34
329.157	-82.26
329.37	-6.49
329.583	63.15
329.796	-39.25
330.009	-16.73
330.222	122.54
330.435	26.28
330.648	26.28
330.861	-33.11
331.073	24.23
331.286	-14.68
331.499	11.95
331.712	26.28
331.925	9.9
332.138	57
332.35	79.53
332.563	-4.44
332.776	118.44
332.989	-14.68
333.202	24.23
333.414	34.47
333.627	85.67
333.84	40.62
334.053	122.54
334.265	24.23
334.478	-0.34
334.691	24.23
334.903	-26.96
335.116	7.85
335.329	16.04
335.541	122.54
335.754	65.19
335.966	-57.68
336.179	59.05
336.392	-8.53
336.604	18.09
336.817	-12.63
337.029	79.53
337.242	-31.06
337.454	-20.82
337.667	-29.01
337.88	16.04
338.092	52.91
338.305	83.63
338.517	38.57
338.729	75.43
338.942	57
339.154	-33.11
339.367	-24.92
339.579	34.47
339.792	26.28
340.004	61.1
340.217	-29.01
340.429	-14.68
340.641	59.05
340.854	11.95
341.066	-6.49
341.278	42.67
341.491	91.82
341.703	-22.87
341.915	61.1
342.128	38.57
342.34	-41.3
342.552	-18.77
342.764	85.67
342.977	-20.82
343.189	20.14
343.401	-22.87
343.613	-108.88
343.826	59.05
344.038	-45.4
344.25	75.43
344.462	16.04
344.674	147.11
344.886	-4.44
345.099	65.19
345.311	44.71
345.523	75.43
345.735	-8.53
345.947	93.87
346.159	42.67
346.371	-59.73
346.583	50.86
346.795	97.96
347.007	-24.92
347.219	122.54
347.431	-31.06
347.643	130.73
347.855	-2.39
348.067	159.4
348.279	20.14
348.491	24.23
348.703	3.75
348.915	9.9
349.127	48.81
349.339	75.43
349.551	-0.34
349.763	85.67
349.975	-14.68
350.187	118.44
350.399	61.1
350.61	52.91
350.822	3.75
351.034	59.05
351.246	11.95
351.458	73.39
351.669	-31.06
351.881	59.05
352.093	67.24
352.305	-6.49
352.517	57
352.728	28.33
352.94	-10.58
353.152	44.71
353.363	-0.34
353.575	59.05
353.787	57
353.999	57
354.21	124.58
354.422	7.85
354.633	9.9
354.845	18.09
355.057	22.19
355.268	87.72
355.48	65.19
355.692	-24.92
355.903	-16.73
356.115	9.9
356.326	-8.53
356.538	52.91
356.749	13.99
356.961	16.04
357.172	-20.82
357.384	-29.01
357.595	97.96
357.807	-0.34
358.018	7.85
358.23	50.86
358.441	28.33
358.653	42.67
358.864	40.62
359.075	40.62
359.287	24.23
359.498	9.9
359.709	-0.34
359.921	77.48
360.132	48.81
360.344	79.53
360.555	38.57
360.766	36.52
360.977	16.04
361.189	106.15
361.4	-16.73
361.611	52.91
361.823	11.95
362.034	59.05
362.245	-8.53
362.456	-43.35
362.667	26.28
362.879	32.43
363.09	32.43
363.301	26.28
363.512	104.11
363.723	-49.49
363.935	30.38
364.146	-14.68
364.357	75.43
364.568	100.01
364.779	50.86
364.99	114.34
365.201	34.47
365.412	26.28
365.623	-49.49
365.834	7.85
366.045	54.95
366.256	-16.73
366.467	134.82
366.678	59.05
366.889	13.99
367.1	83.63
367.311	116.39
367.522	9.9
367.733	48.81
367.944	-39.25
368.155	-4.44
368.366	65.19
368.577	3.75
368.788	81.58
368.999	-10.58
369.209	28.33
369.42	-8.53
369.631	83.63
369.842	48.81
370.053	-8.53
370.264	-74.07
370.474	81.58
370.685	7.85
370.896	-6.49
371.107	122.54
371.317	81.58
371.528	81.58
371.739	48.81
371.95	81.58
372.16	9.9
372.371	24.23
372.582	3.75
372.792	67.24
373.003	-31.06
373.214	32.43
373.424	-24.92
373.635	28.33
373.846	42.67
374.056	-29.01
374.267	3.75
374.477	73.39
374.688	91.82
374.898	20.14
375.109	32.43
375.319	116.39
375.53	16.04
375.74	20.14
375.951	24.23
376.161	71.34
376.372	79.53
376.582	50.86
376.793	34.47
377.003	48.81
377.214	57
377.424	81.58
377.635	75.43
377.845	-22.87
378.055	52.91
378.266	3.75
378.476	-22.87
378.686	24.23
378.897	-0.34
379.107	48.81
379.317	100.01
379.528	3.75
379.738	52.91
379.948	18.09
380.158	16.04
380.369	52.91
380.579	-0.34
380.789	134.82
380.999	30.38
381.21	-18.77
381.42	138.92
381.63	16.04
381.84	16.04
382.05	-0.34
382.261	65.19
382.471	71.34
382.681	1.71
382.891	73.39
383.101	89.77
383.311	-51.54
383.521	48.81
383.731	7.85
383.941	83.63
384.151	-16.73
384.361	20.14
384.571	114.34
384.781	65.19
384.991	50.86
385.201	89.77
385.411	73.39
385.621	16.04
385.831	73.39
386.041	20.14
386.251	40.62
386.461	100.01
386.671	67.24
386.881	32.43
387.091	85.67
387.301	77.48
387.511	-6.49
387.72	124.58
387.93	89.77
388.14	-10.58
388.35	-24.92
388.56	71.34
388.769	126.63
388.979	44.71
389.189	-0.34
389.399	65.19
389.609	97.96
389.818	124.58
390.028	34.47
390.238	36.52
390.447	-22.87
390.657	63.15
390.867	34.47
391.076	52.91
391.286	-14.68
391.496	67.24
391.705	-0.34
391.915	44.71
392.125	73.39
392.334	28.33
392.544	102.06
392.753	48.81
392.963	-16.73
393.172	73.39
393.382	36.52
393.591	81.58
393.801	61.1
394.01	57
394.22	16.04
394.429	-16.73
394.639	-29.01
394.848	147.11
395.058	81.58
395.267	-39.25
395.477	48.81
395.686	1.71
395.895	61.1
396.105	32.43
396.314	93.87
396.524	116.39
396.733	-16.73
396.942	108.2
397.152	83.63
397.361	134.82
397.57	40.62
397.78	138.92
397.989	134.82
398.198	130.73
398.407	32.43
398.617	40.62
398.826	89.77
399.035	52.91
399.244	97.96
399.453	81.58
399.663	73.39
399.872	106.15
400.081	91.82
400.29	118.44
400.499	67.24
400.708	112.3
400.917	106.15
401.127	67.24
401.336	16.04
401.545	104.11
401.754	97.96
401.963	100.01
402.172	36.52
402.381	57
402.59	73.39
402.799	114.34
403.008	34.47
403.217	126.63
403.426	171.69
403.635	1.71
403.844	128.68
404.053	130.73
404.262	16.04
404.471	126.63
404.68	157.35
404.888	36.52
405.097	5.8
405.306	61.1
405.515	91.82
405.724	120.49
405.933	138.92
406.142	163.5
406.35	173.74
406.559	138.92
406.768	126.63
406.977	91.82
407.185	167.59
407.394	204.46
407.603	179.88
407.812	143.02
408.02	175.78
408.229	167.59
408.438	198.31
408.646	196.26
408.855	155.3
409.064	155.3
409.272	241.32
409.481	179.88
409.69	163.5
409.898	163.5
410.107	220.84
410.315	298.66
410.524	167.59
410.733	292.52
410.941	198.31
411.15	290.47
411.358	229.03
411.567	306.85
411.775	237.22
411.984	339.62
412.192	351.91
412.401	269.99
412.609	347.81
412.818	300.71
413.026	351.91
413.234	384.68
413.443	409.25
413.651	356.01
413.86	405.16
414.068	525.99
414.276	472.74
414.485	474.79
414.693	411.3
414.901	591.52
415.11	507.55
415.318	435.88
415.526	573.09
415.734	536.23
415.943	630.43
416.151	511.65
416.359	622.24
416.567	628.39
416.776	573.09
416.984	693.92
417.192	681.63
417.4	671.39
417.608	679.58
417.817	616.1
418.025	802.46
418.233	857.76
418.441	851.61
418.649	892.57
418.857	943.77
419.065	951.96
419.273	894.62
419.481	974.49
419.689	1054.36
419.897	1060.51
420.105	1097.37
420.313	1072.79
420.521	1152.67
420.729	1244.82
420.937	1230.49
421.145	1261.21
421.353	1277.59
421.561	1285.78
421.769	1343.13
421.977	1552.02
422.185	1396.37
422.393	1509.01
422.601	1560.21
422.809	1597.07
423.017	1582.74
423.224	1734.29
423.432	1765.01
423.64	1670.8
423.848	1836.69
424.056	1883.79
424.263	1943.18
424.471	2014.86
424.679	2031.24
424.887	2215.56
425.094	2168.46
425.302	2215.56
425.51	2377.35
425.718	2383.49
425.925	2410.12
426.133	2432.65
426.341	2612.87
426.548	2762.37
426.756	2678.4
426.964	2795.14
427.171	2809.47
427.379	3014.27
427.586	3024.51
427.794	3108.48
428.001	3202.68
428.209	3503.73
428.417	3513.97
428.624	3581.56
428.832	3630.71
429.039	3634.8
429.247	3587.7
429.454	3909.23
429.662	4333.16
429.869	3964.53
430.076	4218.47
430.284	4132.46
430.491	4292.2
430.699	4390.5
430.906	4533.86
431.114	4562.53
431.321	4757.09
431.528	4879.97
431.736	5119.58
431.943	5471.83
432.15	5148.25
432.358	5271.13
432.565	5693.01
432.772	5549.65
432.979	5783.12
433.187	5844.56
433.394	5981.78
433.601	6374.99
433.808	6319.69
434.016	6331.98
434.223	6577.73
434.43	6975.04
434.637	6798.91
434.844	7308.86
435.052	7339.58
435.259	7460.41
435.466	7519.8
435.673	7398.97
435.88	7994.93
436.087	8175.15
436.294	8263.21
436.501	8005.17
436.708	8300.08
436.915	8459.82
437.122	8951.33
437.329	8949.28
437.537	9301.53
437.743	9324.06
437.95	9192.99
438.157	9704.98
438.364	10038.8
438.571	9879.06
438.778	10042.9
438.985	11118.08
439.192	10669.58
439.399	11124.22
439.606	10702.34
439.813	11341.31
440.02	11802.1
440.227	11660.79
440.433	11607.55
440.64	12078.58
440.847	12013.04
441.054	12172.78
441.261	12983.78
441.467	12789.22
441.674	13075.94
441.881	13581.79
442.088	13370.85
442.294	13434.33
442.501	14034.39
442.708	14187.99
442.914	14579.15
443.121	15185.35
443.328	14685.64
443.534	15760.83
443.741	15168.96
443.948	15005.13
444.154	16285.11
444.361	16248.24
444.568	16184.76
444.774	16260.53
444.981	16809.39
445.187	17075.62
445.394	17784.22
445.6	17294.75
445.807	19252.61
446.013	18609.55
446.22	18468.24
446.426	19527.04
446.633	19393.92
446.839	20477.3
447.046	19422.59
447.252	20276.6
447.459	20518.26
447.665	20190.58
447.871	21392.74
448.078	22232.41
448.284	21296.49
448.491	21718.37
448.697	22777.17
448.903	23207.24
449.11	22836.56
449.316	22801.74
449.522	23274.82
449.728	23520.58
449.935	24198.46
450.141	24141.11
450.347	24515.89
450.553	23881.02
450.76	24030.52
450.966	24825.14
451.172	24689.97
451.378	25611.56
451.584	24653.11
451.791	25521.45
451.997	25287.98
452.203	25722.15
452.409	25578.79
452.615	25642.28
452.821	24515.89
453.027	24743.22
453.233	26047.77
453.44	24655.15
453.646	24968.49
453.852	25175.34
454.058	25720.1
454.264	24849.71
454.47	25310.5
454.676	24913.2
454.882	26049.82
455.088	23678.27
455.294	23854.4
455.5	24304.95
455.705	24491.32
455.911	23285.06
456.117	22943.05
456.323	22904.14
456.529	21597.54
456.735	22515.03
456.941	21939.55
457.147	21687.65
457.352	20964.71
457.558	20714.86
457.764	20804.97
457.97	20477.3
458.176	19774.84
458.381	19963.26
458.587	19168.65
458.793	19060.1
458.999	18079.13
459.204	19434.88
459.41	18890.12
459.616	17896.86
459.821	17659.29
460.027	17683.87
460.233	17253.8
460.438	16559.53
460.644	16911.78
460.85	15607.23
461.055	15533.5
461.261	15603.13
461.466	14515.66
461.672	14069.2
461.878	15035.85
462.083	13913.56
462.289	13757.91
462.494	13514.2
462.7	12746.22
462.905	12725.74
463.111	13088.23
463.316	13221.34
463.522	13075.94
463.727	12633.58
463.932	13032.93
464.138	12525.04
464.343	12865
464.549	12293.62
464.754	12762.6
464.959	12557.8
465.165	12586.47
465.37	11841.01
465.575	11722.23
465.781	12172.78
465.986	12402.16
466.191	12000.76
466.397	11664.89
466.602	11126.27
466.807	11525.63
467.012	11542.01
467.218	11421.18
467.423	11111.94
467.628	11484.67
467.833	11603.45
468.038	11431.42
468.244	10913.28
468.449	11417.08
468.654	11124.22
468.859	11025.92
469.064	10878.47
469.269	10460.68
469.474	10579.47
469.679	11083.27
469.885	10542.6
470.09	10585.61
470.295	10659.34
470.5	10321.42
470.705	10395.15
470.91	10255.89
471.115	9934.36
471.32	10206.73
471.525	10069.52
471.73	10014.23
471.935	9997.84
472.139	9692.69
472.344	9674.26
472.549	9573.91
472.754	9569.82
472.959	9227.81
473.164	9223.71
473.369	9053.73
473.574	9582.1
473.778	9127.46
473.983	9322.01
474.188	9008.67
474.393	8932.9
474.598	8967.71
474.802	8576.55
475.007	8592.94
475.212	8564.26
475.417	8402.47
475.621	8527.4
475.826	8478.25
476.031	8183.34
476.235	8027.7
476.44	8269.36
476.645	8042.03
476.849	8113.71
477.054	8021.55
477.259	7794.23
477.463	7765.56
477.668	7482.94
477.872	7751.22
478.077	7511.61
478.282	7323.19
478.486	7378.49
478.691	7396.92
478.895	7235.13
479.1	7140.93
479.304	7372.35
479.509	6921.79
479.713	7102.01
479.918	7022.14
480.122	6794.82
480.326	7038.53
480.531	7208.51
480.735	6712.9
480.94	6950.46
481.144	7095.87
481.348	6555.21
481.553	6846.02
481.757	6839.87
481.961	6792.77
482.166	6815.3
482.37	6676.04
482.574	6684.23
482.778	6669.89
482.983	6839.87
483.187	6590.02
483.391	6884.93
483.595	6643.27
483.8	6596.17
484.004	6708.8
484.208	6688.32
484.412	6559.3
484.616	6489.67
484.821	6796.87
485.025	6573.64
485.229	6571.59
485.433	6719.04
485.637	6954.56
485.841	6708.8
486.045	6760
486.249	6760
486.453	6547.01
486.657	6618.69
486.861	6743.62
487.065	6704.71
487.269	6514.25
487.473	6637.13
487.677	6753.86
487.881	6712.9
488.085	6528.58
488.289	6610.5
488.493	6739.52
488.697	6747.72
488.901	6659.65
489.105	6719.04
489.309	6743.62
489.512	6798.91
489.716	6749.76
489.92	6782.53
490.124	6792.77
490.328	6757.96
490.531	6897.22
490.735	6905.41
490.939	6770.24
491.143	6776.39
491.346	6854.21
491.55	6831.68
491.754	7003.71
491.958	7093.82
492.161	6964.8
492.365	7048.77
492.569	7036.48
492.772	6987.33
492.976	7171.65
493.18	6925.89
493.383	7284.28
493.587	7253.56
493.79	7409.21
493.994	7276.09
494.197	7501.37
494.401	7415.35
494.605	7527.99
494.808	7484.98
495.012	7458.36
495.215	7556.66
495.419	7755.32
495.622	7661.11
495.825	7675.45
496.029	7759.41
496.232	7839.28
496.436	7851.57
496.639	8119.85
496.843	8037.94
497.046	8179.25
497.249	8279.6
497.453	8103.47
497.656	8408.62
497.859	8322.6
498.063	8740.39
498.266	8793.64
498.469	8674.85
498.673	8711.72
498.876	8889.89
499.079	9096.74
499.282	9002.53
499.485	9168.41
499.689	9166.37
499.892	9365.02
500.095	9279.01
500.298	9694.74
500.501	9600.54
500.705	9608.73
500.908	9834
501.111	10026.51
501.314	10079.76
501.517	10323.47
501.72	10372.62
501.923	10276.37
502.126	10542.6
502.329	10872.32
502.532	10683.91
502.735	10892.8
502.938	10843.65
503.141	10884.61
503.344	11083.27
503.547	11345.41
503.75	11390.46
503.953	11582.97
504.156	11695.61
504.359	11818.49
504.562	11826.68
504.765	11886.07
504.968	12389.87
505.17	12281.33
505.373	12541.42
505.576	12631.53
505.779	12756.46
505.982	12680.68
506.185	13026.79
506.387	13120.99
506.59	13374.94
506.793	13665.75
506.996	13393.37
507.198	13669.85
507.401	13901.27
507.604	14171.6
507.807	14228.95
508.009	14308.82
508.212	14564.81
508.415	14683.59
508.617	14575.05
508.82	14788.04
509.022	14841.29
509.225	15250.88
509.428	15447.49
509.63	15699.39
509.833	15705.53
510.035	15779.26
510.238	16000.44
510.44	16151.99
510.643	16229.81
510.845	16332.21
511.048	16498.09
511.25	16649.64
511.453	16803.24
511.655	17098.15
511.858	17210.79
512.06	17257.89
512.262	17530.27
512.465	17671.58
512.667	18081.17
512.87	18107.8
513.072	17880.47
513.274	18517.39
513.477	18767.24
513.679	18800.01
513.881	18965.9
514.084	19193.22
514.286	19137.93
514.488	19391.87
514.69	19897.72
514.893	19770.75
515.095	19944.83
515.297	19926.39
515.499	20372.85
515.701	20309.36
515.904	20678
516.106	20612.46
516.308	21159.27
516.51	21208.42
516.712	21308.77
516.914	21521.76
517.116	21914.97
517.318	22000.99
517.52	22322.52
517.722	22207.83
517.925	22474.07
518.127	23145.8
518.329	23151.95
518.531	22674.77
518.733	23362.89
518.935	23637.31
519.136	23571.78
519.338	24063.29
519.54	24067.39
519.742	24216.89
519.944	24177.98
520.146	24710.45
520.348	24749.36
520.55	24976.69
520.752	25179.43
520.954	25560.36
521.155	25564.45
521.357	26129.69
521.559	26041.63
521.761	26516.76
521.963	26215.71
522.164	26436.89
522.366	26610.96
522.568	26762.51
522.77	27090.19
522.971	27241.74
523.173	27047.18
523.375	27411.72
523.576	27438.34
523.778	27845.89
523.98	27954.43
524.181	28253.44
524.383	28361.98
524.584	28165.37
524.786	28687.6
524.988	28579.06
525.189	28781.81
525.391	29068.53
525.592	29062.38
525.794	29215.98
525.995	29250.8
526.197	29258.99
526.398	29551.85
526.6	29672.68
526.801	29607.14
527.003	29517.03
527.204	29908.19
527.406	30004.45
527.607	29912.29
527.808	30467.29
528.01	30024.93
528.211	30483.67
528.412	30829.78
528.614	30782.68
528.815	30831.83
529.016	30991.57
529.218	30559.45
529.419	30801.11
529.62	31124.69
529.822	31268.05
530.023	31136.98
530.224	31261.9
530.425	31057.1
530.626	31378.64
530.828	31010
531.029	31403.21
531.23	31118.54
531.431	31407.31
531.632	31737.03
531.833	31440.07
532.035	31603.91
532.236	31784.13
532.437	31825.09
532.638	31368.4
532.839	31616.2
533.04	31741.13
533.241	31536.33
533.442	32117.95
533.643	31761.61
533.844	32044.23
534.045	31823.05
534.246	31710.41
534.447	31847.62
534.648	32087.23
534.849	32249.02
535.05	31530.19
535.251	31921.35
535.451	31751.37
535.652	32134.34
535.853	31904.96
536.054	31708.36
536.255	31745.22
536.456	31739.08
536.657	32308.41
536.857	32009.41
537.058	31911.11
537.259	32144.58
537.46	31808.71
537.66	31884.48
537.861	32074.95
538.062	31993.03
538.263	32036.03
538.463	31937.73
538.664	31810.76
538.865	32224.45
539.065	32347.33
539.266	31669.45
539.466	31984.83
539.667	31497.42
539.868	32105.66
540.068	31734.98
540.269	31603.91
540.469	32005.31
540.67	31616.2
540.87	31864
541.071	32009.41
541.271	32019.65
541.472	31915.2
541.672	32089.28
541.873	31753.41
542.073	31587.53
542.274	32060.61
542.474	31798.47
542.675	31773.89
542.875	32140.48
543.075	32095.42
543.276	31558.86
543.476	31900.87
543.676	31532.23
543.877	31841.48
544.077	31950.02
544.277	31759.56
544.478	31665.35
544.678	31755.46
544.878	31452.36
545.078	31714.5
545.279	31388.88
545.479	31612.1
545.679	31962.31
545.879	31870.15
546.079	31405.26
546.28	31417.55
546.48	31188.17
546.68	31794.37
546.88	31786.18
547.08	31345.87
547.28	31689.93
547.48	31210.7
547.68	32105.66
547.88	31560.91
548.081	31710.41
548.281	31788.23
548.481	31558.86
548.681	31874.24
548.881	31603.91
549.081	31483.08
549.28	31177.93
549.48	31630.54
549.68	31380.68
549.88	31984.83
550.08	31476.94
550.28	31397.07
550.48	31620.3
550.68	31503.56
550.88	31286.48
551.08	31476.94
551.279	31610.06
551.479	31526.09
551.679	31395.02
551.879	31192.27
552.079	31448.27
552.278	31534.28
552.478	31544.52
552.678	31544.52
552.878	31470.79
553.077	31227.09
553.277	31319.24
553.477	31542.47
553.676	31313.1
553.876	31343.82
554.076	31323.34
554.275	31036.63
554.475	30936.27
554.674	31325.39
554.874	31212.75
555.074	31032.53
555.273	31075.54
555.473	31263.95
555.672	30817.49
555.872	30756.05
556.071	30956.75
556.271	30911.7
556.47	30954.71
556.67	30258.4
556.869	30545.11
557.068	31067.34
557.268	30502.11
557.467	30606.55
557.667	31014.1
557.866	30659.8
558.065	31212.75
558.265	30053.6
558.464	30317.79
558.663	30620.89
558.863	30348.51
559.062	30932.18
559.261	30262.49
559.461	30651.61
559.66	30012.64
559.859	30321.88
560.058	30059.74
560.258	30151.9
560.457	29900
560.656	30244.06
560.855	29969.63
561.054	30282.97
561.253	29613.29
561.453	30012.64
561.652	30342.36
561.851	30149.85
562.05	29813.99
562.249	29637.86
562.448	29865.19
562.647	29654.25
562.846	29396.2
563.045	29721.83
563.244	29439.21
563.443	29943.01
563.642	29271.28
563.841	29502.7
564.04	29295.85
564.239	29594.86
564.438	29379.82
564.637	29451.5
564.836	29316.33
565.035	29211.88
565.234	29191.41
565.432	29101.29
565.631	29031.66
565.83	28978.42
566.029	28833.01
566.228	28755.19
566.427	28646.65
566.625	28783.86
566.824	28321.02
567.023	28830.96
567.222	28155.13
567.42	28454.14
567.619	28853.49
567.818	28114.17
568.016	28337.4
568.215	28783.86
568.414	28024.06
568.612	28325.11
568.811	28022.02
569.01	27878.66
569.208	27907.33
569.407	28105.98
569.605	27700.48
569.804	27931.9
570.002	27383.05
570.201	27680
570.4	27092.24
570.598	27483.4
570.797	27344.14
570.995	27424.01
571.193	27176.2
571.392	27014.41
571.59	26682.64
571.789	26686.74
571.987	26957.07
572.186	27061.52
572.384	26895.63
572.582	26778.9
572.781	26766.61
572.979	26410.26
573.177	26682.64
573.376	26481.94
573.574	26510.61
573.772	26543.38
573.971	26199.32
574.169	26172.7
574.367	26078.49
574.565	26252.57
574.763	26023.2
574.962	25994.53
575.16	25920.8
575.358	25840.93
575.556	25601.32
575.754	25820.45
575.952	25767.2
576.151	25541.92
576.349	25494.82
576.547	25447.72
576.745	25496.87
576.943	25296.17
577.141	25466.15
577.339	25290.02
577.537	25318.7
577.735	25044.27
577.933	24833.33
578.131	25349.42
578.329	24941.87
578.527	25017.64
578.725	24808.75
578.923	24821.04
579.121	24511.8
579.319	24501.56
579.516	24618.29
579.714	24550.71
579.912	24173.88
580.11	24354.1
580.308	23964.99
580.506	24270.14
580.704	23899.45
580.901	24241.46
581.099	24302.9
581.297	23975.23
581.495	23944.51
581.692	23813.44
581.89	23883.07
582.088	23878.97
582.285	23762.24
582.483	23704.9
582.681	23659.84
582.878	23680.32
583.076	23498.05
583.274	23473.48
583.471	22930.76
583.669	23293.26
583.866	23039.31
584.064	23493.96
584.262	22828.37
584.459	23160.14
584.657	22979.92
584.854	23059.79
585.052	22670.67
585.249	22705.49
585.447	22793.55
585.644	22598.99
585.841	22981.96
586.039	22957.39
586.236	22422.87
586.434	22416.72
586.631	22316.37
586.828	22164.82
587.026	22357.33
587.223	21974.36
587.42	21855.58
587.618	22201.69
587.815	22134.1
588.012	21880.16
588.21	21652.83
588.407	22060.38
588.604	21497.19
588.801	21695.84
588.999	21534.05
589.196	21613.92
589.393	21534.05
589.59	21398.88
589.787	21638.5
589.984	21263.72
590.182	21134.7
590.379	21218.66
590.576	20997.48
590.773	20895.08
590.97	20940.14
591.167	20897.13
591.364	20454.77
591.561	21130.6
591.758	20557.17
591.955	20571.5
592.152	20475.25
592.349	20299.12
592.546	20608.37
592.743	20987.24
592.94	20391.28
593.137	20131.19
593.334	20415.86
593.531	20075.9
593.727	19914.11
593.924	20239.73
594.121	19854.72
594.318	20254.07
594.515	20000.12
594.712	20110.71
594.908	19731.84
595.105	19858.81
595.302	19381.63
595.499	19723.65
595.696	19430.79
595.892	19574.14
596.089	19432.83
596.286	19512.7
596.482	19283.33
596.679	19516.8
596.876	19434.88
597.072	19008.9
597.269	19170.69
597.466	19174.79
597.662	18965.9
597.859	18935.18
598.055	18896.27
598.252	18929.03
598.448	18718.09
598.645	18992.52
598.841	18142.61
599.038	18865.55
599.234	18830.73
599.431	18498.96
599.627	18609.55
599.824	18443.67
600.02	18355.6
600.217	18423.19
600.413	18148.76
600.609	18191.77
600.806	18251.16
601.002	17991.06
601.198	17898.91
601.395	18222.48
601.591	17808.79
601.787	17939.86
601.984	17726.88
602.18	17956.25
602.376	17841.56
602.572	17612.19
602.769	17417.63
602.965	17558.94
603.161	17630.62
603.357	17098.15
603.553	17554.85
603.75	17331.62
603.946	17423.78
604.142	17282.47
604.338	16870.83
604.534	17206.69
604.73	17147.3
604.926	16956.84
605.122	17063.33
605.318	16723.37
605.514	16854.44
605.71	16696.75
605.906	16663.98
606.102	16498.09
606.298	16627.12
606.494	16547.25
606.69	16643.5
606.886	16614.83
607.082	16391.6
607.278	16682.41
607.474	16348.59
607.67	16201.14
607.866	15916.47
608.062	16362.93
608.257	16469.42
608.453	16000.44
608.649	16211.38
608.845	16139.7
609.041	15828.41
609.236	16121.27
609.432	16156.08
609.628	15998.39
609.824	15822.27
610.019	15828.41
610.215	15857.08
610.411	16020.92
610.606	15785.4
610.802	15818.17
610.998	15783.35
611.193	15871.42
611.389	15629.76
611.584	15685.05
611.78	15474.11
611.976	15533.5
612.171	15494.59
612.367	15781.31
612.562	15457.73
612.758	15304.13
612.953	15359.42
613.149	15422.91
613.344	15183.3
613.539	15402.43
613.735	15156.68
613.93	15128
614.126	15011.27
614.321	15400.38
614.517	14900.68
614.712	15044.04
614.907	15252.93
615.103	15187.39
615.298	14710.22
615.493	15140.29
615.688	14681.55
615.884	15283.65
616.079	14861.77
616.274	14892.49
616.47	14826.95
616.665	14925.25
616.86	14554.57
617.055	14687.69
617.25	14659.02
617.445	14677.45
617.641	14239.19
617.836	14745.03
618.031	14237.14
618.226	14331.34
618.421	14298.58
618.616	14544.33
618.811	14028.24
619.006	14441.93
619.201	13925.85
619.396	14081.49
619.591	13839.83
619.786	14194.13
619.981	13835.74
620.176	14083.54
620.371	13807.06
620.566	13831.64
620.761	13786.58
620.956	13970.9
621.151	13714.91
621.346	13614.55
621.541	13592.03
621.735	13581.79
621.93	13288.93
622.125	13364.7
622.32	13110.75
622.515	13026.79
622.709	13217.25
622.904	13219.3
623.099	12910.05
623.294	13123.04
623.488	12717.54
623.683	12994.02
623.878	12942.82
624.072	12656.11
624.267	12676.59
624.462	12674.54
624.656	12443.12
624.851	12461.55
625.046	12248.56
625.24	12377.58
625.435	12228.08
625.629	12004.85
625.824	12088.82
626.018	12156.4
626.213	11578.87
626.407	11970.04
626.602	11705.85
626.796	11709.94
626.991	11697.66
627.185	11607.55
627.38	11568.63
627.574	11517.43
627.768	11255.29
627.963	11206.14
628.157	11050.5
628.352	11245.06
628.546	11286.01
628.74	11122.18
628.935	11124.22
629.129	10919.43
629.323	10944
629.517	10806.79
629.712	10915.33
629.906	10698.25
630.1	10487.31
630.294	10927.62
630.489	10581.51
630.683	10530.31
630.877	10405.39
631.071	10286.61
631.265	10370.57
631.459	10374.67
631.653	10245.65
631.848	10354.19
632.042	10216.97
632.236	10262.03
632.43	9991.7
632.624	9997.84
632.818	9946.64
633.012	9717.27
633.206	9698.84
633.4	9895.44
633.594	9745.94
633.788	9545.24
633.982	9526.81
634.176	9733.65
634.369	9348.64
634.563	9399.84
634.757	9418.27
634.951	9477.66
635.145	9367.07
635.339	9379.36
635.533	9154.08
635.726	9168.41
635.92	9227.81
636.114	9092.64
636.308	9041.44
636.501	8998.43
636.695	8945.19
636.889	9053.73
637.083	8867.36
637.276	8726.05
637.47	8797.73
637.664	8805.92
637.857	8756.77
638.051	8865.32
638.244	8701.48
638.438	8701.48
638.632	8527.4
638.825	8582.7
639.019	8363.56
639.212	8203.82
639.406	8355.37
639.599	8328.75
639.793	8295.98
639.986	8105.52
640.18	8095.28
640.373	8150.57
640.567	8171.05
640.76	7992.88
640.954	7841.33
641.147	8017.46
641.34	7874.1
641.534	7837.24
641.727	7759.41
641.92	7855.67
642.114	7753.27
642.307	7781.94
642.5	7777.84
642.694	7437.88
642.887	7542.33
643.08	7503.42
643.273	7472.7
643.467	7552.57
643.66	7401.02
643.853	7267.9
644.046	7282.24
644.239	7315
644.432	7063.1
644.626	7083.58
644.819	7169.6
645.012	7009.86
645.205	7122.49
645.398	7065.15
645.591	6981.18
645.784	7048.77
645.977	7036.48
646.17	6819.39
646.363	6653.51
646.556	6694.47
646.749	6706.76
646.942	6762.05
647.135	6596.17
647.328	6614.6
647.521	6608.45
647.714	6444.62
647.907	6600.26
648.099	6385.23
648.292	6514.25
648.485	6479.43
648.678	6471.24
648.871	6209.1
649.064	6334.03
649.256	6338.12
649.449	6176.33
649.642	6323.79
649.835	6127.18
650.027	6178.38
650.22	6006.35
650.413	6049.36
650.605	6030.93
650.798	6129.23
650.991	6010.45
651.183	6110.8
651.376	5891.66
651.568	5975.63
651.761	5924.43
651.954	5686.87
652.146	5797.46
652.339	5838.42
652.531	5875.28
652.724	5760.59
652.916	5711.44
653.109	5668.44
653.301	5520.98
653.494	5676.63
653.686	5543.51
653.879	5529.17
654.071	5572.18
654.263	5574.23
654.456	5543.51
654.648	5602.9
654.84	5344.86
655.033	5297.75
655.225	5293.66
655.417	5283.42
655.61	5310.04
655.802	5316.19
655.994	5287.51
656.186	5246.55
656.379	5189.21
656.571	5090.91
656.763	5248.6
656.955	5013.09
657.148	5080.67
657.34	5019.23
657.532	4843.1
657.724	5023.33
657.916	5004.89
658.108	4857.44
658.3	4888.16
658.492	4867.68
658.684	4738.66
658.876	4816.48
659.068	4775.52
659.26	4730.47
659.452	4570.72
659.644	4800.1
659.836	4662.88
660.028	4789.86
660.22	4687.46
660.412	4613.73
660.604	4621.92
660.796	4513.38
660.988	4546.15
661.18	4513.38
661.372	4449.89
661.563	4480.61
661.755	4505.19
661.947	4279.91
662.139	4427.37
662.331	4458.09
662.522	4292.2
662.714	4410.98
662.906	4359.78
663.097	4259.43
663.289	4161.13
663.481	4185.71
663.673	4152.94
663.864	4105.84
664.056	4148.84
664.247	4120.17
664.439	4062.83
664.631	4081.26
664.822	4138.6
665.014	3985.01
665.205	3888.75
665.397	3919.47
665.588	4095.6
665.78	3948.14
665.971	3915.37
666.163	4036.21
666.354	3888.75
666.546	3890.8
666.737	3784.3
666.929	3886.7
667.12	3882.61
667.311	3769.97
667.503	3751.54
667.694	3792.5
667.885	3735.15
668.077	3700.34
668.268	3616.37
668.459	3788.4
668.651	3653.23
668.842	3665.52
669.033	3653.23
669.224	3673.71
669.416	3726.96
669.607	3473.01
669.798	3505.78
669.989	3524.21
670.18	3403.38
670.371	3430.01
670.563	3477.11
670.754	3556.98
670.945	3350.14
671.136	3391.09
671.327	3341.94
671.518	3522.16
671.709	3374.71
671.9	3382.9
672.091	3401.33
672.282	3411.57
672.473	3303.03
672.664	3221.11
672.855	3343.99
673.046	3296.89
673.237	3268.22
673.428	3317.37
673.619	3268.22
673.809	3245.69
674	3286.65
674.191	3149.43
674.382	3227.26
674.573	3102.33
674.764	3272.31
674.954	3243.64
675.145	3110.52
675.336	3165.82
675.527	3055.23
675.717	3104.38
675.908	3153.53
676.099	3145.34
676.289	3088
676.48	3047.04
676.671	2948.73
676.861	3139.19
677.052	3214.97
677.243	3081.85
677.433	3139.19
677.624	3073.66
677.814	3085.95
678.005	2979.45
678.195	2958.97
678.386	3088
678.576	3065.47
678.767	2969.21
678.957	3065.47
679.148	3051.13
679.338	2922.11
679.529	2967.17
679.719	2905.73
679.909	3114.62
680.1	2848.38
680.29	2825.86
680.481	2838.14
680.671	2850.43
680.861	2770.56
681.052	2803.33
681.242	2885.25
681.432	2956.93
681.622	2748.03
681.813	2764.42
682.003	2827.9
682.193	2813.57
682.383	2891.39
682.573	2727.55
682.764	2819.71
682.954	2817.66
683.144	2860.67
683.334	2805.38
683.524	2774.66
683.714	2631.3
683.904	2725.51
684.094	2778.75
684.284	2702.98
684.474	2811.52
684.664	2719.36
684.854	2729.6
685.044	2748.03
685.234	2670.21
685.424	2670.21
685.614	2606.72
685.804	2719.36
685.994	2662.02
686.184	2633.35
686.374	2670.21
686.564	2543.24
686.753	2590.34
686.943	2471.56
687.133	2559.62
687.323	2500.23
687.513	2580.1
687.702	2502.28
687.892	2516.61
688.082	2459.27
688.272	2492.04
688.461	2473.6
688.651	2518.66
688.841	2424.45
689.03	2406.02
689.22	2354.82
689.41	2512.52
689.599	2494.08
689.789	2416.26
689.979	2492.04
690.168	2401.93
690.358	2399.88
690.547	2440.84
690.737	2436.74
690.926	2315.91
691.116	2268.81
691.305	2256.52
691.495	2328.2
691.684	2291.34
691.874	2342.53
692.063	2317.96
692.252	2358.92
692.442	2309.77
692.631	2244.23
692.82	2270.86
693.01	2279.05
693.199	2293.38
693.388	2342.53
693.578	2197.13
693.767	2188.94
693.956	2236.04
694.146	2238.09
694.335	2170.51
694.524	2205.32
694.713	2147.98
694.902	2190.99
695.092	2158.22
695.281	2006.67
695.47	2123.4
695.659	2121.35
695.848	2064.01
696.037	2090.63
696.226	2190.99
696.415	2231.94
696.604	2131.59
696.793	2260.62
696.982	2100.87
697.171	2176.65
697.36	2037.39
697.549	1984.14
697.738	2016.91
697.927	2002.57
698.116	2137.74
698.305	2039.44
698.494	2031.24
698.683	1998.48
698.872	1994.38
699.061	1939.09
699.25	2039.44
699.438	1988.24
699.627	1996.43
699.816	2131.59
700.005	2018.96
700.193	1975.95
700.382	2066.06
700.571	2021
700.76	2123.4
700.948	2006.67
701.137	1955.47
701.326	1975.95
701.514	1951.37
701.703	2072.2
701.892	1920.65
702.08	2082.44
702.269	2037.39
702.457	1928.85
702.646	1887.89
702.834	1865.36
703.023	1810.06
703.212	2059.92
703.4	1877.65
703.589	1982.09
703.777	2000.52
703.965	1859.21
704.154	1957.52
704.342	1881.74
704.531	1842.83
704.719	1982.09
704.907	2010.76
705.096	1932.94
705.284	1928.85
705.472	2115.21
705.661	1889.93
705.849	2045.58
706.037	2006.67
706.226	1975.95
706.414	1918.61
706.602	1918.61
706.79	1883.79
706.979	1851.02
707.167	1902.22
707.355	1851.02
707.543	1949.32
707.731	1924.75
707.919	1857.17
708.107	1859.21
708.296	1877.65
708.484	1883.79
708.672	1957.52
708.86	1928.85
709.048	1855.12
709.236	1994.38
709.424	1896.08
709.612	1959.56
709.8	1863.31
709.988	1920.65
710.176	1859.21
710.364	1846.93
710.551	1861.26
710.739	1943.18
710.927	1955.47
711.115	1861.26
711.303	1867.41
711.491	1851.02
711.679	1767.06
711.866	2014.86
712.054	1934.99
712.242	1883.79
712.43	1746.58
712.617	1826.45
712.805	1822.35
712.993	1924.75
713.181	1894.03
713.368	1826.45
713.556	1853.07
713.744	1990.28
713.931	1939.09
714.119	1834.64
714.306	1918.61
714.494	1855.12
714.682	1912.46
714.869	1859.21
715.057	1826.45
715.244	1875.6
715.432	1744.53
715.619	1846.93
715.807	1922.7
715.994	1810.06
716.182	1795.73
716.369	1861.26
716.556	1910.41
716.744	1826.45
716.931	1775.25
717.119	1851.02
717.306	1779.34
717.493	1906.32
717.681	1740.43
717.868	1820.3
718.055	1881.74
718.242	1937.04
718.43	1961.61
718.617	2027.15
718.804	1836.69
718.991	1754.77
719.179	1769.1
719.366	1793.68
719.553	1918.61
719.74	1805.97
719.927	1828.49
720.114	1738.38
720.301	1924.75
720.488	1793.68
720.676	1959.56
720.863	1853.07
721.05	1834.64
721.237	1908.37
721.424	1834.64
721.611	1855.12
721.798	1842.83
721.985	1826.45
722.172	1879.69
722.358	1795.73
722.545	1908.37
722.732	1855.12
722.919	1810.06
723.106	1943.18
723.293	1687.18
723.48	1937.04
723.667	1717.9
723.853	1869.45
724.04	1949.32
724.227	1832.59
724.414	1826.45
724.6	1846.93
724.787	1896.08
724.974	1904.27
725.161	1891.98
725.347	1855.12
725.534	1898.13
725.72	1930.89
725.907	1945.23
726.094	1801.87
726.28	1777.3
726.467	1703.57
726.653	1801.87
726.84	1875.6
727.027	1867.41
727.213	1801.87
727.4	1810.06
727.586	1824.4
727.773	1812.11
727.959	1908.37
728.145	1771.15
728.332	1859.21
728.518	1820.3
728.705	1908.37
728.891	1867.41
729.077	1726.1
729.264	1777.3
729.45	1801.87
729.636	1822.35
729.823	1742.48
730.009	1773.2
730.195	1846.93
730.382	1767.06
730.568	1789.58
730.754	1871.5
730.94	1742.48
731.126	1808.02
731.313	1738.38
731.499	1752.72
731.685	1769.1
731.871	1801.87
732.057	1826.45
732.243	1670.8
732.429	1750.67
732.615	1791.63
732.801	1851.02
732.987	1742.48
733.173	1855.12
733.359	1711.76
733.545	1754.77
733.731	1781.39
733.917	1828.49
734.103	1867.41
734.289	1789.58
734.475	1781.39
734.661	1846.93
734.847	1773.2
735.033	1728.14
735.219	1758.86
735.404	1719.95
735.59	1748.62
735.776	1662.61
735.962	1748.62
736.148	1678.99
736.333	1746.58
736.519	1711.76
736.705	1818.25
736.89	1752.72
737.076	1771.15
737.262	1746.58
737.447	1722
737.633	1662.61
737.819	1730.19
738.004	1732.24
738.19	1672.85
738.375	1615.51
738.561	1810.06
738.747	1769.1
738.932	1697.42
739.118	1752.72
739.303	1832.59
739.489	1771.15
739.674	1613.46
739.859	1664.66
740.045	1785.49
740.23	1633.94
740.416	1666.71
740.601	1722
740.786	1697.42
740.972	1648.27
741.157	1601.17
741.342	1527.44
741.528	1545.88
741.713	1717.9
741.898	1695.38
742.084	1676.95
742.269	1648.27
742.454	1699.47
742.639	1601.17
742.824	1527.44
743.01	1623.7
743.195	1613.46
743.38	1603.22
743.565	1582.74
743.75	1484.44
743.935	1582.74
744.12	1638.03
744.305	1590.93
744.49	1560.21
744.675	1580.69
744.86	1535.64
745.045	1607.31
745.23	1484.44
745.415	1441.43
745.6	1531.54
745.785	1547.92
745.97	1574.55
746.155	1476.24
746.34	1474.2
746.525	1359.51
746.71	1455.76
746.895	1410.71
747.079	1416.85
747.264	1484.44
747.449	1455.76
747.634	1539.73
747.819	1425.04
748.003	1402.52
748.188	1427.09
748.373	1351.32
748.557	1492.63
748.742	1402.52
748.927	1244.82
749.111	1359.51
749.296	1310.36
749.481	1359.51
749.665	1277.59
749.85	1351.32
750.034	1281.69
750.219	1246.87
750.404	1343.13
750.588	1320.6
750.773	1199.77
750.957	1263.26
751.141	1281.69
751.326	1255.06
751.51	1339.03
751.695	1285.78
751.879	1275.54
752.064	1238.68
752.248	1203.86
752.432	1248.92
752.617	1146.52
752.801	1244.82
752.985	1187.48
753.17	1183.38
753.354	1164.95
753.538	1261.21
753.722	1146.52
753.907	1097.37
754.091	1205.91
754.275	1119.9
754.459	1062.55
754.643	1146.52
754.828	1091.23
755.012	1197.72
755.196	1056.41
755.38	1146.52
755.564	1103.51
755.748	1164.95
755.932	1015.45
756.116	1074.84
756.3	1017.5
756.484	976.54
756.668	1050.27
756.852	915.1
757.036	1021.6
757.22	992.92
757.404	1056.41
757.588	1001.12
757.772	1027.74
757.956	984.73
758.14	982.68
758.323	1015.45
758.507	1040.03
758.691	876.19
758.875	1095.32
759.059	900.76
759.242	888.48
759.426	947.87
759.61	911
759.794	980.64
759.977	1023.64
760.161	1050.27
760.345	898.72
760.528	986.78
760.712	1023.64
760.895	845.47
761.079	913.05
761.263	941.72
761.446	868
761.63	894.62
761.813	870.05
761.997	788.13
762.18	843.42
762.364	906.91
762.547	841.37
762.731	878.24
762.914	837.28
763.098	775.84
763.281	786.08
763.464	900.76
763.648	956.06
763.831	822.94
764.015	827.04
764.198	878.24
764.381	884.38
764.564	818.85
764.748	845.47
764.931	868
765.114	802.46
765.297	898.72
765.481	747.17
765.664	788.13
765.847	796.32
766.03	833.18
766.213	800.41
766.397	732.83
766.58	806.56
766.763	818.85
766.946	814.75
767.129	779.93
767.312	792.22
767.495	794.27
767.678	853.66
767.861	706.21
768.044	747.17
768.227	810.65
768.41	796.32
768.593	738.98
768.776	769.69
768.959	747.17
769.142	773.79
769.324	716.45
769.507	773.79
769.69	720.54
769.873	681.63
770.056	736.93
770.239	706.21
770.421	859.81
770.604	712.35
770.787	618.15
770.97	675.49
771.152	679.58
771.335	640.67
771.518	720.54
771.7	761.5
771.883	755.36
772.066	702.11
772.248	718.5
772.431	622.24
772.613	693.92
772.796	646.82
772.978	648.86
773.161	650.91
773.343	638.62
773.526	673.44
773.708	587.43
773.891	591.52
774.073	646.82
774.256	638.62
774.438	769.69
774.621	671.39
774.803	655.01
774.985	564.9
775.168	665.25
775.35	624.29
775.532	622.24
775.715	573.09
775.897	679.58
776.079	556.71
776.261	657.06
776.444	577.19
776.626	550.56
776.808	657.06
776.99	579.23
777.173	556.71
777.355	605.86
777.537	556.71
777.719	536.23
777.901	534.18
778.083	575.14
778.265	482.98
778.447	554.66
778.629	470.69
778.811	616.1
778.993	566.95
779.175	599.71
779.357	460.45
779.539	525.99
779.721	534.18
779.903	599.71
780.085	585.38
780.267	509.6
780.449	568.99
780.631	474.79
780.812	499.36
780.994	470.69
781.176	489.12
781.358	525.99
781.54	417.44
781.721	548.51
781.903	427.68
782.085	458.4
782.267	458.4
782.448	442.02
782.63	530.08
782.812	450.21
782.993	458.4
783.175	401.06
783.357	454.31
783.538	427.68
783.72	425.64
783.901	368.29
784.083	427.68
784.264	446.12
784.446	450.21
784.627	327.33
784.809	464.55
784.99	433.83
785.172	409.25
785.353	384.68
785.535	380.58
785.716	380.58
785.897	351.91
786.079	380.58
786.26	421.54
786.441	298.66
786.623	310.95
786.804	351.91
786.985	368.29
787.167	388.77
787.348	376.48
787.529	337.57
787.71	405.16
787.891	356.01
788.073	343.72
788.254	308.9
788.435	343.72
788.616	386.72
788.797	286.37
788.978	351.91
789.159	337.57
789.34	349.86
789.522	339.62
789.703	255.65
789.884	265.89
790.065	315.05
790.246	310.95
790.427	306.85
790.607	298.66
790.788	331.43
790.969	233.13
791.15	245.41
791.331	302.76
791.512	319.14
791.693	274.09
791.874	288.42
792.054	362.15
792.235	319.14
792.416	288.42
792.597	294.57
792.778	253.61
792.958	226.98
793.139	239.27
793.32	212.65
793.5	220.84
793.681	290.47
793.862	288.42
794.042	212.65
794.223	265.89
794.404	226.98
794.584	247.46
794.765	167.59
794.945	224.94
795.126	255.65
795.306	267.94
795.487	298.66
795.667	237.22
795.848	253.61
796.028	269.99
796.209	263.85
796.389	198.31
796.57	183.98
796.75	233.13
796.93	218.79
797.111	192.17
797.291	310.95
797.471	179.88
797.652	196.26
797.832	237.22
798.012	237.22
798.192	190.12
798.373	261.8
798.553	192.17
798.733	255.65
798.913	196.26
799.093	269.99
799.274	204.46
799.454	196.26
799.634	294.57
799.814	274.09
799.994	151.21
800.174	159.4
800.354	241.32
800.534	163.5
800.714	231.08
800.894	198.31
801.074	196.26
801.254	159.4
801.434	257.7
801.614	208.55
801.794	214.7
801.974	722.59
802.154	163.5
802.334	194.22
802.514	173.74
802.693	212.65
802.873	198.31
803.053	171.69
803.233	194.22
803.413	130.73
803.592	196.26
803.772	175.78
803.952	163.5
804.131	110.25
804.311	231.08
804.491	179.88
804.67	220.84
804.85	97.96
805.03	200.36
805.209	220.84
805.389	257.7
805.568	155.3
805.748	204.46
805.928	163.5
806.107	155.3
806.287	153.26
806.466	118.44
806.646	116.39
806.825	126.63
807.004	130.73
807.184	198.31
807.363	157.35
807.543	147.11
807.722	163.5
807.901	173.74
808.081	171.69
808.26	61.1
808.439	124.58
808.619	159.4
808.798	163.5
808.977	155.3
809.156	321.19
809.336	126.63
809.515	132.78
809.694	65.19
809.873	151.21
810.052	190.12
810.231	188.07
810.411	100.01
810.59	167.59
810.769	52.91
810.948	192.17
811.127	110.25
811.306	89.77
811.485	83.63
811.664	204.46
811.843	75.43
812.022	116.39
812.201	188.07
812.38	155.3
812.559	77.48
812.737	95.91
812.916	165.54
813.095	100.01
813.274	204.46
813.453	108.2
813.632	106.15
813.811	161.45
813.989	89.77
814.168	169.64
814.347	61.1
814.526	171.69
814.704	173.74
814.883	265.89
815.062	155.3
815.24	163.5
815.419	81.58
815.598	159.4
815.776	143.02
815.955	124.58
816.133	102.06
816.312	198.31
816.49	200.36
816.669	118.44
816.847	54.95
817.026	91.82
817.204	134.82
817.383	100.01
817.561	63.15
817.74	122.54
817.918	149.16
818.097	108.2
818.275	140.97
818.453	145.06
818.632	97.96
818.81	73.39
818.988	108.2
819.167	102.06
819.345	87.72
819.523	114.34
819.701	134.82
819.879	75.43
820.058	97.96
820.236	77.48
820.414	159.4
820.592	147.11
820.77	77.48
820.948	188.07
821.127	93.87
821.305	81.58
821.483	69.29
821.661	138.92
821.839	95.91
822.017	89.77
822.195	65.19
822.373	165.54
822.551	40.62
822.729	155.3
822.907	67.24
823.085	110.25
823.262	110.25
823.44	102.06
823.618	46.76
823.796	110.25
823.974	13.99
824.152	108.2
824.329	85.67
824.507	73.39
824.685	89.77
824.863	97.96
825.04	134.82
825.218	40.62
825.396	159.4
825.574	69.29
825.751	122.54
825.929	97.96
826.107	7.85
826.284	134.82
826.462	71.34
826.639	130.73
826.817	63.15
826.994	65.19
827.172	3.75
827.349	140.97
827.527	122.54
827.704	91.82
827.882	32.43
828.059	65.19
828.237	24.23
828.414	73.39
828.591	77.48
828.769	106.15
828.946	114.34
829.124	108.2
829.301	89.77
829.478	40.62
829.655	57
829.833	153.26
830.01	108.2
830.187	67.24
830.364	44.71
830.542	81.58
830.719	57
830.896	132.78
831.073	79.53
831.25	22.19
831.427	28.33
831.604	34.47
831.782	122.54
831.959	32.43
832.136	42.67
832.313	138.92
832.49	89.77
832.667	95.91
832.844	102.06
833.021	100.01
833.198	7.85
833.374	7.85
833.551	42.67
833.728	46.76
833.905	26.28
834.082	42.67
834.259	100.01
834.436	73.39
834.612	7.85
834.789	126.63
834.966	97.96
835.143	-18.77
835.319	65.19
835.496	44.71
835.673	114.34
835.85	30.38
836.026	83.63
836.203	128.68
836.38	32.43
836.556	69.29
836.733	7.85
836.909	52.91
837.086	20.14
837.262	71.34
837.439	26.28
837.616	77.48
837.792	7.85
837.968	83.63
838.145	48.81
838.321	-2.39
838.498	52.91
838.674	61.1
838.851	122.54
839.027	18.09
839.203	48.81
839.38	52.91
839.556	-61.78
839.732	97.96
839.909	3.75
840.085	100.01
840.261	42.67
840.437	79.53
840.614	44.71
840.79	24.23
840.966	3.75
841.142	59.05
841.318	48.81
841.494	59.05
841.671	32.43
841.847	-16.73
842.023	83.63
842.199	16.04
842.375	134.82
842.551	-65.88
842.727	-24.92
842.903	132.78
843.079	32.43
843.255	3.75
843.431	46.76
843.607	50.86
843.783	24.23
843.959	52.91
844.134	18.09
844.31	67.24
844.486	-10.58
844.662	-41.3
844.838	16.04
845.013	57
845.189	-49.49
845.365	126.63
845.541	89.77
845.716	42.67
845.892	-14.68
846.068	-39.25
846.244	-33.11
846.419	61.1
846.595	57
846.77	40.62
846.946	85.67
847.122	11.95
847.297	40.62
847.473	106.15
847.648	9.9
847.824	30.38
847.999	-16.73
848.175	65.19
848.35	32.43
848.526	61.1
848.701	75.43
848.876	52.91
849.052	71.34
849.227	11.95
849.403	7.85
849.578	71.34
849.753	-0.34
849.929	36.52
850.104	50.86
850.279	81.58
850.454	3.75
850.63	24.23
850.805	-22.87
850.98	44.71
851.155	16.04
851.33	48.81
851.505	11.95
851.681	9.9
851.856	54.95
852.031	16.04
852.206	50.86
852.381	-8.53
852.556	-8.53
852.731	48.81
852.906	97.96
853.081	61.1
853.256	75.43
853.431	42.67
853.606	-33.11
853.781	65.19
853.956	22.19
854.131	106.15
854.305	36.52
854.48	40.62
854.655	-0.34
854.83	32.43
855.005	20.14
855.18	18.09
855.354	-24.92
855.529	89.77
855.704	24.23
855.879	7.85
856.053	48.81
856.228	67.24
856.403	11.95
856.577	-16.73
856.752	-12.63
856.926	77.48
857.101	102.06
857.276	-0.34
857.45	57
857.625	73.39
857.799	3.75
857.974	81.58
858.148	11.95
858.323	36.52
858.497	38.57
858.672	16.04
858.846	-0.34
859.02	13.99
859.195	40.62
859.369	-4.44
859.543	-20.82
859.718	1.71
859.892	-10.58
860.066	57
860.241	-39.25
860.415	34.47
860.589	-16.73
860.763	16.04
860.938	32.43
861.112	50.86
861.286	-12.63
861.46	32.43
861.634	-65.88
861.808	93.87
861.982	13.99
862.157	-0.34
862.331	81.58
862.505	40.62
862.679	-6.49
862.853	16.04
863.027	-33.11
863.201	67.24
863.375	-39.25
863.549	24.23
863.722	11.95
863.896	50.86
864.07	24.23
864.244	-18.77
864.418	1.71
864.592	48.81
864.766	-16.73
864.939	34.47
865.113	13.99
865.287	69.29
865.461	-33.11
865.634	87.72
865.808	-12.63
865.982	18.09
866.156	16.04
866.329	65.19
866.503	-37.2
866.676	-6.49
866.85	-16.73
867.024	-0.34
867.197	3.75
867.371	32.43
867.544	7.85
867.718	-8.53
867.891	-0.34
868.065	-72.02
868.238	57
868.412	42.67
868.585	-31.06
868.759	-22.87
868.932	106.15
869.105	-90.45
869.279	16.04
869.452	-31.06
869.625	36.52
869.799	48.81
869.972	7.85
870.145	24.23
870.319	38.57
870.492	16.04
870.665	26.28
870.838	-65.88
871.011	-35.16
871.185	50.86
871.358	-33.11
871.531	52.91
871.704	18.09
871.877	-12.63
872.05	-39.25
872.223	-0.34
872.396	-2.39
872.569	28.33
872.742	16.04
872.915	-6.49
873.088	24.23
873.261	42.67
873.434	-16.73
873.607	20.14
873.78	24.23
873.953	-14.68
874.126	28.33
874.299	59.05
874.471	-57.68
874.644	36.52
874.817	24.23
874.99	48.81
875.163	-57.68
875.335	87.72
875.508	-0.34
875.681	28.33
875.853	-43.35
876.026	-53.59
876.199	36.52
876.371	-29.01
876.544	-49.49
876.717	9.9
876.889	65.19
877.062	28.33
877.234	-43.35
877.407	-16.73
877.579	-4.44
877.752	89.77
877.924	50.86
878.097	-6.49
878.269	-2.39
878.442	34.47
878.614	-22.87
878.786	-0.34
878.959	18.09
879.131	59.05
879.303	-57.68
879.476	7.85
879.648	22.19
879.82	32.43
879.993	-49.49
880.165	44.71
880.337	-31.06
880.509	13.99
880.681	9.9
880.854	-88.4
881.026	100.01
881.198	65.19
881.37	-12.63
881.542	-12.63
881.714	-65.88
881.886	-6.49
882.058	73.39
882.23	-4.44
882.402	50.86
882.574	32.43
882.746	-26.96
882.918	-0.34
883.09	34.47
883.262	-6.49
883.434	40.62
883.606	-39.25
883.778	-4.44
883.95	32.43
884.122	-57.68
884.293	5.8
884.465	-8.53
884.637	40.62
884.809	-22.87
884.98	81.58
885.152	-0.34
885.324	46.76
885.496	-59.73
885.667	67.24
885.839	-4.44
886.011	24.23
886.182	16.04
886.354	85.67
886.525	46.76
886.697	30.38
886.869	-18.77
887.04	11.95
887.212	24.23
887.383	77.48
887.555	16.04
887.726	-26.96
887.897	-14.68
888.069	54.95
888.24	5.8
888.412	32.43
888.583	22.19
888.754	-53.59
888.926	-8.53
889.097	-22.87
889.268	48.81
889.44	32.43
889.611	-29.01
889.782	42.67
889.953	-45.4
890.125	89.77
890.296	-45.4
890.467	-16.73
890.638	-65.88
890.809	18.09
890.98	48.81
891.151	48.81
891.323	87.72
891.494	26.28
891.665	9.9
891.836	46.76
892.007	-26.96
892.178	48.81
892.349	-61.78
892.52	-57.68
892.691	7.85
892.862	44.71
893.032	-37.2
893.203	-31.06
893.374	-16.73
893.545	11.95
893.716	-65.88
893.887	52.91
894.057	-22.87
894.228	65.19
894.399	-6.49
894.57	1.71
894.74	-37.2
894.911	16.04
895.082	11.95
895.253	-45.4
895.423	11.95
895.594	83.63
895.764	-31.06
895.935	-14.68
896.106	61.1
896.276	16.04
896.447	-12.63
896.617	16.04
896.788	13.99
896.958	-59.73
897.129	-53.59
897.299	-33.11
897.47	59.05
897.64	-24.92
897.81	7.85
897.981	48.81
898.151	-31.06
898.322	44.71
898.492	44.71
898.662	-78.16
898.832	-0.34
899.003	26.28
899.173	13.99
899.343	-39.25
899.513	-24.92
