Data from USB4F104151__18__14-42-41-327.txt Node

Date: Thu Mar 13 14:42:41 EDT 2025
User: louis
Spectrometer: USB4F10415
Trigger mode: 4
Integration Time (sec): 2.000000E-2
Scans to average: 1
Electric dark correction enabled: true
Nonlinearity correction enabled: false
Boxcar width: 0
XAxis mode: Wavelengths
Number of Pixels in Spectrum: 3648
>>>>>Begin Spectral Data<<<<<
178.204	-44.88
178.424	-44.88
178.644	-44.88
178.864	-147.28
179.084	-91.99
179.304	28.84
179.524	14.51
179.744	0.17
179.964	-61.27
180.184	28.84
180.404	28.84
180.624	-16.21
180.844	16.55
181.064	-36.69
181.283	-51.03
181.503	24.75
181.723	22.7
181.943	-63.32
182.163	59.56
182.383	39.08
182.602	71.85
182.822	57.51
183.042	73.9
183.262	4.27
183.482	16.55
183.701	12.46
183.921	0.17
184.141	61.61
184.361	47.27
184.58	12.46
184.8	12.46
185.02	41.13
185.239	61.61
185.459	47.27
185.679	63.66
185.898	-40.79
186.118	94.38
186.338	8.36
186.557	16.55
186.777	69.8
186.997	71.85
187.216	-42.84
187.436	135.34
187.655	39.08
187.875	6.31
188.095	20.65
188.314	118.95
188.534	106.67
188.753	94.38
188.973	-5.97
189.192	69.8
189.412	86.19
189.631	61.61
189.851	110.76
190.07	102.57
190.29	61.61
190.509	-44.88
190.729	-20.31
190.948	43.18
191.168	149.67
191.387	110.76
191.607	14.51
191.826	55.47
192.045	96.43
192.265	-5.97
192.484	12.46
192.704	39.08
192.923	-20.31
193.142	133.29
193.362	114.86
193.581	45.23
193.8	61.61
194.02	4.27
194.239	-12.12
194.458	-34.64
194.678	0.17
194.897	-26.45
195.116	86.19
195.335	20.65
195.555	84.14
195.774	53.42
195.993	102.57
196.212	-5.97
196.432	47.27
196.651	-1.88
196.87	28.84
197.089	176.3
197.308	-36.69
197.528	69.8
197.747	28.84
197.966	-28.5
198.185	82.09
198.404	77.99
198.623	77.99
198.842	133.29
199.062	77.99
199.281	77.99
199.5	69.8
199.719	41.13
199.938	84.14
200.157	-3.93
200.376	20.65
200.595	61.61
200.814	20.65
201.033	20.65
201.252	22.7
201.471	43.18
201.69	80.04
201.909	86.19
202.128	63.66
202.347	-28.5
202.566	57.51
202.785	37.03
203.004	0.17
203.223	90.28
203.442	28.84
203.661	110.76
203.879	12.46
204.098	61.61
204.317	-18.26
204.536	6.31
204.755	47.27
204.974	34.99
205.193	84.14
205.411	147.62
205.63	47.27
205.849	-12.12
206.068	-16.21
206.287	-20.31
206.505	114.86
206.724	49.32
206.943	86.19
207.162	45.23
207.381	12.46
207.599	53.42
207.818	98.47
208.037	37.03
208.255	45.23
208.474	39.08
208.693	41.13
208.911	61.61
209.13	77.99
209.349	-10.07
209.567	53.42
209.786	80.04
210.005	116.9
210.223	10.41
210.442	-26.45
210.661	96.43
210.879	-12.12
211.098	47.27
211.316	80.04
211.535	92.33
211.753	-20.31
211.972	20.65
212.191	80.04
212.409	86.19
212.628	47.27
212.846	26.79
213.065	57.51
213.283	98.47
213.502	28.84
213.72	37.03
213.938	84.14
214.157	82.09
214.375	110.76
214.594	14.51
214.812	32.94
215.031	82.09
215.249	-12.12
215.467	12.46
215.686	-16.21
215.904	4.27
216.122	28.84
216.341	20.65
216.559	82.09
216.778	61.61
216.996	51.37
217.214	104.62
217.432	73.9
217.651	61.61
217.869	30.89
218.087	94.38
218.306	-16.21
218.524	0.17
218.742	143.53
218.96	22.7
219.179	53.42
219.397	45.23
219.615	88.23
219.833	12.46
220.051	-24.4
220.27	102.57
220.488	86.19
220.706	-24.4
220.924	86.19
221.142	47.27
221.36	94.38
221.578	28.84
221.796	0.17
222.015	69.8
222.233	14.51
222.451	75.95
222.669	73.9
222.887	53.42
223.105	16.55
223.323	45.23
223.541	65.71
223.759	77.99
223.977	51.37
224.195	32.94
224.413	49.32
224.631	-3.93
224.849	28.84
225.067	102.57
225.285	18.6
225.503	84.14
225.721	41.13
225.939	47.27
226.157	-8.02
226.375	53.42
226.592	49.32
226.81	125.1
227.028	4.27
227.246	123.05
227.464	49.32
227.682	65.71
227.9	-8.02
228.117	61.61
228.335	45.23
228.553	-32.6
228.771	18.6
228.989	55.47
229.206	143.53
229.424	59.56
229.642	71.85
229.86	16.55
230.077	55.47
230.295	172.2
230.513	49.32
230.731	90.28
230.948	69.8
231.166	110.76
231.384	65.71
231.601	-26.45
231.819	73.9
232.037	-24.4
232.254	10.41
232.472	41.13
232.689	57.51
232.907	65.71
233.125	41.13
233.342	77.99
233.56	14.51
233.777	82.09
233.995	49.32
234.213	39.08
234.43	34.99
234.648	67.75
234.865	6.31
235.083	45.23
235.3	32.94
235.518	71.85
235.735	73.9
235.953	139.43
236.17	37.03
236.388	61.61
236.605	22.7
236.822	28.84
237.04	77.99
237.257	28.84
237.475	14.51
237.692	41.13
237.909	49.32
238.127	80.04
238.344	12.46
238.562	71.85
238.779	20.65
238.996	-20.31
239.214	73.9
239.431	96.43
239.648	55.47
239.865	112.81
240.083	102.57
240.3	37.03
240.517	34.99
240.735	102.57
240.952	61.61
241.169	116.9
241.386	24.75
241.603	-8.02
241.821	-18.26
242.038	84.14
242.255	-12.12
242.472	28.84
242.689	108.71
242.907	69.8
243.124	53.42
243.341	106.67
243.558	53.42
243.775	39.08
243.992	-61.27
244.209	37.03
244.426	127.14
244.643	20.65
244.86	28.84
245.078	112.81
245.295	12.46
245.512	51.37
245.729	-8.02
245.946	32.94
246.163	18.6
246.38	-1.88
246.597	41.13
246.814	49.32
247.031	53.42
247.248	86.19
247.464	20.65
247.681	34.99
247.898	90.28
248.115	4.27
248.332	16.55
248.549	65.71
248.766	110.76
248.983	145.58
249.2	10.41
249.417	69.8
249.633	28.84
249.85	47.27
250.067	114.86
250.284	53.42
250.501	65.71
250.717	22.7
250.934	-12.12
251.151	-32.6
251.368	114.86
251.585	28.84
251.801	-34.64
252.018	-42.84
252.235	96.43
252.451	-18.26
252.668	55.47
252.885	30.89
253.102	80.04
253.318	28.84
253.535	53.42
253.752	57.51
253.968	77.99
254.185	-44.88
254.401	71.85
254.618	176.3
254.835	84.14
255.051	94.38
255.268	57.51
255.484	4.27
255.701	43.18
255.917	71.85
256.134	24.75
256.351	16.55
256.567	-1.88
256.784	26.79
257	-20.31
257.217	-3.93
257.433	59.56
257.65	71.85
257.866	37.03
258.082	4.27
258.299	-20.31
258.515	110.76
258.732	45.23
258.948	61.61
259.165	47.27
259.381	80.04
259.597	61.61
259.814	53.42
260.03	53.42
260.246	112.81
260.463	77.99
260.679	143.53
260.895	24.75
261.112	57.51
261.328	-20.31
261.544	37.03
261.761	84.14
261.977	6.31
262.193	32.94
262.409	16.55
262.626	67.75
262.842	90.28
263.058	24.75
263.274	45.23
263.49	18.6
263.707	69.8
263.923	28.84
264.139	55.47
264.355	41.13
264.571	53.42
264.787	28.84
265.004	-5.97
265.22	41.13
265.436	63.66
265.652	-10.07
265.868	127.14
266.084	55.47
266.3	53.42
266.516	45.23
266.732	41.13
266.948	8.36
267.164	114.86
267.38	45.23
267.596	55.47
267.812	77.99
268.028	65.71
268.244	55.47
268.46	12.46
268.676	86.19
268.892	71.85
269.108	71.85
269.324	20.65
269.54	39.08
269.756	112.81
269.972	-26.45
270.188	94.38
270.403	8.36
270.619	41.13
270.835	94.38
271.051	26.79
271.267	-16.21
271.483	43.18
271.698	71.85
271.914	-20.31
272.13	26.79
272.346	63.66
272.562	22.7
272.777	53.42
272.993	-42.84
273.209	4.27
273.425	39.08
273.64	41.13
273.856	84.14
274.072	2.22
274.287	49.32
274.503	30.89
274.719	22.7
274.934	32.94
275.15	12.46
275.366	108.71
275.581	-20.31
275.797	45.23
276.012	34.99
276.228	12.46
276.444	41.13
276.659	-12.12
276.875	-1.88
277.09	28.84
277.306	28.84
277.521	71.85
277.737	30.89
277.952	61.61
278.168	39.08
278.383	28.84
278.599	22.7
278.814	30.89
279.03	-26.45
279.245	135.34
279.461	-28.5
279.676	139.43
279.892	4.27
280.107	55.47
280.322	47.27
280.538	65.71
280.753	30.89
280.969	55.47
281.184	71.85
281.399	53.42
281.615	-18.26
281.83	53.42
282.045	12.46
282.26	28.84
282.476	14.51
282.691	-98.13
282.906	45.23
283.122	77.99
283.337	51.37
283.552	37.03
283.767	51.37
283.983	123.05
284.198	0.17
284.413	71.85
284.628	71.85
284.843	77.99
285.058	55.47
285.274	67.75
285.489	-24.4
285.704	61.61
285.919	-44.88
286.134	98.47
286.349	55.47
286.564	77.99
286.779	110.76
286.995	53.42
287.21	-59.22
287.425	104.62
287.64	55.47
287.855	20.65
288.07	39.08
288.285	102.57
288.5	39.08
288.715	73.9
288.93	28.84
289.145	73.9
289.36	53.42
289.575	34.99
289.79	121
290.004	86.19
290.219	94.38
290.434	71.85
290.649	-16.21
290.864	30.89
291.079	84.14
291.294	63.66
291.509	-59.22
291.724	20.65
291.938	86.19
292.153	110.76
292.368	94.38
292.583	49.32
292.798	45.23
293.012	88.23
293.227	135.34
293.442	86.19
293.657	4.27
293.871	110.76
294.086	73.9
294.301	86.19
294.516	43.18
294.73	12.46
294.945	20.65
295.16	61.61
295.374	86.19
295.589	55.47
295.804	43.18
296.018	53.42
296.233	94.38
296.447	102.57
296.662	-59.22
296.877	104.62
297.091	100.52
297.306	30.89
297.52	-1.88
297.735	55.47
297.949	28.84
298.164	24.75
298.378	82.09
298.593	135.34
298.807	45.23
299.022	37.03
299.236	57.51
299.451	43.18
299.665	55.47
299.88	-12.12
300.094	53.42
300.309	24.75
300.523	98.47
300.737	4.27
300.952	34.99
301.166	90.28
301.381	30.89
301.595	86.19
301.809	102.57
302.024	37.03
302.238	14.51
302.452	45.23
302.667	69.8
302.881	53.42
303.095	43.18
303.309	86.19
303.524	61.61
303.738	16.55
303.952	32.94
304.166	118.95
304.381	22.7
304.595	104.62
304.809	30.89
305.023	98.47
305.237	53.42
305.452	71.85
305.666	96.43
305.88	121
306.094	86.19
306.308	67.75
306.522	49.32
306.736	86.19
306.95	77.99
307.164	12.46
307.379	69.8
307.593	178.34
307.807	86.19
308.021	153.77
308.235	45.23
308.449	-53.08
308.663	47.27
308.877	118.95
309.091	-12.12
309.305	18.6
309.519	-26.45
309.733	67.75
309.947	0.17
310.161	77.99
310.374	26.79
310.588	71.85
310.802	47.27
311.016	47.27
311.23	24.75
311.444	37.03
311.658	-20.31
311.872	69.8
312.085	65.71
312.299	102.57
312.513	151.72
312.727	49.32
312.941	-8.02
313.154	-20.31
313.368	22.7
313.582	-14.17
313.796	61.61
314.009	69.8
314.223	32.94
314.437	82.09
314.651	-8.02
314.864	86.19
315.078	127.14
315.292	61.61
315.505	6.31
315.719	71.85
315.933	39.08
316.146	28.84
316.36	2.22
316.573	69.8
316.787	110.76
317.001	45.23
317.214	8.36
317.428	102.57
317.641	30.89
317.855	-3.93
318.068	32.94
318.282	4.27
318.495	57.51
318.709	73.9
318.922	30.89
319.136	94.38
319.349	55.47
319.563	-32.6
319.776	51.37
319.99	18.6
320.203	69.8
320.417	110.76
320.63	20.65
320.843	84.14
321.057	90.28
321.27	37.03
321.483	49.32
321.697	121
321.91	45.23
322.124	12.46
322.337	94.38
322.55	51.37
322.763	53.42
322.977	77.99
323.19	28.84
323.403	22.7
323.617	82.09
323.83	49.32
324.043	20.65
324.256	53.42
324.469	-32.6
324.683	94.38
324.896	69.8
325.109	90.28
325.322	-3.93
325.535	45.23
325.748	26.79
325.962	-20.31
326.175	20.65
326.388	61.61
326.601	37.03
326.814	51.37
327.027	-10.07
327.24	118.95
327.453	73.9
327.666	98.47
327.879	65.71
328.092	102.57
328.305	12.46
328.518	-10.07
328.731	102.57
328.944	129.19
329.157	80.04
329.37	80.04
329.583	147.62
329.796	121
330.009	6.31
330.222	137.38
330.435	47.27
330.648	84.14
330.861	86.19
331.073	39.08
331.286	168.1
331.499	92.33
331.712	-5.97
331.925	47.27
332.138	37.03
332.35	69.8
332.563	20.65
332.776	47.27
332.989	37.03
333.202	77.99
333.414	-30.55
333.627	88.23
333.84	37.03
334.053	-12.12
334.265	77.99
334.478	0.17
334.691	20.65
334.903	30.89
335.116	41.13
335.329	90.28
335.541	127.14
335.754	121
335.966	49.32
336.179	84.14
336.392	90.28
336.604	32.94
336.817	71.85
337.029	16.55
337.242	20.65
337.454	135.34
337.667	18.6
337.88	108.71
338.092	28.84
338.305	121
338.517	32.94
338.729	80.04
338.942	65.71
339.154	82.09
339.367	20.65
339.579	104.62
339.792	20.65
340.004	100.52
340.217	39.08
340.429	20.65
340.641	65.71
340.854	30.89
341.066	4.27
341.278	41.13
341.491	77.99
341.703	92.33
341.915	39.08
342.128	20.65
342.34	80.04
342.552	-32.6
342.764	-16.21
342.977	20.65
343.189	71.85
343.401	30.89
343.613	10.41
343.826	20.65
344.038	32.94
344.25	86.19
344.462	-12.12
344.674	110.76
344.886	55.47
345.099	30.89
345.311	143.53
345.523	73.9
345.735	57.51
345.947	45.23
346.159	49.32
346.371	28.84
346.583	-8.02
346.795	45.23
347.007	6.31
347.219	71.85
347.431	43.18
347.643	61.61
347.855	22.7
348.067	47.27
348.279	-42.84
348.491	110.76
348.703	-36.69
348.915	30.89
349.127	-16.21
349.339	94.38
349.551	77.99
349.763	86.19
349.975	53.42
350.187	77.99
350.399	84.14
350.61	77.99
350.822	43.18
351.034	143.53
351.246	69.8
351.458	12.46
351.669	37.03
351.881	121
352.093	32.94
352.305	151.72
352.517	55.47
352.728	176.3
352.94	-40.79
353.152	6.31
353.363	12.46
353.575	106.67
353.787	37.03
353.999	16.55
354.21	61.61
354.422	37.03
354.633	28.84
354.845	86.19
355.057	90.28
355.268	28.84
355.48	77.99
355.692	0.17
355.903	20.65
356.115	28.84
356.326	-59.22
356.538	94.38
356.749	59.56
356.961	94.38
357.172	90.28
357.384	16.55
357.595	100.52
357.807	39.08
358.018	20.65
358.23	37.03
358.441	106.67
358.653	63.66
358.864	28.84
359.075	-32.6
359.287	41.13
359.498	102.57
359.709	61.61
359.921	14.51
360.132	108.71
360.344	51.37
360.555	88.23
360.766	28.84
360.977	82.09
361.189	41.13
361.4	82.09
361.611	53.42
361.823	82.09
362.034	61.61
362.245	-53.08
362.456	55.47
362.667	22.7
362.879	30.89
363.09	69.8
363.301	63.66
363.512	-36.69
363.723	55.47
363.935	63.66
364.146	82.09
364.357	45.23
364.568	69.8
364.779	16.55
364.99	69.8
365.201	49.32
365.412	24.75
365.623	30.89
365.834	45.23
366.045	77.99
366.256	112.81
366.467	71.85
366.678	90.28
366.889	30.89
367.1	14.51
367.311	77.99
367.522	71.85
367.733	61.61
367.944	104.62
368.155	20.65
368.366	164.01
368.577	77.99
368.788	71.85
368.999	61.61
369.209	28.84
369.42	96.43
369.631	133.29
369.842	39.08
370.053	77.99
370.264	94.38
370.474	43.18
370.685	59.56
370.896	53.42
371.107	143.53
371.317	2.22
371.528	94.38
371.739	147.62
371.95	57.51
372.16	57.51
372.371	-12.12
372.582	84.14
372.792	14.51
373.003	34.99
373.214	98.47
373.424	151.72
373.635	45.23
373.846	133.29
374.056	49.32
374.267	106.67
374.477	71.85
374.688	39.08
374.898	-59.22
375.109	110.76
375.319	53.42
375.53	84.14
375.74	37.03
375.951	108.71
376.161	41.13
376.372	57.51
376.582	57.51
376.793	28.84
377.003	12.46
377.214	82.09
377.424	121
377.635	12.46
377.845	-14.17
378.055	88.23
378.266	-16.21
378.476	16.55
378.686	127.14
378.897	77.99
379.107	127.14
379.317	100.52
379.528	18.6
379.738	80.04
379.948	45.23
380.158	6.31
380.369	12.46
380.579	63.66
380.789	4.27
380.999	37.03
381.21	53.42
381.42	88.23
381.63	59.56
381.84	55.47
382.05	61.61
382.261	82.09
382.471	67.75
382.681	14.51
382.891	90.28
383.101	67.75
383.311	37.03
383.521	43.18
383.731	49.32
383.941	55.47
384.151	67.75
384.361	10.41
384.571	-5.97
384.781	96.43
384.991	47.27
385.201	135.34
385.411	43.18
385.621	77.99
385.831	14.51
386.041	86.19
386.251	65.71
386.461	102.57
386.671	61.61
386.881	86.19
387.091	104.62
387.301	137.38
387.511	16.55
387.72	110.76
387.93	77.99
388.14	34.99
388.35	45.23
388.56	49.32
388.769	37.03
388.979	59.56
389.189	106.67
389.399	65.71
389.609	-55.12
389.818	28.84
390.028	-24.4
390.238	39.08
390.447	141.48
390.657	114.86
390.867	116.9
391.076	18.6
391.286	102.57
391.496	20.65
391.705	82.09
391.915	24.75
392.125	45.23
392.334	-5.97
392.544	41.13
392.753	61.61
392.963	84.14
393.172	57.51
393.382	127.14
393.591	143.53
393.801	53.42
394.01	112.81
394.22	108.71
394.429	110.76
394.639	57.51
394.848	112.81
395.058	77.99
395.267	41.13
395.477	53.42
395.686	73.9
395.895	131.24
396.105	219.3
396.314	39.08
396.524	110.76
396.733	90.28
396.942	32.94
397.152	102.57
397.361	114.86
397.57	39.08
397.78	61.61
397.989	170.15
398.198	241.83
398.407	116.9
398.617	39.08
398.826	77.99
399.035	116.9
399.244	104.62
399.453	110.76
399.663	65.71
399.872	37.03
400.081	-8.02
400.29	45.23
400.499	61.61
400.708	94.38
400.917	71.85
401.127	57.51
401.336	63.66
401.545	186.54
401.754	178.34
401.963	51.37
402.172	71.85
402.381	82.09
402.59	51.37
402.799	118.95
403.008	67.75
403.217	61.61
403.426	145.58
403.635	96.43
403.844	123.05
404.053	123.05
404.262	65.71
404.471	131.24
404.68	170.15
404.888	92.33
405.097	131.24
405.306	94.38
405.515	131.24
405.724	127.14
405.933	106.67
406.142	159.91
406.35	168.1
406.559	184.49
406.768	118.95
406.977	200.87
407.185	123.05
407.394	178.34
407.603	86.19
407.812	88.23
408.02	217.26
408.229	145.58
408.438	145.58
408.646	98.47
408.855	147.62
409.064	245.93
409.272	168.1
409.481	221.35
409.69	219.3
409.898	184.49
410.107	180.39
410.315	245.93
410.524	194.73
410.733	217.26
410.941	284.84
411.15	256.17
411.358	268.45
411.567	309.41
411.775	200.87
411.984	276.65
412.192	348.33
412.401	311.46
412.609	358.57
412.818	350.37
413.026	325.8
413.234	303.27
413.443	331.94
413.651	368.81
413.86	327.85
414.068	340.13
414.276	356.52
414.485	366.76
414.693	450.72
414.901	458.92
415.11	471.2
415.318	428.2
415.526	503.97
415.734	516.26
415.943	530.59
416.151	481.44
416.359	473.25
416.567	571.55
416.776	544.93
416.984	624.8
417.192	620.71
417.4	669.86
417.608	596.13
417.817	549.03
418.025	643.23
418.233	696.48
418.441	643.23
418.649	719.01
418.857	741.54
419.065	858.27
419.273	749.73
419.481	790.69
419.689	864.41
419.897	962.72
420.105	856.22
420.313	975
420.521	1054.87
420.729	938.14
420.937	1077.4
421.145	1093.79
421.353	1085.59
421.561	1239.19
421.769	1151.13
421.977	1208.47
422.185	1231
422.393	1308.82
422.601	1405.08
422.809	1276.06
423.017	1446.04
423.224	1400.98
423.432	1421.46
423.64	1448.08
423.848	1595.54
424.056	1579.15
424.263	1634.45
424.471	1738.9
424.679	1710.22
424.887	1826.96
425.094	1900.69
425.302	1906.83
425.51	1876.11
425.718	1978.51
425.925	2101.39
426.133	2021.52
426.341	2259.08
426.548	2306.18
426.756	2304.14
426.964	2318.47
427.171	2373.77
427.379	2617.47
427.586	2549.89
427.794	2666.63
428.001	2816.13
428.209	2805.89
428.417	2936.96
428.624	3072.12
428.832	2977.92
429.039	3043.45
429.247	3147.9
429.454	3354.74
429.662	3565.68
429.869	3424.37
430.076	3534.96
430.284	3494.01
430.491	3623.03
430.699	3879.02
430.906	3864.69
431.114	3952.75
431.321	4010.09
431.528	4214.89
431.736	4444.26
431.943	4579.43
432.15	4395.11
432.358	4366.44
432.565	4761.7
432.772	4669.54
432.979	4919.39
433.187	4995.17
433.394	5052.51
433.601	5281.88
433.808	5404.76
434.016	5238.87
434.223	5357.66
434.43	5951.57
434.637	5716.05
434.844	6180.94
435.052	6207.56
435.259	6193.23
435.466	6226
435.673	6193.23
435.88	6525
436.087	6850.63
436.294	6944.83
436.501	6819.91
436.708	6889.54
436.915	7307.32
437.122	7428.15
437.329	7630.9
437.537	7721.01
437.743	7659.57
437.95	7680.05
438.157	8138.8
438.364	8267.82
438.571	8435.75
438.778	8353.84
438.985	9289.76
439.192	8878.12
439.399	9228.32
439.606	8863.78
439.813	9465.88
440.02	10119.18
440.227	10022.93
440.433	9746.45
440.64	10094.61
440.847	9760.79
441.054	10289.17
441.261	10965
441.467	10680.33
441.674	11020.29
441.881	11595.77
442.088	11419.64
442.294	11311.1
442.501	11778.04
442.708	11767.8
442.914	12277.74
443.121	12922.85
443.328	12480.49
443.534	13324.26
443.741	12965.86
443.948	12892.13
444.154	13651.93
444.361	13686.75
444.568	13764.57
444.774	13889.49
444.981	14006.23
445.187	14385.1
445.394	15028.17
445.6	14725.07
445.807	16345.01
446.013	15415.23
446.22	15916.98
446.426	16615.34
446.633	16822.19
446.839	17311.65
447.046	16572.33
447.252	17393.57
447.459	17508.26
447.665	17325.99
447.871	18200.47
448.078	19007.37
448.284	17921.95
448.491	18642.83
448.697	19218.31
448.903	20008.83
449.11	19863.42
449.316	19447.68
449.522	19943.29
449.728	20662.13
449.935	20512.63
450.141	20524.91
450.347	21147.5
450.553	20672.37
450.76	20375.41
450.966	21352.29
451.172	21077.87
451.378	21645.15
451.584	21321.57
451.791	22019.93
451.997	21997.4
452.203	22353.75
452.409	21940.06
452.615	22335.32
452.821	21208.94
453.027	20954.99
453.233	22173.53
453.44	21454.69
453.646	21520.23
453.852	21966.68
454.058	22269.78
454.264	21333.86
454.47	21862.24
454.676	21247.85
454.882	21938.01
455.088	20238.2
455.294	20709.23
455.5	21059.43
455.705	21505.89
455.911	20365.17
456.117	19597.18
456.323	19832.7
456.529	18931.59
456.735	19451.78
456.941	18999.18
457.147	18835.34
457.352	18274.2
457.558	18083.73
457.764	18096.02
457.97	17684.38
458.176	17536.93
458.381	17491.87
458.587	16258.99
458.793	16449.46
458.999	15845.3
459.204	16881.58
459.41	16302
459.616	15343.55
459.821	15409.09
460.027	15306.69
460.233	14968.77
460.438	14184.4
460.644	14405.58
460.85	13901.78
461.055	13613.02
461.261	13391.84
461.466	12369.9
461.672	12249.07
461.878	13031.4
462.083	12302.32
462.289	11859.96
462.494	12038.13
462.7	11247.62
462.905	11061.25
463.111	11403.26
463.316	11493.37
463.522	11243.52
463.727	11304.96
463.932	11464.7
464.138	11194.37
464.343	11108.35
464.549	10706.95
464.754	11177.98
464.959	11102.21
465.165	11175.94
465.37	10496.01
465.575	10231.82
465.781	10625.03
465.986	10803.21
466.191	10596.36
466.397	10108.94
466.602	9746.45
466.807	10293.26
467.012	10002.45
467.218	9936.92
467.423	9992.21
467.628	9855
467.833	10547.21
468.038	10121.23
468.244	9703.45
468.449	10057.75
468.654	9793.56
468.859	9590.81
469.064	9682.97
469.269	9412.64
469.474	9379.87
469.679	9435.16
469.885	9302.04
470.09	9394.2
470.295	9345.05
470.5	9216.03
470.705	9228.32
470.91	8996.9
471.115	9099.3
471.32	9084.96
471.525	8929.31
471.73	8740.9
471.935	8806.44
472.139	8607.78
472.344	8515.62
472.549	8523.82
472.754	8357.93
472.959	8370.22
473.164	8298.54
473.369	8009.78
473.574	8237.1
473.778	8136.75
473.983	8081.46
474.188	7950.39
474.393	7686.2
474.598	7827.51
474.802	7811.12
475.007	7538.74
475.212	7635
475.417	7286.84
475.621	7469.11
475.826	7655.48
476.031	7387.19
476.235	7133.25
476.44	7229.5
476.645	7075.9
476.849	7256.12
477.054	6838.34
477.259	6852.67
477.463	6813.76
477.668	6864.96
477.872	6914.11
478.077	6828.1
478.282	6512.71
478.486	6508.62
478.691	6576.2
478.895	6285.39
479.1	6398.03
479.304	6443.08
479.509	6344.78
479.713	6461.51
479.918	6266.96
480.122	6246.48
480.326	6383.69
480.531	6269
480.735	6189.13
480.94	6123.6
481.144	6271.05
481.348	6125.65
481.553	6041.68
481.757	5992.53
481.961	5939.28
482.166	6148.17
482.37	6199.37
482.574	5994.58
482.778	5984.34
482.983	6025.29
483.187	6068.3
483.391	6013.01
483.595	5994.58
483.8	5961.81
484.004	5957.71
484.208	6084.69
484.412	5988.43
484.616	5902.42
484.821	6037.58
485.025	6015.05
485.229	6033.49
485.433	5877.84
485.637	5947.47
485.841	6092.88
486.045	6037.58
486.249	5926.99
486.453	5965.9
486.657	5914.7
486.861	6119.5
487.065	6010.96
487.269	6006.86
487.473	5845.07
487.677	6139.98
487.881	6115.41
488.085	5978.19
488.289	6123.6
488.493	6017.1
488.697	6182.99
488.901	6180.94
489.105	6021.2
489.309	6119.5
489.512	6135.89
489.716	6232.14
489.92	6099.02
490.124	6248.52
490.328	6096.97
490.531	6262.86
490.735	6271.05
490.939	6320.2
491.143	6426.7
491.346	6332.49
491.55	6514.76
491.754	6359.11
491.958	6459.46
492.161	6359.11
492.365	6533.19
492.569	6408.26
492.772	6381.64
492.976	6578.25
493.18	6557.77
493.383	6514.76
493.587	6551.62
493.79	6709.32
493.994	6699.08
494.197	6805.57
494.401	6697.03
494.605	6850.63
494.808	6961.22
495.012	6910.02
495.215	7092.29
495.419	7112.77
495.622	7155.77
495.825	7323.71
496.029	7209.02
496.232	7372.86
496.436	7397.43
496.639	7612.47
496.843	7569.46
497.046	7635
497.249	7657.53
497.453	7858.23
497.656	7997.49
497.859	7960.63
498.063	8071.22
498.266	8075.31
498.469	8106.03
498.673	8251.44
498.876	8460.33
499.079	8368.17
499.282	8513.58
499.485	8947.75
499.689	8761.38
499.892	8886.31
500.095	8890.4
500.298	9240.61
500.501	9050.14
500.705	9326.62
500.908	9525.27
501.111	9498.65
501.314	9539.61
501.517	9711.64
501.72	9826.32
501.923	9918.48
502.126	9988.11
502.329	10371.08
502.532	10166.29
502.735	10418.19
502.938	10686.47
503.141	10633.22
503.344	10844.17
503.547	10979.33
503.75	11073.54
503.953	11325.44
504.156	11376.64
504.359	11417.6
504.562	11569.15
504.765	11974.64
504.968	12263.41
505.17	12025.84
505.373	12120.05
505.576	12335.09
505.779	12347.37
505.982	12572.65
506.185	12695.53
506.387	12785.64
506.59	13244.38
506.793	13426.65
506.996	13172.71
507.198	13649.88
507.401	13684.7
507.604	14012.37
507.807	14127.06
508.009	14163.92
508.212	14282.7
508.415	14671.82
508.617	14729.16
508.82	14677.96
509.022	14757.83
509.225	15134.66
509.428	15284.16
509.63	15495.1
509.833	15902.65
510.035	16107.44
510.238	15962.04
510.44	16070.58
510.643	16455.6
510.845	16594.86
511.048	16293.81
511.25	16783.27
511.453	16748.46
511.655	17633.18
511.858	17498.02
512.06	17461.15
512.262	17764.25
512.465	17852.31
512.667	18034.58
512.87	18323.35
513.072	18501.52
513.274	18640.78
513.477	18767.76
513.679	19005.32
513.881	19117.96
514.084	19502.98
514.286	19394.43
514.488	19812.22
514.69	20424.56
514.893	20273.01
515.095	20561.78
515.297	20852.59
515.499	20975.47
515.701	20993.9
515.904	21475.17
516.106	21350.24
516.308	21532.51
516.51	21835.61
516.712	21942.11
516.914	22347.61
517.116	22613.84
517.318	22810.45
517.52	22878.03
517.722	22890.32
517.925	23127.88
518.127	23920.45
518.329	23953.21
518.531	23631.68
518.733	24055.61
518.935	24362.81
519.136	24393.53
519.338	24680.24
519.54	25077.55
519.742	25327.4
519.944	25446.18
520.146	25949.98
520.348	25780
520.55	25685.79
520.752	26142.49
520.954	26588.95
521.155	26451.74
521.357	27012.88
521.559	27105.04
521.761	27539.21
521.963	27414.28
522.164	27795.2
522.366	27891.46
522.568	28122.88
522.77	28223.23
522.971	28792.56
523.173	28428.02
523.375	29173.49
523.576	28587.77
523.778	28985.07
523.98	29134.57
524.181	29708.01
524.383	29357.8
524.584	29665
524.786	29740.77
524.988	29931.23
525.189	30279.39
525.391	30269.15
525.592	30566.1
525.794	30359.26
525.995	30938.83
526.197	30858.96
526.398	30836.44
526.6	31110.86
526.801	31028.95
527.003	31213.26
527.204	31717.06
527.406	31588.04
527.607	31964.87
527.808	31954.63
528.01	31772.36
528.211	31241.93
528.412	32526.01
528.614	32081.6
528.815	32319.17
529.016	32552.63
529.218	32472.76
529.419	32607.93
529.62	32687.8
529.822	32655.03
530.023	32755.38
530.224	32628.41
530.425	32665.27
530.626	32708.28
530.828	32503.48
531.029	33439.4
531.23	32577.21
531.431	32935.6
531.632	33429.16
531.833	33191.6
532.035	33416.88
532.236	33281.71
532.437	33154.74
532.638	33285.81
532.839	33500.84
533.04	33447.6
533.241	33255.09
533.442	33924.77
533.643	33621.67
533.844	33373.87
534.045	33674.92
534.246	33193.65
534.447	33793.7
534.648	33515.18
534.849	33304.24
535.05	33570.47
535.251	33355.44
535.451	33189.55
535.652	33826.47
535.853	33562.28
536.054	33676.97
536.255	33982.12
536.456	33562.28
536.657	33871.53
536.857	33728.17
537.058	34160.29
537.259	33939.11
537.46	33748.65
537.66	33762.98
537.861	34037.41
538.062	33601.19
538.263	33855.14
538.463	33586.86
538.664	34086.56
538.865	34133.67
539.065	34041.51
539.266	33230.51
539.466	33816.23
539.667	33595.05
539.868	34197.15
540.068	33701.54
540.269	33805.99
540.469	33826.47
540.67	33302.19
540.87	33986.21
541.071	33758.89
541.271	34029.22
541.472	33967.78
541.672	33560.23
541.873	33574.57
542.073	33025.71
542.274	33765.03
542.474	33484.46
542.675	33242.8
542.875	33801.89
543.075	33709.74
543.276	33500.84
543.476	34104.99
543.676	33500.84
543.877	33824.42
544.077	33644.2
544.277	33744.55
544.478	33883.81
544.678	33617.58
544.878	33457.84
545.078	33646.25
545.279	33357.49
545.479	33726.12
545.679	33728.17
545.879	33599.15
546.079	33832.61
546.28	33375.92
546.48	33353.39
546.68	33390.25
546.88	33670.82
547.08	33416.88
547.28	33560.23
547.48	33459.88
547.68	33636.01
547.88	32939.7
548.081	33705.64
548.281	33556.14
548.481	33437.36
548.681	33853.09
548.881	33504.94
549.081	33443.5
549.28	33300.14
549.48	33842.85
549.68	33642.15
549.88	33744.55
550.08	33529.52
550.28	33513.13
550.48	33414.83
550.68	33445.55
550.88	33728.17
551.08	33511.08
551.279	33549.99
551.479	33359.53
551.679	33533.61
551.879	33289.9
552.079	33425.07
552.278	33099.44
552.478	33486.51
552.678	33193.65
552.878	33615.53
553.077	33314.48
553.277	32794.29
553.477	33646.25
553.676	33275.57
553.876	33246.9
554.076	33277.61
554.275	33001.14
554.475	32663.22
554.674	32999.09
554.874	33097.39
555.074	32935.6
555.273	33124.02
555.473	33250.99
555.672	33021.62
555.872	33099.44
556.071	32911.03
556.271	32847.54
556.47	32536.25
556.67	32528.06
556.869	32960.18
557.068	32986.8
557.268	32587.45
557.467	32939.7
557.667	32593.59
557.866	32906.93
558.065	32628.41
558.265	32546.49
558.464	32102.08
558.663	32839.35
558.863	32169.66
559.062	32736.95
559.261	32069.31
559.461	32573.11
559.66	31962.82
559.859	32325.31
560.058	32263.87
560.258	32386.75
560.457	32106.18
560.656	32093.89
560.855	31848.13
561.054	32544.44
561.253	32016.07
561.453	32083.65
561.652	32132.8
561.851	31923.91
562.05	31653.58
562.249	31876.8
562.448	31788.74
562.647	31753.93
562.846	31495.88
563.045	31370.96
563.244	31270.61
563.443	31985.35
563.642	31260.37
563.841	31581.9
564.04	31397.58
564.239	31577.8
564.438	31383.24
564.637	31307.47
564.836	31426.25
565.035	31049.42
565.234	31114.96
565.432	31100.62
565.631	30600.92
565.83	31035.09
566.029	31018.71
566.228	30779.09
566.427	30686.93
566.625	30664.41
566.824	30639.83
567.023	30906.07
567.222	30260.96
567.42	30680.79
567.619	30363.36
567.818	30330.59
568.016	30512.86
568.215	30334.68
568.414	30240.48
568.612	30240.48
568.811	30043.87
569.01	30099.17
569.208	29603.56
569.407	29990.63
569.605	29388.52
569.804	30152.41
570.002	29310.7
570.201	30062.3
570.4	29337.32
570.598	29439.72
570.797	29560.55
570.995	29427.43
571.193	29089.52
571.392	29329.13
571.59	29202.16
571.789	29013.74
571.987	28784.37
572.186	28747.51
572.384	28677.88
572.582	28901.11
572.781	28448.5
572.979	28274.43
573.177	28401.4
573.376	28921.59
573.574	28196.6
573.772	28569.33
573.971	28360.44
574.169	28065.53
574.367	28266.24
574.565	27887.36
574.763	27928.32
574.962	27827.97
575.16	27954.94
575.358	27877.12
575.556	27614.98
575.754	27733.76
575.952	27594.5
576.151	27631.37
576.349	27361.03
576.547	27105.04
576.745	27438.86
576.943	27289.35
577.141	26988.3
577.339	27107.09
577.537	26910.48
577.735	26822.42
577.933	26691.35
578.131	27221.77
578.329	26564.37
578.527	26601.24
578.725	26627.86
578.923	26552.09
579.121	26595.09
579.319	26349.34
579.516	26449.69
579.714	26396.44
579.912	25917.22
580.11	26076.96
580.308	26152.73
580.506	25835.3
580.704	25642.79
580.901	26095.39
581.099	26105.63
581.297	25665.32
581.495	25444.13
581.692	25644.84
581.89	25474.85
582.088	25474.85
582.285	25540.39
582.483	25440.04
582.681	25311.02
582.878	25116.46
583.076	24850.22
583.274	25134.89
583.471	24964.91
583.669	24938.29
583.866	24817.46
584.064	24930.09
584.262	24606.52
584.459	24502.07
584.657	24467.25
584.854	24833.84
585.052	24395.57
585.249	24432.44
585.447	24555.32
585.644	24307.51
585.841	24174.39
586.039	24381.24
586.236	23934.78
586.434	23990.08
586.631	23699.27
586.828	23951.17
587.026	23600.96
587.223	23781.18
587.42	23887.68
587.618	23494.47
587.815	23430.98
588.012	23588.67
588.21	23422.79
588.407	23414.6
588.604	23177.03
588.801	23097.16
588.999	23525.19
589.196	22712.14
589.393	22959.95
589.59	22980.43
589.787	22898.51
589.984	22624.08
590.182	22771.54
590.379	22789.97
590.576	22390.61
590.773	22458.2
590.97	22470.48
591.167	22638.42
591.364	21942.11
591.561	22077.27
591.758	22007.64
591.955	22282.07
592.152	22105.95
592.349	21835.61
592.546	21854.05
592.743	22261.59
592.94	21763.93
593.137	21735.26
593.334	21837.66
593.531	21458.79
593.727	21862.24
593.924	21432.16
594.121	21153.64
594.318	21456.74
594.515	21331.81
594.712	21630.82
594.908	21221.22
595.105	21200.74
595.302	20942.7
595.499	20801.39
595.696	21151.59
595.892	20647.79
596.089	21036.91
596.286	20916.08
596.482	20862.83
596.679	20963.18
596.876	20670.32
597.072	20543.35
597.269	20580.21
597.466	20514.67
597.662	20352.88
597.859	20283.25
598.055	20432.75
598.252	20176.76
598.448	20395.89
598.645	19781.5
598.841	19920.76
599.038	20041.59
599.234	20025.21
599.431	19787.64
599.627	19654.53
599.824	19969.91
600.02	19502.98
600.217	19644.29
600.413	19281.8
600.609	19216.26
600.806	19607.42
601.002	19474.31
601.198	19472.26
601.395	19404.67
601.591	19152.77
601.787	19226.5
601.984	18993.03
602.18	19158.92
602.376	18812.81
602.572	19036.04
602.769	18909.07
602.965	19072.9
603.161	18634.64
603.357	18685.84
603.553	18526.1
603.75	18683.79
603.946	18378.64
604.142	18497.42
604.338	18114.45
604.534	18124.69
604.73	18067.35
604.926	18474.9
605.122	18251.67
605.318	18128.79
605.514	17807.26
605.71	17954.71
605.906	17819.55
606.102	17794.97
606.298	17690.52
606.494	17840.03
606.69	17786.78
606.886	17866.65
607.082	17641.37
607.278	17690.52
607.474	17346.47
607.67	17522.59
607.866	17205.16
608.062	17450.91
608.257	17248.16
608.453	17395.62
608.649	17328.03
608.845	17250.21
609.041	17137.57
609.236	17123.24
609.432	17162.15
609.628	17305.51
609.824	17102.76
610.019	16760.75
610.215	16969.64
610.411	17024.93
610.606	16863.15
610.802	17014.7
610.998	16877.48
611.193	16791.47
611.389	16486.32
611.584	16596.91
611.78	16426.93
611.976	16654.25
612.171	16687.02
612.367	16734.12
612.562	16132.02
612.758	16072.63
612.953	16107.44
613.149	16218.04
613.344	16005.05
613.539	16293.81
613.735	16424.88
613.93	16322.48
614.126	15951.8
614.321	16261.04
614.517	16183.22
614.712	15978.42
614.907	15890.36
615.103	15888.31
615.298	15548.35
615.493	16041.91
615.688	15724.47
615.884	15847.35
616.079	15617.98
616.274	15679.42
616.47	15581.12
616.665	15726.52
616.86	15699.9
617.055	15556.54
617.25	15527.87
617.445	15820.73
617.641	15089.6
617.836	15568.83
618.031	15077.32
618.226	15468.48
618.421	15237.06
618.616	15634.36
618.811	14849.99
619.006	15196.1
619.201	14897.1
619.396	15046.6
619.591	14712.78
619.786	14979.01
619.981	14628.81
620.176	14940.1
620.371	14647.24
620.566	14682.06
620.761	14208.98
620.956	14684.11
621.151	14415.82
621.346	14184.4
621.541	14149.59
621.735	14247.89
621.93	13971.41
622.125	14004.18
622.32	13924.31
622.515	13955.03
622.709	13823.96
622.904	13764.57
623.099	13840.34
623.294	13524.96
623.488	13551.58
623.683	13590.49
623.878	13203.43
624.072	13316.06
624.267	13506.52
624.462	13060.07
624.656	13090.79
624.851	13168.61
625.046	13098.98
625.24	12759.02
625.435	12675.05
625.629	12720.1
625.824	12849.13
626.018	12795.88
626.213	12304.37
626.407	12847.08
626.602	12376.05
626.796	12511.21
626.991	12363.76
627.185	12263.41
627.38	12212.21
627.574	12099.57
627.768	12136.43
627.963	11833.33
628.157	11974.64
628.352	11935.73
628.546	11599.87
628.74	11726.84
628.935	11743.22
629.129	11859.96
629.323	11448.32
629.517	11675.64
629.712	11440.12
629.906	11511.8
630.1	11270.14
630.294	11294.72
630.489	11051.01
630.683	11278.33
630.877	10987.52
631.071	11132.93
631.265	10924.04
631.459	10883.08
631.653	10786.82
631.848	10944.52
632.042	10688.52
632.236	10772.49
632.43	10709
632.624	10577.93
632.818	10432.52
633.012	10543.11
633.206	10414.09
633.4	10586.12
633.594	10213.39
633.788	10399.76
633.982	10207.25
634.176	10059.79
634.369	10166.29
634.563	10201.1
634.757	9773.08
634.951	10194.96
635.145	9820.18
635.339	9721.88
635.533	9842.71
635.726	9734.17
635.92	9588.76
636.114	9435.16
636.308	9738.26
636.501	9717.78
636.695	9449.5
636.889	9441.31
637.083	9363.48
637.276	9281.57
637.47	9259.04
637.664	9211.93
637.857	9162.78
638.051	8949.79
638.244	9007.14
638.438	8968.23
638.632	9027.62
638.825	8837.16
639.019	8933.41
639.212	9000.99
639.406	8867.88
639.599	8613.93
639.793	8632.36
639.986	8550.44
640.18	8886.31
640.373	8550.44
640.567	8464.43
640.76	8382.51
640.954	8398.89
641.147	8343.6
641.34	8353.84
641.534	8419.37
641.727	8075.31
641.92	8425.51
642.114	8181.81
642.307	8032.3
642.5	7952.43
642.694	7938.1
642.887	8044.59
643.08	7958.58
643.273	7811.12
643.467	7712.82
643.66	7688.25
643.853	7755.83
644.046	7514.17
644.239	7692.34
644.432	7534.65
644.626	7430.2
644.819	7366.71
645.012	7469.11
645.205	7567.42
645.398	7428.15
645.591	7237.69
645.784	7295.04
645.977	7249.98
646.17	7166.01
646.363	7067.71
646.556	6846.53
646.749	6961.22
646.942	7174.21
647.135	7010.37
647.328	7202.88
647.521	6846.53
647.714	6764.61
647.907	7032.9
648.099	6701.12
648.292	6860.87
648.485	6615.11
648.678	6733.89
648.871	6703.17
649.064	6522.95
649.256	6721.6
649.449	6465.61
649.642	6412.36
649.835	6553.67
650.027	6436.94
650.22	6328.39
650.413	6264.91
650.605	6330.44
650.798	6352.97
650.991	6254.67
651.183	6248.52
651.376	6213.71
651.568	6127.69
651.761	5988.43
651.954	6013.01
652.146	5820.5
652.339	6099.02
652.531	5970
652.724	5886.03
652.916	5632.08
653.109	5787.73
653.301	5787.73
653.494	5838.93
653.686	5736.53
653.879	5679.19
654.071	5630.04
654.263	5576.79
654.456	5681.24
654.648	5546.07
654.84	5560.41
655.033	5468.25
655.225	5558.36
655.417	5443.67
655.61	5429.34
655.802	5517.4
655.994	5396.57
656.186	5279.83
656.379	5130.33
656.571	5175.39
656.763	5128.28
656.955	5093.47
657.148	5099.61
657.34	5107.8
657.532	5029.98
657.724	5042.27
657.916	5052.51
658.108	5077.09
658.3	4714.59
658.492	4919.39
658.684	4925.54
658.876	4921.44
659.068	4763.75
659.26	4878.43
659.452	4804.71
659.644	4757.6
659.836	4790.37
660.028	4802.66
660.22	4532.33
660.412	4571.24
660.604	4579.43
660.796	4675.68
660.988	4464.74
661.18	4462.69
661.372	4458.6
661.563	4382.82
661.755	4255.85
661.947	4436.07
662.139	4343.91
662.331	4415.59
662.522	4339.82
662.714	4173.93
662.906	4198.51
663.097	4255.85
663.289	4169.84
663.481	4251.75
663.673	4094.06
663.864	4018.29
664.056	4096.11
664.247	3977.33
664.439	4104.3
664.631	3954.8
664.822	4034.67
665.014	4012.14
665.205	3891.31
665.397	3879.02
665.588	3979.37
665.78	3946.61
665.971	3919.98
666.163	3895.41
666.354	3887.22
666.546	3737.71
666.737	3727.47
666.929	3733.62
667.12	3709.04
667.311	3692.66
667.503	3731.57
667.694	3684.47
667.885	3559.54
668.077	3702.9
668.268	3485.81
668.459	3526.77
668.651	3463.29
668.842	3518.58
669.033	3522.68
669.224	3416.18
669.416	3659.89
669.607	3399.8
669.798	3532.92
669.989	3512.44
670.18	3453.05
670.371	3375.22
670.563	3338.36
670.754	3412.09
670.945	3373.18
671.136	3344.5
671.327	3281.02
671.518	3379.32
671.709	3395.7
671.9	3238.01
672.091	3321.98
672.282	3289.21
672.473	3158.14
672.664	3203.19
672.855	3295.35
673.046	3207.29
673.237	3293.3
673.428	3102.84
673.619	3205.24
673.809	3047.55
674	3111.04
674.191	3115.13
674.382	3014.78
674.573	3051.64
674.764	3074.17
674.954	3057.79
675.145	3020.92
675.336	2986.11
675.527	2961.53
675.717	2963.58
675.908	3004.54
676.099	2988.16
676.289	3104.89
676.48	2984.06
676.671	2990.21
676.861	2969.73
677.052	2859.14
677.243	2920.57
677.433	2848.9
677.624	2906.24
677.814	2959.49
678.005	2760.83
678.195	2953.34
678.386	2996.35
678.576	2912.38
678.767	2947.2
678.957	2783.36
679.148	2830.46
679.338	2871.42
679.529	2826.37
679.719	2820.22
679.909	2926.72
680.1	2961.53
680.29	2852.99
680.481	2822.27
680.671	2928.77
680.861	2842.75
681.052	2809.98
681.242	2791.55
681.432	2863.23
681.622	2789.5
681.813	2728.07
682.003	2822.27
682.193	2777.22
682.383	2726.02
682.573	2750.59
682.764	2801.79
682.954	2750.59
683.144	2809.98
683.334	2814.08
683.524	2848.9
683.714	2691.2
683.904	2699.39
684.094	2789.5
684.284	2730.11
684.474	2721.92
684.664	2617.47
684.854	2658.43
685.044	2701.44
685.234	2660.48
685.424	2715.78
685.614	2617.47
685.804	2693.25
685.994	2736.26
686.184	2678.91
686.374	2631.81
686.564	2734.21
686.753	2744.45
686.943	2699.39
687.133	2699.39
687.323	2683.01
687.513	2758.78
687.702	2529.41
687.892	2658.43
688.082	2605.19
688.272	2494.6
688.461	2498.69
688.651	2597
688.841	2531.46
689.03	2420.87
689.22	2551.94
689.41	2676.87
689.599	2513.03
689.789	2410.63
689.979	2515.08
690.168	2474.12
690.358	2431.11
690.547	2365.57
690.737	2553.99
690.926	2510.98
691.116	2457.73
691.305	2486.4
691.495	2457.73
691.684	2476.16
691.874	2486.4
692.063	2424.97
692.252	2527.36
692.442	2453.64
692.631	2420.87
692.82	2351.24
693.01	2494.6
693.199	2404.49
693.388	2410.63
693.578	2300.04
693.767	2412.68
693.956	2433.16
694.146	2369.67
694.335	2338.95
694.524	2300.04
694.713	2349.19
694.902	2279.56
695.092	2281.61
695.281	2283.66
695.47	2318.47
695.659	2232.46
695.848	2304.14
696.037	2242.7
696.226	2285.7
696.415	2441.35
696.604	2252.94
696.793	2338.95
696.982	2175.11
697.171	2314.38
697.36	2449.54
697.549	2297.99
697.738	2281.61
697.927	2252.94
698.116	2261.13
698.305	2191.5
698.494	2171.02
698.683	2287.75
698.872	2291.85
699.061	2293.9
699.25	2291.85
699.438	2203.79
699.627	2224.26
699.816	2293.9
700.005	2234.5
700.193	2197.64
700.382	2183.31
700.571	2136.2
700.76	2195.59
700.948	2193.55
701.137	2142.35
701.326	2109.58
701.514	2285.7
701.703	2177.16
701.892	2164.87
702.08	2146.44
702.269	2134.15
702.457	2136.2
702.646	2248.84
702.834	2068.62
703.023	2066.57
703.212	2240.65
703.4	2197.64
703.589	2048.14
703.777	2177.16
703.965	2068.62
704.154	2117.77
704.342	2035.85
704.531	2095.24
704.719	2087.05
704.907	2136.2
705.096	1972.36
705.284	2125.96
705.472	2111.63
705.661	2068.62
705.849	2154.63
706.037	2152.59
706.226	2007.18
706.414	2117.77
706.602	2089.1
706.79	2158.73
706.979	2060.43
707.167	2019.47
707.355	2029.71
707.543	2003.08
707.731	2019.47
707.919	1937.55
708.107	2052.24
708.296	1945.74
708.484	2095.24
708.672	2062.48
708.86	1996.94
709.048	1996.94
709.236	1970.32
709.424	2044.04
709.612	1896.59
709.8	1958.03
709.988	1955.98
710.176	1958.03
710.364	2015.37
710.551	1923.21
710.739	2005.13
710.927	1978.51
711.115	2035.85
711.303	2037.9
711.491	2027.66
711.679	2027.66
711.866	1931.41
712.054	1921.17
712.242	1898.64
712.43	2003.08
712.617	1937.55
712.805	1849.49
712.993	1880.21
713.181	1880.21
713.368	1896.59
713.556	2011.28
713.744	1900.69
713.931	1953.93
714.119	1841.29
714.306	1931.41
714.494	1929.36
714.682	1949.84
714.869	1972.36
715.057	1925.26
715.244	1874.06
715.432	1921.17
715.619	2062.48
715.807	2023.56
715.994	2048.14
716.182	1904.78
716.369	1855.63
716.556	1859.73
716.744	1898.64
716.931	1757.33
717.119	1964.17
717.306	1874.06
717.493	1949.84
717.681	1900.69
717.868	1818.77
718.055	1767.57
718.242	1831.05
718.43	1898.64
718.617	1917.07
718.804	1859.73
718.991	1829.01
719.179	1745.04
719.366	1945.74
719.553	1829.01
719.74	1826.96
719.927	1904.78
720.114	1792.14
720.301	1863.82
720.488	1781.9
720.676	1708.18
720.863	1851.53
721.05	1839.25
721.237	1788.05
721.424	1806.48
721.611	1822.86
721.798	1865.87
721.985	1847.44
722.172	1736.85
722.358	1712.27
722.545	1747.09
722.732	1829.01
722.919	1781.9
723.106	1800.34
723.293	1839.25
723.48	1802.38
723.667	1824.91
723.853	1740.94
724.04	1732.75
724.227	1806.48
724.414	1773.71
724.6	1745.04
724.787	1798.29
724.974	1683.6
725.161	1675.41
725.347	1691.79
725.534	1726.61
725.72	1749.14
725.907	1765.52
726.094	1722.51
726.28	1671.31
726.467	1661.07
726.653	1757.33
726.84	1765.52
727.027	1726.61
727.213	1659.03
727.4	1726.61
727.586	1749.14
727.773	1626.26
727.959	1767.57
728.145	1671.31
728.332	1675.41
728.518	1667.22
728.705	1659.03
728.891	1605.78
729.077	1661.07
729.264	1687.7
729.45	1659.03
729.636	1740.94
729.823	1724.56
730.009	1646.74
730.195	1763.47
730.382	1691.79
730.568	1697.94
730.754	1628.31
730.94	1710.22
731.126	1687.7
731.313	1704.08
731.499	1652.88
731.685	1603.73
731.871	1638.55
732.057	1626.26
732.243	1683.6
732.429	1695.89
732.615	1722.51
732.801	1618.07
732.987	1603.73
733.173	1577.11
733.359	1620.11
733.545	1560.72
733.731	1527.96
733.917	1626.26
734.103	1626.26
734.289	1597.59
734.475	1552.53
734.661	1609.87
734.847	1562.77
735.033	1618.07
735.219	1611.92
735.404	1661.07
735.59	1616.02
735.776	1573.01
735.962	1654.93
736.148	1536.15
736.333	1581.2
736.519	1550.48
736.705	1534.1
736.89	1501.33
737.076	1497.24
737.262	1482.9
737.447	1497.24
737.633	1599.63
737.819	1616.02
738.004	1626.26
738.19	1591.44
738.375	1503.38
738.561	1667.22
738.747	1554.58
738.932	1646.74
739.118	1497.24
739.303	1466.52
739.489	1552.53
739.674	1480.85
739.859	1380.5
740.045	1470.61
740.23	1505.43
740.416	1464.47
740.601	1468.56
740.786	1282.2
740.972	1462.42
741.157	1513.62
741.342	1425.56
741.528	1439.89
741.713	1552.53
741.898	1419.41
742.084	1507.48
742.269	1478.8
742.454	1407.13
742.639	1370.26
742.824	1458.32
743.01	1462.42
743.195	1470.61
743.38	1396.89
743.565	1380.5
743.75	1398.93
743.935	1312.92
744.12	1458.32
744.305	1298.58
744.49	1267.86
744.675	1355.93
744.86	1331.35
745.045	1276.06
745.23	1341.59
745.415	1392.79
745.6	1269.91
745.785	1284.25
745.97	1351.83
746.155	1210.52
746.34	1403.03
746.525	1325.21
746.71	1321.11
746.895	1208.47
747.079	1237.14
747.264	1220.76
747.449	1235.1
747.634	1343.64
747.819	1333.4
748.003	1124.51
748.188	1175.7
748.373	1224.86
748.557	1112.22
748.742	1155.23
748.927	1171.61
749.111	1173.66
749.296	1200.28
749.481	1101.98
749.665	1136.79
749.85	1122.46
750.034	1136.79
750.219	1190.04
750.404	1038.49
750.588	1118.36
750.773	1104.03
750.957	1128.6
751.141	1093.79
751.326	1097.88
751.51	1042.59
751.695	1056.92
751.879	1065.11
752.064	1153.18
752.248	1091.74
752.432	1104.03
752.617	1208.47
752.801	1081.5
752.985	1081.5
753.17	1071.26
753.354	1069.21
753.538	1013.92
753.722	1026.2
753.907	1050.78
754.091	987.29
754.275	1018.01
754.459	962.72
754.643	981.15
754.828	1011.87
755.012	983.2
755.196	968.86
755.38	972.96
755.564	876.7
755.748	895.13
755.932	882.85
756.116	921.76
756.3	944.28
756.484	878.75
756.668	975
756.852	848.03
757.036	917.66
757.22	944.28
757.404	880.8
757.588	843.93
757.772	831.65
757.956	948.38
758.14	915.61
758.323	942.24
758.507	905.37
758.691	852.13
758.875	823.45
759.059	882.85
759.242	807.07
759.426	809.12
759.61	813.21
759.794	800.93
759.977	811.17
760.161	741.54
760.345	794.78
760.528	934.04
760.712	716.96
760.895	839.84
761.079	710.82
761.263	776.35
761.446	872.61
761.63	710.82
761.813	798.88
761.997	733.34
762.18	739.49
762.364	825.5
762.547	716.96
762.731	802.97
762.914	774.3
763.098	680.1
763.281	745.63
763.464	817.31
763.648	733.34
763.831	757.92
764.015	766.11
764.198	708.77
764.381	813.21
764.564	710.82
764.748	647.33
764.931	700.58
765.114	733.34
765.297	692.38
765.481	786.59
765.664	657.57
765.847	737.44
766.03	784.54
766.213	739.49
766.397	688.29
766.58	733.34
766.763	716.96
766.946	635.04
767.129	643.23
767.312	639.14
767.495	583.84
767.678	743.58
767.861	690.34
768.044	719.01
768.227	626.85
768.41	655.52
768.593	766.11
768.776	692.38
768.959	673.95
769.142	719.01
769.324	643.23
769.507	585.89
769.69	618.66
769.873	657.57
770.056	626.85
770.239	624.8
770.421	647.33
770.604	661.66
770.787	637.09
770.97	551.07
771.152	667.81
771.335	676
771.518	628.9
771.7	571.55
771.883	686.24
772.066	708.77
772.248	585.89
772.431	606.37
772.613	639.14
772.796	481.44
772.978	589.99
773.161	618.66
773.343	557.22
773.526	546.98
773.708	528.55
773.891	516.26
774.073	581.79
774.256	503.97
774.438	579.75
774.621	626.85
774.803	555.17
774.985	544.93
775.168	604.32
775.35	481.44
775.532	602.27
775.715	546.98
775.897	583.84
776.079	569.51
776.261	538.79
776.444	499.88
776.626	475.3
776.808	514.21
776.99	487.59
777.173	526.5
777.355	549.03
777.537	553.12
777.719	581.79
777.901	620.71
778.083	471.2
778.265	331.94
778.447	499.88
778.629	417.96
778.811	448.68
778.993	497.83
779.175	485.54
779.357	471.2
779.539	503.97
779.721	471.2
779.903	520.35
780.085	481.44
780.267	430.24
780.449	442.53
780.631	487.59
780.812	393.38
780.994	407.72
781.176	422.05
781.358	546.98
781.54	409.76
781.721	405.67
781.903	405.67
782.085	395.43
782.267	422.05
782.448	372.9
782.63	450.72
782.812	393.38
782.993	366.76
783.175	323.75
783.357	405.67
783.538	374.95
783.72	372.9
783.901	333.99
784.083	430.24
784.264	413.86
784.446	366.76
784.627	331.94
784.809	362.66
784.99	393.38
785.172	389.28
785.353	372.9
785.535	319.65
785.716	391.33
785.897	360.61
786.079	413.86
786.26	372.9
786.441	389.28
786.623	305.32
786.804	344.23
786.985	301.22
787.167	374.95
787.348	348.33
787.529	331.94
787.71	370.85
787.891	233.64
788.073	307.37
788.254	274.6
788.435	358.57
788.616	331.94
788.797	258.21
788.978	331.94
789.159	344.23
789.34	293.03
789.522	336.04
789.703	262.31
789.884	315.56
790.065	225.45
790.246	333.99
790.427	282.79
790.607	299.17
790.788	311.46
790.969	278.69
791.15	350.37
791.331	239.78
791.512	319.65
791.693	170.15
791.874	225.45
792.054	370.85
792.235	331.94
792.416	266.41
792.597	247.97
792.778	301.22
792.958	276.65
793.139	317.61
793.32	241.83
793.5	258.21
793.681	282.79
793.862	219.3
794.042	297.13
794.223	211.11
794.404	290.98
794.584	200.87
794.765	250.02
794.945	252.07
795.126	295.08
795.306	333.99
795.487	290.98
795.667	221.35
795.848	276.65
796.028	243.88
796.209	188.58
796.389	293.03
796.57	290.98
796.75	231.59
796.93	252.07
797.111	209.06
797.291	235.69
797.471	202.92
797.652	186.54
797.832	235.69
798.012	260.26
798.192	219.3
798.373	164.01
798.553	180.39
798.733	245.93
798.913	270.5
799.093	219.3
799.274	221.35
799.454	241.83
799.634	243.88
799.814	161.96
799.994	217.26
800.174	178.34
800.354	229.54
800.534	98.47
800.714	186.54
800.894	194.73
801.074	241.83
801.254	135.34
801.434	252.07
801.614	258.21
801.794	196.78
801.974	708.77
802.154	182.44
802.334	135.34
802.514	159.91
802.693	221.35
802.873	143.53
803.053	194.73
803.233	243.88
803.413	143.53
803.592	172.2
803.772	159.91
803.952	164.01
804.131	114.86
804.311	174.25
804.491	198.82
804.67	180.39
804.85	135.34
805.03	245.93
805.209	266.41
805.389	129.19
805.568	219.3
805.748	211.11
805.928	194.73
806.107	213.16
806.287	135.34
806.466	129.19
806.646	192.68
806.825	180.39
807.004	49.32
807.184	200.87
807.363	213.16
807.543	166.06
807.722	192.68
807.901	106.67
808.081	170.15
808.26	94.38
808.439	159.91
808.619	127.14
808.798	164.01
808.977	69.8
809.156	168.1
809.336	118.95
809.515	172.2
809.694	57.51
809.873	168.1
810.052	202.92
810.231	200.87
810.411	153.77
810.59	131.24
810.769	86.19
810.948	143.53
811.127	106.67
811.306	141.48
811.485	155.82
811.664	200.87
811.843	131.24
812.022	94.38
812.201	184.49
812.38	28.84
812.559	129.19
812.737	161.96
812.916	82.09
813.095	127.14
813.274	161.96
813.453	127.14
813.632	172.2
813.811	147.62
813.989	141.48
814.168	170.15
814.347	96.43
814.526	147.62
814.704	209.06
814.883	166.06
815.062	137.38
815.24	129.19
815.419	86.19
815.598	137.38
815.776	90.28
815.955	47.27
816.133	90.28
816.312	106.67
816.49	157.86
816.669	90.28
816.847	118.95
817.026	94.38
817.204	69.8
817.383	121
817.561	55.47
817.74	176.3
817.918	131.24
818.097	110.76
818.275	110.76
818.453	145.58
818.632	121
818.81	116.9
818.988	92.33
819.167	45.23
819.345	155.82
819.523	192.68
819.701	184.49
819.879	153.77
820.058	121
820.236	155.82
820.414	71.85
820.592	229.54
820.77	170.15
820.948	121
821.127	102.57
821.305	168.1
821.483	84.14
821.661	100.52
821.839	20.65
822.017	86.19
822.195	145.58
822.373	73.9
822.551	137.38
822.729	67.75
822.907	118.95
823.085	127.14
823.262	67.75
823.44	65.71
823.618	37.03
823.796	77.99
823.974	129.19
824.152	172.2
824.329	178.34
824.507	30.89
824.685	94.38
824.863	135.34
825.04	82.09
825.218	133.29
825.396	69.8
825.574	45.23
825.751	82.09
825.929	69.8
826.107	63.66
826.284	145.58
826.462	88.23
826.639	63.66
826.817	69.8
826.994	102.57
827.172	49.32
827.349	96.43
827.527	77.99
827.704	123.05
827.882	88.23
828.059	102.57
828.237	94.38
828.414	184.49
828.591	-3.93
828.769	53.42
828.946	86.19
829.124	123.05
829.301	137.38
829.478	61.61
829.655	45.23
829.833	102.57
830.01	53.42
830.187	73.9
830.364	47.27
830.542	47.27
830.719	102.57
830.896	139.43
831.073	77.99
831.25	102.57
831.427	94.38
831.604	-8.02
831.782	86.19
831.959	22.7
832.136	139.43
832.313	77.99
832.49	92.33
832.667	16.55
832.844	69.8
833.021	94.38
833.198	86.19
833.374	43.18
833.551	53.42
833.728	51.37
833.905	88.23
834.082	37.03
834.259	80.04
834.436	65.71
834.612	69.8
834.789	104.62
834.966	43.18
835.143	53.42
835.319	14.51
835.496	143.53
835.673	55.47
835.85	127.14
836.026	20.65
836.203	135.34
836.38	4.27
836.556	45.23
836.733	20.65
836.909	149.67
837.086	57.51
837.262	65.71
837.439	94.38
837.616	94.38
837.792	77.99
837.968	94.38
838.145	-8.02
838.321	69.8
838.498	61.61
838.674	69.8
838.851	41.13
839.027	24.75
839.203	114.86
839.38	127.14
839.556	53.42
839.732	133.29
839.909	16.55
840.085	118.95
840.261	57.51
840.437	63.66
840.614	14.51
840.79	28.84
840.966	69.8
841.142	14.51
841.318	77.99
841.494	102.57
841.671	-10.07
841.847	96.43
842.023	82.09
842.199	118.95
842.375	61.61
842.551	41.13
842.727	4.27
842.903	114.86
843.079	73.9
843.255	123.05
843.431	61.61
843.607	121
843.783	65.71
843.959	63.66
844.134	8.36
844.31	121
844.486	37.03
844.662	20.65
844.838	96.43
845.013	41.13
845.189	114.86
845.365	65.71
845.541	6.31
845.716	141.48
845.892	80.04
846.068	0.17
846.244	12.46
846.419	129.19
846.595	43.18
846.77	12.46
846.946	86.19
847.122	53.42
847.297	14.51
847.473	137.38
847.648	0.17
847.824	121
847.999	53.42
848.175	88.23
848.35	32.94
848.526	63.66
848.701	90.28
848.876	86.19
849.052	106.67
849.227	55.47
849.403	-53.08
849.578	77.99
849.753	125.1
849.929	-10.07
850.104	30.89
850.279	127.14
850.454	18.6
850.63	45.23
850.805	28.84
850.98	61.61
851.155	63.66
851.33	32.94
851.505	47.27
851.681	151.72
851.856	8.36
852.031	20.65
852.206	22.7
852.381	-20.31
852.556	47.27
852.731	20.65
852.906	20.65
853.081	-3.93
853.256	26.79
853.431	22.7
853.606	8.36
853.781	30.89
853.956	20.65
854.131	47.27
854.305	69.8
854.48	12.46
854.655	28.84
854.83	22.7
855.005	-18.26
855.18	135.34
855.354	30.89
855.529	30.89
855.704	-10.07
855.879	104.62
856.053	-1.88
856.228	10.41
856.403	-1.88
856.577	96.43
856.752	-8.02
856.926	6.31
857.101	39.08
857.276	14.51
857.45	118.95
857.625	71.85
857.799	86.19
857.974	69.8
858.148	28.84
858.323	61.61
858.497	37.03
858.672	102.57
858.846	24.75
859.02	45.23
859.195	12.46
859.369	-32.6
859.543	106.67
859.718	61.61
859.892	65.71
860.066	98.47
860.241	61.61
860.415	12.46
860.589	49.32
860.763	-26.45
860.938	41.13
861.112	73.9
861.286	55.47
861.46	96.43
861.634	39.08
861.808	26.79
861.982	-1.88
862.157	-20.31
862.331	-8.02
862.505	69.8
862.679	6.31
862.853	100.52
863.027	65.71
863.201	118.95
863.375	22.7
863.549	10.41
863.722	61.61
863.896	28.84
864.07	45.23
864.244	53.42
864.418	69.8
864.592	69.8
864.766	12.46
864.939	41.13
865.113	12.46
865.287	47.27
865.461	22.7
865.634	0.17
865.808	34.99
865.982	24.75
866.156	28.84
866.329	6.31
866.503	34.99
866.676	63.66
866.85	65.71
867.024	14.51
867.197	28.84
867.371	37.03
867.544	22.7
867.718	16.55
867.891	18.6
868.065	28.84
868.238	47.27
868.412	12.46
868.585	32.94
868.759	37.03
868.932	69.8
869.105	28.84
869.279	32.94
869.452	57.51
869.625	45.23
869.799	47.27
869.972	-5.97
870.145	-5.97
870.319	6.31
870.492	8.36
870.665	47.27
870.838	41.13
871.011	8.36
871.185	34.99
871.358	-5.97
871.531	37.03
871.704	75.95
871.877	0.17
872.05	45.23
872.223	-1.88
872.396	61.61
872.569	8.36
872.742	41.13
872.915	102.57
873.088	69.8
873.261	75.95
873.434	14.51
873.607	71.85
873.78	114.86
873.953	12.46
874.126	-18.26
874.299	8.36
874.471	30.89
874.644	4.27
874.817	-61.27
874.99	45.23
875.163	-10.07
875.335	55.47
875.508	14.51
875.681	22.7
875.853	49.32
876.026	16.55
876.199	-24.4
876.371	41.13
876.544	28.84
876.717	43.18
876.889	49.32
877.062	30.89
877.234	2.22
877.407	20.65
877.579	-32.6
877.752	20.65
877.924	-18.26
878.097	118.95
878.269	-36.69
878.442	-34.64
878.614	80.04
878.786	16.55
878.959	94.38
879.131	61.61
879.303	-53.08
879.476	32.94
879.648	37.03
879.82	41.13
879.993	22.7
880.165	4.27
880.337	-10.07
880.509	57.51
880.681	-38.74
880.854	16.55
881.026	16.55
881.198	69.8
881.37	30.89
881.542	-34.64
881.714	12.46
881.886	4.27
882.058	-8.02
882.23	69.8
882.402	30.89
882.574	37.03
882.746	88.23
882.918	30.89
883.09	30.89
883.262	32.94
883.434	-3.93
883.606	-5.97
883.778	-1.88
883.95	73.9
884.122	-20.31
884.293	77.99
884.465	37.03
884.637	51.37
884.809	20.65
884.98	32.94
885.152	30.89
885.324	-3.93
885.496	45.23
885.667	49.32
885.839	-8.02
886.011	110.76
886.182	30.89
886.354	63.66
886.525	0.17
886.697	8.36
886.869	-57.17
887.04	69.8
887.212	-38.74
887.383	71.85
887.555	37.03
887.726	-16.21
887.897	-24.4
888.069	28.84
888.24	53.42
888.412	43.18
888.583	77.99
888.754	63.66
888.926	-30.55
889.097	77.99
889.268	30.89
889.44	53.42
889.611	16.55
889.782	45.23
889.953	14.51
890.125	86.19
890.296	-14.17
890.467	12.46
890.638	18.6
890.809	65.71
890.98	-3.93
891.151	-26.45
891.323	53.42
891.494	4.27
891.665	61.61
891.836	22.7
892.007	-44.88
892.178	71.85
892.349	77.99
892.52	14.51
892.691	-18.26
892.862	86.19
893.032	0.17
893.203	80.04
893.374	77.99
893.545	82.09
893.716	39.08
893.887	20.65
894.057	14.51
894.228	37.03
894.399	82.09
894.57	39.08
894.74	-3.93
894.911	39.08
895.082	-44.88
895.253	0.17
895.423	-8.02
895.594	157.86
895.764	4.27
895.935	37.03
896.106	8.36
896.276	69.8
896.447	-61.27
896.617	4.27
896.788	-16.21
896.958	57.51
897.129	30.89
897.299	57.51
897.47	55.47
897.64	82.09
897.81	80.04
897.981	-8.02
898.151	63.66
898.322	32.94
898.492	20.65
898.662	8.36
898.832	22.7
899.003	28.84
899.173	-5.97
899.343	-20.31
899.513	-16.21
