Data from USB4F104151__282__14-46-22-295.txt Node

Date: Thu Mar 13 14:46:22 EDT 2025
User: louis
Spectrometer: USB4F10415
Trigger mode: 4
Integration Time (sec): 2.000000E-2
Scans to average: 1
Electric dark correction enabled: true
Nonlinearity correction enabled: false
Boxcar width: 0
XAxis mode: Wavelengths
Number of Pixels in Spectrum: 3648
>>>>>Begin Spectral Data<<<<<
178.204	-48.47
178.424	-48.47
178.644	-48.47
178.864	-62.8
179.084	-130.39
179.304	-34.13
179.524	-11.61
179.744	0.68
179.964	33.45
180.184	33.45
180.404	-15.7
180.624	-11.61
180.844	62.12
181.064	-58.71
181.283	0.68
181.503	0.68
181.723	0.68
181.943	4.78
182.163	119.46
182.383	82.6
182.602	84.65
182.822	76.46
183.042	115.37
183.262	-44.37
183.482	15.02
183.701	4.78
183.921	82.6
184.141	0.68
184.361	113.32
184.58	12.97
184.8	115.37
185.02	12.97
185.239	8.87
185.459	103.08
185.679	49.83
185.898	66.22
186.118	88.75
186.338	58.03
186.557	17.07
186.777	92.84
186.997	-46.42
187.216	43.69
187.436	158.38
187.655	27.31
187.875	58.03
188.095	-11.61
188.314	117.42
188.534	60.07
188.753	8.87
188.973	133.8
189.192	-15.7
189.412	90.79
189.631	35.5
189.851	92.84
190.07	-15.7
190.29	90.79
190.509	25.26
190.729	66.22
190.948	94.89
191.168	162.47
191.387	17.07
191.607	25.26
191.826	70.31
192.045	53.93
192.265	68.27
192.484	12.97
192.704	8.87
192.923	8.87
193.142	70.31
193.362	49.83
193.581	78.51
193.8	25.26
194.02	-5.46
194.239	25.26
194.458	6.83
194.678	21.16
194.897	111.27
195.116	82.6
195.335	101.03
195.555	-7.51
195.774	66.22
195.993	74.41
196.212	70.31
196.432	45.74
196.651	8.87
196.87	92.84
197.089	133.8
197.308	62.12
197.528	98.99
197.747	29.35
197.966	66.22
198.185	125.61
198.404	58.03
198.623	35.5
198.842	0.68
199.062	45.74
199.281	37.55
199.5	-19.8
199.719	62.12
199.938	133.8
200.157	25.26
200.376	70.31
200.595	86.7
200.814	74.41
201.033	27.31
201.252	64.17
201.471	70.31
201.69	160.42
201.909	49.83
202.128	94.89
202.347	55.98
202.566	62.12
202.785	0.68
203.004	21.16
203.223	88.75
203.442	-25.94
203.661	64.17
203.879	68.27
204.098	117.42
204.317	17.07
204.536	123.56
204.755	-15.7
204.974	33.45
205.193	66.22
205.411	146.09
205.63	43.69
205.849	78.51
206.068	0.68
206.287	49.83
206.505	107.18
206.724	-7.51
206.943	-3.41
207.162	49.83
207.381	25.26
207.599	6.83
207.818	47.79
208.037	66.22
208.255	41.64
208.474	-7.51
208.693	131.75
208.911	-46.42
209.13	66.22
209.349	25.26
209.567	33.45
209.786	70.31
210.005	53.93
210.223	119.46
210.442	84.65
210.661	29.35
210.879	49.83
211.098	33.45
211.316	86.7
211.535	41.64
211.753	66.22
211.972	27.31
212.191	33.45
212.409	58.03
212.628	101.03
212.846	-19.8
213.065	27.31
213.283	47.79
213.502	-7.51
213.72	62.12
213.938	135.85
214.157	74.41
214.375	58.03
214.594	82.6
214.812	62.12
215.031	21.16
215.249	80.55
215.467	103.08
215.686	12.97
215.904	49.83
216.122	172.71
216.341	103.08
216.559	41.64
216.778	39.59
216.996	76.46
217.214	47.79
217.432	37.55
217.651	6.83
217.869	68.27
218.087	19.11
218.306	51.88
218.524	86.7
218.742	41.64
218.96	94.89
219.179	45.74
219.397	53.93
219.615	133.8
219.833	60.07
220.051	78.51
220.27	60.07
220.488	68.27
220.706	58.03
220.924	47.79
221.142	2.73
221.36	-7.51
221.578	62.12
221.796	74.41
222.015	49.83
222.233	33.45
222.451	109.23
222.669	4.78
222.887	164.52
223.105	53.93
223.323	55.98
223.541	12.97
223.759	68.27
223.977	17.07
224.195	86.7
224.413	76.46
224.631	-11.61
224.849	15.02
225.067	64.17
225.285	37.55
225.503	25.26
225.721	-64.85
225.939	68.27
226.157	68.27
226.375	148.14
226.592	-27.99
226.81	25.26
227.028	129.7
227.246	107.18
227.464	21.16
227.682	90.79
227.9	19.11
228.117	43.69
228.335	68.27
228.553	58.03
228.771	84.65
228.989	90.79
229.206	123.56
229.424	72.36
229.642	90.79
229.86	76.46
230.077	74.41
230.295	68.27
230.513	70.31
230.731	92.84
230.948	17.07
231.166	148.14
231.384	-23.89
231.601	-5.46
231.819	117.42
232.037	68.27
232.254	74.41
232.472	43.69
232.689	27.31
232.907	119.46
233.125	74.41
233.342	49.83
233.56	72.36
233.777	92.84
233.995	74.41
234.213	60.07
234.43	19.11
234.648	86.7
234.865	0.68
235.083	96.94
235.3	49.83
235.518	-23.89
235.735	152.23
235.953	117.42
236.17	17.07
236.388	10.92
236.605	92.84
236.822	62.12
237.04	139.94
237.257	23.21
237.475	33.45
237.692	45.74
237.909	137.9
238.127	60.07
238.344	70.31
238.562	33.45
238.779	-13.65
238.996	-3.41
239.214	86.7
239.431	90.79
239.648	0.68
239.865	109.23
240.083	90.79
240.3	35.5
240.517	8.87
240.735	76.46
240.952	82.6
241.169	37.55
241.386	119.46
241.603	84.65
241.821	25.26
242.038	49.83
242.255	74.41
242.472	-19.8
242.689	-5.46
242.907	82.6
243.124	51.88
243.341	41.64
243.558	-9.56
243.775	-27.99
243.992	25.26
244.209	33.45
244.426	90.79
244.643	33.45
244.86	-30.04
245.078	41.64
245.295	66.22
245.512	84.65
245.729	39.59
245.946	117.42
246.163	94.89
246.38	82.6
246.597	53.93
246.814	70.31
247.031	41.64
247.248	101.03
247.464	80.55
247.681	-5.46
247.898	70.31
248.115	43.69
248.332	10.92
248.549	101.03
248.766	144.04
248.983	8.87
249.2	64.17
249.417	98.99
249.633	-32.08
249.85	58.03
250.067	98.99
250.284	41.64
250.501	-17.75
250.717	107.18
250.934	51.88
251.151	90.79
251.368	55.98
251.585	129.7
251.801	70.31
252.018	19.11
252.235	33.45
252.451	-3.41
252.668	80.55
252.885	90.79
253.102	60.07
253.318	4.78
253.535	115.37
253.752	49.83
253.968	-25.94
254.185	-17.75
254.401	29.35
254.618	76.46
254.835	-3.41
255.051	96.94
255.268	25.26
255.484	49.83
255.701	25.26
255.917	45.74
256.134	33.45
256.351	125.61
256.567	21.16
256.784	64.17
257	88.75
257.217	111.27
257.433	8.87
257.65	90.79
257.866	70.31
258.082	82.6
258.299	12.97
258.515	17.07
258.732	76.46
258.948	21.16
259.165	-11.61
259.381	15.02
259.597	98.99
259.814	35.5
260.03	90.79
260.246	103.08
260.463	74.41
260.679	84.65
260.895	62.12
261.112	66.22
261.328	76.46
261.544	60.07
261.761	60.07
261.977	78.51
262.193	-56.66
262.409	51.88
262.626	60.07
262.842	29.35
263.058	41.64
263.274	90.79
263.49	107.18
263.707	98.99
263.923	0.68
264.139	-11.61
264.355	68.27
264.571	35.5
264.787	86.7
265.004	115.37
265.22	86.7
265.436	-23.89
265.652	74.41
265.868	78.51
266.084	35.5
266.3	49.83
266.516	12.97
266.732	21.16
266.948	119.46
267.164	21.16
267.38	62.12
267.596	62.12
267.812	90.79
268.028	90.79
268.244	127.66
268.46	90.79
268.676	41.64
268.892	66.22
269.108	33.45
269.324	68.27
269.54	41.64
269.756	47.79
269.972	-3.41
270.188	8.87
270.403	35.5
270.619	68.27
270.835	68.27
271.051	33.45
271.267	15.02
271.483	84.65
271.698	76.46
271.914	33.45
272.13	86.7
272.346	-3.41
272.562	82.6
272.777	19.11
272.993	45.74
273.209	58.03
273.425	19.11
273.64	49.83
273.856	82.6
274.072	23.21
274.287	41.64
274.503	86.7
274.719	0.68
274.934	19.11
275.15	58.03
275.366	12.97
275.581	72.36
275.797	17.07
276.012	58.03
276.228	72.36
276.444	51.88
276.659	141.99
276.875	94.89
277.09	41.64
277.306	76.46
277.521	76.46
277.737	49.83
277.952	90.79
278.168	64.17
278.383	43.69
278.599	39.59
278.814	117.42
279.03	35.5
279.245	98.99
279.461	60.07
279.676	82.6
279.892	-32.08
280.107	41.64
280.322	8.87
280.538	53.93
280.753	10.92
280.969	84.65
281.184	58.03
281.399	49.83
281.615	72.36
281.83	107.18
282.045	72.36
282.26	49.83
282.476	101.03
282.691	90.79
282.906	43.69
283.122	37.55
283.337	-15.7
283.552	21.16
283.767	111.27
283.983	2.73
284.198	25.26
284.413	33.45
284.628	15.02
284.843	76.46
285.058	19.11
285.274	123.56
285.489	43.69
285.704	74.41
285.919	60.07
286.134	58.03
286.349	-23.89
286.564	78.51
286.779	27.31
286.995	39.59
287.21	66.22
287.425	127.66
287.64	0.68
287.855	45.74
288.07	-15.7
288.285	98.99
288.5	17.07
288.715	101.03
288.93	27.31
289.145	8.87
289.36	74.41
289.575	35.5
289.79	62.12
290.004	82.6
290.219	98.99
290.434	41.64
290.649	21.16
290.864	0.68
291.079	-23.89
291.294	58.03
291.509	-11.61
291.724	76.46
291.938	66.22
292.153	98.99
292.368	27.31
292.583	41.64
292.798	74.41
293.012	66.22
293.227	19.11
293.442	53.93
293.657	92.84
293.871	107.18
294.086	45.74
294.301	76.46
294.516	70.31
294.73	58.03
294.945	2.73
295.16	41.64
295.374	148.14
295.589	8.87
295.804	4.78
296.018	64.17
296.233	68.27
296.447	115.37
296.662	127.66
296.877	33.45
297.091	19.11
297.306	51.88
297.52	-30.04
297.735	60.07
297.949	146.09
298.164	74.41
298.378	82.6
298.593	2.73
298.807	25.26
299.022	0.68
299.236	35.5
299.451	-48.47
299.665	-7.51
299.88	78.51
300.094	25.26
300.309	8.87
300.523	19.11
300.737	74.41
300.952	51.88
301.166	49.83
301.381	82.6
301.595	45.74
301.809	25.26
302.024	21.16
302.238	-21.85
302.452	129.7
302.667	27.31
302.881	133.8
303.095	62.12
303.309	58.03
303.524	21.16
303.738	66.22
303.952	76.46
304.166	68.27
304.381	33.45
304.595	109.23
304.809	49.83
305.023	62.12
305.237	82.6
305.452	76.46
305.666	62.12
305.88	37.55
306.094	58.03
306.308	139.94
306.522	68.27
306.736	82.6
306.95	27.31
307.164	82.6
307.379	86.7
307.593	82.6
307.807	131.75
308.021	58.03
308.235	123.56
308.449	84.65
308.663	4.78
308.877	160.42
309.091	58.03
309.305	141.99
309.519	66.22
309.733	90.79
309.947	27.31
310.161	62.12
310.374	25.26
310.588	72.36
310.802	-52.56
311.016	10.92
311.23	41.64
311.444	-9.56
311.658	74.41
311.872	103.08
312.085	76.46
312.299	76.46
312.513	66.22
312.727	29.35
312.941	-3.41
313.154	68.27
313.368	19.11
313.582	70.31
313.796	119.46
314.009	55.98
314.223	68.27
314.437	127.66
314.651	45.74
314.864	37.55
315.078	78.51
315.292	70.31
315.505	86.7
315.719	74.41
315.933	10.92
316.146	58.03
316.36	66.22
316.573	82.6
316.787	86.7
317.001	27.31
317.214	-11.61
317.428	86.7
317.641	25.26
317.855	101.03
318.068	74.41
318.282	115.37
318.495	35.5
318.709	135.85
318.922	23.21
319.136	109.23
319.349	88.75
319.563	43.69
319.776	55.98
319.99	23.21
320.203	107.18
320.417	70.31
320.63	41.64
320.843	117.42
321.057	68.27
321.27	19.11
321.483	58.03
321.697	90.79
321.91	41.64
322.124	103.08
322.337	21.16
322.55	80.55
322.763	60.07
322.977	51.88
323.19	8.87
323.403	8.87
323.617	53.93
323.83	88.75
324.043	101.03
324.256	115.37
324.469	-1.37
324.683	60.07
324.896	51.88
325.109	29.35
325.322	-32.08
325.535	82.6
325.748	-13.65
325.962	82.6
326.175	58.03
326.388	88.75
326.601	115.37
326.814	-9.56
327.027	115.37
327.24	135.85
327.453	29.35
327.666	148.14
327.879	86.7
328.092	78.51
328.305	68.27
328.518	-21.85
328.731	23.21
328.944	90.79
329.157	4.78
329.37	156.33
329.583	66.22
329.796	103.08
330.009	0.68
330.222	92.84
330.435	78.51
330.648	33.45
330.861	86.7
331.073	58.03
331.286	43.69
331.499	82.6
331.712	29.35
331.925	74.41
332.138	113.32
332.35	66.22
332.563	8.87
332.776	90.79
332.989	53.93
333.202	80.55
333.414	49.83
333.627	94.89
333.84	64.17
334.053	64.17
334.265	70.31
334.478	92.84
334.691	117.42
334.903	53.93
335.116	2.73
335.329	78.51
335.541	82.6
335.754	35.5
335.966	27.31
336.179	66.22
336.392	55.98
336.604	113.32
336.817	25.26
337.029	119.46
337.242	25.26
337.454	66.22
337.667	66.22
337.88	58.03
338.092	150.18
338.305	98.99
338.517	37.55
338.729	92.84
338.942	109.23
339.154	25.26
339.367	-15.7
339.579	107.18
339.792	58.03
340.004	25.26
340.217	8.87
340.429	76.46
340.641	43.69
340.854	101.03
341.066	70.31
341.278	92.84
341.491	139.94
341.703	74.41
341.915	96.94
342.128	98.99
342.34	123.56
342.552	10.92
342.764	98.99
342.977	25.26
343.189	117.42
343.401	119.46
343.613	35.5
343.826	33.45
344.038	-13.65
344.25	82.6
344.462	45.74
344.674	78.51
344.886	49.83
345.099	51.88
345.311	25.26
345.523	72.36
345.735	27.31
345.947	60.07
346.159	74.41
346.371	88.75
346.583	103.08
346.795	94.89
347.007	4.78
347.219	51.88
347.431	60.07
347.643	94.89
347.855	84.65
348.067	94.89
348.279	86.7
348.491	49.83
348.703	39.59
348.915	53.93
349.127	84.65
349.339	62.12
349.551	60.07
349.763	82.6
349.975	51.88
350.187	117.42
350.399	74.41
350.61	21.16
350.822	41.64
351.034	62.12
351.246	21.16
351.458	21.16
351.669	92.84
351.881	84.65
352.093	86.7
352.305	51.88
352.517	15.02
352.728	113.32
352.94	90.79
353.152	53.93
353.363	131.75
353.575	66.22
353.787	45.74
353.999	66.22
354.21	135.85
354.422	66.22
354.633	62.12
354.845	94.89
355.057	51.88
355.268	96.94
355.48	107.18
355.692	33.45
355.903	41.64
356.115	29.35
356.326	-25.94
356.538	107.18
356.749	113.32
356.961	105.13
357.172	86.7
357.384	51.88
357.595	144.04
357.807	43.69
358.018	98.99
358.23	101.03
358.441	105.13
358.653	41.64
358.864	27.31
359.075	33.45
359.287	94.89
359.498	82.6
359.709	94.89
359.921	94.89
360.132	144.04
360.344	33.45
360.555	41.64
360.766	74.41
360.977	66.22
361.189	115.37
361.4	129.7
361.611	98.99
361.823	35.5
362.034	109.23
362.245	0.68
362.456	41.64
362.667	119.46
362.879	74.41
363.09	45.74
363.301	107.18
363.512	-11.61
363.723	84.65
363.935	17.07
364.146	115.37
364.357	45.74
364.568	111.27
364.779	66.22
364.99	74.41
365.201	-79.19
365.412	117.42
365.623	41.64
365.834	98.99
366.045	35.5
366.256	53.93
366.467	8.87
366.678	33.45
366.889	51.88
367.1	21.16
367.311	199.34
367.522	23.21
367.733	41.64
367.944	166.57
368.155	70.31
368.366	47.79
368.577	76.46
368.788	84.65
368.999	60.07
369.209	182.95
369.42	74.41
369.631	111.27
369.842	29.35
370.053	72.36
370.264	43.69
370.474	80.55
370.685	-11.61
370.896	35.5
371.107	98.99
371.317	0.68
371.528	19.11
371.739	82.6
371.95	68.27
372.16	123.56
372.371	-30.04
372.582	117.42
372.792	58.03
373.003	70.31
373.214	33.45
373.424	43.69
373.635	21.16
373.846	98.99
374.056	41.64
374.267	101.03
374.477	70.31
374.688	29.35
374.898	-13.65
375.109	68.27
375.319	133.8
375.53	78.51
375.74	66.22
375.951	23.21
376.161	8.87
376.372	129.7
376.582	78.51
376.793	39.59
377.003	64.17
377.214	33.45
377.424	127.66
377.635	135.85
377.845	66.22
378.055	82.6
378.266	31.4
378.476	74.41
378.686	111.27
378.897	94.89
379.107	78.51
379.317	86.7
379.528	148.14
379.738	31.4
379.948	53.93
380.158	90.79
380.369	35.5
380.579	127.66
380.789	27.31
380.999	133.8
381.21	90.79
381.42	172.71
381.63	98.99
381.84	96.94
382.05	58.03
382.261	84.65
382.471	121.51
382.681	0.68
382.891	174.76
383.101	35.5
383.311	19.11
383.521	78.51
383.731	90.79
383.941	90.79
384.151	21.16
384.361	92.84
384.571	103.08
384.781	76.46
384.991	90.79
385.201	125.61
385.411	51.88
385.621	90.79
385.831	68.27
386.041	51.88
386.251	58.03
386.461	92.84
386.671	62.12
386.881	92.84
387.091	62.12
387.301	76.46
387.511	8.87
387.72	96.94
387.93	158.38
388.14	82.6
388.35	43.69
388.56	139.94
388.769	129.7
388.979	12.97
389.189	51.88
389.399	103.08
389.609	78.51
389.818	158.38
390.028	141.99
390.238	53.93
390.447	94.89
390.657	154.28
390.867	41.64
391.076	2.73
391.286	78.51
391.496	43.69
391.705	66.22
391.915	84.65
392.125	123.56
392.334	53.93
392.544	35.5
392.753	107.18
392.963	19.11
393.172	107.18
393.382	125.61
393.591	74.41
393.801	133.8
394.01	133.8
394.22	90.79
394.429	115.37
394.639	76.46
394.848	115.37
395.058	39.59
395.267	160.42
395.477	125.61
395.686	82.6
395.895	154.28
396.105	176.81
396.314	27.31
396.524	103.08
396.733	78.51
396.942	66.22
397.152	168.62
397.361	115.37
397.57	84.65
397.78	125.61
397.989	193.19
398.198	144.04
398.407	96.94
398.617	90.79
398.826	68.27
399.035	94.89
399.244	123.56
399.453	84.65
399.663	82.6
399.872	133.8
400.081	88.75
400.29	148.14
400.499	41.64
400.708	168.62
400.917	103.08
401.127	123.56
401.336	49.83
401.545	139.94
401.754	168.62
401.963	221.86
402.172	51.88
402.381	139.94
402.59	135.85
402.799	129.7
403.008	166.57
403.217	74.41
403.426	209.58
403.635	115.37
403.844	111.27
404.053	119.46
404.262	98.99
404.471	215.72
404.68	92.84
404.888	191.14
405.097	197.29
405.306	160.42
405.515	162.47
405.724	217.77
405.933	248.49
406.142	197.29
406.35	244.39
406.559	197.29
406.768	148.14
406.977	266.92
407.185	160.42
407.394	240.3
407.603	232.1
407.812	166.57
408.02	295.59
408.229	139.94
408.438	152.23
408.646	193.19
408.855	258.73
409.064	279.21
409.272	164.52
409.481	324.26
409.69	230.06
409.898	242.34
410.107	287.4
410.315	369.32
410.524	287.4
410.733	311.97
410.941	303.78
411.15	361.13
411.358	320.17
411.567	344.74
411.775	369.32
411.984	379.56
412.192	395.94
412.401	334.5
412.609	484
412.818	363.17
413.026	422.56
413.234	379.56
413.443	484
413.651	479.91
413.86	500.39
414.068	553.63
414.276	584.35
414.485	516.77
414.693	582.31
414.901	588.45
415.11	527.01
415.318	596.64
415.526	647.84
415.734	705.18
415.943	672.42
416.151	756.38
416.359	713.38
416.567	795.29
416.776	756.38
416.984	889.5
417.192	848.54
417.4	778.91
417.608	846.49
417.817	909.98
418.025	936.6
418.233	996
418.441	934.56
418.649	1016.48
418.857	1180.31
419.065	1165.98
419.273	1213.08
419.481	1188.5
419.689	1204.89
419.897	1276.57
420.105	1221.27
420.313	1340.05
420.521	1534.61
420.729	1428.12
420.937	1335.96
421.145	1573.52
421.353	1618.58
421.561	1655.44
421.769	1708.69
421.977	1712.78
422.185	1735.31
422.393	1839.76
422.601	1962.64
422.809	1976.97
423.017	1921.68
423.224	2042.51
423.432	2140.81
423.64	2177.67
423.848	2458.25
424.056	2269.83
424.263	2372.23
424.471	2435.72
424.679	2515.59
424.887	2638.47
425.094	2658.95
425.302	2777.73
425.51	2790.02
425.718	2966.14
425.925	2937.47
426.133	3058.3
426.341	3302.01
426.548	3375.74
426.756	3314.3
426.964	3338.87
427.171	3596.92
427.379	3770.99
427.586	3779.19
427.794	3932.78
428.001	3957.36
428.209	4309.61
428.417	4092.52
428.624	4506.21
428.832	4387.43
429.039	4401.77
429.247	4461.16
429.454	4794.98
429.662	5161.56
429.869	4829.79
430.076	5151.32
430.284	4903.52
430.491	5311.07
430.699	5382.74
430.906	5458.52
431.114	5435.99
431.321	5784.15
431.528	5917.26
431.736	6251.08
431.943	6566.47
432.15	6349.39
432.358	6384.2
432.565	6701.64
432.772	6607.43
432.979	7148.09
433.187	7217.72
433.394	7221.82
433.601	7553.59
433.808	7766.58
434.016	7535.16
434.223	8100.4
434.43	8546.86
434.637	8370.73
434.844	8909.35
435.052	9206.3
435.259	9036.32
435.466	9105.95
435.673	9032.22
435.88	9626.14
436.087	10101.26
436.294	10037.78
436.501	9699.86
436.708	9888.28
436.915	10502.67
437.122	10850.82
437.329	10578.44
437.537	11108.87
437.743	11303.42
437.95	11235.84
438.157	11923.96
438.364	12001.78
438.571	11792.89
438.778	12364.27
438.985	13478.36
439.192	12739.05
439.399	13335.01
439.606	13066.72
439.813	13771.22
440.02	14520.78
440.227	14209.49
440.433	14049.75
440.64	14692.81
440.847	14774.73
441.054	14848.46
441.261	16064.95
441.467	15473.09
441.674	16093.62
441.881	16617.9
442.088	16406.96
442.294	16421.3
442.501	16687.53
442.708	17220
442.914	17811.87
443.121	18467.22
443.328	18147.73
443.534	19126.66
443.741	18737.55
443.948	18612.62
444.154	19949.95
444.361	19757.44
444.568	20081.02
444.774	20066.68
444.981	20148.6
445.187	20795.76
445.394	21580.13
445.6	21389.67
445.807	23560.52
446.013	22380.89
446.22	22841.68
446.426	23781.7
446.633	24107.32
446.839	24979.76
447.046	23720.26
447.252	25188.65
447.459	25184.55
447.665	25127.21
447.871	26396.95
448.078	27416.84
448.284	26075.42
448.491	26872.08
448.697	27703.56
448.903	28492.02
449.11	28653.81
449.316	28008.7
449.522	28473.59
449.728	29171.95
449.935	29737.19
450.141	29554.92
450.347	30398.68
450.553	29657.32
450.76	29806.82
450.966	30970.07
451.172	30496.99
451.378	31496.39
451.584	30675.16
451.791	31602.89
451.997	31283.41
452.203	31643.85
452.409	31973.57
452.615	32014.53
452.821	30585.05
453.027	30482.65
453.233	32155.84
453.44	30628.06
453.646	31000.79
453.852	31361.23
454.058	31875.27
454.264	30861.52
454.47	31957.19
454.676	31025.36
454.882	32116.93
455.088	29554.92
455.294	29595.88
455.5	30214.37
455.705	30415.07
455.911	29327.6
456.117	28899.57
456.323	28688.63
456.529	26767.63
456.735	28311.8
456.941	27349.26
457.147	27150.6
457.352	26030.37
457.558	25954.59
457.764	26136.86
457.97	25612.58
458.176	25080.11
458.381	25127.21
458.587	23832.89
458.793	24281.4
458.999	22514
459.204	24510.77
459.41	23724.35
459.616	22131.03
459.821	22120.79
460.027	22131.03
460.233	21694.82
460.438	20533.62
460.644	20676.98
460.85	19675.52
461.055	19458.43
461.261	19503.49
461.466	18055.58
461.672	17490.34
461.878	18934.15
462.083	17576.35
462.289	17328.55
462.494	17037.73
462.7	16327.09
462.905	16050.61
463.111	16462.26
463.316	16544.17
463.522	16261.55
463.727	16316.85
463.932	16572.85
464.138	15886.78
464.343	16302.51
464.549	15675.84
464.754	16060.85
464.959	16167.35
465.165	16023.99
465.37	15266.24
465.575	14813.64
465.781	15735.23
465.986	15540.67
466.191	15141.32
466.397	14655.95
466.602	13939.16
466.807	14494.16
467.012	14547.4
467.218	14508.49
467.423	14457.29
467.628	14651.85
467.833	15186.37
468.038	14705.1
468.244	14322.13
468.449	14531.02
468.654	14090.71
468.859	14146
469.064	13898.2
469.269	13699.55
469.474	13742.55
469.679	13797.85
469.885	13378.01
470.09	13691.35
470.295	13668.83
470.5	13242.85
470.705	13396.45
470.91	13146.59
471.115	12777.96
471.32	13146.59
471.525	13126.11
471.73	12698.09
471.935	12722.66
472.139	12421.61
472.344	12198.38
472.549	12294.64
472.754	12124.66
472.959	12001.78
473.164	11426.3
473.369	11497.98
473.574	11794.93
473.778	11547.13
473.983	11616.76
474.188	11678.2
474.393	11115.01
474.598	11178.5
474.802	11145.73
475.007	11158.02
475.212	11026.95
475.417	10607.11
475.621	10670.6
475.826	10564.11
476.031	10379.79
476.235	10291.73
476.44	10510.86
476.645	10154.51
476.849	10256.91
477.054	10228.24
477.259	10144.27
477.463	10084.88
477.668	10074.64
477.872	9912.85
478.077	9738.77
478.282	9458.2
478.486	9447.96
478.691	9306.65
478.895	9337.37
479.1	9302.56
479.304	9351.71
479.509	9046.56
479.713	9241.12
479.918	8874.53
480.122	8825.38
480.326	9062.94
480.531	9040.42
480.735	8856.1
480.94	8927.78
481.144	9226.78
481.348	8843.81
481.553	8612.39
481.757	8591.91
481.961	8913.44
482.166	8798.76
482.37	8540.71
482.574	8684.07
482.778	8659.49
482.983	8757.8
483.187	8831.52
483.391	8653.35
483.595	8577.58
483.8	8550.95
484.004	8698.41
484.208	8626.73
484.412	8456.75
484.616	8684.07
484.821	8888.87
485.025	8350.25
485.229	8835.62
485.433	8710.69
485.637	8487.47
485.841	8682.02
486.045	8731.17
486.249	8735.27
486.453	8479.27
486.657	8530.47
486.861	8610.34
487.065	8428.07
487.269	8679.97
487.473	8479.27
487.677	8796.71
487.881	8774.18
488.085	8735.27
488.289	8712.74
488.493	8538.66
488.697	8792.61
488.901	8671.78
489.105	8847.91
489.309	8690.21
489.512	8819.24
489.716	8905.25
489.92	8899.11
490.124	8708.65
490.328	8841.76
490.531	9030.18
490.735	8929.83
490.939	9019.94
491.143	9013.79
491.346	8962.59
491.55	9208.35
491.754	9114.14
491.958	9194.01
492.161	9224.73
492.365	9232.93
492.569	9189.92
492.772	9364
492.976	9284.12
493.18	9511.45
493.383	9493.02
493.587	9519.64
493.79	9566.74
493.994	9687.57
494.197	9497.11
494.401	9703.96
494.605	9671.19
494.808	10029.59
495.012	9822.74
495.215	10054.16
495.419	10031.63
495.622	10199.57
495.825	10154.51
496.029	10457.61
496.232	10584.59
496.436	10553.87
496.639	10818.05
496.843	10664.46
497.046	10969.6
497.249	11127.3
497.453	11186.69
497.656	11313.66
497.859	11198.98
498.063	11371.01
498.266	11747.83
498.469	11692.54
498.673	11895.29
498.876	12042.74
499.079	11993.59
499.282	12009.97
499.485	12354.03
499.689	12534.25
499.892	12526.06
500.095	12607.98
500.298	13105.63
500.501	12853.73
500.705	13244.9
500.908	13246.94
501.111	13584.86
501.314	13672.92
501.517	13789.66
501.72	14096.85
501.923	13916.63
502.126	14391.76
502.329	14528.97
502.532	14375.38
502.735	14623.18
502.938	14870.98
503.141	15016.39
503.344	15327.68
503.547	15462.85
503.75	15780.28
503.953	15886.78
504.156	16220.6
504.359	16060.85
504.562	16331.19
504.765	16495.02
504.968	16970.15
505.17	16925.1
505.373	17027.49
505.576	17258.92
505.779	17293.73
505.982	17645.98
506.185	18207.12
506.387	18287
506.59	18430.35
506.793	18424.21
506.996	18768.27
507.198	19128.71
507.401	19075.46
507.604	19290.5
507.807	19870.08
508.009	19825.02
508.212	19968.38
508.415	20400.5
508.617	20779.37
508.82	20611.44
509.022	20873.58
509.225	21383.52
509.428	21557.6
509.63	21662.05
509.833	21741.92
510.035	22305.11
510.238	22167.9
510.44	22116.7
510.643	22958.41
510.845	23466.31
511.048	22753.62
511.25	23445.83
511.453	23499.08
511.655	24318.26
511.858	24023.36
512.06	24230.2
512.262	24387.89
512.465	24678.71
512.667	25276.71
512.87	25506.09
513.072	25682.21
513.274	26022.17
513.477	26253.59
513.679	26284.31
513.881	26761.49
514.084	27255.05
514.286	27279.63
514.488	27384.07
514.69	28272.89
514.893	28219.64
515.095	28471.54
515.297	28281.08
515.499	28809.46
515.701	29006.06
515.904	29313.26
516.106	29878.5
516.308	30445.79
516.51	30181.6
516.712	30335.2
516.914	30802.13
517.116	31555.79
517.318	31568.07
517.52	31590.6
517.722	31893.7
517.925	32159.94
518.127	32729.27
518.329	33138.86
518.531	32733.37
518.733	33343.66
518.935	33271.98
519.136	33650.86
519.338	34334.88
519.54	34107.55
519.742	34705.56
519.944	34824.34
520.146	35285.14
520.348	35797.13
520.55	35631.24
520.752	35909.77
520.954	36485.25
521.155	36163.71
521.357	36976.76
521.559	37013.62
521.761	37558.38
521.963	37427.31
522.164	37683.31
522.366	38029.41
522.568	38350.95
522.77	38584.41
522.971	38895.71
523.173	39034.97
523.375	39274.58
523.576	39481.42
523.778	39366.74
523.98	39780.43
524.181	40304.71
524.383	40413.25
524.584	40515.65
524.786	40917.05
524.988	40470.59
525.189	41187.38
525.391	41623.6
525.592	41152.57
525.794	41648.18
525.995	41556.02
526.197	42104.87
526.398	41947.18
526.6	42790.94
526.801	42385.44
527.003	42678.3
527.204	42532.9
527.406	43233.3
527.607	43087.9
527.808	43376.66
528.01	42940.44
528.211	43350.04
528.412	44034.06
528.614	43698.19
528.815	43984.91
529.016	44242.95
529.218	43989
529.419	44044.3
529.62	44607.49
529.822	44201.99
530.023	44310.53
530.224	44075.02
530.425	44417.03
530.626	43747.34
530.828	44267.53
531.029	45176.83
531.23	44496.9
531.431	44517.38
531.632	44779.52
531.833	45062.14
532.035	44996.6
532.236	45015.04
532.437	45246.46
532.638	44902.4
532.839	44951.55
533.04	45479.92
533.241	44750.85
533.442	45879.28
533.643	45668.34
533.844	45152.25
534.045	45809.65
534.246	45185.02
534.447	45656.05
534.648	45682.67
534.849	45961.2
535.05	45037.56
535.251	45723.63
535.451	45058.04
535.652	45871.09
535.853	45535.22
536.054	45471.73
536.255	45586.42
536.456	45088.76
536.657	45793.26
536.857	45486.07
537.058	45180.92
537.259	45727.73
537.46	45721.58
537.66	45486.07
537.861	45647.86
538.062	45488.12
538.263	45668.34
538.463	45373.43
538.664	45410.29
538.865	45471.73
539.065	45520.88
539.266	45590.51
539.466	45866.99
539.667	45187.07
539.868	45774.83
540.068	45328.37
540.269	45352.95
540.469	45985.77
540.67	45463.54
540.87	45649.91
541.071	45748.21
541.271	45625.33
541.472	45346.81
541.672	45545.46
541.873	45238.26
542.073	44847.1
542.274	45479.92
542.474	45494.26
542.675	45090.81
542.875	45574.13
543.075	45502.45
543.276	45111.29
543.476	46018.54
543.676	45201.4
543.877	45600.75
544.077	45246.46
544.277	45400.05
544.478	45297.66
544.678	45500.4
544.878	45451.25
545.078	46002.16
545.279	44791.81
545.479	45135.87
545.679	45174.78
545.879	45133.82
546.079	45717.49
546.28	45584.37
546.48	44922.88
546.68	45359.09
546.88	45082.62
547.08	45428.73
547.28	45303.8
547.48	45168.63
547.68	45500.4
547.88	44945.4
548.081	45422.58
548.281	45115.39
548.481	45529.08
548.681	45490.16
548.881	45586.42
549.081	44980.22
549.28	44931.07
549.48	45381.62
549.68	44759.04
549.88	45686.77
550.08	44470.28
550.28	45125.63
550.48	45107.19
550.68	45137.91
550.88	45027.32
551.08	44955.64
551.279	45340.66
551.479	44683.26
551.679	45211.64
551.879	44601.35
552.079	45019.13
552.278	44648.45
552.478	45475.83
552.678	44720.13
552.878	45406.2
553.077	44992.51
553.277	44537.86
553.477	45250.55
553.676	44474.37
553.876	44879.87
554.076	44328.97
554.275	44501
554.475	44634.11
554.674	44781.57
554.874	45008.89
555.074	44599.3
555.273	44791.81
555.473	44947.45
555.672	44791.81
555.872	44374.02
556.071	44269.58
556.271	44775.42
556.47	44853.25
556.67	44230.66
556.869	44079.11
557.068	44988.41
557.268	44060.68
557.467	44169.22
557.667	43862.03
557.866	44544
558.065	44537.86
558.265	43739.15
558.464	43989
558.663	44142.6
558.863	43669.52
559.062	44376.07
559.261	43436.05
559.461	44011.53
559.66	43395.09
559.859	43575.31
560.058	43511.83
560.258	43847.69
560.457	42954.78
560.656	43767.82
560.855	43061.27
561.054	43155.48
561.253	42752.03
561.453	43808.78
561.652	43718.67
561.851	43397.14
562.05	43167.77
562.249	43077.66
562.448	43161.62
562.647	43126.81
562.846	43124.76
563.045	42889.24
563.244	42508.32
563.443	43057.18
563.642	42340.39
563.841	42395.68
564.04	42348.58
564.239	42895.39
564.438	42156.07
564.637	42563.62
564.836	42305.57
565.035	41969.71
565.234	42391.59
565.432	42104.87
565.631	42080.3
565.83	42315.81
566.029	42063.91
566.228	41617.46
566.427	41891.88
566.625	41644.08
566.824	41138.23
567.023	41580.59
567.222	41291.83
567.42	41635.89
567.619	41619.5
567.818	41408.56
568.016	41097.27
568.215	41211.96
568.414	40917.05
568.612	41166.9
568.811	40566.85
569.01	41062.46
569.208	40648.77
569.407	40904.76
569.605	40499.26
569.804	40685.63
570.002	40409.15
570.201	40411.2
570.4	39999.56
570.598	39901.26
570.797	39651.41
570.995	39940.17
571.193	39704.65
571.392	39845.96
571.59	39567.44
571.789	39755.85
571.987	39596.11
572.186	39600.21
572.384	39209.04
572.582	39360.59
572.781	39456.85
572.979	38844.51
573.177	38735.96
573.376	39436.37
573.574	38768.73
573.772	38928.47
573.971	38555.74
574.169	38289.51
574.367	38457.44
574.565	38525.02
574.763	38565.98
574.962	38412.38
575.16	37761.13
575.358	38015.08
575.556	37945.45
575.754	37978.22
575.952	37705.84
576.151	37623.92
576.349	37269.62
576.547	37335.15
576.745	37564.53
576.943	37230.71
577.141	37572.72
577.339	37525.61
577.537	36784.25
577.735	36966.52
577.933	36790.39
578.131	36796.54
578.329	36550.78
578.527	36481.15
578.725	36534.4
578.923	36653.18
579.121	36540.54
579.319	35967.11
579.516	36360.32
579.714	36386.94
579.912	35815.56
580.11	35543.18
580.308	36042.88
580.506	35643.53
580.704	35256.46
580.901	35733.64
581.099	35842.18
581.297	35180.69
581.495	35416.21
581.692	35600.52
581.89	34961.56
582.088	35104.91
582.285	35012.76
582.483	34951.32
582.681	34734.23
582.878	34709.66
583.076	34359.45
583.274	34740.38
583.471	34091.17
583.669	34289.82
583.866	33843.37
584.064	34322.59
584.262	33618.09
584.459	34023.59
584.657	33968.29
584.854	34300.06
585.052	33396.91
585.249	33585.32
585.447	33538.22
585.644	33022.13
585.841	33482.92
586.039	33573.03
586.236	33046.71
586.434	32864.44
586.631	32954.55
586.828	32602.3
587.026	32925.88
587.223	33278.13
587.42	32557.24
587.618	32913.59
587.815	32473.28
588.012	32288.96
588.21	32153.79
588.407	32491.71
588.604	32159.94
588.801	31602.89
588.999	32073.92
589.196	32008.39
589.393	31326.41
589.59	31963.33
589.787	31453.39
589.984	31385.8
590.182	31187.15
590.379	31332.56
590.576	31150.29
590.773	31043.79
590.97	30955.73
591.167	31275.21
591.364	31013.07
591.561	30798.04
591.758	30726.36
591.955	30318.81
592.152	30687.45
592.349	30208.22
592.546	30554.33
592.743	30390.49
592.94	29821.16
593.137	30183.65
593.334	30308.57
593.531	29935.84
593.727	30013.66
593.924	29987.04
594.121	29585.64
594.318	29870.31
594.515	29133.04
594.712	29794.53
594.908	28967.15
595.105	29434.09
595.302	29276.4
595.499	29192.43
595.696	28838.13
595.892	28874.99
596.089	28866.8
596.286	29305.07
596.482	28967.15
596.679	28389.63
596.876	28694.77
597.072	28428.54
597.269	28385.53
597.466	28227.84
597.662	28057.85
597.859	27957.5
598.055	28395.77
598.252	27566.34
598.448	27830.53
598.645	27509
598.841	27740.42
599.038	27509
599.234	27621.64
599.431	27425.03
599.627	27183.37
599.824	27601.16
600.02	27150.6
600.217	26974.48
600.413	26999.05
600.609	27128.08
600.806	26921.23
601.002	27193.61
601.198	26634.52
601.395	26331.42
601.591	26609.94
601.787	26519.83
601.984	26392.86
602.18	26480.92
602.376	26237.21
602.572	25860.38
602.769	26161.44
602.965	25831.71
603.161	26030.37
603.357	25854.24
603.553	25530.66
603.75	25829.66
603.946	25422.12
604.142	25602.34
604.338	25381.16
604.534	25424.17
604.73	25127.21
604.926	25245.99
605.122	25190.7
605.318	24932.65
605.514	24813.87
605.71	24613.17
605.906	24748.34
606.102	24676.66
606.298	24801.58
606.494	24647.99
606.69	24533.3
606.886	24543.54
607.082	24414.52
607.278	24695.09
607.474	24060.22
607.67	24269.11
607.866	24217.91
608.062	24521.01
608.257	24240.44
608.453	24277.3
608.649	24105.27
608.845	23681.35
609.041	23824.7
609.236	23787.84
609.432	23486.79
609.628	23677.25
609.824	23726.4
610.019	23415.11
610.215	23476.55
610.411	23656.77
610.606	23595.33
610.802	23105.87
610.998	23411.01
611.193	23378.25
611.389	23220.55
611.584	23320.9
611.78	22856.01
611.976	23023.95
612.171	23019.85
612.367	22962.51
612.562	22864.21
612.758	22757.71
612.953	22481.24
613.149	22778.19
613.344	22614.35
613.539	22980.94
613.735	22663.5
613.93	22417.75
614.126	22176.09
614.321	22729.04
614.517	22395.22
614.712	22384.98
614.907	22188.38
615.103	22569.3
615.298	22217.05
615.493	22288.73
615.688	21823.84
615.884	22307.16
616.079	21942.62
616.274	22102.36
616.47	21821.79
616.665	21959
616.86	21483.87
617.055	21746.01
617.25	21475.68
617.445	21660
617.641	21660
617.836	21479.78
618.031	21105
618.226	21242.21
618.421	21422.44
618.616	21428.58
618.811	20881.77
619.006	21510.5
619.201	20818.28
619.396	21186.92
619.591	20806
619.786	20939.12
619.981	20484.47
620.176	20980.07
620.371	20402.55
620.566	20226.42
620.761	20072.82
620.956	20070.78
621.151	19939.71
621.346	20238.71
621.541	19935.61
621.735	19669.37
621.93	19634.56
622.125	19583.36
622.32	19360.13
622.515	19413.38
622.709	19333.51
622.904	18989.45
623.099	19065.22
623.294	19300.74
623.488	18813.32
623.683	18944.39
623.878	18393.49
624.072	18860.43
624.267	18534.8
624.462	18534.8
624.656	18405.78
624.851	18211.22
625.046	18166.17
625.24	17990.04
625.435	17924.51
625.629	18082.2
625.824	17721.76
626.018	17734.04
626.213	17445.28
626.407	17441.18
626.602	17449.38
626.796	17322.4
626.991	17336.74
627.185	16918.95
627.38	16896.42
627.574	16882.09
627.768	16552.37
627.963	16761.26
628.157	16527.79
628.352	16871.85
628.546	16243.12
628.74	16599.47
628.935	16019.89
629.129	16208.31
629.323	15921.59
629.517	16177.59
629.712	15925.69
629.906	16079.29
630.1	15675.84
630.294	15905.21
630.489	15641.02
630.683	15593.92
630.877	15286.72
631.071	15368.64
631.265	15299.01
631.459	15303.11
631.653	15012.29
631.848	15045.06
632.042	14963.14
632.236	15229.38
632.43	14905.8
632.624	15069.64
632.818	14830.02
633.012	14533.07
633.206	14619.08
633.4	14526.92
633.594	14088.66
633.788	14369.23
633.982	14459.34
634.176	14176.72
634.369	14033.36
634.563	13959.64
634.757	13812.18
634.951	13861.34
635.145	13806.04
635.339	13818.33
635.533	13527.52
635.726	13646.3
635.92	13498.84
636.114	13386.21
636.308	13246.94
636.501	13554.14
636.695	13191.65
636.889	13101.54
637.083	13156.83
637.276	13081.06
637.47	12868.07
637.664	12927.46
637.857	12820.97
638.051	12646.89
638.244	12474.86
638.438	12544.49
638.632	12364.27
638.825	12487.15
639.019	12331.5
639.212	12239.34
639.406	12145.14
639.599	12534.25
639.793	12098.03
639.986	11756.02
640.18	12089.84
640.373	11846.13
640.567	11694.58
640.76	12073.46
640.954	11710.97
641.147	11604.47
641.34	11641.34
641.534	11594.23
641.727	11358.72
641.92	11540.99
642.114	11299.33
642.307	11272.7
642.5	11125.25
642.694	11086.34
642.887	11076.1
643.08	11043.33
643.273	11160.06
643.467	10738.18
643.66	10766.85
643.853	10715.66
644.046	10805.77
644.239	10723.85
644.432	10349.07
644.626	10357.26
644.819	10498.57
645.012	10449.42
645.205	10244.62
645.398	10424.84
645.591	10197.52
645.784	10183.18
645.977	10248.72
646.17	10035.73
646.363	9757.21
646.556	9796.12
646.749	9888.28
646.942	9959.95
647.135	9634.33
647.328	9513.5
647.521	9691.67
647.714	9630.23
647.907	9703.96
648.099	9486.87
648.292	9505.31
648.485	9404.96
648.678	9200.16
648.871	9304.6
649.064	9081.38
649.256	9144.86
649.449	9009.7
649.642	9167.39
649.835	9040.42
650.027	8946.21
650.22	8897.06
650.413	8843.81
650.605	8827.43
650.798	8645.16
650.991	8536.62
651.183	8686.12
651.376	8409.64
651.568	8452.65
651.761	8553
651.954	8440.36
652.146	8335.92
652.339	8155.69
652.531	8210.99
652.724	8163.89
652.916	8127.02
653.109	8122.93
653.301	7875.12
653.494	8112.69
653.686	8028.72
653.879	8131.12
654.071	7832.12
654.263	7842.35
654.456	7995.95
654.648	7911.99
654.84	7914.03
655.033	7764.53
655.225	7651.89
655.417	7582.26
655.61	7686.71
655.802	7520.82
655.994	7414.33
656.186	7305.79
656.379	7483.96
656.571	7496.25
656.763	7262.78
656.955	7557.69
657.148	7051.84
657.34	7135.81
657.532	7113.28
657.724	7150.14
657.916	6974.02
658.108	7111.23
658.3	6990.4
658.492	6955.58
658.684	6744.64
658.876	6769.22
659.068	6750.79
659.26	6767.17
659.452	6722.12
659.644	6572.61
659.836	6621.77
660.028	6705.73
660.22	6545.99
660.412	6513.22
660.604	6589
660.796	6449.74
660.988	6343.24
661.18	6490.7
661.372	6380.11
661.563	6246.99
661.755	6238.8
661.947	6062.67
662.139	6144.59
662.331	6097.49
662.522	5980.75
662.714	5990.99
662.906	5968.46
663.097	5972.56
663.289	5997.14
663.481	5923.41
663.673	5845.59
663.864	5673.56
664.056	5567.06
664.247	5612.12
664.439	5710.42
664.631	5669.46
664.822	5702.23
665.014	5526.1
665.205	5640.79
665.397	5538.39
665.588	5458.52
665.78	5448.28
665.971	5462.62
666.163	5407.32
666.354	5290.59
666.546	5409.37
666.737	5239.39
666.929	5259.87
667.12	5268.06
667.311	5282.39
667.503	5118.56
667.694	5165.66
667.885	5227.1
668.077	4952.67
668.268	4958.81
668.459	5083.74
668.651	4874.85
668.842	5010.01
669.033	4891.23
669.224	4907.62
669.416	5007.97
669.607	4825.7
669.798	4801.12
669.989	4821.6
670.18	4860.51
670.371	4909.66
670.563	4698.72
670.754	4768.35
670.945	4477.54
671.136	4557.41
671.327	4661.86
671.518	4645.48
671.709	4612.71
671.9	4688.48
672.091	4543.08
672.282	4592.23
672.473	4430.44
672.664	4461.16
672.855	4440.68
673.046	4510.31
673.237	4424.3
673.428	4303.47
673.619	4377.19
673.809	4360.81
674	4403.82
674.191	4305.51
674.382	4321.9
674.573	4387.43
674.764	4242.03
674.954	4305.51
675.145	4250.22
675.336	4174.44
675.527	4162.16
675.717	4205.16
675.908	4162.16
676.099	4080.24
676.289	4199.02
676.48	4055.66
676.671	4086.38
676.861	4135.53
677.052	4188.78
677.243	4059.76
677.433	4026.99
677.624	4151.92
677.814	3842.67
678.005	3994.22
678.195	4051.56
678.386	3877.49
678.576	3973.74
678.767	3965.55
678.957	4022.89
679.148	3971.69
679.338	3861.1
679.529	3869.3
679.719	3879.54
679.909	3854.96
680.1	3965.55
680.29	3908.21
680.481	3758.71
680.671	3844.72
680.861	3865.2
681.052	3863.15
681.242	3779.19
681.432	3793.52
681.622	3797.62
681.813	3838.58
682.003	3676.79
682.193	3717.75
682.383	3826.29
682.573	3859.06
682.764	3678.83
682.954	3693.17
683.144	3695.22
683.334	3758.71
683.524	3658.35
683.714	3580.53
683.904	3635.83
684.094	3785.33
684.284	3674.74
684.474	3633.78
684.664	3656.31
684.854	3635.83
685.044	3736.18
685.234	3672.69
685.424	3691.12
685.614	3684.98
685.804	3656.31
685.994	3476.09
686.184	3549.81
686.374	3652.21
686.564	3482.23
686.753	3521.14
686.943	3547.76
687.133	3588.72
687.323	3461.75
687.513	3662.45
687.702	3388.02
687.892	3519.09
688.082	3433.08
688.272	3476.09
688.461	3361.4
688.651	3345.02
688.841	3410.55
689.03	3383.93
689.22	3377.78
689.41	3322.49
689.599	3359.35
689.789	3371.64
689.979	3416.69
690.168	3314.3
690.358	3383.93
690.547	3363.45
690.737	3285.62
690.926	3236.47
691.116	3326.58
691.305	3351.16
691.495	3367.54
691.684	3338.87
691.874	3261.05
692.063	3275.38
692.252	3240.57
692.442	3252.86
692.631	3279.48
692.82	3170.94
693.01	3211.9
693.199	3281.53
693.388	3121.79
693.578	3158.65
693.767	3277.43
693.956	3156.6
694.146	3080.83
694.335	3213.95
694.524	3197.56
694.713	3140.22
694.902	2990.72
695.092	3109.5
695.281	3132.03
695.47	3097.21
695.659	3207.8
695.848	3093.12
696.037	3113.6
696.226	3082.88
696.415	2982.53
696.604	3056.25
696.793	3023.48
696.982	2982.53
697.171	2966.14
697.36	3107.45
697.549	3097.21
697.738	2974.33
697.927	2978.43
698.116	3164.79
698.305	2931.33
698.494	2974.33
698.683	2921.09
698.872	2982.53
699.061	2966.14
699.25	3099.26
699.438	2951.81
699.627	3039.87
699.816	2906.75
700.005	2871.93
700.193	2744.96
700.382	2876.03
700.571	2804.35
700.76	2873.98
700.948	3007.1
701.137	2828.93
701.326	2912.89
701.514	2925.18
701.703	2835.07
701.892	2908.8
702.08	2896.51
702.269	2853.5
702.457	2871.93
702.646	2919.04
702.834	2876.03
703.023	2830.98
703.212	2822.78
703.4	2787.97
703.589	2835.07
703.777	2693.76
703.965	2691.71
704.154	2751.1
704.342	2736.77
704.531	2865.79
704.719	2658.95
704.907	2814.59
705.096	2796.16
705.284	2652.8
705.472	2759.3
705.661	2839.17
705.849	2681.47
706.037	2675.33
706.226	2642.56
706.414	2749.06
706.602	2679.43
706.79	2669.19
706.979	2744.96
707.167	2652.8
707.355	2663.04
707.543	2527.88
707.731	2671.23
707.919	2640.51
708.107	2632.32
708.296	2450.05
708.484	2638.47
708.672	2646.66
708.86	2593.41
709.048	2650.75
709.236	2591.36
709.424	2695.81
709.612	2593.41
709.8	2620.03
709.988	2572.93
710.176	2622.08
710.364	2574.98
710.551	2570.88
710.739	2450.05
710.927	2570.88
711.115	2474.63
711.303	2458.25
711.491	2654.85
711.679	2433.67
711.866	2585.22
712.054	2531.97
712.242	2386.57
712.43	2511.49
712.617	2427.53
712.805	2486.92
712.993	2427.53
713.181	2394.76
713.368	2437.77
713.556	2415.24
713.744	2419.33
713.931	2491.01
714.119	2460.29
714.306	2464.39
714.494	2433.67
714.682	2411.14
714.869	2445.96
715.057	2353.8
715.244	2298.5
715.432	2372.23
715.619	2388.61
715.807	2355.85
715.994	2290.31
716.182	2335.37
716.369	2445.96
716.556	2470.53
716.744	2462.34
716.931	2284.17
717.119	2304.65
717.306	2329.22
717.493	2302.6
717.681	2396.81
717.868	2306.7
718.055	2329.22
718.242	2355.85
718.43	2388.61
718.617	2228.87
718.804	2171.53
718.991	2278.02
719.179	2267.78
719.366	2230.92
719.553	2257.54
719.74	2265.74
719.927	2228.87
720.114	2310.79
720.301	2255.5
720.488	2110.09
720.676	2194.06
720.863	2312.84
721.05	2159.24
721.237	2253.45
721.424	2171.53
721.611	2120.33
721.798	2122.38
721.985	2116.23
722.172	2105.99
722.358	2183.82
722.545	2052.75
722.732	2099.85
722.919	2216.58
723.106	2189.96
723.293	2085.51
723.48	2179.72
723.667	2097.8
723.853	2122.38
724.04	2097.8
724.227	2157.19
724.414	2042.51
724.6	2138.76
724.787	2198.15
724.974	2050.7
725.161	2056.84
725.347	1946.25
725.534	2073.23
725.72	2173.58
725.907	2022.03
726.094	1991.31
726.28	2026.12
726.467	1987.21
726.653	1983.12
726.84	2017.93
727.027	2048.65
727.213	1962.64
727.4	1993.36
727.586	2105.99
727.773	1950.35
727.959	1860.24
728.145	2052.75
728.332	1864.33
728.518	2015.88
728.705	2040.46
728.891	1919.63
729.077	2046.6
729.264	1985.16
729.45	2011.79
729.636	1983.12
729.823	2046.6
730.009	2015.88
730.195	1929.87
730.382	1954.44
730.568	1890.96
730.754	1876.62
730.94	1823.37
731.126	1901.2
731.313	1983.12
731.499	1893.01
731.685	1933.97
731.871	1893.01
732.057	1884.81
732.243	1868.43
732.429	1903.25
732.615	1835.66
732.801	1972.88
732.987	1852.05
733.173	1845.9
733.359	1919.63
733.545	1772.18
733.731	1831.57
733.917	1897.1
734.103	1950.35
734.289	1725.07
734.475	1862.29
734.661	1952.4
734.847	1811.09
735.033	1893.01
735.219	1819.28
735.404	1893.01
735.59	1811.09
735.776	1802.9
735.962	1796.75
736.148	1790.61
736.333	1870.48
736.519	1741.46
736.705	1692.3
736.89	1819.28
737.076	1813.13
737.262	1718.93
737.447	1763.98
737.633	1634.96
737.819	1825.42
738.004	1755.79
738.19	1671.83
738.375	1716.88
738.561	1749.65
738.747	1712.78
738.932	1649.3
739.118	1680.02
739.303	1786.51
739.489	1671.83
739.674	1690.26
739.859	1755.79
740.045	1680.02
740.23	1589.91
740.416	1594
740.601	1671.83
740.786	1585.81
740.972	1589.91
741.157	1540.76
741.342	1587.86
741.528	1624.72
741.713	1594
741.898	1585.81
742.084	1600.15
742.269	1495.7
742.454	1647.25
742.639	1507.99
742.824	1581.71
743.01	1614.48
743.195	1526.42
743.38	1477.27
743.565	1583.76
743.75	1454.74
743.935	1567.38
744.12	1639.06
744.305	1430.16
744.49	1573.52
744.675	1491.6
744.86	1444.5
745.045	1481.36
745.23	1483.41
745.415	1415.83
745.6	1489.56
745.785	1417.88
745.97	1444.5
746.155	1413.78
746.34	1426.07
746.525	1321.62
746.71	1442.45
746.895	1368.73
747.079	1350.29
747.264	1417.88
747.449	1417.88
747.634	1385.11
747.819	1362.58
748.003	1313.43
748.188	1327.77
748.373	1393.3
748.557	1278.62
748.742	1340.05
748.927	1360.53
749.111	1303.19
749.296	1299.09
749.481	1233.56
749.665	1340.05
749.85	1208.98
750.034	1262.23
750.219	1225.37
750.404	1280.66
750.588	1288.85
750.773	1149.59
750.957	1213.08
751.141	1178.26
751.326	1227.42
751.51	1221.27
751.695	1108.63
751.879	1237.66
752.064	1299.09
752.248	1151.64
752.432	1149.59
752.617	1172.12
752.801	1016.48
752.985	1090.2
753.17	1188.5
753.354	1092.25
753.538	1180.31
753.722	1139.35
753.907	1059.48
754.091	1204.89
754.275	1120.92
754.459	1073.82
754.643	1026.71
754.828	1079.96
755.012	1028.76
755.196	1067.67
755.38	1069.72
755.564	983.71
755.748	1012.38
755.932	977.56
756.116	1127.07
756.3	1077.91
756.484	971.42
756.668	1012.38
756.852	909.98
757.036	1053.34
757.22	1030.81
757.404	969.37
757.588	942.75
757.772	903.84
757.956	928.41
758.14	1032.86
758.323	885.41
758.507	1020.57
758.691	926.36
758.875	963.23
759.059	909.98
759.242	852.64
759.426	848.54
759.61	844.45
759.794	899.74
759.977	903.84
760.161	926.36
760.345	879.26
760.528	883.36
760.712	979.61
760.895	918.17
761.079	852.64
761.263	807.58
761.446	785.05
761.63	803.49
761.813	869.02
761.997	862.88
762.18	830.11
762.364	869.02
762.547	844.45
762.731	813.73
762.914	887.45
763.098	836.25
763.281	819.87
763.464	844.45
763.648	909.98
763.831	768.67
764.015	748.19
764.198	879.26
764.381	819.87
764.564	821.92
764.748	778.91
764.931	836.25
765.114	758.43
765.297	856.73
765.481	758.43
765.664	746.14
765.847	803.49
766.03	840.35
766.213	744.1
766.397	740
766.58	746.14
766.763	783.01
766.946	754.34
767.129	690.85
767.312	699.04
767.495	740
767.678	666.27
767.861	801.44
768.044	752.29
768.227	686.75
768.41	682.66
768.593	768.67
768.776	696.99
768.959	684.7
769.142	737.95
769.324	672.42
769.507	731.81
769.69	750.24
769.873	699.04
770.056	799.39
770.239	682.66
770.421	770.72
770.604	680.61
770.787	631.46
770.97	694.94
771.152	705.18
771.335	647.84
771.518	656.03
771.7	731.81
771.883	740
772.066	625.31
772.248	713.38
772.431	688.8
772.613	735.9
772.796	547.49
772.978	674.46
773.161	674.46
773.343	615.07
773.526	580.26
773.708	680.61
773.891	631.46
774.073	559.78
774.256	645.79
774.438	658.08
774.621	594.59
774.803	641.7
774.985	586.4
775.168	692.9
775.35	576.16
775.532	567.97
775.715	584.35
775.897	672.42
776.079	602.79
776.261	623.27
776.444	580.26
776.626	502.44
776.808	549.54
776.99	504.48
777.173	578.21
777.355	588.45
777.537	545.44
777.719	559.78
777.901	639.65
778.083	535.2
778.265	539.3
778.447	533.15
778.629	436.9
778.811	561.83
778.993	551.59
779.175	500.39
779.357	455.33
779.539	430.76
779.721	502.44
779.903	570.02
780.085	506.53
780.267	473.76
780.449	477.86
780.631	529.06
780.812	522.91
780.994	484
781.176	471.72
781.358	459.43
781.54	406.18
781.721	543.39
781.903	484
782.085	406.18
782.267	443.04
782.448	434.85
782.63	451.24
782.812	451.24
782.993	502.44
783.175	428.71
783.357	410.28
783.538	418.47
783.72	383.65
783.901	477.86
784.083	438.95
784.264	344.74
784.446	352.93
784.627	361.13
784.809	410.28
784.99	408.23
785.172	344.74
785.353	430.76
785.535	500.39
785.716	344.74
785.897	422.56
786.079	434.85
786.26	395.94
786.441	357.03
786.623	361.13
786.804	336.55
786.985	373.41
787.167	488.1
787.348	314.02
787.529	408.23
787.71	426.66
787.891	383.65
788.073	348.84
788.254	295.59
788.435	467.62
788.616	400.04
788.797	332.45
788.978	305.83
789.159	344.74
789.34	361.13
789.522	303.78
789.703	344.74
789.884	346.79
790.065	318.12
790.246	377.51
790.427	316.07
790.607	311.97
790.788	404.13
790.969	234.15
791.15	330.41
791.331	334.5
791.512	279.21
791.693	250.53
791.874	230.06
792.054	389.8
792.235	332.45
792.416	291.49
792.597	324.26
792.778	275.11
792.958	328.36
793.139	174.76
793.32	271.01
793.5	264.87
793.681	330.41
793.862	338.6
794.042	311.97
794.223	230.06
794.404	344.74
794.584	258.73
794.765	168.62
794.945	309.93
795.126	281.25
795.306	207.53
795.487	281.25
795.667	232.1
795.848	293.54
796.028	182.95
796.209	275.11
796.389	250.53
796.57	320.17
796.75	215.72
796.93	279.21
797.111	223.91
797.291	299.69
797.471	217.77
797.652	281.25
797.832	225.96
798.012	287.4
798.192	219.82
798.373	213.67
798.553	182.95
798.733	213.67
798.913	228.01
799.093	180.9
799.274	135.85
799.454	303.78
799.634	209.58
799.814	207.53
799.994	271.01
800.174	189.1
800.354	180.9
800.534	205.48
800.714	209.58
800.894	180.9
801.074	121.51
801.254	232.1
801.434	207.53
801.614	180.9
801.794	254.63
801.974	752.29
802.154	219.82
802.334	236.2
802.514	152.23
802.693	246.44
802.873	117.42
803.053	217.77
803.233	254.63
803.413	221.86
803.592	180.9
803.772	156.33
803.952	182.95
804.131	201.38
804.311	232.1
804.491	234.15
804.67	168.62
804.85	254.63
805.03	199.34
805.209	240.3
805.389	111.27
805.568	260.77
805.748	139.94
805.928	207.53
806.107	213.67
806.287	189.1
806.466	197.29
806.646	166.57
806.825	180.9
807.004	172.71
807.184	105.13
807.363	139.94
807.543	152.23
807.722	180.9
807.901	238.25
808.081	123.56
808.26	150.18
808.439	187.05
808.619	193.19
808.798	141.99
808.977	94.89
809.156	205.48
809.336	213.67
809.515	187.05
809.694	90.79
809.873	123.56
810.052	135.85
810.231	144.04
810.411	248.49
810.59	68.27
810.769	178.86
810.948	166.57
811.127	178.86
811.306	98.99
811.485	62.12
811.664	201.38
811.843	182.95
812.022	189.1
812.201	90.79
812.38	217.77
812.559	139.94
812.737	139.94
812.916	150.18
813.095	131.75
813.274	168.62
813.453	191.14
813.632	123.56
813.811	201.38
813.989	98.99
814.168	131.75
814.347	82.6
814.526	98.99
814.704	191.14
814.883	156.33
815.062	53.93
815.24	185
815.419	139.94
815.598	148.14
815.776	90.79
815.955	146.09
816.133	121.51
816.312	133.8
816.49	105.13
816.669	82.6
816.847	146.09
817.026	109.23
817.204	148.14
817.383	117.42
817.561	158.38
817.74	107.18
817.918	82.6
818.097	68.27
818.275	115.37
818.453	90.79
818.632	148.14
818.81	121.51
818.988	127.66
819.167	101.03
819.345	125.61
819.523	121.51
819.701	131.75
819.879	139.94
820.058	189.1
820.236	203.43
820.414	98.99
820.592	148.14
820.77	154.28
820.948	51.88
821.127	111.27
821.305	139.94
821.483	39.59
821.661	133.8
821.839	144.04
822.017	72.36
822.195	139.94
822.373	92.84
822.551	121.51
822.729	86.7
822.907	84.65
823.085	168.62
823.262	92.84
823.44	107.18
823.618	82.6
823.796	127.66
823.974	74.41
824.152	127.66
824.329	115.37
824.507	166.57
824.685	160.42
824.863	191.14
825.04	107.18
825.218	92.84
825.396	25.26
825.574	53.93
825.751	98.99
825.929	131.75
826.107	131.75
826.284	92.84
826.462	199.34
826.639	78.51
826.817	76.46
826.994	170.66
827.172	41.64
827.349	103.08
827.527	115.37
827.704	131.75
827.882	84.65
828.059	133.8
828.237	109.23
828.414	158.38
828.591	62.12
828.769	84.65
828.946	101.03
829.124	137.9
829.301	148.14
829.478	92.84
829.655	123.56
829.833	43.69
830.01	17.07
830.187	78.51
830.364	146.09
830.542	66.22
830.719	74.41
830.896	109.23
831.073	139.94
831.25	133.8
831.427	176.81
831.604	8.87
831.782	146.09
831.959	74.41
832.136	39.59
832.313	78.51
832.49	76.46
832.667	86.7
832.844	39.59
833.021	182.95
833.198	74.41
833.374	164.52
833.551	70.31
833.728	123.56
833.905	92.84
834.082	60.07
834.259	33.45
834.436	49.83
834.612	107.18
834.789	96.94
834.966	0.68
835.143	117.42
835.319	19.11
835.496	121.51
835.673	45.74
835.85	47.79
836.026	4.78
836.203	70.31
836.38	62.12
836.556	117.42
836.733	86.7
836.909	107.18
837.086	96.94
837.262	49.83
837.439	127.66
837.616	51.88
837.792	49.83
837.968	98.99
838.145	-48.47
838.321	33.45
838.498	2.73
838.674	68.27
838.851	68.27
839.027	58.03
839.203	53.93
839.38	127.66
839.556	90.79
839.732	45.74
839.909	90.79
840.085	90.79
840.261	58.03
840.437	49.83
840.614	12.97
840.79	25.26
840.966	78.51
841.142	43.69
841.318	19.11
841.494	33.45
841.671	88.75
841.847	82.6
842.023	51.88
842.199	66.22
842.375	49.83
842.551	70.31
842.727	6.83
842.903	84.65
843.079	68.27
843.255	74.41
843.431	70.31
843.607	115.37
843.783	29.35
843.959	58.03
844.134	117.42
844.31	127.66
844.486	58.03
844.662	27.31
844.838	25.26
845.013	98.99
845.189	-46.42
845.365	60.07
845.541	15.02
845.716	25.26
845.892	82.6
846.068	146.09
846.244	66.22
846.419	90.79
846.595	-11.61
846.77	70.31
846.946	82.6
847.122	96.94
847.297	43.69
847.473	115.37
847.648	-46.42
847.824	84.65
847.999	8.87
848.175	-27.99
848.35	107.18
848.526	78.51
848.701	2.73
848.876	109.23
849.052	107.18
849.227	43.69
849.403	58.03
849.578	49.83
849.753	8.87
849.929	78.51
850.104	-32.08
850.279	90.79
850.454	82.6
850.63	84.65
850.805	27.31
850.98	103.08
851.155	-13.65
851.33	10.92
851.505	17.07
851.681	123.56
851.856	-38.23
852.031	17.07
852.206	76.46
852.381	60.07
852.556	82.6
852.731	51.88
852.906	101.03
853.081	115.37
853.256	94.89
853.431	107.18
853.606	-11.61
853.781	27.31
853.956	-13.65
854.131	41.64
854.305	19.11
854.48	60.07
854.655	21.16
854.83	-5.46
855.005	78.51
855.18	58.03
855.354	33.45
855.529	82.6
855.704	33.45
855.879	82.6
856.053	-3.41
856.228	39.59
856.403	21.16
856.577	82.6
856.752	43.69
856.926	-3.41
857.101	17.07
857.276	25.26
857.45	29.35
857.625	60.07
857.799	-15.7
857.974	55.98
858.148	-17.75
858.323	96.94
858.497	74.41
858.672	39.59
858.846	10.92
859.02	62.12
859.195	33.45
859.369	43.69
859.543	-5.46
859.718	-38.23
859.892	-7.51
860.066	37.55
860.241	8.87
860.415	37.55
860.589	-3.41
860.763	33.45
860.938	-40.28
861.112	29.35
861.286	35.5
861.46	107.18
861.634	39.59
861.808	66.22
861.982	25.26
862.157	-15.7
862.331	33.45
862.505	-56.66
862.679	41.64
862.853	49.83
863.027	86.7
863.201	68.27
863.375	33.45
863.549	41.64
863.722	-3.41
863.896	49.83
864.07	-1.37
864.244	35.5
864.418	98.99
864.592	6.83
864.766	53.93
864.939	17.07
865.113	33.45
865.287	90.79
865.461	-7.51
865.634	-7.51
865.808	-23.89
865.982	-9.56
866.156	17.07
866.329	-7.51
866.503	90.79
866.676	139.94
866.85	25.26
867.024	62.12
867.197	-9.56
867.371	119.46
867.544	8.87
867.718	-32.08
867.891	90.79
868.065	49.83
868.238	41.64
868.412	98.99
868.585	29.35
868.759	8.87
868.932	2.73
869.105	74.41
869.279	2.73
869.452	39.59
869.625	166.57
869.799	90.79
869.972	25.26
870.145	133.8
870.319	92.84
870.492	-32.08
870.665	82.6
870.838	6.83
871.011	17.07
871.185	25.26
871.358	86.7
871.531	53.93
871.704	-32.08
871.877	-32.08
872.05	49.83
872.223	68.27
872.396	86.7
872.569	82.6
872.742	33.45
872.915	66.22
873.088	86.7
873.261	-13.65
873.434	0.68
873.607	74.41
873.78	58.03
873.953	-34.13
874.126	12.97
874.299	31.4
874.471	-44.37
874.644	49.83
874.817	-23.89
874.99	135.85
875.163	68.27
875.335	60.07
875.508	53.93
875.681	62.12
875.853	4.78
876.026	27.31
876.199	25.26
876.371	8.87
876.544	35.5
876.717	-7.51
876.889	4.78
877.062	74.41
877.234	8.87
877.407	43.69
877.579	66.22
877.752	-11.61
877.924	29.35
878.097	0.68
878.269	2.73
878.442	33.45
878.614	19.11
878.786	58.03
878.959	35.5
879.131	4.78
879.303	-5.46
879.476	41.64
879.648	-13.65
879.82	35.5
879.993	-5.46
880.165	33.45
880.337	-32.08
880.509	51.88
880.681	-3.41
880.854	98.99
881.026	62.12
881.198	98.99
881.37	76.46
881.542	58.03
881.714	0.68
881.886	15.02
882.058	25.26
882.23	35.5
882.402	84.65
882.574	-13.65
882.746	78.51
882.918	135.85
883.09	-5.46
883.262	-30.04
883.434	31.4
883.606	8.87
883.778	-15.7
883.95	96.94
884.122	17.07
884.293	66.22
884.465	-25.94
884.637	33.45
884.809	-48.47
884.98	41.64
885.152	82.6
885.324	66.22
885.496	68.27
885.667	25.26
885.839	78.51
886.011	123.56
886.182	41.64
886.354	49.83
886.525	66.22
886.697	0.68
886.869	-23.89
887.04	23.21
887.212	4.78
887.383	78.51
887.555	-3.41
887.726	29.35
887.897	-7.51
888.069	70.31
888.24	41.64
888.412	74.41
888.583	17.07
888.754	0.68
888.926	-5.46
889.097	45.74
889.268	0.68
889.44	8.87
889.611	25.26
889.782	0.68
889.953	-23.89
890.125	51.88
890.296	-34.13
890.467	23.21
890.638	23.21
890.809	25.26
890.98	21.16
891.151	-1.37
891.323	90.79
891.494	68.27
891.665	78.51
891.836	12.97
892.007	-3.41
892.178	29.35
892.349	58.03
892.52	37.55
892.691	74.41
892.862	82.6
893.032	-15.7
893.203	0.68
893.374	55.98
893.545	0.68
893.716	-48.47
893.887	60.07
894.057	0.68
894.228	58.03
894.399	-32.08
894.57	33.45
894.74	94.89
894.911	19.11
895.082	-15.7
895.253	-38.23
895.423	-21.85
895.594	17.07
895.764	23.21
895.935	-15.7
896.106	58.03
896.276	-17.75
896.447	19.11
896.617	-3.41
896.788	-30.04
896.958	80.55
897.129	58.03
897.299	39.59
897.47	41.64
897.64	8.87
897.81	41.64
897.981	88.75
898.151	60.07
898.322	-15.7
898.492	-5.46
898.662	-3.41
898.832	-15.7
899.003	15.02
899.173	62.12
899.343	17.07
899.513	2.73
