Data from USB4F104151__81__14-43-27-716.txt Node

Date: Thu Mar 13 14:43:27 EDT 2025
User: louis
Spectrometer: USB4F10415
Trigger mode: 4
Integration Time (sec): 2.000000E-2
Scans to average: 1
Electric dark correction enabled: true
Nonlinearity correction enabled: false
Boxcar width: 0
XAxis mode: Wavelengths
Number of Pixels in Spectrum: 3648
>>>>>Begin Spectral Data<<<<<
178.204	-153.6
178.424	-153.6
178.644	-153.6
178.864	-43.01
179.084	-75.77
179.304	-79.87
179.524	-47.1
179.744	-36.86
179.964	-30.72
180.184	45.06
180.404	22.53
180.624	30.72
180.844	-6.14
181.064	20.48
181.283	-22.53
181.503	14.34
181.723	90.11
181.943	22.53
182.163	98.3
182.383	92.16
182.602	53.25
182.822	157.69
183.042	26.62
183.262	36.86
183.482	86.01
183.701	43.01
183.921	24.58
184.141	53.25
184.361	67.58
184.58	96.25
184.8	24.58
185.02	10.24
185.239	149.5
185.459	32.77
185.679	34.82
185.898	-10.24
186.118	63.49
186.338	20.48
186.557	49.15
186.777	71.68
186.997	55.3
187.216	4.1
187.436	110.59
187.655	43.01
187.875	112.64
188.095	-18.43
188.314	67.58
188.534	45.06
188.753	43.01
188.973	75.77
189.192	75.77
189.412	94.21
189.631	8.19
189.851	75.77
190.07	92.16
190.29	-4.1
190.509	-12.29
190.729	30.72
190.948	38.91
191.168	116.73
191.387	100.35
191.607	92.16
191.826	0
192.045	67.58
192.265	10.24
192.484	43.01
192.704	59.39
192.923	36.86
193.142	151.55
193.362	38.91
193.581	75.77
193.8	-38.91
194.02	57.34
194.239	43.01
194.458	124.93
194.678	-12.29
194.897	-2.05
195.116	67.58
195.335	69.63
195.555	26.62
195.774	-20.48
195.993	67.58
196.212	-12.29
196.432	20.48
196.651	36.86
196.87	32.77
197.089	98.3
197.308	-14.34
197.528	51.2
197.747	30.72
197.966	63.49
198.185	83.97
198.404	8.19
198.623	155.65
198.842	53.25
199.062	22.53
199.281	49.15
199.5	55.3
199.719	63.49
199.938	83.97
200.157	14.34
200.376	51.2
200.595	83.97
200.814	126.97
201.033	65.54
201.252	86.01
201.471	12.29
201.69	26.62
201.909	14.34
202.128	69.63
202.347	71.68
202.566	67.58
202.785	34.82
203.004	30.72
203.223	120.83
203.442	-8.19
203.661	0
203.879	43.01
204.098	59.39
204.317	30.72
204.536	26.62
204.755	51.2
204.974	83.97
205.193	83.97
205.411	49.15
205.63	26.62
205.849	96.25
206.068	22.53
206.287	18.43
206.505	79.87
206.724	43.01
206.943	28.67
207.162	43.01
207.381	2.05
207.599	75.77
207.818	75.77
208.037	26.62
208.255	51.2
208.474	114.69
208.693	26.62
208.911	63.49
209.13	18.43
209.349	-22.53
209.567	59.39
209.786	108.54
210.005	51.2
210.223	10.24
210.442	57.34
210.661	51.2
210.879	4.1
211.098	2.05
211.316	67.58
211.535	108.54
211.753	51.2
211.972	77.82
212.191	8.19
212.409	67.58
212.628	67.58
212.846	83.97
213.065	45.06
213.283	63.49
213.502	47.1
213.72	14.34
213.938	104.45
214.157	18.43
214.375	75.77
214.594	61.44
214.812	59.39
215.031	-20.48
215.249	10.24
215.467	75.77
215.686	40.96
215.904	26.62
216.122	98.3
216.341	53.25
216.559	43.01
216.778	96.25
216.996	51.2
217.214	2.05
217.432	2.05
217.651	34.82
217.869	22.53
218.087	59.39
218.306	-4.1
218.524	18.43
218.742	32.77
218.96	-18.43
219.179	8.19
219.397	43.01
219.615	104.45
219.833	10.24
220.051	51.2
220.27	92.16
220.488	71.68
220.706	63.49
220.924	40.96
221.142	53.25
221.36	26.62
221.578	100.35
221.796	6.14
222.015	61.44
222.233	104.45
222.451	69.63
222.669	51.2
222.887	36.86
223.105	-2.05
223.323	2.05
223.541	-18.43
223.759	77.82
223.977	-14.34
224.195	28.67
224.413	100.35
224.631	51.2
224.849	92.16
225.067	102.4
225.285	53.25
225.503	51.2
225.721	-16.38
225.939	94.21
226.157	34.82
226.375	116.73
226.592	26.62
226.81	63.49
227.028	96.25
227.246	92.16
227.464	43.01
227.682	59.39
227.9	86.01
228.117	75.77
228.335	14.34
228.553	30.72
228.771	59.39
228.989	71.68
229.206	110.59
229.424	43.01
229.642	65.54
229.86	30.72
230.077	-26.62
230.295	-28.67
230.513	26.62
230.731	49.15
230.948	112.64
231.166	34.82
231.384	96.25
231.601	34.82
231.819	124.93
232.037	67.58
232.254	63.49
232.472	-4.1
232.689	6.14
232.907	20.48
233.125	77.82
233.342	-38.91
233.56	-8.19
233.777	53.25
233.995	61.44
234.213	116.73
234.43	26.62
234.648	26.62
234.865	-12.29
235.083	43.01
235.3	16.38
235.518	53.25
235.735	106.49
235.953	90.11
236.17	86.01
236.388	2.05
236.605	30.72
236.822	26.62
237.04	14.34
237.257	26.62
237.475	47.1
237.692	43.01
237.909	61.44
238.127	18.43
238.344	55.3
238.562	30.72
238.779	8.19
238.996	14.34
239.214	102.4
239.431	-8.19
239.648	6.14
239.865	75.77
240.083	43.01
240.3	12.29
240.517	65.54
240.735	-12.29
240.952	75.77
241.169	63.49
241.386	-12.29
241.603	51.2
241.821	43.01
242.038	40.96
242.255	135.17
242.472	81.92
242.689	63.49
242.907	79.87
243.124	38.91
243.341	61.44
243.558	2.05
243.775	-2.05
243.992	94.21
244.209	63.49
244.426	69.63
244.643	67.58
244.86	20.48
245.078	26.62
245.295	18.43
245.512	55.3
245.729	61.44
245.946	12.29
246.163	77.82
246.38	16.38
246.597	-14.34
246.814	94.21
247.031	55.3
247.248	59.39
247.464	100.35
247.681	-61.44
247.898	55.3
248.115	-10.24
248.332	55.3
248.549	34.82
248.766	83.97
248.983	36.86
249.2	26.62
249.417	92.16
249.633	30.72
249.85	-24.58
250.067	36.86
250.284	-6.14
250.501	122.88
250.717	112.64
250.934	-40.96
251.151	53.25
251.368	94.21
251.585	77.82
251.801	26.62
252.018	22.53
252.235	112.64
252.451	63.49
252.668	-10.24
252.885	104.45
253.102	67.58
253.318	59.39
253.535	6.14
253.752	83.97
253.968	12.29
254.185	59.39
254.401	43.01
254.618	43.01
254.835	77.82
255.051	131.07
255.268	104.45
255.484	83.97
255.701	34.82
255.917	86.01
256.134	-38.91
256.351	20.48
256.567	38.91
256.784	18.43
257	-47.1
257.217	88.06
257.433	67.58
257.65	43.01
257.866	88.06
258.082	63.49
258.299	6.14
258.515	26.62
258.732	55.3
258.948	26.62
259.165	133.12
259.381	12.29
259.597	30.72
259.814	59.39
260.03	53.25
260.246	18.43
260.463	65.54
260.679	100.35
260.895	43.01
261.112	77.82
261.328	51.2
261.544	79.87
261.761	71.68
261.977	55.3
262.193	-53.25
262.409	71.68
262.626	59.39
262.842	118.78
263.058	-16.38
263.274	63.49
263.49	106.49
263.707	75.77
263.923	51.2
264.139	-26.62
264.355	63.49
264.571	63.49
264.787	75.77
265.004	14.34
265.22	6.14
265.436	26.62
265.652	75.77
265.868	71.68
266.084	26.62
266.3	124.93
266.516	-47.1
266.732	55.3
266.948	20.48
267.164	51.2
267.38	61.44
267.596	12.29
267.812	116.73
268.028	67.58
268.244	10.24
268.46	26.62
268.676	18.43
268.892	36.86
269.108	-30.72
269.324	45.06
269.54	51.2
269.756	34.82
269.972	92.16
270.188	-18.43
270.403	-12.29
270.619	71.68
270.835	47.1
271.051	38.91
271.267	-2.05
271.483	-45.06
271.698	73.73
271.914	51.2
272.13	40.96
272.346	71.68
272.562	57.34
272.777	53.25
272.993	75.77
273.209	4.1
273.425	38.91
273.64	4.1
273.856	124.93
274.072	26.62
274.287	18.43
274.503	55.3
274.719	75.77
274.934	36.86
275.15	32.77
275.366	59.39
275.581	-61.44
275.797	34.82
276.012	2.05
276.228	75.77
276.444	49.15
276.659	126.97
276.875	18.43
277.09	18.43
277.306	51.2
277.521	6.14
277.737	83.97
277.952	51.2
278.168	22.53
278.383	0
278.599	12.29
278.814	104.45
279.03	124.93
279.245	120.83
279.461	92.16
279.676	-18.43
279.892	18.43
280.107	-12.29
280.322	8.19
280.538	-14.34
280.753	40.96
280.969	83.97
281.184	59.39
281.399	51.2
281.615	4.1
281.83	36.86
282.045	18.43
282.26	47.1
282.476	-12.29
282.691	30.72
282.906	-12.29
283.122	36.86
283.337	30.72
283.552	2.05
283.767	-26.62
283.983	20.48
284.198	2.05
284.413	63.49
284.628	26.62
284.843	75.77
285.058	102.4
285.274	-10.24
285.489	4.1
285.704	49.15
285.919	20.48
286.134	38.91
286.349	51.2
286.564	75.77
286.779	32.77
286.995	51.2
287.21	83.97
287.425	149.5
287.64	-10.24
287.855	71.68
288.07	45.06
288.285	73.73
288.5	79.87
288.715	106.49
288.93	-12.29
289.145	20.48
289.36	67.58
289.575	28.67
289.79	96.25
290.004	-4.1
290.219	36.86
290.434	124.93
290.649	10.24
290.864	108.54
291.079	24.58
291.294	43.01
291.509	14.34
291.724	34.82
291.938	10.24
292.153	26.62
292.368	47.1
292.583	14.34
292.798	22.53
293.012	67.58
293.227	98.3
293.442	6.14
293.657	32.77
293.871	43.01
294.086	67.58
294.301	122.88
294.516	88.06
294.73	94.21
294.945	40.96
295.16	43.01
295.374	112.64
295.589	98.3
295.804	-6.14
296.018	30.72
296.233	59.39
296.447	43.01
296.662	108.54
296.877	51.2
297.091	124.93
297.306	55.3
297.52	67.58
297.735	67.58
297.949	59.39
298.164	10.24
298.378	28.67
298.593	61.44
298.807	92.16
299.022	-12.29
299.236	71.68
299.451	110.59
299.665	120.83
299.88	67.58
300.094	51.2
300.309	10.24
300.523	26.62
300.737	67.58
300.952	120.83
301.166	45.06
301.381	-30.72
301.595	118.78
301.809	40.96
302.024	129.02
302.238	38.91
302.452	120.83
302.667	67.58
302.881	36.86
303.095	61.44
303.309	51.2
303.524	10.24
303.738	120.83
303.952	28.67
304.166	75.77
304.381	4.1
304.595	116.73
304.809	67.58
305.023	69.63
305.237	106.49
305.452	14.34
305.666	88.06
305.88	28.67
306.094	57.34
306.308	61.44
306.522	55.3
306.736	51.2
306.95	20.48
307.164	18.43
307.379	12.29
307.593	51.2
307.807	26.62
308.021	88.06
308.235	94.21
308.449	28.67
308.663	59.39
308.877	10.24
309.091	51.2
309.305	36.86
309.519	-26.62
309.733	88.06
309.947	59.39
310.161	43.01
310.374	149.5
310.588	43.01
310.802	36.86
311.016	83.97
311.23	61.44
311.444	100.35
311.658	18.43
311.872	45.06
312.085	-6.14
312.299	51.2
312.513	65.54
312.727	26.62
312.941	30.72
313.154	124.93
313.368	2.05
313.582	106.49
313.796	71.68
314.009	75.77
314.223	32.77
314.437	53.25
314.651	43.01
314.864	92.16
315.078	92.16
315.292	0
315.505	79.87
315.719	6.14
315.933	96.25
316.146	43.01
316.36	30.72
316.573	59.39
316.787	57.34
317.001	53.25
317.214	2.05
317.428	26.62
317.641	69.63
317.855	28.67
318.068	-20.48
318.282	75.77
318.495	88.06
318.709	133.12
318.922	14.34
319.136	108.54
319.349	2.05
319.563	43.01
319.776	36.86
319.99	51.2
320.203	51.2
320.417	45.06
320.63	47.1
320.843	18.43
321.057	-18.43
321.27	96.25
321.483	12.29
321.697	59.39
321.91	83.97
322.124	96.25
322.337	18.43
322.55	104.45
322.763	30.72
322.977	2.05
323.19	116.73
323.403	53.25
323.617	96.25
323.83	6.14
324.043	30.72
324.256	75.77
324.469	26.62
324.683	75.77
324.896	73.73
325.109	59.39
325.322	4.1
325.535	110.59
325.748	34.82
325.962	43.01
326.175	79.87
326.388	81.92
326.601	28.67
326.814	51.2
327.027	63.49
327.24	112.64
327.453	53.25
327.666	75.77
327.879	61.44
328.092	38.91
328.305	-30.72
328.518	88.06
328.731	83.97
328.944	110.59
329.157	43.01
329.37	43.01
329.583	118.78
329.796	110.59
330.009	34.82
330.222	96.25
330.435	65.54
330.648	32.77
330.861	4.1
331.073	30.72
331.286	92.16
331.499	79.87
331.712	28.67
331.925	79.87
332.138	69.63
332.35	88.06
332.563	69.63
332.776	30.72
332.989	67.58
333.202	67.58
333.414	83.97
333.627	118.78
333.84	34.82
334.053	114.69
334.265	100.35
334.478	2.05
334.691	36.86
334.903	100.35
335.116	-6.14
335.329	49.15
335.541	96.25
335.754	92.16
335.966	36.86
336.179	108.54
336.392	55.3
336.604	71.68
336.817	47.1
337.029	61.44
337.242	59.39
337.454	59.39
337.667	116.73
337.88	59.39
338.092	90.11
338.305	26.62
338.517	75.77
338.729	-16.38
338.942	6.14
339.154	75.77
339.367	108.54
339.579	116.73
339.792	8.19
340.004	98.3
340.217	26.62
340.429	77.82
340.641	4.1
340.854	86.01
341.066	43.01
341.278	83.97
341.491	86.01
341.703	26.62
341.915	43.01
342.128	63.49
342.34	-34.82
342.552	12.29
342.764	71.68
342.977	67.58
343.189	92.16
343.401	131.07
343.613	-14.34
343.826	26.62
344.038	59.39
344.25	43.01
344.462	51.2
344.674	55.3
344.886	12.29
345.099	75.77
345.311	53.25
345.523	34.82
345.735	69.63
345.947	110.59
346.159	79.87
346.371	53.25
346.583	75.77
346.795	116.73
347.007	61.44
347.219	55.3
347.431	90.11
347.643	71.68
347.855	96.25
348.067	100.35
348.279	43.01
348.491	47.1
348.703	-2.05
348.915	6.14
349.127	43.01
349.339	65.54
349.551	43.01
349.763	79.87
349.975	43.01
350.187	51.2
350.399	63.49
350.61	22.53
350.822	22.53
351.034	83.97
351.246	112.64
351.458	53.25
351.669	71.68
351.881	59.39
352.093	88.06
352.305	161.79
352.517	69.63
352.728	151.55
352.94	75.77
353.152	77.82
353.363	26.62
353.575	124.93
353.787	79.87
353.999	34.82
354.21	92.16
354.422	26.62
354.633	75.77
354.845	116.73
355.057	79.87
355.268	67.58
355.48	20.48
355.692	67.58
355.903	61.44
356.115	24.58
356.326	26.62
356.538	96.25
356.749	92.16
356.961	112.64
357.172	38.91
357.384	-32.77
357.595	65.54
357.807	63.49
358.018	-14.34
358.23	75.77
358.441	112.64
358.653	137.21
358.864	92.16
359.075	18.43
359.287	40.96
359.498	36.86
359.709	124.93
359.921	83.97
360.132	86.01
360.344	65.54
360.555	51.2
360.766	77.82
360.977	51.2
361.189	98.3
361.4	86.01
361.611	92.16
361.823	108.54
362.034	75.77
362.245	-2.05
362.456	30.72
362.667	26.62
362.879	-12.29
363.09	59.39
363.301	34.82
363.512	20.48
363.723	-8.19
363.935	53.25
364.146	83.97
364.357	79.87
364.568	4.1
364.779	55.3
364.99	104.45
365.201	22.53
365.412	59.39
365.623	22.53
365.834	112.64
366.045	34.82
366.256	133.12
366.467	81.92
366.678	75.77
366.889	-34.82
367.1	18.43
367.311	137.21
367.522	83.97
367.733	110.59
367.944	57.34
368.155	-14.34
368.366	61.44
368.577	77.82
368.788	77.82
368.999	98.3
369.209	94.21
369.42	108.54
369.631	126.97
369.842	32.77
370.053	96.25
370.264	71.68
370.474	51.2
370.685	77.82
370.896	118.78
371.107	114.69
371.317	51.2
371.528	30.72
371.739	67.58
371.95	92.16
372.16	43.01
372.371	49.15
372.582	61.44
372.792	61.44
373.003	92.16
373.214	83.97
373.424	151.55
373.635	20.48
373.846	51.2
374.056	-28.67
374.267	102.4
374.477	67.58
374.688	75.77
374.898	104.45
375.109	36.86
375.319	67.58
375.53	96.25
375.74	143.36
375.951	-4.1
376.161	116.73
376.372	92.16
376.582	40.96
376.793	53.25
377.003	100.35
377.214	77.82
377.424	124.93
377.635	40.96
377.845	57.34
378.055	53.25
378.266	59.39
378.476	73.73
378.686	108.54
378.897	2.05
379.107	67.58
379.317	65.54
379.528	73.73
379.738	77.82
379.948	92.16
380.158	100.35
380.369	118.78
380.579	45.06
380.789	92.16
380.999	86.01
381.21	92.16
381.42	88.06
381.63	43.01
381.84	75.77
382.05	67.58
382.261	86.01
382.471	83.97
382.681	83.97
382.891	79.87
383.101	51.2
383.311	112.64
383.521	4.1
383.731	69.63
383.941	63.49
384.151	59.39
384.361	36.86
384.571	10.24
384.781	59.39
384.991	28.67
385.201	100.35
385.411	116.73
385.621	94.21
385.831	34.82
386.041	135.17
386.251	28.67
386.461	71.68
386.671	94.21
386.881	75.77
387.091	55.3
387.301	92.16
387.511	75.77
387.72	135.17
387.93	51.2
388.14	100.35
388.35	36.86
388.56	75.77
388.769	139.26
388.979	4.1
389.189	32.77
389.399	124.93
389.609	67.58
389.818	122.88
390.028	157.69
390.238	129.02
390.447	24.58
390.657	83.97
390.867	2.05
391.076	-22.53
391.286	69.63
391.496	32.77
391.705	47.1
391.915	94.21
392.125	124.93
392.334	139.26
392.544	129.02
392.753	157.69
392.963	14.34
393.172	112.64
393.382	40.96
393.591	135.17
393.801	-10.24
394.01	129.02
394.22	116.73
394.429	149.5
394.639	182.27
394.848	112.64
395.058	133.12
395.267	180.22
395.477	149.5
395.686	133.12
395.895	167.93
396.105	69.63
396.314	145.41
396.524	110.59
396.733	157.69
396.942	124.93
397.152	120.83
397.361	124.93
397.57	88.06
397.78	100.35
397.989	129.02
398.198	163.84
398.407	77.82
398.617	96.25
398.826	83.97
399.035	141.31
399.244	59.39
399.453	118.78
399.663	83.97
399.872	206.84
400.081	92.16
400.29	145.41
400.499	151.55
400.708	149.5
400.917	86.01
401.127	67.58
401.336	83.97
401.545	102.4
401.754	159.74
401.963	149.5
402.172	210.94
402.381	86.01
402.59	141.31
402.799	100.35
403.008	147.45
403.217	124.93
403.426	100.35
403.635	174.08
403.844	51.2
404.053	149.5
404.262	131.07
404.471	157.69
404.68	198.65
404.888	167.93
405.097	124.93
405.306	190.46
405.515	231.42
405.724	217.08
405.933	186.37
406.142	178.17
406.35	149.5
406.559	133.12
406.768	206.84
406.977	305.15
407.185	190.46
407.394	194.56
407.603	194.56
407.812	233.47
408.02	235.52
408.229	206.84
408.438	309.24
408.646	227.32
408.855	247.8
409.064	210.94
409.272	305.15
409.481	335.87
409.69	233.47
409.898	256
410.107	280.57
410.315	258.04
410.524	323.58
410.733	344.06
410.941	370.68
411.15	430.07
411.358	395.26
411.567	399.35
411.775	419.83
411.984	411.64
412.192	481.27
412.401	438.27
412.609	491.51
412.818	471.03
413.026	436.22
413.234	501.75
413.443	581.62
413.651	468.98
413.86	591.86
414.068	608.25
414.276	610.29
414.485	567.29
414.693	636.92
414.901	673.78
415.11	677.88
415.318	606.2
415.526	661.49
415.734	808.95
415.943	804.85
416.151	847.86
416.359	763.89
416.567	804.85
416.776	925.68
416.984	897.01
417.192	870.39
417.4	980.98
417.608	946.16
417.817	856.05
418.025	1042.42
418.233	1150.96
418.441	1075.18
418.649	1157.1
418.857	1185.77
419.065	1165.29
419.273	1177.58
419.481	1322.99
419.689	1370.09
419.897	1419.24
420.105	1484.78
420.313	1419.24
420.521	1509.35
420.729	1488.87
420.937	1585.13
421.145	1562.6
421.353	1720.29
421.561	1877.99
421.769	1847.27
421.977	1781.73
422.185	1837.03
422.393	2037.73
422.601	2023.39
422.809	2138.08
423.017	2078.69
423.224	2080.74
423.432	2334.68
423.64	2283.49
423.848	2418.65
424.056	2346.97
424.263	2627.54
424.471	2674.65
424.679	2598.87
424.887	2783.19
425.094	2846.68
425.302	3033.04
425.51	3114.96
425.718	3221.45
425.925	3231.69
426.133	3160.02
426.341	3481.55
426.548	3579.85
426.756	3477.45
426.964	3565.51
427.171	3725.26
427.379	3962.82
427.586	3909.57
427.794	4188.1
428.001	4417.47
428.209	4507.58
428.417	4556.73
428.624	4622.27
428.832	4796.34
429.039	4550.59
429.247	4609.98
429.454	5255.09
429.662	5466.03
429.869	5023.67
430.076	5582.76
430.284	5279.66
430.491	5654.44
430.699	5760.94
430.906	5746.6
431.114	6064.04
431.321	6076.32
431.528	6451.1
431.736	6608.8
431.943	6932.37
432.15	6588.32
432.358	6926.23
432.565	7219.09
432.772	7071.64
432.979	7696.27
433.187	7702.41
433.394	7788.43
433.601	8245.12
433.808	8310.66
434.016	8103.81
434.223	8652.67
434.43	9209.72
434.637	8763.26
434.844	9504.62
435.052	9564.01
435.259	9572.21
435.466	9594.73
435.673	9430.9
435.88	10121.06
436.087	10727.26
436.294	10575.71
436.501	10571.61
436.708	10606.43
436.915	10872.67
437.122	11628.37
437.329	11386.71
437.537	11892.55
437.743	12123.97
437.95	12197.7
438.157	12562.24
438.364	13158.2
438.571	12986.17
438.778	12969.79
438.985	14137.13
439.192	13678.38
439.399	14173.99
439.606	13813.55
439.813	14526.24
440.02	15408.92
440.227	15226.65
440.433	15025.95
440.64	15288.09
440.847	15222.55
441.054	15847.18
441.261	16822.02
441.467	16557.83
441.674	16867.07
441.881	17571.57
442.088	17575.67
442.294	17508.08
442.501	17671.92
442.708	18233.07
442.914	18640.61
443.121	19420.89
443.328	19031.77
443.534	20467.4
443.741	19836.63
443.948	19633.88
444.154	20838.08
444.361	20752.07
444.568	20930.24
444.774	21061.31
444.981	21122.75
445.187	21606.07
445.394	22541.99
445.6	22603.43
445.807	24563.34
446.013	23393.95
446.22	23934.61
446.426	24987.27
446.633	25030.27
446.839	25800.31
447.046	24737.41
447.252	26246.77
447.459	26236.53
447.665	26105.46
447.871	27272.8
448.078	28683.85
448.284	27111.01
448.491	27700.83
448.697	28952.13
448.903	29785.66
449.11	29754.94
449.316	29519.42
449.522	29589.05
449.728	30623.28
449.935	30692.91
450.141	30613.04
450.347	31243.81
450.553	30512.69
450.76	30975.53
450.966	31878.68
451.172	31491.62
451.378	32534.03
451.584	31821.34
451.791	32572.94
451.997	32677.39
452.203	32964.11
452.409	32704.01
452.615	32599.57
452.821	31880.73
453.027	31378.98
453.233	33177.09
453.44	31933.98
453.646	31843.87
453.852	32161.3
454.058	32812.56
454.264	32042.52
454.47	32458.26
454.676	31462.94
454.882	32476.69
455.088	29933.11
455.294	30348.85
455.5	31284.77
455.705	31600.16
455.911	29759.03
456.117	29597.24
456.323	29048.39
456.529	27598.43
456.735	28642.89
456.941	28042.84
457.147	27895.38
457.352	26814.05
457.558	26596.97
457.764	26754.66
457.97	26343.02
458.176	25687.67
458.381	25638.52
458.587	24569.48
458.793	24288.91
458.999	23002.78
459.204	24886.92
459.41	24082.06
459.616	22539.94
459.821	22744.74
460.027	22462.12
460.233	22163.12
460.438	21073.6
460.644	21173.95
460.85	20178.64
461.055	20061.9
461.261	20063.95
461.466	18820.83
461.672	17934.06
461.878	19173.08
462.083	17917.68
462.289	17495.8
462.494	17245.94
462.7	16680.71
462.905	16176.91
463.111	16822.02
463.316	16781.06
463.522	16221.96
463.727	16287.5
463.932	16721.66
464.138	16328.45
464.343	16238.34
464.549	15789.84
464.754	16461.57
464.959	16084.75
465.165	16090.89
465.37	15470.36
465.575	14778.14
465.781	15628.05
465.986	15816.46
466.191	15283.99
466.397	14632.74
466.602	14071.59
466.807	14700.32
467.012	14737.18
467.218	14532.39
467.423	14137.13
467.628	14360.36
467.833	14982.94
468.038	14552.87
468.244	13987.63
468.449	14724.9
468.654	14217
468.859	14108.46
469.064	14079.79
469.269	13375.28
469.474	13670.19
469.679	13780.78
469.885	13489.97
470.09	13500.21
470.295	13498.16
470.5	13115.19
470.705	13340.47
470.91	13055.8
471.115	12894.01
471.32	13023.03
471.525	12773.18
471.73	12732.22
471.935	12541.76
472.139	12209.99
472.344	12310.34
472.549	12228.42
472.754	11984.71
472.959	11890.51
473.164	11609.93
473.369	11464.53
473.574	12105.54
473.778	11634.51
473.983	11636.56
474.188	11521.87
474.393	10970.97
474.598	11149.14
474.802	10866.52
475.007	11110.23
475.212	11013.98
475.417	10594.14
475.621	10794.84
475.826	10581.85
476.031	10303.33
476.235	10432.35
476.44	10424.16
476.645	9992.04
476.849	10329.95
477.054	10004.33
477.259	10069.86
477.463	9846.63
477.668	9613.17
477.872	9781.1
478.077	9391.98
478.282	9492.34
478.486	9279.35
478.691	9295.73
478.895	9267.06
479.1	9113.46
479.304	9434.99
479.509	8966.01
479.713	9179
479.918	8732.54
480.122	8859.51
480.326	8783.74
480.531	8877.94
480.735	8738.68
480.94	8730.49
481.144	8947.58
481.348	8501.12
481.553	8732.54
481.757	8546.17
481.961	8312.71
482.166	8755.07
482.37	8634.24
482.574	8333.18
482.778	8341.38
482.983	8775.55
483.187	8460.16
483.391	8720.25
483.595	8488.83
483.8	8294.27
484.004	8519.55
484.208	8605.56
484.412	8517.5
484.616	8404.86
484.821	8593.28
485.025	8288.13
485.229	8454.01
485.433	8181.64
485.637	8376.19
485.841	8382.34
486.045	8466.3
486.249	8447.87
486.453	8435.58
486.657	8263.55
486.861	8372.1
487.065	8140.68
487.269	8406.91
487.473	8337.28
487.677	8351.62
487.881	8556.41
488.085	8195.97
488.289	8580.99
488.493	8345.47
488.697	8630.14
488.901	8529.79
489.105	8617.85
489.309	8556.41
489.512	8431.49
489.716	8501.12
489.92	8425.34
490.124	8408.96
490.328	8714.11
490.531	8683.39
490.735	8732.54
490.939	8683.39
491.143	8521.6
491.346	8710.01
491.55	8861.56
491.754	8980.34
491.958	8955.77
492.161	8933.24
492.365	8744.83
492.569	8851.32
492.772	8808.31
492.976	9006.97
493.18	8902.52
493.383	9164.66
493.587	9160.56
493.79	9246.58
493.994	9148.28
494.197	9185.14
494.401	9478
494.605	9226.1
494.808	9574.25
495.012	9430.9
495.215	9617.26
495.419	9492.34
495.622	9506.67
495.825	9670.51
496.029	9643.88
496.232	9928.55
496.436	9951.08
496.639	10209.12
496.843	10241.89
497.046	10309.47
497.249	10336.1
497.453	10467.17
497.656	10364.77
497.859	10631.01
498.063	10567.52
498.266	10956.63
498.469	10866.52
498.673	10905.43
498.876	11153.24
499.079	11200.34
499.282	11321.17
499.485	11626.32
499.689	11620.17
499.892	11556.69
500.095	11882.31
500.298	11741
500.501	11874.12
500.705	12334.92
500.908	12484.42
501.111	12676.93
501.314	12554.05
501.517	12699.45
501.72	12789.56
501.923	12769.09
502.126	13016.89
502.329	13289.27
502.532	13496.11
502.735	13506.35
502.938	13891.37
503.141	13563.7
503.344	13936.43
503.547	13987.63
503.75	14057.26
503.953	14460.71
504.156	14485.28
504.359	14642.98
504.562	14927.64
504.765	15099.67
504.968	14925.6
505.17	15359.77
505.373	15345.43
505.576	15453.97
505.779	15949.58
505.982	16101.13
506.185	16269.06
506.387	16480
506.59	16682.75
506.793	16830.21
506.996	16570.12
507.198	17127.16
507.401	17168.12
507.604	17454.84
507.807	17434.36
508.009	17581.81
508.212	17800.94
508.415	17995.5
508.617	18386.66
508.82	18241.26
509.022	18362.09
509.225	18806.5
509.428	19060.45
509.63	19269.34
509.833	18974.43
510.035	19537.62
510.238	19640.02
510.44	19764.95
510.643	20211.4
510.845	20278.99
511.048	20086.48
511.25	20436.68
511.453	20735.68
511.655	21481.14
511.858	21178.04
512.06	21198.52
512.262	21520.06
512.465	21571.25
512.667	21984.94
512.87	22210.22
513.072	22245.04
513.274	22666.92
513.477	22695.59
513.679	23127.71
513.881	23035.55
514.084	23637.66
514.286	23135.9
514.488	23400.09
514.69	24348.3
514.893	24139.41
515.095	24254.09
515.297	24743.56
515.499	24602.25
515.701	25151.1
515.904	25376.38
516.106	25728.63
516.308	25667.19
516.51	25822.84
516.712	26246.77
516.914	26429.04
517.116	26799.72
517.318	26537.58
517.52	27053.67
517.722	27012.71
517.925	27319.9
518.127	27500.12
518.329	27913.81
518.531	27854.42
518.733	28132.95
518.935	28606.03
519.136	28710.47
519.338	28687.95
519.54	29371.97
519.742	29175.36
519.944	29199.94
520.146	30033.46
520.348	29820.47
520.55	30340.66
520.752	30481.97
520.954	30860.84
521.155	30590.51
521.357	31122.98
521.559	31557.15
521.761	31907.35
521.963	31741.47
522.164	31968.79
522.366	32142.87
522.568	32181.78
522.77	32388.63
522.971	32964.11
523.173	32480.78
523.375	32953.87
523.576	32939.53
523.778	33164.81
523.98	33867.26
524.181	34172.41
524.383	33986.04
524.584	34057.72
524.786	34280.95
524.988	33893.88
525.189	34604.53
525.391	34463.22
525.592	35053.03
525.794	35175.91
525.995	34846.19
526.197	35204.58
526.398	34981.35
526.6	35663.33
526.801	35843.55
527.003	35569.12
527.204	35872.22
527.406	36525.52
527.607	35972.57
527.808	36253.14
528.01	35857.88
528.211	36371.93
528.412	36619.73
528.614	36519.38
528.815	36380.12
529.016	37094.86
529.218	36783.57
529.419	36842.96
529.62	37025.23
529.822	37281.22
530.023	37270.98
530.224	37393.86
530.425	37154.25
530.626	37111.24
530.828	36953.55
531.029	37588.42
531.23	37115.34
531.431	37404.1
531.632	37561.79
531.833	37703.1
532.035	37529.03
532.236	37643.71
532.437	37371.33
532.638	37486.02
532.839	37551.56
533.04	37850.56
533.241	37481.92
533.442	37883.33
533.643	37918.14
533.844	37608.9
534.045	38073.79
534.246	37514.69
534.447	38163.9
534.648	37590.47
534.849	37885.37
535.05	37768.64
535.251	37944.76
535.451	37797.31
535.652	37993.92
535.853	37756.35
536.054	37813.69
536.255	38053.31
536.456	37559.75
536.657	38581.68
536.857	38102.46
537.058	37821.89
537.259	37873.09
537.46	38016.44
537.66	37998.01
537.861	38262.2
538.062	37832.13
538.263	38032.83
538.463	37678.53
538.664	37815.74
538.865	37955
539.065	37969.34
539.266	37467.59
539.466	38110.65
539.667	37172.68
539.868	37944.76
540.068	37625.28
540.269	38067.64
540.469	38213.05
540.67	37379.53
540.87	38081.98
541.071	37875.13
541.271	37627.33
541.472	37287.37
541.672	37785.02
541.873	37338.57
542.073	37105.1
542.274	37866.94
542.474	37461.44
542.675	37416.39
542.875	37703.1
543.075	37496.26
543.276	37463.49
543.476	37811.65
543.676	37332.42
543.877	37989.82
544.077	37801.41
544.277	37686.72
544.478	37551.56
544.678	37553.6
544.878	37281.22
545.078	37576.13
545.279	37254.6
545.479	37357
545.679	37760.45
545.879	37377.48
546.079	37721.54
546.28	37475.78
546.48	36742.61
546.68	37234.12
546.88	37492.16
547.08	37182.92
547.28	37422.53
547.48	37295.56
547.68	37483.97
547.88	37238.22
548.081	37242.31
548.281	37277.13
548.481	37340.61
548.681	37205.45
548.881	37105.1
549.081	37404.1
549.28	36998.6
549.48	37285.32
549.68	37295.56
549.88	37819.84
550.08	36928.97
550.28	37023.18
550.48	37256.65
550.68	37113.29
550.88	37094.86
551.08	37129.67
551.279	37223.88
551.479	36750.8
551.679	37307.85
551.879	36908.49
552.079	36984.27
552.278	37084.62
552.478	36802
552.678	37033.42
552.878	37088.71
553.077	36963.79
553.277	36615.63
553.477	37076.43
553.676	36603.35
553.876	36881.87
554.076	36685.26
554.275	37062.09
554.475	37006.8
554.674	36799.95
554.874	36740.56
555.074	36707.79
555.273	36900.3
555.473	36603.35
555.672	36582.87
555.872	36459.99
556.071	36808.14
556.271	36842.96
556.47	36240.86
556.67	35872.22
556.869	36593.11
557.068	36400.6
557.268	36169.18
557.467	36535.76
557.667	36412.88
557.866	36560.34
558.065	36195.8
558.265	35823.07
558.464	35550.69
558.663	36077.02
558.863	35573.22
559.062	36488.66
559.261	35896.8
559.461	36439.51
559.66	35331.56
559.859	35667.42
560.058	35892.7
560.258	35565.03
560.457	36107.74
560.656	35751.39
560.855	35245.54
561.054	35425.76
561.253	35376.61
561.453	35581.41
561.652	35515.87
561.851	35579.36
562.05	35259.88
562.249	34870.76
562.448	35376.61
562.647	35495.39
562.846	35192.29
563.045	35218.92
563.244	34313.72
563.443	35390.95
563.642	34452.98
563.841	34659.82
564.04	34549.23
564.239	34848.24
564.438	34463.22
564.637	34586.1
564.836	34782.7
565.035	34102.78
565.234	34487.79
565.432	34401.78
565.631	34051.58
565.83	34203.13
566.029	34295.28
566.228	34076.15
566.427	33857.02
566.625	34024.95
566.824	33701.37
567.023	34149.88
567.222	33484.29
567.42	34041.34
567.619	33445.38
567.818	33541.63
568.016	33101.32
568.215	33668.61
568.414	33416.71
568.612	33922.55
568.811	33527.3
569.01	33431.04
569.208	33023.5
569.407	33152.52
569.605	32947.72
569.804	33232.39
570.002	32644.62
570.201	32857.61
570.4	32241.17
570.598	32235.03
570.797	32321.04
570.995	32966.15
571.193	32204.31
571.392	32534.03
571.59	32386.58
571.789	32456.21
571.987	31786.52
572.186	32081.43
572.384	31800.86
572.582	31694.36
572.781	31884.83
572.979	31434.27
573.177	31581.73
573.376	31591.97
573.574	31411.74
573.772	31864.35
573.971	31143.46
574.169	30887.46
574.367	31006.25
574.565	31354.4
574.763	31043.11
574.962	31098.41
575.16	30744.11
575.358	31022.63
575.556	30840.36
575.754	30926.38
575.952	30381.62
576.151	30424.62
576.349	30324.27
576.547	30252.59
576.745	30139.96
576.943	30484.01
577.141	30654
577.339	30260.79
577.537	30182.96
577.735	29969.97
577.933	29873.72
578.131	29965.88
578.329	29644.35
578.527	29195.84
578.725	29871.67
578.923	29670.97
579.121	29664.83
579.319	29507.13
579.516	29568.57
579.714	29601.34
579.912	29111.88
580.11	29152.84
580.308	29328.96
580.506	29025.86
580.704	28556.88
580.901	28950.09
581.099	29001.29
581.297	28642.89
581.495	28653.13
581.692	28565.07
581.89	28266.06
582.088	28964.42
582.285	28495.44
582.483	28550.73
582.681	28284.5
582.878	28354.13
583.076	28233.3
583.274	28155.47
583.471	27690.59
583.669	27788.89
583.866	27719.26
584.064	27866.71
584.262	27496.03
584.459	27958.87
584.657	27674.2
584.854	27860.57
585.052	27305.57
585.249	27606.62
585.447	27635.29
585.644	27025
585.841	27244.13
586.039	27418.21
586.236	26965.6
586.434	26883.69
586.631	26508.91
586.828	26801.77
587.026	27025
587.223	26609.26
587.42	26357.36
587.618	26500.72
587.815	26066.55
588.012	26371.69
588.21	26320.49
588.407	26404.46
588.604	26281.58
588.801	25867.89
588.999	26275.44
589.196	26060.4
589.393	25740.92
589.59	25714.3
589.787	25556.6
589.984	25409.15
590.182	25112.19
590.379	25538.17
590.576	25093.76
590.773	25441.92
590.97	25257.6
591.167	25419.39
591.364	25026.18
591.561	24999.55
591.758	24733.32
591.955	24809.09
592.152	25140.86
592.349	24882.82
592.546	24989.31
592.743	25017.99
592.94	24280.72
593.137	24456.84
593.334	24718.98
593.531	24395.4
593.727	24532.62
593.924	24673.93
594.121	24200.85
594.318	24553.1
594.515	23840.4
594.712	24250
594.908	23928.47
595.105	23985.81
595.302	23733.91
595.499	23842.45
595.696	23512.73
595.892	23459.48
596.089	23608.98
596.286	23484.06
596.482	23250.59
596.679	23385.76
596.876	23281.31
597.072	23289.5
597.269	23461.53
597.466	22943.39
597.662	23193.25
597.859	22992.55
598.055	22984.35
598.252	22984.35
598.448	22793.89
598.645	22632.1
598.841	22490.79
599.038	22791.84
599.234	22458.03
599.431	22070.96
599.627	22197.93
599.824	22161.07
600.02	22075.06
600.217	22165.17
600.413	22206.13
600.609	21888.69
600.806	21790.39
601.002	22017.71
601.198	21919.41
601.395	21761.72
601.591	21440.18
601.787	21388.99
601.984	21305.02
602.18	21542.58
602.376	21413.56
602.572	21214.91
602.769	21259.96
602.965	20782.79
603.161	21356.22
603.357	20825.79
603.553	20920
603.75	21036.73
603.946	20766.4
604.142	20969.15
604.338	20711.11
604.534	20397.77
604.73	20336.33
604.926	20379.34
605.122	20547.27
605.318	20567.75
605.514	20541.13
605.71	20289.23
605.906	20348.62
606.102	20379.34
606.298	20285.13
606.494	20182.73
606.69	20330.19
606.886	20319.95
607.082	19535.57
607.278	19945.17
607.474	19635.92
607.67	19930.83
607.866	19807.95
608.062	19787.47
608.257	19543.77
608.453	19797.71
608.649	19433.18
608.845	19654.36
609.041	19252.95
609.236	19564.25
609.432	19373.78
609.628	19504.85
609.824	19394.26
610.019	19279.58
610.215	19189.47
610.411	19541.72
610.606	18933.47
610.802	19044.06
610.998	19117.79
611.193	19365.59
611.389	18925.28
611.584	19091.16
611.78	18992.86
611.976	18941.66
612.171	18953.95
612.367	19078.88
612.562	18814.69
612.758	18538.21
612.953	18605.8
613.149	18890.46
613.344	18329.32
613.539	18853.6
613.735	18515.69
613.93	18882.27
614.126	18290.41
614.321	18548.45
614.517	18374.38
614.712	18308.84
614.907	18163.43
615.103	18382.57
615.298	18220.78
615.493	18312.94
615.688	17962.73
615.884	18159.34
616.079	17975.02
616.274	18308.84
616.47	18149.1
616.665	17876.72
616.86	17755.89
617.055	17823.47
617.25	17913.58
617.445	17958.64
617.641	17585.91
617.836	17671.92
618.031	17506.04
618.226	17905.39
618.421	17721.07
618.616	17874.67
618.811	17219.32
619.006	17630.96
619.201	17336.06
619.396	17293.05
619.591	16979.71
619.786	17348.34
619.981	17092.35
620.176	17190.65
620.371	17172.22
620.566	16953.09
620.761	16944.89
620.956	16844.54
621.151	16533.25
621.346	16895.74
621.541	16500.48
621.735	16914.17
621.93	16305.93
622.125	16441.09
622.32	16074.51
622.515	16342.79
622.709	16099.08
622.904	15984.4
623.099	15828.75
623.294	15902.48
623.488	15652.63
623.683	15619.86
623.878	15566.61
624.072	15574.8
624.267	15355.67
624.462	15441.68
624.656	15230.74
624.851	15290.13
625.046	15021.85
625.24	15054.62
625.435	15025.95
625.629	14810.91
625.824	14864.16
626.018	14923.55
626.213	14296.87
626.407	14528.29
626.602	14419.75
626.796	14309.16
626.991	14313.25
627.185	14186.28
627.38	13956.91
627.574	14249.77
627.768	13850.41
627.963	13840.17
628.157	13737.77
628.352	13903.66
628.546	13463.35
628.74	13731.63
628.935	13563.7
629.129	13569.84
629.323	13309.75
629.517	13307.7
629.712	13203.25
629.906	13332.28
630.1	12984.12
630.294	13227.83
630.489	12947.26
630.683	13012.79
630.877	12789.56
631.071	12703.55
631.265	12937.02
631.459	12623.68
631.653	12560.19
631.848	12660.54
632.042	12289.86
632.236	12656.45
632.43	12326.72
632.624	12289.86
632.818	12398.4
633.012	12134.21
633.206	11953.99
633.4	12101.45
633.594	11994.95
633.788	11966.28
633.982	11980.62
634.176	11863.88
634.369	11872.07
634.563	11867.98
634.757	11509.58
634.951	11587.41
635.145	11579.22
635.339	11669.33
635.533	11532.11
635.726	11448.15
635.92	11112.28
636.114	11317.08
636.308	11097.94
636.501	11145.05
636.695	11128.66
636.889	10897.24
637.083	10774.36
637.276	10803.04
637.47	10835.8
637.664	10643.29
637.857	10655.58
638.051	10649.44
638.244	10708.83
638.438	10569.57
638.632	10395.49
638.825	10254.18
639.019	10301.28
639.212	10358.63
639.406	10262.37
639.599	10135.4
639.793	10327.91
639.986	10200.93
640.18	10200.93
640.373	9971.56
640.567	9865.07
640.76	9889.64
640.954	9848.68
641.147	9807.72
641.34	9803.63
641.534	9736.04
641.727	9580.4
641.92	9426.8
642.114	9553.77
642.307	9447.28
642.5	9463.66
642.694	9359.22
642.887	9492.34
643.08	9154.42
643.273	9125.75
643.467	9234.29
643.66	9049.97
643.853	8945.53
644.046	8824.7
644.239	9062.26
644.432	8777.59
644.626	8847.22
644.819	8804.22
645.012	8869.75
645.205	8628.09
645.398	8720.25
645.591	8451.97
645.784	8712.06
645.977	8527.74
646.17	8570.75
646.363	8660.86
646.556	8349.57
646.749	8415.1
646.942	8650.62
647.135	8181.64
647.328	8126.34
647.521	8171.4
647.714	8152.96
647.907	8214.4
648.099	7993.22
648.292	8091.52
648.485	7892.87
648.678	7999.37
648.871	7866.25
649.064	7776.14
649.256	7843.72
649.449	7843.72
649.642	7745.42
649.835	7638.92
650.027	7569.29
650.22	7557
650.413	7640.97
650.605	7606.16
650.798	7448.46
650.991	7540.62
651.183	7393.17
651.376	7147.41
651.568	7509.9
651.761	7530.38
651.954	7194.51
652.146	7139.22
652.339	7104.4
652.531	7202.71
652.724	7137.17
652.916	6971.29
653.109	7088.02
653.301	6940.57
653.494	7042.96
653.686	6971.29
653.879	6934.42
654.071	6840.22
654.263	6858.65
654.456	6975.38
654.648	6948.76
654.84	6784.92
655.033	6725.53
655.225	6649.75
655.417	6698.91
655.61	6461.34
655.802	6596.51
655.994	6516.64
656.186	6432.67
656.379	6272.93
656.571	6391.71
656.763	6234.02
656.955	6375.33
657.148	6317.98
657.34	6393.76
657.532	6211.49
657.724	6195.11
657.916	6168.48
658.108	6029.22
658.3	6100.9
658.492	6123.43
658.684	5949.35
658.876	5988.26
659.068	5955.49
659.26	5988.26
659.452	5851.05
659.644	5887.91
659.836	5842.85
660.028	5824.42
660.22	5656.49
660.412	5883.81
660.604	5474.22
660.796	5652.39
660.988	5629.87
661.18	5621.67
661.372	5494.7
661.563	5556.14
661.755	5568.43
661.947	5509.04
662.139	5351.34
662.331	5490.6
662.522	5332.91
662.714	5367.73
662.906	5445.55
663.097	5253.04
663.289	5359.53
663.481	5326.77
663.673	5195.7
663.864	5126.07
664.056	5124.02
664.247	5171.12
664.439	5154.74
664.631	5091.25
664.822	5058.48
665.014	5015.48
665.205	5052.34
665.397	5056.43
665.588	4943.8
665.78	4949.94
665.971	4990.9
666.163	4782.01
666.354	4988.85
666.546	4908.98
666.737	4794.29
666.929	4820.92
667.12	4831.16
667.311	4761.53
667.503	4722.62
667.694	4863.93
667.885	4763.58
668.077	4736.95
668.268	4583.35
668.459	4626.36
668.651	4583.35
668.842	4753.34
669.033	4386.75
669.224	4431.8
669.416	4722.62
669.607	4425.66
669.798	4472.76
669.989	4571.07
670.18	4425.66
670.371	4429.76
670.563	4433.85
670.754	4409.28
670.945	4329.41
671.136	4392.89
671.327	4104.13
671.518	4304.83
671.709	4229.06
671.9	4427.71
672.091	4208.58
672.282	4091.84
672.473	4229.06
672.664	4079.55
672.855	4102.08
673.046	4065.22
673.237	3985.35
673.428	4067.27
673.619	3938.24
673.809	4065.22
674	4054.98
674.191	4038.59
674.382	3903.43
674.573	3942.34
674.764	3893.19
674.954	3971.01
675.145	3936.2
675.336	3966.92
675.527	3925.96
675.717	3831.75
675.908	3704.78
676.099	3846.09
676.289	3958.72
676.48	3766.21
676.671	3735.49
676.861	3846.09
677.052	3796.93
677.243	3659.72
677.433	3678.15
677.624	3835.85
677.814	3758.02
678.005	3635.14
678.195	3696.58
678.386	3780.55
678.576	3776.45
678.767	3743.69
678.957	3651.53
679.148	3704.78
679.338	3588.04
679.529	3663.82
679.719	3559.37
679.909	3557.32
680.1	3667.91
680.29	3594.19
680.481	3561.42
680.671	3549.13
680.861	3547.08
681.052	3483.59
681.242	3516.36
681.432	3461.07
681.622	3655.62
681.813	3493.83
682.003	3491.79
682.193	3362.76
682.383	3405.77
682.573	3430.35
682.764	3434.44
682.954	3504.07
683.144	3289.04
683.334	3366.86
683.524	3420.11
683.714	3393.48
683.904	3352.52
684.094	3420.11
684.284	3393.48
684.474	3319.76
684.664	3262.41
684.854	3264.46
685.044	3221.45
685.234	3168.21
685.424	3213.26
685.614	3147.73
685.804	3209.17
685.994	3266.51
686.184	3309.52
686.374	3139.54
686.564	3198.93
686.753	3213.26
686.943	3114.96
687.133	3098.58
687.323	3012.56
687.513	3149.78
687.702	3041.23
687.892	2994.13
688.082	3100.62
688.272	3016.66
688.461	3000.27
688.651	3174.35
688.841	3063.76
689.03	3098.58
689.22	3059.67
689.41	3086.29
689.599	3022.8
689.789	2861.01
689.979	2967.51
690.168	2969.55
690.358	2899.92
690.547	2766.81
690.737	2871.25
690.926	2883.54
691.116	2852.82
691.305	2944.98
691.495	2871.25
691.684	2779.09
691.874	2766.81
692.063	2852.82
692.252	2910.16
692.442	2877.4
692.631	2828.24
692.82	2740.18
693.01	2648.02
693.199	2740.18
693.388	2586.58
693.578	2754.52
693.767	2693.08
693.956	2576.34
694.146	2549.72
694.335	2656.22
694.524	2729.94
694.713	2566.1
694.902	2639.83
695.092	2680.79
695.281	2594.78
695.47	2588.63
695.659	2623.45
695.848	2582.49
696.037	2664.41
696.226	2541.53
696.415	2512.86
696.604	2516.95
696.793	2533.34
696.982	2551.77
697.171	2508.76
697.36	2533.34
697.549	2432.99
697.738	2484.19
697.927	2516.95
698.116	2451.42
698.305	2349.02
698.494	2402.27
698.683	2533.34
698.872	2519
699.061	2324.44
699.25	2435.03
699.438	2379.74
699.627	2371.55
699.816	2414.56
700.005	2324.44
700.193	2392.03
700.382	2385.88
700.571	2312.16
700.76	2355.16
700.948	2459.61
701.137	2308.06
701.326	2394.08
701.514	2263.01
701.703	2455.51
701.892	2426.84
702.08	2424.8
702.269	2412.51
702.457	2310.11
702.646	2389.98
702.834	2340.83
703.023	2242.53
703.212	2383.84
703.4	2424.8
703.589	2193.37
703.777	2176.99
703.965	2287.58
704.154	2279.39
704.342	2191.33
704.531	2191.33
704.719	2207.71
704.907	2271.2
705.096	2181.09
705.284	2363.36
705.472	2330.59
705.661	2183.13
705.849	2349.02
706.037	2291.68
706.226	2176.99
706.414	2205.66
706.602	2146.27
706.79	2226.14
706.979	2205.66
707.167	2336.73
707.355	2244.57
707.543	2162.65
707.731	2209.76
707.919	2242.53
708.107	2271.2
708.296	2197.47
708.484	2119.65
708.672	2263.01
708.86	2263.01
709.048	2263.01
709.236	2232.29
709.424	2207.71
709.612	2256.86
709.8	2099.17
709.988	2211.81
710.176	2172.89
710.364	2185.18
710.551	2185.18
710.739	2213.85
710.927	2187.23
711.115	2220
711.303	2121.7
711.491	2115.55
711.679	2213.85
711.866	2258.91
712.054	2287.58
712.242	2234.33
712.43	2172.89
712.617	2148.32
712.805	2074.59
712.993	2238.43
713.181	2101.22
713.368	2213.85
713.556	2181.09
713.744	2191.33
713.931	2183.13
714.119	2168.8
714.306	2283.49
714.494	2140.13
714.682	2093.02
714.869	2140.13
715.057	2035.68
715.244	2082.78
715.432	2179.04
715.619	2115.55
715.807	2168.8
715.994	2179.04
716.182	2160.61
716.369	2148.32
716.556	2187.23
716.744	2187.23
716.931	2099.17
717.119	2240.48
717.306	2107.36
717.493	2207.71
717.681	2156.51
717.868	2215.9
718.055	2226.14
718.242	2172.89
718.43	2181.09
718.617	2207.71
718.804	2170.85
718.991	2176.99
719.179	2164.7
719.366	2064.35
719.553	2076.64
719.74	2133.98
719.927	2174.94
720.114	2068.45
720.301	2082.78
720.488	2035.68
720.676	1992.67
720.863	2123.74
721.05	2162.65
721.237	2172.89
721.424	1988.58
721.611	2185.18
721.798	1951.71
721.985	2082.78
722.172	2142.18
722.358	2158.56
722.545	2148.32
722.732	2189.28
722.919	2115.55
723.106	2068.45
723.293	2179.04
723.48	2199.52
723.667	2150.37
723.853	2172.89
724.04	2115.55
724.227	2117.6
724.414	2160.61
724.6	2058.21
724.787	2166.75
724.974	2240.48
725.161	2068.45
725.347	2064.35
725.534	2090.98
725.72	2090.98
725.907	2123.74
726.094	2152.42
726.28	2176.99
726.467	2195.42
726.653	2029.54
726.84	2197.47
727.027	2125.79
727.213	2066.4
727.4	2144.22
727.586	2058.21
727.773	1990.63
727.959	2109.41
728.145	2119.65
728.332	2148.32
728.518	2115.55
728.705	2191.33
728.891	2078.69
729.077	2158.56
729.264	2025.44
729.45	2099.17
729.636	2101.22
729.823	2084.83
730.009	2131.94
730.195	2133.98
730.382	2107.36
730.568	2097.12
730.754	2250.72
730.94	2127.84
731.126	2181.09
731.313	2160.61
731.499	2033.63
731.685	2131.94
731.871	2080.74
732.057	2097.12
732.243	2193.37
732.429	2078.69
732.615	2191.33
732.801	2115.55
732.987	2082.78
733.173	2074.59
733.359	2101.22
733.545	2068.45
733.731	2131.94
733.917	2045.92
734.103	2066.4
734.289	2140.13
734.475	2050.02
734.661	2123.74
734.847	2099.17
735.033	2166.75
735.219	2066.4
735.404	2060.26
735.59	2029.54
735.776	2052.06
735.962	2017.25
736.148	2035.68
736.333	2187.23
736.519	2035.68
736.705	2017.25
736.89	2125.79
737.076	2007.01
737.262	2035.68
737.447	1957.86
737.633	2090.98
737.819	2027.49
738.004	2013.15
738.19	2002.91
738.375	2039.78
738.561	2076.64
738.747	2080.74
738.932	1978.34
739.118	2029.54
739.303	2004.96
739.489	2050.02
739.674	1888.23
739.859	1964
740.045	1904.61
740.23	1980.39
740.416	1906.66
740.601	1980.39
740.786	1951.71
740.972	1978.34
741.157	1839.08
741.342	1990.63
741.528	1894.37
741.713	1935.33
741.898	1935.33
742.084	1949.67
742.269	1873.89
742.454	1935.33
742.639	2027.49
742.824	1763.3
743.01	1910.75
743.195	1888.23
743.38	1843.17
743.565	1826.79
743.75	1900.52
743.935	1773.54
744.12	1877.99
744.305	1830.88
744.49	1918.95
744.675	1976.29
744.86	1716.2
745.045	1781.73
745.23	1769.44
745.415	1841.12
745.6	1830.88
745.785	1681.38
745.97	1757.16
746.155	1734.63
746.34	1746.92
746.525	1828.84
746.71	1753.06
746.895	1712.1
747.079	1757.16
747.264	1695.72
747.449	1748.97
747.634	1716.2
747.819	1667.05
748.003	1644.52
748.188	1656.81
748.373	1660.9
748.557	1640.42
748.742	1609.7
748.927	1640.42
749.111	1681.38
749.296	1632.23
749.481	1611.75
749.665	1599.46
749.85	1611.75
750.034	1554.41
750.219	1492.97
750.404	1523.69
750.588	1488.87
750.773	1556.46
750.957	1607.66
751.141	1599.46
751.326	1576.94
751.51	1396.71
751.695	1419.24
751.879	1583.08
752.064	1607.66
752.248	1468.39
752.432	1460.2
752.617	1476.59
752.801	1406.95
752.985	1398.76
753.17	1468.39
753.354	1437.67
753.538	1492.97
753.722	1415.15
753.907	1396.71
754.091	1380.33
754.275	1353.71
754.459	1290.22
754.643	1325.04
754.828	1325.04
755.012	1312.75
755.196	1265.64
755.38	1341.42
755.564	1206.25
755.748	1243.12
755.932	1247.21
756.116	1298.41
756.3	1322.99
756.484	1277.93
756.668	1220.59
756.852	1189.87
757.036	1312.75
757.22	1191.92
757.404	1134.57
757.588	1214.45
757.772	1148.91
757.956	1239.02
758.14	1214.45
758.323	1042.42
758.507	1132.53
758.691	1171.44
758.875	1173.49
759.059	1226.73
759.242	1118.19
759.426	1198.06
759.61	1173.49
759.794	1110
759.977	1167.34
760.161	1110
760.345	1099.76
760.528	1114.1
760.712	1173.49
760.895	1153.01
761.079	1130.48
761.263	1099.76
761.446	1085.42
761.63	1144.81
761.813	1081.33
761.997	1073.14
762.18	1101.81
762.364	1050.61
762.547	946.16
762.731	1132.53
762.914	1030.13
763.098	987.12
763.281	937.97
763.464	931.83
763.648	1017.84
763.831	1083.38
764.015	1079.28
764.198	927.73
764.381	1118.19
764.564	995.31
764.748	929.78
764.931	1046.51
765.114	952.31
765.297	978.93
765.481	978.93
765.664	935.92
765.847	989.17
766.03	985.07
766.213	960.5
766.397	944.11
766.58	897.01
766.763	983.03
766.946	985.07
767.129	942.07
767.312	923.63
767.495	978.93
767.678	798.71
767.861	915.44
768.044	935.92
768.227	905.2
768.41	909.3
768.593	882.67
768.776	923.63
768.959	960.5
769.142	915.44
769.324	931.83
769.507	845.81
769.69	827.38
769.873	776.18
770.056	911.35
770.239	888.82
770.421	872.43
770.604	815.09
770.787	835.57
770.97	841.72
771.152	821.24
771.335	862.19
771.518	894.96
771.7	833.52
771.883	874.48
772.066	800.76
772.248	806.9
772.431	899.06
772.613	808.95
772.796	774.13
772.978	817.14
773.161	817.14
773.343	776.18
773.526	751.6
773.708	815.09
773.891	743.41
774.073	796.66
774.256	735.22
774.438	763.89
774.621	747.51
774.803	819.19
774.985	681.97
775.168	763.89
775.35	647.16
775.532	739.32
775.715	739.32
775.897	741.36
776.079	673.78
776.261	675.83
776.444	829.43
776.626	741.36
776.808	681.97
776.99	653.3
777.173	718.84
777.355	616.44
777.537	669.69
777.719	700.41
777.901	727.03
778.083	675.83
778.265	712.69
778.447	675.83
778.629	649.21
778.811	598.01
778.993	655.35
779.175	638.97
779.357	616.44
779.539	555
779.721	616.44
779.903	604.15
780.085	616.44
780.267	690.17
780.449	618.49
780.631	534.52
780.812	542.71
780.994	591.86
781.176	536.57
781.358	567.29
781.54	591.86
781.721	485.37
781.903	587.77
782.085	516.09
782.267	593.91
782.448	481.27
782.63	493.56
782.812	518.14
782.993	495.61
783.175	471.03
783.357	485.37
783.538	538.62
783.72	546.81
783.901	458.75
784.083	587.77
784.264	511.99
784.446	440.31
784.627	444.41
784.809	544.76
784.99	561.14
785.172	567.29
785.353	569.34
785.535	444.41
785.716	421.88
785.897	378.87
786.079	399.35
786.26	505.85
786.441	473.08
786.623	444.41
786.804	456.7
786.985	509.94
787.167	411.64
787.348	354.3
787.529	473.08
787.71	487.42
787.891	448.51
788.073	444.41
788.254	403.45
788.435	415.74
788.616	411.64
788.797	387.07
788.978	399.35
789.159	407.55
789.34	413.69
789.522	382.97
789.703	376.83
789.884	397.31
790.065	382.97
790.246	413.69
790.427	362.49
790.607	307.2
790.788	413.69
790.969	372.73
791.15	333.82
791.331	325.63
791.512	364.54
791.693	354.3
791.874	364.54
792.054	387.07
792.235	354.3
792.416	307.2
792.597	354.3
792.778	333.82
792.958	405.5
793.139	362.49
793.32	360.44
793.5	409.59
793.681	362.49
793.862	335.87
794.042	325.63
794.223	260.09
794.404	233.47
794.584	227.32
794.765	313.34
794.945	323.58
795.126	337.91
795.306	382.97
795.487	374.78
795.667	272.38
795.848	280.57
796.028	256
796.209	294.91
796.389	409.59
796.57	309.24
796.75	231.42
796.93	307.2
797.111	233.47
797.291	264.19
797.471	337.91
797.652	378.87
797.832	329.72
798.012	296.96
798.192	294.91
798.373	247.8
798.553	219.13
798.733	354.3
798.913	272.38
799.093	272.38
799.274	262.14
799.454	299
799.634	288.76
799.814	280.57
799.994	272.38
800.174	290.81
800.354	307.2
800.534	198.65
800.714	301.05
800.894	266.24
801.074	231.42
801.254	256
801.434	268.28
801.614	217.08
801.794	215.04
801.974	763.89
802.154	266.24
802.334	266.24
802.514	178.17
802.693	278.52
802.873	272.38
803.053	305.15
803.233	266.24
803.413	247.8
803.592	225.28
803.772	253.95
803.952	225.28
804.131	231.42
804.311	223.23
804.491	198.65
804.67	169.98
804.85	200.7
805.03	217.08
805.209	225.28
805.389	149.5
805.568	256
805.748	227.32
805.928	151.55
806.107	217.08
806.287	223.23
806.466	204.8
806.646	172.03
806.825	141.31
807.004	264.19
807.184	243.71
807.363	206.84
807.543	251.9
807.722	190.46
807.901	233.47
808.081	198.65
808.26	118.78
808.439	223.23
808.619	198.65
808.798	133.12
808.977	210.94
809.156	278.52
809.336	174.08
809.515	192.51
809.694	137.21
809.873	225.28
810.052	198.65
810.231	206.84
810.411	247.8
810.59	210.94
810.769	182.27
810.948	190.46
811.127	116.73
811.306	143.36
811.485	153.6
811.664	225.28
811.843	98.3
812.022	182.27
812.201	167.93
812.38	192.51
812.559	108.54
812.737	190.46
812.916	188.41
813.095	153.6
813.274	200.7
813.453	235.52
813.632	165.89
813.811	149.5
813.989	124.93
814.168	186.37
814.347	143.36
814.526	182.27
814.704	186.37
814.883	202.75
815.062	141.31
815.24	212.99
815.419	131.07
815.598	167.93
815.776	59.39
815.955	135.17
816.133	106.49
816.312	172.03
816.49	215.04
816.669	145.41
816.847	110.59
817.026	159.74
817.204	192.51
817.383	182.27
817.561	133.12
817.74	161.79
817.918	182.27
818.097	163.84
818.275	77.82
818.453	116.73
818.632	96.25
818.81	223.23
818.988	169.98
819.167	131.07
819.345	112.64
819.523	139.26
819.701	96.25
819.879	141.31
820.058	155.65
820.236	124.93
820.414	135.17
820.592	167.93
820.77	143.36
820.948	133.12
821.127	65.54
821.305	176.13
821.483	120.83
821.661	217.08
821.839	124.93
822.017	114.69
822.195	100.35
822.373	147.45
822.551	200.7
822.729	143.36
822.907	100.35
823.085	169.98
823.262	102.4
823.44	129.02
823.618	102.4
823.796	98.3
823.974	102.4
824.152	151.55
824.329	147.45
824.507	174.08
824.685	98.3
824.863	108.54
825.04	114.69
825.218	124.93
825.396	167.93
825.574	124.93
825.751	71.68
825.929	182.27
826.107	55.3
826.284	116.73
826.462	118.78
826.639	53.25
826.817	16.38
826.994	69.63
827.172	77.82
827.349	149.5
827.527	61.44
827.704	43.01
827.882	108.54
828.059	116.73
828.237	59.39
828.414	100.35
828.591	67.58
828.769	43.01
828.946	53.25
829.124	167.93
829.301	137.21
829.478	51.2
829.655	79.87
829.833	83.97
830.01	116.73
830.187	135.17
830.364	81.92
830.542	90.11
830.719	129.02
830.896	53.25
831.073	83.97
831.25	94.21
831.427	102.4
831.604	53.25
831.782	133.12
831.959	167.93
832.136	151.55
832.313	43.01
832.49	53.25
832.667	77.82
832.844	69.63
833.021	161.79
833.198	53.25
833.374	102.4
833.551	100.35
833.728	63.49
833.905	83.97
834.082	100.35
834.259	81.92
834.436	100.35
834.612	59.39
834.789	110.59
834.966	59.39
835.143	102.4
835.319	-4.1
835.496	43.01
835.673	79.87
835.85	75.77
836.026	67.58
836.203	-6.14
836.38	12.29
836.556	124.93
836.733	47.1
836.909	141.31
837.086	43.01
837.262	79.87
837.439	143.36
837.616	59.39
837.792	116.73
837.968	145.41
838.145	67.58
838.321	133.12
838.498	67.58
838.674	43.01
838.851	79.87
839.027	45.06
839.203	63.49
839.38	114.69
839.556	-14.34
839.732	63.49
839.909	38.91
840.085	77.82
840.261	59.39
840.437	63.49
840.614	81.92
840.79	120.83
840.966	8.19
841.142	86.01
841.318	92.16
841.494	69.63
841.671	65.54
841.847	24.58
842.023	67.58
842.199	83.97
842.375	30.72
842.551	79.87
842.727	75.77
842.903	96.25
843.079	67.58
843.255	188.41
843.431	38.91
843.607	67.58
843.783	81.92
843.959	108.54
844.134	102.4
844.31	124.93
844.486	43.01
844.662	75.77
844.838	88.06
845.013	53.25
845.189	36.86
845.365	43.01
845.541	12.29
845.716	71.68
845.892	96.25
846.068	26.62
846.244	116.73
846.419	32.77
846.595	83.97
846.77	43.01
846.946	116.73
847.122	55.3
847.297	28.67
847.473	75.77
847.648	24.58
847.824	61.44
847.999	61.44
848.175	45.06
848.35	137.21
848.526	102.4
848.701	69.63
848.876	69.63
849.052	71.68
849.227	71.68
849.403	55.3
849.578	47.1
849.753	61.44
849.929	92.16
850.104	43.01
850.279	69.63
850.454	53.25
850.63	55.3
850.805	53.25
850.98	102.4
851.155	61.44
851.33	61.44
851.505	67.58
851.681	139.26
851.856	73.73
852.031	-10.24
852.206	12.29
852.381	96.25
852.556	38.91
852.731	55.3
852.906	20.48
853.081	-14.34
853.256	53.25
853.431	55.3
853.606	75.77
853.781	-10.24
853.956	34.82
854.131	47.1
854.305	47.1
854.48	26.62
854.655	-14.34
854.83	47.1
855.005	51.2
855.18	108.54
855.354	-14.34
855.529	100.35
855.704	-14.34
855.879	131.07
856.053	43.01
856.228	-4.1
856.403	-43.01
856.577	124.93
856.752	43.01
856.926	34.82
857.101	67.58
857.276	2.05
857.45	75.77
857.625	-14.34
857.799	4.1
857.974	28.67
858.148	-12.29
858.323	14.34
858.497	18.43
858.672	-20.48
858.846	51.2
859.02	67.58
859.195	-20.48
859.369	-14.34
859.543	34.82
859.718	30.72
859.892	75.77
860.066	30.72
860.241	92.16
860.415	14.34
860.589	20.48
860.763	38.91
860.938	83.97
861.112	53.25
861.286	10.24
861.46	45.06
861.634	63.49
861.808	-20.48
861.982	26.62
862.157	-2.05
862.331	10.24
862.505	53.25
862.679	65.54
862.853	67.58
863.027	61.44
863.201	100.35
863.375	26.62
863.549	94.21
863.722	45.06
863.896	96.25
864.07	26.62
864.244	34.82
864.418	59.39
864.592	45.06
864.766	-14.34
864.939	-30.72
865.113	34.82
865.287	-4.1
865.461	59.39
865.634	-22.53
865.808	2.05
865.982	-14.34
866.156	-2.05
866.329	26.62
866.503	-10.24
866.676	20.48
866.85	-14.34
867.024	14.34
867.197	34.82
867.371	174.08
867.544	28.67
867.718	4.1
867.891	65.54
868.065	-4.1
868.238	43.01
868.412	116.73
868.585	-6.14
868.759	-61.44
868.932	92.16
869.105	47.1
869.279	83.97
869.452	67.58
869.625	49.15
869.799	53.25
869.972	47.1
870.145	28.67
870.319	-14.34
870.492	26.62
870.665	12.29
870.838	55.3
871.011	2.05
871.185	-2.05
871.358	4.1
871.531	96.25
871.704	6.14
871.877	14.34
872.05	-6.14
872.223	26.62
872.396	18.43
872.569	83.97
872.742	-55.3
872.915	108.54
873.088	-4.1
873.261	43.01
873.434	24.58
873.607	67.58
873.78	79.87
873.953	-30.72
874.126	67.58
874.299	51.2
874.471	-2.05
874.644	26.62
874.817	6.14
874.99	141.31
875.163	30.72
875.335	63.49
875.508	51.2
875.681	28.67
875.853	10.24
876.026	38.91
876.199	55.3
876.371	-22.53
876.544	4.1
876.717	26.62
876.889	24.58
877.062	8.19
877.234	26.62
877.407	20.48
877.579	61.44
877.752	34.82
877.924	34.82
878.097	14.34
878.269	12.29
878.442	10.24
878.614	63.49
878.786	2.05
878.959	2.05
879.131	43.01
879.303	26.62
879.476	4.1
879.648	100.35
879.82	28.67
879.993	12.29
880.165	30.72
880.337	18.43
880.509	92.16
880.681	-34.82
880.854	28.67
881.026	45.06
881.198	92.16
881.37	2.05
881.542	88.06
881.714	47.1
881.886	34.82
882.058	-22.53
882.23	-12.29
882.402	-18.43
882.574	38.91
882.746	59.39
882.918	67.58
883.09	30.72
883.262	83.97
883.434	-38.91
883.606	32.77
883.778	-32.77
883.95	22.53
884.122	47.1
884.293	40.96
884.465	38.91
884.637	45.06
884.809	-34.82
884.98	53.25
885.152	16.38
885.324	2.05
885.496	102.4
885.667	59.39
885.839	4.1
886.011	67.58
886.182	92.16
886.354	-14.34
886.525	88.06
886.697	26.62
886.869	45.06
887.04	32.77
887.212	-30.72
887.383	92.16
887.555	0
887.726	34.82
887.897	-22.53
888.069	114.69
888.24	112.64
888.412	59.39
888.583	49.15
888.754	28.67
888.926	-75.77
889.097	-12.29
889.268	22.53
889.44	86.01
889.611	10.24
889.782	71.68
889.953	-67.58
890.125	51.2
890.296	49.15
890.467	75.77
890.638	-4.1
890.809	22.53
890.98	-53.25
891.151	-4.1
891.323	4.1
891.494	63.49
891.665	28.67
891.836	69.63
892.007	43.01
892.178	-36.86
892.349	-47.1
892.52	26.62
892.691	67.58
892.862	71.68
893.032	24.58
893.203	38.91
893.374	83.97
893.545	88.06
893.716	-34.82
893.887	129.02
894.057	18.43
894.228	-2.05
894.399	-10.24
894.57	57.34
894.74	67.58
894.911	4.1
895.082	51.2
895.253	18.43
895.423	22.53
895.594	77.82
895.764	67.58
895.935	40.96
896.106	26.62
896.276	14.34
896.447	14.34
896.617	51.2
896.788	10.24
896.958	30.72
897.129	10.24
897.299	45.06
897.47	47.1
897.64	-32.77
897.81	-2.05
897.981	69.63
898.151	-34.82
898.322	67.58
898.492	2.05
898.662	71.68
898.832	-30.72
899.003	-18.43
899.173	26.62
899.343	-53.25
899.513	30.72
