Data from USB4F104151__104__14-43-43-592.txt Node

Date: Thu Mar 13 14:43:43 EDT 2025
User: louis
Spectrometer: USB4F10415
Trigger mode: 4
Integration Time (sec): 2.000000E-2
Scans to average: 1
Electric dark correction enabled: true
Nonlinearity correction enabled: false
Boxcar width: 0
XAxis mode: Wavelengths
Number of Pixels in Spectrum: 3648
>>>>>Begin Spectral Data<<<<<
178.204	-45.06
178.424	-45.06
178.644	-45.06
178.864	-176.13
179.084	-102.4
179.304	-45.06
179.524	22.53
179.744	-10.24
179.964	38.91
180.184	-12.29
180.404	28.67
180.624	96.25
180.844	2.05
181.064	-57.34
181.283	-43.01
181.503	-61.44
181.723	40.96
181.943	22.53
182.163	53.25
182.383	-16.38
182.602	30.72
182.822	81.92
183.042	53.25
183.262	4.1
183.482	63.49
183.701	-16.38
183.921	57.34
184.141	96.25
184.361	10.24
184.58	53.25
184.8	53.25
185.02	47.1
185.239	61.44
185.459	-53.25
185.679	98.3
185.898	8.19
186.118	53.25
186.338	90.11
186.557	59.39
186.777	77.82
186.997	45.06
187.216	36.86
187.436	38.91
187.655	36.86
187.875	98.3
188.095	-10.24
188.314	38.91
188.534	26.62
188.753	55.3
188.973	77.82
189.192	36.86
189.412	88.06
189.631	-18.43
189.851	63.49
190.07	28.67
190.29	47.1
190.509	-59.39
190.729	-34.82
190.948	53.25
191.168	108.54
191.387	32.77
191.607	81.92
191.826	55.3
192.045	24.58
192.265	20.48
192.484	28.67
192.704	-2.05
192.923	28.67
193.142	61.44
193.362	81.92
193.581	61.44
193.8	16.38
194.02	135.17
194.239	79.87
194.458	38.91
194.678	69.63
194.897	2.05
195.116	53.25
195.335	18.43
195.555	43.01
195.774	55.3
195.993	88.06
196.212	8.19
196.432	16.38
196.651	0
196.87	28.67
197.089	94.21
197.308	4.1
197.528	26.62
197.747	-18.43
197.966	36.86
198.185	47.1
198.404	4.1
198.623	53.25
198.842	73.73
199.062	30.72
199.281	90.11
199.5	45.06
199.719	-10.24
199.938	59.39
200.157	-8.19
200.376	45.06
200.595	73.73
200.814	20.48
201.033	36.86
201.252	32.77
201.471	8.19
201.69	49.15
201.909	88.06
202.128	-59.39
202.347	-51.2
202.566	63.49
202.785	-16.38
203.004	6.14
203.223	102.4
203.442	106.49
203.661	20.48
203.879	65.54
204.098	43.01
204.317	36.86
204.536	112.64
204.755	47.1
204.974	57.34
205.193	12.29
205.411	69.63
205.63	98.3
205.849	79.87
206.068	77.82
206.287	69.63
206.505	61.44
206.724	73.73
206.943	32.77
207.162	55.3
207.381	12.29
207.599	67.58
207.818	-4.1
208.037	45.06
208.255	4.1
208.474	16.38
208.693	69.63
208.911	61.44
209.13	-45.06
209.349	12.29
209.567	45.06
209.786	-4.1
210.005	90.11
210.223	-2.05
210.442	45.06
210.661	8.19
210.879	20.48
211.098	45.06
211.316	30.72
211.535	112.64
211.753	12.29
211.972	63.49
212.191	45.06
212.409	47.1
212.628	86.01
212.846	-4.1
213.065	-12.29
213.283	96.25
213.502	69.63
213.72	20.48
213.938	2.05
214.157	59.39
214.375	28.67
214.594	38.91
214.812	38.91
215.031	-6.14
215.249	4.1
215.467	104.45
215.686	28.67
215.904	24.58
216.122	124.93
216.341	92.16
216.559	-20.48
216.778	71.68
216.996	63.49
217.214	36.86
217.432	86.01
217.651	18.43
217.869	47.1
218.087	61.44
218.306	34.82
218.524	61.44
218.742	-14.34
218.96	0
219.179	-24.58
219.397	12.29
219.615	104.45
219.833	28.67
220.051	12.29
220.27	61.44
220.488	38.91
220.706	-36.86
220.924	28.67
221.142	61.44
221.36	40.96
221.578	6.14
221.796	-8.19
222.015	96.25
222.233	77.82
222.451	45.06
222.669	20.48
222.887	69.63
223.105	0
223.323	49.15
223.541	14.34
223.759	4.1
223.977	16.38
224.195	92.16
224.413	61.44
224.631	122.88
224.849	34.82
225.067	55.3
225.285	8.19
225.503	40.96
225.721	-20.48
225.939	65.54
226.157	-12.29
226.375	100.35
226.592	-61.44
226.81	4.1
227.028	28.67
227.246	118.78
227.464	28.67
227.682	63.49
227.9	71.68
228.117	69.63
228.335	102.4
228.553	59.39
228.771	73.73
228.989	36.86
229.206	32.77
229.424	20.48
229.642	14.34
229.86	71.68
230.077	61.44
230.295	28.67
230.513	32.77
230.731	38.91
230.948	102.4
231.166	98.3
231.384	-20.48
231.601	12.29
231.819	131.07
232.037	-26.62
232.254	-8.19
232.472	-8.19
232.689	61.44
232.907	77.82
233.125	-34.82
233.342	-43.01
233.56	-10.24
233.777	28.67
233.995	-12.29
234.213	81.92
234.43	55.3
234.648	26.62
234.865	92.16
235.083	18.43
235.3	57.34
235.518	-2.05
235.735	53.25
235.953	22.53
236.17	77.82
236.388	6.14
236.605	14.34
236.822	47.1
237.04	12.29
237.257	61.44
237.475	28.67
237.692	-10.24
237.909	24.58
238.127	106.49
238.344	94.21
238.562	32.77
238.779	22.53
238.996	36.86
239.214	63.49
239.431	6.14
239.648	28.67
239.865	-6.14
240.083	63.49
240.3	14.34
240.517	6.14
240.735	71.68
240.952	61.44
241.169	0
241.386	26.62
241.603	83.97
241.821	26.62
242.038	77.82
242.255	28.67
242.472	86.01
242.689	12.29
242.907	-8.19
243.124	79.87
243.341	8.19
243.558	4.1
243.775	36.86
243.992	40.96
244.209	14.34
244.426	36.86
244.643	61.44
244.86	-2.05
245.078	38.91
245.295	16.38
245.512	-4.1
245.729	38.91
245.946	57.34
246.163	59.39
246.38	40.96
246.597	28.67
246.814	81.92
247.031	49.15
247.248	6.14
247.464	20.48
247.681	57.34
247.898	28.67
248.115	47.1
248.332	28.67
248.549	28.67
248.766	73.73
248.983	77.82
249.2	102.4
249.417	45.06
249.633	-8.19
249.85	55.3
250.067	77.82
250.284	65.54
250.501	77.82
250.717	104.45
250.934	-10.24
251.151	55.3
251.368	69.63
251.585	61.44
251.801	71.68
252.018	-14.34
252.235	61.44
252.451	0
252.668	102.4
252.885	110.59
253.102	14.34
253.318	36.86
253.535	43.01
253.752	36.86
253.968	12.29
254.185	-20.48
254.401	108.54
254.618	14.34
254.835	53.25
255.051	110.59
255.268	53.25
255.484	110.59
255.701	40.96
255.917	47.1
256.134	61.44
256.351	30.72
256.567	-20.48
256.784	90.11
257	4.1
257.217	94.21
257.433	6.14
257.65	63.49
257.866	69.63
258.082	-8.19
258.299	20.48
258.515	55.3
258.732	-20.48
258.948	26.62
259.165	20.48
259.381	6.14
259.597	40.96
259.814	28.67
260.03	16.38
260.246	8.19
260.463	4.1
260.679	131.07
260.895	36.86
261.112	-26.62
261.328	12.29
261.544	77.82
261.761	110.59
261.977	28.67
262.193	-12.29
262.409	14.34
262.626	61.44
262.842	157.69
263.058	32.77
263.274	69.63
263.49	-12.29
263.707	79.87
263.923	45.06
264.139	40.96
264.355	36.86
264.571	79.87
264.787	43.01
265.004	110.59
265.22	36.86
265.436	12.29
265.652	16.38
265.868	12.29
266.084	-45.06
266.3	43.01
266.516	16.38
266.732	104.45
266.948	-20.48
267.164	102.4
267.38	73.73
267.596	12.29
267.812	61.44
268.028	90.11
268.244	-59.39
268.46	88.06
268.676	45.06
268.892	108.54
269.108	55.3
269.324	-12.29
269.54	6.14
269.756	36.86
269.972	4.1
270.188	40.96
270.403	12.29
270.619	90.11
270.835	18.43
271.051	104.45
271.267	-20.48
271.483	12.29
271.698	28.67
271.914	69.63
272.13	-34.82
272.346	69.63
272.562	22.53
272.777	47.1
272.993	63.49
273.209	30.72
273.425	102.4
273.64	-26.62
273.856	86.01
274.072	28.67
274.287	-28.67
274.503	120.83
274.719	71.68
274.934	38.91
275.15	49.15
275.366	-12.29
275.581	-12.29
275.797	18.43
276.012	32.77
276.228	55.3
276.444	51.2
276.659	53.25
276.875	8.19
277.09	57.34
277.306	47.1
277.521	79.87
277.737	63.49
277.952	61.44
278.168	104.45
278.383	45.06
278.599	81.92
278.814	32.77
279.03	43.01
279.245	38.91
279.461	55.3
279.676	30.72
279.892	-16.38
280.107	55.3
280.322	-8.19
280.538	83.97
280.753	-4.1
280.969	53.25
281.184	-47.1
281.399	112.64
281.615	32.77
281.83	40.96
282.045	-10.24
282.26	40.96
282.476	-20.48
282.691	32.77
282.906	77.82
283.122	12.29
283.337	94.21
283.552	32.77
283.767	6.14
283.983	51.2
284.198	45.06
284.413	38.91
284.628	26.62
284.843	98.3
285.058	63.49
285.274	16.38
285.489	-45.06
285.704	79.87
285.919	-20.48
286.134	8.19
286.349	22.53
286.564	81.92
286.779	36.86
286.995	-51.2
287.21	32.77
287.425	24.58
287.64	12.29
287.855	28.67
288.07	-6.14
288.285	112.64
288.5	53.25
288.715	38.91
288.93	28.67
289.145	38.91
289.36	118.78
289.575	106.49
289.79	69.63
290.004	90.11
290.219	0
290.434	12.29
290.649	30.72
290.864	-59.39
291.079	-43.01
291.294	47.1
291.509	28.67
291.724	57.34
291.938	36.86
292.153	96.25
292.368	-26.62
292.583	14.34
292.798	63.49
293.012	71.68
293.227	55.3
293.442	-12.29
293.657	12.29
293.871	14.34
294.086	47.1
294.301	112.64
294.516	38.91
294.73	65.54
294.945	49.15
295.16	20.48
295.374	112.64
295.589	22.53
295.804	12.29
296.018	12.29
296.233	47.1
296.447	12.29
296.662	12.29
296.877	22.53
297.091	49.15
297.306	-36.86
297.52	-2.05
297.735	28.67
297.949	16.38
298.164	14.34
298.378	24.58
298.593	69.63
298.807	73.73
299.022	88.06
299.236	57.34
299.451	14.34
299.665	73.73
299.88	102.4
300.094	-12.29
300.309	61.44
300.523	38.91
300.737	75.77
300.952	77.82
301.166	135.17
301.381	-2.05
301.595	22.53
301.809	-73.73
302.024	51.2
302.238	14.34
302.452	67.58
302.667	0
302.881	94.21
303.095	69.63
303.309	14.34
303.524	4.1
303.738	36.86
303.952	-8.19
304.166	14.34
304.381	24.58
304.595	45.06
304.809	26.62
305.023	28.67
305.237	-4.1
305.452	-12.29
305.666	61.44
305.88	53.25
306.094	77.82
306.308	57.34
306.522	94.21
306.736	36.86
306.95	14.34
307.164	24.58
307.379	40.96
307.593	53.25
307.807	86.01
308.021	-12.29
308.235	14.34
308.449	28.67
308.663	53.25
308.877	112.64
309.091	40.96
309.305	55.3
309.519	-43.01
309.733	53.25
309.947	-2.05
310.161	79.87
310.374	92.16
310.588	81.92
310.802	8.19
311.016	16.38
311.23	81.92
311.444	43.01
311.658	49.15
311.872	77.82
312.085	110.59
312.299	102.4
312.513	69.63
312.727	30.72
312.941	83.97
313.154	24.58
313.368	45.06
313.582	57.34
313.796	104.45
314.009	38.91
314.223	53.25
314.437	77.82
314.651	61.44
314.864	40.96
315.078	18.43
315.292	-10.24
315.505	-16.38
315.719	53.25
315.933	38.91
316.146	-24.58
316.36	-32.77
316.573	79.87
316.787	-8.19
317.001	38.91
317.214	-49.15
317.428	77.82
317.641	45.06
317.855	-20.48
318.068	4.1
318.282	81.92
318.495	49.15
318.709	45.06
318.922	49.15
319.136	59.39
319.349	-32.77
319.563	32.77
319.776	86.01
319.99	-24.58
320.203	96.25
320.417	55.3
320.63	88.06
320.843	47.1
321.057	-4.1
321.27	81.92
321.483	104.45
321.697	61.44
321.91	-12.29
322.124	38.91
322.337	65.54
322.55	36.86
322.763	10.24
322.977	108.54
323.19	30.72
323.403	110.59
323.617	18.43
323.83	61.44
324.043	10.24
324.256	47.1
324.469	-24.58
324.683	98.3
324.896	-4.1
325.109	61.44
325.322	6.14
325.535	63.49
325.748	10.24
325.962	40.96
326.175	14.34
326.388	12.29
326.601	12.29
326.814	24.58
327.027	53.25
327.24	61.44
327.453	36.86
327.666	79.87
327.879	53.25
328.092	24.58
328.305	49.15
328.518	20.48
328.731	12.29
328.944	45.06
329.157	16.38
329.37	18.43
329.583	86.01
329.796	92.16
330.009	73.73
330.222	81.92
330.435	92.16
330.648	26.62
330.861	12.29
331.073	61.44
331.286	12.29
331.499	12.29
331.712	-12.29
331.925	32.77
332.138	-71.68
332.35	90.11
332.563	-20.48
332.776	40.96
332.989	28.67
333.202	-73.73
333.414	4.1
333.627	96.25
333.84	20.48
334.053	71.68
334.265	26.62
334.478	45.06
334.691	28.67
334.903	79.87
335.116	-30.72
335.329	53.25
335.541	77.82
335.754	129.02
335.966	0
336.179	63.49
336.392	12.29
336.604	57.34
336.817	92.16
337.029	71.68
337.242	81.92
337.454	63.49
337.667	-22.53
337.88	53.25
338.092	69.63
338.305	-12.29
338.517	28.67
338.729	108.54
338.942	26.62
339.154	8.19
339.367	-8.19
339.579	57.34
339.792	57.34
340.004	106.49
340.217	45.06
340.429	112.64
340.641	-4.1
340.854	-4.1
341.066	77.82
341.278	69.63
341.491	110.59
341.703	126.97
341.915	53.25
342.128	88.06
342.34	20.48
342.552	47.1
342.764	57.34
342.977	8.19
343.189	-26.62
343.401	116.73
343.613	24.58
343.826	-16.38
344.038	28.67
344.25	47.1
344.462	38.91
344.674	73.73
344.886	40.96
345.099	6.14
345.311	36.86
345.523	-8.19
345.735	24.58
345.947	69.63
346.159	92.16
346.371	77.82
346.583	32.77
346.795	12.29
347.007	20.48
347.219	36.86
347.431	30.72
347.643	126.97
347.855	124.93
348.067	110.59
348.279	32.77
348.491	22.53
348.703	59.39
348.915	12.29
349.127	14.34
349.339	57.34
349.551	-10.24
349.763	24.58
349.975	-4.1
350.187	4.1
350.399	65.54
350.61	61.44
350.822	12.29
351.034	88.06
351.246	104.45
351.458	40.96
351.669	86.01
351.881	55.3
352.093	100.35
352.305	108.54
352.517	63.49
352.728	61.44
352.94	65.54
353.152	53.25
353.363	28.67
353.575	34.82
353.787	114.69
353.999	45.06
354.21	77.82
354.422	40.96
354.633	4.1
354.845	36.86
355.057	102.4
355.268	94.21
355.48	79.87
355.692	45.06
355.903	71.68
356.115	59.39
356.326	4.1
356.538	96.25
356.749	14.34
356.961	77.82
357.172	112.64
357.384	88.06
357.595	38.91
357.807	79.87
358.018	20.48
358.23	-12.29
358.441	77.82
358.653	32.77
358.864	61.44
359.075	16.38
359.287	55.3
359.498	43.01
359.709	-2.05
359.921	65.54
360.132	65.54
360.344	-24.58
360.555	112.64
360.766	69.63
360.977	112.64
361.189	79.87
361.4	40.96
361.611	34.82
361.823	51.2
362.034	-20.48
362.245	-98.3
362.456	108.54
362.667	43.01
362.879	24.58
363.09	110.59
363.301	20.48
363.512	36.86
363.723	40.96
363.935	49.15
364.146	55.3
364.357	0
364.568	-4.1
364.779	16.38
364.99	131.07
365.201	-10.24
365.412	61.44
365.623	8.19
365.834	53.25
366.045	24.58
366.256	55.3
366.467	47.1
366.678	45.06
366.889	40.96
367.1	53.25
367.311	73.73
367.522	77.82
367.733	20.48
367.944	53.25
368.155	8.19
368.366	86.01
368.577	79.87
368.788	131.07
368.999	24.58
369.209	28.67
369.42	96.25
369.631	92.16
369.842	77.82
370.053	79.87
370.264	38.91
370.474	-18.43
370.685	57.34
370.896	12.29
371.107	30.72
371.317	-4.1
371.528	22.53
371.739	149.5
371.95	38.91
372.16	77.82
372.371	-16.38
372.582	71.68
372.792	102.4
373.003	59.39
373.214	40.96
373.424	69.63
373.635	14.34
373.846	77.82
374.056	112.64
374.267	96.25
374.477	81.92
374.688	63.49
374.898	79.87
375.109	100.35
375.319	98.3
375.53	24.58
375.74	51.2
375.951	88.06
376.161	12.29
376.372	110.59
376.582	43.01
376.793	14.34
377.003	63.49
377.214	14.34
377.424	-40.96
377.635	12.29
377.845	81.92
378.055	38.91
378.266	12.29
378.476	36.86
378.686	63.49
378.897	38.91
379.107	26.62
379.317	110.59
379.528	69.63
379.738	163.84
379.948	-8.19
380.158	81.92
380.369	30.72
380.579	129.02
380.789	43.01
380.999	30.72
381.21	108.54
381.42	178.17
381.63	73.73
381.84	73.73
382.05	59.39
382.261	153.6
382.471	75.77
382.681	81.92
382.891	102.4
383.101	71.68
383.311	12.29
383.521	-2.05
383.731	88.06
383.941	38.91
384.151	45.06
384.361	67.58
384.571	79.87
384.781	135.17
384.991	81.92
385.201	104.45
385.411	106.49
385.621	98.3
385.831	61.44
386.041	-8.19
386.251	45.06
386.461	86.01
386.671	69.63
386.881	77.82
387.091	14.34
387.301	47.1
387.511	45.06
387.72	110.59
387.93	34.82
388.14	12.29
388.35	40.96
388.56	45.06
388.769	71.68
388.979	36.86
389.189	6.14
389.399	118.78
389.609	-18.43
389.818	167.93
390.028	-2.05
390.238	131.07
390.447	20.48
390.657	86.01
390.867	81.92
391.076	24.58
391.286	49.15
391.496	65.54
391.705	14.34
391.915	172.03
392.125	124.93
392.334	45.06
392.544	94.21
392.753	88.06
392.963	94.21
393.172	-12.29
393.382	20.48
393.591	77.82
393.801	55.3
394.01	137.21
394.22	51.2
394.429	137.21
394.639	12.29
394.848	61.44
395.058	126.97
395.267	43.01
395.477	94.21
395.686	69.63
395.895	145.41
396.105	61.44
396.314	147.45
396.524	75.77
396.733	57.34
396.942	79.87
397.152	153.6
397.361	71.68
397.57	47.1
397.78	94.21
397.989	88.06
398.198	163.84
398.407	59.39
398.617	71.68
398.826	26.62
399.035	126.97
399.244	71.68
399.453	36.86
399.663	100.35
399.872	57.34
400.081	65.54
400.29	176.13
400.499	36.86
400.708	131.07
400.917	98.3
401.127	143.36
401.336	159.74
401.545	129.02
401.754	98.3
401.963	139.26
402.172	61.44
402.381	163.84
402.59	110.59
402.799	151.55
403.008	110.59
403.217	143.36
403.426	100.35
403.635	77.82
403.844	137.21
404.053	55.3
404.262	36.86
404.471	184.32
404.68	161.79
404.888	137.21
405.097	110.59
405.306	192.51
405.515	172.03
405.724	96.25
405.933	178.17
406.142	120.83
406.35	135.17
406.559	102.4
406.768	126.97
406.977	186.37
407.185	180.22
407.394	169.98
407.603	81.92
407.812	147.45
408.02	131.07
408.229	225.28
408.438	137.21
408.646	200.7
408.855	159.74
409.064	167.93
409.272	231.42
409.481	290.81
409.69	253.95
409.898	196.61
410.107	315.39
410.315	270.33
410.524	266.24
410.733	288.76
410.941	225.28
411.15	323.58
411.358	337.91
411.567	276.48
411.775	329.72
411.984	276.48
412.192	258.04
412.401	331.77
412.609	389.11
412.818	423.93
413.026	407.55
413.234	421.88
413.443	391.16
413.651	372.73
413.86	405.5
414.068	378.87
414.276	481.27
414.485	477.18
414.693	520.18
414.901	475.13
415.11	511.99
415.318	528.38
415.526	544.76
415.734	622.58
415.943	626.68
416.151	651.25
416.359	606.2
416.567	663.54
416.776	741.36
416.984	663.54
417.192	692.21
417.4	667.64
417.608	720.89
417.817	774.13
418.025	817.14
418.233	831.48
418.441	831.48
418.649	884.72
418.857	909.3
419.065	1030.13
419.273	978.93
419.481	972.79
419.689	1015.79
419.897	1077.23
420.105	1089.52
420.313	1185.77
420.521	1183.73
420.729	1196.01
420.937	1183.73
421.145	1306.6
421.353	1314.8
421.561	1456.11
421.769	1425.39
421.977	1535.98
422.185	1462.25
422.393	1585.13
422.601	1660.9
422.809	1679.33
423.017	1650.66
423.224	1693.67
423.432	1892.32
423.64	1814.5
423.848	1957.86
424.056	1970.15
424.263	2093.02
424.471	2066.4
424.679	2144.22
424.887	2179.04
425.094	2340.83
425.302	2291.68
425.51	2439.13
425.718	2519
425.925	2586.58
426.133	2588.63
426.341	2656.22
426.548	2846.68
426.756	2832.34
426.964	2920.4
427.171	3000.27
427.379	3088.34
427.586	3250.13
427.794	3176.4
428.001	3301.33
428.209	3602.38
428.417	3559.37
428.624	3661.77
428.832	3674.06
429.039	3659.72
429.247	3645.38
429.454	4030.4
429.662	4364.22
429.869	3962.82
430.076	4327.36
430.284	4102.08
430.491	4517.82
430.699	4556.73
430.906	4726.71
431.114	4835.25
431.321	4829.11
431.528	4968.37
431.736	5216.18
431.943	5470.12
432.15	5345.2
432.358	5427.12
432.565	5601.19
432.772	5699.5
432.979	5961.64
433.187	6145.95
433.394	6109.09
433.601	6481.82
433.808	6533.02
434.016	6578.08
434.223	6619.03
434.43	7184.27
434.637	6995.86
434.844	7417.74
435.052	7737.23
435.259	7524.24
435.466	7626.64
435.673	7544.72
435.88	8083.33
436.087	8515.45
436.294	8341.38
436.501	8179.59
436.708	8400.77
436.915	8650.62
437.122	9142.13
437.329	9125.75
437.537	9455.47
437.743	9580.4
437.95	9514.86
438.157	10084.2
438.364	10313.57
438.571	10241.89
438.778	10284.9
438.985	11104.09
439.192	10714.97
439.399	10991.45
439.606	10860.38
439.813	11489.1
440.02	12351.3
440.227	12009.29
440.433	12021.58
440.64	12398.4
440.847	12187.46
441.054	12334.92
441.261	13334.32
441.467	13023.03
441.674	13246.26
441.881	13819.69
442.088	13901.61
442.294	13903.66
442.501	14036.78
442.708	14491.43
442.914	15071
443.121	15472.4
443.328	15150.87
443.534	16019.21
443.741	15920.91
443.948	15261.46
444.154	16592.64
444.361	17096.44
444.568	16744.19
444.774	16793.34
444.981	16979.71
445.187	17452.79
445.394	18296.55
445.6	18050.8
445.807	19814.1
446.013	18765.54
446.22	19156.7
446.426	19941.07
446.633	20278.99
446.839	20903.62
447.046	20051.66
447.252	20938.43
447.459	21325.5
447.665	21020.35
447.871	22118.06
448.078	23213.73
448.284	21921.46
448.491	22648.49
448.697	23590.55
448.903	23801.49
449.11	23944.85
449.316	23383.71
449.522	24272.53
449.728	24850.05
449.935	24809.09
450.141	24610.44
450.347	25505.4
450.553	24796.81
450.76	25075.33
450.966	25951.86
451.172	25722.49
451.378	26250.86
451.584	25915
451.791	26513
451.997	26400.37
452.203	26779.24
452.409	27008.61
452.615	26793.58
452.821	25937.52
453.027	25615.99
453.233	27047.52
453.44	25779.83
453.646	26027.63
453.852	26095.22
454.058	26685.03
454.264	25986.68
454.47	25980.53
454.676	25845.37
454.882	26611.31
455.088	24536.71
455.294	25063.04
455.5	25347.71
455.705	25624.18
455.911	24407.69
456.117	24227.47
456.323	23666.33
456.529	22714.02
456.735	23690.9
456.941	23178.91
457.147	22947.49
457.352	22034.1
457.558	21950.13
457.764	21786.29
457.97	21429.94
458.176	20891.33
458.381	20930.24
458.587	19773.14
458.793	19789.52
458.999	18939.61
459.204	20342.47
459.41	19691.22
459.616	18507.49
459.821	18628.32
460.027	18605.8
460.233	18069.23
460.438	17247.99
460.644	17606.39
460.85	16793.34
461.055	16148.23
461.261	16418.57
461.466	15257.37
461.672	14511.91
461.878	15877.9
462.083	14716.7
462.289	14450.47
462.494	14225.19
462.7	13666.1
462.905	13279.03
463.111	13735.73
463.316	13827.89
463.522	13334.32
463.727	13285.17
463.932	13758.25
464.138	13242.17
464.343	13508.4
464.549	12851
464.754	13401.91
464.959	13315.89
465.165	13117.24
465.37	12805.95
465.575	12234.57
465.781	12748.61
465.986	12986.17
466.191	12334.92
466.397	12158.79
466.602	11587.41
466.807	12031.82
467.012	12111.69
467.218	12083.02
467.423	11870.03
467.628	11986.76
467.833	12377.92
468.038	11804.49
468.244	11745.1
468.449	12093.26
468.654	11786.06
468.859	11923.27
469.064	11743.05
469.269	11085.65
469.474	11188.05
469.679	11515.73
469.885	11124.57
470.09	11210.58
470.295	11198.29
470.5	11040.6
470.705	10925.91
470.91	10721.12
471.115	10647.39
471.32	10821.47
471.525	10757.98
471.73	10444.64
471.935	10456.93
472.139	10008.42
472.344	10315.62
472.549	10159.97
472.754	9951.08
472.959	9895.78
473.164	9572.21
473.369	9516.91
473.574	9926.5
473.778	9920.36
473.983	9768.81
474.188	9725.8
474.393	9330.55
474.598	9379.7
474.802	9183.09
475.007	9000.82
475.212	9199.48
475.417	8966.01
475.621	8812.41
475.826	8824.7
476.031	8771.45
476.235	8460.16
476.44	8564.61
476.645	8286.08
476.849	8216.45
477.054	8462.21
477.259	8195.97
477.463	8232.83
477.668	7909.26
477.872	8142.72
478.077	8091.52
478.282	7837.58
478.486	7643.02
478.691	7921.54
478.895	7774.09
479.1	7673.74
479.304	7583.63
479.509	7499.66
479.713	7724.94
479.918	7395.22
480.122	7425.93
480.326	7452.56
480.531	7423.89
480.735	7268.24
480.94	7303.06
481.144	7622.54
481.348	6967.19
481.553	7407.5
481.757	7008.15
481.961	7214.99
482.166	7149.46
482.37	7305.1
482.574	7081.88
482.778	7079.83
482.983	7301.01
483.187	7098.26
483.391	7272.34
483.595	7008.15
483.8	6928.28
484.004	7018.39
484.208	7053.2
484.412	7069.59
484.616	7139.22
484.821	7145.36
485.025	7073.68
485.229	7237.52
485.433	7137.17
485.637	7012.24
485.841	7059.35
486.045	7112.6
486.249	7204.75
486.453	7057.3
486.657	7032.72
486.861	7204.75
487.065	7137.17
487.269	7241.62
487.473	6973.33
487.677	7331.73
487.881	7253.91
488.085	7016.34
488.289	7253.91
488.493	6977.43
488.697	7139.22
488.901	7157.65
489.105	7262.1
489.309	7083.92
489.512	7272.34
489.716	7315.34
489.92	7245.71
490.124	7223.19
490.328	7333.78
490.531	7260.05
490.735	7337.87
490.939	7448.46
491.143	7401.36
491.346	7204.75
491.55	7520.14
491.754	7393.17
491.958	7524.24
492.161	7384.98
492.365	7540.62
492.569	7499.66
492.772	7753.61
492.976	7638.92
493.18	7663.5
493.383	7835.53
493.587	7851.91
493.79	8046.47
493.994	7776.14
494.197	8009.61
494.401	8001.41
494.605	8179.59
494.808	8167.3
495.012	8292.23
495.215	8159.11
495.419	8179.59
495.622	8286.08
495.825	8271.75
496.029	8529.79
496.232	8615.8
496.436	8535.93
496.639	8920.95
496.843	8777.59
497.046	8920.95
497.249	9174.9
497.453	8945.53
497.656	9164.66
497.859	9140.08
498.063	9240.43
498.266	9389.94
498.469	9451.38
498.673	9559.92
498.876	9693.04
499.079	9734
499.282	9742.19
499.485	10014.57
499.689	9871.21
499.892	10348.39
500.095	10112.87
500.298	10604.38
500.501	10497.89
500.705	10817.37
500.908	10768.22
501.111	11067.22
501.314	10923.87
501.517	11304.79
501.72	11401.04
501.923	11245.4
502.126	11700.05
502.329	11958.09
502.532	11964.23
502.735	11734.86
502.938	12119.88
503.141	12033.86
503.344	12439.36
503.547	12582.72
503.75	12738.37
503.953	12859.2
504.156	13078.33
504.359	13131.58
504.562	13223.73
504.765	13381.43
504.968	13508.4
505.17	13807.41
505.373	13971.24
505.576	14200.62
505.779	14395.17
505.982	14300.97
506.185	14679.84
506.387	14583.59
506.59	14800.67
506.793	15001.37
506.996	15208.22
507.198	15535.89
507.401	15494.93
507.604	15648.53
507.807	15927.05
508.009	16162.57
508.212	16023.31
508.415	16340.74
508.617	16523.01
508.82	16961.28
509.022	16850.69
509.225	17118.97
509.428	17477.37
509.63	17350.39
509.833	17663.73
510.035	18087.66
510.238	17891.06
510.44	18124.52
510.643	18503.4
510.845	18654.95
511.048	18476.77
511.25	19027.68
511.453	19168.99
511.655	19732.18
511.858	19293.91
512.06	19404.5
512.262	19816.15
512.465	19850.96
512.667	20428.49
512.87	20393.67
513.072	20549.32
513.274	20991.68
513.477	21305.02
513.679	21169.85
513.881	21507.77
514.084	22044.34
514.286	21706.42
514.488	22023.86
514.69	22730.41
514.893	22728.36
515.095	22716.07
515.297	22992.55
515.499	23088.8
515.701	23608.98
515.904	23869.08
516.106	23754.39
516.308	23881.36
516.51	24493.71
516.712	24436.36
516.914	24618.63
517.116	25179.78
517.318	25269.89
517.52	25415.29
517.722	25642.62
517.925	25968.24
518.127	26019.44
518.329	26216.05
518.531	26224.24
518.733	26848.87
518.935	26885.73
519.136	27031.14
519.338	27582.04
519.54	27469.4
519.742	27799.13
519.944	27473.5
520.146	28456.53
520.348	28601.93
520.55	28855.88
520.752	28862.02
520.954	29533.76
521.155	29251.14
521.357	29396.54
521.559	29736.51
521.761	29894.2
521.963	29978.17
522.164	30359.09
522.366	30070.33
522.568	30922.28
522.77	31012.39
522.971	31555.1
523.173	31327.78
523.375	31508
523.576	31852.06
523.778	31712.8
523.98	32245.27
524.181	32169.49
524.383	32093.72
524.584	32503.31
524.786	32976.39
524.988	32681.49
525.189	32951.82
525.391	33246.72
525.592	33367.55
525.794	33424.9
525.995	33521.15
526.197	33463.81
526.398	33670.65
526.6	33930.75
526.801	34389.49
527.003	33990.14
527.204	34317.81
527.406	34747.89
527.607	34530.8
527.808	34733.55
528.01	34526.71
528.211	34663.92
528.412	34706.93
528.614	34995.69
528.815	35180.01
529.016	35446.24
529.218	34991.59
529.419	35345.89
529.62	35646.94
529.822	35587.55
530.023	35624.42
530.224	35337.7
530.425	35415.52
530.626	35444.2
530.828	35364.32
531.029	36167.13
531.23	35880.41
531.431	35517.92
531.632	35976.67
531.833	36314.58
532.035	35991
532.236	36081.11
532.437	36410.84
532.638	36476.37
532.839	36388.31
533.04	36414.93
533.241	36128.22
533.442	36685.26
533.643	36251.09
533.844	36111.83
534.045	36195.8
534.246	36283.86
534.447	36531.67
534.648	36312.53
534.849	36546
535.05	36222.42
535.251	36451.8
535.451	36498.9
535.652	36779.47
535.853	36556.24
536.054	36646.35
536.255	37057.99
536.456	36259.29
536.657	37238.22
536.857	36222.42
537.058	36169.18
537.259	36646.35
537.46	36484.56
537.66	36052.44
537.861	36498.9
538.062	36038.11
538.263	36300.25
538.463	36371.93
538.664	36267.48
538.865	36767.18
539.065	36691.41
539.266	36128.22
539.466	36748.75
539.667	35923.42
539.868	36744.66
540.068	36365.78
540.269	36373.97
540.469	36646.35
540.67	36316.63
540.87	36578.77
541.071	36292.05
541.271	36386.26
541.472	36373.97
541.672	36433.36
541.873	36431.32
542.073	35845.6
542.274	36703.7
542.474	36672.98
542.675	35988.95
542.875	36605.39
543.075	36384.21
543.276	36044.25
543.476	36509.14
543.676	36169.18
543.877	36421.08
544.077	36398.55
544.277	36449.75
544.478	35997.15
544.678	36271.57
544.878	36398.55
545.078	36441.56
545.279	36249.05
545.479	35948
545.679	36259.29
545.879	36077.02
546.079	36357.59
546.28	36077.02
546.48	35814.88
546.68	36302.29
546.88	36244.95
547.08	36257.24
547.28	35911.13
547.48	35749.34
547.68	36277.72
547.88	36275.67
548.081	36347.35
548.281	36210.14
548.481	36320.73
548.681	36353.49
548.881	36140.5
549.081	35790.3
549.28	35554.79
549.48	35933.66
549.68	35907.04
549.88	36431.32
550.08	35714.53
550.28	35679.71
550.48	36144.6
550.68	36220.38
550.88	35978.71
551.08	35943.9
551.279	36064.73
551.479	35524.07
551.679	35800.54
551.879	35970.52
552.079	36203.99
552.278	35872.22
552.478	35921.37
552.678	35929.56
552.878	35847.65
553.077	36091.35
553.277	35460.58
553.477	35978.71
553.676	36036.06
553.876	35896.8
554.076	35704.29
554.275	35390.95
554.475	35444.2
554.674	35261.93
554.874	36068.83
555.074	35208.68
555.273	35554.79
555.473	35628.51
555.672	35413.48
555.872	35270.12
556.071	35374.56
556.271	35393
556.47	35409.38
556.67	34794.99
556.869	35290.6
557.068	35507.68
557.268	35028.46
557.467	35292.65
557.667	34899.44
557.866	35196.39
558.065	35126.76
558.265	34668.01
558.464	34850.28
558.663	35220.97
558.863	34821.61
559.062	35403.24
559.261	34610.67
559.461	35118.57
559.66	34278.9
559.859	34928.11
560.058	34452.98
560.258	34582
560.457	34389.49
560.656	34663.92
560.855	34448.88
561.054	34305.52
561.253	34307.57
561.453	34715.12
561.652	34293.24
561.851	34414.07
562.05	34172.41
562.249	33508.86
562.448	34209.27
562.647	33771
562.846	34067.96
563.045	34065.91
563.244	33701.37
563.443	34221.56
563.642	33445.38
563.841	33730.05
564.04	33639.93
564.239	34063.86
564.438	33254.92
564.637	33670.65
564.836	33228.29
565.035	33156.61
565.234	33603.07
565.432	33179.14
565.631	33199.62
565.83	33551.87
566.029	33531.39
566.228	32878.09
566.427	33162.76
566.625	33000.97
566.824	32421.39
567.023	33183.24
567.222	32454.16
567.42	33033.74
567.619	32464.4
567.818	32759.31
568.016	32568.85
568.215	32843.27
568.414	32388.63
568.612	32464.4
568.811	32439.83
569.01	32450.06
569.208	31952.41
569.407	32230.93
569.605	31546.91
569.804	32015.9
570.002	31467.04
570.201	31983.13
570.4	31643.17
570.598	31815.19
570.797	31157.8
570.995	31512.1
571.193	31548.96
571.392	31606.3
571.59	31497.76
571.789	31245.86
571.987	31120.93
572.186	31264.29
572.384	31006.25
572.582	31163.94
572.781	31139.36
572.979	30697
573.177	30758.44
573.376	30629.42
573.574	30692.91
573.772	31079.97
573.971	30461.49
574.169	30375.47
574.367	29908.54
574.565	30303.79
574.763	30428.72
574.962	29972.02
575.16	29982.26
575.358	30066.23
575.556	29795.9
575.754	29939.26
575.952	29255.23
576.151	29810.23
576.349	29068.87
576.547	29455.93
576.745	29224.51
576.943	29343.3
577.141	29267.52
577.339	29134.4
577.537	28937.8
577.735	29064.77
577.933	29138.5
578.131	29109.83
578.329	28747.34
578.527	28696.14
578.725	28730.95
578.923	28991.05
579.121	28841.54
579.319	28511.82
579.516	28745.29
579.714	28575.31
579.912	28364.37
580.11	28321.36
580.308	28229.2
580.506	28499.53
580.704	27760.22
580.901	28196.43
581.099	27942.49
581.297	27639.39
581.495	27563.61
581.692	27551.32
581.89	27276.9
582.088	28036.69
582.285	27608.67
582.483	27663.96
582.681	27287.14
582.878	27094.63
583.076	26988.13
583.274	27229.79
583.471	26676.84
583.669	26967.65
583.866	26746.47
584.064	26910.31
584.262	26412.65
584.459	26809.96
584.657	26504.81
584.854	26738.28
585.052	26177.14
585.249	26453.61
585.447	26515.05
585.644	26152.56
585.841	26297.97
586.039	26588.78
586.236	26003.06
586.434	26037.87
586.631	25681.53
586.828	25724.54
587.026	25919.09
587.223	25874.04
587.42	25638.52
587.618	25452.16
587.815	25390.72
588.012	25357.95
588.21	25212.54
588.407	25560.7
588.604	25230.97
588.801	25159.3
588.999	25052.8
589.196	24977.03
589.393	25212.54
589.59	24974.98
589.787	24481.42
589.984	24821.38
590.182	24352.4
590.379	24809.09
590.576	24387.21
590.773	24266.38
590.97	24327.82
591.167	24592.01
591.364	24020.63
591.561	24276.62
591.758	24133.26
591.955	23957.14
592.152	24086.16
592.349	23738.01
592.546	23971.47
592.743	24088.21
592.94	23375.52
593.137	23602.84
593.334	23672.47
593.531	23477.91
593.727	23363.23
593.924	23363.23
594.121	22974.11
594.318	23563.93
594.515	22843.04
594.712	23031.46
594.908	23006.88
595.105	22679.21
595.302	22720.17
595.499	22924.96
595.696	22896.29
595.892	22220.46
596.089	22593.19
596.286	22566.57
596.482	22451.88
596.679	22329
596.876	22660.77
597.072	22152.88
597.269	22296.24
597.466	22034.1
597.662	22081.2
597.859	21909.17
598.055	21853.87
598.252	21880.5
598.448	21907.12
598.645	21837.49
598.841	21544.63
599.038	21489.34
599.234	21696.18
599.431	21388.99
599.627	21223.1
599.824	21423.8
600.02	21438.14
600.217	21259.96
600.413	20911.81
600.609	21044.93
600.806	20995.78
601.002	21225.15
601.198	20917.95
601.395	20782.79
601.591	20643.52
601.787	20625.09
601.984	20768.45
602.18	21008.06
602.376	20510.41
602.572	20467.4
602.769	20485.83
602.965	20205.26
603.161	20391.62
603.357	20285.13
603.553	20084.43
603.75	20145.87
603.946	19803.86
604.142	20049.61
604.338	19609.3
604.534	19887.82
604.73	19810
604.926	19607.25
605.122	19869.39
605.318	19515.09
605.514	19599.06
605.71	19357.4
605.906	19562.2
606.102	19418.84
606.298	19527.38
606.494	19377.88
606.69	19412.7
606.886	19300.06
607.082	18788.07
607.278	19369.69
607.474	19013.34
607.67	19156.7
607.866	18759.39
608.062	18874.08
608.257	18581.22
608.453	18812.64
608.649	18847.46
608.845	18640.61
609.041	18632.42
609.236	18605.8
609.432	18386.66
609.628	18607.84
609.824	18634.47
610.019	18464.49
610.215	18046.7
610.411	18427.62
610.606	18312.94
610.802	18360.04
610.998	18329.32
611.193	18368.23
611.389	18245.35
611.584	18116.33
611.78	17784.56
611.976	17952.49
612.171	18044.65
612.367	17796.85
612.562	17825.52
612.758	17776.37
612.953	17690.35
613.149	18009.84
613.344	17544.95
613.539	17841.9
613.735	17782.51
613.93	17553.14
614.126	17487.61
614.321	17635.06
614.517	17293.05
614.712	17399.54
614.907	17274.62
615.103	17577.72
615.298	17352.44
615.493	17542.9
615.688	16715.52
615.884	17538.8
616.079	17143.55
616.274	17198.84
616.47	17084.16
616.665	17012.48
616.86	17182.46
617.055	17129.21
617.25	16957.18
617.445	17133.31
617.641	16848.64
617.836	16746.24
618.031	16545.54
618.226	16819.97
618.421	16570.12
618.616	16609.03
618.811	16467.72
619.006	16508.68
619.201	16398.09
619.396	16365.32
619.591	16248.58
619.786	16371.46
619.981	16088.84
620.176	16238.34
620.371	15890.19
620.566	16228.1
620.761	15568.66
620.956	15867.66
621.151	15521.56
621.346	15673.1
621.541	15343.38
621.735	15453.97
621.93	15370.01
622.125	15484.69
622.32	15177.5
622.515	15243.03
622.709	15111.96
622.904	15111.96
623.099	14984.99
623.294	15046.43
623.488	14823.2
623.683	14823.2
623.878	14556.96
624.072	14505.76
624.267	14567.2
624.462	14350.12
624.656	14108.46
624.851	14421.8
625.046	13950.76
625.24	14147.37
625.435	14130.98
625.629	14067.5
625.824	13723.44
626.018	13831.98
626.213	13655.86
626.407	13803.31
626.602	13446.96
626.796	13602.61
626.991	13360.95
627.185	13408.05
627.38	13205.3
627.574	13319.99
627.768	13102.9
627.963	13012.79
628.157	13020.99
628.352	13000.51
628.546	12734.27
628.74	12889.92
628.935	12705.6
629.129	12871.48
629.323	12269.38
629.517	12592.96
629.712	12601.15
629.906	12451.65
630.1	12351.3
630.294	12076.87
630.489	12416.83
630.683	12300.1
630.877	11874.12
631.071	11990.86
631.265	11984.71
631.459	11913.03
631.653	11775.82
631.848	11788.11
632.042	11800.4
632.236	11681.61
632.43	11591.5
632.624	11679.57
632.818	11573.07
633.012	11493.2
633.206	11186.01
633.4	11362.13
633.594	11347.79
633.788	11145.05
633.982	11294.55
634.176	11267.92
634.369	10964.82
634.563	10903.39
634.757	11011.93
634.951	10700.64
635.145	10870.62
635.339	10788.7
635.533	10606.43
635.726	10612.57
635.92	10649.44
636.114	10358.63
636.308	10254.18
636.501	10284.9
636.695	10321.76
636.889	10264.42
637.083	10221.41
637.276	10006.38
637.47	9998.18
637.664	10071.91
637.857	9891.69
638.051	10033
638.244	9834.35
638.438	9844.59
638.632	9621.36
638.825	9244.53
639.019	9682.8
639.212	9586.54
639.406	9580.4
639.599	9568.11
639.793	9412.46
639.986	9426.8
640.18	9357.17
640.373	9322.35
640.567	9154.42
640.76	9113.46
640.954	9133.94
641.147	9002.87
641.34	9049.97
641.534	9006.97
641.727	8941.43
641.92	9015.16
642.114	8839.03
642.307	8820.6
642.5	8748.92
642.694	8521.6
642.887	8763.26
643.08	8718.2
643.273	8501.12
643.467	8513.41
643.66	8281.99
643.853	8435.58
644.046	8257.41
644.239	8310.66
644.432	8320.9
644.626	8038.28
644.819	7966.6
645.012	8245.12
645.205	8048.52
645.398	8212.35
645.591	7937.93
645.784	8058.76
645.977	7860.1
646.17	8034.18
646.363	7761.8
646.556	7663.5
646.749	7868.3
646.942	7655.31
647.135	7647.12
647.328	7511.95
647.521	7526.29
647.714	7198.61
647.907	7460.75
648.099	7436.17
648.292	7444.37
648.485	7413.65
648.678	7225.23
648.871	7303.06
649.064	7143.32
649.256	7049.11
649.449	7065.49
649.642	7036.82
649.835	7057.3
650.027	6930.33
650.22	6842.26
650.413	6862.74
650.605	6746.01
650.798	6668.19
650.991	6813.59
651.183	6827.93
651.376	6551.45
651.568	6754.2
651.761	6639.51
651.954	6723.48
652.146	6598.56
652.339	6651.8
652.531	6455.2
652.724	6522.78
652.916	6289.31
653.109	6451.1
653.301	6481.82
653.494	6272.93
653.686	6287.26
653.879	6324.13
654.071	6295.46
654.263	6104.99
654.456	6125.47
654.648	6283.17
654.84	6059.94
655.033	5980.07
655.225	6123.43
655.417	5928.87
655.61	5844.9
655.802	5812.14
655.994	6104.99
656.186	5986.21
656.379	5836.71
656.571	5754.79
656.763	5801.9
656.955	5648.3
657.148	5521.32
657.34	5701.55
657.532	5556.14
657.724	5492.65
657.916	5683.11
658.108	5543.85
658.3	5341.1
658.492	5457.84
658.684	5437.36
658.876	5437.36
659.068	5267.38
659.26	5423.02
659.452	5394.35
659.644	5320.62
659.836	5169.07
660.028	5302.19
660.22	5255.09
660.412	5158.83
660.604	5066.67
660.796	5058.48
660.988	5033.91
661.18	4898.74
661.372	4962.23
661.563	4865.97
661.755	4816.82
661.947	4843.45
662.139	4986.8
662.331	4882.36
662.522	4837.3
662.714	4880.31
662.906	4648.89
663.097	4599.74
663.289	4855.73
663.481	4603.83
663.673	4822.97
663.864	4673.46
664.056	4542.39
664.247	4468.67
664.439	4542.39
664.631	4419.52
664.822	4679.61
665.014	4403.13
665.205	4364.22
665.397	4349.89
665.588	4370.37
665.78	4288.45
665.971	4423.61
666.163	4206.53
666.354	4175.81
666.546	4079.55
666.737	4278.21
666.929	4210.62
667.12	4255.68
667.311	4106.18
667.503	4165.57
667.694	4128.7
667.885	4020.16
668.077	4200.38
668.268	4003.78
668.459	4073.41
668.651	3987.4
668.842	3903.43
669.033	3936.2
669.224	3788.74
669.416	3907.52
669.607	3948.48
669.798	3874.76
669.989	3915.72
670.18	3698.63
670.371	3905.48
670.563	3833.8
670.754	3790.79
670.945	3723.21
671.136	3766.21
671.327	3782.6
671.518	3760.07
671.709	3674.06
671.9	3706.82
672.091	3688.39
672.282	3706.82
672.473	3815.37
672.664	3698.63
672.855	3538.89
673.046	3676.1
673.237	3620.81
673.428	3395.53
673.619	3528.65
673.809	3456.97
674	3637.19
674.191	3430.35
674.382	3522.51
674.573	3432.4
674.764	3506.12
674.954	3538.89
675.145	3475.4
675.336	3370.96
675.527	3465.16
675.717	3330
675.908	3260.37
676.099	3305.42
676.289	3352.52
676.48	3278.8
676.671	3272.65
676.861	3252.17
677.052	3407.82
677.243	3270.61
677.433	3299.28
677.624	3274.7
677.814	3258.32
678.005	3219.41
678.195	3276.75
678.386	3272.65
678.576	3176.4
678.767	3274.7
678.957	3207.12
679.148	3346.38
679.338	3370.96
679.529	3243.98
679.719	3151.82
679.909	3280.85
680.1	3192.78
680.29	3243.98
680.481	3168.21
680.671	3289.04
680.861	3106.77
681.052	3141.58
681.242	3157.97
681.432	3147.73
681.622	3217.36
681.813	3149.78
682.003	3254.22
682.193	3041.23
682.383	3256.27
682.573	3117.01
682.764	3026.9
682.954	3100.62
683.144	3053.52
683.334	2875.35
683.524	3006.42
683.714	3061.71
683.904	3192.78
684.094	3135.44
684.284	3037.14
684.474	3092.43
684.664	3129.3
684.854	3110.86
685.044	3014.61
685.234	3051.47
685.424	3067.86
685.614	3067.86
685.804	3071.95
685.994	3094.48
686.184	2938.84
686.374	2906.07
686.564	2947.03
686.753	3088.34
686.943	2977.75
687.133	2897.88
687.323	2973.65
687.513	3026.9
687.702	2987.99
687.892	2815.96
688.082	2899.92
688.272	2975.7
688.461	2867.16
688.651	2820.05
688.841	2920.4
689.03	2904.02
689.22	2889.68
689.41	2826.2
689.599	2797.53
689.789	2834.39
689.979	2678.74
690.168	2777.05
690.358	2797.53
690.547	2815.96
690.737	2787.29
690.926	2895.83
691.116	2854.87
691.305	2660.31
691.495	2713.56
691.684	2629.59
691.874	2748.37
692.063	2738.13
692.252	2695.13
692.442	2631.64
692.631	2775
692.82	2658.26
693.01	2588.63
693.199	2654.17
693.388	2756.57
693.578	2602.97
693.767	2635.74
693.956	2588.63
694.146	2586.58
694.335	2731.99
694.524	2639.83
694.713	2568.15
694.902	2465.75
695.092	2557.91
695.281	2488.28
695.47	2471.9
695.659	2570.2
695.848	2420.7
696.037	2529.24
696.226	2504.67
696.415	2488.28
696.604	2498.52
696.793	2414.56
696.982	2449.37
697.171	2506.71
697.36	2420.7
697.549	2496.47
697.738	2379.74
697.927	2381.79
698.116	2469.85
698.305	2406.36
698.494	2461.66
698.683	2406.36
698.872	2519
699.061	2316.25
699.25	2447.32
699.438	2375.64
699.627	2351.07
699.816	2447.32
700.005	2283.49
700.193	2324.44
700.382	2355.16
700.571	2406.36
700.76	2277.34
700.948	2363.36
701.137	2306.01
701.326	2340.83
701.514	2222.05
701.703	2322.4
701.892	2297.82
702.08	2365.4
702.269	2326.49
702.457	2174.94
702.646	2338.78
702.834	2322.4
703.023	2244.57
703.212	2439.13
703.4	2273.25
703.589	2260.96
703.777	2166.75
703.965	2250.72
704.154	2166.75
704.342	2195.42
704.531	2176.99
704.719	2285.53
704.907	2191.33
705.096	2172.89
705.284	2265.05
705.472	2306.01
705.661	2195.42
705.849	2234.33
706.037	2174.94
706.226	2328.54
706.414	2232.29
706.602	2183.13
706.79	2285.53
706.979	2312.16
707.167	2228.19
707.355	2168.8
707.543	2199.52
707.731	2265.05
707.919	2113.5
708.107	2166.75
708.296	2107.36
708.484	2179.04
708.672	2084.83
708.86	2265.05
709.048	2224.09
709.236	2029.54
709.424	2244.57
709.612	2168.8
709.8	2215.9
709.988	2043.87
710.176	2158.56
710.364	2199.52
710.551	2105.31
710.739	2035.68
710.927	2179.04
711.115	2068.45
711.303	2113.5
711.491	2136.03
711.679	2076.64
711.866	2125.79
712.054	2181.09
712.242	2160.61
712.43	2109.41
712.617	2119.65
712.805	2142.18
712.993	2043.87
713.181	2027.49
713.368	2119.65
713.556	1929.19
713.744	1920.99
713.931	2095.07
714.119	2142.18
714.306	2084.83
714.494	2097.12
714.682	2101.22
714.869	2002.91
715.057	1957.86
715.244	2004.96
715.432	2064.35
715.619	2031.59
715.807	2136.03
715.994	2125.79
716.182	2072.54
716.369	2105.31
716.556	2013.15
716.744	2017.25
716.931	1890.28
717.119	2150.37
717.306	2027.49
717.493	2043.87
717.681	2007.01
717.868	1986.53
718.055	2037.73
718.242	2004.96
718.43	2052.06
718.617	2056.16
718.804	2047.97
718.991	2068.45
719.179	1970.15
719.366	2013.15
719.553	2013.15
719.74	1986.53
719.927	2011.11
720.114	2023.39
720.301	2052.06
720.488	1994.72
720.676	2047.97
720.863	2039.78
721.05	2035.68
721.237	2021.35
721.424	1933.28
721.611	2035.68
721.798	1955.81
721.985	2019.3
722.172	1912.8
722.358	1896.42
722.545	1980.39
722.732	1900.51
722.919	1906.66
723.106	1929.19
723.293	1986.53
723.48	2011.11
723.667	1955.81
723.853	1927.14
724.04	2117.6
724.227	1929.19
724.414	1888.23
724.6	2019.3
724.787	2015.2
724.974	2023.39
725.161	1972.19
725.347	1986.53
725.534	1957.86
725.72	2011.11
725.907	1959.91
726.094	1937.38
726.28	1929.19
726.467	1880.04
726.653	1994.72
726.84	2027.49
727.027	1964
727.213	1949.67
727.4	1984.48
727.586	1888.23
727.773	1964
727.959	1951.71
728.145	1945.57
728.332	1869.8
728.518	2013.15
728.705	1904.61
728.891	1937.38
729.077	1947.62
729.264	1912.8
729.45	1925.09
729.636	1974.24
729.823	1929.19
730.009	1925.09
730.195	2019.3
730.382	1964
730.568	1968.1
730.754	1953.76
730.94	1914.85
731.126	1951.71
731.313	1996.77
731.499	1843.17
731.685	1939.43
731.871	1863.65
732.057	1914.85
732.243	2047.97
732.429	1978.34
732.615	2004.96
732.801	1914.85
732.987	1920.99
733.173	1945.57
733.359	2035.68
733.545	1904.61
733.731	1871.84
733.917	1912.8
734.103	1812.45
734.289	1892.32
734.475	1814.5
734.661	2023.39
734.847	2002.91
735.033	1920.99
735.219	1841.12
735.404	1892.32
735.59	1875.94
735.776	1898.47
735.962	1820.64
736.148	1841.12
736.333	1884.13
736.519	1814.5
736.705	1908.71
736.89	1914.85
737.076	1722.34
737.262	1781.73
737.447	1822.69
737.633	1814.5
737.819	1855.46
738.004	1931.23
738.19	1843.17
738.375	1757.16
738.561	1867.75
738.747	1849.32
738.932	1720.29
739.118	1812.45
739.303	1777.64
739.489	1734.63
739.674	1783.78
739.859	1744.87
740.045	1791.97
740.23	1687.53
740.416	1791.97
740.601	1818.6
740.786	1789.92
740.972	1824.74
741.157	1683.43
741.342	1791.97
741.528	1794.02
741.713	1779.68
741.898	1724.39
742.084	1681.38
742.269	1757.16
742.454	1740.77
742.639	1761.25
742.824	1779.68
743.01	1589.22
743.195	1671.14
743.38	1703.91
743.565	1646.57
743.75	1759.21
743.935	1695.72
744.12	1791.97
744.305	1677.29
744.49	1617.9
744.675	1644.52
744.86	1626.09
745.045	1658.85
745.23	1552.36
745.415	1691.62
745.6	1568.74
745.785	1656.81
745.97	1589.22
746.155	1556.46
746.34	1679.33
746.525	1558.5
746.71	1556.46
746.895	1486.83
747.079	1566.7
747.264	1531.88
747.449	1544.17
747.634	1609.7
747.819	1513.45
748.003	1482.73
748.188	1503.21
748.373	1525.74
748.557	1505.26
748.742	1529.83
748.927	1470.44
749.111	1445.87
749.296	1488.87
749.481	1581.03
749.665	1433.58
749.85	1445.87
750.034	1368.04
750.219	1456.11
750.404	1304.56
750.588	1372.14
750.773	1372.14
750.957	1409
751.141	1388.52
751.326	1421.29
751.51	1191.92
751.695	1241.07
751.879	1286.12
752.064	1374.19
752.248	1327.08
752.432	1302.51
752.617	1322.99
752.801	1298.41
752.985	1253.36
753.17	1267.69
753.354	1292.27
753.538	1226.73
753.722	1159.15
753.907	1175.53
754.091	1159.15
754.275	1202.16
754.459	1159.15
754.643	1171.44
754.828	1163.25
755.012	1218.54
755.196	1234.93
755.38	1185.77
755.564	1124.33
755.748	1177.58
755.932	1140.72
756.116	1120.24
756.3	1060.85
756.484	1120.24
756.668	1101.81
756.852	1009.65
757.036	1136.62
757.22	1019.89
757.404	1228.78
757.588	1128.43
757.772	1089.52
757.956	1124.33
758.14	1093.62
758.323	1093.62
758.507	1118.19
758.691	1015.79
758.875	1011.7
759.059	964.59
759.242	1003.5
759.426	1099.76
759.61	978.93
759.794	1044.46
759.977	1028.08
760.161	1118.19
760.345	1003.5
760.528	929.78
760.712	950.26
760.895	888.82
761.079	935.92
761.263	958.45
761.446	923.63
761.63	958.45
761.813	1011.7
761.997	976.88
762.18	913.39
762.364	929.78
762.547	890.87
762.731	933.87
762.914	882.67
763.098	856.05
763.281	888.82
763.464	897.01
763.648	829.43
763.831	872.43
764.015	866.29
764.198	917.49
764.381	919.54
764.564	935.92
764.748	897.01
764.931	917.49
765.114	890.87
765.297	907.25
765.481	880.63
765.664	856.05
765.847	950.26
766.03	813.04
766.213	802.8
766.397	880.63
766.58	823.28
766.763	790.52
766.946	798.71
767.129	833.52
767.312	847.86
767.495	854
767.678	825.33
767.861	653.3
768.044	851.95
768.227	770.04
768.41	780.28
768.593	831.48
768.776	819.19
768.959	815.09
769.142	815.09
769.324	808.95
769.507	825.33
769.69	759.8
769.873	749.56
770.056	790.52
770.239	759.8
770.421	733.17
770.604	823.28
770.787	778.23
770.97	712.69
771.152	708.6
771.335	765.94
771.518	757.75
771.7	755.7
771.883	708.6
772.066	741.36
772.248	718.84
772.431	757.75
772.613	811
772.796	753.65
772.978	806.9
773.161	694.26
773.343	718.84
773.526	702.45
773.708	657.4
773.891	645.11
774.073	696.31
774.256	727.03
774.438	675.83
774.621	735.22
774.803	712.69
774.985	651.25
775.168	663.54
775.35	544.76
775.532	663.54
775.715	659.45
775.897	761.84
776.079	538.62
776.261	661.49
776.444	569.34
776.626	659.45
776.808	651.25
776.99	600.05
777.173	552.95
777.355	585.72
777.537	593.91
777.719	602.1
777.901	546.81
778.083	536.57
778.265	524.28
778.447	585.72
778.629	511.99
778.811	511.99
778.993	552.95
779.175	643.06
779.357	522.23
779.539	548.86
779.721	552.95
779.903	608.25
780.085	520.18
780.267	581.62
780.449	520.18
780.631	561.14
780.812	536.57
780.994	499.7
781.176	454.65
781.358	548.86
781.54	511.99
781.721	505.85
781.903	511.99
782.085	481.27
782.267	489.46
782.448	415.74
782.63	544.76
782.812	448.51
782.993	450.55
783.175	440.31
783.357	532.47
783.538	446.46
783.72	479.22
783.901	471.03
784.083	450.55
784.264	448.51
784.446	333.82
784.627	454.65
784.809	409.59
784.99	411.64
785.172	462.84
785.353	401.4
785.535	401.4
785.716	471.03
785.897	335.87
786.079	348.15
786.26	468.98
786.441	380.92
786.623	430.07
786.804	352.25
786.985	368.63
787.167	323.58
787.348	385.02
787.529	368.63
787.71	385.02
787.891	378.87
788.073	358.39
788.254	299
788.435	475.13
788.616	251.9
788.797	385.02
788.978	282.62
789.159	339.96
789.34	440.31
789.522	399.35
789.703	374.78
789.884	376.83
790.065	339.96
790.246	372.73
790.427	331.77
790.607	364.54
790.788	364.54
790.969	317.44
791.15	352.25
791.331	225.28
791.512	382.97
791.693	323.58
791.874	284.67
792.054	325.63
792.235	362.49
792.416	268.28
792.597	256
792.778	266.24
792.958	356.35
793.139	262.14
793.32	333.82
793.5	348.15
793.681	315.39
793.862	219.13
794.042	262.14
794.223	217.08
794.404	307.2
794.584	233.47
794.765	331.77
794.945	325.63
795.126	264.19
795.306	382.97
795.487	217.08
795.667	385.02
795.848	282.62
796.028	290.81
796.209	204.8
796.389	276.48
796.57	274.43
796.75	192.51
796.93	288.76
797.111	176.13
797.291	266.24
797.471	217.08
797.652	217.08
797.832	243.71
798.012	317.44
798.192	249.85
798.373	167.93
798.553	178.17
798.733	253.95
798.913	301.05
799.093	190.46
799.274	243.71
799.454	249.85
799.634	243.71
799.814	307.2
799.994	215.04
800.174	251.9
800.354	239.61
800.534	118.78
800.714	219.13
800.894	241.66
801.074	196.61
801.254	192.51
801.434	276.48
801.614	251.9
801.794	276.48
801.974	890.87
802.154	180.22
802.334	229.37
802.514	221.18
802.693	247.8
802.873	118.78
803.053	266.24
803.233	208.89
803.413	231.42
803.592	180.22
803.772	186.37
803.952	167.93
804.131	192.51
804.311	290.81
804.491	176.13
804.67	204.8
804.85	192.51
805.03	155.65
805.209	188.41
805.389	231.42
805.568	159.74
805.748	155.65
805.928	153.6
806.107	188.41
806.287	174.08
806.466	131.07
806.646	184.32
806.825	178.17
807.004	206.84
807.184	167.93
807.363	231.42
807.543	118.78
807.722	208.89
807.901	198.65
808.081	237.56
808.26	151.55
808.439	200.7
808.619	188.41
808.798	202.75
808.977	161.79
809.156	118.78
809.336	167.93
809.515	126.97
809.694	108.54
809.873	155.65
810.052	153.6
810.231	217.08
810.411	167.93
810.59	204.8
810.769	172.03
810.948	229.37
811.127	98.3
811.306	124.93
811.485	178.17
811.664	118.78
811.843	165.89
812.022	112.64
812.201	122.88
812.38	258.04
812.559	217.08
812.737	129.02
812.916	71.68
813.095	153.6
813.274	88.06
813.453	182.27
813.632	135.17
813.811	180.22
813.989	71.68
814.168	94.21
814.347	165.89
814.526	135.17
814.704	129.02
814.883	176.13
815.062	135.17
815.24	178.17
815.419	126.97
815.598	83.97
815.776	126.97
815.955	108.54
816.133	143.36
816.312	96.25
816.49	126.97
816.669	96.25
816.847	118.78
817.026	51.2
817.204	192.51
817.383	92.16
817.561	137.21
817.74	186.37
817.918	129.02
818.097	172.03
818.275	120.83
818.453	182.27
818.632	172.03
818.81	210.94
818.988	96.25
819.167	106.49
819.345	96.25
819.523	108.54
819.701	86.01
819.879	198.65
820.058	159.74
820.236	182.27
820.414	122.88
820.592	98.3
820.77	184.32
820.948	153.6
821.127	124.93
821.305	86.01
821.483	63.49
821.661	176.13
821.839	75.77
822.017	61.44
822.195	69.63
822.373	77.82
822.551	131.07
822.729	108.54
822.907	36.86
823.085	143.36
823.262	159.74
823.44	129.02
823.618	159.74
823.796	131.07
823.974	83.97
824.152	137.21
824.329	86.01
824.507	69.63
824.685	61.44
824.863	106.49
825.04	210.94
825.218	57.34
825.396	129.02
825.574	61.44
825.751	151.55
825.929	153.6
826.107	79.87
826.284	98.3
826.462	100.35
826.639	112.64
826.817	53.25
826.994	94.21
827.172	122.88
827.349	77.82
827.527	49.15
827.704	106.49
827.882	169.98
828.059	71.68
828.237	106.49
828.414	116.73
828.591	135.17
828.769	110.59
828.946	51.2
829.124	69.63
829.301	145.41
829.478	79.87
829.655	143.36
829.833	53.25
830.01	122.88
830.187	112.64
830.364	137.21
830.542	20.48
830.719	114.69
830.896	94.21
831.073	126.97
831.25	69.63
831.427	81.92
831.604	110.59
831.782	20.48
831.959	135.17
832.136	28.67
832.313	120.83
832.49	86.01
832.667	120.83
832.844	102.4
833.021	100.35
833.198	65.54
833.374	75.77
833.551	36.86
833.728	18.43
833.905	126.97
834.082	-22.53
834.259	71.68
834.436	61.44
834.612	6.14
834.789	167.93
834.966	88.06
835.143	90.11
835.319	61.44
835.496	73.73
835.673	102.4
835.85	114.69
836.026	73.73
836.203	118.78
836.38	14.34
836.556	90.11
836.733	51.2
836.909	102.4
837.086	65.54
837.262	4.1
837.439	30.72
837.616	90.11
837.792	65.54
837.968	40.96
838.145	16.38
838.321	45.06
838.498	-8.19
838.674	49.15
838.851	47.1
839.027	53.25
839.203	94.21
839.38	49.15
839.556	65.54
839.732	12.29
839.909	53.25
840.085	79.87
840.261	-12.29
840.437	129.02
840.614	45.06
840.79	63.49
840.966	30.72
841.142	12.29
841.318	0
841.494	8.19
841.671	36.86
841.847	-12.29
842.023	-4.1
842.199	55.3
842.375	94.21
842.551	4.1
842.727	-20.48
842.903	71.68
843.079	0
843.255	45.06
843.431	67.58
843.607	4.1
843.783	4.1
843.959	67.58
844.134	47.1
844.31	28.67
844.486	55.3
844.662	53.25
844.838	40.96
845.013	36.86
845.189	114.69
845.365	38.91
845.541	-12.29
845.716	90.11
845.892	102.4
846.068	81.92
846.244	61.44
846.419	71.68
846.595	30.72
846.77	96.25
846.946	100.35
847.122	24.58
847.297	-6.14
847.473	98.3
847.648	69.63
847.824	53.25
847.999	-32.77
848.175	88.06
848.35	92.16
848.526	81.92
848.701	47.1
848.876	67.58
849.052	45.06
849.227	34.82
849.403	63.49
849.578	6.14
849.753	12.29
849.929	98.3
850.104	24.58
850.279	4.1
850.454	12.29
850.63	32.77
850.805	40.96
850.98	32.77
851.155	61.44
851.33	45.06
851.505	20.48
851.681	90.11
851.856	24.58
852.031	110.59
852.206	55.3
852.381	0
852.556	-16.38
852.731	24.58
852.906	36.86
853.081	53.25
853.256	10.24
853.431	24.58
853.606	47.1
853.781	26.62
853.956	-12.29
854.131	73.73
854.305	-28.67
854.48	16.38
854.655	36.86
854.83	16.38
855.005	45.06
855.18	47.1
855.354	65.54
855.529	4.1
855.704	14.34
855.879	40.96
856.053	20.48
856.228	4.1
856.403	45.06
856.577	30.72
856.752	-18.43
856.926	-16.38
857.101	-8.19
857.276	-4.1
857.45	22.53
857.625	-10.24
857.799	94.21
857.974	30.72
858.148	-2.05
858.323	32.77
858.497	4.1
858.672	10.24
858.846	22.53
859.02	24.58
859.195	61.44
859.369	40.96
859.543	4.1
859.718	94.21
859.892	16.38
860.066	8.19
860.241	34.82
860.415	-38.91
860.589	-30.72
860.763	102.4
860.938	22.53
861.112	34.82
861.286	6.14
861.46	96.25
861.634	-18.43
861.808	-30.72
861.982	10.24
862.157	-12.29
862.331	63.49
862.505	-49.15
862.679	24.58
862.853	0
863.027	126.97
863.201	45.06
863.375	-28.67
863.549	32.77
863.722	55.3
863.896	104.45
864.07	-28.67
864.244	4.1
864.418	57.34
864.592	28.67
864.766	69.63
864.939	6.14
865.113	-26.62
865.287	24.58
865.461	-51.2
865.634	86.01
865.808	-12.29
865.982	-20.48
866.156	26.62
866.329	-36.86
866.503	24.58
866.676	73.73
866.85	47.1
867.024	30.72
867.197	14.34
867.371	137.21
867.544	12.29
867.718	-4.1
867.891	92.16
868.065	-94.21
868.238	118.78
868.412	79.87
868.585	0
868.759	-8.19
868.932	61.44
869.105	-20.48
869.279	38.91
869.452	-59.39
869.625	96.25
869.799	73.73
869.972	28.67
870.145	77.82
870.319	47.1
870.492	-16.38
870.665	20.48
870.838	6.14
871.011	94.21
871.185	-61.44
871.358	77.82
871.531	22.53
871.704	77.82
871.877	83.97
872.05	57.34
872.223	-18.43
872.396	96.25
872.569	94.21
872.742	22.53
872.915	36.86
873.088	69.63
873.261	67.58
873.434	-20.48
873.607	36.86
873.78	69.63
873.953	0
874.126	57.34
874.299	30.72
874.471	47.1
874.644	-28.67
874.817	-86.01
874.99	96.25
875.163	-8.19
875.335	36.86
875.508	-12.29
875.681	53.25
875.853	-45.06
876.026	43.01
876.199	51.2
876.371	-16.38
876.544	45.06
876.717	38.91
876.889	28.67
877.062	12.29
877.234	18.43
877.407	4.1
877.579	-53.25
877.752	18.43
877.924	100.35
878.097	32.77
878.269	-4.1
878.442	94.21
878.614	16.38
878.786	-24.58
878.959	49.15
879.131	102.4
879.303	-94.21
879.476	81.92
879.648	36.86
879.82	-8.19
879.993	96.25
880.165	47.1
880.337	-38.91
880.509	-10.24
880.681	-30.72
880.854	22.53
881.026	51.2
881.198	40.96
881.37	-20.48
881.542	-36.86
881.714	24.58
881.886	16.38
882.058	4.1
882.23	4.1
882.402	-14.34
882.574	10.24
882.746	73.73
882.918	6.14
883.09	0
883.262	69.63
883.434	69.63
883.606	-67.58
883.778	-2.05
883.95	73.73
884.122	-36.86
884.293	-75.77
884.465	-36.86
884.637	53.25
884.809	40.96
884.98	-4.1
885.152	-43.01
885.324	110.59
885.496	-61.44
885.667	8.19
885.839	-20.48
886.011	106.49
886.182	57.34
886.354	86.01
886.525	28.67
886.697	63.49
886.869	-90.11
887.04	49.15
887.212	45.06
887.383	49.15
887.555	0
887.726	4.1
887.897	-6.14
888.069	75.77
888.24	8.19
888.412	30.72
888.583	83.97
888.754	79.87
888.926	-12.29
889.097	-30.72
889.268	-20.48
889.44	-20.48
889.611	-36.86
889.782	20.48
889.953	0
890.125	61.44
890.296	-30.72
890.467	69.63
890.638	-2.05
890.809	59.39
890.98	-30.72
891.151	79.87
891.323	-10.24
891.494	12.29
891.665	16.38
891.836	47.1
892.007	36.86
892.178	-28.67
892.349	77.82
892.52	-26.62
892.691	0
892.862	38.91
893.032	-20.48
893.203	-59.39
893.374	38.91
893.545	0
893.716	-4.1
893.887	28.67
894.057	4.1
894.228	40.96
894.399	-12.29
894.57	67.58
894.74	-12.29
894.911	12.29
895.082	-51.2
895.253	59.39
895.423	10.24
895.594	-8.19
895.764	40.96
895.935	-4.1
896.106	26.62
896.276	24.58
896.447	-43.01
896.617	-8.19
896.788	57.34
896.958	-36.86
897.129	0
897.299	-28.67
897.47	20.48
897.64	135.17
897.81	-30.72
897.981	55.3
898.151	47.1
898.322	38.91
898.492	-4.1
898.662	4.1
898.832	30.72
899.003	53.25
899.173	-10.24
899.343	22.53
899.513	2.05
