Data from USB4F104151__54__14-43-09-640.txt Node

Date: Thu Mar 13 14:43:09 EDT 2025
User: louis
Spectrometer: USB4F10415
Trigger mode: 4
Integration Time (sec): 2.000000E-2
Scans to average: 1
Electric dark correction enabled: true
Nonlinearity correction enabled: false
Boxcar width: 0
XAxis mode: Wavelengths
Number of Pixels in Spectrum: 3648
>>>>>Begin Spectral Data<<<<<
178.204	-106.15
178.424	-106.15
178.644	-106.15
178.864	-114.34
179.084	-120.49
179.304	-26.28
179.524	0.34
179.744	-34.47
179.964	14.68
180.184	-16.04
180.404	65.88
180.624	-71.34
180.844	24.92
181.064	31.06
181.283	35.16
181.503	-46.76
181.723	22.87
181.943	-42.67
182.163	39.25
182.383	53.59
182.602	14.68
182.822	14.68
183.042	-30.38
183.262	-3.75
183.482	49.49
183.701	10.58
183.921	8.53
184.141	-24.23
184.361	69.97
184.58	72.02
184.8	31.06
185.02	26.96
185.239	-7.85
185.459	-9.9
185.679	61.78
185.898	-26.28
186.118	63.83
186.338	-26.28
186.557	96.6
186.777	-42.67
186.997	49.49
187.216	-9.9
187.436	31.06
187.655	155.99
187.875	55.64
188.095	63.83
188.314	22.87
188.534	104.79
188.753	-34.47
188.973	20.82
189.192	92.5
189.412	10.58
189.631	31.06
189.851	-26.28
190.07	31.06
190.29	-54.95
190.509	59.73
190.729	-18.09
190.948	84.31
191.168	168.27
191.387	41.3
191.607	-16.04
191.826	74.07
192.045	76.12
192.265	-7.85
192.484	6.49
192.704	18.77
192.923	-67.24
193.142	63.83
193.362	-9.9
193.581	104.79
193.8	29.01
194.02	29.01
194.239	12.63
194.458	-42.67
194.678	-7.85
194.897	6.49
195.116	63.83
195.335	90.45
195.555	26.96
195.774	49.49
195.993	-16.04
196.212	6.49
196.432	-59.05
196.651	57.68
196.87	2.39
197.089	47.44
197.308	133.46
197.528	6.49
197.747	39.25
197.966	88.4
198.185	47.44
198.404	-1.71
198.623	10.58
198.842	41.3
199.062	-3.75
199.281	61.78
199.5	98.64
199.719	16.73
199.938	10.58
200.157	84.31
200.376	51.54
200.595	82.26
200.814	-22.19
201.033	0.34
201.252	47.44
201.471	-40.62
201.69	96.6
201.909	63.83
202.128	45.4
202.347	-26.28
202.566	-30.38
202.785	6.49
203.004	12.63
203.223	123.22
203.442	72.02
203.661	26.96
203.879	-24.23
204.098	55.64
204.317	-38.57
204.536	49.49
204.755	31.06
204.974	-1.71
205.193	12.63
205.411	80.21
205.63	39.25
205.849	80.21
206.068	-7.85
206.287	-16.04
206.505	51.54
206.724	33.11
206.943	-48.81
207.162	22.87
207.381	26.96
207.599	-18.09
207.818	14.68
208.037	33.11
208.255	-30.38
208.474	41.3
208.693	35.16
208.911	45.4
209.13	22.87
209.349	0.34
209.567	72.02
209.786	8.53
210.005	-1.71
210.223	-1.71
210.442	8.53
210.661	16.73
210.879	20.82
211.098	110.93
211.316	24.92
211.535	67.92
211.753	59.73
211.972	162.13
212.191	-30.38
212.409	10.58
212.628	63.83
212.846	-48.81
213.065	-1.71
213.283	80.21
213.502	59.73
213.72	18.77
213.938	-38.57
214.157	47.44
214.375	115.03
214.594	-16.04
214.812	-36.52
215.031	10.58
215.249	6.49
215.467	47.44
215.686	51.54
215.904	22.87
216.122	26.96
216.341	90.45
216.559	18.77
216.778	24.92
216.996	80.21
217.214	-42.67
217.432	-26.28
217.651	14.68
217.869	-5.8
218.087	24.92
218.306	0.34
218.524	47.44
218.742	92.5
218.96	18.77
219.179	0.34
219.397	-38.57
219.615	121.17
219.833	6.49
220.051	14.68
220.27	16.73
220.488	86.36
220.706	41.3
220.924	-1.71
221.142	29.01
221.36	-38.57
221.578	92.5
221.796	31.06
222.015	26.96
222.233	14.68
222.451	92.5
222.669	-1.71
222.887	84.31
223.105	-22.19
223.323	22.87
223.541	20.82
223.759	31.06
223.977	-16.04
224.195	47.44
224.413	110.93
224.631	74.07
224.849	-9.9
225.067	14.68
225.285	-5.8
225.503	106.84
225.721	67.92
225.939	29.01
226.157	72.02
226.375	94.55
226.592	-57
226.81	33.11
227.028	-9.9
227.246	65.88
227.464	24.92
227.682	104.79
227.9	-18.09
228.117	39.25
228.335	80.21
228.553	22.87
228.771	49.49
228.989	22.87
229.206	8.53
229.424	-32.43
229.642	-65.19
229.86	33.11
230.077	39.25
230.295	-1.71
230.513	16.73
230.731	88.4
230.948	74.07
231.166	18.77
231.384	-30.38
231.601	55.64
231.819	65.88
232.037	55.64
232.254	18.77
232.472	39.25
232.689	8.53
232.907	90.45
233.125	-91.82
233.342	0.34
233.56	10.58
233.777	63.83
233.995	-18.09
234.213	55.64
234.43	88.4
234.648	31.06
234.865	-13.99
235.083	39.25
235.3	6.49
235.518	117.08
235.735	31.06
235.953	39.25
236.17	39.25
236.388	-9.9
236.605	0.34
236.822	24.92
237.04	41.3
237.257	22.87
237.475	41.3
237.692	55.64
237.909	-18.09
238.127	29.01
238.344	8.53
238.562	137.56
238.779	8.53
238.996	-11.95
239.214	-32.43
239.431	31.06
239.648	-40.62
239.865	10.58
240.083	47.44
240.3	8.53
240.517	29.01
240.735	-7.85
240.952	65.88
241.169	65.88
241.386	12.63
241.603	86.36
241.821	-30.38
242.038	63.83
242.255	51.54
242.472	24.92
242.689	90.45
242.907	94.55
243.124	-5.8
243.341	72.02
243.558	-26.28
243.775	31.06
243.992	6.49
244.209	106.84
244.426	96.6
244.643	96.6
244.86	18.77
245.078	-1.71
245.295	80.21
245.512	-20.14
245.729	-32.43
245.946	-18.09
246.163	33.11
246.38	61.78
246.597	26.96
246.814	43.35
247.031	24.92
247.248	31.06
247.464	-5.8
247.681	90.45
247.898	-16.04
248.115	12.63
248.332	35.16
248.549	108.88
248.766	115.03
248.983	49.49
249.2	10.58
249.417	39.25
249.633	35.16
249.85	41.3
250.067	-42.67
250.284	106.84
250.501	33.11
250.717	-5.8
250.934	-48.81
251.151	-38.57
251.368	6.49
251.585	88.4
251.801	31.06
252.018	6.49
252.235	137.56
252.451	-16.04
252.668	37.2
252.885	51.54
253.102	76.12
253.318	82.26
253.535	-34.47
253.752	-34.47
253.968	10.58
254.185	16.73
254.401	22.87
254.618	6.49
254.835	-24.23
255.051	47.44
255.268	82.26
255.484	-30.38
255.701	47.44
255.917	47.44
256.134	-28.33
256.351	45.4
256.567	-26.28
256.784	-30.38
257	24.92
257.217	22.87
257.433	65.88
257.65	8.53
257.866	-1.71
258.082	4.44
258.299	18.77
258.515	39.25
258.732	-7.85
258.948	0.34
259.165	18.77
259.381	59.73
259.597	0.34
259.814	104.79
260.03	47.44
260.246	-1.71
260.463	104.79
260.679	78.16
260.895	-18.09
261.112	76.12
261.328	-7.85
261.544	63.83
261.761	78.16
261.977	0.34
262.193	-5.8
262.409	-26.28
262.626	55.64
262.842	-20.14
263.058	6.49
263.274	0.34
263.49	43.35
263.707	82.26
263.923	-16.04
264.139	51.54
264.355	-20.14
264.571	63.83
264.787	26.96
265.004	51.54
265.22	55.64
265.436	12.63
265.652	47.44
265.868	-32.43
266.084	-13.99
266.3	31.06
266.516	24.92
266.732	20.82
266.948	26.96
267.164	-13.99
267.38	22.87
267.596	57.68
267.812	37.2
268.028	121.17
268.244	51.54
268.46	72.02
268.676	-26.28
268.892	41.3
269.108	8.53
269.324	98.64
269.54	-26.28
269.756	90.45
269.972	-32.43
270.188	-48.81
270.403	16.73
270.619	35.16
270.835	94.55
271.051	2.39
271.267	-5.8
271.483	-30.38
271.698	82.26
271.914	57.68
272.13	6.49
272.346	72.02
272.562	41.3
272.777	47.44
272.993	22.87
273.209	10.58
273.425	4.44
273.64	39.25
273.856	88.4
274.072	6.49
274.287	98.64
274.503	57.68
274.719	22.87
274.934	-5.8
275.15	41.3
275.366	121.17
275.581	-54.95
275.797	63.83
276.012	61.78
276.228	6.49
276.444	-24.23
276.659	24.92
276.875	-40.62
277.09	61.78
277.306	84.31
277.521	18.77
277.737	74.07
277.952	18.77
278.168	22.87
278.383	-18.09
278.599	22.87
278.814	57.68
279.03	39.25
279.245	76.12
279.461	-48.81
279.676	2.39
279.892	24.92
280.107	80.21
280.322	-5.8
280.538	16.73
280.753	16.73
280.969	24.92
281.184	-16.04
281.399	108.88
281.615	35.16
281.83	14.68
282.045	6.49
282.26	-50.86
282.476	35.16
282.691	76.12
282.906	33.11
283.122	-26.28
283.337	31.06
283.552	-42.67
283.767	22.87
283.983	8.53
284.198	80.21
284.413	-22.19
284.628	6.49
284.843	8.53
285.058	35.16
285.274	76.12
285.489	63.83
285.704	88.4
285.919	22.87
286.134	55.64
286.349	-24.23
286.564	10.58
286.779	33.11
286.995	24.92
287.21	-9.9
287.425	47.44
287.64	4.44
287.855	72.02
288.07	45.4
288.285	74.07
288.5	92.5
288.715	33.11
288.93	63.83
289.145	-9.9
289.36	47.44
289.575	-16.04
289.79	110.93
290.004	22.87
290.219	22.87
290.434	0.34
290.649	-83.63
290.864	22.87
291.079	65.88
291.294	47.44
291.509	33.11
291.724	74.07
291.938	-138.92
292.153	49.49
292.368	41.3
292.583	8.53
292.798	110.93
293.012	31.06
293.227	76.12
293.442	90.45
293.657	8.53
293.871	115.03
294.086	16.73
294.301	80.21
294.516	47.44
294.73	90.45
294.945	16.73
295.16	57.68
295.374	104.79
295.589	72.02
295.804	39.25
296.018	65.88
296.233	129.36
296.447	14.68
296.662	18.77
296.877	125.27
297.091	35.16
297.306	112.98
297.52	67.92
297.735	57.68
297.949	-54.95
298.164	47.44
298.378	45.4
298.593	6.49
298.807	-28.33
299.022	55.64
299.236	67.92
299.451	65.88
299.665	47.44
299.88	26.96
300.094	100.69
300.309	-9.9
300.523	-1.71
300.737	22.87
300.952	18.77
301.166	69.97
301.381	31.06
301.595	98.64
301.809	8.53
302.024	-5.8
302.238	47.44
302.452	-18.09
302.667	-18.09
302.881	47.44
303.095	72.02
303.309	-9.9
303.524	29.01
303.738	98.64
303.952	26.96
304.166	41.3
304.381	-34.47
304.595	184.66
304.809	41.3
305.023	47.44
305.237	-13.99
305.452	63.83
305.666	-24.23
305.88	39.25
306.094	41.3
306.308	74.07
306.522	6.49
306.736	106.84
306.95	63.83
307.164	16.73
307.379	31.06
307.593	22.87
307.807	43.35
308.021	63.83
308.235	137.56
308.449	-13.99
308.663	-40.62
308.877	45.4
309.091	-9.9
309.305	35.16
309.519	10.58
309.733	57.68
309.947	-5.8
310.161	55.64
310.374	24.92
310.588	131.41
310.802	-1.71
311.016	2.39
311.23	86.36
311.444	33.11
311.658	-16.04
311.872	26.96
312.085	18.77
312.299	57.68
312.513	123.22
312.727	51.54
312.941	10.58
313.154	43.35
313.368	14.68
313.582	-38.57
313.796	-18.09
314.009	-28.33
314.223	82.26
314.437	49.49
314.651	31.06
314.864	33.11
315.078	61.78
315.292	-22.19
315.505	-18.09
315.719	22.87
315.933	-18.09
316.146	20.82
316.36	6.49
316.573	-1.71
316.787	-3.75
317.001	-20.14
317.214	-13.99
317.428	2.39
317.641	49.49
317.855	55.64
318.068	24.92
318.282	117.08
318.495	82.26
318.709	67.92
318.922	18.77
319.136	76.12
319.349	74.07
319.563	-13.99
319.776	0.34
319.99	39.25
320.203	43.35
320.417	22.87
320.63	61.78
320.843	24.92
321.057	43.35
321.27	90.45
321.483	106.84
321.697	92.5
321.91	18.77
322.124	-1.71
322.337	74.07
322.55	55.64
322.763	18.77
322.977	-7.85
323.19	18.77
323.403	80.21
323.617	31.06
323.83	82.26
324.043	74.07
324.256	86.36
324.469	31.06
324.683	43.35
324.896	-9.9
325.109	63.83
325.322	20.82
325.535	96.6
325.748	55.64
325.962	16.73
326.175	12.63
326.388	39.25
326.601	78.16
326.814	0.34
327.027	10.58
327.24	47.44
327.453	6.49
327.666	49.49
327.879	104.79
328.092	47.44
328.305	59.73
328.518	16.73
328.731	39.25
328.944	14.68
329.157	139.6
329.37	22.87
329.583	47.44
329.796	104.79
330.009	86.36
330.222	63.83
330.435	51.54
330.648	67.92
330.861	72.02
331.073	98.64
331.286	98.64
331.499	63.83
331.712	22.87
331.925	6.49
332.138	125.27
332.35	74.07
332.563	12.63
332.776	112.98
332.989	0.34
333.202	8.53
333.414	39.25
333.627	31.06
333.84	35.16
334.053	96.6
334.265	-50.86
334.478	14.68
334.691	55.64
334.903	14.68
335.116	41.3
335.329	-22.19
335.541	166.23
335.754	110.93
335.966	33.11
336.179	80.21
336.392	63.83
336.604	6.49
336.817	-22.19
337.029	47.44
337.242	2.39
337.454	41.3
337.667	-9.9
337.88	35.16
338.092	43.35
338.305	39.25
338.517	-42.67
338.729	72.02
338.942	88.4
339.154	47.44
339.367	12.63
339.579	63.83
339.792	-87.72
340.004	135.51
340.217	88.4
340.429	72.02
340.641	18.77
340.854	-26.28
341.066	31.06
341.278	49.49
341.491	26.96
341.703	14.68
341.915	65.88
342.128	2.39
342.34	55.64
342.552	18.77
342.764	8.53
342.977	16.73
343.189	26.96
343.401	31.06
343.613	43.35
343.826	26.96
344.038	22.87
344.25	78.16
344.462	74.07
344.674	-1.71
344.886	112.98
345.099	6.49
345.311	26.96
345.523	18.77
345.735	8.53
345.947	88.4
346.159	78.16
346.371	-16.04
346.583	-38.57
346.795	63.83
347.007	-28.33
347.219	51.54
347.431	37.2
347.643	55.64
347.855	49.49
348.067	-16.04
348.279	74.07
348.491	41.3
348.703	162.13
348.915	55.64
349.127	72.02
349.339	88.4
349.551	49.49
349.763	80.21
349.975	55.64
350.187	29.01
350.399	8.53
350.61	47.44
350.822	47.44
351.034	-59.05
351.246	43.35
351.458	82.26
351.669	65.88
351.881	39.25
352.093	84.31
352.305	31.06
352.517	6.49
352.728	43.35
352.94	22.87
353.152	63.83
353.363	-120.49
353.575	8.53
353.787	104.79
353.999	92.5
354.21	188.75
354.422	-16.04
354.633	6.49
354.845	26.96
355.057	88.4
355.268	80.21
355.48	51.54
355.692	-44.71
355.903	22.87
356.115	31.06
356.326	-46.76
356.538	33.11
356.749	0.34
356.961	125.27
357.172	8.53
357.384	-1.71
357.595	55.64
357.807	43.35
358.018	24.92
358.23	37.2
358.441	-22.19
358.653	43.35
358.864	67.92
359.075	26.96
359.287	26.96
359.498	110.93
359.709	33.11
359.921	43.35
360.132	117.08
360.344	22.87
360.555	31.06
360.766	10.58
360.977	10.58
361.189	41.3
361.4	26.96
361.611	121.17
361.823	117.08
362.034	47.44
362.245	-24.23
362.456	14.68
362.667	72.02
362.879	59.73
363.09	47.44
363.301	18.77
363.512	57.68
363.723	16.73
363.935	55.64
364.146	104.79
364.357	26.96
364.568	108.88
364.779	33.11
364.99	112.98
365.201	55.64
365.412	74.07
365.623	51.54
365.834	57.68
366.045	2.39
366.256	57.68
366.467	63.83
366.678	55.64
366.889	84.31
367.1	31.06
367.311	31.06
367.522	115.03
367.733	57.68
367.944	121.17
368.155	59.73
368.366	63.83
368.577	43.35
368.788	41.3
368.999	6.49
369.209	24.92
369.42	131.41
369.631	90.45
369.842	33.11
370.053	41.3
370.264	-26.28
370.474	76.12
370.685	0.34
370.896	139.6
371.107	14.68
371.317	47.44
371.528	-34.47
371.739	72.02
371.95	14.68
372.16	63.83
372.371	29.01
372.582	10.58
372.792	133.46
373.003	39.25
373.214	45.4
373.424	47.44
373.635	18.77
373.846	33.11
374.056	74.07
374.267	63.83
374.477	47.44
374.688	6.49
374.898	4.44
375.109	80.21
375.319	78.16
375.53	35.16
375.74	6.49
375.951	14.68
376.161	78.16
376.372	26.96
376.582	0.34
376.793	88.4
377.003	39.25
377.214	-5.8
377.424	47.44
377.635	37.2
377.845	43.35
378.055	67.92
378.266	2.39
378.476	76.12
378.686	45.4
378.897	74.07
379.107	37.2
379.317	74.07
379.528	51.54
379.738	49.49
379.948	20.82
380.158	90.45
380.369	24.92
380.579	47.44
380.789	33.11
380.999	84.31
381.21	-5.8
381.42	119.12
381.63	10.58
381.84	-11.95
382.05	88.4
382.261	92.5
382.471	57.68
382.681	47.44
382.891	59.73
383.101	74.07
383.311	-57
383.521	100.69
383.731	-9.9
383.941	76.12
384.151	41.3
384.361	22.87
384.571	59.73
384.781	-11.95
384.991	51.54
385.201	145.75
385.411	51.54
385.621	39.25
385.831	76.12
386.041	31.06
386.251	59.73
386.461	31.06
386.671	39.25
386.881	104.79
387.091	-26.28
387.301	59.73
387.511	47.44
387.72	74.07
387.93	119.12
388.14	4.44
388.35	55.64
388.56	86.36
388.769	61.78
388.979	39.25
389.189	49.49
389.399	125.27
389.609	26.96
389.818	72.02
390.028	-30.38
390.238	133.46
390.447	-5.8
390.657	80.21
390.867	72.02
391.076	57.68
391.286	39.25
391.496	29.01
391.705	33.11
391.915	16.73
392.125	104.79
392.334	78.16
392.544	86.36
392.753	61.78
392.963	74.07
393.172	65.88
393.382	43.35
393.591	88.4
393.801	117.08
394.01	131.41
394.22	59.73
394.429	51.54
394.639	51.54
394.848	57.68
395.058	135.51
395.267	47.44
395.477	84.31
395.686	112.98
395.895	162.13
396.105	59.73
396.314	63.83
396.524	84.31
396.733	149.84
396.942	74.07
397.152	69.97
397.361	10.58
397.57	72.02
397.78	22.87
397.989	49.49
398.198	213.33
398.407	78.16
398.617	88.4
398.826	49.49
399.035	55.64
399.244	131.41
399.453	141.65
399.663	110.93
399.872	57.68
400.081	125.27
400.29	2.39
400.499	108.88
400.708	74.07
400.917	131.41
401.127	121.17
401.336	100.69
401.545	158.03
401.754	76.12
401.963	186.71
402.172	92.5
402.381	125.27
402.59	86.36
402.799	135.51
403.008	106.84
403.217	244.05
403.426	153.94
403.635	133.46
403.844	98.64
404.053	153.94
404.262	104.79
404.471	153.94
404.68	96.6
404.888	121.17
405.097	53.59
405.306	180.56
405.515	151.89
405.724	174.42
405.933	258.39
406.142	176.47
406.35	235.86
406.559	82.26
406.768	178.51
406.977	229.71
407.185	188.75
407.394	270.67
407.603	196.95
407.812	237.91
408.02	250.19
408.229	180.56
408.438	149.84
408.646	213.33
408.855	231.76
409.064	278.87
409.272	278.87
409.481	227.67
409.69	289.1
409.898	270.67
410.107	354.64
410.315	293.2
410.524	342.35
410.733	268.63
410.941	336.21
411.15	319.82
411.358	354.64
411.567	428.37
411.775	319.82
411.984	393.55
412.192	420.17
412.401	424.27
412.609	516.43
412.818	493.9
413.026	448.85
413.234	452.94
413.443	459.09
413.651	498
413.86	524.62
414.068	559.44
414.276	624.97
414.485	655.69
414.693	571.72
414.901	653.64
415.11	629.07
415.318	571.72
415.526	629.07
415.734	723.27
415.943	682.31
416.151	829.77
416.359	758.09
416.567	878.92
416.776	797
416.984	840.01
417.192	907.59
417.4	917.83
417.608	815.43
417.817	891.21
418.025	983.37
418.233	1030.47
418.441	971.08
418.649	1098.05
418.857	1192.26
419.065	1188.16
419.273	1235.27
419.481	1337.66
419.689	1270.08
419.897	1425.73
420.105	1313.09
420.313	1415.49
420.521	1448.26
420.729	1474.88
420.937	1524.03
421.145	1583.42
421.353	1595.71
421.561	1777.98
421.769	1843.51
421.977	1814.84
422.185	1878.33
422.393	2036.02
422.601	2169.14
422.809	2111.8
423.017	2199.86
423.224	2216.24
423.432	2292.02
423.64	2220.34
423.848	2480.43
424.056	2443.57
424.263	2718
424.471	2660.65
424.679	2773.29
424.887	2824.49
425.094	2916.65
425.302	2949.42
425.51	2926.89
425.718	3201.32
425.925	3137.83
426.133	3287.33
426.341	3586.33
426.548	3586.33
426.756	3598.62
426.964	3660.06
427.171	3832.09
427.379	3930.39
427.586	4131.09
427.794	4129.05
428.001	4319.51
428.209	4577.55
428.417	4446.48
428.624	4788.49
428.832	4854.03
429.039	4833.55
429.247	4722.96
429.454	5310.72
429.662	5562.62
429.869	5333.25
430.076	5476.61
430.284	5306.63
430.491	5763.33
430.699	5953.79
430.906	5937.4
431.114	5941.5
431.321	6222.07
431.528	6295.8
431.736	6891.76
431.943	7174.38
432.15	6902
432.358	6985.96
432.565	7289.06
432.772	7239.91
432.979	7678.18
433.187	7946.46
433.394	7973.08
433.601	8530.13
433.808	8288.47
434.016	8335.57
434.223	8595.67
434.43	9287.88
434.637	9081.03
434.844	9560.26
435.052	9787.58
435.259	9746.62
435.466	9746.62
435.673	9672.9
435.88	10465.46
436.087	10860.72
436.294	10877.1
436.501	10690.74
436.708	10844.34
436.915	11229.35
437.122	11718.82
437.329	11540.65
437.537	12142.75
437.743	12271.77
437.95	12191.9
438.157	12683.41
438.364	13179.02
438.571	13365.39
438.778	13101.2
438.985	14450.81
439.192	14049.41
439.399	14356.6
439.606	14102.65
439.813	14964.85
440.02	15829.09
440.227	15515.75
440.433	15319.15
440.64	15851.62
440.847	15605.86
441.054	16238.69
441.261	17229.9
441.467	17297.49
441.674	17125.46
441.881	18053.19
442.088	17856.58
442.294	17696.84
442.501	18219.07
442.708	18686.01
442.914	19101.75
443.121	20170.79
443.328	19390.51
443.534	20928.53
443.741	20078.63
443.948	19763.24
444.154	21374.99
444.361	21348.37
444.568	21448.72
444.774	21374.99
444.981	21557.26
445.187	22235.14
445.394	23300.08
445.6	22917.11
445.807	24971.22
446.013	23848.94
446.22	24512.48
446.426	25593.81
446.633	25657.29
446.839	26595.26
447.046	25415.63
447.252	26945.47
447.459	27123.64
447.665	26757.05
447.871	28137.38
448.078	29409.17
448.284	27522.99
448.491	28770.21
448.697	29591.44
448.903	30226.31
449.11	30310.28
449.316	30209.93
449.522	30396.29
449.728	31262.58
449.935	31442.81
450.141	31240.06
450.347	32118.64
450.553	31018.88
450.76	31369.08
450.966	32759.65
451.172	32282.47
451.378	33103.71
451.584	32380.78
451.791	33337.18
451.997	32868.19
452.203	33754.96
452.409	33392.47
452.615	33865.55
452.821	32223.08
453.027	31960.94
453.233	33615.7
453.44	32499.56
453.646	32522.09
453.852	33126.24
454.058	33582.93
454.264	32309.1
454.47	33507.16
454.676	32032.62
454.882	33443.67
455.088	30576.51
455.294	31072.12
455.5	31983.47
455.705	31823.73
455.911	30617.47
456.117	30183.3
456.323	29734.8
456.529	28170.15
456.735	29513.62
456.941	28589.99
457.147	28350.37
457.352	27686.83
457.558	27254.71
457.764	27752.37
457.97	26689.47
458.176	26122.18
458.381	26023.88
458.587	24803.29
458.793	24860.63
458.999	23562.22
459.204	25485.26
459.41	24942.55
459.616	23048.18
459.821	23455.73
460.027	22968.31
460.233	22429.7
460.438	21506.06
460.644	21323.79
460.85	20572.19
461.055	19984.42
461.261	20453.41
461.466	19105.84
461.672	18292.8
461.878	19529.77
462.083	18395.2
462.289	17827.91
462.494	17739.85
462.7	16803.92
462.905	16099.42
463.111	17084.5
463.316	17102.93
463.522	16625.75
463.727	16664.66
463.932	16535.64
464.138	16449.63
464.343	16810.07
464.549	16037.98
464.754	16633.94
464.959	16504.92
465.165	16248.93
465.37	15540.33
465.575	15556.71
465.781	15845.48
465.986	16134.24
466.191	15253.61
466.397	15276.14
466.602	14461.05
466.807	14911.6
467.012	14788.72
467.218	14796.92
467.423	14379.13
467.628	14657.65
467.833	15413.35
468.038	14780.53
468.244	14319.74
468.449	14956.66
468.654	14344.31
468.859	14346.36
469.064	14383.23
469.269	13662.34
469.474	13938.82
469.679	14147.71
469.885	13576.33
470.09	13666.44
470.295	13959.3
470.5	13211.79
470.705	13420.68
470.91	13502.6
471.115	13023.37
471.32	13308.04
471.525	13244.56
471.73	13031.57
471.935	12953.74
472.139	12597.4
472.344	12574.87
472.549	12552.34
472.754	12279.96
472.959	12165.28
473.164	11684
473.369	11853.98
473.574	12056.73
473.778	12050.59
473.983	11763.87
474.188	11835.55
474.393	11165.87
474.598	11172.01
474.802	11255.98
475.007	11202.73
475.212	11092.14
475.417	10926.25
475.621	11049.13
475.826	10731.7
476.031	10696.88
476.235	10455.22
476.44	10592.44
476.645	10358.97
476.849	10262.71
477.054	10303.67
477.259	10287.29
477.463	10100.92
477.668	9869.5
477.872	10168.51
478.077	9855.17
478.282	9496.77
478.486	9468.1
478.691	9296.07
478.895	9515.2
479.1	9281.74
479.304	9433.29
479.509	9138.38
479.713	9355.46
479.918	9160.91
480.122	8968.4
480.326	9187.53
480.531	9101.51
480.735	8661.2
480.94	8898.77
481.144	8990.92
481.348	8716.5
481.553	8937.68
481.757	8528.08
481.961	8661.2
482.166	8722.64
482.37	8669.39
482.574	8517.84
482.778	8673.49
482.983	8820.94
483.187	8667.35
483.391	8722.64
483.595	8671.44
483.8	8308.95
484.004	8679.63
484.208	8698.06
484.412	8548.56
484.616	8736.98
484.821	8739.02
485.025	8548.56
485.229	8722.64
485.433	8630.48
485.637	8665.3
485.841	8575.19
486.045	8325.33
486.249	8585.43
486.453	8640.72
486.657	8536.28
486.861	8509.65
487.065	8239.32
487.269	8610
487.473	8370.39
487.677	8489.17
487.881	8806.61
488.085	8628.43
488.289	8495.32
488.493	8405.21
488.697	8550.61
488.901	8648.91
489.105	8638.67
489.309	8753.36
489.512	8577.23
489.716	8577.23
489.92	8579.28
490.124	8710.35
490.328	8845.52
490.531	8632.53
490.735	8730.83
490.939	8749.26
491.143	8806.61
491.346	8952.01
491.55	8734.93
491.754	8829.13
491.958	9158.86
492.161	8870.09
492.365	9025.74
492.569	8970.44
492.772	9257.16
492.976	8999.12
493.18	9035.98
493.383	9044.17
493.587	9324.74
493.79	9402.57
493.994	9377.99
494.197	9511.11
494.401	9601.22
494.605	9633.99
494.808	9633.99
495.012	9572.55
495.215	9617.6
495.419	9732.29
495.622	9691.33
495.825	9912.51
496.029	9945.28
496.232	10223.8
496.436	10199.23
496.639	10377.4
496.843	10215.61
497.046	10524.85
497.249	10469.56
497.453	10676.4
497.656	10649.78
497.859	10879.15
498.063	10934.45
498.266	11036.84
498.469	11061.42
498.673	11350.18
498.876	11274.41
499.079	11761.83
499.282	11544.74
499.485	11761.83
499.689	11688.1
499.892	11878.56
500.095	12023.97
500.298	12255.39
500.501	12269.72
500.705	12583.06
500.908	12613.78
501.111	12648.6
501.314	12761.23
501.517	13035.66
501.72	13006.99
501.923	13297.8
502.126	13244.56
502.329	13678.72
502.532	13598.85
502.735	13801.6
502.938	14084.22
503.141	14002.3
503.344	14301.31
503.547	14368.89
503.75	14600.31
503.953	14628.98
504.156	15030.38
504.359	15179.89
504.562	14942.32
504.765	15452.27
504.968	15384.68
505.17	15913.06
505.373	15655.01
505.576	16037.98
505.779	16085.09
505.982	16361.56
506.185	16670.81
506.387	16472.15
506.59	16656.47
506.793	17270.86
506.996	17027.15
507.198	17506.38
507.401	17743.94
507.604	17623.11
507.807	18077.76
508.009	17930.31
508.212	17979.46
508.415	18628.67
508.617	18491.45
508.82	18663.48
509.022	18565.18
509.225	19265.58
509.428	19367.98
509.63	19355.69
509.833	19537.96
510.035	20258.85
510.238	19796.01
510.44	20514.84
510.643	20381.73
510.845	20705.31
511.048	20580.38
511.25	21108.76
511.453	21057.56
511.655	21905.42
511.858	21559.31
512.06	21743.63
512.262	22075.4
512.465	22083.59
512.667	22353.92
512.87	22726.65
513.072	22851.58
513.274	23177.2
513.477	23441.39
513.679	23441.39
513.881	23879.66
514.084	23730.16
514.286	23912.42
514.488	24385.51
514.69	24739.8
514.893	24690.65
515.095	24739.8
515.297	25327.57
515.499	25391.06
515.701	25634.77
515.904	25774.03
516.106	25847.75
516.308	26464.19
516.51	26605.5
516.712	26656.7
516.914	26701.76
517.116	27416.5
517.318	27303.86
517.52	27619.25
517.722	27678.64
517.925	27848.62
518.127	28434.34
518.329	28481.44
518.531	28440.48
518.733	28919.71
518.935	28897.18
519.136	29538.19
519.338	29892.49
519.54	29656.98
519.742	30089.1
519.944	30316.42
520.146	30715.78
520.348	30896
520.55	30658.43
520.752	30979.96
520.954	31637.36
521.155	31704.95
521.357	31829.87
521.559	32298.86
521.761	32454.5
521.963	32348.01
522.164	32751.46
522.366	32962.4
522.568	33159
522.77	33144.67
522.971	33392.47
523.173	33578.84
523.375	33724.24
523.576	34043.73
523.778	33965.9
523.98	34576.2
524.181	34750.28
524.383	34467.66
524.584	34893.63
524.786	35198.78
524.988	35047.23
525.189	35401.53
525.391	35770.16
525.592	35745.59
525.794	35653.43
525.995	36034.35
526.197	35936.05
526.398	36335.4
526.6	36452.14
526.801	36595.49
527.003	36583.21
527.204	36785.96
527.406	37146.4
527.607	37150.49
527.808	37254.94
528.01	36804.39
528.211	37351.2
528.412	37674.77
528.614	37371.68
528.815	37906.19
529.016	38020.88
529.218	37750.55
529.419	37695.25
529.62	38024.98
529.822	37875.48
530.023	37699.35
530.224	37992.21
530.425	37814.04
530.626	37869.33
530.828	37713.69
531.029	38743.81
531.23	38084.37
531.431	38260.49
531.632	38397.71
531.833	38420.24
532.035	38467.34
532.236	38504.2
532.437	38962.95
532.638	38397.71
532.839	39003.91
533.04	38864.64
533.241	38371.08
533.442	39096.06
533.643	38973.19
533.844	38829.83
534.045	38809.35
534.246	38506.25
534.447	38997.76
534.648	38942.47
534.849	38936.32
535.05	38412.04
535.251	38960.9
535.451	38483.72
535.652	38749.96
535.853	39161.6
536.054	39188.22
536.255	38786.82
536.456	38633.22
536.657	38833.92
536.857	38844.16
537.058	38973.19
537.259	39274.24
537.46	38938.37
537.66	38809.35
537.861	39157.5
538.062	38952.71
538.263	39143.17
538.463	38672.14
538.664	38672.14
538.865	38829.83
539.065	39155.46
539.266	38221.58
539.466	39071.49
539.667	38416.14
539.868	38987.52
540.068	38539.02
540.269	38727.43
540.469	39190.27
540.67	39128.83
540.87	38561.54
541.071	38643.46
541.271	38821.64
541.472	38493.96
541.672	38600.46
541.873	38625.03
542.073	37824.28
542.274	39083.78
542.474	38401.8
542.675	38366.99
542.875	38575.88
543.075	38883.08
543.276	38012.69
543.476	38766.34
543.676	38651.66
543.877	39016.19
544.077	38534.92
544.277	38643.46
544.478	38317.84
544.678	38786.82
544.878	38487.82
545.078	38725.38
545.279	38127.38
545.479	38213.39
545.679	38502.15
545.879	38471.43
546.079	38665.99
546.28	38414.09
546.48	37891.86
546.68	38559.5
546.88	38344.46
547.08	38174.48
547.28	38156.05
547.48	37746.45
547.68	38291.21
547.88	38074.13
548.081	38356.75
548.281	38496.01
548.481	38555.4
548.681	38534.92
548.881	38340.36
549.081	38051.6
549.28	37885.72
549.48	38510.35
549.68	37979.92
549.88	38864.64
550.08	38170.38
550.28	38000.4
550.48	38172.43
550.68	38158.1
550.88	38104.85
551.08	38240.01
551.279	38342.41
551.479	37750.55
551.679	37898
551.879	37971.73
552.079	37998.35
552.278	37701.4
552.478	37918.48
552.678	37865.24
552.878	38217.49
553.077	37721.88
553.277	37644.05
553.477	38233.87
553.676	37359.39
553.876	37629.72
554.076	37777.17
554.275	37881.62
554.475	37431.07
554.674	37916.43
554.874	37908.24
555.074	37386.01
555.273	37977.87
555.473	38199.05
555.672	37646.1
555.872	37445.4
556.071	37512.98
556.271	37891.86
556.47	37318.43
556.67	36941.6
556.869	37414.68
557.068	37433.11
557.268	37277.47
557.467	37107.49
557.667	37093.15
557.866	37197.6
558.065	37156.64
558.265	36724.52
558.464	37203.74
558.663	36984.61
558.863	36685.61
559.062	37375.77
559.261	36405.03
559.461	37107.49
559.66	36319.02
559.859	37127.97
560.058	36400.94
560.258	37130.01
560.457	36321.07
560.656	36783.91
560.855	36499.24
561.054	36581.16
561.253	36423.47
561.453	36562.73
561.652	36441.9
561.851	36630.31
562.05	36226.86
562.249	35931.95
562.448	36200.24
562.647	36390.7
562.846	36052.78
563.045	35954.48
563.244	35710.77
563.443	36216.62
563.642	35927.86
563.841	35862.32
564.04	35493.69
564.239	35907.38
564.438	35546.93
564.637	35694.39
564.836	35659.57
565.035	35032.89
565.234	35155.77
565.432	35055.42
565.631	34678.6
565.83	35327.8
566.029	34828.1
566.228	35379
566.427	34592.58
566.625	34670.4
566.824	34504.52
567.023	34678.6
567.222	34506.57
567.42	34830.15
567.619	34375.5
567.818	34359.11
568.016	34438.98
568.215	34318.15
568.414	34418.5
568.612	34651.97
568.811	34361.16
569.01	34166.6
569.208	33677.14
569.407	34170.7
569.605	33615.7
569.804	34445.13
570.002	33541.97
570.201	33832.79
570.4	33423.19
570.598	33425.24
570.797	33206.11
570.995	33277.79
571.193	32925.53
571.392	33238.87
571.59	33152.86
571.789	33183.58
571.987	32843.62
572.186	32954.21
572.384	32872.29
572.582	32948.06
572.781	32798.56
572.979	32425.83
573.177	32737.12
573.376	32624.48
573.574	32356.2
573.772	32305
573.971	32221.03
574.169	32319.34
574.367	31825.78
574.565	31661.94
574.763	32087.92
574.962	31717.23
575.16	31405.94
575.358	31960.94
575.556	31377.27
575.754	31743.86
575.952	31537.01
576.151	31434.61
576.349	31358.84
576.547	31252.34
576.745	31385.46
576.943	31240.06
577.141	30781.31
577.339	30994.3
577.537	30742.4
577.735	31035.26
577.933	30611.33
578.131	30685.06
578.329	30852.99
578.527	30623.62
578.725	30355.33
578.923	30474.12
579.121	30230.41
579.319	30207.88
579.516	30095.24
579.714	30080.91
579.912	29855.63
580.11	29931.4
580.308	29929.36
580.506	29751.18
580.704	29343.64
580.901	29597.59
581.099	29441.94
581.297	29646.74
581.495	29570.96
581.692	29726.61
581.89	29454.23
582.088	29630.35
582.285	29183.9
582.483	29001.63
582.681	29114.27
582.878	29278.1
583.076	28518.31
583.274	28970.91
583.471	28436.39
583.669	28837.79
583.866	28186.54
584.064	28581.79
584.262	27848.62
584.459	28448.68
584.657	28075.94
584.854	28422.05
585.052	27942.83
585.249	27944.87
585.447	28080.04
585.644	27553.71
585.841	27785.13
586.039	28006.31
586.236	27795.37
586.434	27645.87
586.631	27324.34
586.828	27731.89
587.026	27408.31
587.223	27160.5
587.42	27656.11
587.618	27185.08
587.815	27123.64
588.012	26636.22
588.21	27097.02
588.407	27068.34
588.604	26920.89
588.801	26740.67
588.999	26644.41
589.196	26449.86
589.393	26535.87
589.59	26171.33
589.787	26480.58
589.984	26318.79
590.182	26142.66
590.379	26460.1
590.576	26136.52
590.773	26159.05
590.97	25671.63
591.167	25839.56
591.364	25765.84
591.561	25792.46
591.758	25352.15
591.955	25520.08
592.152	25552.85
592.349	25233.36
592.546	25552.85
592.743	25104.34
592.94	24885.21
593.137	25200.6
593.334	25163.73
593.531	24934.36
593.727	24846.3
593.924	24995.8
594.121	24713.18
594.318	24897.5
594.515	24528.86
594.712	24817.63
594.908	24313.83
595.105	24817.63
595.302	24336.35
595.499	24412.13
595.696	24086.5
595.892	23980.01
596.089	24242.15
596.286	23846.89
596.482	23943.14
596.679	23984.1
596.876	23898.09
597.072	23988.2
597.269	23752.68
597.466	23588.85
597.662	23494.64
597.859	23310.32
598.055	23422.96
598.252	23209.97
598.448	23400.43
598.645	23175.16
598.841	22851.58
599.038	23205.88
599.234	23074.81
599.431	22671.36
599.627	22788.09
599.824	22976.5
600.02	22679.55
600.217	22738.94
600.413	22441.98
600.609	22456.32
600.806	22560.77
601.002	22620.16
601.198	22343.68
601.395	22267.91
601.591	22237.19
601.787	22312.96
601.984	22257.67
602.18	21948.42
602.376	21979.14
602.572	21948.42
602.769	21815.3
602.965	21575.69
603.161	21553.16
603.357	21409.81
603.553	21577.74
603.75	21587.98
603.946	21331.98
604.142	21372.94
604.338	21047.32
604.534	21323.79
604.73	20985.88
604.926	21104.66
605.122	21061.65
605.318	20625.43
605.514	20914.2
605.71	20807.7
605.906	20797.46
606.102	20760.6
606.298	20949.01
606.494	20633.63
606.69	20830.23
606.886	20312.1
607.082	20596.76
607.278	20566.04
607.474	20410.4
607.67	20584.48
607.866	20271.14
608.062	20381.73
608.257	20156.45
608.453	20027.43
608.649	20351.01
608.845	19927.08
609.041	20004.9
609.236	19939.37
609.432	19812.39
609.628	19945.51
609.824	19777.58
610.019	19656.75
610.215	19820.58
610.411	19714.09
610.606	19646.51
610.802	19757.1
610.998	19572.78
611.193	19550.25
611.389	19324.97
611.584	19359.79
611.78	19294.25
611.976	19472.43
612.171	19587.11
612.367	19568.68
612.562	19232.82
612.758	18802.74
612.953	18999.35
613.149	19134.51
613.344	18927.67
613.539	19310.64
613.735	19302.45
613.93	18794.55
614.126	18880.57
614.321	19077.17
614.517	18845.75
614.712	18860.09
614.907	18839.61
615.103	19001.4
615.298	18591.8
615.493	18925.62
615.688	18853.94
615.884	18868.28
616.079	18628.67
616.274	18726.97
616.47	18333.76
616.665	18743.35
616.86	18616.38
617.055	18159.68
617.25	18128.96
617.445	18513.98
617.641	18126.91
617.836	18348.09
618.031	18112.58
618.226	18249.79
618.421	18198.59
618.616	18186.3
618.811	17717.32
619.006	18036.8
619.201	17817.67
619.396	18180.16
619.591	17473.61
619.786	18112.58
619.981	17209.42
620.176	17455.18
620.371	17332.3
620.566	17313.87
620.761	17252.43
620.956	17369.16
621.151	16685.14
621.346	17152.08
621.541	16799.83
621.735	16949.33
621.93	16816.21
622.125	16760.92
622.32	16662.62
622.515	16674.9
622.709	16582.74
622.904	16388.19
623.099	16240.73
623.294	16416.86
623.488	16003.17
623.683	16263.26
623.878	15863.91
624.072	16261.21
624.267	15927.39
624.462	15851.62
624.656	15683.69
624.851	15487.08
625.046	15415.4
625.24	15304.81
625.435	15267.95
625.629	15405.16
625.824	15085.68
626.018	15196.27
626.213	14794.87
626.407	15028.34
626.602	14538.87
626.796	14993.52
626.991	14811.25
627.185	14506.1
627.38	14612.6
627.574	14383.23
627.768	14471.29
627.963	14686.33
628.157	14182.52
628.352	13994.11
628.546	14010.5
628.74	13777.03
628.935	13881.47
629.129	13953.15
629.323	13529.22
629.517	13656.2
629.712	13666.44
629.906	13373.58
630.1	13201.55
630.294	13297.8
630.489	13170.83
630.683	13437.06
630.877	13207.69
631.071	13152.4
631.265	13164.68
631.459	13011.09
631.653	13023.37
631.848	12908.69
632.042	12912.78
632.236	12812.43
632.43	12228.76
632.624	12568.73
632.818	12290.2
633.012	12411.03
633.206	12499.09
633.4	12312.73
633.594	12073.12
633.788	12376.22
633.982	12142.75
634.176	12101.79
634.369	12146.84
634.563	12001.44
634.757	11671.72
634.951	12013.73
635.145	11624.61
635.339	12048.54
635.533	11608.23
635.726	11868.32
635.92	11448.49
636.114	11450.53
636.308	11485.35
636.501	11200.68
636.695	11393.19
636.889	11296.94
637.083	11131.05
637.276	11167.91
637.47	11022.51
637.664	11122.86
637.857	10832.05
638.051	10911.92
638.244	10778.8
638.438	10848.43
638.632	10721.46
638.825	10533.04
639.019	10709.17
639.212	10447.03
639.406	10348.73
639.599	10442.93
639.793	10393.78
639.986	10320.06
640.18	10401.97
640.373	10307.77
640.567	9976
640.76	10049.72
640.954	10019
641.147	9773.25
641.34	9986.24
641.534	9976
641.727	9959.61
641.92	9828.54
642.114	9763.01
642.307	9599.17
642.5	9490.63
642.694	9461.96
642.887	9369.8
643.08	9650.37
643.273	9478.34
643.467	9574.6
643.66	9451.72
643.853	9255.11
644.046	9320.65
644.239	9144.52
644.432	8972.49
644.626	9083.08
644.819	9111.75
645.012	8964.3
645.205	9070.79
645.398	9142.47
645.591	8689.87
645.784	8837.33
645.977	8603.86
646.17	8743.12
646.363	8550.61
646.556	8681.68
646.749	8530.13
646.942	8784.08
647.135	8511.7
647.328	8257.75
647.521	8392.92
647.714	8280.28
647.907	8198.36
648.099	8292.57
648.292	8329.43
648.485	8233.18
648.678	8052.95
648.871	8198.36
649.064	8005.85
649.256	7925.98
649.449	7958.75
649.642	7977.18
649.835	7952.6
650.027	7729.38
650.22	7880.93
650.413	7799.01
650.605	7674.08
650.798	7606.5
650.991	7543.01
651.183	7616.74
651.376	7618.79
651.568	7649.5
651.761	7289.06
651.954	7334.12
652.146	7346.41
652.339	7272.68
652.531	7463.14
652.724	7235.81
652.916	6969.58
653.109	7039.21
653.301	7370.98
653.494	7127.27
653.686	7074.03
653.879	7143.66
654.071	7176.42
654.263	6955.24
654.456	6793.45
654.648	6856.94
654.84	6777.07
655.033	6748.4
655.225	6777.07
655.417	6596.85
655.61	6725.87
655.802	6635.76
655.994	6643.95
656.186	6625.52
656.379	6707.44
656.571	6643.95
656.763	6451.44
656.955	6400.24
657.148	6514.93
657.34	6404.34
657.532	6359.28
657.724	6197.49
657.916	6332.66
658.108	6183.16
658.3	6177.02
658.492	6205.69
658.684	6113.53
658.876	6119.67
659.068	6023.42
659.26	6047.99
659.452	6066.42
659.644	6009.08
659.836	5839.1
660.028	6117.62
660.22	5906.68
660.412	5781.76
660.604	5781.76
660.796	5720.32
660.988	5679.36
661.18	5650.69
661.372	5703.93
661.563	5720.32
661.755	5585.15
661.947	5839.1
662.139	5572.86
662.331	5587.2
662.522	5431.55
662.714	5490.95
662.906	5521.67
663.097	5398.79
663.289	5349.64
663.481	5363.97
663.673	5320.96
663.864	5445.89
664.056	5337.35
664.247	5204.23
664.439	5146.89
664.631	5361.92
664.822	5247.24
665.014	5175.56
665.205	5028.1
665.397	4999.43
665.588	4987.15
665.78	4966.67
665.971	5056.78
666.163	5112.07
666.354	5085.45
666.546	4937.99
666.737	4886.79
666.929	4837.64
667.12	4876.55
667.311	4905.23
667.503	4923.66
667.694	4856.08
667.885	4774.16
668.077	4831.5
668.268	4624.65
668.459	4774.16
668.651	4610.32
668.842	4612.37
669.033	4604.18
669.224	4587.79
669.416	4708.62
669.607	4655.37
669.798	4366.61
669.989	4587.79
670.18	4428.05
670.371	4411.67
670.563	4370.71
670.754	4434.19
670.945	4524.3
671.136	4448.53
671.327	4430.1
671.518	4282.64
671.709	4397.33
671.9	4350.23
672.091	4233.49
672.282	4221.2
672.473	4274.45
672.664	4315.41
672.855	4325.65
673.046	4102.42
673.237	4208.92
673.428	4204.82
673.619	4161.81
673.809	4198.68
674	4024.6
674.191	4127
674.382	4141.33
674.573	4061.46
674.764	4055.32
674.954	3977.5
675.145	3834.14
675.336	3993.88
675.527	3942.68
675.717	3911.96
675.908	3905.82
676.099	3954.97
676.289	3938.59
676.48	3901.72
676.671	3991.83
676.861	3950.87
677.052	3756.32
677.243	3883.29
677.433	3752.22
677.624	3897.63
677.814	3823.9
678.005	3825.95
678.195	3649.82
678.386	3721.5
678.576	3772.7
678.767	3594.53
678.957	3733.79
679.148	3799.32
679.338	3758.36
679.529	3662.11
679.719	3475.74
679.909	3729.69
680.1	3610.91
680.29	3578.14
680.481	3637.53
680.671	3647.77
680.861	3541.28
681.052	3627.29
681.242	3578.14
681.432	3539.23
681.622	3629.34
681.813	3535.14
682.003	3453.22
682.193	3326.24
682.383	3455.26
682.573	3473.7
682.764	3623.2
682.954	3514.66
683.144	3365.15
683.334	3316
683.524	3326.24
683.714	3451.17
683.904	3301.67
684.094	3359.01
684.284	3326.24
684.474	3473.7
684.664	3215.65
684.854	3311.91
685.044	3389.73
685.234	3225.89
685.424	3293.48
685.614	3262.76
685.804	3191.08
685.994	3266.85
686.184	3184.93
686.374	3293.48
686.564	3168.55
686.753	3107.11
686.943	3072.29
687.133	3111.21
687.323	3209.51
687.513	3152.17
687.702	3090.73
687.892	3117.35
688.082	3164.45
688.272	3168.55
688.461	3100.97
688.651	3096.87
688.841	3072.29
689.03	3049.77
689.22	2965.8
689.41	2910.5
689.599	3037.48
689.789	3029.29
689.979	2814.25
690.168	3004.71
690.358	2887.98
690.547	2906.41
690.737	2992.42
690.926	2896.17
691.116	2851.11
691.305	2812.2
691.495	2906.41
691.684	2851.11
691.874	2801.96
692.063	2775.34
692.252	2758.96
692.442	2851.11
692.631	2752.81
692.82	2840.87
693.01	2709.8
693.199	2763.05
693.388	2570.54
693.578	2709.8
693.767	2746.67
693.956	2709.8
694.146	2734.38
694.335	2603.31
694.524	2611.5
694.713	2681.13
694.902	2636.08
695.092	2631.98
695.281	2550.06
695.47	2648.36
695.659	2679.08
695.848	2658.6
696.037	2599.21
696.226	2599.21
696.415	2570.54
696.604	2646.32
696.793	2505.01
696.982	2599.21
697.171	2650.41
697.36	2607.41
697.549	2500.91
697.738	2476.34
697.927	2486.58
698.116	2496.82
698.305	2423.09
698.494	2390.32
698.683	2562.35
698.872	2468.14
699.061	2466.1
699.25	2359.6
699.438	2429.23
699.627	2431.28
699.816	2414.9
700.005	2543.92
700.193	2357.55
700.382	2449.71
700.571	2435.38
700.76	2431.28
700.948	2459.95
701.137	2373.94
701.326	2441.52
701.514	2310.45
701.703	2349.36
701.892	2388.27
702.08	2505.01
702.269	2548.01
702.457	2408.75
702.646	2423.09
702.834	2365.75
703.023	2255.15
703.212	2455.86
703.4	2285.87
703.589	2359.6
703.777	2386.22
703.965	2304.31
704.154	2355.51
704.342	2316.59
704.531	2283.83
704.719	2318.64
704.907	2402.61
705.096	2316.59
705.284	2210.1
705.472	2285.87
705.661	2400.56
705.849	2353.46
706.037	2339.12
706.226	2275.63
706.414	2277.68
706.602	2429.23
706.79	2316.59
706.979	2349.36
707.167	2236.72
707.355	2287.92
707.543	2259.25
707.731	2300.21
707.919	2294.07
708.107	2369.84
708.296	2355.51
708.484	2283.83
708.672	2222.39
708.86	2294.07
709.048	2337.07
709.236	2210.1
709.424	2246.96
709.612	2267.44
709.8	2304.31
709.988	2165.04
710.176	2326.83
710.364	2314.55
710.551	2269.49
710.739	2310.45
710.927	2228.53
711.115	2230.58
711.303	2283.83
711.491	2238.77
711.679	2197.81
711.866	2111.8
712.054	2236.72
712.242	2193.72
712.43	2302.26
712.617	2187.57
712.805	2246.96
712.993	2244.92
713.181	2117.94
713.368	2201.91
713.556	2271.54
713.744	2294.07
713.931	2193.72
714.119	2275.63
714.306	2224.44
714.494	2177.33
714.682	2201.91
714.869	2193.72
715.057	2249.01
715.244	2064.69
715.432	2228.53
715.619	2195.76
715.807	2197.81
715.994	2109.75
716.182	2148.66
716.369	2220.34
716.556	2185.52
716.744	2234.68
716.931	2199.86
717.119	2150.71
717.306	2197.81
717.493	2031.93
717.681	2195.76
717.868	2113.85
718.055	2263.35
718.242	2185.52
718.43	2160.95
718.617	2177.33
718.804	2206
718.991	2101.56
719.179	2191.67
719.366	2111.8
719.553	2095.41
719.74	2097.46
719.927	2285.87
720.114	2111.8
720.301	2130.23
720.488	2101.56
720.676	2152.76
720.863	2169.14
721.05	2242.87
721.237	2210.1
721.424	1978.68
721.611	2095.41
721.798	1984.82
721.985	2103.61
722.172	2097.46
722.358	2160.95
722.545	2171.19
722.732	2130.23
722.919	2140.47
723.106	2025.78
723.293	2066.74
723.48	2130.23
723.667	2056.5
723.853	2070.84
724.04	2228.53
724.227	2189.62
724.414	2021.69
724.6	2169.14
724.787	2275.63
724.974	2169.14
725.161	2103.61
725.347	2095.41
725.534	2240.82
725.72	2163
725.907	2079.03
726.094	2117.94
726.28	2060.6
726.467	2199.86
726.653	2130.23
726.84	2177.33
727.027	2060.6
727.213	2105.65
727.4	2119.99
727.586	2177.33
727.773	2093.37
727.959	2091.32
728.145	2160.95
728.332	2144.56
728.518	1999.16
728.705	2177.33
728.891	2181.43
729.077	2095.41
729.264	2072.89
729.45	2109.75
729.636	2087.22
729.823	2062.65
730.009	2054.45
730.195	2040.12
730.382	2152.76
730.568	2046.26
730.754	2064.69
730.94	2185.52
731.126	2185.52
731.313	2056.5
731.499	2130.23
731.685	2119.99
731.871	2101.56
732.057	2144.56
732.243	2095.41
732.429	2070.84
732.615	2126.13
732.801	2070.84
732.987	2105.65
733.173	2193.72
733.359	2083.13
733.545	2081.08
733.731	2001.21
733.917	2081.08
734.103	2025.78
734.289	1990.97
734.475	2111.8
734.661	2056.5
734.847	2091.32
735.033	2029.88
735.219	2292.02
735.404	2050.36
735.59	2097.46
735.776	2085.17
735.962	2048.31
736.148	2040.12
736.333	2140.47
736.519	1925.43
736.705	2111.8
736.89	1935.67
737.076	2036.02
737.262	1952.06
737.447	1974.58
737.633	2060.6
737.819	2048.31
738.004	1964.34
738.19	2087.22
738.375	1902.9
738.561	1966.39
738.747	2029.88
738.932	1947.96
739.118	2015.54
739.303	2036.02
739.489	2038.07
739.674	1882.42
739.859	1892.66
740.045	1941.82
740.23	2124.08
740.416	1878.33
740.601	2023.73
740.786	1923.38
740.972	1931.58
741.157	1876.28
741.342	1825.08
741.528	1808.7
741.713	1970.49
741.898	1964.34
742.084	1843.51
742.269	1939.77
742.454	1939.77
742.639	1907
742.824	1927.48
743.01	1907
743.195	1907
743.38	1820.99
743.565	1767.74
743.75	1872.18
743.935	1792.31
744.12	1874.23
744.305	1669.44
744.49	1859.9
744.675	1859.9
744.86	1816.89
745.045	1837.37
745.23	1714.49
745.415	1794.36
745.6	1857.85
745.785	1716.54
745.97	1818.94
746.155	1786.17
746.34	1763.64
746.525	1784.12
746.71	1616.19
746.895	1591.61
747.079	1751.35
747.264	1726.78
747.449	1739.07
747.634	1669.44
747.819	1673.53
748.003	1775.93
748.188	1704.25
748.373	1644.86
748.557	1636.67
748.742	1745.21
748.927	1614.14
749.111	1597.76
749.296	1534.27
749.481	1698.11
749.665	1620.28
749.85	1515.84
750.034	1630.52
750.219	1513.79
750.404	1456.45
750.588	1423.68
750.773	1501.5
750.957	1567.04
751.141	1505.6
751.326	1489.21
751.51	1425.73
751.695	1605.95
751.879	1513.79
752.064	1505.6
752.248	1513.79
752.432	1386.82
752.617	1483.07
752.801	1403.2
752.985	1341.76
753.17	1497.41
753.354	1395.01
753.538	1376.58
753.722	1380.67
753.907	1227.07
754.091	1323.33
754.275	1333.57
754.459	1364.29
754.643	1311.04
754.828	1358.14
755.012	1257.79
755.196	1335.62
755.38	1249.6
755.564	1345.86
755.748	1206.59
755.932	1270.08
756.116	1302.85
756.3	1308.99
756.484	1231.17
756.668	1210.69
756.852	1227.07
757.036	1272.13
757.22	1229.12
757.404	1151.3
757.588	1075.52
757.772	1157.44
757.956	1136.96
758.14	1206.59
758.323	1163.59
758.507	1229.12
758.691	1063.24
758.875	1145.16
759.059	1202.5
759.242	1093.96
759.426	1087.81
759.61	1022.28
759.794	1159.49
759.977	1014.09
760.161	1114.44
760.345	1075.52
760.528	1114.44
760.712	1046.85
760.895	1128.77
761.079	1136.96
761.263	1087.81
761.446	1083.72
761.63	989.51
761.813	1038.66
761.997	1007.94
762.18	973.13
762.364	983.37
762.547	913.74
762.731	997.7
762.914	919.88
763.098	973.13
763.281	866.63
763.464	983.37
763.648	991.56
763.831	1014.09
764.015	942.41
764.198	956.74
764.381	905.54
764.564	993.61
764.748	883.02
764.931	1038.66
765.114	923.98
765.297	1046.85
765.481	958.79
765.664	930.12
765.847	960.84
766.03	870.73
766.213	940.36
766.397	909.64
766.58	866.63
766.763	981.32
766.946	895.3
767.129	932.17
767.312	899.4
767.495	934.22
767.678	891.21
767.861	835.91
768.044	917.83
768.227	946.5
768.41	887.11
768.593	887.11
768.776	893.26
768.959	858.44
769.142	883.02
769.324	899.4
769.507	819.53
769.69	837.96
769.873	825.67
770.056	891.21
770.239	842.06
770.421	852.3
770.604	842.06
770.787	874.82
770.97	864.58
771.152	723.27
771.335	835.91
771.518	878.92
771.7	862.54
771.883	811.34
772.066	770.38
772.248	766.28
772.431	801.1
772.613	842.06
772.796	817.48
772.978	729.42
773.161	850.25
773.343	788.81
773.526	883.02
773.708	762.19
773.891	710.99
774.073	678.22
774.256	803.15
774.438	846.15
774.621	747.85
774.803	735.56
774.985	780.62
775.168	782.67
775.35	678.22
775.532	770.38
775.715	614.73
775.897	684.36
776.079	651.6
776.261	723.27
776.444	608.59
776.626	739.66
776.808	753.99
776.99	663.88
777.173	633.16
777.355	645.45
777.537	606.54
777.719	631.12
777.901	670.03
778.083	596.3
778.265	616.78
778.447	624.97
778.629	616.78
778.811	586.06
778.993	635.21
779.175	653.64
779.357	563.53
779.539	530.77
779.721	612.68
779.903	631.12
780.085	588.11
780.267	647.5
780.449	579.92
780.631	528.72
780.812	596.3
780.994	512.33
781.176	680.27
781.358	590.16
781.54	592.2
781.721	629.07
781.903	604.49
782.085	516.43
782.267	534.86
782.448	506.19
782.63	522.57
782.812	551.24
782.993	606.54
783.175	555.34
783.357	573.77
783.538	541.01
783.72	454.99
783.901	541.01
784.083	514.38
784.264	420.17
784.446	432.46
784.627	411.98
784.809	538.96
784.99	465.23
785.172	473.42
785.353	530.77
785.535	485.71
785.716	491.85
785.897	489.81
786.079	405.84
786.26	457.04
786.441	416.08
786.623	459.09
786.804	438.61
786.985	448.85
787.167	420.17
787.348	452.94
787.529	424.27
787.71	489.81
787.891	385.36
788.073	436.56
788.254	411.98
788.435	440.65
788.616	358.74
788.797	276.82
788.978	401.74
789.159	399.7
789.34	391.5
789.522	311.63
789.703	295.25
789.884	424.27
790.065	393.55
790.246	457.04
790.427	332.11
790.607	387.41
790.788	358.74
790.969	375.12
791.15	377.17
791.331	358.74
791.512	321.87
791.693	346.45
791.874	325.97
792.054	348.5
792.235	375.12
792.416	293.2
792.597	391.5
792.778	311.63
792.958	264.53
793.139	244.05
793.32	342.35
793.5	244.05
793.681	328.02
793.862	280.91
794.042	276.82
794.223	323.92
794.404	293.2
794.584	274.77
794.765	285.01
794.945	319.82
795.126	352.59
795.306	321.87
795.487	280.91
795.667	289.1
795.848	379.22
796.028	252.24
796.209	299.34
796.389	262.48
796.57	287.06
796.75	295.25
796.93	252.24
797.111	190.8
797.291	229.71
797.471	350.54
797.652	287.06
797.832	201.04
798.012	325.97
798.192	270.67
798.373	219.47
798.553	305.49
798.733	309.58
798.913	254.29
799.093	250.19
799.274	264.53
799.454	301.39
799.634	246.1
799.814	246.1
799.994	262.48
800.174	278.87
800.354	170.32
800.534	162.13
800.714	186.71
800.894	235.86
801.074	184.66
801.254	203.09
801.434	289.1
801.614	248.15
801.794	190.8
801.974	764.23
802.154	256.34
802.334	287.06
802.514	233.81
802.693	217.43
802.873	219.47
803.053	205.14
803.233	252.24
803.413	180.56
803.592	231.76
803.772	207.19
803.952	272.72
804.131	301.39
804.311	213.33
804.491	256.34
804.67	227.67
804.85	289.1
805.03	289.1
805.209	194.9
805.389	133.46
805.568	252.24
805.748	174.42
805.928	170.32
806.107	231.76
806.287	260.43
806.466	137.56
806.646	153.94
806.825	225.62
807.004	268.63
807.184	237.91
807.363	235.86
807.543	178.51
807.722	129.36
807.901	170.32
808.081	172.37
808.26	121.17
808.439	186.71
808.619	203.09
808.798	160.08
808.977	198.99
809.156	215.38
809.336	131.41
809.515	205.14
809.694	143.7
809.873	182.61
810.052	190.8
810.231	235.86
810.411	145.75
810.59	131.41
810.769	121.17
810.948	153.94
811.127	139.6
811.306	190.8
811.485	133.46
811.664	213.33
811.843	127.32
812.022	170.32
812.201	205.14
812.38	90.45
812.559	198.99
812.737	219.47
812.916	133.46
813.095	153.94
813.274	145.75
813.453	213.33
813.632	131.41
813.811	147.8
813.989	158.03
814.168	112.98
814.347	106.84
814.526	190.8
814.704	129.36
814.883	203.09
815.062	88.4
815.24	80.21
815.419	151.89
815.598	55.64
815.776	145.75
815.955	123.22
816.133	100.69
816.312	227.67
816.49	158.03
816.669	155.99
816.847	172.37
817.026	88.4
817.204	63.83
817.383	139.6
817.561	162.13
817.74	104.79
817.918	129.36
818.097	72.02
818.275	123.22
818.453	119.12
818.632	123.22
818.81	125.27
818.988	86.36
819.167	147.8
819.345	106.84
819.523	121.17
819.701	155.99
819.879	151.89
820.058	90.45
820.236	158.03
820.414	125.27
820.592	0.34
820.77	133.46
820.948	98.64
821.127	123.22
821.305	74.07
821.483	129.36
821.661	63.83
821.839	145.75
822.017	90.45
822.195	100.69
822.373	178.51
822.551	80.21
822.729	162.13
822.907	121.17
823.085	57.68
823.262	160.08
823.44	-13.99
823.618	143.7
823.796	67.92
823.974	115.03
824.152	149.84
824.329	69.97
824.507	80.21
824.685	129.36
824.863	123.22
825.04	182.61
825.218	123.22
825.396	88.4
825.574	131.41
825.751	72.02
825.929	115.03
826.107	78.16
826.284	119.12
826.462	96.6
826.639	22.87
826.817	22.87
826.994	172.37
827.172	49.49
827.349	100.69
827.527	155.99
827.704	121.17
827.882	88.4
828.059	67.92
828.237	141.65
828.414	112.98
828.591	47.44
828.769	90.45
828.946	37.2
829.124	153.94
829.301	90.45
829.478	84.31
829.655	90.45
829.833	108.88
830.01	78.16
830.187	123.22
830.364	139.6
830.542	47.44
830.719	88.4
830.896	137.56
831.073	63.83
831.25	145.75
831.427	90.45
831.604	98.64
831.782	35.16
831.959	98.64
832.136	39.25
832.313	104.79
832.49	43.35
832.667	72.02
832.844	41.3
833.021	76.12
833.198	43.35
833.374	59.73
833.551	84.31
833.728	94.55
833.905	121.17
834.082	82.26
834.259	80.21
834.436	121.17
834.612	63.83
834.789	69.97
834.966	100.69
835.143	31.06
835.319	16.73
835.496	45.4
835.673	96.6
835.85	10.58
836.026	170.32
836.203	96.6
836.38	31.06
836.556	10.58
836.733	82.26
836.909	47.44
837.086	67.92
837.262	72.02
837.439	80.21
837.616	53.59
837.792	78.16
837.968	155.99
838.145	14.68
838.321	26.96
838.498	63.83
838.674	63.83
838.851	98.64
839.027	90.45
839.203	90.45
839.38	121.17
839.556	55.64
839.732	45.4
839.909	-24.23
840.085	65.88
840.261	22.87
840.437	90.45
840.614	26.96
840.79	69.97
840.966	59.73
841.142	6.49
841.318	106.84
841.494	84.31
841.671	51.54
841.847	24.92
842.023	80.21
842.199	106.84
842.375	49.49
842.551	72.02
842.727	82.26
842.903	145.75
843.079	6.49
843.255	123.22
843.431	41.3
843.607	131.41
843.783	-13.99
843.959	63.83
844.134	43.35
844.31	104.79
844.486	55.64
844.662	72.02
844.838	39.25
845.013	90.45
845.189	67.92
845.365	47.44
845.541	47.44
845.716	104.79
845.892	39.25
846.068	92.5
846.244	37.2
846.419	88.4
846.595	-42.67
846.77	31.06
846.946	49.49
847.122	22.87
847.297	37.2
847.473	43.35
847.648	39.25
847.824	137.56
847.999	16.73
848.175	53.59
848.35	49.49
848.526	61.78
848.701	51.54
848.876	26.96
849.052	18.77
849.227	49.49
849.403	-18.09
849.578	24.92
849.753	47.44
849.929	-30.38
850.104	22.87
850.279	35.16
850.454	102.74
850.63	51.54
850.805	37.2
850.98	121.17
851.155	82.26
851.33	72.02
851.505	-34.47
851.681	117.08
851.856	49.49
852.031	90.45
852.206	82.26
852.381	2.39
852.556	45.4
852.731	4.44
852.906	55.64
853.081	31.06
853.256	45.4
853.431	-5.8
853.606	33.11
853.781	-30.38
853.956	-7.85
854.131	51.54
854.305	-7.85
854.48	96.6
854.655	31.06
854.83	57.68
855.005	-24.23
855.18	22.87
855.354	-3.75
855.529	74.07
855.704	12.63
855.879	43.35
856.053	65.88
856.228	22.87
856.403	8.53
856.577	8.53
856.752	-22.19
856.926	-1.71
857.101	35.16
857.276	10.58
857.45	55.64
857.625	31.06
857.799	24.92
857.974	-34.47
858.148	90.45
858.323	-9.9
858.497	-26.28
858.672	76.12
858.846	-42.67
859.02	47.44
859.195	4.44
859.369	8.53
859.543	35.16
859.718	14.68
859.892	-3.75
860.066	18.77
860.241	24.92
860.415	-30.38
860.589	47.44
860.763	41.3
860.938	14.68
861.112	43.35
861.286	49.49
861.46	6.49
861.634	26.96
861.808	0.34
861.982	-3.75
862.157	22.87
862.331	8.53
862.505	-59.05
862.679	18.77
862.853	-42.67
863.027	-3.75
863.201	22.87
863.375	14.68
863.549	18.77
863.722	20.82
863.896	41.3
864.07	18.77
864.244	-5.8
864.418	74.07
864.592	0.34
864.766	-40.62
864.939	14.68
865.113	14.68
865.287	108.88
865.461	41.3
865.634	31.06
865.808	-16.04
865.982	-9.9
866.156	-32.43
866.329	16.73
866.503	20.82
866.676	-28.33
866.85	-69.29
867.024	35.16
867.197	82.26
867.371	24.92
867.544	-1.71
867.718	2.39
867.891	26.96
868.065	-48.81
868.238	16.73
868.412	-16.04
868.585	41.3
868.759	31.06
868.932	59.73
869.105	4.44
869.279	26.96
869.452	-1.71
869.625	61.78
869.799	67.92
869.972	-26.28
870.145	110.93
870.319	69.97
870.492	47.44
870.665	-71.34
870.838	-1.71
871.011	4.44
871.185	-26.28
871.358	-11.95
871.531	125.27
871.704	12.63
871.877	45.4
872.05	31.06
872.223	-40.62
872.396	43.35
872.569	-46.76
872.742	14.68
872.915	47.44
873.088	92.5
873.261	-65.19
873.434	-1.71
873.607	24.92
873.78	47.44
873.953	29.01
874.126	10.58
874.299	-22.19
874.471	63.83
874.644	8.53
874.817	59.73
874.99	43.35
875.163	115.03
875.335	-18.09
875.508	-3.75
875.681	67.92
875.853	-34.47
876.026	-54.95
876.199	6.49
876.371	-46.76
876.544	-1.71
876.717	-16.04
876.889	-57
877.062	39.25
877.234	-24.23
877.407	29.01
877.579	24.92
877.752	14.68
877.924	33.11
878.097	-5.8
878.269	22.87
878.442	-32.43
878.614	2.39
878.786	80.21
878.959	51.54
879.131	26.96
879.303	6.49
879.476	-9.9
879.648	-3.75
879.82	47.44
879.993	-69.29
880.165	63.83
880.337	59.73
880.509	-42.67
880.681	43.35
880.854	88.4
881.026	26.96
881.198	74.07
881.37	2.39
881.542	26.96
881.714	-48.81
881.886	31.06
882.058	-7.85
882.23	18.77
882.402	53.59
882.574	55.64
882.746	98.64
882.918	22.87
883.09	-32.43
883.262	6.49
883.434	80.21
883.606	-67.24
883.778	-32.43
883.95	14.68
884.122	41.3
884.293	-26.28
884.465	47.44
884.637	51.54
884.809	20.82
884.98	-16.04
885.152	55.64
885.324	55.64
885.496	63.83
885.667	29.01
885.839	-48.81
886.011	-7.85
886.182	82.26
886.354	39.25
886.525	0.34
886.697	-16.04
886.869	12.63
887.04	0.34
887.212	47.44
887.383	14.68
887.555	12.63
887.726	-16.04
887.897	16.73
888.069	-63.15
888.24	45.4
888.412	-24.23
888.583	72.02
888.754	-50.86
888.926	-13.99
889.097	14.68
889.268	-24.23
889.44	63.83
889.611	14.68
889.782	26.96
889.953	-22.19
890.125	65.88
890.296	-11.95
890.467	6.49
890.638	26.96
890.809	41.3
890.98	-50.86
891.151	16.73
891.323	39.25
891.494	63.83
891.665	-9.9
891.836	-26.28
892.007	-36.52
892.178	14.68
892.349	45.4
892.52	88.4
892.691	-22.19
892.862	8.53
893.032	-44.71
893.203	2.39
893.374	0.34
893.545	31.06
893.716	-34.47
893.887	59.73
894.057	-3.75
894.228	-18.09
894.399	-24.23
894.57	49.49
894.74	-24.23
894.911	16.73
895.082	-32.43
895.253	-5.8
895.423	47.44
895.594	-26.28
895.764	49.49
895.935	-18.09
896.106	-13.99
896.276	57.68
896.447	-26.28
896.617	-65.19
896.788	-48.81
896.958	-24.23
897.129	12.63
897.299	33.11
897.47	12.63
897.64	51.54
897.81	39.25
897.981	67.92
898.151	22.87
898.322	18.77
898.492	80.21
898.662	-50.86
898.832	-52.91
899.003	31.06
899.173	67.92
899.343	10.58
899.513	-1.71
