Data from USB4F104151__33__14-42-50-365.txt Node

Date: Thu Mar 13 14:42:50 EDT 2025
User: louis
Spectrometer: USB4F10415
Trigger mode: 4
Integration Time (sec): 2.000000E-2
Scans to average: 1
Electric dark correction enabled: true
Nonlinearity correction enabled: false
Boxcar width: 0
XAxis mode: Wavelengths
Number of Pixels in Spectrum: 3648
>>>>>Begin Spectral Data<<<<<
178.204	-122.71
178.424	-122.71
178.644	-122.71
178.864	-132.95
179.084	-112.47
179.304	-18.26
179.524	39.08
179.744	49.32
179.964	0.17
180.184	22.7
180.404	-34.64
180.624	57.51
180.844	-53.08
181.064	-59.22
181.283	-5.97
181.503	-36.69
181.723	39.08
181.943	-18.26
182.163	41.13
182.383	22.7
182.602	71.85
182.822	6.31
183.042	22.7
183.262	2.22
183.482	24.75
183.701	-55.12
183.921	63.66
184.141	-5.97
184.361	63.66
184.58	14.51
184.8	8.36
185.02	6.31
185.239	77.99
185.459	30.89
185.679	6.31
185.898	16.55
186.118	37.03
186.338	2.22
186.557	-1.88
186.777	-16.21
186.997	-18.26
187.216	-22.36
187.436	69.8
187.655	8.36
187.875	39.08
188.095	-20.31
188.314	-8.02
188.534	32.94
188.753	63.66
188.973	96.43
189.192	49.32
189.412	39.08
189.631	32.94
189.851	-40.79
190.07	24.75
190.29	-18.26
190.509	45.23
190.729	18.6
190.948	90.28
191.168	71.85
191.387	32.94
191.607	55.47
191.826	16.55
192.045	75.95
192.265	-59.22
192.484	47.27
192.704	-18.26
192.923	-40.79
193.142	67.75
193.362	-32.6
193.581	6.31
193.8	2.22
194.02	8.36
194.239	47.27
194.458	-1.88
194.678	-34.64
194.897	-34.64
195.116	30.89
195.335	16.55
195.555	96.43
195.774	26.79
195.993	24.75
196.212	-55.12
196.432	73.9
196.651	-12.12
196.87	-18.26
197.089	47.27
197.308	92.33
197.528	63.66
197.747	22.7
197.966	-16.21
198.185	73.9
198.404	20.65
198.623	32.94
198.842	20.65
199.062	57.51
199.281	71.85
199.5	-63.32
199.719	-67.41
199.938	-51.03
200.157	-1.88
200.376	0.17
200.595	100.52
200.814	18.6
201.033	-1.88
201.252	-34.64
201.471	16.55
201.69	6.31
201.909	30.89
202.128	-51.03
202.347	-1.88
202.566	41.13
202.785	-106.32
203.004	20.65
203.223	59.56
203.442	26.79
203.661	22.7
203.879	4.27
204.098	-34.64
204.317	-40.79
204.536	12.46
204.755	123.05
204.974	20.65
205.193	-1.88
205.411	65.71
205.63	0.17
205.849	-16.21
206.068	8.36
206.287	22.7
206.505	26.79
206.724	16.55
206.943	-10.07
207.162	59.56
207.381	41.13
207.599	-26.45
207.818	4.27
208.037	32.94
208.255	65.71
208.474	22.7
208.693	14.51
208.911	8.36
209.13	22.7
209.349	57.51
209.567	-26.45
209.786	88.23
210.005	55.47
210.223	2.22
210.442	-42.84
210.661	14.51
210.879	61.61
211.098	2.22
211.316	-1.88
211.535	69.8
211.753	6.31
211.972	-24.4
212.191	49.32
212.409	18.6
212.628	10.41
212.846	-28.5
213.065	43.18
213.283	88.23
213.502	-1.88
213.72	-1.88
213.938	16.55
214.157	2.22
214.375	49.32
214.594	6.31
214.812	37.03
215.031	12.46
215.249	-55.12
215.467	0.17
215.686	-30.55
215.904	114.86
216.122	-34.64
216.341	63.66
216.559	32.94
216.778	49.32
216.996	16.55
217.214	24.75
217.432	20.65
217.651	-18.26
217.869	18.6
218.087	47.27
218.306	6.31
218.524	22.7
218.742	4.27
218.96	-14.17
219.179	30.89
219.397	-8.02
219.615	41.13
219.833	-34.64
220.051	47.27
220.27	57.51
220.488	67.75
220.706	108.71
220.924	34.99
221.142	39.08
221.36	55.47
221.578	-22.36
221.796	94.38
222.015	-42.84
222.233	43.18
222.451	18.6
222.669	-5.97
222.887	16.55
223.105	18.6
223.323	30.89
223.541	-14.17
223.759	47.27
223.977	34.99
224.195	88.23
224.413	43.18
224.631	-30.55
224.849	-26.45
225.067	90.28
225.285	18.6
225.503	-26.45
225.721	-28.5
225.939	24.75
226.157	34.99
226.375	94.38
226.592	18.6
226.81	24.75
227.028	67.75
227.246	55.47
227.464	59.56
227.682	43.18
227.9	20.65
228.117	104.62
228.335	18.6
228.553	4.27
228.771	18.6
228.989	39.08
229.206	34.99
229.424	49.32
229.642	-26.45
229.86	10.41
230.077	10.41
230.295	0.17
230.513	14.51
230.731	22.7
230.948	32.94
231.166	-24.4
231.384	47.27
231.601	-30.55
231.819	-8.02
232.037	-26.45
232.254	-63.32
232.472	49.32
232.689	22.7
232.907	73.9
233.125	43.18
233.342	-30.55
233.56	-10.07
233.777	71.85
233.995	63.66
234.213	30.89
234.43	41.13
234.648	-18.26
234.865	37.03
235.083	-44.88
235.3	-57.17
235.518	90.28
235.735	65.71
235.953	88.23
236.17	49.32
236.388	96.43
236.605	30.89
236.822	53.42
237.04	-3.93
237.257	6.31
237.475	-26.45
237.692	73.9
237.909	77.99
238.127	18.6
238.344	6.31
238.562	2.22
238.779	6.31
238.996	6.31
239.214	47.27
239.431	14.51
239.648	26.79
239.865	51.37
240.083	-26.45
240.3	8.36
240.517	-1.88
240.735	22.7
240.952	86.19
241.169	41.13
241.386	92.33
241.603	-14.17
241.821	14.51
242.038	129.19
242.255	102.57
242.472	-10.07
242.689	14.51
242.907	-10.07
243.124	49.32
243.341	-48.98
243.558	-22.36
243.775	-1.88
243.992	-42.84
244.209	30.89
244.426	-28.5
244.643	92.33
244.86	57.51
245.078	51.37
245.295	14.51
245.512	-10.07
245.729	-1.88
245.946	14.51
246.163	4.27
246.38	2.22
246.597	47.27
246.814	47.27
247.031	-10.07
247.248	-24.4
247.464	32.94
247.681	18.6
247.898	-18.26
248.115	0.17
248.332	47.27
248.549	88.23
248.766	133.29
248.983	-1.88
249.2	71.85
249.417	88.23
249.633	22.7
249.85	71.85
250.067	-26.45
250.284	20.65
250.501	47.27
250.717	22.7
250.934	-5.97
251.151	47.27
251.368	10.41
251.585	39.08
251.801	77.99
252.018	-16.21
252.235	41.13
252.451	-51.03
252.668	39.08
252.885	75.95
253.102	-5.97
253.318	-79.7
253.535	-34.64
253.752	88.23
253.968	57.51
254.185	-46.93
254.401	18.6
254.618	-16.21
254.835	-34.64
255.051	22.7
255.268	51.37
255.484	-1.88
255.701	26.79
255.917	-1.88
256.134	-14.17
256.351	-16.21
256.567	-32.6
256.784	24.75
257	6.31
257.217	96.43
257.433	0.17
257.65	71.85
257.866	49.32
258.082	-57.17
258.299	-30.55
258.515	63.66
258.732	-34.64
258.948	71.85
259.165	14.51
259.381	-51.03
259.597	61.61
259.814	-51.03
260.03	39.08
260.246	-8.02
260.463	43.18
260.679	82.09
260.895	-8.02
261.112	6.31
261.328	-51.03
261.544	82.09
261.761	125.1
261.977	43.18
262.193	2.22
262.409	73.9
262.626	51.37
262.842	104.62
263.058	-18.26
263.274	10.41
263.49	-8.02
263.707	80.04
263.923	-5.97
264.139	10.41
264.355	39.08
264.571	55.47
264.787	18.6
265.004	80.04
265.22	-14.17
265.436	41.13
265.652	82.09
265.868	30.89
266.084	-16.21
266.3	63.66
266.516	30.89
266.732	34.99
266.948	16.55
267.164	-22.36
267.38	24.75
267.596	47.27
267.812	39.08
268.028	14.51
268.244	43.18
268.46	47.27
268.676	32.94
268.892	41.13
269.108	-10.07
269.324	39.08
269.54	-46.93
269.756	28.84
269.972	-14.17
270.188	16.55
270.403	-28.5
270.619	47.27
270.835	94.38
271.051	55.47
271.267	-20.31
271.483	30.89
271.698	39.08
271.914	-44.88
272.13	-8.02
272.346	-18.26
272.562	14.51
272.777	-24.4
272.993	-51.03
273.209	-46.93
273.425	41.13
273.64	2.22
273.856	41.13
274.072	0.17
274.287	30.89
274.503	37.03
274.719	55.47
274.934	47.27
275.15	2.22
275.366	12.46
275.581	6.31
275.797	47.27
276.012	-10.07
276.228	80.04
276.444	12.46
276.659	8.36
276.875	-14.17
277.09	53.42
277.306	-32.6
277.521	-34.64
277.737	30.89
277.952	6.31
278.168	65.71
278.383	34.99
278.599	-3.93
278.814	-1.88
279.03	-3.93
279.245	26.79
279.461	39.08
279.676	84.14
279.892	-34.64
280.107	30.89
280.322	-3.93
280.538	22.7
280.753	22.7
280.969	0.17
281.184	86.19
281.399	12.46
281.615	30.89
281.83	121
282.045	-57.17
282.26	59.56
282.476	63.66
282.691	45.23
282.906	39.08
283.122	30.89
283.337	28.84
283.552	20.65
283.767	4.27
283.983	73.9
284.198	28.84
284.413	73.9
284.628	-1.88
284.843	24.75
285.058	61.61
285.274	16.55
285.489	59.56
285.704	82.09
285.919	-3.93
286.134	26.79
286.349	-38.74
286.564	-51.03
286.779	51.37
286.995	82.09
287.21	-34.64
287.425	65.71
287.64	-24.4
287.855	-18.26
288.07	-8.02
288.285	0.17
288.5	73.9
288.715	-28.5
288.93	30.89
289.145	-44.88
289.36	75.95
289.575	86.19
289.79	59.56
290.004	49.32
290.219	-10.07
290.434	22.7
290.649	-57.17
290.864	2.22
291.079	6.31
291.294	57.51
291.509	-53.08
291.724	12.46
291.938	47.27
292.153	22.7
292.368	34.99
292.583	49.32
292.798	14.51
293.012	106.67
293.227	4.27
293.442	-20.31
293.657	39.08
293.871	-1.88
294.086	51.37
294.301	57.51
294.516	112.81
294.73	12.46
294.945	84.14
295.16	-14.17
295.374	39.08
295.589	26.79
295.804	-18.26
296.018	63.66
296.233	63.66
296.447	90.28
296.662	39.08
296.877	22.7
297.091	51.37
297.306	41.13
297.52	34.99
297.735	22.7
297.949	49.32
298.164	110.76
298.378	4.27
298.593	30.89
298.807	-16.21
299.022	22.7
299.236	80.04
299.451	39.08
299.665	84.14
299.88	6.31
300.094	88.23
300.309	22.7
300.523	-8.02
300.737	-26.45
300.952	84.14
301.166	53.42
301.381	65.71
301.595	-26.45
301.809	82.09
302.024	20.65
302.238	18.6
302.452	67.75
302.667	-18.26
302.881	30.89
303.095	16.55
303.309	43.18
303.524	-87.89
303.738	-30.55
303.952	14.51
304.166	-14.17
304.381	8.36
304.595	22.7
304.809	-18.26
305.023	39.08
305.237	-71.51
305.452	-14.17
305.666	-14.17
305.88	98.47
306.094	2.22
306.308	-34.64
306.522	77.99
306.736	22.7
306.95	63.66
307.164	-1.88
307.379	30.89
307.593	18.6
307.807	30.89
308.021	-10.07
308.235	30.89
308.449	-57.17
308.663	2.22
308.877	108.71
309.091	16.55
309.305	26.79
309.519	18.6
309.733	39.08
309.947	6.31
310.161	71.85
310.374	22.7
310.588	-22.36
310.802	26.79
311.016	-10.07
311.23	34.99
311.444	-40.79
311.658	26.79
311.872	86.19
312.085	47.27
312.299	6.31
312.513	104.62
312.727	10.41
312.941	55.47
313.154	32.94
313.368	37.03
313.582	-32.6
313.796	-32.6
314.009	-18.26
314.223	61.61
314.437	63.66
314.651	51.37
314.864	-1.88
315.078	49.32
315.292	-10.07
315.505	0.17
315.719	92.33
315.933	55.47
316.146	30.89
316.36	-8.02
316.573	75.95
316.787	26.79
317.001	92.33
317.214	22.7
317.428	-26.45
317.641	-5.97
317.855	0.17
318.068	-1.88
318.282	55.47
318.495	37.03
318.709	61.61
318.922	24.75
319.136	22.7
319.349	65.71
319.563	43.18
319.776	82.09
319.99	34.99
320.203	63.66
320.417	34.99
320.63	-10.07
320.843	114.86
321.057	55.47
321.27	90.28
321.483	98.47
321.697	139.43
321.91	-36.69
322.124	73.9
322.337	-30.55
322.55	14.51
322.763	22.7
322.977	80.04
323.19	-65.36
323.403	4.27
323.617	80.04
323.83	61.61
324.043	26.79
324.256	-46.93
324.469	14.51
324.683	10.41
324.896	59.56
325.109	67.75
325.322	-104.28
325.535	104.62
325.748	22.7
325.962	116.9
326.175	-26.45
326.388	63.66
326.601	98.47
326.814	24.75
327.027	51.37
327.24	69.8
327.453	26.79
327.666	41.13
327.879	96.43
328.092	71.85
328.305	-34.64
328.518	96.43
328.731	22.7
328.944	55.47
329.157	-8.02
329.37	-34.64
329.583	65.71
329.796	30.89
330.009	-81.75
330.222	39.08
330.435	59.56
330.648	6.31
330.861	-1.88
331.073	2.22
331.286	32.94
331.499	75.95
331.712	-14.17
331.925	84.14
332.138	8.36
332.35	6.31
332.563	-5.97
332.776	34.99
332.989	14.51
333.202	24.75
333.414	-5.97
333.627	-16.21
333.84	-16.21
334.053	-1.88
334.265	20.65
334.478	39.08
334.691	43.18
334.903	131.24
335.116	2.22
335.329	-5.97
335.541	0.17
335.754	71.85
335.966	-18.26
336.179	45.23
336.392	22.7
336.604	32.94
336.817	22.7
337.029	61.61
337.242	63.66
337.454	32.94
337.667	14.51
337.88	80.04
338.092	6.31
338.305	63.66
338.517	65.71
338.729	82.09
338.942	-5.97
339.154	-8.02
339.367	-34.64
339.579	55.47
339.792	-18.26
340.004	-10.07
340.217	6.31
340.429	26.79
340.641	-63.32
340.854	63.66
341.066	18.6
341.278	37.03
341.491	43.18
341.703	65.71
341.915	-59.22
342.128	39.08
342.34	47.27
342.552	26.79
342.764	41.13
342.977	112.81
343.189	20.65
343.401	55.47
343.613	16.55
343.826	47.27
344.038	-5.97
344.25	28.84
344.462	-51.03
344.674	-10.07
344.886	39.08
345.099	24.75
345.311	30.89
345.523	-34.64
345.735	14.51
345.947	41.13
346.159	88.23
346.371	-10.07
346.583	16.55
346.795	112.81
347.007	-8.02
347.219	30.89
347.431	-1.88
347.643	47.27
347.855	10.41
348.067	92.33
348.279	-38.74
348.491	82.09
348.703	43.18
348.915	82.09
349.127	34.99
349.339	88.23
349.551	30.89
349.763	34.99
349.975	30.89
350.187	75.95
350.399	47.27
350.61	8.36
350.822	43.18
351.034	121
351.246	14.51
351.458	41.13
351.669	39.08
351.881	63.66
352.093	-48.98
352.305	90.28
352.517	22.7
352.728	57.51
352.94	47.27
353.152	20.65
353.363	32.94
353.575	63.66
353.787	-24.4
353.999	57.51
354.21	88.23
354.422	22.7
354.633	82.09
354.845	10.41
355.057	-1.88
355.268	41.13
355.48	-5.97
355.692	-18.26
355.903	14.51
356.115	-22.36
356.326	-10.07
356.538	71.85
356.749	-24.4
356.961	10.41
357.172	41.13
357.384	-59.22
357.595	55.47
357.807	-59.22
358.018	39.08
358.23	0.17
358.441	84.14
358.653	-18.26
358.864	-14.17
359.075	47.27
359.287	39.08
359.498	80.04
359.709	0.17
359.921	2.22
360.132	10.41
360.344	92.33
360.555	-8.02
360.766	73.9
360.977	41.13
361.189	14.51
361.4	37.03
361.611	14.51
361.823	75.95
362.034	43.18
362.245	53.42
362.456	-10.07
362.667	104.62
362.879	32.94
363.09	24.75
363.301	-1.88
363.512	-8.02
363.723	55.47
363.935	55.47
364.146	-51.03
364.357	-26.45
364.568	82.09
364.779	6.31
364.99	55.47
365.201	86.19
365.412	32.94
365.623	-8.02
365.834	24.75
366.045	26.79
366.256	84.14
366.467	10.41
366.678	6.31
366.889	-34.64
367.1	43.18
367.311	65.71
367.522	57.51
367.733	108.71
367.944	41.13
368.155	20.65
368.366	84.14
368.577	30.89
368.788	4.27
368.999	-1.88
369.209	6.31
369.42	75.95
369.631	133.29
369.842	41.13
370.053	55.47
370.264	153.77
370.474	0.17
370.685	45.23
370.896	10.41
371.107	82.09
371.317	18.6
371.528	57.51
371.739	73.9
371.95	114.86
372.16	131.24
372.371	-1.88
372.582	67.75
372.792	18.6
373.003	10.41
373.214	-14.17
373.424	47.27
373.635	-34.64
373.846	-10.07
374.056	-20.31
374.267	6.31
374.477	30.89
374.688	49.32
374.898	14.51
375.109	6.31
375.319	30.89
375.53	22.7
375.74	22.7
375.951	57.51
376.161	26.79
376.372	18.6
376.582	-44.88
376.793	127.14
377.003	108.71
377.214	6.31
377.424	59.56
377.635	84.14
377.845	26.79
378.055	104.62
378.266	-55.12
378.476	112.81
378.686	65.71
378.897	88.23
379.107	10.41
379.317	90.28
379.528	10.41
379.738	43.18
379.948	-8.02
380.158	71.85
380.369	55.47
380.579	32.94
380.789	51.37
380.999	59.56
381.21	63.66
381.42	98.47
381.63	-8.02
381.84	61.61
382.05	39.08
382.261	30.89
382.471	63.66
382.681	18.6
382.891	55.47
383.101	20.65
383.311	-57.17
383.521	55.47
383.731	80.04
383.941	6.31
384.151	32.94
384.361	57.51
384.571	39.08
384.781	65.71
384.991	118.95
385.201	106.67
385.411	80.04
385.621	110.76
385.831	51.37
386.041	14.51
386.251	32.94
386.461	43.18
386.671	49.32
386.881	96.43
387.091	-16.21
387.301	51.37
387.511	57.51
387.72	43.18
387.93	41.13
388.14	-8.02
388.35	34.99
388.56	-1.88
388.769	98.47
388.979	82.09
389.189	-1.88
389.399	47.27
389.609	112.81
389.818	63.66
390.028	10.41
390.238	-42.84
390.447	32.94
390.657	90.28
390.867	-16.21
391.076	39.08
391.286	12.46
391.496	65.71
391.705	71.85
391.915	104.62
392.125	131.24
392.334	24.75
392.544	116.9
392.753	104.62
392.963	-8.02
393.172	4.27
393.382	-5.97
393.591	88.23
393.801	53.42
394.01	161.96
394.22	-5.97
394.429	80.04
394.639	-18.26
394.848	121
395.058	57.51
395.267	34.99
395.477	-18.26
395.686	104.62
395.895	90.28
396.105	139.43
396.314	110.76
396.524	96.43
396.733	24.75
396.942	108.71
397.152	65.71
397.361	155.82
397.57	30.89
397.78	112.81
397.989	108.71
398.198	159.91
398.407	86.19
398.617	14.51
398.826	84.14
399.035	47.27
399.244	104.62
399.453	102.57
399.663	39.08
399.872	121
400.081	71.85
400.29	82.09
400.499	69.8
400.708	102.57
400.917	22.7
401.127	94.38
401.336	96.43
401.545	125.1
401.754	86.19
401.963	92.33
402.172	73.9
402.381	45.23
402.59	59.56
402.799	139.43
403.008	182.44
403.217	47.27
403.426	139.43
403.635	104.62
403.844	133.29
404.053	110.76
404.262	71.85
404.471	157.86
404.68	131.24
404.888	151.72
405.097	90.28
405.306	116.9
405.515	149.67
405.724	71.85
405.933	88.23
406.142	194.73
406.35	200.87
406.559	213.16
406.768	157.86
406.977	213.16
407.185	112.81
407.394	166.06
407.603	129.19
407.812	198.82
408.02	155.82
408.229	211.11
408.438	235.69
408.646	219.3
408.855	213.16
409.064	204.97
409.272	247.97
409.481	223.4
409.69	280.74
409.898	213.16
410.107	245.93
410.315	278.69
410.524	241.83
410.733	229.54
410.941	243.88
411.15	301.22
411.358	336.04
411.567	377
411.775	274.6
411.984	325.8
412.192	401.57
412.401	428.2
412.609	374.95
412.818	409.76
413.026	465.06
413.234	405.67
413.443	465.06
413.651	465.06
413.86	436.39
414.068	565.41
414.276	530.59
414.485	465.06
414.693	559.27
414.901	555.17
415.11	630.95
415.318	620.71
415.526	532.64
415.734	663.71
415.943	573.6
416.151	682.14
416.359	637.09
416.567	661.66
416.776	753.82
416.984	759.97
417.192	805.02
417.4	794.78
417.608	833.69
417.817	874.65
418.025	886.94
418.233	929.95
418.441	905.37
418.649	987.29
418.857	1005.72
419.065	1136.79
419.273	1071.26
419.481	1157.27
419.689	1183.9
419.897	1218.71
420.105	1204.38
420.313	1294.49
420.521	1302.68
420.729	1198.23
420.937	1368.21
421.145	1448.08
421.353	1509.52
421.561	1644.69
421.769	1566.87
421.977	1616.02
422.185	1632.4
422.393	1751.18
422.601	1939.6
422.809	1781.9
423.017	1886.35
423.224	1927.31
423.432	2003.08
423.64	2048.14
423.848	2316.42
424.056	2177.16
424.263	2236.55
424.471	2316.42
424.679	2361.48
424.887	2431.11
425.094	2572.42
425.302	2693.25
425.51	2719.87
425.718	2832.51
425.925	2832.51
426.133	2816.13
426.341	3078.27
426.548	3137.66
426.756	3219.58
426.964	3207.29
427.171	3528.82
427.379	3391.61
427.586	3610.74
427.794	3643.51
428.001	3780.72
428.209	3932.27
428.417	3881.07
428.624	4282.47
428.832	4266.09
429.039	4114.54
429.247	4188.27
429.454	4634.72
429.662	5007.45
429.869	4577.38
430.076	4835.42
430.284	4903.01
430.491	4978.78
430.699	5242.97
430.906	5159
431.114	5353.56
431.321	5363.8
431.528	5716.05
431.736	5992.53
431.943	6256.72
432.15	6129.74
432.358	6207.56
432.565	6506.57
432.772	6502.47
432.979	6723.65
433.187	6809.67
433.394	6846.53
433.601	7440.44
433.808	7440.44
434.016	7428.15
434.223	7614.52
434.43	8132.65
434.637	7866.42
434.844	8407.08
435.052	8620.07
435.259	8718.37
435.466	8558.63
435.673	8630.31
435.88	9205.79
436.087	9689.11
436.294	9601.05
436.501	9302.04
436.708	9652.25
436.915	10061.84
437.122	10319.89
437.329	10340.36
437.537	10596.36
437.743	10893.32
437.95	10752.01
438.157	11354.11
438.364	11788.28
438.571	11794.42
438.778	11737.08
438.985	12748.78
439.192	12195.82
439.399	12578.79
439.606	12492.78
439.813	13174.75
440.02	13989.85
440.227	13621.21
440.433	13709.27
440.64	13985.75
440.847	13744.09
441.054	14260.18
441.261	15245.25
441.467	14901.19
441.674	15521.73
441.881	16003
442.088	15990.71
442.294	15677.37
442.501	15931.32
442.708	16418.74
442.914	17127.33
443.121	17983.38
443.328	17590.17
443.534	18409.36
443.741	18014.1
443.948	17883.03
444.154	19212.17
444.361	19259.27
444.568	19208.07
444.774	19048.33
444.981	19236.74
445.187	20074.36
445.394	20698.99
445.6	20719.47
445.807	22550.35
446.013	21647.2
446.22	21692.26
446.426	22697.81
446.633	23144.27
446.839	24057.66
447.046	22896.46
447.252	24231.74
447.459	24203.07
447.665	24131.39
447.871	25325.35
448.078	26175.26
448.284	25112.36
448.491	25614.12
448.697	26765.07
448.903	27215.63
449.11	27604.74
449.316	27098.89
449.522	27660.04
449.728	28280.57
449.935	28147.45
450.141	28233.47
450.347	29019.89
450.553	28325.63
450.76	28788.47
450.966	29230.83
451.172	29361.9
451.378	30652.12
451.584	29701.86
451.791	30371.55
451.997	30306.01
452.203	30711.51
452.409	30781.14
452.615	30582.49
452.821	29404.91
453.027	28999.41
453.233	30752.47
453.44	29429.48
453.646	29742.82
453.852	30037.73
454.058	30418.65
454.264	29439.72
454.47	30406.36
454.676	29544.17
454.882	30140.13
455.088	28006.14
455.294	28116.73
455.5	28890.87
455.705	28935.92
455.911	28053.25
456.117	27563.78
456.323	27088.65
456.529	25769.76
456.735	26830.61
456.941	26310.43
457.147	25962.27
457.352	25048.88
457.558	24837.94
457.764	24831.79
457.97	24518.45
458.176	23912.25
458.381	23621.44
458.587	22779.73
458.793	22941.52
458.999	21477.22
459.204	23152.46
459.41	22257.5
459.616	20879.21
459.821	21178.22
460.027	20957.03
460.233	20713.33
460.438	19775.36
460.644	19863.42
460.85	18859.91
461.055	18612.11
461.261	18825.1
461.466	17020.84
461.672	16682.92
461.878	18134.93
462.083	16758.7
462.289	16433.07
462.494	16254.9
462.7	15523.77
462.905	15013.83
463.111	15755.19
463.316	15851.45
463.522	15304.64
463.727	15398.85
463.932	15425.47
464.138	15300.55
464.343	15404.99
464.549	14737.35
464.754	15310.79
464.959	15202.24
465.165	14936.01
465.37	14485.45
465.575	14071.76
465.781	14546.89
465.986	14645.2
466.191	14196.69
466.397	13950.93
466.602	13279.2
466.807	13400.03
467.012	13729.75
467.218	13754.33
467.423	13346.78
467.628	13756.38
467.833	14073.81
468.038	13555.68
468.244	13387.74
468.449	13897.69
468.654	13506.52
468.859	13180.9
469.064	13246.43
469.269	12552.17
469.474	12687.34
469.679	13137.89
469.885	12638.19
470.09	12838.89
470.295	12842.98
470.5	12472.3
470.705	12722.15
470.91	12296.18
471.115	12275.7
471.32	12371.95
471.525	12406.77
471.73	12023.8
471.935	11995.12
472.139	11411.45
472.344	11636.73
472.549	11728.89
472.754	11337.73
472.959	11505.66
473.164	11042.82
473.369	10913.8
473.574	11345.92
473.778	11116.55
473.983	11040.77
474.188	10813.45
474.393	10557.45
474.598	10600.46
474.802	10631.18
475.007	10270.73
475.212	10553.35
475.417	9910.29
475.621	10172.43
475.826	10166.29
476.031	9959.44
476.235	9918.48
476.44	9979.92
476.645	9648.15
476.849	9775.13
477.054	9639.96
477.259	9379.87
477.463	9488.41
477.668	9222.17
477.872	9320.48
478.077	9248.8
478.282	8912.93
478.486	8886.31
478.691	8665.13
478.895	8800.29
479.1	8575.02
479.304	8665.13
479.509	8622.12
479.713	8749.09
479.918	8443.95
480.122	8513.58
480.326	8323.12
480.531	8464.43
480.735	8276.01
480.94	8177.71
481.144	8609.83
481.348	8101.94
481.553	8138.8
481.757	8034.35
481.961	8271.92
482.166	8509.48
482.37	8175.66
482.574	8093.74
482.778	8050.74
482.983	8241.2
483.187	7989.3
483.391	8259.63
483.595	8267.82
483.8	7858.23
484.004	7903.28
484.208	8177.71
484.412	8247.34
484.616	8198.19
484.821	7989.3
485.025	7817.27
485.229	8210.48
485.433	8046.64
485.637	8089.65
485.841	8034.35
486.045	8093.74
486.249	8214.57
486.453	7958.58
486.657	7925.81
486.861	8026.16
487.065	8142.89
487.269	8087.6
487.473	7991.34
487.677	8120.37
487.881	8345.64
488.085	7966.77
488.289	8149.04
488.493	8233.01
488.697	8267.82
488.901	8173.61
489.105	8093.74
489.309	8198.19
489.512	8271.92
489.716	8433.71
489.92	8362.03
490.124	8312.88
490.328	8382.51
490.531	8204.33
490.735	8468.52
490.939	8534.06
491.143	8316.97
491.346	8200.24
491.55	8595.5
491.754	8509.48
491.958	8704.04
492.161	8513.58
492.365	8654.89
492.569	8675.37
492.772	8701.99
492.976	8767.52
493.18	8861.73
493.383	8886.31
493.587	8869.92
493.79	9060.38
493.994	8974.37
494.197	9095.2
494.401	9130.02
494.605	9150.5
494.808	9517.08
495.012	9316.38
495.215	9431.07
495.419	9431.07
495.622	9132.06
495.825	9445.4
496.029	9533.47
496.232	9738.26
496.436	9855
496.639	10067.99
496.843	10051.6
497.046	10278.93
497.249	10473.48
497.453	10346.51
497.656	10475.53
497.859	10614.79
498.063	10762.25
498.266	10870.79
498.469	10960.9
498.673	10919.94
498.876	11247.62
499.079	11227.14
499.282	11384.83
499.485	11558.91
499.689	11515.9
499.892	11872.25
500.095	11935.73
500.298	12089.33
500.501	12101.62
500.705	12484.59
500.908	12650.47
501.111	12683.24
501.314	12740.58
501.517	12838.89
501.72	13070.31
501.923	13000.68
502.126	13506.52
502.329	13527
502.532	13606.88
502.735	13817.82
502.938	14049.24
503.141	14161.87
503.344	14376.91
503.547	14464.97
503.75	14737.35
503.953	14923.72
504.156	14696.39
504.359	14968.77
504.562	15259.59
504.765	15615.93
504.968	15640.51
505.17	15851.45
505.373	15996.85
505.576	16228.28
505.779	16439.22
505.982	16564.14
506.185	16603.05
506.387	16871.34
506.59	16953.26
506.793	17358.75
506.996	17297.31
507.198	17672.09
507.401	17704.86
507.604	18296.72
507.807	18323.35
508.009	18558.86
508.212	18714.51
508.415	18696.08
508.617	19031.94
508.82	19382.15
509.022	19257.22
509.225	19974.01
509.428	20029.31
509.63	20068.22
509.833	20385.65
510.035	20598.64
510.238	20696.94
510.44	21135.21
510.643	21299.05
510.845	21309.29
511.048	21430.12
511.25	21952.35
511.453	21890.91
511.655	22611.79
511.858	22433.62
512.06	22693.71
512.262	22990.67
512.465	23142.22
512.667	23269.19
512.87	23592.77
513.072	23557.96
513.274	24139.58
513.477	24264.5
513.679	24516.4
513.881	24786.74
514.084	24962.86
514.286	25093.93
514.488	25298.73
514.69	25831.2
514.893	26066.72
515.095	26287.9
515.297	26488.6
515.499	26652.44
515.701	26890
515.904	27475.72
516.106	27277.07
516.308	27580.17
516.51	27934.46
516.712	28337.91
516.914	28335.87
517.116	28985.07
517.318	28751.6
517.52	29370.09
517.722	29300.46
517.925	29832.93
518.127	29888.23
518.329	30539.48
518.531	30465.75
518.733	30824.15
518.935	31223.5
519.136	30996.18
519.338	31438.54
519.54	31647.43
519.742	31749.83
519.944	32331.45
520.146	32685.75
520.348	32614.07
520.55	33134.26
520.752	33386.16
520.954	33920.68
521.155	33457.84
521.357	33930.92
521.559	34496.16
521.761	34643.61
521.963	34399.9
522.164	34829.98
522.366	35196.56
522.568	35243.66
522.77	35356.3
522.971	36206.21
523.173	35880.58
523.375	36337.28
523.576	36347.52
523.778	36425.34
523.98	36511.36
524.181	36974.2
524.383	37103.22
524.584	37705.32
524.786	37553.77
524.988	37451.38
525.189	37967.46
525.391	37942.89
525.592	38393.44
525.794	38452.83
525.995	38645.34
526.197	38657.63
526.398	38332
526.6	38719.07
526.801	38839.9
527.003	39226.96
527.204	39333.46
527.406	39442
527.607	39611.98
527.808	39597.65
528.01	38962.78
528.211	39530.06
528.412	40478.27
528.614	40480.32
528.815	40359.49
529.016	40961.59
529.218	40232.52
529.419	40508.99
529.62	40683.07
529.822	40545.86
530.023	40588.86
530.224	41053.75
530.425	40666.69
530.626	40613.44
530.828	40644.16
531.029	41455.15
531.23	41006.65
531.431	40773.18
531.632	41147.96
531.833	41117.24
532.035	41281.08
532.236	41426.48
532.437	41582.13
532.638	40988.22
532.839	41037.37
533.04	41727.53
533.241	41463.35
533.442	41977.39
533.643	41651.76
533.844	41530.93
534.045	41821.74
534.246	41422.39
534.447	41469.49
534.648	41813.55
534.849	41348.66
535.05	41344.56
535.251	41881.13
535.451	41059.9
535.652	41748.01
535.853	42098.22
536.054	41512.5
536.255	42100.26
536.456	41512.5
536.657	42468.9
536.857	41637.42
537.058	41403.95
537.259	41768.49
537.46	41512.5
537.66	41532.98
537.861	41881.13
538.062	41764.4
538.263	41625.14
538.463	41698.86
538.664	41571.89
538.865	41502.26
539.065	41815.6
539.266	41541.17
539.466	42260.01
539.667	41231.93
539.868	41834.03
540.068	41772.59
540.269	41571.89
540.469	41838.12
540.67	41479.73
540.87	41334.32
541.071	41631.28
541.271	41827.88
541.472	41727.53
541.672	41530.93
541.873	41160.25
542.073	40681.02
542.274	41674.29
542.474	41453.11
542.675	41172.53
542.875	41774.64
543.075	41373.24
543.276	41016.89
543.476	41418.29
543.676	41184.82
543.877	41737.77
544.077	41326.13
544.277	41295.41
544.478	41403.95
544.678	41614.9
544.878	41647.66
545.078	41592.37
545.279	41289.27
545.479	41319.99
545.679	41272.88
545.879	41449.01
546.079	41184.82
546.28	41176.63
546.48	41152.05
546.68	41670.19
546.88	41139.77
547.08	41242.17
547.28	41342.52
547.48	41057.85
547.68	41338.42
547.88	41195.06
548.081	41242.17
548.281	41338.42
548.481	41100.86
548.681	41236.02
548.881	41393.72
549.081	41446.96
549.28	41473.59
549.48	41516.59
549.68	40924.73
549.88	41758.25
550.08	40990.27
550.28	41090.62
550.48	41068.09
550.68	41371.19
550.88	41174.58
551.08	41291.32
551.279	41045.56
551.479	40863.29
551.679	41332.28
551.879	40906.3
552.079	41135.67
552.278	40666.69
552.478	41100.86
552.678	41160.25
552.878	41270.84
553.077	40914.49
553.277	40838.72
553.477	41442.87
553.676	40648.25
553.876	41082.42
554.076	40785.47
554.275	40652.35
554.475	40463.94
554.674	41207.35
554.874	40635.97
555.074	40631.87
555.273	40685.12
555.473	40922.68
555.672	40171.08
555.872	40539.71
556.071	40248.9
556.271	40494.66
556.47	40431.17
556.67	40138.31
556.869	40207.94
557.068	40631.87
557.268	40267.33
557.467	40410.69
557.667	40519.23
557.866	40156.74
558.065	40113.73
558.265	40152.65
558.464	39898.7
558.663	40345.16
558.863	39718.48
559.062	40156.74
559.261	39394.9
559.461	40121.93
559.66	39624.27
559.859	39845.45
560.058	39237.2
560.258	39980.62
560.457	39315.03
560.656	40058.44
560.855	39292.5
561.054	39245.4
561.253	38930.01
561.453	39321.17
561.652	39011.93
561.851	39358.03
562.05	39161.43
562.249	38813.27
562.448	39390.8
562.647	38923.86
562.846	38837.85
563.045	39186
563.244	38870.62
563.443	39069.27
563.642	38542.94
563.841	38907.48
564.04	38649.44
564.239	39020.12
564.438	38448.74
564.637	38522.46
564.836	38784.6
565.035	38354.53
565.234	38938.2
565.432	38256.23
565.631	38184.55
565.83	38481.5
566.029	38153.83
566.228	37785.19
566.427	37977.7
566.625	37531.25
566.824	37297.78
567.023	37953.13
567.222	37076.6
567.42	37805.67
567.619	37561.97
567.818	37326.45
568.016	37219.95
568.215	37580.4
568.414	37453.42
568.612	37787.24
568.811	37191.28
569.01	37006.97
569.208	36548.22
569.407	36834.94
569.605	36679.29
569.804	37441.14
570.002	36370.05
570.201	36906.62
570.4	36439.68
570.598	35968.65
570.797	36071.04
570.995	36517.5
571.193	35663.5
571.392	36433.53
571.59	35905.16
571.789	36279.94
571.987	36204.16
572.186	36210.31
572.384	35739.27
572.582	36187.78
572.781	35446.41
572.979	35565.2
573.177	35597.96
573.376	35905.16
573.574	35264.14
573.772	35286.67
573.971	35284.62
574.169	35157.65
574.367	34746.01
574.565	34975.38
574.763	35040.92
574.962	34539.16
575.16	34291.36
575.358	34604.7
575.556	34176.67
575.754	34780.82
575.952	34059.94
576.151	34332.32
576.349	34010.79
576.547	33945.25
576.745	34008.74
576.943	33869.48
577.141	33803.94
577.339	34000.55
577.537	33568.43
577.735	33644.2
577.933	33404.59
578.131	33564.33
578.329	33212.08
578.527	33044.15
578.725	33369.77
578.923	33400.49
579.121	32921.27
579.319	32818.87
579.516	33119.92
579.714	33023.67
579.912	32583.35
580.11	32616.12
580.308	32417.47
580.506	32564.92
580.704	31741.64
580.901	32579.26
581.099	32267.97
581.297	31866.56
581.495	32091.84
581.692	32247.49
581.89	31649.48
582.088	32136.9
582.285	32026.31
582.483	31997.63
582.681	31815.37
582.878	31729.35
583.076	31325.9
583.274	31577.8
583.471	31192.78
583.669	30994.13
583.866	31110.86
584.064	31239.89
584.262	31041.23
584.459	31123.15
584.657	30695.13
584.854	30805.72
585.052	30523.1
585.249	30635.74
585.447	30353.12
585.644	30107.36
585.841	30572.25
586.039	30449.37
586.236	29912.8
586.434	30058.21
586.631	29744.87
586.828	29937.38
587.026	29974.24
587.223	29581.03
587.42	29644.52
587.618	29884.13
587.815	29452.01
588.012	29263.6
588.21	29370.09
588.407	29648.61
588.604	29171.44
588.801	29103.85
588.999	28833.52
589.196	28727.03
589.393	29261.55
589.59	28944.11
589.787	28722.93
589.984	28638.97
590.182	28667.64
590.379	28442.36
590.576	28057.34
590.773	28210.94
590.97	28143.36
591.167	28028.67
591.364	28036.86
591.561	27969.28
591.758	27827.97
591.955	27668.23
592.152	28315.39
592.349	27606.79
592.546	27717.38
592.743	27744
592.94	27303.69
593.137	27361.03
593.334	27758.34
593.531	26971.92
593.727	27262.73
593.924	27272.97
594.121	27109.13
594.318	27031.31
594.515	26601.24
594.712	26892.05
594.908	26789.65
595.105	26773.27
595.302	26337.05
595.499	26699.54
595.696	26048.29
595.892	26021.66
596.089	26398.49
596.286	26208.03
596.482	26101.53
596.679	26074.91
596.876	25741.09
597.072	25751.33
597.269	25900.83
597.466	25691.94
597.662	25581.35
597.859	25483.05
598.055	25382.7
598.252	25472.81
598.448	25327.4
598.645	25452.33
598.841	25169.71
599.038	24958.77
599.234	25210.67
599.431	24741.68
599.627	25095.98
599.824	24782.64
600.02	24848.18
600.217	24905.52
600.413	24563.51
600.609	24258.36
600.806	24409.91
601.002	24401.72
601.198	24344.38
601.395	24313.66
601.591	24082.24
601.787	24151.87
601.984	23682.88
602.18	24186.68
602.376	23719.74
602.572	23707.46
602.769	23609.15
602.965	23623.49
603.161	23609.15
603.357	23377.73
603.553	23242.57
603.75	23310.15
603.946	23193.42
604.142	23531.33
604.338	23011.15
604.534	23144.27
604.73	22779.73
604.926	22830.93
605.122	23105.35
605.318	22687.57
605.514	22611.79
605.71	22824.78
605.906	22808.4
606.102	22603.6
606.298	22538.07
606.494	22468.44
606.69	22296.41
606.886	22490.96
607.082	21952.35
607.278	22429.52
607.474	21944.16
607.67	22153.05
607.866	21731.17
608.062	21909.34
608.257	21903.2
608.453	21960.54
608.649	21907.29
608.845	21471.08
609.041	21653.34
609.236	21540.71
609.432	21383.01
609.628	21698.4
609.824	21550.95
610.019	21362.53
610.215	21591.91
610.411	21362.53
610.606	21182.31
610.802	21321.57
610.998	21284.71
611.193	21137.26
611.389	21165.93
611.584	20911.98
611.78	21018.47
611.976	21108.58
612.171	20862.83
612.367	21092.2
612.562	20623.22
612.758	20617.07
612.953	20754.29
613.149	20715.37
613.344	20416.37
613.539	20881.26
613.735	20535.15
613.93	20825.96
614.126	20608.88
614.321	20670.32
614.517	20469.62
614.712	20289.4
614.907	20375.41
615.103	20395.89
615.298	20373.36
615.493	20479.86
615.688	20088.7
615.884	20293.49
616.079	20219.77
616.274	20023.16
616.47	19916.67
616.665	20209.53
616.86	20004.73
617.055	19758.97
617.25	19347.33
617.445	19683.2
617.641	19439.49
617.836	19468.16
618.031	19128.2
618.226	19824.51
618.421	19343.24
618.616	19388.29
618.811	19187.59
619.006	19562.37
619.201	19060.62
619.396	19109.77
619.591	19009.42
619.786	18917.26
619.981	18751.37
620.176	19136.39
620.371	18593.68
620.566	18331.54
620.761	18556.82
620.956	18517.9
621.151	18296.72
621.346	18206.61
621.541	18132.89
621.735	18216.85
621.93	17913.75
622.125	18018.2
622.32	17741.72
622.515	17741.72
622.709	17567.65
622.904	17655.71
623.099	17567.65
623.294	17403.81
623.488	17104.81
623.683	17438.62
623.878	16934.82
624.072	17031.08
624.267	16816.04
624.462	16834.47
624.656	16670.64
624.851	16504.75
625.046	16857
625.24	16457.65
625.435	16314.29
625.629	16619.44
625.824	16144.31
626.018	16193.46
626.213	15818.68
626.407	15871.93
626.602	15849.4
626.796	15820.73
626.991	15783.87
627.185	15802.3
627.38	15550.4
627.574	15275.97
627.768	15339.46
627.963	15026.12
628.157	15046.6
628.352	15114.18
628.546	14813.13
628.74	15153.09
628.935	14694.35
629.129	14901.19
629.323	14923.72
629.517	14528.46
629.712	14651.34
629.906	14792.65
630.1	14383.06
630.294	14507.98
630.489	14014.42
630.683	14475.21
630.877	13897.69
631.071	13975.51
631.265	13987.8
631.459	13832.15
631.653	13748.18
631.848	13905.88
632.042	13748.18
632.236	13344.74
632.43	13457.37
632.624	13486.04
632.818	13402.08
633.012	13322.21
633.206	12998.63
633.4	13045.73
633.594	12853.22
633.788	13080.55
633.982	13156.32
634.176	13035.49
634.369	12961.76
634.563	12883.94
634.757	12877.8
634.951	12695.53
635.145	12625.9
635.339	12558.32
635.533	12404.72
635.726	12390.38
635.92	12361.71
636.114	12177.39
636.308	12144.63
636.501	12187.63
636.695	12189.68
636.889	12011.51
637.083	12019.7
637.276	12197.87
637.47	11872.25
637.664	11626.49
637.857	11651.06
638.051	11462.65
638.244	11677.69
638.438	11646.97
638.632	11401.21
638.825	11419.64
639.019	11438.08
639.212	11292.67
639.406	11370.49
639.599	10987.52
639.793	11114.5
639.986	10917.89
640.18	10969.09
640.373	10862.6
640.567	10709
640.76	10842.12
640.954	10565.64
641.147	10622.98
641.34	10498.06
641.534	10420.24
641.727	10371.08
641.92	10395.66
642.114	10315.79
642.307	10356.75
642.5	10197.01
642.694	10090.51
642.887	10022.93
643.08	10297.36
643.273	10127.38
643.467	10176.53
643.66	9760.79
643.853	9639.96
644.046	9691.16
644.239	9838.61
644.432	9703.45
644.626	9717.78
644.819	9527.32
645.012	9547.8
645.205	9502.75
645.398	9283.61
645.591	9316.38
645.784	9453.59
645.977	9295.9
646.17	9236.51
646.363	9136.16
646.556	8960.03
646.749	9224.22
646.942	9099.3
647.135	8869.92
647.328	8951.84
647.521	8788
647.714	8785.96
647.907	8845.35
648.099	8722.47
648.292	8771.62
648.485	8534.06
648.678	8370.22
648.871	8478.76
649.064	8618.02
649.256	8476.71
649.449	8366.12
649.642	8378.41
649.835	8194.09
650.027	8269.87
650.22	8214.57
650.413	8106.03
650.605	8077.36
650.798	8005.68
650.991	7749.68
651.183	7970.87
651.376	7905.33
651.568	7817.27
651.761	7835.7
651.954	7821.36
652.146	7702.58
652.339	7692.34
652.531	7682.1
652.724	7829.56
652.916	7354.43
653.109	7755.83
653.301	7501.88
653.494	7401.53
653.686	7209.02
653.879	7438.39
654.071	7331.9
654.263	7364.67
654.456	7307.32
654.648	7252.03
654.84	7135.29
655.033	7200.83
655.225	7254.08
655.417	6924.35
655.61	6979.65
655.802	7030.85
655.994	6981.7
656.186	6701.12
656.379	6791.24
656.571	6836.29
656.763	6752.32
656.955	6641.73
657.148	6572.1
657.34	6568.01
657.532	6651.97
657.724	6613.06
657.916	6598.73
658.108	6432.84
658.3	6416.46
658.492	6395.98
658.684	6226
658.876	6305.87
659.068	6223.95
659.26	6039.63
659.452	6103.12
659.644	6203.47
659.836	6133.84
660.028	6166.6
660.22	6053.97
660.412	5961.81
660.604	5945.42
660.796	5800.02
660.988	5734.48
661.18	5959.76
661.372	5834.83
661.563	5752.91
661.755	5769.3
661.947	5699.67
662.139	5802.07
662.331	5654.61
662.522	5634.13
662.714	5464.15
662.906	5402.71
663.097	5501.01
663.289	5443.67
663.481	5380.18
663.673	5404.76
663.864	5310.55
664.056	5396.57
664.247	5365.85
664.439	5187.68
664.631	5357.66
664.822	5265.5
665.014	5120.09
665.205	5138.52
665.397	5007.45
665.588	5068.89
665.78	5134.43
665.971	5052.51
666.163	5011.55
666.354	5095.52
666.546	4997.21
666.737	4917.34
666.929	4726.88
667.12	4923.49
667.311	4782.18
667.503	4855.9
667.694	4864.1
667.885	4765.79
668.077	4757.6
668.268	4626.53
668.459	4794.47
668.651	4757.6
668.842	4737.12
669.033	4585.57
669.224	4583.52
669.416	4612.2
669.607	4388.97
669.798	4409.45
669.989	4495.46
670.18	4397.16
670.371	4348.01
670.563	4315.24
670.754	4397.16
670.945	4268.14
671.136	4290.67
671.327	4253.8
671.518	4360.3
671.709	4208.75
671.9	4372.58
672.091	4225.13
672.282	4192.36
672.473	4225.13
672.664	4196.46
672.855	4212.84
673.046	4268.14
673.237	4040.81
673.428	3956.85
673.619	4046.96
673.809	4071.53
674	4020.33
674.191	4098.16
674.382	3907.7
674.573	3991.66
674.764	3881.07
674.954	3954.8
675.145	3948.65
675.336	3932.27
675.527	3899.5
675.717	3919.98
675.908	3989.61
676.099	3774.58
676.289	3926.13
676.48	3954.8
676.671	3745.91
676.861	3895.41
677.052	3672.18
677.243	3774.58
677.433	3881.07
677.624	3680.37
677.814	3770.48
678.005	3778.67
678.195	3678.32
678.386	3577.97
678.576	3758.19
678.767	3745.91
678.957	3692.66
679.148	3809.39
679.338	3594.36
679.529	3750
679.719	3512.44
679.909	3702.9
680.1	3512.44
680.29	3696.75
680.481	3733.62
680.671	3534.96
680.861	3537.01
681.052	3557.49
681.242	3600.5
681.432	3549.3
681.622	3479.67
681.813	3440.76
682.003	3459.19
682.193	3498.1
682.383	3530.87
682.573	3498.1
682.764	3432.57
682.954	3577.97
683.144	3438.71
683.334	3553.4
683.524	3520.63
683.714	3479.67
683.904	3385.46
684.094	3561.59
684.284	3489.91
684.474	3407.99
684.664	3387.51
684.854	3270.78
685.044	3299.45
685.234	3395.7
685.424	3258.49
685.614	3340.41
685.804	3285.11
685.994	3274.87
686.184	3197.05
686.374	3260.54
686.564	3332.22
686.753	3315.83
686.943	3242.11
687.133	3278.97
687.323	3287.16
687.513	3156.09
687.702	3258.49
687.892	3219.58
688.082	3207.29
688.272	3127.42
688.461	3231.87
688.651	3164.28
688.841	3225.72
689.03	3203.19
689.22	3233.91
689.41	3209.34
689.599	3070.08
689.789	3201.15
689.979	3078.27
690.168	3096.7
690.358	3123.32
690.547	2977.92
690.737	3137.66
690.926	3039.36
691.116	3131.51
691.305	3178.62
691.495	3029.12
691.684	3029.12
691.874	2924.67
692.063	2934.91
692.252	3031.16
692.442	3078.27
692.631	3016.83
692.82	2979.97
693.01	2941.05
693.199	2898.05
693.388	2816.13
693.578	3006.59
693.767	2879.61
693.956	2988.16
694.146	2914.43
694.335	2914.43
694.524	2918.53
694.713	2914.43
694.902	2812.03
695.092	2891.9
695.281	2859.14
695.47	2769.02
695.659	2728.07
695.848	2783.36
696.037	2834.56
696.226	2873.47
696.415	2807.94
696.604	2936.96
696.793	2701.44
696.982	2873.47
697.171	2820.22
697.36	2838.66
697.549	2750.59
697.738	2777.22
697.927	2728.07
698.116	2693.25
698.305	2766.98
698.494	2809.98
698.683	2754.69
698.872	2738.3
699.061	2809.98
699.25	2719.87
699.438	2547.84
699.627	2668.67
699.816	2590.85
700.005	2652.29
700.193	2646.15
700.382	2648.19
700.571	2570.37
700.76	2685.06
700.948	2662.53
701.137	2580.61
701.326	2574.47
701.514	2508.93
701.703	2685.06
701.892	2603.14
702.08	2629.76
702.269	2627.71
702.457	2615.43
702.646	2644.1
702.834	2549.89
703.023	2332.81
703.212	2603.14
703.4	2586.76
703.589	2369.67
703.777	2570.37
703.965	2553.99
704.154	2529.41
704.342	2574.47
704.531	2529.41
704.719	2422.92
704.907	2564.23
705.096	2418.82
705.284	2439.3
705.472	2558.08
705.661	2447.49
705.849	2521.22
706.037	2408.58
706.226	2488.45
706.414	2500.74
706.602	2404.49
706.79	2549.89
706.979	2439.3
707.167	2484.36
707.355	2414.73
707.543	2418.82
707.731	2439.3
707.919	2441.35
708.107	2287.75
708.296	2361.48
708.484	2498.69
708.672	2349.19
708.86	2361.48
709.048	2324.62
709.236	2330.76
709.424	2381.96
709.612	2365.57
709.8	2324.62
709.988	2373.77
710.176	2396.29
710.364	2259.08
710.551	2402.44
710.739	2211.98
710.927	2404.49
711.115	2324.62
711.303	2427.01
711.491	2351.24
711.679	2345.09
711.866	2242.7
712.054	2386.05
712.242	2275.46
712.43	2377.86
712.617	2334.86
712.805	2341
712.993	2283.66
713.181	2187.4
713.368	2287.75
713.556	2287.75
713.744	2209.93
713.931	2261.13
714.119	2236.55
714.306	2211.98
714.494	2324.62
714.682	2171.02
714.869	2168.97
715.057	2130.06
715.244	2226.31
715.432	2267.27
715.619	2291.85
715.807	2250.89
715.994	2279.56
716.182	2115.72
716.369	2211.98
716.556	2248.84
716.744	2283.66
716.931	2205.83
717.119	2154.63
717.306	2187.4
717.493	2121.87
717.681	2087.05
717.868	2154.63
718.055	2283.66
718.242	2080.91
718.43	2214.02
718.617	2232.46
718.804	2152.59
718.991	2216.07
719.179	2199.69
719.366	2070.67
719.553	2148.49
719.74	2072.72
719.927	2185.35
720.114	2099.34
720.301	2130.06
720.488	2070.67
720.676	2062.48
720.863	2113.67
721.05	2201.74
721.237	2062.48
721.424	2222.22
721.611	2148.49
721.798	2138.25
721.985	2091.15
722.172	2158.73
722.358	2064.52
722.545	2113.67
722.732	2095.24
722.919	2162.83
723.106	2091.15
723.293	2082.95
723.48	2177.16
723.667	2130.06
723.853	2123.91
724.04	2089.1
724.227	2058.38
724.414	2097.29
724.6	2072.72
724.787	2064.52
724.974	2078.86
725.161	2103.43
725.347	2119.82
725.534	2029.71
725.72	2121.87
725.907	2033.8
726.094	1964.17
726.28	1972.36
726.467	2105.48
726.653	2056.33
726.84	2064.52
727.027	2136.2
727.213	1964.17
727.4	1986.7
727.586	2144.39
727.773	2035.85
727.959	2107.53
728.145	2025.61
728.332	1884.3
728.518	2050.19
728.705	2085
728.891	2007.18
729.077	2023.56
729.264	2046.09
729.45	1970.32
729.636	2226.31
729.823	2064.52
730.009	2173.07
730.195	1974.41
730.382	2175.11
730.568	2048.14
730.754	1972.36
730.94	2097.29
731.126	1947.79
731.313	2005.13
731.499	2050.19
731.685	2037.9
731.871	1968.27
732.057	2042
732.243	2089.1
732.429	1968.27
732.615	1955.98
732.801	1962.12
732.987	2015.37
733.173	1904.78
733.359	1921.17
733.545	2064.52
733.731	1915.02
733.917	2099.34
734.103	1884.3
734.289	1988.75
734.475	1925.26
734.661	2064.52
734.847	1964.17
735.033	1947.79
735.219	1888.4
735.404	1931.41
735.59	1968.27
735.776	1910.93
735.962	1947.79
736.148	1925.26
736.333	1941.65
736.519	1863.82
736.705	1876.11
736.89	1980.56
737.076	1923.21
737.262	1865.87
737.447	1851.53
737.633	2033.8
737.819	1820.81
738.004	1826.96
738.19	1835.15
738.375	1849.49
738.561	1988.75
738.747	1818.77
738.932	1890.45
739.118	1859.73
739.303	1867.92
739.489	1843.34
739.674	1853.58
739.859	1835.15
740.045	1849.49
740.23	1816.72
740.416	1769.62
740.601	1816.72
740.786	1857.68
740.972	1841.29
741.157	1788.05
741.342	1863.82
741.528	1833.1
741.713	1841.29
741.898	1763.47
742.084	1773.71
742.269	1816.72
742.454	1786
742.639	1792.14
742.824	1816.72
743.01	1661.07
743.195	1779.86
743.38	1677.46
743.565	1734.8
743.75	1775.76
743.935	1710.22
744.12	1681.55
744.305	1783.95
744.49	1663.12
744.675	1685.65
744.86	1693.84
745.045	1767.57
745.23	1681.55
745.415	1644.69
745.6	1607.83
745.785	1579.15
745.97	1646.74
746.155	1538.2
746.34	1718.42
746.525	1530
746.71	1640.59
746.895	1546.39
747.079	1538.2
747.264	1613.97
747.449	1538.2
747.634	1607.83
747.819	1538.2
748.003	1542.29
748.188	1501.33
748.373	1605.78
748.557	1538.2
748.742	1464.47
748.927	1501.33
749.111	1579.15
749.296	1484.95
749.481	1435.8
749.665	1441.94
749.85	1427.6
750.034	1443.99
750.219	1505.43
750.404	1493.14
750.588	1417.37
750.773	1400.98
750.957	1411.22
751.141	1366.17
751.326	1427.6
751.51	1376.41
751.695	1325.21
751.879	1288.34
752.064	1327.25
752.248	1341.59
752.432	1417.37
752.617	1251.48
752.801	1292.44
752.985	1411.22
753.17	1267.86
753.354	1304.73
753.538	1351.83
753.722	1214.62
753.907	1239.19
754.091	1286.3
754.275	1288.34
754.459	1290.39
754.643	1280.15
754.828	1210.52
755.012	1228.95
755.196	1253.53
755.38	1261.72
755.564	1228.95
755.748	1083.55
755.932	1212.57
756.116	1087.64
756.3	1147.03
756.484	1136.79
756.668	1173.66
756.852	1089.69
757.036	1142.94
757.22	1210.52
757.404	1118.36
757.588	1022.11
757.772	1114.27
757.956	1130.65
758.14	1110.17
758.323	993.44
758.507	1104.03
758.691	1007.77
758.875	1116.31
759.059	1040.54
759.242	1073.31
759.426	1015.96
759.61	1073.31
759.794	1018.01
759.977	1042.59
760.161	1032.35
760.345	960.67
760.528	1089.69
760.712	948.38
760.895	960.67
761.079	899.23
761.263	1046.68
761.446	884.89
761.63	915.61
761.813	995.48
761.997	972.96
762.18	899.23
762.364	891.04
762.547	864.41
762.731	874.65
762.914	1013.92
763.098	936.09
763.281	897.18
763.464	848.03
763.648	977.05
763.831	952.48
764.015	964.76
764.198	829.6
764.381	876.7
764.564	923.8
764.748	825.5
764.931	843.93
765.114	819.36
765.297	854.17
765.481	915.61
765.664	940.19
765.847	858.27
766.03	819.36
766.213	811.17
766.397	868.51
766.58	884.89
766.763	940.19
766.946	882.85
767.129	870.56
767.312	821.41
767.495	829.6
767.678	805.02
767.861	794.78
768.044	868.51
768.227	907.42
768.41	807.07
768.593	872.61
768.776	723.1
768.959	772.25
769.142	762.02
769.324	825.5
769.507	755.87
769.69	813.21
769.873	706.72
770.056	845.98
770.239	862.37
770.421	782.49
770.604	764.06
770.787	708.77
770.97	743.58
771.152	680.1
771.335	835.74
771.518	770.21
771.7	649.38
771.883	833.69
772.066	653.47
772.248	661.66
772.431	768.16
772.613	737.44
772.796	776.35
772.978	735.39
773.161	825.5
773.343	686.24
773.526	747.68
773.708	751.78
773.891	620.71
774.073	694.43
774.256	639.14
774.438	753.82
774.621	655.52
774.803	680.1
774.985	671.9
775.168	680.1
775.35	659.62
775.532	614.56
775.715	602.27
775.897	680.1
776.079	614.56
776.261	608.42
776.444	598.18
776.626	612.51
776.808	635.04
776.99	540.83
777.173	546.98
777.355	579.75
777.537	549.03
777.719	549.03
777.901	553.12
778.083	565.41
778.265	518.31
778.447	604.32
778.629	538.79
778.811	612.51
778.993	620.71
779.175	540.83
779.357	579.75
779.539	493.73
779.721	483.49
779.903	569.51
780.085	573.6
780.267	522.4
780.449	471.2
780.631	555.17
780.812	549.03
780.994	493.73
781.176	479.4
781.358	563.36
781.54	479.4
781.721	524.45
781.903	426.15
782.085	489.64
782.267	534.69
782.448	481.44
782.63	460.96
782.812	434.34
782.993	501.92
783.175	432.29
783.357	409.76
783.538	438.44
783.72	436.39
783.901	450.72
784.083	432.29
784.264	407.72
784.446	456.87
784.627	409.76
784.809	503.97
784.99	401.57
785.172	407.72
785.353	432.29
785.535	415.91
785.716	497.83
785.897	407.72
786.079	454.82
786.26	409.76
786.441	385.19
786.623	362.66
786.804	395.43
786.985	383.14
787.167	463.01
787.348	415.91
787.529	374.95
787.71	374.95
787.891	395.43
788.073	262.31
788.254	342.18
788.435	364.71
788.616	338.09
788.797	401.57
788.978	411.81
789.159	315.56
789.34	342.18
789.522	338.09
789.703	284.84
789.884	379.04
790.065	366.76
790.246	323.75
790.427	311.46
790.607	403.62
790.788	303.27
790.969	256.17
791.15	331.94
791.331	385.19
791.512	278.69
791.693	268.45
791.874	280.74
792.054	430.24
792.235	379.04
792.416	276.65
792.597	278.69
792.778	313.51
792.958	313.51
793.139	323.75
793.32	309.41
793.5	276.65
793.681	356.52
793.862	286.89
794.042	225.45
794.223	209.06
794.404	258.21
794.584	286.89
794.765	262.31
794.945	274.6
795.126	268.45
795.306	301.22
795.487	204.97
795.667	221.35
795.848	325.8
796.028	161.96
796.209	221.35
796.389	288.93
796.57	188.58
796.75	235.69
796.93	264.36
797.111	211.11
797.291	293.03
797.471	211.11
797.652	161.96
797.832	190.63
798.012	288.93
798.192	153.77
798.373	141.48
798.553	254.12
798.733	252.07
798.913	104.62
799.093	237.74
799.274	229.54
799.454	221.35
799.634	223.4
799.814	227.5
799.994	290.98
800.174	256.17
800.354	252.07
800.534	176.3
800.714	317.61
800.894	104.62
801.074	245.93
801.254	172.2
801.434	235.69
801.614	207.02
801.794	188.58
801.974	719.01
802.154	186.54
802.334	207.02
802.514	221.35
802.693	233.64
802.873	258.21
803.053	219.3
803.233	168.1
803.413	235.69
803.592	254.12
803.772	88.23
803.952	151.72
804.131	225.45
804.311	204.97
804.491	213.16
804.67	252.07
804.85	213.16
805.03	215.21
805.209	200.87
805.389	194.73
805.568	211.11
805.748	209.06
805.928	112.81
806.107	290.98
806.287	188.58
806.466	227.5
806.646	170.15
806.825	166.06
807.004	164.01
807.184	153.77
807.363	229.54
807.543	164.01
807.722	137.38
807.901	231.59
808.081	188.58
808.26	174.25
808.439	145.58
808.619	88.23
808.798	145.58
808.977	135.34
809.156	194.73
809.336	178.34
809.515	194.73
809.694	178.34
809.873	71.85
810.052	112.81
810.231	137.38
810.411	182.44
810.59	250.02
810.769	186.54
810.948	118.95
811.127	82.09
811.306	106.67
811.485	145.58
811.664	172.2
811.843	129.19
812.022	172.2
812.201	112.81
812.38	106.67
812.559	127.14
812.737	133.29
812.916	159.91
813.095	178.34
813.274	247.97
813.453	118.95
813.632	209.06
813.811	172.2
813.989	131.24
814.168	149.67
814.347	108.71
814.526	88.23
814.704	151.72
814.883	200.87
815.062	149.67
815.24	161.96
815.419	96.43
815.598	82.09
815.776	141.48
815.955	63.66
816.133	39.08
816.312	123.05
816.49	116.9
816.669	102.57
816.847	112.81
817.026	141.48
817.204	114.86
817.383	149.67
817.561	69.8
817.74	157.86
817.918	98.47
818.097	67.75
818.275	174.25
818.453	94.38
818.632	73.9
818.81	118.95
818.988	104.62
819.167	57.51
819.345	145.58
819.523	84.14
819.701	186.54
819.879	96.43
820.058	88.23
820.236	12.46
820.414	49.32
820.592	196.78
820.77	43.18
820.948	139.43
821.127	67.75
821.305	108.71
821.483	114.86
821.661	141.48
821.839	112.81
822.017	184.49
822.195	100.52
822.373	53.42
822.551	53.42
822.729	92.33
822.907	112.81
823.085	43.18
823.262	53.42
823.44	63.66
823.618	155.82
823.796	73.9
823.974	121
824.152	53.42
824.329	108.71
824.507	90.28
824.685	84.14
824.863	63.66
825.04	77.99
825.218	159.91
825.396	-18.26
825.574	51.37
825.751	82.09
825.929	100.52
826.107	18.6
826.284	110.76
826.462	114.86
826.639	22.7
826.817	47.27
826.994	63.66
827.172	-1.88
827.349	104.62
827.527	104.62
827.704	88.23
827.882	143.53
828.059	127.14
828.237	100.52
828.414	106.67
828.591	14.51
828.769	96.43
828.946	-30.55
829.124	86.19
829.301	178.34
829.478	65.71
829.655	47.27
829.833	108.71
830.01	22.7
830.187	90.28
830.364	22.7
830.542	75.95
830.719	133.29
830.896	100.52
831.073	110.76
831.25	106.67
831.427	24.75
831.604	51.37
831.782	4.27
831.959	59.56
832.136	139.43
832.313	92.33
832.49	125.1
832.667	47.27
832.844	-5.97
833.021	123.05
833.198	34.99
833.374	39.08
833.551	88.23
833.728	69.8
833.905	43.18
834.082	51.37
834.259	77.99
834.436	110.76
834.612	30.89
834.789	121
834.966	96.43
835.143	14.51
835.319	-5.97
835.496	63.66
835.673	69.8
835.85	92.33
836.026	61.61
836.203	73.9
836.38	88.23
836.556	14.51
836.733	55.47
836.909	116.9
837.086	-1.88
837.262	71.85
837.439	47.27
837.616	18.6
837.792	47.27
837.968	112.81
838.145	-67.41
838.321	22.7
838.498	80.04
838.674	114.86
838.851	16.55
839.027	24.75
839.203	39.08
839.38	30.89
839.556	30.89
839.732	6.31
839.909	24.75
840.085	90.28
840.261	51.37
840.437	137.38
840.614	22.7
840.79	96.43
840.966	84.14
841.142	30.89
841.318	24.75
841.494	88.23
841.671	61.61
841.847	34.99
842.023	26.79
842.199	-26.45
842.375	75.95
842.551	14.51
842.727	-1.88
842.903	55.47
843.079	10.41
843.255	61.61
843.431	92.33
843.607	47.27
843.783	-14.17
843.959	-22.36
844.134	80.04
844.31	51.37
844.486	59.56
844.662	30.89
844.838	47.27
845.013	-24.4
845.189	73.9
845.365	51.37
845.541	-32.6
845.716	116.9
845.892	80.04
846.068	59.56
846.244	57.51
846.419	20.65
846.595	39.08
846.77	90.28
846.946	26.79
847.122	49.32
847.297	22.7
847.473	30.89
847.648	6.31
847.824	39.08
847.999	-63.32
848.175	63.66
848.35	77.99
848.526	63.66
848.701	59.56
848.876	96.43
849.052	55.47
849.227	43.18
849.403	-34.64
849.578	30.89
849.753	55.47
849.929	-22.36
850.104	30.89
850.279	71.85
850.454	22.7
850.63	133.29
850.805	-26.45
850.98	71.85
851.155	39.08
851.33	43.18
851.505	-30.55
851.681	32.94
851.856	-30.55
852.031	104.62
852.206	73.9
852.381	-20.31
852.556	77.99
852.731	-59.22
852.906	-32.6
853.081	88.23
853.256	55.47
853.431	61.61
853.606	30.89
853.781	-16.21
853.956	-26.45
854.131	8.36
854.305	71.85
854.48	0.17
854.655	8.36
854.83	24.75
855.005	41.13
855.18	30.89
855.354	-3.93
855.529	8.36
855.704	18.6
855.879	-32.6
856.053	-38.74
856.228	6.31
856.403	16.55
856.577	2.22
856.752	-32.6
856.926	34.99
857.101	16.55
857.276	14.51
857.45	-24.4
857.625	98.47
857.799	-5.97
857.974	92.33
858.148	-14.17
858.323	-24.4
858.497	-42.84
858.672	-20.31
858.846	6.31
859.02	8.36
859.195	-5.97
859.369	14.51
859.543	51.37
859.718	16.55
859.892	-20.31
860.066	-53.08
860.241	-10.07
860.415	4.27
860.589	18.6
860.763	47.27
860.938	-65.36
861.112	84.14
861.286	-34.64
861.46	30.89
861.634	-12.12
861.808	24.75
861.982	24.75
862.157	-16.21
862.331	-18.26
862.505	-8.02
862.679	-8.02
862.853	-20.31
863.027	12.46
863.201	53.42
863.375	6.31
863.549	-10.07
863.722	51.37
863.896	55.47
864.07	32.94
864.244	-3.93
864.418	22.7
864.592	-51.03
864.766	-10.07
864.939	26.79
865.113	-10.07
865.287	55.47
865.461	-59.22
865.634	30.89
865.808	49.32
865.982	8.36
866.156	-75.6
866.329	39.08
866.503	14.51
866.676	-16.21
866.85	55.47
867.024	-8.02
867.197	18.6
867.371	39.08
867.544	22.7
867.718	24.75
867.891	24.75
868.065	-40.79
868.238	-30.55
868.412	57.51
868.585	-51.03
868.759	47.27
868.932	-63.32
869.105	10.41
869.279	-8.02
869.452	30.89
869.625	-34.64
869.799	45.23
869.972	-22.36
870.145	-1.88
870.319	-14.17
870.492	14.51
870.665	43.18
870.838	-28.5
871.011	-87.89
871.185	-16.21
871.358	37.03
871.531	-24.4
871.704	0.17
871.877	6.31
872.05	-10.07
872.223	-51.03
872.396	49.32
872.569	0.17
872.742	-34.64
872.915	22.7
873.088	-28.5
873.261	-10.07
873.434	75.95
873.607	24.75
873.78	-26.45
873.953	-63.32
874.126	16.55
874.299	47.27
874.471	39.08
874.644	6.31
874.817	22.7
874.99	43.18
875.163	28.84
875.335	41.13
875.508	12.46
875.681	6.31
875.853	-110.42
876.026	-20.31
876.199	55.47
876.371	10.41
876.544	-89.94
876.717	-14.17
876.889	-67.41
877.062	20.65
877.234	-8.02
877.407	41.13
877.579	-26.45
877.752	80.04
877.924	-42.84
878.097	-3.93
878.269	41.13
878.442	-28.5
878.614	-12.12
878.786	39.08
878.959	-12.12
879.131	-10.07
879.303	-61.27
879.476	39.08
879.648	57.51
879.82	26.79
879.993	26.79
880.165	-1.88
880.337	-18.26
880.509	-38.74
880.681	-75.6
880.854	-38.74
881.026	-48.98
881.198	34.99
881.37	6.31
881.542	-38.74
881.714	-30.55
881.886	96.43
882.058	-10.07
882.23	39.08
882.402	-1.88
882.574	55.47
882.746	14.51
882.918	30.89
883.09	-10.07
883.262	-18.26
883.434	-65.36
883.606	-22.36
883.778	-16.21
883.95	16.55
884.122	-26.45
884.293	49.32
884.465	8.36
884.637	51.37
884.809	-1.88
884.98	59.56
885.152	20.65
885.324	39.08
885.496	-91.99
885.667	57.51
885.839	-12.12
886.011	73.9
886.182	-1.88
886.354	16.55
886.525	-14.17
886.697	10.41
886.869	-46.93
887.04	-18.26
887.212	8.36
887.383	-14.17
887.555	-18.26
887.726	-8.02
887.897	2.22
888.069	55.47
888.24	14.51
888.412	0.17
888.583	-40.79
888.754	18.6
888.926	-51.03
889.097	26.79
889.268	-77.65
889.44	20.65
889.611	4.27
889.782	18.6
889.953	47.27
890.125	4.27
890.296	-87.89
890.467	-10.07
890.638	-18.26
890.809	26.79
890.98	-16.21
891.151	55.47
891.323	82.09
891.494	-8.02
891.665	-59.22
891.836	6.31
892.007	-34.64
892.178	63.66
892.349	8.36
892.52	-96.08
892.691	-3.93
892.862	-42.84
893.032	6.31
893.203	-75.6
893.374	18.6
893.545	39.08
893.716	-5.97
893.887	18.6
894.057	-59.22
894.228	-34.64
894.399	-10.07
894.57	77.99
894.74	-30.55
894.911	45.23
895.082	6.31
895.253	24.75
895.423	-42.84
895.594	-5.97
895.764	-51.03
895.935	-30.55
896.106	88.23
896.276	-48.98
896.447	92.33
896.617	26.79
896.788	39.08
896.958	-8.02
897.129	-32.6
897.299	-40.79
897.47	65.71
897.64	8.36
897.81	2.22
897.981	-10.07
898.151	-122.71
898.322	-34.64
898.492	14.51
898.662	-79.7
898.832	-34.64
899.003	26.79
899.173	-10.07
899.343	6.31
899.513	32.94
