Data from USB4F104151__172__14-45-00-201.txt Node

Date: Thu Mar 13 14:45:00 EDT 2025
User: louis
Spectrometer: USB4F10415
Trigger mode: 4
Integration Time (sec): 2.000000E-2
Scans to average: 1
Electric dark correction enabled: true
Nonlinearity correction enabled: false
Boxcar width: 0
XAxis mode: Wavelengths
Number of Pixels in Spectrum: 3648
>>>>>Begin Spectral Data<<<<<
178.204	-164.01
178.424	-164.01
178.644	-164.01
178.864	-188.58
179.084	-176.3
179.304	-57.51
179.524	24.4
179.744	-51.37
179.964	71.51
180.184	-47.27
180.404	12.12
180.624	-10.41
180.844	61.27
181.064	5.97
181.283	-10.41
181.503	48.98
181.723	-47.27
181.943	-32.94
182.163	20.31
182.383	5.97
182.602	-28.84
182.822	69.46
183.042	-34.99
183.262	-49.32
183.482	-34.99
183.701	-100.52
183.921	36.69
184.141	-20.65
184.361	22.36
184.58	69.46
184.8	40.79
185.02	-67.75
185.239	-20.65
185.459	-20.65
185.679	14.17
185.898	32.6
186.118	26.45
186.338	8.02
186.557	-18.6
186.777	-12.46
186.997	-4.27
187.216	-2.22
187.436	69.46
187.655	22.36
187.875	36.69
188.095	38.74
188.314	77.65
188.534	-26.79
188.753	40.79
188.973	57.17
189.192	36.69
189.412	-47.27
189.631	128.85
189.851	67.41
190.07	81.75
190.29	-61.61
190.509	1.88
190.729	-51.37
190.948	36.69
191.168	126.8
191.387	12.12
191.607	-2.22
191.826	-32.94
192.045	5.97
192.265	-34.99
192.484	36.69
192.704	-10.41
192.923	-16.55
193.142	89.94
193.362	-49.32
193.581	53.08
193.8	63.32
194.02	79.7
194.239	44.88
194.458	8.02
194.678	-69.8
194.897	-18.6
195.116	-43.18
195.335	-0.17
195.555	20.31
195.774	-12.46
195.993	81.75
196.212	12.12
196.432	59.22
196.651	-34.99
196.87	-4.27
197.089	77.65
197.308	-73.9
197.528	69.46
197.747	-53.42
197.966	-2.22
198.185	87.89
198.404	-12.46
198.623	3.93
198.842	24.4
199.062	-0.17
199.281	28.5
199.5	32.6
199.719	38.74
199.938	63.32
200.157	61.27
200.376	16.21
200.595	-20.65
200.814	63.32
201.033	-53.42
201.252	71.51
201.471	30.55
201.69	94.04
201.909	-16.55
202.128	40.79
202.347	-34.99
202.566	-8.36
202.785	20.31
203.004	46.93
203.223	87.89
203.442	-16.55
203.661	53.08
203.879	5.97
204.098	69.46
204.317	-57.51
204.536	20.31
204.755	73.56
204.974	-0.17
205.193	14.17
205.411	85.84
205.63	63.32
205.849	20.31
206.068	20.31
206.287	-2.22
206.505	32.6
206.724	20.31
206.943	40.79
207.162	24.4
207.381	16.21
207.599	-49.32
207.818	36.69
208.037	-67.75
208.255	-53.42
208.474	38.74
208.693	73.56
208.911	5.97
209.13	61.27
209.349	-69.8
209.567	-8.36
209.786	55.12
210.005	-18.6
210.223	-10.41
210.442	-20.65
210.661	22.36
210.879	83.8
211.098	28.5
211.316	18.26
211.535	10.07
211.753	14.17
211.972	-45.23
212.191	-12.46
212.409	-20.65
212.628	-4.27
212.846	-53.42
213.065	14.17
213.283	-10.41
213.502	8.02
213.72	-8.36
213.938	-34.99
214.157	-28.84
214.375	16.21
214.594	28.5
214.812	89.94
215.031	12.12
215.249	-2.22
215.467	14.17
215.686	8.02
215.904	36.69
216.122	-10.41
216.341	87.89
216.559	-45.23
216.778	44.88
216.996	59.22
217.214	-10.41
217.432	-39.08
217.651	-69.8
217.869	36.69
218.087	79.7
218.306	-20.65
218.524	28.5
218.742	8.02
218.96	-12.46
219.179	73.56
219.397	1.88
219.615	22.36
219.833	22.36
220.051	3.93
220.27	22.36
220.488	69.46
220.706	28.5
220.924	-53.42
221.142	67.41
221.36	-16.55
221.578	24.4
221.796	-20.65
222.015	12.12
222.233	8.02
222.451	44.88
222.669	22.36
222.887	20.31
223.105	-2.22
223.323	55.12
223.541	-49.32
223.759	24.4
223.977	5.97
224.195	94.04
224.413	67.41
224.631	-16.55
224.849	-12.46
225.067	114.52
225.285	-24.75
225.503	-0.17
225.721	-12.46
225.939	20.31
226.157	42.84
226.375	20.31
226.592	-10.41
226.81	-24.75
227.028	87.89
227.246	14.17
227.464	-16.55
227.682	-69.8
227.9	16.21
228.117	-4.27
228.335	30.55
228.553	12.12
228.771	12.12
228.989	22.36
229.206	10.07
229.424	-4.27
229.642	-37.03
229.86	-41.13
230.077	-45.23
230.295	46.93
230.513	63.32
230.731	-12.46
230.948	-45.23
231.166	36.69
231.384	-6.31
231.601	32.6
231.819	59.22
232.037	-37.03
232.254	-2.22
232.472	48.98
232.689	-30.89
232.907	-20.65
233.125	10.07
233.342	-10.41
233.56	-45.23
233.777	-45.23
233.995	38.74
234.213	16.21
234.43	12.12
234.648	-65.71
234.865	-41.13
235.083	61.27
235.3	-24.75
235.518	14.17
235.735	28.5
235.953	16.21
236.17	10.07
236.388	20.31
236.605	18.26
236.822	32.6
237.04	20.31
237.257	3.93
237.475	-37.03
237.692	-61.61
237.909	53.08
238.127	3.93
238.344	16.21
238.562	20.31
238.779	-118.95
238.996	20.31
239.214	-69.8
239.431	55.12
239.648	-16.55
239.865	51.03
240.083	-12.46
240.3	5.97
240.517	-18.6
240.735	44.88
240.952	36.69
241.169	5.97
241.386	-24.75
241.603	-20.65
241.821	-96.43
242.038	38.74
242.255	87.89
242.472	-18.6
242.689	-77.99
242.907	20.31
243.124	8.02
243.341	1.88
243.558	28.5
243.775	-26.79
243.992	-10.41
244.209	94.04
244.426	69.46
244.643	-2.22
244.86	-69.8
245.078	-45.23
245.295	-16.55
245.512	32.6
245.729	-12.46
245.946	-16.55
246.163	-14.51
246.38	36.69
246.597	22.36
246.814	5.97
247.031	-37.03
247.248	-10.41
247.464	12.12
247.681	-43.18
247.898	-4.27
248.115	14.17
248.332	-26.79
248.549	8.02
248.766	135
248.983	44.88
249.2	14.17
249.417	-12.46
249.633	-10.41
249.85	-2.22
250.067	-4.27
250.284	77.65
250.501	57.17
250.717	12.12
250.934	-47.27
251.151	85.84
251.368	-61.61
251.585	28.5
251.801	-10.41
252.018	-32.94
252.235	44.88
252.451	-39.08
252.668	-45.23
252.885	22.36
253.102	-2.22
253.318	46.93
253.535	-57.51
253.752	-2.22
253.968	10.07
254.185	-98.47
254.401	-32.94
254.618	61.27
254.835	-77.99
255.051	8.02
255.268	-0.17
255.484	71.51
255.701	-39.08
255.917	77.65
256.134	-20.65
256.351	-26.79
256.567	1.88
256.784	40.79
257	12.12
257.217	3.93
257.433	30.55
257.65	10.07
257.866	57.17
258.082	32.6
258.299	-4.27
258.515	26.45
258.732	-20.65
258.948	61.27
259.165	-2.22
259.381	-28.84
259.597	-28.84
259.814	-28.84
260.03	-53.42
260.246	-30.89
260.463	-12.46
260.679	20.31
260.895	12.12
261.112	-18.6
261.328	-57.51
261.544	-0.17
261.761	102.23
261.977	-65.71
262.193	-24.75
262.409	44.88
262.626	69.46
262.842	48.98
263.058	-41.13
263.274	12.12
263.49	-4.27
263.707	-20.65
263.923	-39.08
264.139	-20.65
264.355	16.21
264.571	36.69
264.787	46.93
265.004	69.46
265.22	-26.79
265.436	-53.42
265.652	57.17
265.868	36.69
266.084	14.17
266.3	3.93
266.516	24.4
266.732	46.93
266.948	53.08
267.164	24.4
267.38	48.98
267.596	20.31
267.812	16.21
268.028	-10.41
268.244	-12.46
268.46	-18.6
268.676	20.31
268.892	65.36
269.108	-2.22
269.324	-49.32
269.54	-65.71
269.756	36.69
269.972	-12.46
270.188	-12.46
270.403	-6.31
270.619	48.98
270.835	-32.94
271.051	36.69
271.267	-49.32
271.483	-4.27
271.698	85.84
271.914	38.74
272.13	-20.65
272.346	-53.42
272.562	-28.84
272.777	96.08
272.993	24.4
273.209	94.04
273.425	57.17
273.64	1.88
273.856	44.88
274.072	28.5
274.287	28.5
274.503	61.27
274.719	18.26
274.934	-28.84
275.15	-10.41
275.366	38.74
275.581	-26.79
275.797	98.13
276.012	-77.99
276.228	-12.46
276.444	1.88
276.659	116.56
276.875	-53.42
277.09	36.69
277.306	-20.65
277.521	10.07
277.737	12.12
277.952	3.93
278.168	22.36
278.383	-28.84
278.599	-4.27
278.814	-16.55
279.03	-26.79
279.245	73.56
279.461	-26.79
279.676	-41.13
279.892	-32.94
280.107	3.93
280.322	-2.22
280.538	-22.7
280.753	-69.8
280.969	12.12
281.184	5.97
281.399	53.08
281.615	14.17
281.83	102.23
282.045	-34.99
282.26	-34.99
282.476	-16.55
282.691	71.51
282.906	24.4
283.122	18.26
283.337	10.07
283.552	3.93
283.767	8.02
283.983	36.69
284.198	3.93
284.413	24.4
284.628	-96.43
284.843	-12.46
285.058	16.21
285.274	-49.32
285.489	-10.41
285.704	-26.79
285.919	28.5
286.134	98.13
286.349	-0.17
286.564	-28.84
286.779	-20.65
286.995	28.5
287.21	12.12
287.425	38.74
287.64	-94.38
287.855	36.69
288.07	30.55
288.285	-10.41
288.5	38.74
288.715	55.12
288.93	46.93
289.145	-32.94
289.36	94.04
289.575	8.02
289.79	-16.55
290.004	69.46
290.219	-12.46
290.434	40.79
290.649	-2.22
290.864	-49.32
291.079	63.32
291.294	-34.99
291.509	22.36
291.724	12.12
291.938	24.4
292.153	26.45
292.368	28.5
292.583	28.5
292.798	22.36
293.012	22.36
293.227	3.93
293.442	65.36
293.657	44.88
293.871	75.6
294.086	8.02
294.301	94.04
294.516	53.08
294.73	32.6
294.945	-41.13
295.16	-41.13
295.374	1.88
295.589	24.4
295.804	69.46
296.018	-51.37
296.233	1.88
296.447	-6.31
296.662	-45.23
296.877	-12.46
297.091	-2.22
297.306	-12.46
297.52	18.26
297.735	57.17
297.949	48.98
298.164	-14.51
298.378	-37.03
298.593	69.46
298.807	12.12
299.022	14.17
299.236	-8.36
299.451	3.93
299.665	51.03
299.88	8.02
300.094	-67.75
300.309	-4.27
300.523	-14.51
300.737	85.84
300.952	-8.36
301.166	-28.84
301.381	-32.94
301.595	-26.79
301.809	-59.56
302.024	-8.36
302.238	-30.89
302.452	-69.8
302.667	-49.32
302.881	71.51
303.095	40.79
303.309	-20.65
303.524	12.12
303.738	-2.22
303.952	-12.46
304.166	-0.17
304.381	18.26
304.595	77.65
304.809	-0.17
305.023	32.6
305.237	-18.6
305.452	-32.94
305.666	16.21
305.88	-18.6
306.094	77.65
306.308	12.12
306.522	44.88
306.736	73.56
306.95	-69.8
307.164	44.88
307.379	28.5
307.593	59.22
307.807	22.36
308.021	-12.46
308.235	8.02
308.449	36.69
308.663	8.02
308.877	79.7
309.091	-61.61
309.305	12.12
309.519	20.31
309.733	5.97
309.947	-86.19
310.161	67.41
310.374	-4.27
310.588	-10.41
310.802	-10.41
311.016	-2.22
311.23	28.5
311.444	-65.71
311.658	-71.85
311.872	36.69
312.085	5.97
312.299	3.93
312.513	48.98
312.727	28.5
312.941	5.97
313.154	-4.27
313.368	-12.46
313.582	73.56
313.796	48.98
314.009	-12.46
314.223	38.74
314.437	55.12
314.651	-10.41
314.864	3.93
315.078	53.08
315.292	-0.17
315.505	16.21
315.719	14.17
315.933	36.69
316.146	-34.99
316.36	-61.61
316.573	81.75
316.787	44.88
317.001	12.12
317.214	44.88
317.428	12.12
317.641	16.21
317.855	-28.84
318.068	-0.17
318.282	77.65
318.495	87.89
318.709	-12.46
318.922	40.79
319.136	28.5
319.349	-82.09
319.563	-14.51
319.776	-30.89
319.99	57.17
320.203	-63.66
320.417	-12.46
320.63	44.88
320.843	28.5
321.057	12.12
321.27	14.17
321.483	5.97
321.697	-20.65
321.91	-0.17
322.124	-16.55
322.337	28.5
322.55	-55.47
322.763	3.93
322.977	53.08
323.19	36.69
323.403	-10.41
323.617	-34.99
323.83	28.5
324.043	32.6
324.256	22.36
324.469	-34.99
324.683	51.03
324.896	44.88
325.109	24.4
325.322	59.22
325.535	57.17
325.748	40.79
325.962	55.12
326.175	-32.94
326.388	46.93
326.601	8.02
326.814	40.79
327.027	-24.75
327.24	-49.32
327.453	-69.8
327.666	-12.46
327.879	5.97
328.092	14.17
328.305	20.31
328.518	3.93
328.731	20.31
328.944	-77.99
329.157	46.93
329.37	3.93
329.583	110.42
329.796	28.5
330.009	-24.75
330.222	53.08
330.435	57.17
330.648	-24.75
330.861	-39.08
331.073	53.08
331.286	22.36
331.499	24.4
331.712	1.88
331.925	20.31
332.138	8.02
332.35	-28.84
332.563	-39.08
332.776	-51.37
332.989	3.93
333.202	-4.27
333.414	3.93
333.627	28.5
333.84	-24.75
334.053	5.97
334.265	-2.22
334.478	16.21
334.691	-10.41
334.903	55.12
335.116	-32.94
335.329	-12.46
335.541	-18.6
335.754	30.55
335.966	16.21
336.179	28.5
336.392	-41.13
336.604	85.84
336.817	12.12
337.029	61.27
337.242	61.27
337.454	-26.79
337.667	30.55
337.88	65.36
338.092	-12.46
338.305	81.75
338.517	-26.79
338.729	-32.94
338.942	122.71
339.154	-2.22
339.367	5.97
339.579	36.69
339.792	85.84
340.004	22.36
340.217	-8.36
340.429	65.36
340.641	14.17
340.854	-43.18
341.066	-43.18
341.278	5.97
341.491	61.27
341.703	51.03
341.915	61.27
342.128	55.12
342.34	-30.89
342.552	-53.42
342.764	34.64
342.977	-16.55
343.189	32.6
343.401	-34.99
343.613	-26.79
343.826	44.88
344.038	-4.27
344.25	85.84
344.462	-30.89
344.674	48.98
344.886	46.93
345.099	81.75
345.311	73.56
345.523	-20.65
345.735	-20.65
345.947	8.02
346.159	24.4
346.371	-20.65
346.583	-28.84
346.795	28.5
347.007	-2.22
347.219	20.31
347.431	-37.03
347.643	12.12
347.855	-16.55
348.067	87.89
348.279	-4.27
348.491	12.12
348.703	12.12
348.915	-12.46
349.127	32.6
349.339	85.84
349.551	-43.18
349.763	-34.99
349.975	69.46
350.187	51.03
350.399	-61.61
350.61	63.32
350.822	77.65
351.034	-14.51
351.246	59.22
351.458	32.6
351.669	-37.03
351.881	69.46
352.093	42.84
352.305	20.31
352.517	-12.46
352.728	77.65
352.94	65.36
353.152	20.31
353.363	-51.37
353.575	30.55
353.787	14.17
353.999	48.98
354.21	3.93
354.422	-55.47
354.633	-53.42
354.845	-4.27
355.057	85.84
355.268	-4.27
355.48	65.36
355.692	-2.22
355.903	20.31
356.115	59.22
356.326	26.45
356.538	30.55
356.749	24.4
356.961	32.6
357.172	28.5
357.384	14.17
357.595	55.12
357.807	36.69
358.018	40.79
358.23	28.5
358.441	57.17
358.653	94.04
358.864	-20.65
359.075	-10.41
359.287	22.36
359.498	42.84
359.709	-20.65
359.921	-94.38
360.132	77.65
360.344	28.5
360.555	18.26
360.766	20.31
360.977	34.64
361.189	77.65
361.4	67.41
361.611	36.69
361.823	30.55
362.034	-28.84
362.245	-8.36
362.456	-6.31
362.667	26.45
362.879	-8.36
363.09	55.12
363.301	-6.31
363.512	28.5
363.723	-18.6
363.935	-37.03
364.146	-0.17
364.357	44.88
364.568	69.46
364.779	-110.76
364.99	53.08
365.201	20.31
365.412	16.21
365.623	30.55
365.834	61.27
366.045	5.97
366.256	20.31
366.467	30.55
366.678	44.88
366.889	-0.17
367.1	46.93
367.311	5.97
367.522	22.36
367.733	73.56
367.944	28.5
368.155	-16.55
368.366	32.6
368.577	-8.36
368.788	135
368.999	71.51
369.209	-28.84
369.42	96.08
369.631	44.88
369.842	12.12
370.053	-49.32
370.264	75.6
370.474	-8.36
370.685	38.74
370.896	30.55
371.107	-43.18
371.317	-32.94
371.528	-77.99
371.739	36.69
371.95	-12.46
372.16	65.36
372.371	-67.75
372.582	32.6
372.792	-10.41
373.003	-8.36
373.214	-12.46
373.424	-8.36
373.635	-69.8
373.846	44.88
374.056	-20.65
374.267	104.28
374.477	44.88
374.688	-18.6
374.898	12.12
375.109	10.07
375.319	20.31
375.53	53.08
375.74	-6.31
375.951	126.8
376.161	28.5
376.372	38.74
376.582	-53.42
376.793	20.31
377.003	-8.36
377.214	-51.37
377.424	5.97
377.635	20.31
377.845	-14.51
378.055	28.5
378.266	-41.13
378.476	61.27
378.686	63.32
378.897	-43.18
379.107	75.6
379.317	28.5
379.528	-63.66
379.738	51.03
379.948	-86.19
380.158	94.04
380.369	-4.27
380.579	44.88
380.789	30.55
380.999	-2.22
381.21	53.08
381.42	87.89
381.63	-0.17
381.84	73.56
382.05	20.31
382.261	3.93
382.471	-90.28
382.681	40.79
382.891	44.88
383.101	30.55
383.311	-43.18
383.521	40.79
383.731	12.12
383.941	120.66
384.151	55.12
384.361	28.5
384.571	-37.03
384.781	69.46
384.991	118.61
385.201	91.99
385.411	20.31
385.621	-4.27
385.831	28.5
386.041	87.89
386.251	-4.27
386.461	87.89
386.671	22.36
386.881	3.93
387.091	-10.41
387.301	14.17
387.511	-16.55
387.72	-4.27
387.93	55.12
388.14	-34.99
388.35	53.08
388.56	36.69
388.769	3.93
388.979	32.6
389.189	61.27
389.399	-2.22
389.609	53.08
389.818	18.26
390.028	77.65
390.238	59.22
390.447	-2.22
390.657	3.93
390.867	36.69
391.076	-67.75
391.286	-18.6
391.496	-0.17
391.705	20.31
391.915	53.08
392.125	112.47
392.334	65.36
392.544	28.5
392.753	20.31
392.963	-18.6
393.172	63.32
393.382	-2.22
393.591	159.57
393.801	-12.46
394.01	94.04
394.22	44.88
394.429	28.5
394.639	32.6
394.848	-20.65
395.058	24.4
395.267	61.27
395.477	-4.27
395.686	96.08
395.895	44.88
396.105	143.19
396.314	61.27
396.524	36.69
396.733	14.17
396.942	87.89
397.152	67.41
397.361	69.46
397.57	44.88
397.78	-12.46
397.989	48.98
398.198	55.12
398.407	22.36
398.617	112.47
398.826	63.32
399.035	-0.17
399.244	61.27
399.453	44.88
399.663	91.99
399.872	24.4
400.081	-4.27
400.29	42.84
400.499	-4.27
400.708	151.38
400.917	8.02
401.127	73.56
401.336	18.26
401.545	153.43
401.754	38.74
401.963	53.08
402.172	34.64
402.381	38.74
402.59	71.51
402.799	53.08
403.008	61.27
403.217	63.32
403.426	85.84
403.635	14.17
403.844	77.65
404.053	126.8
404.262	100.18
404.471	85.84
404.68	20.31
404.888	89.94
405.097	77.65
405.306	36.69
405.515	114.52
405.724	-4.27
405.933	143.19
406.142	73.56
406.35	120.66
406.559	108.37
406.768	155.47
406.977	155.47
407.185	153.43
407.394	159.57
407.603	89.94
407.812	149.33
408.02	184.15
408.229	98.13
408.438	139.09
408.646	145.24
408.855	126.8
409.064	83.8
409.272	69.46
409.481	151.38
409.69	233.3
409.898	145.24
410.107	102.23
410.315	227.15
410.524	161.62
410.733	225.11
410.941	137.04
411.15	204.63
411.358	274.26
411.567	243.54
411.775	272.21
411.984	280.4
412.192	259.92
412.401	229.2
412.609	292.69
412.818	343.89
413.026	229.2
413.234	317.26
413.443	307.02
413.651	290.64
413.86	274.26
414.068	356.18
414.276	386.9
414.485	421.71
414.693	413.52
414.901	438.09
415.11	442.19
415.318	431.95
415.526	390.99
415.734	489.29
415.943	468.81
416.151	456.53
416.359	522.06
416.567	536.4
416.776	556.88
416.984	565.07
417.192	644.94
417.4	628.56
417.608	606.03
417.817	618.32
418.025	601.93
418.233	733
418.441	636.75
418.649	726.86
418.857	776.01
419.065	843.59
419.273	810.82
419.481	894.79
419.689	925.51
419.897	937.8
420.105	974.66
420.313	964.42
420.521	984.9
420.729	1068.87
420.937	1072.96
421.145	1044.29
421.353	1134.4
421.561	1234.75
421.769	1273.67
421.977	1204.03
422.185	1271.62
422.393	1316.67
422.601	1314.63
422.809	1376.06
423.017	1386.3
423.224	1519.42
423.432	1468.22
423.64	1564.48
423.848	1709.88
424.056	1652.54
424.263	1718.08
424.471	1793.85
424.679	1781.56
424.887	1806.14
425.094	1974.07
425.302	2047.8
425.51	2080.57
425.718	2017.08
425.925	2154.29
426.133	2113.33
426.341	2273.07
426.548	2529.07
426.756	2383.66
426.964	2463.54
427.171	2475.82
427.379	2613.04
427.586	2684.72
427.794	2793.26
428.001	2987.82
428.209	3028.78
428.417	2979.62
428.624	3252
428.832	3225.38
429.039	3282.72
429.247	3303.2
429.454	3477.28
429.662	3684.13
429.869	3454.75
430.076	3700.51
430.284	3583.77
430.491	3718.94
430.699	4173.59
430.906	3981.08
431.114	4026.14
431.321	4298.52
431.528	4323.09
431.736	4529.94
431.943	4716.3
432.15	4585.23
432.358	4667.15
432.565	4949.77
432.772	4980.49
432.979	5224.2
433.187	5238.53
433.394	5295.88
433.601	5484.29
433.808	5576.45
434.016	5607.17
434.223	5906.17
434.43	6133.5
434.637	6115.06
434.844	6401.78
435.052	6487.79
435.259	6612.72
435.466	6762.22
435.673	6569.71
435.88	6856.43
436.087	7294.69
436.294	7202.54
436.501	7149.29
436.708	7329.51
436.915	7470.82
437.122	7956.19
437.329	7831.26
437.537	8091.35
437.743	8371.93
437.95	8335.06
438.157	8556.24
438.364	8974.03
438.571	8935.12
438.778	9098.95
438.985	9617.09
439.192	9514.69
439.399	9549.51
439.606	9428.68
439.813	9948.86
440.02	10436.28
440.227	10397.37
440.433	10491.57
440.64	10743.47
440.847	10626.74
441.054	10776.24
441.261	11411.11
441.467	11382.44
441.674	11677.35
441.881	12435.1
442.088	11908.77
442.294	12078.75
442.501	12320.41
442.708	12301.98
442.914	12848.79
443.121	13342.35
443.328	13430.41
443.534	14161.53
443.741	13389.45
443.948	13356.68
444.154	14470.78
444.361	14325.37
444.568	14409.34
444.774	14306.94
444.981	14513.78
445.187	14915.19
445.394	15672.93
445.6	15617.64
445.807	17043.03
446.013	16191.07
446.22	16420.44
446.426	17051.22
446.633	17206.86
446.839	17819.21
447.046	17165.9
447.252	18124.35
447.459	18126.4
447.665	18075.2
447.871	18880.05
448.078	19867.17
448.284	18646.58
448.491	19144.24
448.697	19844.65
448.903	20450.85
449.11	20633.11
449.316	19912.23
449.522	20393.5
449.728	20866.58
449.935	21304.85
450.141	20981.27
450.347	21542.41
450.553	21055
450.76	21491.21
450.966	21861.9
451.172	21931.53
451.378	22418.94
451.584	21825.03
451.791	22339.07
451.997	22523.39
452.203	22787.58
452.409	22705.66
452.615	22760.95
452.821	21857.8
453.027	21843.46
453.233	22980.09
453.44	21890.57
453.646	22054.4
453.852	22076.93
454.058	22799.87
454.264	21812.74
454.47	22470.14
454.676	21818.89
454.882	22584.83
455.088	20719.13
455.294	20946.45
455.5	21483.02
455.705	21491.21
455.911	20846.1
456.117	20389.41
456.323	20016.68
456.529	19228.21
456.735	19762.73
456.941	19217.97
457.147	19136.05
457.352	18552.38
457.558	18570.81
457.764	18402.88
457.97	18206.27
458.176	17815.11
458.381	17708.62
458.587	16899.67
458.793	16825.94
458.999	16066.14
459.204	17172.05
459.41	16799.32
459.616	15615.59
459.821	15570.54
460.027	15638.12
460.233	15019.63
460.438	14417.53
460.644	14794.36
460.85	13960.83
461.055	13629.06
461.261	13688.45
461.466	12680.85
461.672	12226.2
461.878	13059.73
462.083	12267.16
462.289	12136.09
462.494	11904.67
462.7	11538.09
462.905	11187.88
463.111	11478.69
463.316	11431.59
463.522	11423.4
463.727	11277.99
463.932	11431.59
464.138	11275.95
464.343	11171.5
464.549	10827.44
464.754	11185.83
464.959	11261.61
465.165	11116.2
465.37	10708.66
465.575	10348.22
465.781	10694.32
465.986	10718.9
466.191	10471.09
466.397	10256.06
466.602	9817.79
466.807	10161.85
467.012	10108.6
467.218	10059.45
467.423	9836.22
467.628	9932.48
467.833	10430.13
468.038	9891.52
468.244	9526.98
468.449	10034.88
468.654	9785.02
468.859	9547.46
469.064	9592.51
469.269	9227.98
469.474	9404.1
469.679	9428.68
469.885	9041.61
470.09	9387.72
470.295	9176.78
470.5	9092.81
470.705	9156.3
470.91	8863.44
471.115	8834.77
471.32	8994.51
471.525	9021.13
471.73	8924.88
471.935	8507.09
472.139	8527.57
472.344	8468.18
472.549	8470.23
472.754	8328.92
472.959	8285.91
473.164	8171.22
473.369	8066.78
473.574	8142.55
473.778	8089.31
473.983	8111.83
474.188	8015.58
474.393	7771.87
474.598	7747.3
474.802	7630.56
475.007	7567.07
475.212	7491.3
475.417	7343.85
475.621	7339.75
475.826	7423.72
476.031	7098.09
476.235	7134.95
476.44	7048.94
476.645	6987.5
476.849	7143.14
477.054	6825.71
477.259	6766.32
477.463	6749.93
477.668	6655.73
477.872	6745.84
478.077	6725.36
478.282	6428.4
478.486	6377.2
478.691	6397.68
478.895	6246.13
479.1	6371.06
479.304	6420.21
479.509	6184.69
479.713	6248.18
479.918	6131.45
480.122	5969.66
480.326	6076.15
480.531	6199.03
480.735	6110.97
480.94	5983.99
481.144	6106.87
481.348	5867.26
481.553	6266.61
481.757	5930.75
481.961	6010.62
482.166	5961.47
482.37	5838.59
482.574	5891.84
482.778	5842.68
482.983	5992.19
483.187	5818.11
483.391	6141.69
483.595	5861.12
483.8	5721.85
484.004	5922.55
484.208	5869.31
484.412	5891.84
484.616	5799.68
484.821	5836.54
485.025	5940.99
485.229	5943.03
485.433	5746.43
485.637	5850.88
485.841	5873.4
486.045	5754.62
486.249	6027
486.453	5730.05
486.657	5797.63
486.861	5983.99
487.065	5572.35
487.269	5814.01
487.473	5807.87
487.677	5936.89
487.881	5865.21
488.085	5785.34
488.289	6000.38
488.493	5793.53
488.697	5844.73
488.901	5918.46
489.105	5932.79
489.309	5869.31
489.512	5943.03
489.716	5906.17
489.92	6004.47
490.124	5863.16
490.328	6106.87
490.531	5711.61
490.735	6008.57
490.939	6037.24
491.143	6033.15
491.346	5983.99
491.55	6131.45
491.754	6147.83
491.958	6031.1
492.161	6100.73
492.365	6065.91
492.569	6102.78
492.772	6223.61
492.976	6342.39
493.18	6196.98
493.383	6346.48
493.587	6336.24
493.79	6510.32
493.994	6340.34
494.197	6366.96
494.401	6366.96
494.605	6467.31
494.808	6631.15
495.012	6620.91
495.215	6698.74
495.419	6774.51
495.622	6582
495.825	6737.65
496.029	6616.82
496.232	6827.76
496.436	6985.45
496.639	7057.13
496.843	6823.66
497.046	7167.72
497.249	7415.52
497.453	7212.78
497.656	7470.82
497.859	7605.99
498.063	7466.72
498.266	7626.46
498.469	7470.82
498.673	7667.42
498.876	7859.93
499.079	7689.95
499.282	7993.05
499.485	8081.11
499.689	8148.7
499.892	8101.59
500.095	8165.08
500.298	8298.2
500.501	8359.64
500.705	8601.3
500.908	8769.23
501.111	8711.89
501.314	8920.78
501.517	8980.17
501.72	9055.95
501.923	8845.01
502.126	9180.87
502.329	9262.79
502.532	9363.14
502.735	9348.81
502.938	9719.49
503.141	9762.5
503.344	9723.58
503.547	9907.9
503.75	10075.84
503.953	10219.19
504.156	10280.63
504.359	10323.64
504.562	10352.31
504.765	10661.55
504.968	10706.61
505.17	10675.89
505.373	10966.7
505.576	10907.31
505.779	11136.68
505.982	11198.12
506.185	11390.63
506.387	11622.05
506.59	11447.97
506.793	11695.78
506.996	11835.04
507.198	11998.88
507.401	12088.99
507.604	12195.48
507.807	12375.7
508.009	12672.66
508.212	12531.35
508.415	12732.05
508.617	12734.1
508.82	12873.36
509.022	12953.23
509.225	13088.4
509.428	13252.24
509.63	13565.57
509.833	13549.19
510.035	13608.58
510.238	13659.78
510.44	13794.95
510.643	14110.33
510.845	14306.94
511.048	14284.41
511.25	14470.78
511.453	14401.15
511.655	15027.82
511.858	14851.7
512.06	14945.91
512.262	15193.71
512.465	15570.54
512.667	15285.87
512.87	15658.6
513.072	15634.02
513.274	15748.71
513.477	15916.64
513.679	16502.36
513.881	16535.13
514.084	16576.09
514.286	16483.93
514.488	16776.79
514.69	17153.62
514.893	17229.39
515.095	17352.27
515.297	17321.55
515.499	17530.44
515.701	17747.53
515.904	17960.52
516.106	18114.11
516.308	18298.43
516.51	18087.49
516.712	18529.85
516.914	18902.58
517.116	19047.99
517.318	19007.03
517.52	19152.43
517.722	19359.28
517.925	19664.43
518.127	19695.14
518.329	19736.1
518.531	19723.82
518.733	20473.37
518.935	20252.19
519.136	20561.44
519.338	20555.29
519.54	20917.78
519.742	21421.58
519.944	21038.61
520.146	21325.33
520.348	21528.08
520.55	21421.58
520.752	21749.26
520.954	22138.37
521.155	22156.8
521.357	22324.74
521.559	22703.61
521.761	22885.88
521.963	22683.13
522.164	23154.16
522.366	23213.56
522.568	23098.87
522.77	23389.68
522.971	23750.12
523.173	23557.61
523.375	24024.55
523.576	23737.84
523.778	23924.2
523.98	24057.32
524.181	24184.29
524.383	24403.42
524.584	24784.35
524.786	24696.28
524.988	24903.13
525.189	25261.52
525.391	25007.58
525.592	25138.65
525.794	25421.27
525.995	25294.29
526.197	25535.95
526.398	25699.79
526.6	25853.39
526.801	25798.09
527.003	25888.2
527.204	25851.34
527.406	26609.09
527.607	26480.07
527.808	26293.7
528.01	26316.23
528.211	26267.08
528.412	26772.92
528.614	26557.89
528.815	26748.35
529.016	26951.1
529.218	26768.83
529.419	26963.39
529.62	26838.46
529.822	26979.77
530.023	27014.59
530.224	27061.69
530.425	27045.3
530.626	27166.13
530.828	27110.84
531.029	27534.77
531.23	27420.08
531.431	27059.64
531.632	27317.68
531.833	27643.31
532.035	27598.26
532.236	27801.01
532.437	27725.23
532.638	27489.71
532.839	27680.17
533.04	27897.26
533.241	27317.68
533.442	27774.38
533.643	27588.02
533.844	27485.62
534.045	27825.58
534.246	27420.08
534.447	28122.54
534.648	27710.89
534.849	28005.8
535.05	27313.59
535.251	27823.53
535.451	27698.61
535.652	27942.31
535.853	27878.83
536.054	28073.38
536.255	27936.17
536.456	27178.42
536.657	27950.51
536.857	27917.74
537.058	27653.55
537.259	27760.05
537.46	27854.25
537.66	27852.2
537.861	27737.52
538.062	27696.56
538.263	27813.29
538.463	27665.84
538.664	27815.34
538.865	27923.88
539.065	27721.13
539.266	27489.71
539.466	28067.24
539.667	27565.49
539.868	27831.72
540.068	28130.73
540.269	27803.05
540.469	27985.32
540.67	27790.77
540.87	27702.7
541.071	27721.13
541.271	27870.64
541.472	27704.75
541.672	27723.18
541.873	27817.39
542.073	27516.34
542.274	28085.67
542.474	27749.81
542.675	27721.13
542.875	27645.36
543.075	27790.77
543.276	27272.63
543.476	27475.38
543.676	27536.82
543.877	27645.36
544.077	27612.59
544.277	27622.83
544.478	27665.84
544.678	27973.03
544.878	27534.77
545.078	27872.68
545.279	27358.64
545.479	27766.19
545.679	27430.32
545.879	27598.26
546.079	27504.05
546.28	27282.87
546.48	27397.56
546.68	27880.88
546.88	27663.79
547.08	27643.31
547.28	27594.16
547.48	27346.36
547.68	27764.14
547.88	27540.91
548.081	27561.39
548.281	27481.52
548.481	27284.92
548.681	27530.67
548.881	27588.02
549.081	27792.81
549.28	27352.5
549.48	27524.53
549.68	27444.66
549.88	27549.1
550.08	27401.65
550.28	27311.54
550.48	27368.88
550.68	27688.37
550.88	27332.02
551.08	27559.34
551.279	27430.32
551.479	27186.61
551.679	27301.3
551.879	27403.7
552.079	27450.8
552.278	27209.14
552.478	27231.67
552.678	27258.29
552.878	27678.13
553.077	27420.08
553.277	27121.08
553.477	27628.98
553.676	27192.76
553.876	27129.27
554.076	27186.61
554.275	26830.27
554.475	26809.79
554.674	27182.52
554.874	27266.49
555.074	27194.81
555.273	27094.46
555.473	27108.79
555.672	26998.2
555.872	26762.68
556.071	26791.36
556.271	27045.3
556.47	26658.24
556.67	26629.57
556.869	26725.82
557.068	26764.73
557.268	26672.57
557.467	26867.13
557.667	26645.95
557.866	26824.12
558.065	26734.01
558.265	26154.44
558.464	26461.63
558.663	26564.03
558.863	26379.71
559.062	27004.35
559.261	26222.02
559.461	26985.91
559.66	26228.17
559.859	26461.63
560.058	26068.42
560.258	26072.52
560.457	25826.76
560.656	26123.72
560.855	25931.21
561.054	25966.03
561.253	25847.24
561.453	25974.22
561.652	25730.51
561.851	25845.19
562.05	25748.94
562.249	25826.76
562.448	25982.41
562.647	25898.44
562.846	25697.74
563.045	25978.31
563.244	25718.22
563.443	25685.45
563.642	25097.69
563.841	25286.1
564.04	25134.55
564.239	25560.53
564.438	25300.44
564.637	25329.11
564.836	25472.46
565.035	24999.38
565.234	25075.16
565.432	24745.44
565.631	24872.41
565.83	25105.88
566.029	24966.62
566.228	25408.98
566.427	24706.52
566.625	24362.47
566.824	24677.85
567.023	24919.51
567.222	24274.4
567.42	24845.79
567.619	24368.61
567.818	24387.04
568.016	24600.03
568.215	24499.68
568.414	24022.5
568.612	24319.46
568.811	24237.54
569.01	24165.86
569.208	23668.2
569.407	24362.47
569.605	23651.82
569.804	24307.17
570.002	23623.15
570.201	23852.52
570.4	23506.41
570.598	23387.63
570.797	23502.32
570.995	23633.39
571.193	23326.19
571.392	23596.53
571.59	23242.23
571.789	23410.16
571.987	23324.15
572.186	23260.66
572.384	23377.39
572.582	23320.05
572.781	23332.34
572.979	22892.02
573.177	22853.11
573.376	22892.02
573.574	22955.51
573.772	22943.22
573.971	22582.78
574.169	22791.67
574.367	22488.57
574.565	22494.72
574.763	22597.12
574.962	22472.19
575.16	22222.34
575.358	22158.85
575.556	21956.1
575.754	22423.04
575.952	21853.7
576.151	22314.5
576.349	22126.08
576.547	22169.09
576.745	21835.27
576.943	22138.37
577.141	22023.69
577.339	21702.15
577.537	21466.64
577.735	21554.7
577.933	21358.1
578.131	21745.16
578.329	21702.15
578.527	21114.39
578.725	21704.2
578.923	21362.19
579.121	21165.59
579.319	21208.59
579.516	21237.27
579.714	21411.34
579.912	21204.5
580.11	20956.69
580.308	20874.77
580.506	20915.73
580.704	20710.94
580.901	20799
581.099	20731.42
581.297	20772.38
581.495	20706.84
581.692	20817.43
581.89	20436.51
582.088	20610.59
582.285	20315.68
582.483	20680.22
582.681	20313.63
582.878	20463.13
583.076	20186.66
583.274	20385.31
583.471	19707.43
583.669	20182.56
583.866	19895.85
584.064	19820.07
584.262	19676.71
584.459	19848.74
584.657	19793.45
584.854	19953.19
585.052	19336.75
585.249	19533.36
585.447	19529.26
585.644	19330.61
585.841	19940.9
586.039	19779.11
586.236	19052.08
586.434	19590.7
586.631	19361.33
586.828	19004.98
587.026	19381.81
587.223	19076.66
587.42	19074.61
587.618	18937.4
587.815	18763.32
588.012	18984.5
588.21	18703.93
588.407	19025.46
588.604	18400.83
588.801	18564.67
588.999	18583.1
589.196	18548.28
589.393	18515.51
589.59	18353.73
589.787	18394.68
589.984	18185.79
590.182	18085.44
590.379	18292.29
590.576	18292.29
590.773	17937.99
590.97	18079.3
591.167	18015.81
591.364	17927.75
591.561	17843.78
591.758	17905.22
591.955	18054.72
592.152	17903.17
592.349	17716.81
592.546	17747.53
592.743	17608.26
592.94	17487.43
593.137	17501.77
593.334	17423.95
593.531	17172.05
593.727	17405.52
593.924	17272.4
594.121	17071.7
594.318	17198.67
594.515	16975.44
594.712	17174.1
594.908	17122.9
595.105	16885.33
595.302	16922.2
595.499	16928.34
595.696	16930.39
595.892	16684.63
596.089	16940.63
596.286	16776.79
596.482	16934.48
596.679	16799.32
596.876	16615
597.072	16604.76
597.269	16418.39
597.466	16385.63
597.662	16137.82
597.859	16522.84
598.055	16217.69
598.252	16113.25
598.448	16221.79
598.645	16109.15
598.841	16043.62
599.038	15871.59
599.234	15906.4
599.431	16002.66
599.627	15783.52
599.824	15789.67
600.02	15726.18
600.217	15531.62
600.413	15756.9
600.609	15545.96
600.806	15595.11
601.002	15640.17
601.198	15380.07
601.395	15470.19
601.591	15271.53
601.787	15296.11
601.984	15396.46
602.18	15259.24
602.376	15425.13
602.572	15208.05
602.769	15140.46
602.965	15027.82
603.161	15119.98
603.357	14962.29
603.553	14831.22
603.75	14909.04
603.946	14657.14
604.142	15087.22
604.338	14708.34
604.534	14960.24
604.73	14724.72
604.926	14683.77
605.122	14653.05
605.318	14462.58
605.514	14335.61
605.71	14313.08
605.906	14454.39
606.102	14585.46
606.298	14399.1
606.494	14349.95
606.69	14325.37
606.886	14294.65
607.082	14155.39
607.278	14370.43
607.474	14145.15
607.67	13928.06
607.866	14132.86
608.062	14120.57
608.257	14126.72
608.453	13909.63
608.649	13796.99
608.845	13799.04
609.041	13819.52
609.236	13962.88
609.432	13928.06
609.628	14028.42
609.824	13534.85
610.019	13563.53
610.215	13567.62
610.411	13796.99
610.606	13784.71
610.802	13450.89
610.998	13627.01
611.193	13721.22
611.389	13430.41
611.584	13493.9
611.78	13352.59
611.976	13338.25
612.171	13510.28
612.367	13319.82
612.562	13477.51
612.758	13031.05
612.953	13121.17
613.149	13201.04
613.344	13262.47
613.539	13571.72
613.735	13166.22
613.93	12942.99
614.126	12977.81
614.321	13178.51
614.517	12934.8
614.712	13069.97
614.907	12875.41
615.103	13180.56
615.298	12934.8
615.493	13123.21
615.688	12816.02
615.884	13135.5
616.079	12689.04
616.274	12719.76
616.47	12949.14
616.665	12889.74
616.86	12770.96
617.055	12836.5
617.25	12693.14
617.445	12697.24
617.641	12449.43
617.836	12529.3
618.031	12449.43
618.226	12453.53
618.421	12471.96
618.616	12514.97
618.811	12246.68
619.006	12289.69
619.201	12162.72
619.396	12273.31
619.591	12072.61
619.786	12283.55
619.981	11998.88
620.176	12267.16
620.371	12037.79
620.566	11943.58
620.761	11976.35
620.956	11974.3
621.151	11568.8
621.346	12060.32
621.541	11546.28
621.735	11708.07
621.93	11597.48
622.125	11826.85
622.32	11497.13
622.515	11540.13
622.709	11269.8
622.904	11329.19
623.099	11361.96
623.294	11310.76
623.488	11079.34
623.683	11224.75
623.878	10927.79
624.072	11069.1
624.267	11052.72
624.462	10890.93
624.656	10702.51
624.851	10606.26
625.046	10653.36
625.24	10817.2
625.435	10481.33
625.629	10628.79
625.824	10499.77
626.018	10544.82
626.213	10247.86
626.407	10337.98
626.602	10186.43
626.796	10221.24
626.991	10290.87
627.185	9950.91
627.38	9957.05
627.574	10041.02
627.768	9879.23
627.963	9983.68
628.157	9770.69
628.352	9709.25
628.546	9455.3
628.74	9850.56
628.935	9725.63
629.129	9543.36
629.323	9463.49
629.517	9354.95
629.712	9443.01
629.906	9502.4
630.1	9422.53
630.294	9248.46
630.489	9262.79
630.683	9127.63
630.877	9139.91
631.071	8922.83
631.265	9203.4
631.459	8748.75
631.653	8971.98
631.848	8873.68
632.042	8814.29
632.236	8912.59
632.43	8818.38
632.624	8568.53
632.818	8685.26
633.012	8355.54
633.206	8457.94
633.4	8748.75
633.594	8515.28
633.788	8359.64
633.982	8519.38
634.176	8279.77
634.369	8439.51
634.563	8251.1
634.757	8113.88
634.951	8234.71
635.145	8029.91
635.339	8146.65
635.533	7935.71
635.726	7976.67
635.92	7925.47
636.114	7943.9
636.308	7945.95
636.501	7804.64
636.695	7907.04
636.889	7759.58
637.083	7741.15
637.276	7476.96
637.47	7683.81
637.664	7616.23
637.857	7638.75
638.051	7499.49
638.244	7362.28
638.438	7511.78
638.632	7526.11
638.825	7333.61
639.019	7386.85
639.212	7315.17
639.406	7302.89
639.599	7093.99
639.793	7212.78
639.986	7128.81
640.18	7050.99
640.373	7065.32
640.567	7044.84
640.76	6962.92
640.954	7003.88
641.147	6936.3
641.34	6924.01
641.534	6803.18
641.727	6797.04
641.92	6911.72
642.114	6688.5
642.307	6704.88
642.5	6731.5
642.694	6520.56
642.887	6379.25
643.08	6549.23
643.273	6510.32
643.467	6510.32
643.66	6366.96
643.853	6444.79
644.046	6428.4
644.239	6377.2
644.432	6364.92
644.626	6217.46
644.819	6221.56
645.012	6092.54
645.205	6090.49
645.398	6287.09
645.591	5961.47
645.784	6196.98
645.977	5986.04
646.17	5969.66
646.363	6078.2
646.556	5943.03
646.749	5996.28
646.942	5947.13
647.135	6000.38
647.328	5861.12
647.521	5887.74
647.714	5758.72
647.907	5705.47
648.099	5607.17
648.292	5811.96
648.485	5611.26
648.678	5484.29
648.871	5531.39
649.064	5420.8
649.256	5607.17
649.449	5492.48
649.642	5398.27
649.835	5318.4
650.027	5474.05
650.22	5461.76
650.413	5306.12
650.605	5455.62
650.798	5316.36
650.991	5158.66
651.183	5213.96
651.376	5201.67
651.568	5158.66
651.761	5115.66
651.954	5054.22
652.146	5080.84
652.339	5207.81
652.531	5150.47
652.724	5052.17
652.916	4917
653.109	4962.06
653.301	4888.33
653.494	4976.39
653.686	4964.11
653.879	4960.01
654.071	4804.36
654.263	4912.91
654.456	4790.03
654.648	4753.16
654.84	4749.07
655.033	4767.5
655.225	4611.85
655.417	4392.72
655.61	4755.21
655.802	4642.57
655.994	4554.51
656.186	4499.22
656.379	4495.12
656.571	4624.14
656.763	4519.7
656.955	4433.68
657.148	4443.92
657.34	4513.55
657.532	4321.04
657.724	4415.25
657.916	4534.03
658.108	4507.41
658.3	4208.41
658.492	4306.71
658.684	4216.6
658.876	4245.27
659.068	4144.92
659.26	4177.69
659.452	4042.52
659.644	4198.17
659.836	4181.78
660.028	4081.43
660.22	4009.75
660.412	4065.05
660.604	4009.75
660.796	3979.03
660.988	4011.8
661.18	4067.1
661.372	4009.75
661.563	3870.49
661.755	4001.56
661.947	3864.35
662.139	3864.35
662.331	3798.81
662.522	3792.67
662.714	3770.14
662.906	3886.87
663.097	3727.13
663.289	3737.37
663.481	3776.28
663.673	3755.8
663.864	3714.84
664.056	3675.93
664.247	3706.65
664.439	3616.54
664.631	3675.93
664.822	3624.73
665.014	3585.82
665.205	3575.58
665.397	3577.63
665.588	3542.82
665.78	3475.23
665.971	3608.35
666.163	3454.75
666.354	3401.51
666.546	3485.47
666.737	3534.62
666.929	3508
667.12	3385.12
667.311	3389.22
667.503	3378.98
667.694	3473.18
667.885	3280.68
668.077	3477.28
668.268	3446.56
668.459	3411.75
668.651	3174.18
668.842	3356.45
669.033	3282.72
669.224	3168.04
669.416	3295.01
669.607	3313.44
669.798	3288.87
669.989	3305.25
670.18	3149.61
670.371	3307.3
670.563	3157.8
670.754	3170.08
670.945	3215.14
671.136	3120.93
671.327	3231.52
671.518	3100.45
671.709	3102.5
671.9	3155.75
672.091	3151.65
672.282	3114.79
672.473	3155.75
672.664	3053.35
672.855	3026.73
673.046	3028.78
673.237	3039.01
673.428	3016.49
673.619	3006.25
673.809	2932.52
674	2969.38
674.191	2989.86
674.382	3006.25
674.573	3000.1
674.764	3041.06
674.954	3004.2
675.145	2924.33
675.336	2967.34
675.527	2785.07
675.717	2862.89
675.908	2965.29
676.099	2922.28
676.289	2766.64
676.48	2969.38
676.671	2866.99
676.861	2875.18
677.052	2860.84
677.243	2707.24
677.433	2785.07
677.624	2993.96
677.814	2832.17
678.005	2848.55
678.195	2641.71
678.386	2756.4
678.576	2748.2
678.767	2760.49
678.957	2617.13
679.148	2756.4
679.338	2776.87
679.529	2709.29
679.719	2688.81
679.909	2746.16
680.1	2823.98
680.29	2780.97
680.481	2752.3
680.671	2805.55
680.861	2764.59
681.052	2735.92
681.242	2654
681.432	2780.97
681.622	2604.85
681.813	2592.56
682.003	2594.61
682.193	2697
682.383	2756.4
682.573	2670.38
682.764	2641.71
682.954	2610.99
683.144	2703.15
683.334	2690.86
683.524	2723.63
683.714	2690.86
683.904	2643.76
684.094	2680.62
684.284	2608.94
684.474	2748.2
684.664	2676.52
684.854	2670.38
685.044	2690.86
685.234	2551.6
685.424	2627.37
685.614	2561.84
685.804	2424.62
685.994	2514.73
686.184	2559.79
686.374	2629.42
686.564	2598.7
686.753	2596.65
686.943	2479.92
687.133	2518.83
687.323	2535.21
687.513	2481.97
687.702	2422.58
687.892	2496.3
688.082	2416.43
688.272	2385.71
688.461	2422.58
688.651	2488.11
688.841	2373.43
689.03	2545.45
689.22	2344.75
689.41	2434.86
689.599	2271.03
689.789	2363.19
689.979	2209.59
690.168	2326.32
690.358	2338.61
690.547	2240.31
690.737	2301.75
690.926	2348.85
691.116	2289.46
691.305	2266.93
691.495	2285.36
691.684	2191.16
691.874	2209.59
692.063	2293.55
692.252	2215.73
692.442	2246.45
692.631	2125.62
692.82	2211.64
693.01	2096.95
693.199	2051.89
693.388	2158.39
693.578	2223.92
693.767	2168.63
693.956	2111.29
694.146	2000.69
694.335	2027.32
694.524	1914.68
694.713	2015.03
694.902	1988.41
695.092	2012.98
695.281	2008.89
695.47	1949.5
695.659	2047.8
695.848	1996.6
696.037	2049.85
696.226	1941.3
696.415	1980.22
696.604	2023.22
696.793	1982.26
696.982	2031.41
697.171	2078.52
697.36	2019.13
697.549	1851.19
697.738	1875.77
697.927	2019.13
698.116	1996.6
698.305	1886.01
698.494	2107.19
698.683	2039.61
698.872	2004.79
699.061	1984.31
699.25	2133.81
699.438	1976.12
699.627	1845.05
699.816	2012.98
700.005	1898.3
700.193	1924.92
700.382	1939.26
700.571	1949.5
700.76	1892.15
700.948	1840.95
701.137	1990.45
701.326	1855.29
701.514	1881.91
701.703	1965.88
701.892	1789.75
702.08	1941.3
702.269	1894.2
702.457	1941.3
702.646	1953.59
702.834	1963.83
703.023	1879.86
703.212	2002.74
703.4	1877.82
703.589	1871.67
703.777	1984.31
703.965	1843
704.154	1931.06
704.342	1769.27
704.531	1857.34
704.719	1748.79
704.907	1855.29
705.096	1789.75
705.284	1834.81
705.472	1810.23
705.661	1929.02
705.849	1908.54
706.037	1871.67
706.226	1769.27
706.414	1822.52
706.602	1822.52
706.79	1912.63
706.979	1830.71
707.167	1726.27
707.355	1849.15
707.543	1883.96
707.731	1822.52
707.919	2002.74
708.107	1822.52
708.296	1693.5
708.484	1978.17
708.672	1867.58
708.86	1873.72
709.048	1861.43
709.236	1894.2
709.424	1926.97
709.612	1832.76
709.8	1802.04
709.988	1953.59
710.176	1816.38
710.364	1920.82
710.551	1888.06
710.739	1771.32
710.927	1879.86
711.115	1838.91
711.303	1961.78
711.491	1883.96
711.679	1863.48
711.866	1824.57
712.054	1898.3
712.242	1865.53
712.43	1871.67
712.617	1908.54
712.805	1863.48
712.993	1849.15
713.181	1869.62
713.368	1890.1
713.556	1765.18
713.744	1912.63
713.931	1912.63
714.119	1855.29
714.306	2033.46
714.494	1830.71
714.682	1781.56
714.869	1830.71
715.057	1834.81
715.244	1863.48
715.432	1926.97
715.619	1865.53
715.807	1832.76
715.994	1904.44
716.182	1806.14
716.369	1982.26
716.556	1840.95
716.744	1855.29
716.931	1775.42
717.119	1961.78
717.306	1871.67
717.493	2037.56
717.681	1797.95
717.868	1861.43
718.055	1949.5
718.242	1963.83
718.43	1898.3
718.617	1959.74
718.804	1853.24
718.991	1890.1
719.179	1994.55
719.366	1965.88
719.553	1830.71
719.74	1892.15
719.927	1969.98
720.114	1836.86
720.301	1826.62
720.488	1853.24
720.676	1898.3
720.863	1967.93
721.05	1996.6
721.237	1943.35
721.424	1797.95
721.611	1998.65
721.798	1861.43
721.985	1849.15
722.172	1900.34
722.358	1939.26
722.545	1918.78
722.732	1867.58
722.919	1920.82
723.106	1904.44
723.293	1900.34
723.48	1933.11
723.667	1881.91
723.853	2103.09
724.04	1955.64
724.227	1888.06
724.414	1873.72
724.6	1955.64
724.787	1957.69
724.974	1996.6
725.161	1898.3
725.347	1840.95
725.534	2012.98
725.72	1945.4
725.907	1986.36
726.094	2068.28
726.28	1937.21
726.467	1972.02
726.653	1945.4
726.84	1900.34
727.027	1994.55
727.213	1914.68
727.4	2111.29
727.586	1863.48
727.773	1922.87
727.959	1994.55
728.145	1988.41
728.332	1949.5
728.518	2010.93
728.705	2010.93
728.891	2004.79
729.077	1892.15
729.264	1945.4
729.45	1986.36
729.636	2068.28
729.823	1900.34
730.009	2215.73
730.195	2053.94
730.382	2035.51
730.568	2064.18
730.754	2074.42
730.94	2109.24
731.126	2031.41
731.313	2074.42
731.499	2021.17
731.685	1980.22
731.871	2084.66
732.057	1994.55
732.243	2060.09
732.429	2043.7
732.615	2043.7
732.801	1931.06
732.987	2088.76
733.173	1980.22
733.359	2021.17
733.545	2021.17
733.731	1955.64
733.917	2113.33
734.103	2092.85
734.289	2045.75
734.475	1947.45
734.661	2002.74
734.847	2019.13
735.033	2017.08
735.219	1967.93
735.404	2058.04
735.59	2074.42
735.776	1978.17
735.962	2015.03
736.148	2006.84
736.333	1922.87
736.519	1957.69
736.705	2019.13
736.89	1978.17
737.076	1978.17
737.262	1914.68
737.447	1986.36
737.633	1972.02
737.819	1959.74
738.004	1972.02
738.19	1953.59
738.375	1980.22
738.561	2074.42
738.747	2002.74
738.932	1965.88
739.118	1939.26
739.303	1974.07
739.489	1945.4
739.674	1836.86
739.859	2029.37
740.045	2064.18
740.23	2004.79
740.416	1920.82
740.601	1883.96
740.786	1937.21
740.972	1883.96
741.157	1967.93
741.342	1832.76
741.528	1924.92
741.713	1955.64
741.898	1871.67
742.084	1965.88
742.269	2010.93
742.454	1832.76
742.639	1912.63
742.824	1914.68
743.01	1916.73
743.195	1845.05
743.38	1816.38
743.565	1845.05
743.75	1826.62
743.935	1804.09
744.12	1875.77
744.305	1877.82
744.49	1814.33
744.675	1838.91
744.86	1740.6
745.045	1822.52
745.23	1793.85
745.415	1849.15
745.6	1896.25
745.785	1855.29
745.97	1783.61
746.155	1769.27
746.34	1777.47
746.525	1806.14
746.71	1724.22
746.895	1797.95
747.079	1724.22
747.264	1507.13
747.449	1683.26
747.634	1756.99
747.819	1775.42
748.003	1720.12
748.188	1634.11
748.373	1666.88
748.557	1691.45
748.742	1662.78
748.927	1668.92
749.111	1562.43
749.296	1625.92
749.481	1652.54
749.665	1591.1
749.85	1584.96
750.034	1644.35
750.219	1517.37
750.404	1617.72
750.588	1625.92
750.773	1576.77
750.957	1537.85
751.141	1462.08
751.326	1498.94
751.51	1414.98
751.695	1576.77
751.879	1513.28
752.064	1478.46
752.248	1437.5
752.432	1527.61
752.617	1472.32
752.801	1494.85
752.985	1351.49
753.17	1414.98
753.354	1347.39
753.538	1359.68
753.722	1277.76
753.907	1349.44
754.091	1306.43
754.275	1296.19
754.459	1320.77
754.643	1249.09
754.828	1281.86
755.012	1347.39
755.196	1349.44
755.38	1281.86
755.564	1273.67
755.748	1292.1
755.932	1310.53
756.116	1294.15
756.3	1261.38
756.484	1251.14
756.668	1185.6
756.852	1281.86
757.036	1187.65
757.22	1257.28
757.404	1206.08
757.588	1191.75
757.772	1187.65
757.956	1232.71
758.14	1210.18
758.323	1068.87
758.507	1126.21
758.691	1077.06
758.875	1177.41
759.059	1122.12
759.242	1097.54
759.426	1103.68
759.61	1083.2
759.794	1144.64
759.977	1093.44
760.161	1138.5
760.345	1109.83
760.528	1128.26
760.712	1093.44
760.895	1060.68
761.079	1058.63
761.263	1040.2
761.446	1113.92
761.63	1048.39
761.813	956.23
761.997	1003.33
762.18	1070.92
762.364	962.37
762.547	1044.29
762.731	1007.43
762.914	937.8
763.098	960.33
763.281	921.42
763.464	968.52
763.648	945.99
763.831	954.18
764.015	1007.43
764.198	896.84
764.381	1013.57
764.564	974.66
764.748	1032.01
764.931	954.18
765.114	952.13
765.297	849.74
765.481	874.31
765.664	917.32
765.847	945.99
766.03	956.23
766.213	857.93
766.397	925.51
766.58	851.78
766.763	792.39
766.946	976.71
767.129	851.78
767.312	778.06
767.495	933.7
767.678	841.54
767.861	872.26
768.044	882.5
768.227	913.22
768.41	929.61
768.593	880.46
768.776	880.46
768.959	839.5
769.142	794.44
769.324	872.26
769.507	802.63
769.69	882.5
769.873	862.02
770.056	1003.33
770.239	884.55
770.421	802.63
770.604	872.26
770.787	755.53
770.97	855.88
771.152	753.48
771.335	870.22
771.518	675.66
771.7	794.44
771.883	839.5
772.066	696.14
772.248	886.6
772.431	839.5
772.613	808.78
772.796	749.39
772.978	847.69
773.161	782.15
773.343	773.96
773.526	710.47
773.708	702.28
773.891	692.04
774.073	798.54
774.256	737.1
774.438	786.25
774.621	802.63
774.803	704.33
774.985	628.56
775.168	765.77
775.35	700.23
775.532	714.57
775.715	630.6
775.897	696.14
776.079	724.81
776.261	642.89
776.444	687.95
776.626	646.99
776.808	677.71
776.99	612.17
777.173	651.08
777.355	655.18
777.537	612.17
777.719	618.32
777.901	610.12
778.083	704.33
778.265	577.36
778.447	646.99
778.629	612.17
778.811	571.21
778.993	606.03
779.175	597.84
779.357	560.97
779.539	563.02
779.721	528.21
779.903	606.03
780.085	530.25
780.267	626.51
780.449	513.87
780.631	558.92
780.812	474.96
780.994	544.59
781.176	511.82
781.358	544.59
781.54	499.53
781.721	646.99
781.903	520.01
782.085	520.01
782.267	466.77
782.448	538.45
782.63	462.67
782.812	497.49
782.993	526.16
783.175	483.15
783.357	446.29
783.538	563.02
783.72	483.15
783.901	458.57
784.083	470.86
784.264	513.87
784.446	450.38
784.627	413.52
784.809	522.06
784.99	380.75
785.172	462.67
785.353	520.01
785.535	388.94
785.716	364.37
785.897	456.53
786.079	372.56
786.26	438.09
786.441	462.67
786.623	333.65
786.804	413.52
786.985	374.61
787.167	335.7
787.348	331.6
787.529	474.96
787.71	462.67
787.891	393.04
788.073	358.22
788.254	347.98
788.435	388.94
788.616	434
788.797	364.37
788.978	380.75
789.159	352.08
789.34	382.8
789.522	397.14
789.703	335.7
789.884	345.94
790.065	356.18
790.246	364.37
790.427	339.79
790.607	368.46
790.788	347.98
790.969	317.26
791.15	399.18
791.331	431.95
791.512	294.74
791.693	249.68
791.874	319.31
792.054	366.42
792.235	257.87
792.416	294.74
792.597	249.68
792.778	282.45
792.958	315.22
793.139	294.74
793.32	386.9
793.5	221.01
793.681	325.46
793.862	331.6
794.042	235.35
794.223	243.54
794.404	290.64
794.584	282.45
794.765	247.63
794.945	184.15
795.126	284.5
795.306	343.89
795.487	315.22
795.667	235.35
795.848	347.98
796.028	175.95
796.209	266.07
796.389	276.31
796.57	292.69
796.75	221.01
796.93	274.26
797.111	227.15
797.291	270.16
797.471	249.68
797.652	171.86
797.832	274.26
798.012	257.87
798.192	210.77
798.373	200.53
798.553	237.39
798.733	194.39
798.913	153.43
799.093	206.67
799.274	208.72
799.454	294.74
799.634	200.53
799.814	241.49
799.994	233.3
800.174	206.67
800.354	274.26
800.534	175.95
800.714	259.92
800.894	147.28
801.074	208.72
801.254	163.67
801.434	266.07
801.614	192.34
801.794	126.8
801.974	792.39
802.154	216.91
802.334	161.62
802.514	163.67
802.693	210.77
802.873	163.67
803.053	171.86
803.233	214.87
803.413	178
803.592	171.86
803.772	225.11
803.952	114.52
804.131	169.81
804.311	169.81
804.491	180.05
804.67	212.82
804.85	204.63
805.03	198.48
805.209	229.2
805.389	141.14
805.568	135
805.748	171.86
805.928	186.19
806.107	282.45
806.287	184.15
806.466	151.38
806.646	165.71
806.825	120.66
807.004	151.38
807.184	161.62
807.363	186.19
807.543	130.9
807.722	190.29
807.901	175.95
808.081	186.19
808.26	81.75
808.439	151.38
808.619	85.84
808.798	73.56
808.977	114.52
809.156	143.19
809.336	94.04
809.515	175.95
809.694	114.52
809.873	175.95
810.052	139.09
810.231	192.34
810.411	167.76
810.59	110.42
810.769	163.67
810.948	192.34
811.127	83.8
811.306	126.8
811.485	120.66
811.664	104.28
811.843	104.28
812.022	159.57
812.201	116.56
812.38	167.76
812.559	67.41
812.737	122.71
812.916	159.57
813.095	128.85
813.274	79.7
813.453	147.28
813.632	91.99
813.811	128.85
813.989	161.62
814.168	106.32
814.347	118.61
814.526	130.9
814.704	159.57
814.883	151.38
815.062	71.51
815.24	69.46
815.419	94.04
815.598	130.9
815.776	48.98
815.955	159.57
816.133	89.94
816.312	104.28
816.49	151.38
816.669	85.84
816.847	38.74
817.026	32.6
817.204	32.6
817.383	102.23
817.561	73.56
817.74	61.27
817.918	143.19
818.097	63.32
818.275	151.38
818.453	135
818.632	161.62
818.81	89.94
818.988	44.88
819.167	32.6
819.345	120.66
819.523	143.19
819.701	89.94
819.879	-4.27
820.058	30.55
820.236	120.66
820.414	53.08
820.592	85.84
820.77	53.08
820.948	126.8
821.127	147.28
821.305	77.65
821.483	-34.99
821.661	184.15
821.839	48.98
822.017	38.74
822.195	94.04
822.373	132.95
822.551	38.74
822.729	96.08
822.907	57.17
823.085	75.6
823.262	38.74
823.44	87.89
823.618	61.27
823.796	120.66
823.974	71.51
824.152	106.32
824.329	51.03
824.507	83.8
824.685	77.65
824.863	48.98
825.04	98.13
825.218	53.08
825.396	69.46
825.574	122.71
825.751	96.08
825.929	143.19
826.107	46.93
826.284	30.55
826.462	139.09
826.639	55.12
826.817	53.08
826.994	135
827.172	118.61
827.349	114.52
827.527	85.84
827.704	102.23
827.882	141.14
828.059	3.93
828.237	89.94
828.414	61.27
828.591	22.36
828.769	118.61
828.946	53.08
829.124	87.89
829.301	94.04
829.478	40.79
829.655	114.52
829.833	3.93
830.01	-4.27
830.187	55.12
830.364	87.89
830.542	48.98
830.719	55.12
830.896	24.4
831.073	-14.51
831.25	98.13
831.427	12.12
831.604	98.13
831.782	-24.75
831.959	104.28
832.136	77.65
832.313	69.46
832.49	81.75
832.667	98.13
832.844	42.84
833.021	147.28
833.198	71.51
833.374	46.93
833.551	67.41
833.728	-4.27
833.905	63.32
834.082	51.03
834.259	110.42
834.436	77.65
834.612	51.03
834.789	137.04
834.966	26.45
835.143	79.7
835.319	145.24
835.496	48.98
835.673	65.36
835.85	65.36
836.026	-28.84
836.203	44.88
836.38	36.69
836.556	75.6
836.733	38.74
836.909	104.28
837.086	5.97
837.262	53.08
837.439	-4.27
837.616	36.69
837.792	32.6
837.968	14.17
838.145	12.12
838.321	3.93
838.498	-24.75
838.674	44.88
838.851	28.5
839.027	53.08
839.203	34.64
839.38	94.04
839.556	77.65
839.732	67.41
839.909	3.93
840.085	20.31
840.261	14.17
840.437	-0.17
840.614	30.55
840.79	87.89
840.966	59.22
841.142	40.79
841.318	-28.84
841.494	65.36
841.671	8.02
841.847	40.79
842.023	-0.17
842.199	24.4
842.375	-2.22
842.551	28.5
842.727	36.69
842.903	40.79
843.079	-28.84
843.255	94.04
843.431	10.07
843.607	51.03
843.783	53.08
843.959	12.12
844.134	18.26
844.31	77.65
844.486	44.88
844.662	-45.23
844.838	36.69
845.013	12.12
845.189	137.04
845.365	40.79
845.541	-28.84
845.716	28.5
845.892	38.74
846.068	1.88
846.244	20.31
846.419	28.5
846.595	16.21
846.77	46.93
846.946	28.5
847.122	24.4
847.297	5.97
847.473	98.13
847.648	-22.7
847.824	20.31
847.999	5.97
848.175	61.27
848.35	55.12
848.526	59.22
848.701	3.93
848.876	38.74
849.052	102.23
849.227	14.17
849.403	38.74
849.578	-4.27
849.753	61.27
849.929	1.88
850.104	-14.51
850.279	-2.22
850.454	61.27
850.63	-12.46
850.805	46.93
850.98	36.69
851.155	28.5
851.33	-28.84
851.505	-37.03
851.681	5.97
851.856	24.4
852.031	20.31
852.206	30.55
852.381	51.03
852.556	1.88
852.731	38.74
852.906	53.08
853.081	36.69
853.256	-8.36
853.431	38.74
853.606	-110.76
853.781	3.93
853.956	-49.32
854.131	-16.55
854.305	-8.36
854.48	-57.51
854.655	46.93
854.83	36.69
855.005	-39.08
855.18	122.71
855.354	-16.55
855.529	12.12
855.704	-37.03
855.879	-2.22
856.053	-24.75
856.228	48.98
856.403	-94.38
856.577	-16.55
856.752	-18.6
856.926	36.69
857.101	8.02
857.276	20.31
857.45	16.21
857.625	-32.94
857.799	16.21
857.974	-18.6
858.148	-67.75
858.323	61.27
858.497	-59.56
858.672	40.79
858.846	-16.55
859.02	-4.27
859.195	-61.61
859.369	3.93
859.543	-12.46
859.718	3.93
859.892	20.31
860.066	-6.31
860.241	-2.22
860.415	5.97
860.589	14.17
860.763	14.17
860.938	-37.03
861.112	89.94
861.286	-32.94
861.46	53.08
861.634	1.88
861.808	-22.7
861.982	20.31
862.157	46.93
862.331	-57.51
862.505	-6.31
862.679	-59.56
862.853	44.88
863.027	36.69
863.201	71.51
863.375	-98.47
863.549	16.21
863.722	12.12
863.896	38.74
864.07	18.26
864.244	-61.61
864.418	-4.27
864.592	40.79
864.766	-39.08
864.939	-30.89
865.113	-51.37
865.287	48.98
865.461	-53.42
865.634	-10.41
865.808	-41.13
865.982	55.12
866.156	-49.32
866.329	69.46
866.503	-12.46
866.676	53.08
866.85	89.94
867.024	46.93
867.197	69.46
867.371	73.56
867.544	-37.03
867.718	-65.71
867.891	-8.36
868.065	-26.79
868.238	-16.55
868.412	-45.23
868.585	40.79
868.759	-51.37
868.932	65.36
869.105	3.93
869.279	12.12
869.452	20.31
869.625	-75.95
869.799	-28.84
869.972	-20.65
870.145	28.5
870.319	77.65
870.492	28.5
870.665	-20.65
870.838	-12.46
871.011	-45.23
871.185	-86.19
871.358	14.17
871.531	-49.32
871.704	-51.37
871.877	-4.27
872.05	-34.99
872.223	-20.65
872.396	10.07
872.569	22.36
872.742	-69.8
872.915	98.13
873.088	16.21
873.261	-20.65
873.434	-20.65
873.607	-24.75
873.78	-20.65
873.953	-20.65
874.126	-14.51
874.299	-20.65
874.471	28.5
874.644	16.21
874.817	-0.17
874.99	71.51
875.163	-18.6
875.335	-53.42
875.508	-32.94
875.681	22.36
875.853	-18.6
876.026	-10.41
876.199	12.12
876.371	-28.84
876.544	-32.94
876.717	1.88
876.889	-18.6
877.062	8.02
877.234	-22.7
877.407	1.88
877.579	-86.19
877.752	-63.66
877.924	55.12
878.097	-20.65
878.269	-73.9
878.442	-16.55
878.614	5.97
878.786	77.65
878.959	-24.75
879.131	48.98
879.303	-12.46
879.476	26.45
879.648	-22.7
879.82	-8.36
879.993	-37.03
880.165	3.93
880.337	-59.56
880.509	16.21
880.681	-34.99
880.854	-12.46
881.026	-53.42
881.198	24.4
881.37	-2.22
881.542	-0.17
881.714	-49.32
881.886	-26.79
882.058	-34.99
882.23	61.27
882.402	1.88
882.574	-12.46
882.746	3.93
882.918	12.12
883.09	12.12
883.262	40.79
883.434	22.36
883.606	-77.99
883.778	46.93
883.95	20.31
884.122	-2.22
884.293	-51.37
884.465	55.12
884.637	-10.41
884.809	-61.61
884.98	-28.84
885.152	1.88
885.324	28.5
885.496	-49.32
885.667	-47.27
885.839	3.93
886.011	36.69
886.182	65.36
886.354	-18.6
886.525	-28.84
886.697	32.6
886.869	-51.37
887.04	28.5
887.212	44.88
887.383	-0.17
887.555	-45.23
887.726	14.17
887.897	-63.66
888.069	30.55
888.24	69.46
888.412	-18.6
888.583	-34.99
888.754	-28.84
888.926	-18.6
889.097	-28.84
889.268	-37.03
889.44	3.93
889.611	10.07
889.782	-77.99
889.953	-69.8
890.125	12.12
890.296	-49.32
890.467	-10.41
890.638	-28.84
890.809	24.4
890.98	-77.99
891.151	-49.32
891.323	61.27
891.494	-65.71
891.665	22.36
891.836	-28.84
892.007	-34.99
892.178	-45.23
892.349	-45.23
892.52	-14.51
892.691	8.02
892.862	-16.55
893.032	8.02
893.203	-24.75
893.374	-22.7
893.545	24.4
893.716	40.79
893.887	-45.23
894.057	20.31
894.228	-37.03
894.399	-61.61
894.57	28.5
894.74	-32.94
894.911	22.36
895.082	-10.41
895.253	-69.8
895.423	20.31
895.594	-67.75
895.764	-39.08
895.935	-61.61
896.106	3.93
896.276	-45.23
896.447	8.02
896.617	-71.85
896.788	-45.23
896.958	-12.46
897.129	-67.75
897.299	-49.32
897.47	69.46
897.64	-12.46
897.81	-14.51
897.981	3.93
898.151	-65.71
898.322	65.36
898.492	-16.55
898.662	-104.62
898.832	20.31
899.003	-4.27
899.173	-4.27
899.343	-10.41
899.513	-16.55
