Data from USB4F104151__4__14-42-29-670.txt Node

Date: Thu Mar 13 14:42:29 EDT 2025
User: louis
Spectrometer: USB4F10415
Trigger mode: 4
Integration Time (sec): 2.000000E-2
Scans to average: 1
Electric dark correction enabled: true
Nonlinearity correction enabled: false
Boxcar width: 0
XAxis mode: Wavelengths
Number of Pixels in Spectrum: 3648
>>>>>Begin Spectral Data<<<<<
178.204	-50.35
178.424	-50.35
178.644	-50.35
178.864	-72.87
179.084	-68.78
179.304	66.39
179.524	15.19
179.744	-1.19
179.964	-3.24
180.184	-33.96
180.404	4.95
180.624	-31.91
180.844	31.57
181.064	-44.2
181.283	-25.77
181.503	-27.82
181.723	50
181.943	-101.55
182.163	115.54
182.383	29.52
182.602	47.96
182.822	39.76
183.042	43.86
183.262	-17.58
183.482	15.19
183.701	62.29
183.921	-27.82
184.141	-42.15
184.361	86.87
184.58	21.33
184.8	39.76
185.02	78.68
185.239	-15.53
185.459	111.44
185.679	-9.39
185.898	-42.15
186.118	62.29
186.338	33.62
186.557	119.64
186.777	35.67
186.997	45.91
187.216	13.14
187.436	15.19
187.655	78.68
187.875	-3.24
188.095	-9.39
188.314	39.76
188.534	70.48
188.753	74.58
188.973	23.38
189.192	45.91
189.412	21.33
189.631	82.77
189.851	95.06
190.07	107.35
190.29	-17.58
190.509	-21.67
190.729	68.44
190.948	64.34
191.168	136.02
191.387	-11.43
191.607	-38.06
191.826	90.96
192.045	23.38
192.265	-3.24
192.484	21.33
192.704	13.14
192.923	50
193.142	105.3
193.362	21.33
193.581	99.16
193.8	56.15
194.02	95.06
194.239	25.43
194.458	13.14
194.678	-17.58
194.897	25.43
195.116	35.67
195.335	54.1
195.555	64.34
195.774	54.1
195.993	9.05
196.212	45.91
196.432	-15.53
196.651	7
196.87	7
197.089	47.96
197.308	-66.73
197.528	41.81
197.747	-21.67
197.966	72.53
198.185	131.92
198.404	-11.43
198.623	45.91
198.842	103.25
199.062	11.09
199.281	37.72
199.5	-40.11
199.719	21.33
199.938	103.25
200.157	76.63
200.376	99.16
200.595	72.53
200.814	21.33
201.033	-36.01
201.252	82.77
201.471	17.24
201.69	45.91
201.909	105.3
202.128	23.38
202.347	21.33
202.566	72.53
202.785	45.91
203.004	31.57
203.223	105.3
203.442	0.85
203.661	-74.92
203.879	23.38
204.098	103.25
204.317	74.58
204.536	119.64
204.755	0.85
204.974	109.4
205.193	107.35
205.411	37.72
205.63	115.54
205.849	88.92
206.068	66.39
206.287	33.62
206.505	60.24
206.724	74.58
206.943	-23.72
207.162	-17.58
207.381	103.25
207.599	115.54
207.818	58.2
208.037	-19.63
208.255	9.05
208.474	62.29
208.693	-9.39
208.911	123.73
209.13	-3.24
209.349	41.81
209.567	152.4
209.786	95.06
210.005	45.91
210.223	62.29
210.442	-7.34
210.661	31.57
210.879	17.24
211.098	64.34
211.316	66.39
211.535	99.16
211.753	58.2
211.972	7
212.191	0.85
212.409	78.68
212.628	64.34
212.846	45.91
213.065	11.09
213.283	13.14
213.502	37.72
213.72	-7.34
213.938	74.58
214.157	-27.82
214.375	70.48
214.594	7
214.812	103.25
215.031	-15.53
215.249	47.96
215.467	74.58
215.686	23.38
215.904	140.12
216.122	29.52
216.341	37.72
216.559	37.72
216.778	84.82
216.996	31.57
217.214	29.52
217.432	-3.24
217.651	50
217.869	47.96
218.087	-89.26
218.306	23.38
218.524	15.19
218.742	4.95
218.96	-3.24
219.179	54.1
219.397	-1.19
219.615	113.49
219.833	37.72
220.051	37.72
220.27	25.43
220.488	60.24
220.706	129.88
220.924	4.95
221.142	82.77
221.36	39.76
221.578	127.83
221.796	-23.72
222.015	74.58
222.233	-36.01
222.451	82.77
222.669	78.68
222.887	54.1
223.105	-17.58
223.323	62.29
223.541	2.9
223.759	29.52
223.977	17.24
224.195	25.43
224.413	70.48
224.631	-17.58
224.849	86.87
225.067	113.49
225.285	-66.73
225.503	21.33
225.721	78.68
225.939	37.72
226.157	72.53
226.375	45.91
226.592	41.81
226.81	47.96
227.028	105.3
227.246	54.1
227.464	103.25
227.682	9.05
227.9	45.91
228.117	47.96
228.335	54.1
228.553	121.68
228.771	-3.24
228.989	80.72
229.206	47.96
229.424	41.81
229.642	-66.73
229.86	4.95
230.077	29.52
230.295	0.85
230.513	68.44
230.731	82.77
230.948	121.68
231.166	111.44
231.384	0.85
231.601	25.43
231.819	78.68
232.037	-19.63
232.254	4.95
232.472	-36.01
232.689	29.52
232.907	54.1
233.125	29.52
233.342	-3.24
233.56	99.16
233.777	78.68
233.995	-40.11
234.213	97.11
234.43	-11.43
234.648	13.14
234.865	45.91
235.083	0.85
235.3	21.33
235.518	29.52
235.735	23.38
235.953	80.72
236.17	23.38
236.388	80.72
236.605	95.06
236.822	56.15
237.04	107.35
237.257	54.1
237.475	29.52
237.692	103.25
237.909	-44.2
238.127	47.96
238.344	0.85
238.562	101.2
238.779	33.62
238.996	9.05
239.214	54.1
239.431	29.52
239.648	-13.48
239.865	119.64
240.083	45.91
240.3	23.38
240.517	45.91
240.735	23.38
240.952	21.33
241.169	62.29
241.386	64.34
241.603	47.96
241.821	11.09
242.038	86.87
242.255	37.72
242.472	15.19
242.689	-21.67
242.907	-29.87
243.124	-9.39
243.341	-3.24
243.558	-19.63
243.775	2.9
243.992	4.95
244.209	45.91
244.426	107.35
244.643	82.77
244.86	-33.96
245.078	109.4
245.295	88.92
245.512	62.29
245.729	45.91
245.946	-17.58
246.163	62.29
246.38	72.53
246.597	-1.19
246.814	33.62
247.031	90.96
247.248	39.76
247.464	62.29
247.681	54.1
247.898	56.15
248.115	76.63
248.332	62.29
248.549	-15.53
248.766	54.1
248.983	78.68
249.2	86.87
249.417	86.87
249.633	21.33
249.85	62.29
250.067	17.24
250.284	111.44
250.501	23.38
250.717	25.43
250.934	29.52
251.151	54.1
251.368	-40.11
251.585	88.92
251.801	80.72
252.018	62.29
252.235	125.78
252.451	29.52
252.668	54.1
252.885	45.91
253.102	15.19
253.318	17.24
253.535	62.29
253.752	37.72
253.968	95.06
254.185	-1.19
254.401	66.39
254.618	21.33
254.835	7
255.051	62.29
255.268	41.81
255.484	160.59
255.701	76.63
255.917	80.72
256.134	50
256.351	4.95
256.567	33.62
256.784	21.33
257	9.05
257.217	58.2
257.433	39.76
257.65	74.58
257.866	95.06
258.082	35.67
258.299	-40.11
258.515	19.29
258.732	7
258.948	13.14
259.165	64.34
259.381	-40.11
259.597	4.95
259.814	25.43
260.03	-1.19
260.246	-15.53
260.463	103.25
260.679	82.77
260.895	111.44
261.112	29.52
261.328	-7.34
261.544	-68.78
261.761	74.58
261.977	21.33
262.193	29.52
262.409	70.48
262.626	47.96
262.842	33.62
263.058	-31.91
263.274	97.11
263.49	76.63
263.707	7
263.923	29.52
264.139	21.33
264.355	74.58
264.571	99.16
264.787	27.48
265.004	70.48
265.22	50
265.436	7
265.652	80.72
265.868	43.86
266.084	13.14
266.3	45.91
266.516	25.43
266.732	50
266.948	-7.34
267.164	52.05
267.38	-3.24
267.596	37.72
267.812	117.59
268.028	-15.53
268.244	0.85
268.46	31.57
268.676	29.52
268.892	35.67
269.108	-27.82
269.324	35.67
269.54	78.68
269.756	76.63
269.972	111.44
270.188	45.91
270.403	-3.24
270.619	41.81
270.835	31.57
271.051	41.81
271.267	70.48
271.483	-7.34
271.698	0.85
271.914	78.68
272.13	-25.77
272.346	21.33
272.562	47.96
272.777	60.24
272.993	33.62
273.209	111.44
273.425	41.81
273.64	-40.11
273.856	45.91
274.072	37.72
274.287	-25.77
274.503	72.53
274.719	-3.24
274.934	13.14
275.15	-11.43
275.366	60.24
275.581	37.72
275.797	-15.53
276.012	90.96
276.228	39.76
276.444	136.02
276.659	78.68
276.875	-3.24
277.09	23.38
277.306	-23.72
277.521	45.91
277.737	23.38
277.952	2.9
278.168	52.05
278.383	33.62
278.599	58.2
278.814	56.15
279.03	62.29
279.245	-1.19
279.461	35.67
279.676	45.91
279.892	0.85
280.107	-21.67
280.322	23.38
280.538	62.29
280.753	86.87
280.969	-19.63
281.184	45.91
281.399	29.52
281.615	4.95
281.83	56.15
282.045	25.43
282.26	13.14
282.476	-33.96
282.691	82.77
282.906	0.85
283.122	86.87
283.337	17.24
283.552	47.96
283.767	56.15
283.983	99.16
284.198	-3.24
284.413	31.57
284.628	39.76
284.843	80.72
285.058	111.44
285.274	39.76
285.489	-48.3
285.704	31.57
285.919	7
286.134	23.38
286.349	76.63
286.564	72.53
286.779	131.92
286.995	70.48
287.21	45.91
287.425	64.34
287.64	33.62
287.855	72.53
288.07	-25.77
288.285	95.06
288.5	54.1
288.715	50
288.93	60.24
289.145	54.1
289.36	105.3
289.575	29.52
289.79	17.24
290.004	23.38
290.219	0.85
290.434	70.48
290.649	13.14
290.864	-27.82
291.079	13.14
291.294	58.2
291.509	21.33
291.724	-36.01
291.938	93.01
292.153	66.39
292.368	50
292.583	17.24
292.798	70.48
293.012	37.72
293.227	35.67
293.442	41.81
293.657	-44.2
293.871	97.11
294.086	29.52
294.301	70.48
294.516	117.59
294.73	54.1
294.945	35.67
295.16	13.14
295.374	84.82
295.589	37.72
295.804	4.95
296.018	111.44
296.233	62.29
296.447	66.39
296.662	25.43
296.877	54.1
297.091	4.95
297.306	70.48
297.52	27.48
297.735	41.81
297.949	70.48
298.164	117.59
298.378	17.24
298.593	23.38
298.807	7
299.022	64.34
299.236	113.49
299.451	33.62
299.665	70.48
299.88	47.96
300.094	88.92
300.309	7
300.523	-9.39
300.737	70.48
300.952	54.1
301.166	7
301.381	56.15
301.595	23.38
301.809	99.16
302.024	58.2
302.238	19.29
302.452	113.49
302.667	13.14
302.881	13.14
303.095	78.68
303.309	45.91
303.524	-1.19
303.738	31.57
303.952	37.72
304.166	88.92
304.381	4.95
304.595	80.72
304.809	-11.43
305.023	74.58
305.237	23.38
305.452	13.14
305.666	9.05
305.88	66.39
306.094	127.83
306.308	35.67
306.522	25.43
306.736	37.72
306.95	66.39
307.164	29.52
307.379	97.11
307.593	62.29
307.807	41.81
308.021	9.05
308.235	9.05
308.449	17.24
308.663	9.05
308.877	72.53
309.091	58.2
309.305	47.96
309.519	-31.91
309.733	111.44
309.947	-11.43
310.161	70.48
310.374	93.01
310.588	23.38
310.802	-1.19
311.016	37.72
311.23	45.91
311.444	37.72
311.658	-23.72
311.872	74.58
312.085	56.15
312.299	129.88
312.513	25.43
312.727	45.91
312.941	-3.24
313.154	-33.96
313.368	103.25
313.582	105.3
313.796	37.72
314.009	93.01
314.223	68.44
314.437	127.83
314.651	78.68
314.864	74.58
315.078	-21.67
315.292	-52.39
315.505	68.44
315.719	72.53
315.933	31.57
316.146	50
316.36	4.95
316.573	107.35
316.787	62.29
317.001	-44.2
317.214	-9.39
317.428	56.15
317.641	-13.48
317.855	52.05
318.068	54.1
318.282	97.11
318.495	56.15
318.709	35.67
318.922	50
319.136	127.83
319.349	152.4
319.563	-1.19
319.776	121.68
319.99	-3.24
320.203	76.63
320.417	62.29
320.63	72.53
320.843	86.87
321.057	-11.43
321.27	88.92
321.483	-11.43
321.697	103.25
321.91	97.11
322.124	4.95
322.337	56.15
322.55	-11.43
322.763	11.09
322.977	70.48
323.19	-15.53
323.403	13.14
323.617	23.38
323.83	95.06
324.043	-3.24
324.256	62.29
324.469	45.91
324.683	54.1
324.896	-7.34
325.109	4.95
325.322	17.24
325.535	62.29
325.748	95.06
325.962	-50.35
326.175	37.72
326.388	93.01
326.601	127.83
326.814	15.19
327.027	62.29
327.24	136.02
327.453	21.33
327.666	-3.24
327.879	80.72
328.092	23.38
328.305	86.87
328.518	9.05
328.731	23.38
328.944	7
329.157	13.14
329.37	-13.48
329.583	103.25
329.796	111.44
330.009	31.57
330.222	119.64
330.435	148.31
330.648	129.88
330.861	-1.19
331.073	54.1
331.286	37.72
331.499	-9.39
331.712	-23.72
331.925	185.17
332.138	54.1
332.35	80.72
332.563	13.14
332.776	168.79
332.989	29.52
333.202	29.52
333.414	-3.24
333.627	86.87
333.84	56.15
334.053	62.29
334.265	41.81
334.478	37.72
334.691	37.72
334.903	50
335.116	54.1
335.329	111.44
335.541	111.44
335.754	107.35
335.966	99.16
336.179	37.72
336.392	50
336.604	115.54
336.817	70.48
337.029	62.29
337.242	86.87
337.454	56.15
337.667	25.43
337.88	54.1
338.092	-31.91
338.305	78.68
338.517	123.73
338.729	138.07
338.942	62.29
339.154	86.87
339.367	4.95
339.579	113.49
339.792	2.9
340.004	101.2
340.217	31.57
340.429	47.96
340.641	7
340.854	70.48
341.066	62.29
341.278	31.57
341.491	95.06
341.703	17.24
341.915	45.91
342.128	47.96
342.34	66.39
342.552	70.48
342.764	56.15
342.977	111.44
343.189	54.1
343.401	101.2
343.613	45.91
343.826	-36.01
344.038	37.72
344.25	7
344.462	4.95
344.674	31.57
344.886	54.1
345.099	-9.39
345.311	37.72
345.523	62.29
345.735	62.29
345.947	62.29
346.159	56.15
346.371	-7.34
346.583	29.52
346.795	78.68
347.007	-33.96
347.219	45.91
347.431	15.19
347.643	21.33
347.855	-36.01
348.067	9.05
348.279	13.14
348.491	103.25
348.703	9.05
348.915	39.76
349.127	-3.24
349.339	9.05
349.551	41.81
349.763	82.77
349.975	0.85
350.187	95.06
350.399	78.68
350.61	15.19
350.822	-11.43
351.034	33.62
351.246	47.96
351.458	58.2
351.669	-11.43
351.881	64.34
352.093	-1.19
352.305	58.2
352.517	109.4
352.728	60.24
352.94	29.52
353.152	82.77
353.363	11.09
353.575	62.29
353.787	156.5
353.999	37.72
354.21	99.16
354.422	-25.77
354.633	23.38
354.845	4.95
355.057	13.14
355.268	144.21
355.48	43.86
355.692	0.85
355.903	27.48
356.115	66.39
356.326	9.05
356.538	88.92
356.749	99.16
356.961	138.07
357.172	21.33
357.384	-23.72
357.595	86.87
357.807	13.14
358.018	41.81
358.23	33.62
358.441	62.29
358.653	70.48
358.864	29.52
359.075	35.67
359.287	54.1
359.498	136.02
359.709	25.43
359.921	13.14
360.132	88.92
360.344	68.44
360.555	33.62
360.766	74.58
360.977	13.14
361.189	64.34
361.4	72.53
361.611	115.54
361.823	33.62
362.034	21.33
362.245	21.33
362.456	45.91
362.667	95.06
362.879	0.85
363.09	64.34
363.301	82.77
363.512	50
363.723	9.05
363.935	39.76
364.146	62.29
364.357	25.43
364.568	78.68
364.779	41.81
364.99	86.87
365.201	70.48
365.412	101.2
365.623	45.91
365.834	54.1
366.045	62.29
366.256	72.53
366.467	37.72
366.678	142.16
366.889	21.33
367.1	121.68
367.311	113.49
367.522	54.1
367.733	9.05
367.944	13.14
368.155	29.52
368.366	37.72
368.577	43.86
368.788	99.16
368.999	64.34
369.209	47.96
369.42	64.34
369.631	129.88
369.842	54.1
370.053	78.68
370.264	41.81
370.474	45.91
370.685	41.81
370.896	21.33
371.107	119.64
371.317	62.29
371.528	-7.34
371.739	52.05
371.95	-29.87
372.16	64.34
372.371	74.58
372.582	78.68
372.792	43.86
373.003	95.06
373.214	78.68
373.424	72.53
373.635	-27.82
373.846	95.06
374.056	29.52
374.267	29.52
374.477	33.62
374.688	29.52
374.898	47.96
375.109	56.15
375.319	-21.67
375.53	25.43
375.74	111.44
375.951	70.48
376.161	39.76
376.372	117.59
376.582	-27.82
376.793	50
377.003	11.09
377.214	68.44
377.424	99.16
377.635	80.72
377.845	31.57
378.055	119.64
378.266	33.62
378.476	54.1
378.686	72.53
378.897	62.29
379.107	43.86
379.317	23.38
379.528	19.29
379.738	90.96
379.948	2.9
380.158	111.44
380.369	107.35
380.579	115.54
380.789	-11.43
380.999	56.15
381.21	115.54
381.42	25.43
381.63	21.33
381.84	72.53
382.05	109.4
382.261	56.15
382.471	13.14
382.681	74.58
382.891	140.12
383.101	41.81
383.311	17.24
383.521	54.1
383.731	60.24
383.941	80.72
384.151	111.44
384.361	54.1
384.571	78.68
384.781	80.72
384.991	70.48
385.201	76.63
385.411	21.33
385.621	54.1
385.831	-3.24
386.041	76.63
386.251	70.48
386.461	33.62
386.671	54.1
386.881	7
387.091	82.77
387.301	119.64
387.511	117.59
387.72	47.96
387.93	95.06
388.14	37.72
388.35	-3.24
388.56	72.53
388.769	47.96
388.979	54.1
389.189	62.29
389.399	107.35
389.609	111.44
389.818	95.06
390.028	78.68
390.238	150.36
390.447	13.14
390.657	50
390.867	86.87
391.076	-11.43
391.286	107.35
391.496	86.87
391.705	27.48
391.915	47.96
392.125	113.49
392.334	41.81
392.544	74.58
392.753	105.3
392.963	74.58
393.172	62.29
393.382	37.72
393.591	154.45
393.801	37.72
394.01	103.25
394.22	21.33
394.429	23.38
394.639	86.87
394.848	125.78
395.058	115.54
395.267	103.25
395.477	31.57
395.686	58.2
395.895	160.59
396.105	127.83
396.314	72.53
396.524	23.38
396.733	41.81
396.942	136.02
397.152	90.96
397.361	113.49
397.57	129.88
397.78	78.68
397.989	113.49
398.198	133.97
398.407	64.34
398.617	95.06
398.826	88.92
399.035	62.29
399.244	78.68
399.453	56.15
399.663	47.96
399.872	62.29
400.081	68.44
400.29	117.59
400.499	111.44
400.708	90.96
400.917	90.96
401.127	168.79
401.336	64.34
401.545	179.03
401.754	154.45
401.963	41.81
402.172	37.72
402.381	64.34
402.59	111.44
402.799	131.92
403.008	181.07
403.217	187.22
403.426	136.02
403.635	72.53
403.844	103.25
404.053	187.22
404.262	90.96
404.471	66.39
404.68	41.81
404.888	90.96
405.097	140.12
405.306	45.91
405.515	162.64
405.724	152.4
405.933	170.83
406.142	127.83
406.35	136.02
406.559	78.68
406.768	117.59
406.977	181.07
407.185	152.4
407.394	86.87
407.603	119.64
407.812	209.75
408.02	197.46
408.229	144.21
408.438	205.65
408.646	152.4
408.855	176.98
409.064	127.83
409.272	189.27
409.481	236.37
409.69	168.79
409.898	205.65
410.107	222.03
410.315	146.26
410.524	152.4
410.733	217.94
410.941	203.6
411.15	275.28
411.358	265.04
411.567	383.82
411.775	226.13
411.984	291.66
412.192	408.4
412.401	267.09
412.609	340.82
412.818	291.66
413.026	342.86
413.234	414.54
413.443	371.54
413.651	377.68
413.86	342.86
414.068	361.3
414.276	471.89
414.485	361.3
414.693	398.16
414.901	457.55
415.11	459.6
415.318	475.98
415.526	525.13
415.734	594.76
415.943	516.94
416.151	574.28
416.359	500.56
416.567	516.94
416.776	621.39
416.984	627.53
417.192	564.04
417.4	639.82
417.608	652.11
417.817	643.92
418.025	701.26
418.233	891.72
418.441	721.74
418.649	774.99
418.857	783.18
419.065	910.15
419.273	836.42
419.481	873.29
419.689	938.82
419.897	889.67
420.105	947.01
420.313	977.73
420.521	1063.75
420.729	1151.81
420.937	1078.08
421.145	1112.9
421.353	1168.2
421.561	1252.16
421.769	1250.11
421.977	1248.07
422.185	1282.88
422.393	1454.91
422.601	1454.91
422.809	1389.38
423.017	1499.97
423.224	1579.84
423.432	1598.27
423.64	1622.84
423.848	1682.24
424.056	1659.71
424.263	1868.6
424.471	1833.79
424.679	1973.05
424.887	1864.5
425.094	2036.53
425.302	2077.49
425.51	2100.02
425.718	2159.41
425.925	2151.22
426.133	2229.04
426.341	2308.91
426.548	2609.97
426.756	2511.66
426.964	2478.9
427.171	2675.5
427.379	2693.93
427.586	2743.08
427.794	2906.92
428.001	2974.5
428.209	3158.82
428.417	3056.42
428.624	3347.23
428.832	3306.27
429.039	3253.03
429.247	3228.45
429.454	3783.45
429.662	3879.71
429.869	3568.41
430.076	3865.37
430.284	3765.02
430.491	3861.27
430.699	4027.16
430.906	4086.55
431.114	4055.83
431.321	4391.7
431.528	4490
431.736	4707.09
431.943	4879.11
432.15	4621.07
432.358	4936.46
432.565	5231.37
432.772	5069.58
432.979	5225.22
433.187	5305.09
433.394	5364.48
433.601	5806.84
433.808	5778.17
434.016	5739.26
434.223	6068.98
434.43	6511.35
434.637	6169.34
434.844	6738.67
435.052	6578.93
435.259	6646.51
435.466	6746.86
435.673	6568.69
435.88	7148.26
436.087	7293.67
436.294	7455.46
436.501	7267.05
436.708	7404.26
436.915	7725.79
437.122	8196.82
437.329	8037.08
437.537	8409.81
437.743	8561.36
437.95	8456.92
438.157	8805.07
438.364	9310.92
438.571	9016.01
438.778	9302.73
438.985	9933.5
439.192	9663.17
439.399	9810.62
439.606	9626.31
439.813	10257.08
440.02	10775.22
440.227	10631.86
440.433	10687.15
440.64	10945.2
440.847	10828.46
441.054	11262.63
441.261	11666.08
441.467	11793.06
441.674	11885.22
441.881	12337.82
442.088	12251.8
442.294	12368.54
442.501	12683.92
442.708	12616.34
442.914	13251.21
443.121	13881.99
443.328	13447.82
443.534	14320.25
443.741	14152.32
443.948	13765.25
444.154	14848.63
444.361	14779
444.568	14953.07
444.774	14750.32
444.981	15026.8
445.187	15448.68
445.394	16052.83
445.6	15958.63
445.807	17431.12
446.013	16783.96
446.22	17050.19
446.426	17543.75
446.633	17918.53
446.839	18434.62
447.046	17615.43
447.252	18723.38
447.459	18610.75
447.665	18586.17
447.871	19606.06
448.078	20202.02
448.284	19331.63
448.491	19812.9
448.697	20681.24
448.903	21115.41
449.11	20877.85
449.316	20765.21
449.522	20859.42
449.728	21934.6
449.935	22051.33
450.141	21764.62
450.347	22454.78
450.553	21862.92
450.76	21918.21
450.966	22782.46
451.172	22587.9
451.378	23214.58
451.584	22495.74
451.791	23296.5
451.997	23192.05
452.203	23646.7
452.409	23589.36
452.615	23812.59
452.821	22542.85
453.027	22317.57
453.233	23810.54
453.44	22622.72
453.646	23091.7
453.852	22927.86
454.058	23515.63
454.264	22745.59
454.47	23280.11
454.676	22520.32
454.882	23687.66
455.088	21436.94
455.294	21643.79
455.5	22012.42
455.705	22497.79
455.911	21598.73
456.117	21137.94
456.323	20982.29
456.529	19817
456.735	20560.41
456.941	20050.47
457.147	19671.59
457.352	19423.79
457.558	18651.7
457.764	19235.38
457.97	18653.75
458.176	18272.83
458.381	18285.12
458.587	17422.92
458.793	17355.34
458.999	16327.26
459.204	17826.37
459.41	17183.31
459.616	15968.87
459.821	16050.78
460.027	16198.24
460.233	15692.39
460.438	14987.89
460.644	15157.87
460.85	14301.82
461.055	14221.95
461.261	14250.62
461.466	13136.52
461.672	12612.24
461.878	13701.76
462.083	12790.42
462.289	12509.85
462.494	12329.63
462.7	11680.42
462.905	11489.96
463.111	12057.25
463.316	11934.37
463.522	11784.87
463.727	11723.43
463.932	11520.68
464.138	11473.57
464.343	11754.15
464.549	11354.79
464.754	11498.15
464.959	11592.36
465.165	11518.63
465.37	11018.93
465.575	10556.08
465.781	11217.58
465.986	11287.21
466.191	10728.11
466.397	10476.21
466.602	9996.99
466.807	10502.84
467.012	10504.89
467.218	10347.19
467.423	10156.73
467.628	10371.77
467.833	10826.42
468.038	10508.98
468.244	10146.49
468.449	10697.39
468.654	10226.36
468.859	10052.28
469.064	9951.93
469.269	9581.25
469.474	9650.88
469.679	10144.44
469.885	9634.5
470.09	9888.45
470.295	9743.04
470.5	9403.08
470.705	9528
470.91	9384.65
471.115	9261.77
471.32	9374.41
471.525	9360.07
471.73	9257.67
471.935	9067.21
472.139	8737.49
472.344	8854.22
472.549	8934.09
472.754	8893.13
472.959	8639.19
473.164	8491.73
473.369	8123.1
473.574	8475.35
473.778	8377.05
473.983	8487.64
474.188	8385.24
474.393	8106.71
474.598	8065.75
474.802	7942.88
475.007	7906.01
475.212	7992.03
475.417	7584.48
475.621	7813.85
475.826	7768.8
476.031	7701.22
476.235	7426.79
476.44	7561.95
476.645	7391.97
476.849	7310.05
477.054	7484.13
477.259	7166.7
477.463	7164.65
477.668	6918.89
477.872	7189.22
478.077	6927.08
478.282	6619.89
478.486	6693.62
478.691	6757.1
478.895	6609.65
479.1	6589.17
479.304	6615.79
479.509	6413.04
479.713	6689.52
479.918	6521.59
480.122	6359.8
480.326	6386.42
480.531	6382.32
480.735	6193.91
480.94	6304.5
481.144	6472.43
481.348	6277.88
481.553	6333.17
481.757	6232.82
481.961	6157.05
482.166	6206.2
482.37	6267.64
482.574	6109.94
482.778	6185.72
482.983	6200.05
483.187	5978.87
483.391	6152.95
483.595	6324.98
483.8	5989.11
484.004	6056.7
484.208	6255.35
484.412	6034.17
484.616	6214.39
484.821	6202.1
485.025	6036.22
485.229	6157.05
485.433	5864.19
485.637	6253.3
485.841	6144.76
486.045	6107.9
486.249	6189.81
486.453	6175.48
486.657	6101.75
486.861	6157.05
487.065	6116.09
487.269	6175.48
487.473	5952.25
487.677	6152.95
487.881	6134.52
488.085	6267.64
488.289	6099.7
488.493	6245.11
488.697	6099.7
488.901	6109.94
489.105	6034.17
489.309	6353.65
489.512	6191.86
489.716	6271.73
489.92	6165.24
490.124	6218.49
490.328	6378.23
490.531	6329.08
490.735	6304.5
490.939	6404.85
491.143	6247.16
491.346	6441.72
491.55	6396.66
491.754	6603.5
491.958	6615.79
492.161	6488.82
492.365	6580.98
492.569	6468.34
492.772	6552.31
492.976	6494.96
493.18	6683.38
493.383	6771.44
493.587	6843.12
493.79	6660.85
493.994	6765.29
494.197	6767.34
494.401	6976.23
494.605	6800.11
494.808	6908.65
495.012	6982.38
495.215	6994.67
495.419	7099.11
495.622	7068.39
495.825	7197.42
496.029	7221.99
496.232	7369.44
496.436	7334.63
496.639	7484.13
496.843	7387.88
497.046	7525.09
497.249	7750.37
497.453	7754.46
497.656	7838.43
497.859	7789.28
498.063	7930.59
498.266	8008.41
498.469	8022.75
498.673	8262.36
498.876	8397.53
499.079	8325.85
499.282	8389.33
499.485	8874.7
499.689	8688.34
499.892	8827.6
500.095	8559.31
500.298	9036.49
500.501	8893.13
500.705	9231.05
500.908	9046.73
501.111	9321.16
501.314	9482.95
501.517	9687.75
501.72	9853.63
501.923	9824.96
502.126	9650.88
502.329	10058.43
502.532	10027.71
502.735	9988.8
502.938	10494.65
503.141	10396.34
503.344	10672.82
503.547	10615.48
503.75	10711.73
503.953	10957.49
504.156	10967.73
504.359	11178.67
504.562	11031.21
504.765	11285.16
504.968	11518.63
505.17	11717.28
505.373	11729.57
505.576	11901.6
505.779	11981.47
505.982	11909.79
506.185	12309.15
506.387	12479.13
506.59	12309.15
506.793	12776.08
506.996	12669.59
507.198	12987.02
507.401	13052.56
507.604	13331.08
507.807	13363.85
508.009	13435.53
508.212	13521.54
508.415	13767.3
508.617	13949.57
508.82	14183.04
509.022	13924.99
509.225	14496.38
509.428	14389.88
509.63	14486.14
509.833	14701.17
510.035	15239.79
510.238	15129.2
510.44	15274.6
510.643	15495.78
510.845	15680.1
511.048	15528.55
511.25	15762.02
511.453	15923.81
511.655	16677.46
511.858	16429.66
512.06	16679.51
512.262	16736.85
512.465	16542.3
512.667	17175.12
512.87	17209.93
513.072	17199.69
513.274	17719.88
513.477	17674.82
513.679	17830.47
513.881	18104.9
514.084	17953.35
514.286	18518.59
514.488	18586.17
514.69	18821.69
514.893	18979.38
515.095	19135.03
515.297	19139.12
515.499	19399.21
515.701	19604.01
515.904	19892.77
516.106	19946.02
516.308	20337.18
516.51	20451.87
516.712	20380.19
516.914	20750.87
517.116	20982.29
517.318	21058.07
517.52	21291.54
517.722	21408.27
517.925	22118.92
518.127	22034.95
518.329	21979.65
518.531	22057.48
518.733	22508.03
518.935	22503.93
519.136	22751.74
519.338	23024.12
519.54	22960.63
519.742	23331.31
519.944	23452.14
520.146	24179.17
520.348	24041.96
520.55	24164.84
520.752	24332.77
520.954	24666.59
521.155	24381.92
521.357	24865.24
521.559	25133.53
521.761	25655.76
521.963	25309.65
522.164	25598.41
522.366	25776.59
522.568	25868.75
522.77	26151.37
522.971	26411.46
523.173	26157.51
523.375	26644.93
523.576	26612.16
523.778	27083.19
523.98	26808.76
524.181	27265.46
524.383	27285.94
524.584	27617.71
524.786	27673.01
524.988	27638.19
525.189	28201.38
525.391	28078.5
525.592	28055.98
525.794	28311.97
525.995	28608.93
526.197	28524.96
526.398	28783.01
526.6	28946.84
526.801	28944.8
527.003	29100.44
527.204	28989.85
527.406	29518.23
527.607	29743.5
527.808	29739.41
528.01	29237.66
528.211	29737.36
528.412	30149
528.614	29518.23
528.815	30155.15
529.016	30089.61
529.218	29884.81
529.419	30390.66
529.62	30380.42
529.822	30445.96
530.023	30073.23
530.224	30677.38
530.425	30302.6
530.626	30390.66
530.828	30351.75
531.029	31007.1
531.23	30513.54
531.431	30826.88
531.632	30550.4
531.833	30820.74
532.035	30960
532.236	30634.37
532.437	30902.65
532.638	30493.06
532.839	30783.87
533.04	31205.75
533.241	30884.22
533.442	31326.58
533.643	30933.37
533.844	30982.52
534.045	31316.34
534.246	31189.37
534.447	31586.68
534.648	31269.24
534.849	31031.68
535.05	30906.75
535.251	31232.38
535.451	31312.25
535.652	31486.32
535.853	31115.64
536.054	30984.57
536.255	31267.19
536.456	30955.9
536.657	31416.69
536.857	31269.24
537.058	31093.11
537.259	31635.83
537.46	31242.62
537.66	31117.69
537.861	30986.62
538.062	31080.83
538.263	31596.92
538.463	31037.82
538.664	31084.92
538.865	31465.85
539.065	31240.57
539.266	30861.69
539.466	31793.52
539.667	30792.06
539.868	31738.23
540.068	31185.27
540.269	31385.97
540.469	31603.06
540.67	31117.69
540.87	30941.57
541.071	31041.92
541.271	31529.33
541.472	31242.62
541.672	31125.88
541.873	31091.07
542.073	30962.04
542.274	31371.64
542.474	31390.07
542.675	30910.85
542.875	31553.91
543.075	31015.29
543.276	30855.55
543.476	31443.32
543.676	31158.65
543.877	31402.36
544.077	31207.8
544.277	31342.97
544.478	31091.07
544.678	31279.48
544.878	31068.54
545.078	30953.85
545.279	31035.77
545.479	30495.11
545.679	30916.99
545.879	30916.99
546.079	31146.36
546.28	31402.36
546.48	30884.22
546.68	31043.96
546.88	30964.09
547.08	31168.89
547.28	30794.11
547.48	30656.9
547.68	30857.6
547.88	30716.29
548.081	31306.1
548.281	31250.81
548.481	30998.91
548.681	31347.06
548.881	30912.89
549.081	31009.15
549.28	30781.82
549.48	30964.09
549.68	30984.57
549.88	31062.4
550.08	30886.27
550.28	30777.73
550.48	31005.05
550.68	31211.9
550.88	30642.56
551.08	30935.42
551.279	31179.13
551.479	30503.3
551.679	31037.82
551.879	30685.57
552.079	30880.13
552.278	30646.66
552.478	30826.88
552.678	30747.01
552.878	30693.76
553.077	30509.44
553.277	30765.44
553.477	31195.51
553.676	31158.65
553.876	30898.56
554.076	30912.89
554.275	30548.36
554.475	30417.29
554.674	30353.8
554.874	30452.1
555.074	30284.17
555.273	30556.55
555.473	30740.86
555.672	30454.15
555.872	30222.73
556.071	30204.3
556.271	30624.13
556.47	30241.16
556.67	29704.59
556.869	30243.21
557.068	30282.12
557.268	30282.12
557.467	30353.8
557.667	30159.24
557.866	29997.45
558.065	30290.31
558.265	30157.19
558.464	29741.46
558.663	30042.51
558.863	29581.71
559.062	30339.46
559.261	29594
559.461	30052.75
559.66	29684.11
559.859	29745.55
560.058	29407.64
560.258	29456.79
560.457	29505.94
560.656	29555.09
560.855	29430.16
561.054	29372.82
561.253	29381.01
561.453	29534.61
561.652	29493.65
561.851	29723.02
562.05	28971.42
562.249	29047.19
562.448	29403.54
562.647	29127.06
562.846	28961.18
563.045	28995.99
563.244	28682.66
563.443	29231.51
563.642	28365.22
563.841	28912.03
564.04	28723.62
564.239	28909.98
564.438	28647.84
564.637	28721.57
564.836	28543.39
565.035	28371.36
565.234	28373.41
565.432	28357.03
565.631	28328.36
565.83	28129.7
566.029	28117.42
566.228	28058.03
566.427	28076.46
566.625	27687.34
566.824	28066.22
567.023	28316.07
567.222	27646.38
567.42	28164.52
567.619	27554.22
567.818	27775.41
568.016	27541.94
568.215	27949.48
568.414	27414.96
568.612	27728.3
568.811	27208.12
569.01	27439.54
569.208	26880.44
569.407	27154.87
569.605	26587.58
569.804	27273.65
570.002	27046.33
570.201	26988.99
570.4	26847.68
570.598	26919.35
570.797	26712.51
570.995	26974.65
571.193	26507.71
571.392	26649.02
571.59	26376.64
571.789	26393.03
571.987	26024.39
572.186	26298.82
572.384	26016.2
572.582	26120.65
572.781	26128.84
572.979	25809.36
573.177	25936.33
573.376	26098.12
573.574	25819.6
573.772	25993.67
573.971	25829.84
574.169	25711.05
574.367	25309.65
574.565	25627.09
574.763	25330.13
574.962	25414.1
575.16	24926.68
575.358	25289.17
575.556	24898.01
575.754	25111
575.952	24809.95
576.151	25354.71
576.349	24789.47
576.547	24840.67
576.745	24625.63
576.943	24707.55
577.141	24642.01
577.339	24605.15
577.537	24396.26
577.735	24396.26
577.933	24336.87
578.131	24123.88
578.329	24046.05
578.527	24066.53
578.725	24142.31
578.923	24087.01
579.121	24011.24
579.319	23773.67
579.516	24015.33
579.714	23773.67
579.912	23880.17
580.11	23695.85
580.308	23695.85
580.506	23654.89
580.704	23040.5
580.901	23222.77
581.099	23204.34
581.297	23280.11
581.495	23177.72
581.692	23118.32
581.89	22708.73
582.088	23296.5
582.285	22825.47
582.483	23142.9
582.681	22929.91
582.878	23081.46
583.076	22399.49
583.274	22960.63
583.471	22329.86
583.669	22460.93
583.866	22342.14
584.064	22563.33
584.262	22260.23
584.459	22196.74
584.657	22069.76
584.854	22002.18
585.052	22028.81
585.249	22018.57
585.447	22006.28
585.644	22016.52
585.841	22073.86
586.039	22082.05
586.236	21639.69
586.434	21594.64
586.631	21692.94
586.828	21574.16
587.026	21559.82
587.223	21600.78
587.42	21228.05
587.618	21453.33
587.815	21070.36
588.012	21082.64
588.21	21058.07
588.407	21248.53
588.604	20916.76
588.801	20763.16
588.999	20804.12
589.196	20998.68
589.393	20531.74
589.59	20830.74
589.787	20689.43
589.984	20541.98
590.182	20378.14
590.379	20400.67
590.576	20331.04
590.773	20458.01
590.97	20109.86
591.167	20460.06
591.364	20056.61
591.561	20185.63
591.758	19780.14
591.955	19974.69
592.152	19913.25
592.349	19976.74
592.546	20009.51
592.743	19716.65
592.94	19587.63
593.137	19624.49
593.334	19765.8
593.531	19268.14
593.727	19440.17
593.924	19620.39
594.121	19182.13
594.318	19135.03
594.515	19139.12
594.712	19321.39
594.908	19196.46
595.105	19264.05
595.302	18883.13
595.499	19118.64
595.696	18747.96
595.892	18750.01
596.089	19253.81
596.286	18825.78
596.482	18604.6
596.679	18649.66
596.876	18690.62
597.072	18561.59
597.269	18590.27
597.466	18375.23
597.662	18186.82
597.859	18244.16
598.055	18090.56
598.252	18381.37
598.448	17824.33
598.645	18129.47
598.841	17748.55
599.038	17930.82
599.234	18041.41
599.431	18059.84
599.627	17699.4
599.824	17785.41
600.02	17707.59
600.217	17863.24
600.413	17367.63
600.609	17482.31
600.806	17394.25
601.002	17744.45
601.198	17277.52
601.395	17224.27
601.591	17281.61
601.787	17345.1
601.984	17031.76
602.18	17048.15
602.376	16896.6
602.572	16962.13
602.769	16912.98
602.965	16839.25
603.161	16818.77
603.357	16671.32
603.553	16855.64
603.75	16650.84
603.946	16398.94
604.142	16650.84
604.338	16564.82
604.534	16503.39
604.73	16202.33
604.926	16286.3
605.122	16364.12
605.318	16347.74
605.514	16185.95
605.71	16243.29
605.906	16036.45
606.102	15977.06
606.298	16101.98
606.494	16001.63
606.69	16099.94
606.886	16167.52
607.082	15745.64
607.278	15862.37
607.474	15798.88
607.67	15893.09
607.866	15563.37
608.062	15901.28
608.257	15753.83
608.453	15784.55
608.649	15696.49
608.845	15381.1
609.041	15618.66
609.236	15469.16
609.432	15426.15
609.628	15452.78
609.824	15209.07
610.019	15288.94
610.215	15217.26
610.411	15360.62
610.606	15409.77
610.802	15233.64
610.998	15071.86
611.193	15041.14
611.389	15043.18
611.584	14973.55
611.78	15082.1
611.976	15028.85
612.171	15161.97
612.367	15047.28
612.562	14701.17
612.758	14709.36
612.953	14807.67
613.149	14883.44
613.344	14781.04
613.539	14996.08
613.735	14725.75
613.93	14627.45
614.126	14357.11
614.321	14713.46
614.517	14561.91
614.712	14451.32
614.907	14414.46
615.103	14723.7
615.298	14416.51
615.493	14543.48
615.688	14107.26
615.884	14340.73
616.079	14084.73
616.274	14365.31
616.47	14353.02
616.665	14238.33
616.86	13963.9
617.055	13935.23
617.25	14060.16
617.445	14238.33
617.641	13660.8
617.836	14119.55
618.031	13877.89
618.226	13941.38
618.421	13689.48
618.616	14021.25
618.811	13697.67
619.006	13802.11
619.201	13453.96
619.396	13499.02
619.591	13441.67
619.786	13652.61
619.981	13302.41
620.176	13304.46
620.371	13267.59
620.566	13320.84
620.761	13101.71
620.956	13365.9
621.151	13087.37
621.346	13087.37
621.541	12907.15
621.735	12989.07
621.93	12884.62
622.125	12714.64
622.32	12417.69
622.515	12679.83
622.709	12515.99
622.904	12450.46
623.099	12262.04
623.294	12421.78
623.488	12290.71
623.683	12294.81
623.878	11838.11
624.072	12210.84
624.267	12022.43
624.462	12024.48
624.656	11940.51
624.851	11903.65
625.046	11760.29
625.24	11666.08
625.435	11604.64
625.629	11707.04
625.824	11358.89
626.018	11535.01
626.213	11403.94
626.407	11436.71
626.602	11260.59
626.796	11334.31
626.991	11115.18
627.185	11141.8
627.38	10992.3
627.574	10977.97
627.768	10863.28
627.963	10918.57
628.157	10832.56
628.352	10662.58
628.546	10681.01
628.74	10803.89
628.935	10670.77
629.129	10609.33
629.323	10394.29
629.517	10490.55
629.712	10349.24
629.906	10343.1
630.1	10181.31
630.294	10318.52
630.489	10062.52
630.683	10304.18
630.877	9919.17
631.071	10037.95
631.265	9992.89
631.459	9859.77
631.653	9804.48
631.848	9880.25
632.042	9575.11
632.236	9933.5
632.43	9552.58
632.624	9609.92
632.818	9609.92
633.012	9401.03
633.206	9452.23
633.4	9464.52
633.594	9274.06
633.788	9108.17
633.982	9251.53
634.176	9472.71
634.369	9265.86
634.563	9048.78
634.757	8962.76
634.951	9255.62
635.145	9052.88
635.339	9069.26
635.533	8618.71
635.726	8876.75
635.92	8927.95
636.114	8733.39
636.308	8585.94
636.501	8651.47
636.695	8735.44
636.889	8430.29
637.083	8549.07
637.276	8491.73
637.47	8487.64
637.664	8239.83
637.857	8311.51
638.051	8280.79
638.244	8291.03
638.438	8073.95
638.632	8215.26
638.825	8094.43
639.019	7926.49
639.212	7944.92
639.406	8149.72
639.599	7815.9
639.793	7779.04
639.986	7721.7
640.18	7705.31
640.373	7795.42
640.567	7566.05
640.76	7650.02
640.954	7639.78
641.147	7607.01
641.34	7580.39
641.534	7486.18
641.727	7500.51
641.92	7469.8
642.114	7371.49
642.307	7283.43
642.5	7295.72
642.694	7269.09
642.887	7287.53
643.08	7232.23
643.273	7092.97
643.467	7125.74
643.66	6953.71
643.853	7101.16
644.046	6945.52
644.239	7004.91
644.432	6796.01
644.626	6845.16
644.819	6988.52
645.012	6775.53
645.205	6753.01
645.398	6685.42
645.591	6640.37
645.784	6728.43
645.977	6492.91
646.17	6388.47
646.363	6451.95
646.556	6466.29
646.749	6451.95
646.942	6554.35
647.135	6351.6
647.328	6284.02
647.521	6259.45
647.714	6169.34
647.907	6306.55
648.099	6279.93
648.292	6214.39
648.485	6144.76
648.678	6075.13
648.871	5919.48
649.064	5978.87
649.256	6054.65
649.449	5980.92
649.642	6025.98
649.835	5944.06
650.027	6068.98
650.22	5888.76
650.413	5788.41
650.605	5796.6
650.798	5618.43
650.991	5638.91
651.183	5636.86
651.376	5686.01
651.568	5679.87
651.761	5675.77
651.954	5647.1
652.146	5538.56
652.339	5479.17
652.531	5583.62
652.724	5372.68
652.916	5473.03
653.109	5337.86
653.301	5430.02
653.494	5411.59
653.686	5286.66
653.879	5323.52
654.071	5208.84
654.263	5333.76
654.456	5239.56
654.648	5274.37
654.84	5067.53
655.033	4989.71
655.225	5069.58
655.417	5061.38
655.61	5038.86
655.802	5067.53
655.994	4870.92
656.186	4940.55
656.379	4971.27
656.571	4864.78
656.763	4729.61
656.955	4797.2
657.148	4795.15
657.34	4768.52
657.532	4764.43
657.724	4725.52
657.916	4754.19
658.108	4821.77
658.3	4649.74
658.492	4686.61
658.684	4627.21
658.876	4555.54
659.068	4633.36
659.26	4487.95
659.452	4551.44
659.644	4510.48
659.836	4371.22
660.028	4432.66
660.22	4463.38
660.412	4305.68
660.604	4203.29
660.796	4477.71
660.988	4317.97
661.18	4299.54
661.372	4184.85
661.563	4340.5
661.755	4102.93
661.947	4152.09
662.139	4139.8
662.331	4074.26
662.522	4098.84
662.714	4051.74
662.906	4043.54
663.097	3912.47
663.289	4018.97
663.481	4090.65
663.673	3998.49
663.864	3865.37
664.056	3822.36
664.247	3891.99
664.439	3857.18
664.631	3840.79
664.822	3898.14
665.014	3838.75
665.205	3765.02
665.397	3683.1
665.588	3906.33
665.78	3652.38
665.971	3711.77
666.163	3754.78
666.354	3777.31
666.546	3732.25
666.737	3662.62
666.929	3627.81
667.12	3658.53
667.311	3676.96
667.503	3582.75
667.694	3629.85
667.885	3529.5
668.077	3511.07
668.268	3560.22
668.459	3535.65
668.651	3543.84
668.842	3466.02
669.033	3435.3
669.224	3285.8
669.416	3431.2
669.607	3461.92
669.798	3339.04
669.989	3347.23
670.18	3388.19
670.371	3310.37
670.563	3371.81
670.754	3347.23
670.945	3232.55
671.136	3216.16
671.327	3207.97
671.518	3185.44
671.709	3324.71
671.9	3257.12
672.091	3183.4
672.282	3267.36
672.473	3228.45
672.664	3175.2
672.855	3085.09
673.046	3207.97
673.237	3177.25
673.428	3158.82
673.619	3240.74
673.809	3126.05
674	3150.63
674.191	3101.48
674.382	3042.09
674.573	3109.67
674.764	3042.09
674.954	3126.05
675.145	3003.18
675.336	3011.37
675.527	2986.79
675.717	3035.94
675.908	3007.27
676.099	2990.89
676.289	3027.75
676.48	2865.96
676.671	3044.13
676.861	2896.68
677.052	2960.17
677.243	2945.83
677.433	2925.35
677.624	2933.54
677.814	2898.73
678.005	2794.28
678.195	2892.59
678.386	2898.73
678.576	2839.34
678.767	2790.19
678.957	2945.83
679.148	2710.32
679.338	2755.37
679.529	2831.15
679.719	2806.57
679.909	2843.43
680.1	2814.76
680.29	2661.16
680.481	2765.61
680.671	2947.88
680.861	2814.76
681.052	2786.09
681.242	2714.41
681.432	2943.78
681.622	2724.65
681.813	2822.95
682.003	2695.98
682.193	2734.89
682.383	2726.7
682.573	2749.23
682.764	2650.92
682.954	2738.99
683.144	2749.23
683.334	2652.97
683.524	2732.84
683.714	2687.79
683.904	2665.26
684.094	2743.08
684.284	2749.23
684.474	2810.67
684.664	2665.26
684.854	2652.97
685.044	2718.51
685.234	2726.7
685.424	2695.98
685.614	2751.28
685.804	2675.5
685.994	2528.05
686.184	2618.16
686.374	2628.4
686.564	2470.7
686.753	2634.54
686.943	2577.2
687.133	2628.4
687.323	2622.25
687.513	2556.72
687.702	2741.04
687.892	2560.81
688.082	2495.28
688.272	2612.01
688.461	2511.66
688.651	2503.47
688.841	2499.38
689.03	2454.32
689.22	2495.28
689.41	2491.18
689.599	2396.98
689.789	2347.83
689.979	2401.07
690.168	2423.6
690.358	2482.99
690.547	2419.5
690.737	2435.89
690.926	2597.68
691.116	2396.98
691.305	2403.12
691.495	2437.94
691.684	2421.55
691.874	2405.17
692.063	2454.32
692.252	2356.02
692.442	2417.46
692.631	2227
692.82	2171.7
693.01	2325.3
693.199	2300.72
693.388	2241.33
693.578	2323.25
693.767	2306.87
693.956	2329.39
694.146	2265.91
694.335	2313.01
694.524	2233.14
694.713	2313.01
694.902	2210.61
695.092	2259.76
695.281	2183.99
695.47	2210.61
695.659	2153.27
695.848	2229.04
696.037	2188.08
696.226	2114.36
696.415	2276.15
696.604	2227
696.793	2241.33
696.982	2106.17
697.171	2147.12
697.36	2159.41
697.549	2054.97
697.738	2183.99
697.927	2112.31
698.116	2147.12
698.305	2118.45
698.494	2136.88
698.683	2159.41
698.872	2282.29
699.061	2030.39
699.25	2173.75
699.438	2186.04
699.627	2024.25
699.816	2136.88
700.005	1995.57
700.193	2052.92
700.382	2186.04
700.571	2081.59
700.76	2038.58
700.948	2194.23
701.137	2081.59
701.326	2229.04
701.514	2179.89
701.703	2005.81
701.892	2079.54
702.08	2151.22
702.269	2124.6
702.457	2155.32
702.646	2038.58
702.834	2046.77
703.023	2204.47
703.212	2052.92
703.4	2069.3
703.589	2071.35
703.777	2089.78
703.965	2093.88
704.154	2059.06
704.342	2122.55
704.531	2054.97
704.719	2052.92
704.907	2114.36
705.096	2052.92
705.284	2024.25
705.472	2167.6
705.661	2177.84
705.849	2007.86
706.037	2038.58
706.226	2124.6
706.414	2110.26
706.602	2020.15
706.79	2171.7
706.979	2038.58
707.167	1979.19
707.355	1971
707.543	2138.93
707.731	2048.82
707.919	2085.69
708.107	2044.73
708.296	2097.97
708.484	1946.42
708.672	2046.77
708.86	1997.62
709.048	1923.9
709.236	2097.97
709.424	2007.86
709.612	2106.17
709.8	1960.76
709.988	1987.38
710.176	2087.73
710.364	2143.03
710.551	2044.73
710.739	2001.72
710.927	1954.62
711.115	2061.11
711.303	2128.69
711.491	1938.23
711.679	1983.29
711.866	2085.69
712.054	1942.33
712.242	1946.42
712.43	2036.53
712.617	1987.38
712.805	1995.57
712.993	2028.34
713.181	2061.11
713.368	2011.96
713.556	1999.67
713.744	2057.01
713.931	1962.81
714.119	1975.1
714.306	1981.24
714.494	1966.9
714.682	2044.73
714.869	2020.15
715.057	1971
715.244	1938.23
715.432	2114.36
715.619	2014.01
715.807	1995.57
715.994	2016.05
716.182	1932.09
716.369	1956.66
716.556	1981.24
716.744	1971
716.931	1954.62
717.119	2095.93
717.306	1985.34
717.493	1979.19
717.681	1989.43
717.868	2011.96
718.055	2100.02
718.242	2071.35
718.43	2036.53
718.617	1975.1
718.804	1930.04
718.991	1962.81
719.179	2016.05
719.366	2003.77
719.553	1927.99
719.74	1934.14
719.927	1958.71
720.114	1973.05
720.301	1971
720.488	2036.53
720.676	1999.67
720.863	1973.05
721.05	2075.45
721.237	2007.86
721.424	2028.34
721.611	1934.14
721.798	2067.25
721.985	1962.81
722.172	1954.62
722.358	1905.46
722.545	1997.62
722.732	1999.67
722.919	1903.42
723.106	1962.81
723.293	2048.82
723.48	1954.62
723.667	2061.11
723.853	1991.48
724.04	2112.31
724.227	2089.78
724.414	2110.26
724.6	1956.66
724.787	1995.57
724.974	2014.01
725.161	1962.81
725.347	1852.22
725.534	1903.42
725.72	1942.33
725.907	1938.23
726.094	1997.62
726.28	1895.22
726.467	1946.42
726.653	1979.19
726.84	2030.39
727.027	2024.25
727.213	1831.74
727.4	1946.42
727.586	1958.71
727.773	1934.14
727.959	1997.62
728.145	2032.44
728.332	1991.48
728.518	1964.86
728.705	1975.1
728.891	1958.71
729.077	1958.71
729.264	2046.77
729.45	1989.43
729.636	1983.29
729.823	1968.95
730.009	1927.99
730.195	1997.62
730.382	2020.15
730.568	1913.66
730.754	1913.66
730.94	1911.61
731.126	1979.19
731.313	1971
731.499	1966.9
731.685	1960.76
731.871	1940.28
732.057	2018.1
732.243	1930.04
732.429	1872.7
732.615	1919.8
732.801	2001.72
732.987	1921.85
733.173	1938.23
733.359	1995.57
733.545	1921.85
733.731	1958.71
733.917	1995.57
734.103	1987.38
734.289	1874.74
734.475	1876.79
734.661	1909.56
734.847	1948.47
735.033	1880.89
735.219	2003.77
735.404	1930.04
735.59	1884.98
735.776	1983.29
735.962	1971
736.148	1909.56
736.333	1942.33
736.519	1909.56
736.705	1844.03
736.89	1825.59
737.076	1813.31
737.262	1786.68
737.447	1741.63
737.633	1934.14
737.819	1856.31
738.004	1770.3
738.19	1839.93
738.375	1780.54
738.561	1872.7
738.747	1907.51
738.932	1801.02
739.118	1915.7
739.303	1798.97
739.489	1880.89
739.674	1887.03
739.859	1784.63
740.045	1786.68
740.23	1887.03
740.416	1735.48
740.601	1770.3
740.786	1893.18
740.972	1807.16
741.157	1858.36
741.342	1841.98
741.528	1774.39
741.713	1846.07
741.898	1700.67
742.084	1866.55
742.269	1741.63
742.454	1737.53
742.639	1811.26
742.824	1651.52
743.01	1708.86
743.195	1774.39
743.38	1680.19
743.565	1710.91
743.75	1696.57
743.935	1762.11
744.12	1737.53
744.305	1721.15
744.49	1633.08
744.675	1678.14
744.86	1665.85
745.045	1647.42
745.23	1657.66
745.415	1669.95
745.6	1585.98
745.785	1610.56
745.97	1596.22
746.155	1680.19
746.34	1497.92
746.525	1534.78
746.71	1585.98
746.895	1569.6
747.079	1616.7
747.264	1520.45
747.449	1628.99
747.634	1479.49
747.819	1536.83
748.003	1426.24
748.188	1479.49
748.373	1520.45
748.557	1495.87
748.742	1495.87
748.927	1438.53
749.111	1446.72
749.296	1522.49
749.481	1418.05
749.665	1430.34
749.85	1479.49
750.034	1430.34
750.219	1448.77
750.404	1348.42
750.588	1450.82
750.773	1284.93
750.957	1364.8
751.141	1379.14
751.326	1403.71
751.51	1393.47
751.695	1317.7
751.879	1340.22
752.064	1506.11
752.248	1375.04
752.432	1346.37
752.617	1356.61
752.801	1385.28
752.985	1299.27
753.17	1276.74
753.354	1307.46
753.538	1254.21
753.722	1293.12
753.907	1186.63
754.091	1217.35
754.275	1311.55
754.459	1196.87
754.643	1235.78
754.828	1145.67
755.012	1186.63
755.196	1196.87
755.38	1135.43
755.564	1160
755.748	1119.04
755.932	1143.62
756.116	1190.72
756.3	1123.14
756.484	1131.33
756.668	1147.72
756.852	1162.05
757.036	1143.62
757.22	1043.27
757.404	1030.98
757.588	1108.8
757.772	1045.32
757.956	1055.56
758.14	1123.14
758.323	1078.08
758.507	1096.52
758.691	1094.47
758.875	1110.85
759.059	1121.09
759.242	1037.13
759.426	930.63
759.61	1049.41
759.794	1014.6
759.977	955.21
760.161	1061.7
760.345	951.11
760.528	965.45
760.712	1022.79
760.895	967.49
761.079	987.97
761.263	951.11
761.446	930.63
761.63	963.4
761.813	1065.8
761.997	807.75
762.18	979.78
762.364	918.34
762.547	840.52
762.731	973.64
762.914	932.68
763.098	873.29
763.281	924.49
763.464	942.92
763.648	826.18
763.831	957.25
764.015	930.63
764.198	904.01
764.381	744.27
764.564	858.95
764.748	807.75
764.931	891.72
765.114	922.44
765.297	897.86
765.481	717.64
765.664	848.71
765.847	824.14
766.03	873.29
766.213	897.86
766.397	885.58
766.58	883.53
766.763	754.51
766.946	795.47
767.129	799.56
767.312	746.31
767.495	820.04
767.678	848.71
767.861	883.53
768.044	858.95
768.227	779.08
768.41	729.93
768.593	881.48
768.776	774.99
768.959	817.99
769.142	842.57
769.324	785.23
769.507	787.27
769.69	820.04
769.873	791.37
770.056	840.52
770.239	719.69
770.421	768.84
770.604	758.6
770.787	785.23
770.97	725.83
771.152	783.18
771.335	865.1
771.518	820.04
771.7	807.75
771.883	766.79
772.066	744.27
772.248	619.34
772.431	785.23
772.613	729.93
772.796	662.35
772.978	723.79
773.161	668.49
773.343	768.84
773.526	656.2
773.708	582.48
773.891	709.45
774.073	738.12
774.256	660.3
774.438	705.35
774.621	672.59
774.803	725.83
774.985	627.53
775.168	713.55
775.35	553.8
775.532	656.2
775.715	668.49
775.897	734.03
776.079	734.03
776.261	676.68
776.444	693.07
776.626	572.24
776.808	660.3
776.99	648.01
777.173	672.59
777.355	627.53
777.537	611.15
777.719	582.48
777.901	502.61
778.083	580.43
778.265	545.61
778.447	621.39
778.629	602.96
778.811	578.38
778.993	570.19
779.175	508.75
779.357	508.75
779.539	580.43
779.721	529.23
779.903	549.71
780.085	570.19
780.267	578.38
780.449	574.28
780.631	482.13
780.812	533.33
780.994	531.28
781.176	582.48
781.358	496.46
781.54	482.13
781.721	541.52
781.903	547.66
782.085	486.22
782.267	557.9
782.448	435.02
782.63	482.13
782.812	488.27
782.993	500.56
783.175	439.12
783.357	426.83
783.538	463.69
783.72	439.12
783.901	482.13
784.083	502.61
784.264	389.97
784.446	340.82
784.627	416.59
784.809	510.8
784.99	504.65
785.172	375.63
785.353	406.35
785.535	471.89
785.716	400.21
785.897	412.5
786.079	414.54
786.26	463.69
786.441	439.12
786.623	338.77
786.804	439.12
786.985	398.16
787.167	402.26
787.348	426.83
787.529	398.16
787.71	375.63
787.891	430.93
788.073	324.43
788.254	344.91
788.435	293.71
788.616	344.91
788.797	318.29
788.978	353.1
789.159	303.95
789.34	316.24
789.522	295.76
789.703	322.38
789.884	332.62
790.065	318.29
790.246	260.95
790.427	406.35
790.607	420.69
790.788	277.33
790.969	340.82
791.15	260.95
791.331	230.23
791.512	351.06
791.693	326.48
791.874	336.72
792.054	332.62
792.235	379.73
792.416	277.33
792.597	269.14
792.778	234.32
792.958	303.95
793.139	277.33
793.32	316.24
793.5	275.28
793.681	267.09
793.862	346.96
794.042	271.19
794.223	219.99
794.404	365.39
794.584	267.09
794.765	283.47
794.945	310.1
795.126	383.82
795.306	246.61
795.487	267.09
795.667	256.85
795.848	287.57
796.028	244.56
796.209	301.9
796.389	312.14
796.57	306
796.75	185.17
796.93	160.59
797.111	267.09
797.291	287.57
797.471	289.62
797.652	222.03
797.832	234.32
798.012	267.09
798.192	191.31
798.373	199.51
798.553	252.75
798.733	209.75
798.913	283.47
799.093	201.55
799.274	195.41
799.454	258.9
799.634	203.6
799.814	287.57
799.994	252.75
800.174	283.47
800.354	238.42
800.534	267.09
800.714	236.37
800.894	226.13
801.074	146.26
801.254	197.46
801.434	256.85
801.614	310.1
801.794	246.61
801.974	836.42
802.154	189.27
802.334	230.23
802.514	232.27
802.693	275.28
802.873	195.41
803.053	185.17
803.233	203.6
803.413	242.51
803.592	205.65
803.772	203.6
803.952	195.41
804.131	129.88
804.311	191.31
804.491	217.94
804.67	176.98
804.85	222.03
805.03	226.13
805.209	176.98
805.389	109.4
805.568	176.98
805.748	187.22
805.928	179.03
806.107	209.75
806.287	144.21
806.466	176.98
806.646	154.45
806.825	181.07
807.004	146.26
807.184	127.83
807.363	230.23
807.543	172.88
807.722	195.41
807.901	193.36
808.081	176.98
808.26	88.92
808.439	127.83
808.619	193.36
808.798	209.75
808.977	148.31
809.156	162.64
809.336	193.36
809.515	156.5
809.694	187.22
809.873	150.36
810.052	189.27
810.231	195.41
810.411	219.99
810.59	189.27
810.769	107.35
810.948	103.25
811.127	160.59
811.306	156.5
811.485	152.4
811.664	226.13
811.843	185.17
812.022	170.83
812.201	144.21
812.38	146.26
812.559	119.64
812.737	172.88
812.916	93.01
813.095	154.45
813.274	144.21
813.453	160.59
813.632	125.78
813.811	156.5
813.989	168.79
814.168	138.07
814.347	181.07
814.526	189.27
814.704	133.97
814.883	185.17
815.062	150.36
815.24	238.42
815.419	119.64
815.598	115.54
815.776	117.59
815.955	148.31
816.133	103.25
816.312	168.79
816.49	101.2
816.669	127.83
816.847	125.78
817.026	160.59
817.204	103.25
817.383	138.07
817.561	105.3
817.74	158.55
817.918	119.64
818.097	62.29
818.275	125.78
818.453	95.06
818.632	162.64
818.81	136.02
818.988	62.29
819.167	82.77
819.345	189.27
819.523	154.45
819.701	138.07
819.879	219.99
820.058	90.96
820.236	54.1
820.414	86.87
820.592	172.88
820.77	62.29
820.948	70.48
821.127	86.87
821.305	148.31
821.483	105.3
821.661	144.21
821.839	93.01
822.017	123.73
822.195	164.69
822.373	160.59
822.551	172.88
822.729	176.98
822.907	140.12
823.085	80.72
823.262	160.59
823.44	144.21
823.618	136.02
823.796	82.77
823.974	103.25
824.152	66.39
824.329	88.92
824.507	74.58
824.685	74.58
824.863	33.62
825.04	160.59
825.218	113.49
825.396	127.83
825.574	84.82
825.751	95.06
825.929	70.48
826.107	95.06
826.284	111.44
826.462	156.5
826.639	123.73
826.817	47.96
826.994	45.91
827.172	105.3
827.349	162.64
827.527	74.58
827.704	138.07
827.882	127.83
828.059	113.49
828.237	97.11
828.414	115.54
828.591	144.21
828.769	111.44
828.946	144.21
829.124	86.87
829.301	97.11
829.478	-1.19
829.655	37.72
829.833	74.58
830.01	47.96
830.187	64.34
830.364	88.92
830.542	58.2
830.719	95.06
830.896	140.12
831.073	123.73
831.25	45.91
831.427	82.77
831.604	54.1
831.782	105.3
831.959	168.79
832.136	9.05
832.313	82.77
832.49	111.44
832.667	64.34
832.844	86.87
833.021	119.64
833.198	74.58
833.374	95.06
833.551	82.77
833.728	60.24
833.905	37.72
834.082	-27.82
834.259	119.64
834.436	72.53
834.612	17.24
834.789	97.11
834.966	90.96
835.143	72.53
835.319	129.88
835.496	86.87
835.673	56.15
835.85	115.54
836.026	107.35
836.203	105.3
836.38	99.16
836.556	37.72
836.733	33.62
836.909	123.73
837.086	99.16
837.262	45.91
837.439	25.43
837.616	37.72
837.792	58.2
837.968	68.44
838.145	54.1
838.321	95.06
838.498	82.77
838.674	86.87
838.851	60.24
839.027	45.91
839.203	41.81
839.38	76.63
839.556	13.14
839.732	86.87
839.909	95.06
840.085	72.53
840.261	13.14
840.437	119.64
840.614	93.01
840.79	95.06
840.966	62.29
841.142	7
841.318	27.48
841.494	21.33
841.671	136.02
841.847	45.91
842.023	41.81
842.199	45.91
842.375	129.88
842.551	-7.34
842.727	95.06
842.903	64.34
843.079	62.29
843.255	86.87
843.431	52.05
843.607	17.24
843.783	21.33
843.959	144.21
844.134	82.77
844.31	90.96
844.486	66.39
844.662	13.14
844.838	-36.01
845.013	78.68
845.189	86.87
845.365	105.3
845.541	39.76
845.716	99.16
845.892	88.92
846.068	-68.78
846.244	-19.63
846.419	47.96
846.595	64.34
846.77	21.33
846.946	35.67
847.122	17.24
847.297	-5.29
847.473	74.58
847.648	-9.39
847.824	50
847.999	17.24
848.175	19.29
848.35	21.33
848.526	54.1
848.701	148.31
848.876	82.77
849.052	99.16
849.227	4.95
849.403	50
849.578	78.68
849.753	43.86
849.929	86.87
850.104	-11.43
850.279	50
850.454	70.48
850.63	45.91
850.805	-7.34
850.98	47.96
851.155	9.05
851.33	47.96
851.505	23.38
851.681	125.78
851.856	17.24
852.031	70.48
852.206	50
852.381	95.06
852.556	-15.53
852.731	15.19
852.906	33.62
853.081	111.44
853.256	99.16
853.431	70.48
853.606	-15.53
853.781	41.81
853.956	29.52
854.131	68.44
854.305	17.24
854.48	52.05
854.655	13.14
854.83	97.11
855.005	29.52
855.18	103.25
855.354	25.43
855.529	68.44
855.704	70.48
855.879	70.48
856.053	9.05
856.228	52.05
856.403	86.87
856.577	35.67
856.752	31.57
856.926	4.95
857.101	97.11
857.276	64.34
857.45	13.14
857.625	2.9
857.799	-33.96
857.974	-31.91
858.148	-5.29
858.323	-23.72
858.497	78.68
858.672	-15.53
858.846	9.05
859.02	52.05
859.195	31.57
859.369	15.19
859.543	54.1
859.718	25.43
859.892	21.33
860.066	58.2
860.241	39.76
860.415	21.33
860.589	54.1
860.763	-19.63
860.938	72.53
861.112	-33.96
861.286	17.24
861.46	80.72
861.634	29.52
861.808	68.44
861.982	17.24
862.157	19.29
862.331	62.29
862.505	-36.01
862.679	13.14
862.853	45.91
863.027	45.91
863.201	78.68
863.375	23.38
863.549	15.19
863.722	-60.59
863.896	62.29
864.07	15.19
864.244	62.29
864.418	107.35
864.592	33.62
864.766	78.68
864.939	13.14
865.113	27.48
865.287	45.91
865.461	21.33
865.634	41.81
865.808	-19.63
865.982	29.52
866.156	-15.53
866.329	-33.96
866.503	-11.43
866.676	54.1
866.85	37.72
867.024	-42.15
867.197	25.43
867.371	62.29
867.544	54.1
867.718	0.85
867.891	64.34
868.065	9.05
868.238	-23.72
868.412	70.48
868.585	33.62
868.759	-17.58
868.932	-44.2
869.105	29.52
869.279	45.91
869.452	103.25
869.625	-42.15
869.799	54.1
869.972	-36.01
870.145	29.52
870.319	47.96
870.492	-31.91
870.665	58.2
870.838	45.91
871.011	21.33
871.185	21.33
871.358	7
871.531	29.52
871.704	-33.96
871.877	54.1
872.05	11.09
872.223	-25.77
872.396	45.91
872.569	0.85
872.742	4.95
872.915	-7.34
873.088	56.15
873.261	45.91
873.434	119.64
873.607	-33.96
873.78	109.4
873.953	4.95
874.126	47.96
874.299	58.2
874.471	-3.24
874.644	78.68
874.817	66.39
874.99	99.16
875.163	66.39
875.335	99.16
875.508	54.1
875.681	41.81
875.853	4.95
876.026	31.57
876.199	64.34
876.371	62.29
876.544	23.38
876.717	78.68
876.889	-11.43
877.062	54.1
877.234	-7.34
877.407	-3.24
877.579	23.38
877.752	31.57
877.924	29.52
878.097	99.16
878.269	7
878.442	56.15
878.614	72.53
878.786	47.96
878.959	33.62
879.131	68.44
879.303	58.2
879.476	64.34
879.648	111.44
879.82	58.2
879.993	39.76
880.165	90.96
880.337	-50.35
880.509	39.76
880.681	-11.43
880.854	13.14
881.026	111.44
881.198	47.96
881.37	9.05
881.542	-3.24
881.714	37.72
881.886	41.81
882.058	66.39
882.23	19.29
882.402	19.29
882.574	-23.72
882.746	9.05
882.918	50
883.09	7
883.262	9.05
883.434	7
883.606	13.14
883.778	11.09
883.95	115.54
884.122	70.48
884.293	119.64
884.465	29.52
884.637	45.91
884.809	-52.39
884.98	82.77
885.152	21.33
885.324	50
885.496	15.19
885.667	-3.24
885.839	4.95
886.011	62.29
886.182	-1.19
886.354	62.29
886.525	21.33
886.697	37.72
886.869	-50.35
887.04	-17.58
887.212	74.58
887.383	88.92
887.555	25.43
887.726	39.76
887.897	45.91
888.069	19.29
888.24	-48.3
888.412	-3.24
888.583	-17.58
888.754	-33.96
888.926	-11.43
889.097	-1.19
889.268	-3.24
889.44	39.76
889.611	-1.19
889.782	-19.63
889.953	-11.43
890.125	80.72
890.296	39.76
890.467	64.34
890.638	37.72
890.809	86.87
890.98	-1.19
891.151	74.58
891.323	86.87
891.494	25.43
891.665	-7.34
891.836	15.19
892.007	-62.63
892.178	80.72
892.349	37.72
892.52	0.85
892.691	47.96
892.862	62.29
893.032	15.19
893.203	31.57
893.374	39.76
893.545	80.72
893.716	-15.53
893.887	25.43
894.057	17.24
894.228	13.14
894.399	-42.15
894.57	66.39
894.74	0.85
894.911	95.06
895.082	39.76
895.253	47.96
895.423	7
895.594	-15.53
895.764	64.34
895.935	41.81
896.106	23.38
896.276	66.39
896.447	-23.72
896.617	45.91
896.788	-38.06
896.958	-15.53
897.129	29.52
897.299	-42.15
897.47	21.33
897.64	27.48
897.81	62.29
897.981	103.25
898.151	4.95
898.322	37.72
898.492	25.43
898.662	11.09
898.832	-5.29
899.003	7
899.173	-52.39
899.343	-44.2
899.513	-11.43
