Data from USB4F104151__51__14-43-06-341.txt Node

Date: Thu Mar 13 14:43:06 EDT 2025
User: louis
Spectrometer: USB4F10415
Trigger mode: 4
Integration Time (sec): 2.000000E-2
Scans to average: 1
Electric dark correction enabled: true
Nonlinearity correction enabled: false
Boxcar width: 0
XAxis mode: Wavelengths
Number of Pixels in Spectrum: 3648
>>>>>Begin Spectral Data<<<<<
178.204	-107.35
178.424	-107.35
178.644	-107.35
178.864	-54.1
179.084	-144.21
179.304	-41.81
179.524	31.91
179.744	23.72
179.964	42.15
180.184	3.24
180.404	-11.09
180.624	44.2
180.844	-39.76
181.064	-9.05
181.283	-54.1
181.503	9.39
181.723	1.19
181.943	-58.2
182.163	68.78
182.383	9.39
182.602	66.73
182.822	54.44
183.042	15.53
183.262	48.3
183.482	23.72
183.701	89.26
183.921	23.72
184.141	-9.05
184.361	66.73
184.58	17.58
184.8	-17.24
185.02	-25.43
185.239	162.98
185.459	36.01
185.679	-0.85
185.898	27.82
186.118	70.83
186.338	93.35
186.557	-15.19
186.777	72.87
186.997	66.73
187.216	54.44
187.436	113.83
187.655	76.97
187.875	64.68
188.095	25.77
188.314	52.39
188.534	89.26
188.753	36.01
188.973	11.43
189.192	72.87
189.412	74.92
189.631	5.29
189.851	36.01
190.07	89.26
190.29	29.87
190.509	-33.62
190.729	44.2
190.948	91.31
191.168	83.11
191.387	68.78
191.607	13.48
191.826	-0.85
192.045	48.3
192.265	38.06
192.484	99.5
192.704	-33.62
192.923	13.48
193.142	148.65
193.362	68.78
193.581	56.49
193.8	36.01
194.02	56.49
194.239	15.53
194.458	64.68
194.678	3.24
194.897	3.24
195.116	113.83
195.335	11.43
195.555	42.15
195.774	-7
195.993	40.11
196.212	105.64
196.432	48.3
196.651	23.72
196.87	15.53
197.089	93.35
197.308	81.07
197.528	74.92
197.747	105.64
197.966	-15.19
198.185	7.34
198.404	60.59
198.623	36.01
198.842	40.11
199.062	11.43
199.281	13.48
199.5	109.74
199.719	89.26
199.938	91.31
200.157	74.92
200.376	50.35
200.595	85.16
200.814	-39.76
201.033	-25.43
201.252	66.73
201.471	50.35
201.69	62.63
201.909	56.49
202.128	72.87
202.347	99.5
202.566	85.16
202.785	56.49
203.004	48.3
203.223	85.16
203.442	60.59
203.661	89.26
203.879	-4.95
204.098	99.5
204.317	-17.24
204.536	56.49
204.755	29.87
204.974	64.68
205.193	27.82
205.411	107.69
205.63	64.68
205.849	13.48
206.068	-15.19
206.287	81.07
206.505	48.3
206.724	70.83
206.943	-21.33
207.162	58.54
207.381	-19.29
207.599	48.3
207.818	40.11
208.037	-9.05
208.255	48.3
208.474	50.35
208.693	128.17
208.911	50.35
209.13	-0.85
209.349	162.98
209.567	21.67
209.786	66.73
210.005	40.11
210.223	44.2
210.442	-37.72
210.661	-21.33
210.879	60.59
211.098	48.3
211.316	144.55
211.535	56.49
211.753	-13.14
211.972	33.96
212.191	15.53
212.409	115.88
212.628	105.64
212.846	27.82
213.065	44.2
213.283	101.55
213.502	-15.19
213.72	64.68
213.938	83.11
214.157	44.2
214.375	50.35
214.594	-21.33
214.812	66.73
215.031	23.72
215.249	33.96
215.467	107.69
215.686	85.16
215.904	52.39
216.122	11.43
216.341	56.49
216.559	122.02
216.778	81.07
216.996	56.49
217.214	81.07
217.432	56.49
217.651	66.73
217.869	-7
218.087	17.58
218.306	15.53
218.524	36.01
218.742	23.72
218.96	19.63
219.179	-29.52
219.397	29.87
219.615	97.45
219.833	64.68
220.051	1.19
220.27	122.02
220.488	74.92
220.706	15.53
220.924	87.21
221.142	40.11
221.36	19.63
221.578	64.68
221.796	19.63
222.015	74.92
222.233	91.31
222.451	122.02
222.669	11.43
222.887	76.97
223.105	-23.38
223.323	105.64
223.541	-0.85
223.759	9.39
223.977	52.39
224.195	97.45
224.413	36.01
224.631	52.39
224.849	19.63
225.067	66.73
225.285	46.25
225.503	64.68
225.721	-33.62
225.939	99.5
226.157	40.11
226.375	97.45
226.592	-21.33
226.81	107.69
227.028	40.11
227.246	89.26
227.464	31.91
227.682	97.45
227.9	64.68
228.117	36.01
228.335	107.69
228.553	-31.57
228.771	42.15
228.989	52.39
229.206	42.15
229.424	40.11
229.642	42.15
229.86	56.49
230.077	85.16
230.295	-0.85
230.513	-0.85
230.731	103.59
230.948	44.2
231.166	97.45
231.384	72.87
231.601	-25.43
231.819	46.25
232.037	56.49
232.254	66.73
232.472	-11.09
232.689	-50
232.907	-0.85
233.125	1.19
233.342	-0.85
233.56	44.2
233.777	44.2
233.995	-0.85
234.213	109.74
234.43	40.11
234.648	44.2
234.865	97.45
235.083	33.96
235.3	7.34
235.518	60.59
235.735	93.35
235.953	72.87
236.17	113.83
236.388	56.49
236.605	33.96
236.822	89.26
237.04	68.78
237.257	-0.85
237.475	-11.09
237.692	154.79
237.909	113.83
238.127	25.77
238.344	56.49
238.562	-7
238.779	7.34
238.996	-15.19
239.214	19.63
239.431	42.15
239.648	79.02
239.865	44.2
240.083	60.59
240.3	83.11
240.517	-9.05
240.735	52.39
240.952	64.68
241.169	50.35
241.386	31.91
241.603	15.53
241.821	126.12
242.038	60.59
242.255	9.39
242.472	52.39
242.689	-33.62
242.907	48.3
243.124	36.01
243.341	40.11
243.558	9.39
243.775	-4.95
243.992	-33.62
244.209	48.3
244.426	179.37
244.643	93.35
244.86	52.39
245.078	68.78
245.295	97.45
245.512	83.11
245.729	64.68
245.946	105.64
246.163	-33.62
246.38	64.68
246.597	17.58
246.814	11.43
247.031	54.44
247.248	11.43
247.464	33.96
247.681	-23.38
247.898	25.77
248.115	81.07
248.332	66.73
248.549	52.39
248.766	95.4
248.983	130.22
249.2	83.11
249.417	76.97
249.633	74.92
249.85	40.11
250.067	38.06
250.284	68.78
250.501	122.02
250.717	83.11
250.934	56.49
251.151	101.55
251.368	7.34
251.585	72.87
251.801	50.35
252.018	66.73
252.235	115.88
252.451	13.48
252.668	42.15
252.885	154.79
253.102	74.92
253.318	48.3
253.535	31.91
253.752	5.29
253.968	23.72
254.185	33.96
254.401	15.53
254.618	95.4
254.835	25.77
255.051	126.12
255.268	38.06
255.484	76.97
255.701	64.68
255.917	87.21
256.134	-39.76
256.351	-2.9
256.567	21.67
256.784	-9.05
257	-35.67
257.217	27.82
257.433	11.43
257.65	93.35
257.866	-7
258.082	23.72
258.299	15.53
258.515	115.88
258.732	40.11
258.948	36.01
259.165	91.31
259.381	27.82
259.597	76.97
259.814	72.87
260.03	79.02
260.246	62.63
260.463	58.54
260.679	117.93
260.895	44.2
261.112	44.2
261.328	40.11
261.544	-0.85
261.761	101.55
261.977	25.77
262.193	31.91
262.409	142.5
262.626	17.58
262.842	72.87
263.058	44.2
263.274	103.59
263.49	33.96
263.707	122.02
263.923	68.78
264.139	-17.24
264.355	17.58
264.571	89.26
264.787	99.5
265.004	42.15
265.22	93.35
265.436	23.72
265.652	-19.29
265.868	29.87
266.084	11.43
266.3	81.07
266.516	36.01
266.732	74.92
266.948	60.59
267.164	7.34
267.38	85.16
267.596	72.87
267.812	62.63
268.028	72.87
268.244	-41.81
268.46	81.07
268.676	68.78
268.892	48.3
269.108	-15.19
269.324	-45.91
269.54	52.39
269.756	89.26
269.972	-25.43
270.188	19.63
270.403	19.63
270.619	17.58
270.835	36.01
271.051	56.49
271.267	60.59
271.483	-41.81
271.698	83.11
271.914	64.68
272.13	83.11
272.346	58.54
272.562	58.54
272.777	50.35
272.993	56.49
273.209	9.39
273.425	-9.05
273.64	64.68
273.856	44.2
274.072	60.59
274.287	25.77
274.503	15.53
274.719	23.72
274.934	56.49
275.15	38.06
275.366	31.91
275.581	54.44
275.797	19.63
276.012	-103.25
276.228	124.07
276.444	56.49
276.659	40.11
276.875	17.58
277.09	56.49
277.306	64.68
277.521	15.53
277.737	72.87
277.952	68.78
278.168	25.77
278.383	27.82
278.599	50.35
278.814	46.25
279.03	122.02
279.245	117.93
279.461	48.3
279.676	138.41
279.892	29.87
280.107	9.39
280.322	-11.09
280.538	74.92
280.753	-25.43
280.969	181.42
281.184	95.4
281.399	15.53
281.615	42.15
281.83	31.91
282.045	7.34
282.26	3.24
282.476	70.83
282.691	25.77
282.906	126.12
283.122	46.25
283.337	9.39
283.552	44.2
283.767	74.92
283.983	60.59
284.198	31.91
284.413	-23.38
284.628	36.01
284.843	68.78
285.058	13.48
285.274	81.07
285.489	7.34
285.704	56.49
285.919	7.34
286.134	-13.14
286.349	-17.24
286.564	72.87
286.779	154.79
286.995	62.63
287.21	7.34
287.425	31.91
287.64	64.68
287.855	72.87
288.07	33.96
288.285	105.64
288.5	91.31
288.715	89.26
288.93	19.63
289.145	81.07
289.36	19.63
289.575	50.35
289.79	48.3
290.004	-0.85
290.219	79.02
290.434	1.19
290.649	70.83
290.864	-9.05
291.079	-76.63
291.294	40.11
291.509	56.49
291.724	72.87
291.938	44.2
292.153	64.68
292.368	48.3
292.583	-25.43
292.798	146.6
293.012	117.93
293.227	48.3
293.442	-25.43
293.657	54.44
293.871	89.26
294.086	33.96
294.301	40.11
294.516	27.82
294.73	48.3
294.945	-0.85
295.16	38.06
295.374	56.49
295.589	23.72
295.804	21.67
296.018	66.73
296.233	113.83
296.447	27.82
296.662	36.01
296.877	33.96
297.091	74.92
297.306	64.68
297.52	38.06
297.735	31.91
297.949	17.58
298.164	33.96
298.378	56.49
298.593	-0.85
298.807	-84.82
299.022	52.39
299.236	11.43
299.451	89.26
299.665	72.87
299.88	66.73
300.094	5.29
300.309	81.07
300.523	44.2
300.737	52.39
300.952	64.68
301.166	54.44
301.381	-9.05
301.595	31.91
301.809	76.97
302.024	-15.19
302.238	52.39
302.452	27.82
302.667	7.34
302.881	64.68
303.095	60.59
303.309	107.69
303.524	40.11
303.738	74.92
303.952	56.49
304.166	105.64
304.381	19.63
304.595	138.41
304.809	52.39
305.023	44.2
305.237	19.63
305.452	72.87
305.666	23.72
305.88	42.15
306.094	66.73
306.308	138.41
306.522	72.87
306.736	68.78
306.95	19.63
307.164	89.26
307.379	70.83
307.593	76.97
307.807	60.59
308.021	99.5
308.235	25.77
308.449	27.82
308.663	83.11
308.877	87.21
309.091	56.49
309.305	52.39
309.519	-31.57
309.733	83.11
309.947	-23.38
310.161	70.83
310.374	52.39
310.588	68.78
310.802	52.39
311.016	-4.95
311.23	9.39
311.444	-17.24
311.658	17.58
311.872	81.07
312.085	101.55
312.299	58.54
312.513	56.49
312.727	95.4
312.941	56.49
313.154	66.73
313.368	-39.76
313.582	1.19
313.796	15.53
314.009	138.41
314.223	136.36
314.437	31.91
314.651	25.77
314.864	48.3
315.078	40.11
315.292	44.2
315.505	21.67
315.719	76.97
315.933	-25.43
316.146	113.83
316.36	11.43
316.573	58.54
316.787	81.07
317.001	11.43
317.214	31.91
317.428	64.68
317.641	44.2
317.855	109.74
318.068	50.35
318.282	25.77
318.495	99.5
318.709	89.26
318.922	36.01
319.136	56.49
319.349	23.72
319.563	103.59
319.776	56.49
319.99	31.91
320.203	48.3
320.417	126.12
320.63	31.91
320.843	83.11
321.057	25.77
321.27	19.63
321.483	40.11
321.697	83.11
321.91	113.83
322.124	48.3
322.337	68.78
322.55	132.26
322.763	91.31
322.977	-33.62
323.19	31.91
323.403	72.87
323.617	40.11
323.83	64.68
324.043	-7
324.256	52.39
324.469	-33.62
324.683	144.55
324.896	58.54
325.109	3.24
325.322	48.3
325.535	68.78
325.748	31.91
325.962	23.72
326.175	23.72
326.388	-4.95
326.601	79.02
326.814	83.11
327.027	29.87
327.24	83.11
327.453	-4.95
327.666	83.11
327.879	27.82
328.092	64.68
328.305	99.5
328.518	-17.24
328.731	81.07
328.944	23.72
329.157	33.96
329.37	89.26
329.583	50.35
329.796	89.26
330.009	15.53
330.222	23.72
330.435	25.77
330.648	89.26
330.861	54.44
331.073	105.64
331.286	165.03
331.499	60.59
331.712	17.58
331.925	79.02
332.138	62.63
332.35	72.87
332.563	15.53
332.776	105.64
332.989	66.73
333.202	64.68
333.414	81.07
333.627	52.39
333.84	76.97
334.053	138.41
334.265	64.68
334.478	58.54
334.691	-9.05
334.903	7.34
335.116	-0.85
335.329	-23.38
335.541	-39.76
335.754	113.83
335.966	27.82
336.179	122.02
336.392	42.15
336.604	48.3
336.817	93.35
337.029	76.97
337.242	38.06
337.454	81.07
337.667	-9.05
337.88	36.01
338.092	19.63
338.305	113.83
338.517	89.26
338.729	64.68
338.942	89.26
339.154	56.49
339.367	5.29
339.579	130.22
339.792	9.39
340.004	-0.85
340.217	13.48
340.429	9.39
340.641	-23.38
340.854	40.11
341.066	31.91
341.278	15.53
341.491	54.44
341.703	62.63
341.915	36.01
342.128	70.83
342.34	91.31
342.552	23.72
342.764	25.77
342.977	83.11
343.189	79.02
343.401	70.83
343.613	-7
343.826	-9.05
344.038	58.54
344.25	101.55
344.462	-4.95
344.674	44.2
344.886	31.91
345.099	58.54
345.311	74.92
345.523	70.83
345.735	64.68
345.947	138.41
346.159	-25.43
346.371	85.16
346.583	44.2
346.795	132.26
347.007	74.92
347.219	19.63
347.431	36.01
347.643	138.41
347.855	-23.38
348.067	38.06
348.279	-25.43
348.491	83.11
348.703	89.26
348.915	58.54
349.127	40.11
349.339	99.5
349.551	31.91
349.763	109.74
349.975	19.63
350.187	72.87
350.399	27.82
350.61	64.68
350.822	81.07
351.034	50.35
351.246	27.82
351.458	-7
351.669	117.93
351.881	81.07
352.093	89.26
352.305	115.88
352.517	117.93
352.728	40.11
352.94	-9.05
353.152	7.34
353.363	1.19
353.575	109.74
353.787	66.73
353.999	113.83
354.21	136.36
354.422	50.35
354.633	74.92
354.845	27.82
355.057	58.54
355.268	36.01
355.48	130.22
355.692	7.34
355.903	38.06
356.115	36.01
356.326	66.73
356.538	91.31
356.749	44.2
356.961	72.87
357.172	23.72
357.384	31.91
357.595	60.59
357.807	87.21
358.018	99.5
358.23	97.45
358.441	33.96
358.653	93.35
358.864	19.63
359.075	-23.38
359.287	72.87
359.498	107.69
359.709	117.93
359.921	31.91
360.132	81.07
360.344	58.54
360.555	64.68
360.766	130.22
360.977	81.07
361.189	154.79
361.4	31.91
361.611	50.35
361.823	154.79
362.034	64.68
362.245	66.73
362.456	138.41
362.667	-17.24
362.879	66.73
363.09	60.59
363.301	60.59
363.512	83.11
363.723	36.01
363.935	-15.19
364.146	72.87
364.357	1.19
364.568	138.41
364.779	81.07
364.99	89.26
365.201	97.45
365.412	64.68
365.623	-0.85
365.834	64.68
366.045	25.77
366.256	48.3
366.467	40.11
366.678	85.16
366.889	72.87
367.1	117.93
367.311	64.68
367.522	89.26
367.733	97.45
367.944	56.49
368.155	146.6
368.366	56.49
368.577	85.16
368.788	76.97
368.999	81.07
369.209	85.16
369.42	64.68
369.631	60.59
369.842	130.22
370.053	33.96
370.264	144.55
370.474	1.19
370.685	31.91
370.896	46.25
371.107	79.02
371.317	81.07
371.528	62.63
371.739	150.7
371.95	97.45
372.16	99.5
372.371	85.16
372.582	17.58
372.792	83.11
373.003	66.73
373.214	48.3
373.424	124.07
373.635	9.39
373.846	97.45
374.056	58.54
374.267	64.68
374.477	76.97
374.688	56.49
374.898	76.97
375.109	85.16
375.319	83.11
375.53	29.87
375.74	19.63
375.951	93.35
376.161	66.73
376.372	138.41
376.582	62.63
376.793	97.45
377.003	64.68
377.214	101.55
377.424	56.49
377.635	56.49
377.845	17.58
378.055	58.54
378.266	50.35
378.476	38.06
378.686	56.49
378.897	105.64
379.107	50.35
379.317	126.12
379.528	89.26
379.738	117.93
379.948	40.11
380.158	146.6
380.369	9.39
380.579	187.56
380.789	66.73
380.999	85.16
381.21	91.31
381.42	99.5
381.63	72.87
381.84	44.2
382.05	74.92
382.261	33.96
382.471	64.68
382.681	107.69
382.891	89.26
383.101	154.79
383.311	81.07
383.521	72.87
383.731	85.16
383.941	46.25
384.151	124.07
384.361	101.55
384.571	76.97
384.781	48.3
384.991	105.64
385.201	126.12
385.411	72.87
385.621	115.88
385.831	128.17
386.041	66.73
386.251	93.35
386.461	175.27
386.671	83.11
386.881	58.54
387.091	79.02
387.301	33.96
387.511	105.64
387.72	107.69
387.93	109.74
388.14	64.68
388.35	-9.05
388.56	31.91
388.769	101.55
388.979	99.5
389.189	66.73
389.399	58.54
389.609	93.35
389.818	113.83
390.028	46.25
390.238	15.53
390.447	126.12
390.657	156.84
390.867	83.11
391.076	89.26
391.286	1.19
391.496	89.26
391.705	-29.52
391.915	146.6
392.125	107.69
392.334	50.35
392.544	56.49
392.753	72.87
392.963	54.44
393.172	97.45
393.382	68.78
393.591	113.83
393.801	42.15
394.01	179.37
394.22	105.64
394.429	83.11
394.639	64.68
394.848	72.87
395.058	72.87
395.267	97.45
395.477	72.87
395.686	107.69
395.895	124.07
396.105	107.69
396.314	138.41
396.524	74.92
396.733	117.93
396.942	138.41
397.152	126.12
397.361	134.31
397.57	99.5
397.78	105.64
397.989	146.6
398.198	162.98
398.407	81.07
398.617	115.88
398.826	68.78
399.035	85.16
399.244	91.31
399.453	154.79
399.663	154.79
399.872	105.64
400.081	83.11
400.29	140.46
400.499	68.78
400.708	220.33
400.917	64.68
401.127	91.31
401.336	58.54
401.545	154.79
401.754	165.03
401.963	68.78
402.172	46.25
402.381	156.84
402.59	109.74
402.799	162.98
403.008	140.46
403.217	167.08
403.426	171.18
403.635	130.22
403.844	126.12
404.053	216.23
404.262	122.02
404.471	169.13
404.68	148.65
404.888	91.31
405.097	132.26
405.306	171.18
405.515	267.43
405.724	150.7
405.933	177.32
406.142	130.22
406.35	249
406.559	195.75
406.768	195.75
406.977	240.81
407.185	189.61
407.394	171.18
407.603	169.13
407.812	224.42
408.02	197.8
408.229	212.14
408.438	208.04
408.646	236.71
408.855	177.32
409.064	222.38
409.272	269.48
409.481	298.15
409.69	343.21
409.898	224.42
410.107	320.68
410.315	343.21
410.524	283.81
410.733	375.97
410.941	279.72
411.15	326.82
411.358	363.69
411.567	437.41
411.775	410.79
411.984	310.44
412.192	457.89
412.401	404.64
412.609	466.08
412.818	470.18
413.026	541.86
413.234	375.97
413.443	445.6
413.651	584.87
413.86	531.62
414.068	554.15
414.276	640.16
414.485	597.15
414.693	629.92
414.901	656.54
415.11	656.54
415.318	621.73
415.526	785.57
415.734	711.84
415.943	728.22
416.151	732.32
416.359	887.97
416.567	754.85
416.776	787.61
416.984	912.54
417.192	976.03
417.4	916.64
417.608	920.73
417.817	963.74
418.025	994.46
418.233	1148.06
418.441	982.17
418.649	1059.99
418.857	1174.68
419.065	1246.36
419.273	1236.12
419.481	1240.22
419.689	1275.03
419.897	1350.81
420.105	1539.22
420.313	1416.34
420.521	1420.44
420.729	1457.3
420.937	1481.88
421.145	1514.64
421.353	1723.54
421.561	1776.78
421.769	1756.3
421.977	1862.8
422.185	1914
422.393	2002.06
422.601	2038.92
422.809	2028.68
423.017	2137.23
423.224	2106.51
423.432	2335.88
423.64	2276.49
423.848	2555.01
424.056	2401.41
424.263	2493.57
424.471	2665.6
424.679	2612.35
424.887	2763.9
425.094	2966.65
425.302	2919.55
425.51	3013.76
425.718	3124.35
425.925	3157.11
426.133	3316.86
426.341	3542.13
426.548	3560.56
426.756	3636.34
426.964	3697.78
427.171	3890.29
427.379	3923.05
427.586	3828.85
427.794	4117.61
428.001	4398.18
428.209	4349.03
428.417	4303.98
428.624	4635.75
428.832	4670.56
429.039	4521.06
429.247	4779.11
429.454	4977.76
429.662	5295.19
429.869	5102.68
430.076	5489.75
430.284	5401.69
430.491	5471.32
430.699	5909.58
430.906	5950.54
431.114	5831.76
431.321	6196.3
431.528	6120.53
431.736	6675.52
431.943	6929.47
432.15	6581.32
432.358	6837.31
432.565	7279.68
432.772	7027.78
432.979	7507
433.187	7498.81
433.394	7668.79
433.601	8301.61
433.808	8338.48
434.016	8072.24
434.223	8440.87
434.43	8961.06
434.637	8825.89
434.844	9585.69
435.052	9583.64
435.259	9468.95
435.466	9571.35
435.673	9550.87
435.88	9970.71
436.087	10613.77
436.294	10488.84
436.501	10222.61
436.708	10566.67
436.915	10869.76
437.122	11459.58
437.329	11387.9
437.537	11699.19
437.743	11891.7
437.95	11889.65
438.157	12389.36
438.364	12792.81
438.571	12704.74
438.778	12854.25
438.985	14253.01
439.192	13507.55
439.399	14017.49
439.606	13634.52
439.813	14605.26
440.02	15293.38
440.227	15137.73
440.433	14928.84
440.64	15317.95
440.847	15367.1
441.054	15508.41
441.261	16618.41
441.467	16729
441.674	16843.69
441.881	17470.37
442.088	17564.57
442.294	17275.81
442.501	17683.36
442.708	18095
442.914	18641.81
443.121	19497.86
443.328	19170.18
443.534	20294.52
443.741	19706.75
443.948	19475.33
444.154	20761.45
444.361	21121.9
444.568	21101.42
444.774	20753.26
444.981	21021.55
445.187	21547.87
445.394	22723.41
445.6	22326.1
445.807	24214.33
446.013	23487.3
446.22	23866.17
446.426	24789.81
446.633	24879.92
446.839	25897.76
447.046	24781.62
447.252	26467.09
447.459	26217.24
447.665	26071.84
447.871	27110.16
448.078	28410.62
448.284	27325.19
448.491	28052.22
448.697	28783.35
448.903	29690.6
449.11	29852.39
449.316	29055.73
449.522	29795.04
449.728	30276.32
449.935	30526.17
450.141	30266.08
450.347	31277.77
450.553	30556.89
450.76	30671.57
450.966	31972.03
451.172	31349.45
451.378	32363.2
451.584	31623.88
451.791	32412.35
451.997	32193.22
452.203	32799.41
452.409	32848.57
452.615	32844.47
452.821	31478.47
453.027	31245.01
453.233	32559.8
453.44	31695.56
453.646	32010.95
453.852	32082.63
454.058	32942.77
454.264	31501
454.47	32522.94
454.676	31828.68
454.882	32654.01
455.088	30157.53
455.294	30051.04
455.5	30749.4
455.705	30913.23
455.911	29600.49
456.117	29405.93
456.323	29213.42
456.529	27450.12
456.735	28492.54
456.941	27982.59
457.147	27527.94
457.352	26635.03
457.558	26516.25
457.764	26569.49
457.97	26057.5
458.176	25338.66
458.381	25631.52
458.587	24054.59
458.793	24204.09
458.999	23171.91
459.204	24662.83
459.41	23913.28
459.616	22485.84
459.821	22356.82
460.027	22219.61
460.233	21568.35
460.438	20915.05
460.644	21162.86
460.85	20046.71
461.055	19633.02
461.261	19710.85
461.466	18062.23
461.672	17720.22
461.878	18668.43
462.083	17728.41
462.289	17558.43
462.494	17128.36
462.7	16442.29
462.905	15858.62
463.111	16642.99
463.316	16587.69
463.522	16278.45
463.727	16393.14
463.932	16292.79
464.138	15936.44
464.343	16260.02
464.549	15571.9
464.754	15997.88
464.959	15969.21
465.165	15866.81
465.37	15365.06
465.575	14738.38
465.781	15694.78
465.986	15469.5
466.191	15066.05
466.397	14857.16
466.602	14031.83
466.807	14377.94
467.012	14492.62
467.218	14373.84
467.423	14281.68
467.628	14056.4
467.833	14777.29
468.038	14293.97
468.244	13894.61
468.449	14273.49
468.654	14080.98
468.859	13941.72
469.064	14042.07
469.269	13460.45
469.474	13605.85
469.679	13843.42
469.885	13276.13
470.09	13321.18
470.295	13556.7
470.5	12909.54
470.705	13317.09
470.91	12786.66
471.115	12717.03
471.32	12739.56
471.525	12909.54
471.73	12725.22
471.935	12590.06
472.139	12010.48
472.344	12409.84
472.549	12053.49
472.754	11994.1
472.959	11762.68
473.164	11578.36
473.369	11334.65
473.574	11955.19
473.778	11492.35
473.983	11590.65
474.188	11623.42
474.393	11125.76
474.598	11099.14
474.802	10929.16
475.007	10935.3
475.212	10984.45
475.417	10413.07
475.621	10464.27
475.826	10535.95
476.031	10413.07
476.235	10187.79
476.44	10386.44
476.645	10300.43
476.849	10257.42
477.054	9919.51
477.259	9896.98
477.463	9931.8
477.668	9526.3
477.872	9737.24
478.077	9683.99
478.282	9106.46
478.486	9174.05
478.691	9182.24
478.895	9210.91
479.1	9077.79
479.304	9042.98
479.509	8868.9
479.713	9116.7
479.918	8864.8
480.122	8692.77
480.326	8913.95
480.531	8852.52
480.735	8551.46
480.94	8641.57
481.144	8887.33
481.348	8389.67
481.553	8565.8
481.757	8365.1
481.961	8535.08
482.166	8598.57
482.37	8571.94
482.574	8455.21
482.778	8414.25
482.983	8420.39
483.187	8367.15
483.391	8545.32
483.595	8444.97
483.8	8293.42
484.004	8461.35
484.208	8567.85
484.412	8477.74
484.616	8537.13
484.821	8535.08
485.025	8119.34
485.229	8598.57
485.433	8318
485.637	8332.33
485.841	8330.28
486.045	8328.24
486.249	8322.09
486.453	8510.5
486.657	8363.05
486.861	8322.09
487.065	8219.69
487.269	8289.32
487.473	8207.41
487.677	8438.83
487.881	8449.07
488.085	8473.64
488.289	8592.42
488.493	8311.85
488.697	8287.28
488.901	8371.24
489.105	8363.05
489.309	8475.69
489.512	8592.42
489.716	8377.39
489.92	8592.42
490.124	8473.64
490.328	8612.9
490.531	8703.01
490.735	8705.06
490.939	8682.53
491.143	8559.66
491.346	8530.98
491.55	8723.49
491.754	8692.77
491.958	8676.39
492.161	8858.66
492.365	8895.52
492.569	8834.08
492.772	8614.95
492.976	8825.89
493.18	8862.76
493.383	8997.92
493.587	9053.22
493.79	9083.94
493.994	9006.11
494.197	9192.48
494.401	9382.94
494.605	9333.79
494.808	9559.06
495.012	9407.52
495.215	9714.71
495.419	9460.76
495.622	9522.2
495.825	9772.05
496.029	9550.87
496.232	9991.19
496.436	9905.17
496.639	10038.29
496.843	9946.13
497.046	10193.94
497.249	10329.1
497.453	10259.47
497.656	10492.94
497.859	10470.41
498.063	10550.28
498.266	10761.22
498.469	10982.4
498.673	10808.33
498.876	11027.46
499.079	11115.52
499.282	11162.62
499.485	11537.4
499.689	11647.99
499.892	11701.24
500.095	11762.68
500.298	12033.01
500.501	11836.41
500.705	11906.04
500.908	12346.35
501.111	12383.21
501.314	12538.86
501.517	12598.25
501.72	12950.5
501.923	12534.76
502.126	13106.15
502.329	13310.94
502.532	13370.33
502.735	13523.93
502.938	13560.8
503.141	13937.62
503.344	13818.84
503.547	14052.31
503.75	14046.16
503.953	14314.45
504.156	14447.57
504.359	14492.62
504.562	14705.61
504.765	14826.44
504.968	15231.94
505.17	15367.1
505.373	15309.76
505.576	15700.92
505.779	15717.31
505.982	15891.38
506.185	15971.25
506.387	16370.61
506.59	16327.6
506.793	16733.1
506.996	16739.24
507.198	17105.83
507.401	16851.88
507.604	17064.87
507.807	17222.56
508.009	17916.83
508.212	17697.69
508.415	18281.36
508.617	18217.88
508.82	18224.02
509.022	18316.18
509.225	18731.92
509.428	19170.18
509.63	18955.15
509.833	19194.76
510.035	19526.53
510.238	19299.2
510.44	19616.64
510.643	19782.52
510.845	19921.79
511.048	20177.78
511.25	20192.12
511.453	20396.92
511.655	21281.64
511.858	21416.8
512.06	21220.2
512.262	21414.76
512.465	21181.29
512.667	21977.95
512.87	21840.73
513.072	21873.5
513.274	22328.15
513.477	22735.7
513.679	22551.38
513.881	23229.26
514.084	23155.53
514.286	23493.44
514.488	23583.55
514.69	24281.91
514.893	24089.4
515.095	24124.22
515.297	24544.05
515.499	24554.29
515.701	25174.83
515.904	25260.84
516.106	25244.46
516.308	25686.82
516.51	25805.6
516.712	26077.98
516.914	26338.07
517.116	26467.09
517.318	26770.19
517.52	26516.25
517.722	26886.93
517.925	27210.51
518.127	27630.34
518.329	27824.9
518.531	27675.4
518.733	28218.11
518.935	28359.42
519.136	28275.45
519.338	28957.42
519.54	28832.5
519.742	29393.64
519.944	29172.46
520.146	29967.07
520.348	30051.04
520.55	30079.71
520.752	30405.34
520.954	30669.53
521.155	30575.32
521.357	31460.04
521.559	31271.63
521.761	31818.44
521.963	31699.65
522.164	31843.01
522.366	31883.97
522.568	32240.32
522.77	32127.68
522.971	33008.31
523.173	32715.45
523.375	33145.52
523.576	33194.67
523.778	32881.33
523.98	33479.34
524.181	33575.59
524.383	33739.43
524.584	34331.29
524.786	34202.27
524.988	34149.03
525.189	34658.97
525.391	34421.41
525.592	34726.55
525.794	34816.66
525.995	35011.22
526.197	35443.34
526.398	35025.56
526.6	35547.79
526.801	35648.14
527.003	35840.65
527.204	35562.12
527.406	36184.71
527.607	35730.06
527.808	36268.67
528.01	35662.47
528.211	36450.94
528.412	36569.72
528.614	36471.42
528.815	36661.88
529.016	36694.65
529.218	36350.59
529.419	36960.89
529.62	37149.3
529.822	36897.4
530.023	36819.58
530.224	37022.33
530.425	37274.23
530.626	36991.61
530.828	36758.14
531.029	37907.05
531.23	37100.15
531.431	37479.02
531.632	37272.18
531.833	37421.68
532.035	37403.25
532.236	37810.79
532.437	37483.12
532.638	37489.26
532.839	38382.18
533.04	37833.32
533.241	37601.9
533.442	38259.3
533.643	37980.78
533.844	37798.51
534.045	37870.18
534.246	37540.46
534.447	37859.94
534.648	38089.32
534.849	38083.17
535.05	37597.8
535.251	37620.33
535.451	37898.86
535.652	37950.06
535.853	37855.85
536.054	38001.25
536.255	38054.5
536.456	38007.4
536.657	38249.06
536.857	37730.92
537.058	37601.9
537.259	37921.38
537.46	38273.63
537.66	38021.73
537.861	38167.14
538.062	37767.79
538.263	38015.59
538.463	37667.44
538.664	37880.42
538.865	38253.15
539.065	38044.26
539.266	37415.54
539.466	38271.59
539.667	37358.19
539.868	38435.42
540.068	37726.83
540.269	37896.81
540.469	38232.68
540.67	37837.42
540.87	37591.66
541.071	37505.65
541.271	37861.99
541.472	37929.58
541.672	37638.76
541.873	37841.51
542.073	37476.97
542.274	37980.78
542.474	37790.31
542.675	37735.02
542.875	37927.53
543.075	37612.14
543.276	37094
543.476	37663.34
543.676	37814.89
543.877	37851.75
544.077	37552.75
544.277	37251.7
544.478	37345.9
544.678	37591.66
544.878	37812.84
545.078	37630.57
545.279	37347.95
545.479	37810.79
545.679	37554.8
545.879	37380.72
546.079	37302.9
546.28	37554.8
546.48	37575.28
546.68	37708.4
546.88	37382.77
547.08	37094
547.28	37005.94
547.48	37231.22
547.68	37464.69
547.88	37010.04
548.081	37626.48
548.281	37235.31
548.481	37395.06
548.681	37438.06
548.881	37341.81
549.081	37466.73
549.28	37438.06
549.48	37640.81
549.68	37225.07
549.88	37714.54
550.08	37300.85
550.28	37577.33
550.48	37597.8
550.68	37773.93
550.88	36973.17
551.08	37128.82
551.279	37319.28
551.479	36831.86
551.679	37145.2
551.879	37057.14
552.079	37354.1
552.278	37364.34
552.478	37370.48
552.678	37315.19
552.878	37202.55
553.077	36788.86
553.277	36674.17
553.477	37542.51
553.676	36760.19
553.876	36786.81
554.076	37032.57
554.275	37157.49
554.475	36858.49
554.674	37202.55
554.874	37106.29
555.074	36694.65
555.273	36909.69
555.473	36956.79
555.672	36684.41
555.872	36502.14
556.071	36711.03
556.271	36700.79
556.47	36440.7
556.67	36090.5
556.869	36604.54
557.068	36907.64
557.268	36176.51
557.467	36557.44
557.667	36326.02
557.866	36467.33
558.065	36287.1
558.265	35652.23
558.464	36426.37
558.663	36547.2
558.863	35549.84
559.062	36594.3
559.261	35781.26
559.461	36485.76
559.66	35840.65
559.859	35959.43
560.058	35342.99
560.258	35912.33
560.457	35142.29
560.656	36078.21
560.855	35314.32
561.054	35355.28
561.253	35390.09
561.453	35510.92
561.652	35398.29
561.851	35707.53
562.05	35232.4
562.249	35093.14
562.448	35611.28
562.647	35596.94
562.846	35037.84
563.045	35244.69
563.244	35043.99
563.443	35107.47
563.642	34693.79
563.841	34826.9
564.04	34796.18
564.239	35087
564.438	34452.12
564.637	34935.45
564.836	34699.93
565.035	34276
565.234	34515.61
565.432	34218.66
565.631	34433.69
565.83	34730.65
566.029	34364.06
566.228	34175.65
566.427	34132.64
566.625	33796.77
566.824	33557.16
567.023	34220.7
567.222	33563.31
567.42	33897.13
567.619	33890.98
567.818	33641.13
568.016	33479.34
568.215	33680.04
568.414	33643.18
568.612	33786.54
568.811	33286.83
569.01	33166
569.208	32690.87
569.407	33067.7
569.605	32737.98
569.804	33272.49
570.002	32742.07
570.201	33071.79
570.4	32641.72
570.598	32934.58
570.797	32066.24
570.995	33004.21
571.193	32084.67
571.392	32531.13
571.59	31955.65
571.789	32352.96
571.987	32168.64
572.186	32338.62
572.384	31869.64
572.582	31728.33
572.781	31699.65
572.979	31546.06
573.177	31877.83
573.376	31820.49
573.574	31574.73
573.772	31830.72
573.971	31199.95
574.169	31130.32
574.367	30628.57
574.565	31441.61
574.763	30927.57
574.962	31072.98
575.16	30595.8
575.358	30839.51
575.556	30481.11
575.754	30741.21
575.952	30397.15
576.151	30669.53
576.349	30298.84
576.547	30560.98
576.745	30345.95
576.943	30577.37
577.141	30112.48
577.339	30315.23
577.537	30212.83
577.735	29887.2
577.933	29696.74
578.131	29860.58
578.329	29725.41
578.527	29829.86
578.725	29944.55
578.923	29893.35
579.121	29702.89
579.319	29086.45
579.516	29575.91
579.714	29602.53
579.912	29248.24
580.11	29119.21
580.308	29319.92
580.506	29053.68
580.704	28752.63
580.901	28805.88
581.099	28904.18
581.297	28596.98
581.495	28691.19
581.692	28855.03
581.89	28416.76
582.088	28373.75
582.285	28730.1
582.483	28322.55
582.681	28201.72
582.878	28269.31
583.076	27710.21
583.274	27812.61
583.471	27951.87
583.669	28115.71
583.866	27867.91
584.064	27720.45
584.262	27495.18
584.459	27765.51
584.657	27554.57
584.854	27484.94
585.052	26999.57
585.249	27515.65
585.447	27212.56
585.644	27101.97
585.841	27085.58
586.039	27400.97
586.236	26776.34
586.434	26880.78
586.631	26688.28
586.828	26917.65
587.026	26925.84
587.223	26878.74
587.42	26348.31
587.618	26512.15
587.815	26323.74
588.012	26342.17
588.21	26039.07
588.407	26280.73
588.604	26231.58
588.801	25948.96
588.999	26061.6
589.196	25981.73
589.393	25916.19
589.59	25676.58
589.787	25695.01
589.984	25627.43
590.182	25279.27
590.379	25426.73
590.576	25502.5
590.773	25598.76
590.97	25129.77
591.167	25158.44
591.364	24861.49
591.561	25324.33
591.758	25039.66
591.955	25056.04
592.152	25031.47
592.349	24525.62
592.546	24761.14
592.743	24726.32
592.94	24404.79
593.137	24455.99
593.334	24439.61
593.531	24095.55
593.727	24064.83
593.924	24288.06
594.121	24070.97
594.318	24085.31
594.515	23870.27
594.712	23804.74
594.908	24118.07
595.105	24062.78
595.302	23726.91
595.499	23980.86
595.696	23733.06
595.892	23077.71
596.089	23485.25
596.286	23565.12
596.482	23493.44
596.679	23307.08
596.876	23276.36
597.072	23026.51
597.269	23073.61
597.466	23302.98
597.662	22793.04
597.859	23055.18
598.055	22578
598.252	22721.36
598.448	22719.31
598.645	22774.61
598.841	22539.09
599.038	22596.43
599.234	22213.46
599.431	21928.8
599.627	22354.77
599.824	22332.25
600.02	22008.67
600.217	22387.54
600.413	21726.05
600.609	21912.41
600.806	21805.92
601.002	21832.54
601.198	21381.99
601.395	21351.27
601.591	21717.86
601.787	21683.04
601.984	21570.4
602.18	21734.24
602.376	21402.47
602.572	21214.05
602.769	21355.36
602.965	21244.77
603.161	21005.16
603.357	21054.31
603.553	21003.11
603.75	21009.26
603.946	20884.33
604.142	20816.75
604.338	20149.11
604.534	20644.72
604.73	20474.74
604.926	20540.27
605.122	20671.34
605.318	20444.02
605.514	20431.73
605.71	20151.16
605.906	19960.7
606.102	20083.58
606.298	20415.35
606.494	20042.62
606.69	20149.11
606.886	20089.72
607.082	19518.34
607.278	19897.21
607.474	19852.16
607.67	19905.4
607.866	19399.55
608.062	19983.23
608.257	19559.3
608.453	19569.54
608.649	19544.96
608.845	19233.67
609.041	19633.02
609.236	19446.66
609.432	19585.92
609.628	19540.86
609.824	19174.28
610.019	19278.72
610.215	19592.06
610.411	19479.43
610.606	19205
610.802	19051.4
610.998	19043.21
611.193	19151.75
611.389	18897.8
611.584	19110.79
611.78	18918.28
611.976	18877.32
612.171	18996.1
612.367	18733.96
612.562	18793.36
612.758	18504.59
612.953	18350.99
613.149	18840.46
613.344	18469.78
613.539	18828.17
613.735	18381.71
613.93	18301.84
614.126	18441.11
614.321	18785.16
614.517	18666.38
614.712	18361.23
614.907	18482.06
615.103	18350.99
615.298	18017.18
615.493	18318.23
615.688	18080.66
615.884	18686.86
616.079	17806.23
616.274	18473.87
616.47	17851.29
616.665	17961.88
616.86	18000.79
617.055	18037.66
617.25	17886.11
617.445	17814.43
617.641	17548.19
617.836	17798.04
618.031	17726.36
618.226	17646.49
618.421	17468.32
618.616	17793.95
618.811	17417.12
619.006	17480.61
619.201	17382.31
619.396	17415.07
619.591	16964.52
619.786	17277.86
619.981	16858.03
620.176	17114.02
620.371	16862.12
620.566	16929.7
620.761	16946.09
620.956	16886.7
621.151	16571.31
621.346	16735.15
621.541	16382.9
621.735	16647.08
621.93	16505.77
622.125	16229.3
622.32	16182.2
622.515	16180.15
622.709	16053.17
622.904	15913.91
623.099	16147.38
623.294	15774.65
623.488	15578.04
623.683	15522.75
623.878	15449.02
624.072	15434.69
624.267	15340.48
624.462	15084.48
624.656	15168.45
624.851	15371.2
625.046	15002.57
625.24	14959.56
625.435	15021
625.629	14980.04
625.824	14789.58
626.018	14711.75
626.213	14287.82
626.407	14662.6
626.602	14384.08
626.796	14496.72
626.991	14420.94
627.185	14298.06
627.38	14261.2
627.574	14035.92
627.768	13892.57
627.963	14025.68
628.157	13839.32
628.352	13874.13
628.546	13478.88
628.74	13579.23
628.935	13478.88
629.129	13509.6
629.323	13241.31
629.517	13304.8
629.712	13304.8
629.906	13081.57
630.1	13016.04
630.294	13192.16
630.489	12837.86
630.683	12882.92
630.877	13028.32
631.071	12692.46
631.265	12665.83
631.459	12837.86
631.653	12512.24
631.848	12502
632.042	12368.88
632.236	12540.91
632.43	12336.11
632.624	12309.49
632.818	12219.38
633.012	11885.56
633.206	11887.61
633.4	11987.96
633.594	11828.21
633.788	11652.09
633.982	11850.74
634.176	11590.65
634.369	11748.34
634.563	11672.57
634.757	11365.37
634.951	11525.11
635.145	11607.03
635.339	11582.46
635.533	11129.86
635.726	11314.17
635.92	11097.09
636.114	11140.1
636.308	11058.18
636.501	10976.26
636.695	11033.6
636.889	10992.64
637.083	10755.08
637.276	10880
637.47	10648.58
637.664	10689.54
637.857	10793.99
638.051	10603.53
638.244	10544.14
638.438	10394.64
638.632	10486.79
638.825	10478.6
639.019	10282
639.212	10249.23
639.406	10382.35
639.599	10058.77
639.793	10064.91
639.986	10058.77
640.18	10165.26
640.373	9870.36
640.567	9853.97
640.76	9808.92
640.954	9800.73
641.147	9696.28
641.34	9673.75
641.534	9638.94
641.727	9487.39
641.92	9438.23
642.114	9600.02
642.307	9370.65
642.5	9448.47
642.694	9444.38
642.887	9215.01
643.08	9128.99
643.273	9233.44
643.467	9151.52
643.66	9006.11
643.853	9018.4
644.046	9016.35
644.239	8969.25
644.432	8813.6
644.626	8690.73
644.819	8877.09
645.012	8879.14
645.205	8754.21
645.398	8733.73
645.591	8526.89
645.784	8555.56
645.977	8348.72
646.17	8385.58
646.363	8455.21
646.556	8399.91
646.749	8330.28
646.942	8277.04
647.135	8250.41
647.328	8137.77
647.521	8109.1
647.714	8045.62
647.907	8037.42
648.099	8119.34
648.292	8225.84
648.485	7765.04
648.678	7689.27
648.871	8049.71
649.064	7703.61
649.256	7844.91
649.449	7603.25
649.642	7613.49
649.835	7627.83
650.027	7601.21
650.22	7662.65
650.413	7453.75
650.605	7463.99
650.798	7433.27
650.991	7509.05
651.183	7269.44
651.376	7314.49
651.568	7273.53
651.761	7314.49
651.954	7171.13
652.146	7064.64
652.339	7138.37
652.531	7232.57
652.724	7140.41
652.916	6908.99
653.109	6941.76
653.301	6894.66
653.494	6982.72
653.686	6841.41
653.879	6964.29
654.071	6812.74
654.263	6810.69
654.456	6693.96
654.648	6831.17
654.84	6483.02
655.033	6710.34
655.225	6517.83
655.417	6564.93
655.61	6755.4
655.802	6407.24
655.994	6528.07
656.186	6300.75
656.379	6229.07
656.571	6358.09
656.763	6302.79
656.955	6399.05
657.148	6429.77
657.34	6292.55
657.532	6208.59
657.724	6085.71
657.916	6227.02
658.108	6179.92
658.3	5930.06
658.492	5932.11
658.684	6077.52
658.876	5827.67
659.068	5915.73
659.26	5776.47
659.452	5911.63
659.644	5837.91
659.836	5825.62
660.028	5749.84
660.22	5905.49
660.412	5778.51
660.604	5532.76
660.796	5678.16
660.988	5700.69
661.18	5639.25
661.372	5463.13
661.563	5456.98
661.755	5366.87
661.947	5543
662.139	5465.18
662.331	5444.7
662.522	5295.19
662.714	5424.22
662.906	5295.19
663.097	5370.97
663.289	5278.81
663.481	5086.3
663.673	5143.64
663.864	5160.03
664.056	5147.74
664.247	5178.46
664.439	5094.49
664.631	5041.25
664.822	4988
665.014	5098.59
665.205	5203.04
665.397	4971.61
665.588	5110.88
665.78	4992.09
665.971	4985.95
666.163	4957.28
666.354	4709.47
666.546	4861.02
666.737	4762.72
666.929	4717.67
667.12	4828.26
667.311	4652.13
667.503	4605.03
667.694	4848.74
667.885	4623.46
668.077	4545.64
668.268	4365.42
668.459	4562.02
668.651	4693.09
668.842	4523.11
669.033	4467.81
669.224	4570.21
669.416	4443.24
669.607	4389.99
669.798	4426.86
669.989	4582.5
670.18	4385.9
670.371	4455.53
670.563	4342.89
670.754	4275.31
670.945	4258.92
671.136	4297.83
671.327	4168.81
671.518	4299.88
671.709	4279.4
671.9	4103.28
672.091	4201.58
672.282	4209.77
672.473	4168.81
672.664	4238.44
672.855	4154.48
673.046	4193.39
673.237	4160.62
673.428	3945.58
673.619	3972.21
673.809	3931.25
674	4031.6
674.191	3972.21
674.382	4066.41
674.573	3925.1
674.764	3894.38
674.954	4056.17
675.145	3845.23
675.336	3871.86
675.527	3898.48
675.717	3908.72
675.908	3841.14
676.099	3904.62
676.289	3791.98
676.48	3855.47
676.671	3832.94
676.861	3841.14
677.052	3734.64
677.243	3757.17
677.433	3816.56
677.624	3759.22
677.814	3742.83
678.005	3566.71
678.195	3656.82
678.386	3720.31
678.576	3630.2
678.767	3550.32
678.957	3535.99
679.148	3587.19
679.338	3619.96
679.529	3615.86
679.719	3517.56
679.909	3652.72
680.1	3636.34
680.29	3605.62
680.481	3538.04
680.671	3492.98
680.861	3460.21
681.052	3398.77
681.242	3384.44
681.432	3415.16
681.622	3449.97
681.813	3445.88
682.003	3353.72
682.193	3390.58
682.383	3452.02
682.573	3425.4
682.764	3359.86
682.954	3417.21
683.144	3325.05
683.334	3374.2
683.524	3433.59
683.714	3325.05
683.904	3333.24
684.094	3263.61
684.284	3163.26
684.474	3433.59
684.664	3497.08
684.854	3386.49
685.044	3185.79
685.234	3224.7
685.424	3183.74
685.614	3243.13
685.804	3187.83
685.994	3081.34
686.184	3146.87
686.374	3130.49
686.564	3128.44
686.753	3048.57
686.943	3105.92
687.133	3220.6
687.323	2983.04
687.513	3048.57
687.702	3046.52
687.892	2925.69
688.082	3024
688.272	2966.65
688.461	3026.04
688.651	3075.2
688.841	3042.43
689.03	2989.18
689.22	2880.64
689.41	2878.59
689.599	2907.26
689.789	3032.19
689.979	2874.49
690.168	2944.13
690.358	2796.67
690.547	2866.3
690.737	2866.3
690.926	2792.58
691.116	2759.81
691.305	2933.89
691.495	2729.09
691.684	2776.19
691.874	2776.19
692.063	2786.43
692.252	2821.25
692.442	2620.55
692.631	2727.04
692.82	2651.27
693.01	2796.67
693.199	2647.17
693.388	2675.84
693.578	2575.49
693.767	2620.55
693.956	2649.22
694.146	2593.92
694.335	2636.93
694.524	2536.58
694.713	2610.31
694.902	2606.21
695.092	2569.35
695.281	2530.44
695.47	2555.01
695.659	2442.37
695.848	2469
696.037	2509.96
696.226	2491.52
696.415	2546.82
696.604	2358.41
696.793	2614.4
696.982	2458.76
697.171	2473.09
697.36	2438.28
697.549	2555.01
697.738	2483.33
697.927	2327.69
698.116	2438.28
698.305	2378.89
698.494	2321.54
698.683	2411.65
698.872	2325.64
699.061	2346.12
699.25	2362.5
699.438	2401.41
699.627	2399.37
699.816	2358.41
700.005	2290.82
700.193	2391.17
700.382	2235.53
700.571	2415.75
700.76	2305.16
700.948	2313.35
701.137	2313.35
701.326	2292.87
701.514	2262.15
701.703	2370.69
701.892	2305.16
702.08	2370.69
702.269	2440.33
702.457	2272.39
702.646	2368.65
702.834	2288.78
703.023	2256.01
703.212	2350.21
703.4	2204.81
703.589	2227.34
703.777	2186.38
703.965	2231.43
704.154	2309.26
704.342	2194.57
704.531	2292.87
704.719	2210.95
704.907	2215.05
705.096	2251.91
705.284	2284.68
705.472	2202.76
705.661	2268.3
705.849	2137.23
706.037	2260.1
706.226	2260.1
706.414	2278.54
706.602	2163.85
706.79	2174.09
706.979	2272.39
707.167	2217.1
707.355	2194.57
707.543	2204.81
707.731	2249.86
707.919	2387.08
708.107	2206.86
708.296	2169.99
708.484	2260.1
708.672	2231.43
708.86	2219.14
709.048	2256.01
709.236	2235.53
709.424	2206.86
709.612	2219.14
709.8	2180.23
709.988	2167.95
710.176	2124.94
710.364	2182.28
710.551	2229.38
710.739	2165.9
710.927	2161.8
711.115	2149.51
711.303	2180.23
711.491	2305.16
711.679	2172.04
711.866	2253.96
712.054	2219.14
712.242	2083.98
712.43	2229.38
712.617	2198.67
712.805	2227.34
712.993	2202.76
713.181	2153.61
713.368	2172.04
713.556	2237.58
713.744	2149.51
713.931	2192.52
714.119	2096.27
714.306	2194.57
714.494	2153.61
714.682	2112.65
714.869	2169.99
715.057	2165.9
715.244	2120.84
715.432	2192.52
715.619	2043.02
715.807	2161.8
715.994	2147.47
716.182	2208.9
716.369	2112.65
716.556	2178.19
716.744	2120.84
716.931	2139.27
717.119	2081.93
717.306	2131.08
717.493	2178.19
717.681	2223.24
717.868	2215.05
718.055	2100.36
718.242	2131.08
718.43	2210.95
718.617	2088.07
718.804	2096.27
718.991	2067.6
719.179	2159.75
719.366	2137.23
719.553	2053.26
719.74	2129.03
719.927	2116.75
720.114	2147.47
720.301	2182.28
720.488	2057.36
720.676	2206.86
720.863	2231.43
721.05	2153.61
721.237	2118.79
721.424	2249.86
721.611	2040.97
721.798	2061.45
721.985	2169.99
722.172	2147.47
722.358	2141.32
722.545	2155.66
722.732	2157.71
722.919	2096.27
723.106	2040.97
723.293	2116.75
723.48	2104.46
723.667	2079.88
723.853	2100.36
724.04	2065.55
724.227	2038.92
724.414	2151.56
724.6	2079.88
724.787	2108.55
724.974	2141.32
725.161	2090.12
725.347	2030.73
725.534	2090.12
725.72	2083.98
725.907	2206.86
726.094	2008.2
726.28	2139.27
726.467	2026.64
726.653	2186.38
726.84	2100.36
727.027	2112.65
727.213	1989.77
727.4	2090.12
727.586	2163.85
727.773	2040.97
727.959	1957
728.145	2036.88
728.332	2157.71
728.518	2112.65
728.705	2045.07
728.891	2108.55
729.077	2022.54
729.264	2090.12
729.45	2096.27
729.636	2165.9
729.823	1932.43
730.009	2147.47
730.195	1997.96
730.382	2059.4
730.568	2090.12
730.754	2104.46
730.94	2065.55
731.126	2012.3
731.313	2161.8
731.499	2100.36
731.685	2014.35
731.871	2061.45
732.057	1981.58
732.243	2143.37
732.429	2088.07
732.615	2063.5
732.801	2073.74
732.987	2049.16
733.173	2026.64
733.359	1979.53
733.545	2096.27
733.731	2149.51
733.917	2083.98
734.103	2202.76
734.289	2079.88
734.475	1965.2
734.661	2049.16
734.847	2065.55
735.033	2137.23
735.219	1991.82
735.404	2038.92
735.59	2004.11
735.776	1973.39
735.962	1942.67
736.148	1989.77
736.333	2120.84
736.519	1875.09
736.705	2051.21
736.89	2008.2
737.076	2053.26
737.262	2053.26
737.447	1948.81
737.633	1928.33
737.819	1877.13
738.004	1961.1
738.19	2028.68
738.375	2008.2
738.561	1932.43
738.747	1942.67
738.932	1914
739.118	2002.06
739.303	1950.86
739.489	1940.62
739.674	1870.99
739.859	1987.72
740.045	1950.86
740.23	2030.73
740.416	1907.85
740.601	1879.18
740.786	1866.89
740.972	1881.23
741.157	1950.86
741.342	1797.26
741.528	1895.57
741.713	1895.57
741.898	1875.09
742.084	1850.51
742.269	1918.09
742.454	1950.86
742.639	1897.61
742.824	1944.72
743.01	1944.72
743.195	1891.47
743.38	1830.03
743.565	1870.99
743.75	1813.65
743.935	1780.88
744.12	1868.94
744.305	1854.61
744.49	1678.48
744.675	1817.74
744.86	1860.75
745.045	1770.64
745.23	1793.17
745.415	1776.78
745.6	1658
745.785	1789.07
745.97	1690.77
746.155	1715.34
746.34	1674.39
746.525	1643.67
746.71	1768.59
746.895	1698.96
747.079	1680.53
747.264	1658
747.449	1692.82
747.634	1713.3
747.819	1655.95
748.003	1698.96
748.188	1662.1
748.373	1727.63
748.557	1619.09
748.742	1619.09
748.927	1524.88
749.111	1547.41
749.296	1526.93
749.481	1563.79
749.665	1547.41
749.85	1430.68
750.034	1547.41
750.219	1543.32
750.404	1541.27
750.588	1557.65
750.773	1442.96
750.957	1430.68
751.141	1373.33
751.326	1473.68
751.51	1500.31
751.695	1492.12
751.879	1477.78
752.064	1516.69
752.248	1426.58
752.432	1555.6
752.617	1430.68
752.801	1465.49
752.985	1485.97
753.17	1408.15
753.354	1375.38
753.538	1326.23
753.722	1336.47
753.907	1320.09
754.091	1328.28
754.275	1402.01
754.459	1342.61
754.643	1375.38
754.828	1305.75
755.012	1318.04
755.196	1219.74
755.38	1148.06
755.564	1213.59
755.748	1191.06
755.932	1260.7
756.116	1229.98
756.3	1248.41
756.484	1256.6
756.668	1170.58
756.852	1197.21
757.036	1285.27
757.22	1131.67
757.404	1107.1
757.588	1213.59
757.772	1109.15
757.956	1162.39
758.14	1240.22
758.323	1023.13
758.507	1100.95
758.691	1178.78
758.875	1209.5
759.059	1154.2
759.242	1146.01
759.426	1107.1
759.61	1109.15
759.794	1059.99
759.977	1154.2
760.161	1244.31
760.345	1092.76
760.528	1008.8
760.712	1100.95
760.895	1041.56
761.079	1064.09
761.263	1031.32
761.446	984.22
761.63	961.69
761.813	1051.8
761.997	1103
762.18	1019.04
762.364	1043.61
762.547	965.79
762.731	1082.52
762.914	1006.75
763.098	994.46
763.281	957.6
763.464	957.6
763.648	1090.71
763.831	992.41
764.015	990.36
764.198	941.21
764.381	900.25
764.564	1037.47
764.748	982.17
764.931	941.21
765.114	930.97
765.297	916.64
765.481	918.68
765.664	867.49
765.847	935.07
766.03	1023.13
766.213	933.02
766.397	949.4
766.58	834.72
766.763	949.4
766.946	916.64
767.129	877.73
767.312	861.34
767.495	902.3
767.678	877.73
767.861	967.84
768.044	818.33
768.227	869.53
768.41	855.2
768.593	943.26
768.776	900.25
768.959	883.87
769.142	867.49
769.324	887.97
769.507	863.39
769.69	910.49
769.873	840.86
770.056	926.88
770.239	857.25
770.421	908.44
770.604	859.29
770.787	859.29
770.97	904.35
771.152	834.72
771.335	806.05
771.518	793.76
771.7	842.91
771.883	879.77
772.066	738.46
772.248	785.57
772.431	828.57
772.613	763.04
772.796	767.13
772.978	806.05
773.161	881.82
773.343	787.61
773.526	793.76
773.708	810.14
773.891	804
774.073	810.14
774.256	826.53
774.438	744.61
774.621	677.02
774.803	742.56
774.985	672.93
775.168	783.52
775.35	722.08
775.532	697.5
775.715	662.69
775.897	744.61
776.079	748.7
776.261	756.9
776.444	787.61
776.626	730.27
776.808	634.02
776.99	732.32
777.173	707.74
777.355	695.46
777.537	588.96
777.719	760.99
777.901	599.2
778.083	623.78
778.265	543.91
778.447	658.59
778.629	588.96
778.811	679.07
778.993	605.35
779.175	629.92
779.357	646.3
779.539	634.02
779.721	584.87
779.903	611.49
780.085	670.88
780.267	545.95
780.449	562.34
780.631	519.33
780.812	644.26
780.994	558.24
781.176	504.99
781.358	517.28
781.54	613.54
781.721	597.15
781.903	588.96
782.085	461.99
782.267	564.39
782.448	445.6
782.63	588.96
782.812	588.96
782.993	531.62
783.175	615.59
783.357	396.45
783.538	433.32
783.72	468.13
783.901	484.52
784.083	523.43
784.264	531.62
784.446	498.85
784.627	408.74
784.809	449.7
784.99	451.75
785.172	402.6
785.353	482.47
785.535	531.62
785.716	396.45
785.897	408.74
786.079	459.94
786.26	482.47
786.441	486.56
786.623	449.7
786.804	345.25
786.985	437.41
787.167	507.04
787.348	375.97
787.529	457.89
787.71	482.47
787.891	466.08
788.073	414.88
788.254	339.11
788.435	453.8
788.616	482.47
788.797	371.88
788.978	445.6
789.159	416.93
789.34	498.85
789.522	357.54
789.703	339.11
789.884	410.79
790.065	427.17
790.246	433.32
790.427	388.26
790.607	355.49
790.788	365.73
790.969	353.45
791.15	394.4
791.331	294.05
791.512	347.3
791.693	347.3
791.874	281.77
792.054	416.93
792.235	378.02
792.416	367.78
792.597	277.67
792.778	380.07
792.958	343.21
793.139	314.53
793.32	302.25
793.5	332.97
793.681	320.68
793.862	306.34
794.042	400.55
794.223	287.91
794.404	330.92
794.584	257.19
794.765	371.88
794.945	345.25
795.126	347.3
795.306	324.77
795.487	277.67
795.667	353.45
795.848	224.42
796.028	330.92
796.209	246.95
796.389	314.53
796.57	277.67
796.75	326.82
796.93	322.73
797.111	236.71
797.291	310.44
797.471	265.38
797.652	298.15
797.832	205.99
798.012	285.86
798.192	257.19
798.373	240.81
798.553	273.57
798.733	246.95
798.913	267.43
799.093	302.25
799.274	267.43
799.454	271.53
799.634	318.63
799.814	294.05
799.994	224.42
800.174	326.82
800.354	271.53
800.534	179.37
800.714	183.46
800.894	257.19
801.074	228.52
801.254	193.7
801.434	238.76
801.614	232.62
801.794	193.7
801.974	855.2
802.154	195.75
802.334	285.86
802.514	205.99
802.693	199.85
802.873	205.99
803.053	212.14
803.233	212.14
803.413	195.75
803.592	179.37
803.772	203.94
803.952	177.32
804.131	289.96
804.311	201.9
804.491	249
804.67	203.94
804.85	257.19
805.03	246.95
805.209	230.57
805.389	236.71
805.568	201.9
805.748	251.05
805.928	165.03
806.107	224.42
806.287	189.61
806.466	236.71
806.646	212.14
806.825	232.62
807.004	212.14
807.184	171.18
807.363	203.94
807.543	249
807.722	253.09
807.901	199.85
808.081	220.33
808.26	113.83
808.439	261.29
808.619	222.38
808.798	187.56
808.977	228.52
809.156	238.76
809.336	187.56
809.515	179.37
809.694	187.56
809.873	162.98
810.052	179.37
810.231	185.51
810.411	132.26
810.59	210.09
810.769	203.94
810.948	208.04
811.127	97.45
811.306	165.03
811.485	89.26
811.664	220.33
811.843	124.07
812.022	261.29
812.201	99.5
812.38	134.31
812.559	162.98
812.737	199.85
812.916	126.12
813.095	105.64
813.274	158.89
813.453	177.32
813.632	183.46
813.811	179.37
813.989	146.6
814.168	134.31
814.347	160.94
814.526	122.02
814.704	138.41
814.883	228.52
815.062	214.18
815.24	195.75
815.419	83.11
815.598	165.03
815.776	117.93
815.955	93.35
816.133	175.27
816.312	154.79
816.49	109.74
816.669	107.69
816.847	62.63
817.026	236.71
817.204	205.99
817.383	99.5
817.561	107.69
817.74	179.37
817.918	160.94
818.097	142.5
818.275	62.63
818.453	150.7
818.632	107.69
818.81	154.79
818.988	85.16
819.167	132.26
819.345	122.02
819.523	105.64
819.701	113.83
819.879	173.22
820.058	142.5
820.236	154.79
820.414	138.41
820.592	187.56
820.77	115.88
820.948	130.22
821.127	97.45
821.305	91.31
821.483	128.17
821.661	173.22
821.839	60.59
822.017	138.41
822.195	101.55
822.373	187.56
822.551	107.69
822.729	150.7
822.907	126.12
823.085	171.18
823.262	81.07
823.44	109.74
823.618	91.31
823.796	109.74
823.974	89.26
824.152	97.45
824.329	122.02
824.507	105.64
824.685	101.55
824.863	122.02
825.04	23.72
825.218	122.02
825.396	173.22
825.574	152.74
825.751	72.87
825.929	119.98
826.107	99.5
826.284	132.26
826.462	130.22
826.639	101.55
826.817	89.26
826.994	154.79
827.172	122.02
827.349	181.42
827.527	60.59
827.704	83.11
827.882	74.92
828.059	105.64
828.237	173.22
828.414	150.7
828.591	85.16
828.769	42.15
828.946	42.15
829.124	95.4
829.301	113.83
829.478	128.17
829.655	124.07
829.833	95.4
830.01	117.93
830.187	105.64
830.364	-0.85
830.542	128.17
830.719	89.26
830.896	142.5
831.073	72.87
831.25	58.54
831.427	76.97
831.604	-41.81
831.782	72.87
831.959	146.6
832.136	54.44
832.313	81.07
832.49	89.26
832.667	140.46
832.844	99.5
833.021	150.7
833.198	95.4
833.374	97.45
833.551	101.55
833.728	66.73
833.905	91.31
834.082	17.58
834.259	31.91
834.436	205.99
834.612	74.92
834.789	33.96
834.966	72.87
835.143	25.77
835.319	60.59
835.496	128.17
835.673	15.53
835.85	171.18
836.026	40.11
836.203	105.64
836.38	54.44
836.556	124.07
836.733	113.83
836.909	56.49
837.086	-35.67
837.262	31.91
837.439	68.78
837.616	91.31
837.792	89.26
837.968	97.45
838.145	42.15
838.321	9.39
838.498	103.59
838.674	62.63
838.851	105.64
839.027	31.91
839.203	60.59
839.38	81.07
839.556	56.49
839.732	40.11
839.909	72.87
840.085	197.8
840.261	76.97
840.437	99.5
840.614	40.11
840.79	97.45
840.966	70.83
841.142	40.11
841.318	64.68
841.494	60.59
841.671	122.02
841.847	97.45
842.023	56.49
842.199	130.22
842.375	107.69
842.551	11.43
842.727	58.54
842.903	62.63
843.079	-4.95
843.255	140.46
843.431	19.63
843.607	89.26
843.783	7.34
843.959	83.11
844.134	15.53
844.31	148.65
844.486	48.3
844.662	134.31
844.838	5.29
845.013	58.54
845.189	119.98
845.365	66.73
845.541	31.91
845.716	76.97
845.892	15.53
846.068	27.82
846.244	64.68
846.419	79.02
846.595	85.16
846.77	103.59
846.946	119.98
847.122	27.82
847.297	42.15
847.473	60.59
847.648	48.3
847.824	103.59
847.999	-39.76
848.175	11.43
848.35	76.97
848.526	97.45
848.701	105.64
848.876	52.39
849.052	64.68
849.227	48.3
849.403	48.3
849.578	122.02
849.753	138.41
849.929	105.64
850.104	50.35
850.279	33.96
850.454	29.87
850.63	119.98
850.805	58.54
850.98	64.68
851.155	58.54
851.33	1.19
851.505	-50
851.681	74.92
851.856	48.3
852.031	97.45
852.206	15.53
852.381	9.39
852.556	66.73
852.731	27.82
852.906	107.69
853.081	21.67
853.256	85.16
853.431	56.49
853.606	40.11
853.781	50.35
853.956	-37.72
854.131	89.26
854.305	-39.76
854.48	62.63
854.655	89.26
854.83	23.72
855.005	42.15
855.18	109.74
855.354	117.93
855.529	56.49
855.704	19.63
855.879	42.15
856.053	-15.19
856.228	72.87
856.403	25.77
856.577	81.07
856.752	40.11
856.926	83.11
857.101	27.82
857.276	48.3
857.45	44.2
857.625	99.5
857.799	64.68
857.974	27.82
858.148	-43.86
858.323	76.97
858.497	23.72
858.672	64.68
858.846	3.24
859.02	101.55
859.195	68.78
859.369	23.72
859.543	52.39
859.718	60.59
859.892	9.39
860.066	56.49
860.241	52.39
860.415	-9.05
860.589	7.34
860.763	85.16
860.938	-0.85
861.112	48.3
861.286	50.35
861.46	66.73
861.634	23.72
861.808	52.39
861.982	33.96
862.157	91.31
862.331	44.2
862.505	31.91
862.679	-66.39
862.853	7.34
863.027	27.82
863.201	126.12
863.375	-0.85
863.549	81.07
863.722	48.3
863.896	97.45
864.07	56.49
864.244	19.63
864.418	48.3
864.592	64.68
864.766	31.91
864.939	27.82
865.113	40.11
865.287	64.68
865.461	27.82
865.634	72.87
865.808	44.2
865.982	-4.95
866.156	27.82
866.329	38.06
866.503	42.15
866.676	48.3
866.85	48.3
867.024	31.91
867.197	40.11
867.371	56.49
867.544	15.53
867.718	-2.9
867.891	56.49
868.065	23.72
868.238	52.39
868.412	42.15
868.585	31.91
868.759	40.11
868.932	27.82
869.105	-31.57
869.279	-9.05
869.452	40.11
869.625	62.63
869.799	76.97
869.972	74.92
870.145	-37.72
870.319	-13.14
870.492	74.92
870.665	29.87
870.838	50.35
871.011	25.77
871.185	38.06
871.358	64.68
871.531	7.34
871.704	3.24
871.877	-41.81
872.05	58.54
872.223	3.24
872.396	52.39
872.569	-17.24
872.742	-62.29
872.915	72.87
873.088	58.54
873.261	-50
873.434	64.68
873.607	23.72
873.78	130.22
873.953	5.29
874.126	27.82
874.299	23.72
874.471	91.31
874.644	31.91
874.817	15.53
874.99	105.64
875.163	19.63
875.335	81.07
875.508	103.59
875.681	3.24
875.853	-17.24
876.026	-50
876.199	60.59
876.371	1.19
876.544	91.31
876.717	31.91
876.889	15.53
877.062	23.72
877.234	42.15
877.407	-41.81
877.579	38.06
877.752	27.82
877.924	48.3
878.097	-9.05
878.269	-2.9
878.442	40.11
878.614	50.35
878.786	48.3
878.959	-2.9
879.131	-17.24
879.303	-52.05
879.476	11.43
879.648	7.34
879.82	74.92
879.993	31.91
880.165	-17.24
880.337	-17.24
880.509	5.29
880.681	-29.52
880.854	-13.14
881.026	9.39
881.198	83.11
881.37	29.87
881.542	-0.85
881.714	25.77
881.886	33.96
882.058	-33.62
882.23	36.01
882.402	-2.9
882.574	15.53
882.746	42.15
882.918	44.2
883.09	40.11
883.262	52.39
883.434	21.67
883.606	15.53
883.778	-58.2
883.95	122.02
884.122	19.63
884.293	33.96
884.465	62.63
884.637	13.48
884.809	7.34
884.98	72.87
885.152	58.54
885.324	-21.33
885.496	23.72
885.667	76.97
885.839	36.01
886.011	42.15
886.182	-0.85
886.354	15.53
886.525	64.68
886.697	-21.33
886.869	46.25
887.04	25.77
887.212	93.35
887.383	111.78
887.555	3.24
887.726	81.07
887.897	50.35
888.069	81.07
888.24	38.06
888.412	66.73
888.583	-13.14
888.754	40.11
888.926	-4.95
889.097	40.11
889.268	44.2
889.44	60.59
889.611	25.77
889.782	31.91
889.953	15.53
890.125	36.01
890.296	1.19
890.467	40.11
890.638	95.4
890.809	36.01
890.98	91.31
891.151	91.31
891.323	81.07
891.494	-0.85
891.665	-56.15
891.836	-41.81
892.007	-17.24
892.178	38.06
892.349	-13.14
892.52	83.11
892.691	7.34
892.862	-2.9
893.032	-2.9
893.203	56.49
893.374	40.11
893.545	52.39
893.716	54.44
893.887	115.88
894.057	52.39
894.228	-15.19
894.399	9.39
894.57	11.43
894.74	29.87
894.911	42.15
895.082	-21.33
895.253	58.54
895.423	72.87
895.594	42.15
895.764	87.21
895.935	15.53
896.106	25.77
896.276	-17.24
896.447	11.43
896.617	-31.57
896.788	-29.52
896.958	27.82
897.129	11.43
897.299	29.87
897.47	48.3
897.64	33.96
897.81	64.68
897.981	-23.38
898.151	42.15
898.322	76.97
898.492	9.39
898.662	-35.67
898.832	-25.43
899.003	76.97
899.173	58.54
899.343	-50
899.513	-41.81
