Data from USB4F104151__223__14-45-33-327.txt Node

Date: Thu Mar 13 14:45:33 EDT 2025
User: louis
Spectrometer: USB4F10415
Trigger mode: 4
Integration Time (sec): 2.000000E-2
Scans to average: 1
Electric dark correction enabled: true
Nonlinearity correction enabled: false
Boxcar width: 0
XAxis mode: Wavelengths
Number of Pixels in Spectrum: 3648
>>>>>Begin Spectral Data<<<<<
178.204	-140.29
178.424	-140.29
178.644	-140.29
178.864	-162.81
179.084	-52.22
179.304	-35.84
179.524	-17.41
179.744	13.31
179.964	-5.12
180.184	46.08
180.404	41.98
180.624	-44.03
180.844	39.94
181.064	-95.23
181.283	29.7
181.503	-3.07
181.723	29.7
181.943	-15.36
182.163	64.51
182.383	17.41
182.602	72.7
182.822	-9.22
183.042	5.12
183.262	25.6
183.482	46.08
183.701	29.7
183.921	-33.79
184.141	48.13
184.361	91.13
184.58	-11.26
184.8	66.56
185.02	-15.36
185.239	17.41
185.459	31.74
185.679	62.46
185.898	-52.22
186.118	87.04
186.338	5.12
186.557	82.94
186.777	-17.41
186.997	-11.26
187.216	5.12
187.436	46.08
187.655	54.27
187.875	-11.26
188.095	-58.37
188.314	33.79
188.534	93.18
188.753	5.12
188.973	7.17
189.192	17.41
189.412	-7.17
189.631	33.79
189.851	105.47
190.07	87.04
190.29	15.36
190.509	-44.03
190.729	-21.5
190.948	41.98
191.168	197.63
191.387	-3.07
191.607	29.7
191.826	-3.07
192.045	87.04
192.265	-11.26
192.484	1.02
192.704	31.74
192.923	-19.46
193.142	70.65
193.362	1.02
193.581	119.81
193.8	48.13
194.02	54.27
194.239	58.37
194.458	132.09
194.678	13.31
194.897	33.79
195.116	17.41
195.335	46.08
195.555	13.31
195.774	1.02
195.993	37.89
196.212	78.85
196.432	-19.46
196.651	29.7
196.87	-9.22
197.089	99.33
197.308	82.94
197.528	29.7
197.747	29.7
197.966	5.12
198.185	123.9
198.404	-64.51
198.623	74.75
198.842	64.51
199.062	33.79
199.281	72.7
199.5	-39.94
199.719	13.31
199.938	46.08
200.157	17.41
200.376	9.22
200.595	25.6
200.814	-50.18
201.033	54.27
201.252	54.27
201.471	50.18
201.69	46.08
201.909	15.36
202.128	-50.18
202.347	39.94
202.566	11.26
202.785	-35.84
203.004	-17.41
203.223	95.23
203.442	64.51
203.661	9.22
203.879	46.08
204.098	13.31
204.317	-11.26
204.536	74.75
204.755	111.61
204.974	15.36
205.193	-15.36
205.411	87.04
205.63	3.07
205.849	-41.98
206.068	-19.46
206.287	-1.02
206.505	33.79
206.724	-3.07
206.943	-11.26
207.162	46.08
207.381	39.94
207.599	44.03
207.818	-46.08
208.037	46.08
208.255	41.98
208.474	103.42
208.693	37.89
208.911	29.7
209.13	74.75
209.349	33.79
209.567	46.08
209.786	97.28
210.005	74.75
210.223	37.89
210.442	17.41
210.661	9.22
210.879	-60.42
211.098	15.36
211.316	-46.08
211.535	105.47
211.753	-13.31
211.972	41.98
212.191	-50.18
212.409	1.02
212.628	111.61
212.846	7.17
213.065	7.17
213.283	95.23
213.502	41.98
213.72	72.7
213.938	62.46
214.157	35.84
214.375	7.17
214.594	-41.98
214.812	39.94
215.031	60.42
215.249	25.6
215.467	76.8
215.686	72.7
215.904	78.85
216.122	62.46
216.341	7.17
216.559	46.08
216.778	60.42
216.996	78.85
217.214	19.46
217.432	95.23
217.651	21.5
217.869	52.22
218.087	17.41
218.306	48.13
218.524	68.61
218.742	70.65
218.96	82.94
219.179	39.94
219.397	29.7
219.615	111.61
219.833	72.7
220.051	5.12
220.27	29.7
220.488	148.48
220.706	23.55
220.924	21.5
221.142	54.27
221.36	46.08
221.578	21.5
221.796	23.55
222.015	60.42
222.233	23.55
222.451	54.27
222.669	-5.12
222.887	37.89
223.105	113.66
223.323	17.41
223.541	37.89
223.759	-44.03
223.977	25.6
224.195	76.8
224.413	52.22
224.631	-1.02
224.849	33.79
225.067	111.61
225.285	15.36
225.503	87.04
225.721	9.22
225.939	87.04
226.157	66.56
226.375	60.42
226.592	-25.6
226.81	95.23
227.028	76.8
227.246	27.65
227.464	5.12
227.682	39.94
227.9	-48.13
228.117	121.85
228.335	50.18
228.553	-1.02
228.771	9.22
228.989	-21.5
229.206	29.7
229.424	60.42
229.642	5.12
229.86	58.37
230.077	107.52
230.295	29.7
230.513	-70.65
230.731	27.65
230.948	62.46
231.166	39.94
231.384	58.37
231.601	62.46
231.819	64.51
232.037	-11.26
232.254	21.5
232.472	17.41
232.689	27.65
232.907	78.85
233.125	23.55
233.342	17.41
233.56	-17.41
233.777	-48.13
233.995	13.31
234.213	56.32
234.43	46.08
234.648	-15.36
234.865	52.22
235.083	19.46
235.3	62.46
235.518	13.31
235.735	72.7
235.953	70.65
236.17	21.5
236.388	23.55
236.605	9.22
236.822	33.79
237.04	87.04
237.257	39.94
237.475	17.41
237.692	37.89
237.909	-48.13
238.127	-66.56
238.344	89.09
238.562	-7.17
238.779	7.17
238.996	5.12
239.214	87.04
239.431	62.46
239.648	33.79
239.865	89.09
240.083	50.18
240.3	41.98
240.517	48.13
240.735	78.85
240.952	19.46
241.169	41.98
241.386	54.27
241.603	29.7
241.821	3.07
242.038	54.27
242.255	82.94
242.472	-3.07
242.689	95.23
242.907	99.33
243.124	35.84
243.341	-17.41
243.558	29.7
243.775	-68.61
243.992	21.5
244.209	9.22
244.426	66.56
244.643	-27.65
244.86	50.18
245.078	78.85
245.295	50.18
245.512	37.89
245.729	17.41
245.946	130.05
246.163	80.89
246.38	54.27
246.597	62.46
246.814	80.89
247.031	48.13
247.248	15.36
247.464	46.08
247.681	-31.74
247.898	105.47
248.115	21.5
248.332	-76.8
248.549	70.65
248.766	109.57
248.983	41.98
249.2	37.89
249.417	64.51
249.633	-27.65
249.85	-1.02
250.067	23.55
250.284	29.7
250.501	-52.22
250.717	33.79
250.934	46.08
251.151	56.32
251.368	-11.26
251.585	-1.02
251.801	-50.18
252.018	87.04
252.235	117.76
252.451	29.7
252.668	19.46
252.885	1.02
253.102	46.08
253.318	44.03
253.535	-9.22
253.752	41.98
253.968	-19.46
254.185	-33.79
254.401	13.31
254.618	87.04
254.835	103.42
255.051	44.03
255.268	13.31
255.484	48.13
255.701	74.75
255.917	54.27
256.134	62.46
256.351	70.65
256.567	-3.07
256.784	103.42
257	-5.12
257.217	-1.02
257.433	62.46
257.65	29.7
257.866	95.23
258.082	-3.07
258.299	29.7
258.515	-19.46
258.732	97.28
258.948	37.89
259.165	-3.07
259.381	-41.98
259.597	46.08
259.814	-35.84
260.03	33.79
260.246	95.23
260.463	48.13
260.679	-5.12
260.895	-3.07
261.112	41.98
261.328	23.55
261.544	66.56
261.761	74.75
261.977	39.94
262.193	33.79
262.409	23.55
262.626	78.85
262.842	-33.79
263.058	46.08
263.274	54.27
263.49	39.94
263.707	46.08
263.923	9.22
264.139	9.22
264.355	78.85
264.571	15.36
264.787	66.56
265.004	17.41
265.22	-11.26
265.436	66.56
265.652	80.89
265.868	7.17
266.084	58.37
266.3	60.42
266.516	13.31
266.732	17.41
266.948	15.36
267.164	37.89
267.38	80.89
267.596	68.61
267.812	130.05
268.028	5.12
268.244	-41.98
268.46	-13.31
268.676	87.04
268.892	9.22
269.108	54.27
269.324	21.5
269.54	58.37
269.756	62.46
269.972	-19.46
270.188	64.51
270.403	37.89
270.619	56.32
270.835	54.27
271.051	3.07
271.267	46.08
271.483	101.37
271.698	56.32
271.914	19.46
272.13	17.41
272.346	58.37
272.562	25.6
272.777	62.46
272.993	21.5
273.209	68.61
273.425	-89.09
273.64	33.79
273.856	13.31
274.072	105.47
274.287	27.65
274.503	23.55
274.719	29.7
274.934	80.89
275.15	-35.84
275.366	80.89
275.581	87.04
275.797	93.18
276.012	23.55
276.228	39.94
276.444	91.13
276.659	23.55
276.875	-7.17
277.09	111.61
277.306	-3.07
277.521	128
277.737	27.65
277.952	121.85
278.168	21.5
278.383	-3.07
278.599	50.18
278.814	50.18
279.03	27.65
279.245	56.32
279.461	5.12
279.676	58.37
279.892	13.31
280.107	29.7
280.322	66.56
280.538	39.94
280.753	-29.7
280.969	33.79
281.184	-1.02
281.399	103.42
281.615	68.61
281.83	87.04
282.045	52.22
282.26	54.27
282.476	111.61
282.691	105.47
282.906	7.17
283.122	39.94
283.337	95.23
283.552	54.27
283.767	23.55
283.983	54.27
284.198	93.18
284.413	80.89
284.628	-15.36
284.843	54.27
285.058	62.46
285.274	29.7
285.489	1.02
285.704	87.04
285.919	37.89
286.134	72.7
286.349	29.7
286.564	33.79
286.779	54.27
286.995	52.22
287.21	-60.42
287.425	39.94
287.64	29.7
287.855	7.17
288.07	15.36
288.285	29.7
288.5	58.37
288.715	66.56
288.93	1.02
289.145	-19.46
289.36	44.03
289.575	23.55
289.79	23.55
290.004	13.31
290.219	1.02
290.434	33.79
290.649	-41.98
290.864	13.31
291.079	37.89
291.294	41.98
291.509	-31.74
291.724	-9.22
291.938	66.56
292.153	74.75
292.368	72.7
292.583	9.22
292.798	64.51
293.012	-44.03
293.227	-23.55
293.442	37.89
293.657	66.56
293.871	-9.22
294.086	46.08
294.301	54.27
294.516	21.5
294.73	54.27
294.945	29.7
295.16	37.89
295.374	62.46
295.589	-19.46
295.804	-35.84
296.018	46.08
296.233	78.85
296.447	21.5
296.662	64.51
296.877	15.36
297.091	95.23
297.306	103.42
297.52	46.08
297.735	56.32
297.949	37.89
298.164	1.02
298.378	48.13
298.593	101.37
298.807	3.07
299.022	80.89
299.236	46.08
299.451	-9.22
299.665	56.32
299.88	13.31
300.094	23.55
300.309	66.56
300.523	82.94
300.737	-25.6
300.952	54.27
301.166	-15.36
301.381	-11.26
301.595	78.85
301.809	-21.5
302.024	-17.41
302.238	78.85
302.452	111.61
302.667	46.08
302.881	82.94
303.095	95.23
303.309	-44.03
303.524	72.7
303.738	7.17
303.952	29.7
304.166	31.74
304.381	29.7
304.595	95.23
304.809	50.18
305.023	78.85
305.237	54.27
305.452	33.79
305.666	46.08
305.88	97.28
306.094	89.09
306.308	-3.07
306.522	62.46
306.736	54.27
306.95	58.37
307.164	19.46
307.379	78.85
307.593	19.46
307.807	31.74
308.021	64.51
308.235	-3.07
308.449	54.27
308.663	17.41
308.877	54.27
309.091	50.18
309.305	72.7
309.519	-76.8
309.733	89.09
309.947	-3.07
310.161	56.32
310.374	125.95
310.588	29.7
310.802	1.02
311.016	95.23
311.23	91.13
311.444	48.13
311.658	-9.22
311.872	39.94
312.085	66.56
312.299	66.56
312.513	64.51
312.727	80.89
312.941	72.7
313.154	-3.07
313.368	41.98
313.582	130.05
313.796	41.98
314.009	29.7
314.223	17.41
314.437	48.13
314.651	128
314.864	-9.22
315.078	48.13
315.292	-3.07
315.505	74.75
315.719	46.08
315.933	-11.26
316.146	-44.03
316.36	80.89
316.573	111.61
316.787	15.36
317.001	56.32
317.214	60.42
317.428	23.55
317.641	41.98
317.855	74.75
318.068	21.5
318.282	-7.17
318.495	121.85
318.709	89.09
318.922	78.85
319.136	95.23
319.349	56.32
319.563	-25.6
319.776	11.26
319.99	72.7
320.203	56.32
320.417	33.79
320.63	72.7
320.843	60.42
321.057	-27.65
321.27	87.04
321.483	44.03
321.697	64.51
321.91	33.79
322.124	87.04
322.337	-15.36
322.55	29.7
322.763	50.18
322.977	58.37
323.19	7.17
323.403	5.12
323.617	17.41
323.83	117.76
324.043	21.5
324.256	74.75
324.469	48.13
324.683	72.7
324.896	-11.26
325.109	-11.26
325.322	-35.84
325.535	56.32
325.748	54.27
325.962	11.26
326.175	41.98
326.388	99.33
326.601	29.7
326.814	95.23
327.027	-17.41
327.24	84.99
327.453	87.04
327.666	54.27
327.879	138.24
328.092	103.42
328.305	5.12
328.518	95.23
328.731	-3.07
328.944	23.55
329.157	29.7
329.37	-15.36
329.583	56.32
329.796	130.05
330.009	-3.07
330.222	-76.8
330.435	39.94
330.648	82.94
330.861	52.22
331.073	82.94
331.286	130.05
331.499	128
331.712	15.36
331.925	70.65
332.138	37.89
332.35	70.65
332.563	48.13
332.776	72.7
332.989	93.18
333.202	89.09
333.414	70.65
333.627	74.75
333.84	54.27
334.053	27.65
334.265	62.46
334.478	-60.42
334.691	46.08
334.903	31.74
335.116	17.41
335.329	54.27
335.541	70.65
335.754	62.46
335.966	-5.12
336.179	31.74
336.392	25.6
336.604	37.89
336.817	128
337.029	-1.02
337.242	82.94
337.454	91.13
337.667	54.27
337.88	115.71
338.092	-21.5
338.305	48.13
338.517	70.65
338.729	54.27
338.942	5.12
339.154	70.65
339.367	5.12
339.579	31.74
339.792	-3.07
340.004	89.09
340.217	91.13
340.429	35.84
340.641	15.36
340.854	87.04
341.066	33.79
341.278	37.89
341.491	103.42
341.703	7.17
341.915	-3.07
342.128	144.38
342.34	9.22
342.552	-52.22
342.764	1.02
342.977	74.75
343.189	15.36
343.401	33.79
343.613	19.46
343.826	48.13
344.038	1.02
344.25	60.42
344.462	39.94
344.674	82.94
344.886	-31.74
345.099	74.75
345.311	7.17
345.523	-50.18
345.735	46.08
345.947	80.89
346.159	62.46
346.371	56.32
346.583	87.04
346.795	113.66
347.007	15.36
347.219	111.61
347.431	-46.08
347.643	89.09
347.855	-3.07
348.067	177.15
348.279	-7.17
348.491	62.46
348.703	82.94
348.915	91.13
349.127	50.18
349.339	66.56
349.551	56.32
349.763	23.55
349.975	105.47
350.187	62.46
350.399	80.89
350.61	66.56
350.822	15.36
351.034	17.41
351.246	48.13
351.458	119.81
351.669	11.26
351.881	80.89
352.093	74.75
352.305	103.42
352.517	15.36
352.728	132.09
352.94	54.27
353.152	64.51
353.363	52.22
353.575	-29.7
353.787	72.7
353.999	17.41
354.21	74.75
354.422	9.22
354.633	74.75
354.845	56.32
355.057	144.38
355.268	70.65
355.48	13.31
355.692	13.31
355.903	-19.46
356.115	17.41
356.326	-3.07
356.538	56.32
356.749	23.55
356.961	144.38
357.172	21.5
357.384	-1.02
357.595	130.05
357.807	41.98
358.018	41.98
358.23	82.94
358.441	76.8
358.653	74.75
358.864	103.42
359.075	82.94
359.287	78.85
359.498	138.24
359.709	78.85
359.921	70.65
360.132	115.71
360.344	31.74
360.555	-9.22
360.766	48.13
360.977	37.89
361.189	136.19
361.4	7.17
361.611	130.05
361.823	80.89
362.034	58.37
362.245	66.56
362.456	74.75
362.667	-15.36
362.879	80.89
363.09	-41.98
363.301	7.17
363.512	68.61
363.723	78.85
363.935	48.13
364.146	128
364.357	74.75
364.568	48.13
364.779	3.07
364.99	138.24
365.201	87.04
365.412	46.08
365.623	13.31
365.834	46.08
366.045	41.98
366.256	107.52
366.467	95.23
366.678	62.46
366.889	87.04
367.1	-17.41
367.311	46.08
367.522	76.8
367.733	74.75
367.944	46.08
368.155	54.27
368.366	70.65
368.577	29.7
368.788	-1.02
368.999	-33.79
369.209	95.23
369.42	121.85
369.631	111.61
369.842	82.94
370.053	103.42
370.264	52.22
370.474	1.02
370.685	21.5
370.896	5.12
371.107	95.23
371.317	17.41
371.528	-7.17
371.739	115.71
371.95	39.94
372.16	95.23
372.371	21.5
372.582	50.18
372.792	35.84
373.003	89.09
373.214	80.89
373.424	97.28
373.635	44.03
373.846	29.7
374.056	80.89
374.267	91.13
374.477	80.89
374.688	33.79
374.898	15.36
375.109	25.6
375.319	62.46
375.53	50.18
375.74	33.79
375.951	62.46
376.161	41.98
376.372	91.13
376.582	7.17
376.793	54.27
377.003	-11.26
377.214	62.46
377.424	84.99
377.635	48.13
377.845	-60.42
378.055	136.19
378.266	23.55
378.476	46.08
378.686	5.12
378.897	78.85
379.107	13.31
379.317	84.99
379.528	17.41
379.738	111.61
379.948	70.65
380.158	56.32
380.369	29.7
380.579	-7.17
380.789	99.33
380.999	121.85
381.21	-23.55
381.42	111.61
381.63	84.99
381.84	23.55
382.05	138.24
382.261	62.46
382.471	95.23
382.681	29.7
382.891	35.84
383.101	29.7
383.311	33.79
383.521	-27.65
383.731	136.19
383.941	31.74
384.151	54.27
384.361	95.23
384.571	21.5
384.781	41.98
384.991	62.46
385.201	87.04
385.411	64.51
385.621	64.51
385.831	78.85
386.041	113.66
386.251	33.79
386.461	177.15
386.671	-19.46
386.881	76.8
387.091	103.42
387.301	87.04
387.511	113.66
387.72	119.81
387.93	113.66
388.14	-7.17
388.35	5.12
388.56	68.61
388.769	111.61
388.979	89.09
389.189	58.37
389.399	48.13
389.609	91.13
389.818	50.18
390.028	41.98
390.238	105.47
390.447	33.79
390.657	52.22
390.867	52.22
391.076	13.31
391.286	105.47
391.496	37.89
391.705	72.7
391.915	101.37
392.125	103.42
392.334	62.46
392.544	44.03
392.753	111.61
392.963	56.32
393.172	76.8
393.382	97.28
393.591	136.19
393.801	115.71
394.01	138.24
394.22	78.85
394.429	23.55
394.639	46.08
394.848	95.23
395.058	119.81
395.267	37.89
395.477	136.19
395.686	48.13
395.895	191.49
396.105	99.33
396.314	50.18
396.524	58.37
396.733	121.85
396.942	121.85
397.152	105.47
397.361	148.48
397.57	152.57
397.78	87.04
397.989	168.96
398.198	222.2
398.407	138.24
398.617	74.75
398.826	72.7
399.035	82.94
399.244	136.19
399.453	160.77
399.663	62.46
399.872	111.61
400.081	164.86
400.29	41.98
400.499	87.04
400.708	78.85
400.917	58.37
401.127	97.28
401.336	70.65
401.545	201.72
401.754	193.53
401.963	132.09
402.172	95.23
402.381	50.18
402.59	95.23
402.799	183.29
403.008	222.2
403.217	105.47
403.426	125.95
403.635	109.57
403.844	177.15
404.053	191.49
404.262	128
404.471	140.29
404.68	166.91
404.888	119.81
405.097	164.86
405.306	158.72
405.515	179.2
405.724	193.53
405.933	185.34
406.142	230.4
406.35	146.43
406.559	162.81
406.768	177.15
406.977	222.2
407.185	111.61
407.394	228.35
407.603	238.59
407.812	168.96
408.02	259.07
408.229	238.59
408.438	193.53
408.646	244.73
408.855	267.26
409.064	291.84
409.272	291.84
409.481	308.22
409.69	345.08
409.898	308.22
410.107	308.22
410.315	326.65
410.524	320.51
410.733	353.27
410.941	263.16
411.15	396.28
411.358	379.9
411.567	439.29
411.775	365.56
411.984	496.63
412.192	435.19
412.401	480.25
412.609	508.92
412.818	541.69
413.026	533.5
413.234	498.68
413.443	470.01
413.651	541.69
413.86	568.31
414.068	629.75
414.276	613.37
414.485	658.42
414.693	627.7
414.901	801.78
415.11	769.01
415.318	693.24
415.526	832.5
415.734	799.73
415.943	801.78
416.151	867.31
416.359	869.36
416.567	975.86
416.776	990.19
416.984	998.38
417.192	1127.41
417.4	1000.43
417.608	1057.78
417.817	1072.11
418.025	1094.64
418.233	1250.28
418.441	1170.41
418.649	1238
418.857	1401.83
419.065	1455.08
419.273	1463.27
419.481	1528.81
419.689	1461.23
419.897	1643.49
420.105	1670.12
420.313	1643.49
420.521	1850.34
420.729	1827.81
420.937	1881.06
421.145	1913.83
421.353	1930.21
421.561	2126.82
421.769	2175.97
421.977	2171.87
422.185	2128.86
422.393	2235.36
422.601	2642.9
422.809	2487.26
423.017	2532.31
423.224	2657.24
423.432	2788.31
423.64	2841.56
423.848	2962.39
424.056	2921.43
424.263	3115.98
424.471	3220.43
424.679	3240.91
424.887	3390.41
425.094	3429.32
425.302	3423.18
425.51	3607.5
425.718	3720.14
425.925	3773.38
426.133	4019.14
426.341	4185.02
426.548	4363.2
426.756	4283.33
426.964	4369.34
427.171	4567.99
427.379	4791.22
427.586	4955.06
427.794	5018.55
428.001	5200.82
428.209	5274.54
428.417	5309.36
428.624	5804.97
428.832	5774.25
429.039	5718.95
429.247	5594.03
429.454	6165.41
429.662	6663.07
429.869	6271.9
430.076	6656.92
430.284	6462.37
430.491	6775.7
430.699	7164.82
430.906	6996.89
431.114	7160.72
431.321	7547.79
431.528	7547.79
431.736	8133.51
431.943	8582.01
432.15	8242.05
432.358	8442.75
432.565	8868.73
432.772	8756.09
432.979	9313.14
433.187	9354.1
433.394	9460.59
433.601	10109.8
433.808	10361.7
434.016	10130.28
434.223	10361.7
434.43	11139.93
434.637	10828.63
434.844	11688.78
435.052	11932.49
435.259	11754.32
435.466	11778.89
435.673	11916.11
435.88	12714.81
436.087	13167.42
436.294	13114.17
436.501	12880.7
436.708	13202.23
436.915	13669.17
437.122	14275.37
437.329	14056.23
437.537	14506.79
437.743	14777.12
437.95	14766.88
438.157	15788.82
438.364	16200.46
438.571	16163.59
438.778	16247.56
438.985	17545.97
439.192	17076.99
439.399	17601.27
439.606	17195.77
439.813	18393.83
440.02	19202.78
440.227	18983.65
440.433	18559.72
440.64	19423.96
440.847	19186.4
441.054	19761.87
441.261	20712.13
441.467	20775.62
441.674	21060.29
441.881	21887.67
442.088	21795.51
442.294	21885.62
442.501	21983.92
442.708	22545.06
442.914	23794.32
443.121	24638.09
443.328	24197.77
443.534	25737.85
443.741	24713.86
443.948	24605.32
444.154	26258.03
444.361	26329.71
444.568	26600.04
444.774	26120.82
444.981	26731.11
445.187	27339.36
445.394	28746.31
445.6	28047.96
445.807	31187.49
446.013	29758.01
446.22	30460.46
446.426	31451.68
446.633	31719.96
446.839	32940.55
447.046	31504.93
447.252	33360.39
447.459	32936.46
447.665	33450.5
447.871	34484.72
448.078	36301.27
448.284	34341.36
448.491	35205.61
448.697	36639.18
448.903	37546.44
449.11	37521.86
449.316	36702.67
449.522	37433.8
449.728	38517.17
449.935	38980.01
450.141	38752.69
450.347	39506.34
450.553	38472.12
450.76	39301.54
450.966	40370.58
451.172	39813.54
451.378	41101.71
451.584	40307.1
451.791	41027.98
451.997	40978.83
452.203	41601.41
452.409	41691.52
452.615	41523.59
452.821	40100.25
453.027	39348.65
453.233	41920.9
453.44	40266.14
453.646	40618.39
453.852	40976.78
454.058	41552.26
454.264	40034.72
454.47	41101.71
454.676	39985.57
454.882	41580.93
455.088	37960.12
455.294	38717.87
455.5	39242.15
455.705	39733.67
455.911	37982.65
456.117	37175.75
456.323	37351.88
456.529	35394.02
456.735	36661.71
456.941	35410.4
457.147	35207.65
457.352	34208.25
457.558	33837.56
457.764	33552.9
457.97	33118.73
458.176	32477.71
458.381	32567.82
458.587	30859.82
458.793	31052.33
458.999	29348.42
459.204	31523.36
459.41	30798.38
459.616	28643.91
459.821	28625.48
460.027	28953.16
460.233	27898.45
460.438	26864.23
460.644	26978.92
460.85	25870.97
461.055	25666.17
461.261	25315.97
461.466	23616.15
461.672	23075.49
461.878	24269.45
462.083	23065.25
462.289	22741.67
462.494	22217.39
462.7	21519.03
462.905	20652.74
463.111	21682.87
463.316	21482.17
463.522	21076.67
463.727	21140.16
463.932	21068.48
464.138	20867.78
464.343	21125.82
464.549	20531.91
464.754	21011.14
464.959	20980.42
465.165	20527.81
465.37	20081.36
465.575	19514.07
465.781	20191.95
465.986	20171.47
466.191	19725.01
466.397	19421.91
466.602	18324.2
466.807	18940.64
467.012	18975.45
467.218	18698.98
467.423	18537.19
467.628	19016.41
467.833	19434.2
468.038	18739.94
468.244	18414.31
468.449	19114.72
468.654	18223.85
468.859	18375.4
469.064	18092.78
469.269	17484.53
469.474	17560.31
469.679	17840.88
469.885	17570.55
470.09	17662.71
470.295	17511.16
470.5	17083.13
470.705	17545.97
470.91	16956.16
471.115	16679.68
471.32	17246.97
471.525	16864
471.73	16614.15
471.935	16640.77
472.139	16179.98
472.344	16089.87
472.549	15962.89
472.754	15821.58
472.959	15577.87
473.164	15110.94
473.369	15110.94
473.574	15602.45
473.778	15473.43
473.983	15061.79
474.188	15309.59
474.393	14762.78
474.598	14727.97
474.802	14586.66
475.007	14412.58
475.212	14490.4
475.417	13976.36
475.621	13919.02
475.826	14089
476.031	13413.17
476.235	13447.99
476.44	13783.85
476.645	13538.1
476.849	13413.17
477.054	13341.49
477.259	12981.05
477.463	12989.24
477.668	12700.48
477.872	12882.75
478.077	12598.08
478.282	12276.55
478.486	12385.09
478.691	12313.41
478.895	12131.14
479.1	12129.09
479.304	12075.85
479.509	11578.19
479.713	12084.04
479.918	11719.5
480.122	11518.8
480.326	11590.48
480.531	11717.45
480.735	11506.51
480.94	11473.74
481.144	11846.48
481.348	11473.74
481.553	11385.68
481.757	11227.99
481.961	11539.28
482.166	11541.33
482.37	11324.24
482.574	11109.21
482.778	11221.84
482.983	11490.13
483.187	11303.76
483.391	11133.78
483.595	11033.43
483.8	11205.46
484.004	11471.7
484.208	11383.63
484.412	11244.37
484.616	11240.28
484.821	11318.1
485.025	11144.02
485.229	11221.84
485.433	11240.28
485.637	11359.06
485.841	10941.27
486.045	11135.83
486.249	11250.52
486.453	11131.73
486.657	11334.48
486.861	11547.47
487.065	10894.17
487.269	11139.93
487.473	10965.85
487.677	11375.44
487.881	11498.32
488.085	11412.31
488.289	11440.98
488.493	11291.48
488.697	11426.64
488.901	11574.1
489.105	11217.75
489.309	11359.06
489.512	11303.76
489.716	11430.74
489.92	11326.29
490.124	11473.74
490.328	11662.16
490.531	11465.55
490.735	11674.45
490.939	11840.33
491.143	11811.66
491.346	11709.26
491.55	11973.45
491.754	11967.31
491.958	11959.11
492.161	11959.11
492.365	12245.83
492.569	12057.42
492.772	12153.67
492.976	12249.93
493.18	12208.97
493.383	12516.16
493.587	12354.37
493.79	12634.94
493.994	12555.07
494.197	12829.5
494.401	12669.76
494.605	12706.62
494.808	13030.2
495.012	13024.06
495.215	13361.97
495.419	13220.66
495.622	13310.77
495.825	13556.53
496.029	13572.91
496.232	13853.48
496.436	13628.21
496.639	14103.34
496.843	14142.25
497.046	14236.45
497.249	14318.37
497.453	14416.68
497.656	14850.85
497.859	14621.47
498.063	14848.8
498.266	15174.42
498.469	15199
498.673	15209.24
498.876	15614.74
499.079	15803.15
499.282	15674.13
499.485	16149.26
499.689	16249.61
499.892	16425.73
500.095	16677.63
500.298	16880.38
500.501	16798.46
500.705	17312.5
500.908	17335.03
501.111	17697.52
501.314	17916.65
501.517	17855.22
501.72	18021.1
501.923	17822.45
502.126	18821.86
502.329	18895.58
502.532	19106.52
502.735	19327.71
502.938	19256.03
503.141	19581.65
503.344	19956.43
503.547	19552.98
503.75	19976.91
503.953	20374.22
504.156	20675.27
504.359	20749
504.562	21000.9
504.765	21834.42
504.968	21441.21
505.17	22196.91
505.373	22074.03
505.576	22268.59
505.779	22934.18
505.982	22573.74
506.185	23194.27
506.387	23558.81
506.59	23413.4
506.793	24240.78
506.996	24031.89
507.198	24744.58
507.401	24457.87
507.604	24689.29
507.807	25299.58
508.009	25936.5
508.212	25625.21
508.415	26243.7
508.617	26417.77
508.82	26839.65
509.022	26415.72
509.225	27320.93
509.428	27243.1
509.63	27554.4
509.833	27628.12
510.035	28527.18
510.238	28353.1
510.44	28721.74
510.643	29108.8
510.845	29428.29
511.048	29370.94
511.25	29878.84
511.453	30075.45
511.655	31027.75
511.858	30784.04
512.06	30845.48
512.262	31416.86
512.465	31369.76
512.667	32104.98
512.87	32285.2
513.072	31965.72
513.274	33022.47
513.477	33311.24
513.679	33618.43
513.881	34355.7
514.084	34339.32
514.286	34314.74
514.488	34675.18
514.69	35580.39
514.893	35680.74
515.095	35633.63
515.297	36184.54
515.499	36172.25
515.701	36829.65
515.904	37226.95
516.106	37478.85
516.308	37886.4
516.51	38449.59
516.712	37964.22
516.914	38326.71
517.116	39080.36
517.318	39104.94
517.52	39657.89
517.722	39655.84
517.925	39934.37
518.127	40688.02
518.329	41009.55
518.531	40573.33
518.733	41398.66
518.935	42027.39
519.136	41978.24
519.338	42625.4
519.54	42662.26
519.742	43180.4
519.944	43635.05
520.146	43866.47
520.348	44118.37
520.55	44405.08
520.752	44247.39
520.954	45502.79
521.155	45220.17
521.357	45910.34
521.559	45779.27
521.761	46516.54
521.963	46377.28
522.164	46633.27
522.366	47120.69
522.568	47700.26
522.77	47659.3
522.971	48302.37
523.173	47921.44
523.375	47937.83
523.576	48265.5
523.778	48396.57
523.98	49086.74
524.181	49565.96
524.383	49490.19
524.584	49740.04
524.786	49901.83
524.988	50131.2
525.189	50209.03
525.391	50626.81
525.592	51048.69
525.794	51235.06
525.995	51243.25
526.197	51048.69
526.398	51486.96
526.6	51476.72
526.801	51968.23
527.003	52285.67
527.204	52496.61
527.406	52771.03
527.607	52867.29
527.808	53012.7
528.01	52031.72
528.211	52455.65
528.412	53889.23
528.614	53209.3
528.815	53283.03
529.016	53926.09
529.218	53674.19
529.419	53297.36
529.62	53647.57
529.822	53489.87
530.023	54249.67
530.224	53764.3
530.425	53981.38
530.626	53792.97
530.828	53741.77
531.029	54786.24
531.23	54042.82
531.431	54212.8
531.632	53950.66
531.833	54425.79
532.035	54417.6
532.236	54360.26
532.437	54751.42
532.638	54026.44
532.839	54704.32
533.04	55267.51
533.241	54196.42
533.442	55419.06
533.643	54603.97
533.844	54847.68
534.045	55140.53
534.246	54765.76
534.447	55171.25
534.648	55009.46
534.849	54853.82
535.05	54732.99
535.251	54943.93
535.451	55009.46
535.652	54958.27
535.853	55394.48
536.054	55118.01
536.255	54950.07
536.456	54548.67
536.657	55326.9
536.857	54945.98
537.058	54646.97
537.259	55673.01
537.46	54835.39
537.66	54532.29
537.861	54786.24
538.062	55052.47
538.263	55152.82
538.463	55257.27
538.664	54919.35
538.865	54808.76
539.065	54929.59
539.266	54796.48
539.466	55224.5
539.667	54585.54
539.868	55713.97
540.068	54978.75
540.269	54847.68
540.469	55070.9
540.67	55036.09
540.87	54806.72
541.071	54497.47
541.271	55167.16
541.472	54859.96
541.672	54380.74
541.873	54565.06
542.073	54309.06
542.274	55101.62
542.474	54665.41
542.675	54307.01
542.875	55136.44
543.075	54634.69
543.276	54304.96
543.476	55378.1
543.676	54550.72
543.877	55118.01
544.077	54413.51
544.277	54700.22
544.478	54593.73
544.678	54677.69
544.878	54411.46
545.078	54722.75
545.279	54024.39
545.479	54839.48
545.679	54393.03
545.879	54286.53
546.079	54749.37
546.28	54214.85
546.48	53887.18
546.68	54902.97
546.88	54782.14
547.08	54534.34
547.28	54370.5
547.48	54397.12
547.68	54384.83
547.88	54763.71
548.081	54364.35
548.281	54440.13
548.481	54221
548.681	55109.82
548.881	54888.63
549.081	54687.93
549.28	54051.02
549.48	54675.65
549.68	54223.04
549.88	54929.59
550.08	54542.53
550.28	54790.33
550.48	53946.57
550.68	54462.66
550.88	54012.1
551.08	54149.32
551.279	54440.13
551.479	54044.87
551.679	54255.81
551.879	54198.47
552.079	53979.34
552.278	54139.08
552.478	54048.97
552.678	53874.89
552.878	54419.65
553.077	53960.9
553.277	53815.5
553.477	54548.67
553.676	53561.55
553.876	53774.54
554.076	53936.33
554.275	53821.64
554.475	53330.13
554.674	53835.98
554.874	53805.26
555.074	53485.78
555.273	54118.6
555.473	53887.18
555.672	53575.89
555.872	53666
556.071	53872.84
556.271	54145.22
556.47	53231.83
556.67	52932.82
556.869	53600.46
557.068	53852.36
557.268	52871.39
557.467	53496.02
557.667	53156.05
557.866	53410
558.065	53344.47
558.265	52818.14
558.464	53033.17
558.663	53543.12
558.863	52586.72
559.062	53504.21
559.261	52963.54
559.461	53111
559.66	52416.74
559.859	53002.46
560.058	52531.42
560.258	52799.71
560.457	52330.72
560.656	52771.03
560.855	52361.44
561.054	52627.68
561.253	52326.63
561.453	52650.2
561.652	52515.04
561.851	52607.2
562.05	52807.9
562.249	51726.57
562.448	52463.84
562.647	52381.92
562.846	52115.68
563.045	52183.27
563.244	51835.11
563.443	52199.65
563.642	51454.19
563.841	51853.54
564.04	51319.02
564.239	52054.25
564.438	51446
564.637	51624.17
564.836	51495.15
565.035	51183.86
565.234	51572.97
565.432	51425.52
565.631	51208.43
565.83	51570.93
566.029	51056.88
566.228	51087.6
566.427	50553.08
566.625	50716.92
566.824	50321.66
567.023	51192.05
567.222	50278.66
567.42	50505.98
567.619	50491.65
567.818	50329.86
568.016	49930.5
568.215	50753.79
568.414	49953.03
568.612	50602.24
568.811	50028.8
569.01	50245.89
569.208	49604.88
569.407	50088.2
569.605	49656.07
569.804	50069.76
570.002	49629.45
570.201	49656.07
570.4	49334.54
570.598	49228.05
570.797	49185.04
570.995	49021.2
571.193	48736.54
571.392	49172.75
571.59	48779.54
571.789	48722.2
571.987	48855.32
572.186	48757.02
572.384	48740.63
572.582	48859.41
572.781	49025.3
572.979	47671.59
573.177	48294.18
573.376	48359.71
573.574	47718.7
573.772	48109.86
573.971	47903.01
574.169	47567.15
574.367	47092.02
574.565	47573.29
574.763	47606.06
574.962	47464.75
575.16	47014.19
575.358	47313.2
575.556	46639.42
575.754	47081.78
575.952	46506.3
576.151	47155.5
576.349	46268.73
576.547	46166.34
576.745	46344.51
576.943	46321.98
577.141	46266.69
577.339	46162.24
577.537	46154.05
577.735	46057.79
577.933	45660.49
578.131	45619.53
578.329	45365.58
578.527	45304.14
578.725	45461.83
578.923	45584.71
579.121	44853.59
579.319	45314.38
579.516	45130.06
579.714	45074.77
579.912	44581.21
580.11	44407.13
580.308	44783.96
580.506	44583.26
580.704	43813.22
580.901	44124.51
581.099	44425.56
581.297	43657.57
581.495	43762.02
581.692	44073.31
581.89	43495.78
582.088	44265.82
582.285	43452.78
582.483	44089.7
582.681	43577.7
582.878	43356.52
583.076	42934.64
583.274	43082.09
583.471	42639.73
583.669	42948.98
583.866	42625.4
584.064	43108.72
584.262	42115.45
584.459	42742.13
584.657	42140.03
584.854	42523
585.052	41791.87
585.249	42224
585.447	42305.91
585.644	41912.7
585.841	41535.88
586.039	41666.95
586.236	41386.38
586.434	41326.99
586.631	41044.37
586.828	41404.81
587.026	41208.2
587.223	40731.03
587.42	40544.66
587.618	41417.1
587.815	40477.08
588.012	40599.96
588.21	40417.69
588.407	40481.17
588.604	39854.5
588.801	40227.23
588.999	40452.5
589.196	40126.88
589.393	39872.93
589.59	39694.75
589.787	39688.61
589.984	39760.29
590.182	39391.65
590.379	39596.45
590.576	38973.87
590.773	39135.66
590.97	38834.61
591.167	39092.65
591.364	38107.58
591.561	39221.67
591.758	38232.5
591.955	38760.88
592.152	38619.57
592.349	38322.62
592.546	38314.42
592.743	38103.48
592.94	37855.68
593.137	38007.23
593.334	38013.37
593.531	37431.75
593.727	37882.3
593.924	37403.08
594.121	36846.03
594.318	37431.75
594.515	37077.45
594.712	37216.71
594.908	36927.95
595.105	37341.64
595.302	36295.13
595.499	36538.83
595.696	36032.99
595.892	36174.3
596.089	36573.65
596.286	36297.17
596.482	36096.47
596.679	36096.47
596.876	35885.53
597.072	35996.12
597.269	35867.1
597.466	35690.98
597.662	35428.84
597.859	35768.8
598.055	35308.01
598.252	35224.04
598.448	35009
598.645	35142.12
598.841	34750.96
599.038	34841.07
599.234	35197.41
599.431	34417.14
599.627	34365.94
599.824	34486.77
600.02	34064.89
600.217	34281.97
600.413	34136.57
600.609	33653.25
600.806	33407.49
601.002	33925.63
601.198	33700.35
601.395	33122.82
601.591	33421.83
601.787	33733.12
601.984	33161.73
602.18	33761.79
602.376	33116.68
602.572	33120.77
602.769	32850.44
602.965	33049.1
603.161	32971.27
603.357	32893.45
603.553	32555.54
603.75	32315.92
603.946	32358.93
604.142	32563.73
604.338	32021.02
604.534	32074.26
604.73	31838.75
604.926	31556.13
605.122	31900.19
605.318	31425.06
605.514	31582.75
605.71	31429.15
605.906	31449.63
606.102	31328.8
606.298	31238.69
606.494	31273.51
606.69	31197.73
606.886	31455.78
607.082	30429.74
607.278	31177.25
607.474	30865.96
607.67	30902.82
607.866	30157.36
608.062	30548.53
608.257	30374.45
608.453	30612.01
608.649	30325.3
608.845	30001.72
609.041	30216.75
609.236	30151.22
609.432	29989.43
609.628	30134.84
609.824	29635.13
610.019	29897.27
610.215	29911.61
610.411	29930.04
610.606	29784.63
610.802	29719.1
610.998	29696.57
611.193	29606.46
611.389	29145.67
611.584	29418.05
611.78	29332.03
611.976	29024.84
612.171	29438.53
612.367	29172.29
612.562	28832.33
612.758	28881.48
612.953	28848.71
613.149	29264.45
613.344	28445.26
613.539	28899.91
613.735	28779.08
613.93	28787.27
614.126	28648.01
614.321	28715.59
614.517	28979.78
614.712	28582.48
614.907	28156.5
615.103	28398.16
615.298	28371.54
615.493	28314.19
615.688	27992.66
615.884	28506.7
616.079	28105.3
616.274	28074.58
616.47	27914.84
616.665	27906.65
616.86	27722.33
617.055	27722.33
617.25	27691.61
617.445	27624.03
617.641	27220.58
617.836	27638.36
618.031	27226.72
618.226	27517.53
618.421	27189.86
618.616	27355.74
618.811	26604.14
619.006	27384.41
619.201	26542.7
619.396	26673.77
619.591	26706.54
619.786	26851.94
619.981	26065.52
620.176	26405.49
620.371	26135.15
620.566	26110.58
620.761	25979.51
620.956	26047.09
621.151	25768.57
621.346	25664.12
621.541	25614.97
621.735	25807.48
621.93	25031.3
622.125	25260.67
622.32	24834.69
622.515	25012.87
622.709	24613.51
622.904	24519.31
623.099	24756.87
623.294	24148.62
623.488	24058.51
623.683	24445.58
623.878	24017.55
624.072	23802.52
624.267	24031.89
624.462	23620.25
624.656	23433.88
624.851	23442.07
625.046	23392.92
625.24	23155.36
625.435	23157.41
625.629	23038.62
625.824	22452.91
626.018	23069.34
626.213	22340.27
626.407	22667.94
626.602	22016.69
626.796	22395.56
626.991	22112.94
627.185	21912.24
627.38	21889.71
627.574	21525.18
627.768	21635.77
627.963	21426.87
628.157	21172.92
628.352	21248.7
628.546	21019.33
628.74	21303.99
628.935	20841.15
629.129	20894.4
629.323	20572.87
629.517	20458.18
629.712	20593.35
629.906	20452.04
630.1	20050.64
630.294	20433.61
630.489	20077.26
630.683	20249.29
630.877	19768.02
631.071	19563.22
631.265	19682
631.459	19546.84
631.653	19374.81
631.848	19444.44
632.042	19225.31
632.236	19260.12
632.43	19067.61
632.624	19069.66
632.818	18803.43
633.012	18842.34
633.206	18504.42
633.4	18809.57
633.594	18322.15
633.788	18461.41
633.982	18436.84
634.176	18330.34
634.369	17910.51
634.563	18033.39
634.757	17984.24
634.951	17969.9
635.145	17660.66
635.339	17898.22
635.533	17664.75
635.726	17531.64
635.92	17287.93
636.114	17335.03
636.308	17179.39
636.501	17148.67
636.695	17093.37
636.889	16847.61
637.083	16804.61
637.276	16823.04
637.47	16478.98
637.664	16526.08
637.857	16444.17
638.051	16392.97
638.244	16476.93
638.438	16243.46
638.632	16020.24
638.825	16210.7
639.019	15807.25
639.212	15586.07
639.406	15807.25
639.599	15817.49
639.793	15555.35
639.986	15430.42
640.18	15514.39
640.373	15475.48
640.567	15258.39
640.76	15119.13
640.954	15172.38
641.147	15160.09
641.34	14856.99
641.534	14736.16
641.727	14760.73
641.92	14893.85
642.114	14439.2
642.307	14861.09
642.5	14531.36
642.694	14283.56
642.887	14224.17
643.08	14351.14
643.273	14091.05
643.467	14007.08
643.66	13955.88
643.853	13949.74
644.046	13646.64
644.239	13865.77
644.432	13826.86
644.626	13566.77
644.819	13472.56
645.012	13431.6
645.205	13554.48
645.398	13232.95
645.591	13468.47
645.784	13099.83
645.977	12962.62
646.17	13079.35
646.363	12821.31
646.556	12692.29
646.749	12901.18
646.942	12716.86
647.135	12628.8
647.328	12518.21
647.521	12409.67
647.714	12606.27
647.907	12411.71
648.099	12268.36
648.292	12223.3
648.485	12135.24
648.678	11991.88
648.871	12104.52
649.064	11891.53
649.256	11811.66
649.449	11821.9
649.642	11686.73
649.835	11559.76
650.027	11750.22
650.22	11350.87
650.413	11338.58
650.605	11264.85
650.798	11508.56
650.991	11453.27
651.183	11440.98
651.376	11203.41
651.568	11152.21
651.761	11144.02
651.954	11002.71
652.146	10967.9
652.339	10832.73
652.531	10756.96
652.724	10789.72
652.916	10578.78
653.109	10541.92
653.301	10650.46
653.494	10345.31
653.686	10349.41
653.879	10662.75
654.071	10255.2
654.263	10115.94
654.456	10122.09
654.648	10249.06
654.84	9874.28
655.033	10146.66
655.225	9808.75
655.417	9730.92
655.61	9673.58
655.802	9818.99
655.994	9601.9
656.186	9769.83
656.379	9546.61
656.571	9569.13
656.763	9237.36
656.955	9554.8
657.148	9704.3
657.34	9251.7
657.532	9302.9
657.724	9270.13
657.916	9151.35
658.108	9114.48
658.3	9263.99
658.492	8872.82
658.684	8878.97
658.876	8790.91
659.068	8772.47
659.26	8864.63
659.452	8997.75
659.644	8672.12
659.836	8565.63
660.028	8706.94
660.22	8502.14
660.412	8543.1
660.604	8360.83
660.796	8530.81
660.988	8393.6
661.18	8293.25
661.372	8211.33
661.563	8399.74
661.755	8229.76
661.947	8035.21
662.139	8024.97
662.331	7869.32
662.522	8182.66
662.714	7877.51
662.906	7967.62
663.097	7832.46
663.289	7730.06
663.481	7658.38
663.673	7754.63
663.864	7637.9
664.056	7596.94
664.247	7590.8
664.439	7504.78
664.631	7365.52
664.822	7439.25
665.014	7506.83
665.205	7441.29
665.397	7226.26
665.588	7244.69
665.78	7084.95
665.971	7240.59
666.163	7037.84
666.354	7000.98
666.546	7248.79
666.737	7052.18
666.929	6957.97
667.12	7029.65
667.311	6648.73
667.503	6839.19
667.694	6814.62
667.885	6857.62
668.077	6708.12
668.268	6552.48
668.459	6677.4
668.651	6609.82
668.842	6632.35
669.033	6525.85
669.224	6515.61
669.416	6552.48
669.607	6415.26
669.798	6288.29
669.989	6544.28
670.18	6247.33
670.371	6386.59
670.563	6263.71
670.754	6394.78
670.945	6216.61
671.136	6114.21
671.327	6269.86
671.518	6108.07
671.709	6054.82
671.9	6187.94
672.091	6058.92
672.282	5917.61
672.473	5901.22
672.664	5895.08
672.855	5706.66
673.046	5866.41
673.237	5796.78
673.428	5784.49
673.619	5684.14
673.809	5698.47
674	5682.09
674.191	5577.64
674.382	5559.21
674.573	5718.95
674.764	5524.4
674.954	5555.12
675.145	5563.31
675.336	5422
675.527	5501.87
675.717	5528.49
675.908	5286.83
676.099	5522.35
676.289	5405.61
676.48	5350.32
676.671	5391.28
676.861	5301.17
677.052	5292.98
677.243	5049.27
677.433	5211.06
677.624	5297.07
677.814	5077.94
678.005	5288.88
678.195	5112.75
678.386	5112.75
678.576	5034.93
678.767	5067.7
678.957	5145.52
679.148	5016.5
679.338	5000.12
679.529	4979.64
679.719	5125.04
679.909	5034.93
680.1	4930.48
680.29	4914.1
680.481	4961.2
680.671	4883.38
680.861	4793.27
681.052	4922.29
681.242	4864.95
681.432	4821.94
681.622	4797.37
681.813	4766.65
682.003	4688.82
682.193	4801.46
682.383	4682.68
682.573	4551.61
682.764	4797.37
682.954	4680.63
683.144	4684.73
683.334	4529.08
683.524	4522.94
683.714	4651.96
683.904	4586.43
684.094	4680.63
684.284	4490.17
684.474	4524.99
684.664	4658.1
684.854	4545.47
685.044	4346.81
685.234	4318.14
685.424	4481.98
685.614	4395.96
685.804	4289.47
685.994	4404.16
686.184	4371.39
686.374	4352.96
686.564	4371.39
686.753	4287.42
686.943	4348.86
687.133	4340.67
687.323	4266.94
687.513	4334.53
687.702	4266.94
687.892	4158.4
688.082	4154.3
688.272	4158.4
688.461	4117.44
688.651	4240.32
688.841	4234.18
689.03	4125.63
689.22	4076.48
689.41	4088.77
689.599	4162.5
689.789	4289.47
689.979	4092.87
690.168	4027.33
690.358	4027.33
690.547	3908.55
690.737	3986.37
690.926	4084.67
691.116	3982.28
691.305	3972.04
691.495	3881.92
691.684	3953.6
691.874	3955.65
692.063	3931.08
692.252	3922.88
692.442	3933.12
692.631	3929.03
692.82	3922.88
693.01	3769.29
693.199	3898.31
693.388	3701.7
693.578	3806.15
693.767	3873.73
693.956	3812.29
694.146	3677.13
694.335	3810.25
694.524	3675.08
694.713	3726.28
694.902	3664.84
695.092	3607.5
695.281	3797.96
695.47	3691.46
695.659	3539.91
695.848	3640.26
696.037	3578.83
696.226	3621.83
696.415	3546.06
696.604	3544.01
696.793	3650.5
696.982	3507.15
697.171	3509.19
697.36	3474.38
697.549	3523.53
697.738	3400.65
697.927	3675.08
698.116	3580.87
698.305	3470.28
698.494	3398.6
698.683	3374.03
698.872	3400.65
699.061	3388.36
699.25	3363.79
699.438	3486.67
699.627	3378.12
699.816	3335.12
700.005	3314.64
700.193	3316.69
700.382	3310.54
700.571	3421.13
700.76	3369.93
700.948	3300.3
701.137	3337.17
701.326	3308.49
701.514	3247.05
701.703	3208.14
701.892	3308.49
702.08	3331.02
702.269	3288.01
702.457	3152.85
702.646	3204.05
702.834	3193.81
703.023	3322.83
703.212	3138.51
703.4	3118.03
703.589	3077.07
703.777	3111.89
703.965	3193.81
704.154	3167.18
704.342	3060.69
704.531	3107.79
704.719	2970.58
704.907	3120.08
705.096	3054.55
705.284	2972.63
705.472	3087.31
705.661	3034.07
705.849	3128.27
706.037	3105.74
706.226	3027.92
706.414	3077.07
706.602	2958.29
706.79	2847.7
706.979	2954.19
707.167	3036.11
707.355	2948.05
707.543	2927.57
707.731	3009.49
707.919	2919.38
708.107	2857.94
708.296	2868.18
708.484	2753.49
708.672	2890.71
708.86	2964.43
709.048	2882.52
709.236	2866.13
709.424	2903
709.612	2773.97
709.8	2687.96
709.988	2843.6
710.176	2853.84
710.364	2837.46
710.551	2776.02
710.739	2776.02
710.927	2716.63
711.115	2638.81
711.303	2814.93
711.491	2634.71
711.679	2661.34
711.866	2761.69
712.054	2716.63
712.242	2683.86
712.43	2618.33
712.617	2718.68
712.805	2634.71
712.993	2651.1
713.181	2601.94
713.368	2532.31
713.556	2669.53
713.744	2587.61
713.931	2618.33
714.119	2571.22
714.306	2720.73
714.494	2560.98
714.682	2417.63
714.869	2530.27
715.057	2573.27
715.244	2530.27
715.432	2548.7
715.619	2485.21
715.807	2520.03
715.994	2544.6
716.182	2356.19
716.369	2493.4
716.556	2374.62
716.744	2464.73
716.931	2352.09
717.119	2395.1
717.306	2411.48
717.493	2315.23
717.681	2360.28
717.868	2470.87
718.055	2546.65
718.242	2438.11
718.43	2434.01
718.617	2429.91
718.804	2356.19
718.991	2331.61
719.179	2307.04
719.366	2198.49
719.553	2280.41
719.74	2380.76
719.927	2200.54
720.114	2225.12
720.301	2337.76
720.488	2192.35
720.676	2126.82
720.863	2274.27
721.05	2278.37
721.237	2159.58
721.424	2153.44
721.611	2178.01
721.798	2143.2
721.985	2178.01
722.172	2110.43
722.358	2204.64
722.545	2233.31
722.732	2118.62
722.919	2132.96
723.106	2098.14
723.293	2167.77
723.48	2147.3
723.667	2083.81
723.853	2124.77
724.04	2175.97
724.227	2118.62
724.414	2010.08
724.6	2079.71
724.787	2073.57
724.974	1956.83
725.161	2130.91
725.347	1942.5
725.534	2061.28
725.72	2020.32
725.907	2044.9
726.094	2005.99
726.28	1962.98
726.467	1958.88
726.653	1889.25
726.84	1889.25
727.027	2079.71
727.213	1946.59
727.4	1889.25
727.586	1907.68
727.773	1995.75
727.959	1930.21
728.145	1917.92
728.332	1856.48
728.518	1897.44
728.705	1956.83
728.891	1913.83
729.077	1854.44
729.264	1852.39
729.45	1870.82
729.636	1979.36
729.823	1881.06
730.009	1817.57
730.195	1889.25
730.382	1807.33
730.568	1770.47
730.754	1823.72
730.94	1932.26
731.126	1799.14
731.313	1815.52
731.499	1848.29
731.685	1700.84
731.871	1782.76
732.057	1840.1
732.243	1862.63
732.429	1713.13
732.615	1872.87
732.801	1758.18
732.987	1760.23
733.173	1651.69
733.359	1733.61
733.545	1758.18
733.731	1768.42
733.917	1766.37
734.103	1868.77
734.289	1758.18
734.475	1700.84
734.661	1821.67
734.847	1711.08
735.033	1674.21
735.219	1752.04
735.404	1627.11
735.59	1723.37
735.776	1620.97
735.962	1688.55
736.148	1674.21
736.333	1620.97
736.519	1682.41
736.705	1633.26
736.89	1545.19
737.076	1688.55
737.262	1606.63
737.447	1668.07
737.633	1612.78
737.819	1557.48
738.004	1584.1
738.19	1639.4
738.375	1528.81
738.561	1596.39
738.747	1571.82
738.932	1446.89
739.118	1537
739.303	1528.81
739.489	1547.24
739.674	1481.71
739.859	1561.58
740.045	1512.42
740.23	1528.81
740.416	1496.04
740.601	1485.8
740.786	1537
740.972	1410.03
741.157	1471.47
741.342	1481.71
741.528	1483.75
741.713	1537
741.898	1463.27
742.084	1446.89
742.269	1383.4
742.454	1356.78
742.639	1383.4
742.824	1356.78
743.01	1471.47
743.195	1504.23
743.38	1348.59
743.565	1340.4
743.75	1338.35
743.935	1358.83
744.12	1418.22
744.305	1377.26
744.49	1352.68
744.675	1266.67
744.86	1276.91
745.045	1375.21
745.23	1332.2
745.415	1315.82
745.6	1319.92
745.785	1219.57
745.97	1340.4
746.155	1317.87
746.34	1242.09
746.525	1321.96
746.71	1229.81
746.895	1238
747.079	1242.09
747.264	1227.76
747.449	1299.44
747.634	1311.72
747.819	1217.52
748.003	1281
748.188	1172.46
748.373	1364.97
748.557	1276.91
748.742	1209.33
748.927	1141.74
749.111	1147.89
749.296	1201.13
749.481	1131.5
749.665	1135.6
749.85	1102.83
750.034	1160.17
750.219	1172.46
750.404	1186.8
750.588	1070.06
750.773	1115.12
750.957	1072.11
751.141	1131.5
751.326	984.05
751.51	1045.49
751.695	1070.06
751.879	1051.63
752.064	1119.21
752.248	1106.93
752.432	1049.58
752.617	1061.87
752.801	1004.53
752.985	1084.4
753.17	990.19
753.354	1076.21
753.538	1037.3
753.722	975.86
753.907	1039.34
754.091	979.95
754.275	961.52
754.459	947.19
754.643	930.8
754.828	926.71
755.012	1014.77
755.196	947.19
755.38	963.57
755.564	986.1
755.748	889.84
755.932	998.38
756.116	906.23
756.3	943.09
756.484	766.96
756.668	879.6
756.852	873.46
757.036	832.5
757.22	898.03
757.404	840.69
757.588	869.36
757.772	902.13
757.956	805.88
758.14	816.12
758.323	820.21
758.507	879.6
758.691	889.84
758.875	848.88
759.059	824.31
759.242	848.88
759.426	805.88
759.61	889.84
759.794	744.44
759.977	777.2
760.161	816.12
760.345	830.45
760.528	734.2
760.712	832.5
760.895	766.96
761.079	758.77
761.263	713.72
761.446	689.14
761.63	728.05
761.813	812.02
761.997	791.54
762.18	689.14
762.364	748.53
762.547	719.86
762.731	775.16
762.914	721.91
763.098	711.67
763.281	652.28
763.464	701.43
763.648	693.24
763.831	738.29
764.015	711.67
764.198	644.09
764.381	676.85
764.564	703.48
764.748	730.1
764.931	680.95
765.114	635.89
765.297	717.81
765.481	683
765.664	730.1
765.847	668.66
766.03	709.62
766.213	738.29
766.397	668.66
766.58	639.99
766.763	699.38
766.946	689.14
767.129	574.46
767.312	691.19
767.495	648.18
767.678	654.33
767.861	631.8
768.044	660.47
768.227	648.18
768.41	709.62
768.593	635.89
768.776	670.71
768.959	637.94
769.142	775.16
769.324	601.08
769.507	627.7
769.69	674.81
769.873	633.85
770.056	644.09
770.239	654.33
770.421	676.85
770.604	572.41
770.787	603.13
770.97	644.09
771.152	603.13
771.335	615.41
771.518	613.37
771.7	615.41
771.883	664.57
772.066	678.9
772.248	631.8
772.431	594.93
772.613	613.37
772.796	617.46
772.978	693.24
773.161	713.72
773.343	590.84
773.526	506.87
773.708	533.5
773.891	537.59
774.073	488.44
774.256	517.11
774.438	562.17
774.621	533.5
774.803	541.69
774.985	529.4
775.168	533.5
775.35	517.11
775.532	553.98
775.715	439.29
775.897	539.64
776.079	560.12
776.261	545.78
776.444	531.45
776.626	578.55
776.808	472.06
776.99	482.3
777.173	533.5
777.355	482.3
777.537	482.3
777.719	474.1
777.901	545.78
778.083	490.49
778.265	476.15
778.447	433.15
778.629	443.39
778.811	504.82
778.993	414.71
779.175	506.87
779.357	545.78
779.539	447.48
779.721	449.53
779.903	474.1
780.085	480.25
780.267	445.43
780.449	392.19
780.631	596.98
780.812	449.53
780.994	443.39
781.176	381.95
781.358	410.62
781.54	433.15
781.721	406.52
781.903	463.86
782.085	431.1
782.267	410.62
782.448	349.18
782.63	418.81
782.812	441.34
782.993	457.72
783.175	443.39
783.357	324.6
783.538	398.33
783.72	414.71
783.901	402.43
784.083	488.44
784.264	498.68
784.446	267.26
784.627	373.75
784.809	353.27
784.99	369.66
785.172	357.37
785.353	381.95
785.535	367.61
785.716	408.57
785.897	304.12
786.079	400.38
786.26	349.18
786.441	304.12
786.623	343.03
786.804	383.99
786.985	377.85
787.167	361.47
787.348	326.65
787.529	285.69
787.71	300.03
787.891	242.68
788.073	293.88
788.254	267.26
788.435	351.23
788.616	300.03
788.797	218.11
788.978	293.88
789.159	250.88
789.34	304.12
789.522	283.64
789.703	220.16
789.884	328.7
790.065	338.94
790.246	314.36
790.427	302.08
790.607	343.03
790.788	347.13
790.969	218.11
791.15	336.89
791.331	285.69
791.512	324.6
791.693	265.21
791.874	271.36
792.054	345.08
792.235	336.89
792.416	234.49
792.597	211.96
792.778	295.93
792.958	312.32
793.139	308.22
793.32	250.88
793.5	242.68
793.681	242.68
793.862	318.46
794.042	177.15
794.223	283.64
794.404	197.63
794.584	234.49
794.765	263.16
794.945	283.64
795.126	287.74
795.306	209.92
795.487	162.81
795.667	302.08
795.848	148.48
796.028	275.45
796.209	160.77
796.389	277.5
796.57	216.06
796.75	140.29
796.93	216.06
797.111	228.35
797.291	177.15
797.471	218.11
797.652	140.29
797.832	140.29
798.012	228.35
798.192	226.3
798.373	242.68
798.553	146.43
798.733	205.82
798.913	209.92
799.093	252.92
799.274	166.91
799.454	179.2
799.634	166.91
799.814	171.01
799.994	197.63
800.174	242.68
800.354	238.59
800.534	259.07
800.714	187.39
800.894	168.96
801.074	115.71
801.254	185.34
801.434	244.73
801.614	285.69
801.794	121.85
801.974	812.02
802.154	185.34
802.334	234.49
802.514	185.34
802.693	222.2
802.873	197.63
803.053	236.54
803.233	187.39
803.413	185.34
803.592	171.01
803.772	201.72
803.952	193.53
804.131	187.39
804.311	152.57
804.491	154.62
804.67	123.9
804.85	128
805.03	128
805.209	140.29
805.389	144.38
805.568	93.18
805.748	189.44
805.928	193.53
806.107	103.42
806.287	171.01
806.466	285.69
806.646	183.29
806.825	144.38
807.004	146.43
807.184	128
807.363	121.85
807.543	189.44
807.722	54.27
807.901	158.72
808.081	152.57
808.26	95.23
808.439	111.61
808.619	121.85
808.798	125.95
808.977	117.76
809.156	164.86
809.336	160.77
809.515	101.37
809.694	87.04
809.873	64.51
810.052	195.58
810.231	123.9
810.411	128
810.59	168.96
810.769	146.43
810.948	156.67
811.127	89.09
811.306	103.42
811.485	144.38
811.664	177.15
811.843	142.33
812.022	156.67
812.201	123.9
812.38	109.57
812.559	142.33
812.737	87.04
812.916	115.71
813.095	78.85
813.274	95.23
813.453	144.38
813.632	132.09
813.811	152.57
813.989	78.85
814.168	136.19
814.347	121.85
814.526	93.18
814.704	103.42
814.883	123.9
815.062	136.19
815.24	93.18
815.419	136.19
815.598	48.13
815.776	60.42
815.955	17.41
816.133	56.32
816.312	39.94
816.49	109.57
816.669	31.74
816.847	50.18
817.026	99.33
817.204	50.18
817.383	128
817.561	82.94
817.74	107.52
817.918	91.13
818.097	130.05
818.275	46.08
818.453	160.77
818.632	179.2
818.81	64.51
818.988	113.66
819.167	78.85
819.345	52.22
819.523	82.94
819.701	87.04
819.879	72.7
820.058	56.32
820.236	117.76
820.414	132.09
820.592	39.94
820.77	78.85
820.948	121.85
821.127	58.37
821.305	19.46
821.483	140.29
821.661	125.95
821.839	95.23
822.017	142.33
822.195	103.42
822.373	95.23
822.551	64.51
822.729	160.77
822.907	95.23
823.085	119.81
823.262	109.57
823.44	33.79
823.618	87.04
823.796	25.6
823.974	121.85
824.152	31.74
824.329	46.08
824.507	119.81
824.685	103.42
824.863	105.47
825.04	121.85
825.218	62.46
825.396	119.81
825.574	148.48
825.751	130.05
825.929	17.41
826.107	64.51
826.284	39.94
826.462	95.23
826.639	33.79
826.817	15.36
826.994	119.81
827.172	31.74
827.349	70.65
827.527	78.85
827.704	72.7
827.882	31.74
828.059	-7.17
828.237	101.37
828.414	48.13
828.591	-23.55
828.769	101.37
828.946	52.22
829.124	95.23
829.301	111.61
829.478	62.46
829.655	109.57
829.833	95.23
830.01	5.12
830.187	29.7
830.364	70.65
830.542	21.5
830.719	154.62
830.896	64.51
831.073	78.85
831.25	62.46
831.427	97.28
831.604	99.33
831.782	82.94
831.959	105.47
832.136	95.23
832.313	48.13
832.49	48.13
832.667	121.85
832.844	33.79
833.021	78.85
833.198	31.74
833.374	60.42
833.551	50.18
833.728	1.02
833.905	64.51
834.082	60.42
834.259	58.37
834.436	107.52
834.612	105.47
834.789	70.65
834.966	44.03
835.143	60.42
835.319	33.79
835.496	111.61
835.673	33.79
835.85	111.61
836.026	58.37
836.203	23.55
836.38	56.32
836.556	25.6
836.733	62.46
836.909	132.09
837.086	31.74
837.262	64.51
837.439	23.55
837.616	82.94
837.792	132.09
837.968	91.13
838.145	17.41
838.321	119.81
838.498	62.46
838.674	11.26
838.851	41.98
839.027	5.12
839.203	66.56
839.38	103.42
839.556	-41.98
839.732	54.27
839.909	107.52
840.085	13.31
840.261	78.85
840.437	56.32
840.614	31.74
840.79	99.33
840.966	35.84
841.142	7.17
841.318	91.13
841.494	13.31
841.671	56.32
841.847	37.89
842.023	62.46
842.199	48.13
842.375	97.28
842.551	-41.98
842.727	1.02
842.903	48.13
843.079	31.74
843.255	70.65
843.431	52.22
843.607	7.17
843.783	-21.5
843.959	97.28
844.134	29.7
844.31	54.27
844.486	103.42
844.662	9.22
844.838	62.46
845.013	27.65
845.189	-50.18
845.365	39.94
845.541	60.42
845.716	29.7
845.892	33.79
846.068	29.7
846.244	70.65
846.419	99.33
846.595	138.24
846.77	121.85
846.946	37.89
847.122	50.18
847.297	50.18
847.473	93.18
847.648	37.89
847.824	87.04
847.999	-7.17
848.175	37.89
848.35	39.94
848.526	64.51
848.701	7.17
848.876	62.46
849.052	91.13
849.227	60.42
849.403	-19.46
849.578	37.89
849.753	74.75
849.929	37.89
850.104	5.12
850.279	17.41
850.454	82.94
850.63	89.09
850.805	37.89
850.98	19.46
851.155	-29.7
851.33	41.98
851.505	13.31
851.681	111.61
851.856	-27.65
852.031	78.85
852.206	78.85
852.381	5.12
852.556	3.07
852.731	97.28
852.906	46.08
853.081	62.46
853.256	84.99
853.431	-3.07
853.606	21.5
853.781	-1.02
853.956	-68.61
854.131	-3.07
854.305	54.27
854.48	-31.74
854.655	89.09
854.83	9.22
855.005	7.17
855.18	-19.46
855.354	23.55
855.529	13.31
855.704	-7.17
855.879	78.85
856.053	-17.41
856.228	72.7
856.403	-33.79
856.577	-5.12
856.752	-23.55
856.926	7.17
857.101	80.89
857.276	87.04
857.45	-5.12
857.625	121.85
857.799	89.09
857.974	-58.37
858.148	7.17
858.323	15.36
858.497	23.55
858.672	-19.46
858.846	-3.07
859.02	70.65
859.195	-44.03
859.369	-1.02
859.543	15.36
859.718	-11.26
859.892	-17.41
860.066	52.22
860.241	44.03
860.415	5.12
860.589	-33.79
860.763	41.98
860.938	58.37
861.112	-44.03
861.286	-1.02
861.46	52.22
861.634	25.6
861.808	48.13
861.982	46.08
862.157	-9.22
862.331	21.5
862.505	21.5
862.679	7.17
862.853	-46.08
863.027	48.13
863.201	113.66
863.375	25.6
863.549	-3.07
863.722	91.13
863.896	39.94
864.07	-25.6
864.244	-15.36
864.418	70.65
864.592	-44.03
864.766	46.08
864.939	72.7
865.113	13.31
865.287	48.13
865.461	-52.22
865.634	50.18
865.808	31.74
865.982	-87.04
866.156	17.41
866.329	7.17
866.503	74.75
866.676	41.98
866.85	119.81
867.024	60.42
867.197	48.13
867.371	29.7
867.544	74.75
867.718	1.02
867.891	13.31
868.065	-11.26
868.238	23.55
868.412	21.5
868.585	93.18
868.759	15.36
868.932	-27.65
869.105	-35.84
869.279	-7.17
869.452	-35.84
869.625	66.56
869.799	130.05
869.972	-27.65
870.145	91.13
870.319	99.33
870.492	-19.46
870.665	-33.79
870.838	-41.98
871.011	-11.26
871.185	-5.12
871.358	1.02
871.531	68.61
871.704	5.12
871.877	31.74
872.05	37.89
872.223	37.89
872.396	19.46
872.569	58.37
872.742	-1.02
872.915	25.6
873.088	-64.51
873.261	-41.98
873.434	-44.03
873.607	1.02
873.78	54.27
873.953	-52.22
874.126	-21.5
874.299	54.27
874.471	25.6
874.644	37.89
874.817	-37.89
874.99	37.89
875.163	-35.84
875.335	-15.36
875.508	-1.02
875.681	72.7
875.853	-50.18
876.026	3.07
876.199	-9.22
876.371	46.08
876.544	-66.56
876.717	21.5
876.889	-11.26
877.062	23.55
877.234	1.02
877.407	-93.18
877.579	-50.18
877.752	-15.36
877.924	23.55
878.097	41.98
878.269	-11.26
878.442	-7.17
878.614	-21.5
878.786	74.75
878.959	3.07
879.131	33.79
879.303	-23.55
879.476	5.12
879.648	89.09
879.82	54.27
879.993	35.84
880.165	48.13
880.337	-3.07
880.509	-19.46
880.681	29.7
880.854	-64.51
881.026	-48.13
881.198	142.33
881.37	-19.46
881.542	21.5
881.714	21.5
881.886	-78.85
882.058	27.65
882.23	15.36
882.402	-35.84
882.574	-25.6
882.746	-19.46
882.918	105.47
883.09	25.6
883.262	-74.75
883.434	-46.08
883.606	-21.5
883.778	-15.36
883.95	-35.84
884.122	52.22
884.293	37.89
884.465	-13.31
884.637	72.7
884.809	-17.41
884.98	37.89
885.152	-11.26
885.324	-11.26
885.496	-82.94
885.667	95.23
885.839	-15.36
886.011	54.27
886.182	-27.65
886.354	21.5
886.525	29.7
886.697	-33.79
886.869	62.46
887.04	15.36
887.212	48.13
887.383	1.02
887.555	5.12
887.726	41.98
887.897	23.55
888.069	29.7
888.24	87.04
888.412	7.17
888.583	-11.26
888.754	46.08
888.926	-31.74
889.097	31.74
889.268	25.6
889.44	23.55
889.611	15.36
889.782	-7.17
889.953	33.79
890.125	103.42
890.296	-15.36
890.467	5.12
890.638	-15.36
890.809	3.07
890.98	1.02
891.151	70.65
891.323	-27.65
891.494	64.51
891.665	-48.13
891.836	82.94
892.007	15.36
892.178	-3.07
892.349	-76.8
892.52	-39.94
892.691	-39.94
892.862	-66.56
893.032	-9.22
893.203	-60.42
893.374	19.46
893.545	74.75
893.716	-97.28
893.887	7.17
894.057	-39.94
894.228	-19.46
894.399	74.75
894.57	46.08
894.74	29.7
894.911	54.27
895.082	-39.94
895.253	68.61
895.423	-27.65
895.594	78.85
895.764	-41.98
895.935	-41.98
896.106	37.89
896.276	41.98
896.447	23.55
896.617	-27.65
896.788	-31.74
896.958	-21.5
897.129	-15.36
897.299	-11.26
897.47	5.12
897.64	1.02
897.81	5.12
897.981	87.04
898.151	-66.56
898.322	41.98
898.492	37.89
898.662	-7.17
898.832	37.89
899.003	-19.46
899.173	11.26
899.343	72.7
899.513	-39.94
