Data from USB4F104151__46__14-43-01-145.txt Node

Date: Thu Mar 13 14:43:01 EDT 2025
User: louis
Spectrometer: USB4F10415
Trigger mode: 4
Integration Time (sec): 2.000000E-2
Scans to average: 1
Electric dark correction enabled: true
Nonlinearity correction enabled: false
Boxcar width: 0
XAxis mode: Wavelengths
Number of Pixels in Spectrum: 3648
>>>>>Begin Spectral Data<<<<<
178.204	-105.13
178.424	-105.13
178.644	-105.13
178.864	-109.23
179.084	-88.75
179.304	-29.35
179.524	-6.83
179.744	-51.88
179.964	75.09
180.184	21.84
180.404	44.37
180.624	-39.59
180.844	5.46
181.064	-47.79
181.283	-4.78
181.503	60.76
181.723	-27.31
181.943	-105.13
182.163	7.51
182.383	-68.27
182.602	-6.83
182.822	71
183.042	-19.11
183.262	13.65
183.482	-62.12
183.701	5.46
183.921	62.8
184.141	-0.68
184.361	23.89
184.58	-6.83
184.8	-23.21
185.02	71
185.239	154.96
185.459	56.66
185.679	107.86
185.898	-10.92
186.118	62.8
186.338	-6.83
186.557	83.28
186.777	-23.21
186.997	-12.97
187.216	-47.79
187.436	48.47
187.655	21.84
187.875	15.7
188.095	13.65
188.314	71
188.534	17.75
188.753	68.95
188.973	71
189.192	32.08
189.412	38.23
189.631	1.37
189.851	42.32
190.07	46.42
190.29	-88.75
190.509	-0.68
190.729	7.51
190.948	34.13
191.168	64.85
191.387	95.57
191.607	5.46
191.826	64.85
192.045	40.28
192.265	-25.26
192.484	-19.11
192.704	62.8
192.923	9.56
193.142	66.9
193.362	38.23
193.581	5.46
193.8	64.85
194.02	79.19
194.239	-27.31
194.458	5.46
194.678	56.66
194.897	46.42
195.116	-49.83
195.335	56.66
195.555	52.56
195.774	58.71
195.993	9.56
196.212	-84.65
196.432	58.71
196.651	-27.31
196.87	-8.87
197.089	81.24
197.308	40.28
197.528	40.28
197.747	-45.74
197.966	15.7
198.185	50.52
198.404	-17.07
198.623	79.19
198.842	68.95
199.062	21.84
199.281	-19.11
199.5	-25.26
199.719	46.42
199.938	42.32
200.157	-17.07
200.376	34.13
200.595	46.42
200.814	-33.45
201.033	34.13
201.252	81.24
201.471	-10.92
201.69	56.66
201.909	-17.07
202.128	17.75
202.347	9.56
202.566	11.61
202.785	56.66
203.004	7.51
203.223	73.04
203.442	-29.35
203.661	5.46
203.879	38.23
204.098	50.52
204.317	-43.69
204.536	79.19
204.755	95.57
204.974	38.23
205.193	-23.21
205.411	75.09
205.63	34.13
205.849	62.8
206.068	79.19
206.287	42.32
206.505	42.32
206.724	-6.83
206.943	-0.68
207.162	-12.97
207.381	58.71
207.599	-29.35
207.818	-33.45
208.037	71
208.255	48.47
208.474	30.04
208.693	111.96
208.911	91.48
209.13	46.42
209.349	30.04
209.567	-10.92
209.786	32.08
210.005	-37.55
210.223	99.67
210.442	7.51
210.661	-10.92
210.879	13.65
211.098	7.51
211.316	11.61
211.535	42.32
211.753	56.66
211.972	-43.69
212.191	-10.92
212.409	7.51
212.628	-8.87
212.846	-45.74
213.065	68.95
213.283	95.57
213.502	62.8
213.72	54.61
213.938	30.04
214.157	62.8
214.375	42.32
214.594	21.84
214.812	-43.69
215.031	25.94
215.249	21.84
215.467	54.61
215.686	81.24
215.904	17.75
216.122	21.84
216.341	32.08
216.559	48.47
216.778	58.71
216.996	-19.11
217.214	30.04
217.432	54.61
217.651	17.75
217.869	9.56
218.087	122.2
218.306	5.46
218.524	-35.5
218.742	-35.5
218.96	52.56
219.179	75.09
219.397	-8.87
219.615	62.8
219.833	50.52
220.051	-31.4
220.27	140.63
220.488	11.61
220.706	27.99
220.924	71
221.142	46.42
221.36	75.09
221.578	17.75
221.796	25.94
222.015	15.7
222.233	-17.07
222.451	46.42
222.669	-27.31
222.887	25.94
223.105	11.61
223.323	1.37
223.541	-35.5
223.759	21.84
223.977	-10.92
224.195	1.37
224.413	-25.26
224.631	38.23
224.849	-17.07
225.067	91.48
225.285	15.7
225.503	19.8
225.721	-49.83
225.939	73.04
226.157	83.28
226.375	83.28
226.592	66.9
226.81	97.62
227.028	-15.02
227.246	21.84
227.464	56.66
227.682	75.09
227.9	23.89
228.117	32.08
228.335	97.62
228.553	58.71
228.771	11.61
228.989	38.23
229.206	-15.02
229.424	105.81
229.642	30.04
229.86	-37.55
230.077	116.05
230.295	30.04
230.513	83.28
230.731	46.42
230.948	62.8
231.166	73.04
231.384	60.76
231.601	-8.87
231.819	13.65
232.037	5.46
232.254	-82.6
232.472	5.46
232.689	56.66
232.907	81.24
233.125	13.65
233.342	9.56
233.56	1.37
233.777	-64.17
233.995	56.66
234.213	99.67
234.43	25.94
234.648	-19.11
234.865	52.56
235.083	48.47
235.3	122.2
235.518	34.13
235.735	87.38
235.953	13.65
236.17	21.84
236.388	1.37
236.605	27.99
236.822	169.3
237.04	21.84
237.257	-23.21
237.475	-2.73
237.692	40.28
237.909	-2.73
238.127	30.04
238.344	25.94
238.562	44.37
238.779	-0.68
238.996	-2.73
239.214	-8.87
239.431	50.52
239.648	-35.5
239.865	58.71
240.083	13.65
240.3	56.66
240.517	30.04
240.735	56.66
240.952	79.19
241.169	79.19
241.386	83.28
241.603	30.04
241.821	30.04
242.038	71
242.255	114
242.472	87.38
242.689	15.7
242.907	130.39
243.124	-35.5
243.341	44.37
243.558	30.04
243.775	-55.98
243.992	-51.88
244.209	118.1
244.426	114
244.643	-2.73
244.86	23.89
245.078	62.8
245.295	13.65
245.512	36.18
245.729	-53.93
245.946	54.61
246.163	21.84
246.38	46.42
246.597	114
246.814	42.32
247.031	46.42
247.248	64.85
247.464	-35.5
247.681	23.89
247.898	5.46
248.115	34.13
248.332	15.7
248.549	152.91
248.766	25.94
248.983	42.32
249.2	-0.68
249.417	54.61
249.633	1.37
249.85	64.85
250.067	-43.69
250.284	44.37
250.501	7.51
250.717	50.52
250.934	25.94
251.151	79.19
251.368	23.89
251.585	13.65
251.801	54.61
252.018	-72.36
252.235	7.51
252.451	30.04
252.668	64.85
252.885	56.66
253.102	-37.55
253.318	-35.5
253.535	15.7
253.752	71
253.968	34.13
254.185	-43.69
254.401	-6.83
254.618	103.76
254.835	73.04
255.051	130.39
255.268	1.37
255.484	120.15
255.701	21.84
255.917	46.42
256.134	46.42
256.351	50.52
256.567	-64.17
256.784	15.7
257	13.65
257.217	30.04
257.433	64.85
257.65	7.51
257.866	62.8
258.082	66.9
258.299	62.8
258.515	81.24
258.732	-23.21
258.948	-19.11
259.165	5.46
259.381	79.19
259.597	-49.83
259.814	62.8
260.03	48.47
260.246	81.24
260.463	-6.83
260.679	44.37
260.895	19.8
261.112	40.28
261.328	56.66
261.544	-10.92
261.761	34.13
261.977	21.84
262.193	-33.45
262.409	91.48
262.626	7.51
262.842	103.76
263.058	-10.92
263.274	46.42
263.49	-2.73
263.707	13.65
263.923	3.41
264.139	46.42
264.355	-10.92
264.571	40.28
264.787	-29.35
265.004	46.42
265.22	19.8
265.436	-10.92
265.652	46.42
265.868	36.18
266.084	-2.73
266.3	73.04
266.516	-6.83
266.732	62.8
266.948	5.46
267.164	25.94
267.38	-17.07
267.596	99.67
267.812	38.23
268.028	19.8
268.244	91.48
268.46	54.61
268.676	46.42
268.892	32.08
269.108	21.84
269.324	62.8
269.54	21.84
269.756	42.32
269.972	23.89
270.188	-2.73
270.403	-29.35
270.619	15.7
270.835	81.24
271.051	38.23
271.267	48.47
271.483	40.28
271.698	60.76
271.914	89.43
272.13	30.04
272.346	-31.4
272.562	95.57
272.777	62.8
272.993	-0.68
273.209	87.38
273.425	40.28
273.64	-8.87
273.856	17.75
274.072	50.52
274.287	5.46
274.503	7.51
274.719	15.7
274.934	40.28
275.15	30.04
275.366	-19.11
275.581	7.51
275.797	5.46
276.012	25.94
276.228	-27.31
276.444	-39.59
276.659	30.04
276.875	75.09
277.09	52.56
277.306	-2.73
277.521	38.23
277.737	13.65
277.952	-51.88
278.168	-6.83
278.383	-8.87
278.599	62.8
278.814	40.28
279.03	120.15
279.245	32.08
279.461	-23.21
279.676	21.84
279.892	54.61
280.107	-41.64
280.322	11.61
280.538	-35.5
280.753	-90.79
280.969	40.28
281.184	-33.45
281.399	46.42
281.615	58.71
281.83	87.38
282.045	17.75
282.26	23.89
282.476	38.23
282.691	21.84
282.906	17.75
283.122	-8.87
283.337	30.04
283.552	62.8
283.767	-51.88
283.983	56.66
284.198	-51.88
284.413	-2.73
284.628	46.42
284.843	5.46
285.058	36.18
285.274	46.42
285.489	15.7
285.704	21.84
285.919	5.46
286.134	95.57
286.349	-15.02
286.564	-0.68
286.779	81.24
286.995	103.76
287.21	15.7
287.425	-15.02
287.64	-76.46
287.855	-0.68
288.07	-27.31
288.285	62.8
288.5	9.56
288.715	56.66
288.93	75.09
289.145	25.94
289.36	46.42
289.575	5.46
289.79	46.42
290.004	-55.98
290.219	40.28
290.434	38.23
290.649	-10.92
290.864	52.56
291.079	34.13
291.294	30.04
291.509	-58.03
291.724	-19.11
291.938	-15.02
292.153	46.42
292.368	56.66
292.583	62.8
292.798	23.89
293.012	50.52
293.227	64.85
293.442	-8.87
293.657	62.8
293.871	25.94
294.086	32.08
294.301	107.86
294.516	40.28
294.73	34.13
294.945	13.65
295.16	42.32
295.374	34.13
295.589	17.75
295.804	97.62
296.018	58.71
296.233	38.23
296.447	30.04
296.662	52.56
296.877	40.28
297.091	-4.78
297.306	23.89
297.52	19.8
297.735	101.72
297.949	38.23
298.164	54.61
298.378	105.81
298.593	-15.02
298.807	25.94
299.022	11.61
299.236	48.47
299.451	32.08
299.665	15.7
299.88	-41.64
300.094	-0.68
300.309	15.7
300.523	99.67
300.737	30.04
300.952	5.46
301.166	50.52
301.381	38.23
301.595	7.51
301.809	-10.92
302.024	23.89
302.238	-49.83
302.452	79.19
302.667	42.32
302.881	73.04
303.095	-51.88
303.309	40.28
303.524	-0.68
303.738	111.96
303.952	25.94
304.166	54.61
304.381	-6.83
304.595	50.52
304.809	-43.69
305.023	5.46
305.237	68.95
305.452	-19.11
305.666	-10.92
305.88	71
306.094	25.94
306.308	25.94
306.522	50.52
306.736	13.65
306.95	-2.73
307.164	46.42
307.379	27.99
307.593	87.38
307.807	-0.68
308.021	32.08
308.235	-19.11
308.449	9.56
308.663	-2.73
308.877	107.86
309.091	34.13
309.305	46.42
309.519	46.42
309.733	103.76
309.947	-23.21
310.161	48.47
310.374	132.44
310.588	105.81
310.802	7.51
311.016	66.9
311.23	-23.21
311.444	-60.07
311.658	75.09
311.872	71
312.085	5.46
312.299	48.47
312.513	21.84
312.727	50.52
312.941	21.84
313.154	99.67
313.368	1.37
313.582	81.24
313.796	46.42
314.009	62.8
314.223	17.75
314.437	32.08
314.651	19.8
314.864	11.61
315.078	11.61
315.292	-17.07
315.505	13.65
315.719	56.66
315.933	36.18
316.146	-0.68
316.36	-64.17
316.573	58.71
316.787	-15.02
317.001	56.66
317.214	77.14
317.428	89.43
317.641	30.04
317.855	13.65
318.068	46.42
318.282	71
318.495	9.56
318.709	97.62
318.922	-2.73
319.136	71
319.349	50.52
319.563	23.89
319.776	46.42
319.99	38.23
320.203	-19.11
320.417	46.42
320.63	-4.78
320.843	87.38
321.057	73.04
321.27	48.47
321.483	30.04
321.697	27.99
321.91	71
322.124	25.94
322.337	62.8
322.55	71
322.763	93.52
322.977	30.04
323.19	50.52
323.403	48.47
323.617	42.32
323.83	54.61
324.043	44.37
324.256	99.67
324.469	87.38
324.683	128.34
324.896	5.46
325.109	15.7
325.322	5.46
325.535	81.24
325.748	44.37
325.962	68.95
326.175	-8.87
326.388	-8.87
326.601	56.66
326.814	13.65
327.027	-0.68
327.24	85.33
327.453	-55.98
327.666	75.09
327.879	62.8
328.092	44.37
328.305	48.47
328.518	25.94
328.731	46.42
328.944	54.61
329.157	58.71
329.37	38.23
329.583	85.33
329.796	79.19
330.009	-21.16
330.222	46.42
330.435	64.85
330.648	27.99
330.861	79.19
331.073	48.47
331.286	-10.92
331.499	5.46
331.712	73.04
331.925	9.56
332.138	25.94
332.35	30.04
332.563	38.23
332.776	13.65
332.989	21.84
333.202	21.84
333.414	73.04
333.627	58.71
333.84	-0.68
334.053	89.43
334.265	-29.35
334.478	13.65
334.691	38.23
334.903	-19.11
335.116	32.08
335.329	-23.21
335.541	30.04
335.754	27.99
335.966	52.56
336.179	40.28
336.392	9.56
336.604	46.42
336.817	9.56
337.029	17.75
337.242	-2.73
337.454	21.84
337.667	15.7
337.88	56.66
338.092	56.66
338.305	21.84
338.517	-19.11
338.729	66.9
338.942	111.96
339.154	-33.45
339.367	1.37
339.579	97.62
339.792	23.89
340.004	21.84
340.217	30.04
340.429	7.51
340.641	40.28
340.854	58.71
341.066	-10.92
341.278	79.19
341.491	3.41
341.703	32.08
341.915	21.84
342.128	56.66
342.34	13.65
342.552	-10.92
342.764	38.23
342.977	56.66
343.189	73.04
343.401	103.76
343.613	1.37
343.826	7.51
344.038	44.37
344.25	95.57
344.462	38.23
344.674	-27.31
344.886	-31.4
345.099	42.32
345.311	48.47
345.523	-37.55
345.735	1.37
345.947	-0.68
346.159	103.76
346.371	-19.11
346.583	1.37
346.795	157.01
347.007	64.85
347.219	5.46
347.431	13.65
347.643	97.62
347.855	56.66
348.067	48.47
348.279	1.37
348.491	75.09
348.703	81.24
348.915	13.65
349.127	-21.16
349.339	71
349.551	50.52
349.763	66.9
349.975	-23.21
350.187	64.85
350.399	34.13
350.61	73.04
350.822	54.61
351.034	30.04
351.246	42.32
351.458	40.28
351.669	66.9
351.881	79.19
352.093	13.65
352.305	99.67
352.517	85.33
352.728	126.29
352.94	7.51
353.152	-17.07
353.363	-68.27
353.575	44.37
353.787	66.9
353.999	5.46
354.21	126.29
354.422	38.23
354.633	17.75
354.845	23.89
355.057	73.04
355.268	5.46
355.48	17.75
355.692	13.65
355.903	3.41
356.115	5.46
356.326	-0.68
356.538	-10.92
356.749	40.28
356.961	64.85
357.172	-10.92
357.384	7.51
357.595	38.23
357.807	-0.68
358.018	91.48
358.23	38.23
358.441	21.84
358.653	124.24
358.864	34.13
359.075	-2.73
359.287	48.47
359.498	54.61
359.709	97.62
359.921	38.23
360.132	9.56
360.344	99.67
360.555	60.76
360.766	114
360.977	13.65
361.189	62.8
361.4	21.84
361.611	87.38
361.823	21.84
362.034	71
362.245	42.32
362.456	25.94
362.667	44.37
362.879	30.04
363.09	83.28
363.301	42.32
363.512	11.61
363.723	-15.02
363.935	-35.5
364.146	58.71
364.357	83.28
364.568	118.1
364.779	52.56
364.99	95.57
365.201	13.65
365.412	93.52
365.623	38.23
365.834	56.66
366.045	54.61
366.256	87.38
366.467	21.84
366.678	87.38
366.889	27.99
367.1	9.56
367.311	52.56
367.522	5.46
367.733	130.39
367.944	46.42
368.155	50.52
368.366	38.23
368.577	46.42
368.788	107.86
368.999	13.65
369.209	64.85
369.42	91.48
369.631	126.29
369.842	103.76
370.053	62.8
370.264	46.42
370.474	7.51
370.685	54.61
370.896	46.42
371.107	99.67
371.317	-15.02
371.528	21.84
371.739	56.66
371.95	62.8
372.16	-29.35
372.371	15.7
372.582	62.8
372.792	71
373.003	79.19
373.214	64.85
373.424	66.9
373.635	40.28
373.846	79.19
374.056	34.13
374.267	62.8
374.477	54.61
374.688	-2.73
374.898	-2.73
375.109	95.57
375.319	71
375.53	130.39
375.74	136.53
375.951	46.42
376.161	46.42
376.372	30.04
376.582	11.61
376.793	130.39
377.003	21.84
377.214	54.61
377.424	97.62
377.635	85.33
377.845	38.23
378.055	32.08
378.266	56.66
378.476	30.04
378.686	50.52
378.897	-19.11
379.107	54.61
379.317	7.51
379.528	-51.88
379.738	93.52
379.948	-0.68
380.158	38.23
380.369	-25.26
380.579	-15.02
380.789	118.1
380.999	79.19
381.21	46.42
381.42	73.04
381.63	91.48
381.84	103.76
382.05	44.37
382.261	56.66
382.471	17.75
382.681	-19.11
382.891	120.15
383.101	36.18
383.311	81.24
383.521	5.46
383.731	66.9
383.941	97.62
384.151	32.08
384.361	89.43
384.571	99.67
384.781	87.38
384.991	83.28
385.201	71
385.411	-2.73
385.621	66.9
385.831	81.24
386.041	107.86
386.251	21.84
386.461	83.28
386.671	15.7
386.881	54.61
387.091	15.7
387.301	83.28
387.511	-0.68
387.72	66.9
387.93	81.24
388.14	7.51
388.35	48.47
388.56	5.46
388.769	95.57
388.979	91.48
389.189	79.19
389.399	71
389.609	54.61
389.818	56.66
390.028	48.47
390.238	3.41
390.447	107.86
390.657	85.33
390.867	73.04
391.076	25.94
391.286	9.56
391.496	136.53
391.705	68.95
391.915	79.19
392.125	169.3
392.334	30.04
392.544	40.28
392.753	79.19
392.963	-39.59
393.172	25.94
393.382	1.37
393.591	134.48
393.801	44.37
394.01	79.19
394.22	105.81
394.429	54.61
394.639	64.85
394.848	103.76
395.058	81.24
395.267	52.56
395.477	124.24
395.686	21.84
395.895	144.72
396.105	146.77
396.314	52.56
396.524	114
396.733	34.13
396.942	87.38
397.152	87.38
397.361	62.8
397.57	95.57
397.78	58.71
397.989	89.43
398.198	95.57
398.407	128.34
398.617	95.57
398.826	71
399.035	75.09
399.244	52.56
399.453	40.28
399.663	157.01
399.872	124.24
400.081	144.72
400.29	62.8
400.499	83.28
400.708	157.01
400.917	97.62
401.127	120.15
401.336	107.86
401.545	152.91
401.754	120.15
401.963	103.76
402.172	105.81
402.381	25.94
402.59	3.41
402.799	122.2
403.008	154.96
403.217	79.19
403.426	91.48
403.635	38.23
403.844	114
404.053	157.01
404.262	120.15
404.471	161.11
404.68	128.34
404.888	173.39
405.097	154.96
405.306	136.53
405.515	111.96
405.724	163.15
405.933	163.15
406.142	140.63
406.35	243.03
406.559	122.2
406.768	99.67
406.977	212.31
407.185	197.97
407.394	197.97
407.603	132.44
407.812	226.64
408.02	195.92
408.229	181.59
408.438	210.26
408.646	251.22
408.855	210.26
409.064	240.98
409.272	212.31
409.481	171.35
409.69	212.31
409.898	269.65
410.107	296.27
410.315	263.51
410.524	232.79
410.733	294.22
410.941	267.6
411.15	341.33
411.358	390.48
411.567	417.1
411.775	404.82
411.984	361.81
412.192	441.68
412.401	415.05
412.609	456.01
412.818	456.01
413.026	537.93
413.234	413.01
413.443	378.19
413.651	478.54
413.86	513.36
414.068	562.51
414.276	544.08
414.485	578.89
414.693	591.18
414.901	693.58
415.11	646.48
415.318	640.33
415.526	677.19
415.734	716.11
415.943	611.66
416.151	703.82
416.359	783.69
416.567	728.39
416.776	793.93
416.984	955.72
417.192	902.47
417.4	898.38
417.608	963.91
417.817	957.77
418.025	1037.64
418.233	1045.83
418.441	1041.73
418.649	1111.36
418.857	1152.32
419.065	1185.09
419.273	1174.85
419.481	1230.15
419.689	1346.88
419.897	1353.02
420.105	1316.16
420.313	1443.14
420.521	1449.28
420.729	1531.2
420.937	1545.53
421.145	1586.49
421.353	1611.07
421.561	1768.76
421.769	1742.14
421.977	1918.26
422.185	1848.63
422.393	1944.89
422.601	2106.68
422.809	2053.43
423.017	2080.05
423.224	2184.5
423.432	2245.94
423.64	2200.88
423.848	2522.41
424.056	2374.96
424.263	2639.15
424.471	2587.95
424.679	2653.48
424.887	2653.48
425.094	2866.47
425.302	2934.06
425.51	2979.11
425.718	3097.89
425.925	3151.14
426.133	3106.09
426.341	3415.33
426.548	3456.29
426.756	3589.41
426.964	3417.38
427.171	3759.39
427.379	3882.27
427.586	3994.9
427.794	4058.39
428.001	4261.14
428.209	4502.8
428.417	4406.55
428.624	4601.1
428.832	4541.71
429.039	4625.68
429.247	4588.82
429.454	5088.52
429.662	5428.48
429.869	5176.58
430.076	5412.1
430.284	5285.12
430.491	5489.92
430.699	5784.83
430.906	5774.59
431.114	5862.65
431.321	6221.05
431.528	6282.49
431.736	6616.3
431.943	6862.06
432.15	6718.7
432.358	6716.65
432.565	7046.38
432.772	7189.74
432.979	7511.27
433.187	7664.86
433.394	7754.97
433.601	8248.54
433.808	8242.39
434.016	7951.58
434.223	8393.94
434.43	8869.07
434.637	8981.71
434.844	9399.49
435.052	9549
435.259	9456.84
435.466	9635.01
435.673	9288.9
435.88	9983.16
436.087	10470.58
436.294	10742.96
436.501	10261.69
436.708	10646.71
436.915	10806.45
437.122	11289.77
437.329	11586.72
437.537	11697.31
437.743	11740.32
437.95	11877.54
438.157	12514.45
438.364	12817.55
438.571	12582.04
438.778	12981.39
438.985	14062.72
439.192	13452.42
439.399	14099.58
439.606	13542.53
439.813	14611.57
440.02	15438.95
440.227	15068.27
440.433	15070.32
440.64	15266.92
440.847	15307.88
441.054	15733.86
441.261	16645.21
441.467	16364.64
441.674	16804.95
441.881	17335.37
442.088	17476.68
442.294	17357.9
442.501	17493.07
442.708	17957.96
442.914	18582.59
443.121	19459.12
443.328	18820.15
443.534	20128.8
443.741	19649.58
443.948	19420.21
444.154	20952.09
444.361	20900.89
444.568	20593.69
444.774	20845.59
444.981	21367.82
445.187	21718.03
445.394	22668.28
445.6	22434.81
445.807	24540.13
446.013	23557.1
446.22	23639.02
446.426	24513.5
446.633	24953.82
446.839	25897.93
447.046	24667.1
447.252	26135.49
447.459	26352.58
447.665	25983.94
447.871	27130.81
448.078	28365.73
448.284	27055.03
448.491	27708.33
448.697	28896.16
448.903	29262.74
449.11	29545.36
449.316	28992.41
449.522	29440.92
449.728	30565.25
449.935	30782.34
450.141	30333.83
450.347	31380.34
450.553	30149.51
450.76	30751.62
450.966	31933.29
451.172	31392.63
451.378	32033.64
451.584	31701.87
451.791	32111.47
451.997	31992.69
452.203	32660.32
452.409	32914.27
452.615	32420.71
452.821	31363.96
453.027	31140.73
453.233	32875.36
453.44	31685.49
453.646	31599.48
453.852	31794.03
454.058	32486.25
454.264	31249.27
454.47	32240.49
454.676	31382.39
454.882	32480.1
455.088	29479.83
455.294	30253.96
455.5	30526.34
455.705	30935.93
455.911	29625.23
456.117	29213.59
456.323	28855.2
456.529	27327.41
456.735	28408.74
456.941	27734.96
457.147	27257.78
457.352	26352.58
457.558	26266.56
457.764	26225.61
457.97	25678.8
458.176	25394.13
458.381	25381.84
458.587	24210.4
458.793	24091.62
458.999	22828.03
459.204	24368.1
459.41	23598.06
459.616	22242.31
459.821	22479.87
460.027	22105.09
460.233	21421.07
460.438	20640.79
460.644	20814.87
460.85	19991.59
461.055	19549.23
461.261	19786.79
461.466	18119.74
461.672	17685.58
461.878	18721.85
462.083	17617.99
462.289	17175.63
462.494	17243.21
462.7	16268.38
462.905	15848.55
463.111	16405.6
463.316	16493.66
463.522	16208.99
463.727	16299.1
463.932	16208.99
464.138	15819.88
464.343	16063.58
464.549	15709.29
464.754	16104.54
464.959	15834.21
465.165	15742.05
465.37	15293.55
465.575	14668.92
465.781	15344.75
465.986	15369.32
466.191	14906.48
466.397	14615.67
466.602	13886.59
466.807	14470.26
467.012	14507.13
467.218	14232.7
467.423	14095.49
467.628	14163.07
467.833	14836.85
468.038	14304.38
468.244	13890.69
468.449	14310.52
468.654	14134.4
468.859	13988.99
469.064	13782.15
469.269	13282.44
469.474	13329.55
469.679	13571.21
469.885	13171.85
470.09	13446.28
470.295	13272.2
470.5	13159.56
470.705	13032.59
470.91	12838.03
471.115	12534.93
471.32	13184.14
471.525	13126.8
471.73	12633.24
471.935	12266.65
472.139	12059.81
472.344	11916.45
472.549	11908.26
472.754	11902.11
472.959	11734.18
473.164	11392.17
473.369	11302.06
473.574	11670.69
473.778	11312.3
473.983	11482.28
474.188	11369.64
474.393	10839.22
474.598	10908.85
474.802	10777.78
475.007	10724.53
475.212	10927.28
475.417	10271.93
475.621	10482.87
475.826	10491.06
476.031	10339.51
476.235	10065.08
476.44	10253.5
476.645	9909.44
476.849	9925.82
477.054	9741.5
477.259	9819.33
477.463	9757.89
477.668	9655.49
477.872	9743.55
478.077	9360.58
478.282	9356.49
478.486	9147.59
478.691	9032.91
478.895	9188.55
479.1	8977.61
479.304	9073.87
479.509	8846.54
479.713	8994
479.918	8830.16
480.122	8660.18
480.326	8787.15
480.531	8817.87
480.735	8543.44
480.94	8482
481.144	8955.08
481.348	8391.89
481.553	8555.73
481.757	8383.7
481.961	8418.52
482.166	8547.54
482.37	8371.41
482.574	8314.07
482.778	8312.02
482.983	8473.81
483.187	8615.12
483.391	8537.3
483.595	8381.65
483.8	8226.01
484.004	8439
484.208	8443.09
484.412	8357.08
484.616	8307.93
484.821	8582.35
485.025	8361.17
485.229	8340.69
485.433	8350.93
485.637	8324.31
485.841	8336.6
486.045	8340.69
486.249	8099.03
486.453	8262.87
486.657	8328.41
486.861	8436.95
487.065	8248.54
487.269	8316.12
487.473	8281.3
487.677	8533.2
487.881	8570.07
488.085	8223.96
488.289	8418.52
488.493	8328.41
488.697	8330.45
488.901	8262.87
489.105	8418.52
489.309	8246.49
489.512	8684.75
489.716	8596.69
489.92	8447.19
490.124	8373.46
490.328	8578.26
490.531	8475.86
490.735	8604.88
490.939	8508.63
491.143	8500.44
491.346	8533.2
491.55	8799.44
491.754	8815.82
491.958	8699.09
492.161	8895.69
492.365	8819.92
492.569	8844.49
492.772	8860.88
492.976	8766.67
493.18	9063.63
493.383	8996.04
493.587	8969.42
493.79	9159.88
493.994	9037
494.197	9155.79
494.401	9241.8
494.605	9288.9
494.808	9319.62
495.012	9389.25
495.215	9508.04
495.419	9635.01
495.622	9499.84
495.825	9505.99
496.029	9647.3
496.232	9909.44
496.436	9938.11
496.639	10056.89
496.843	10048.7
497.046	10355.9
497.249	10278.07
497.453	10556.6
497.656	10499.25
497.859	10603.7
498.063	10675.38
498.266	10888.37
498.469	10794.16
498.673	10824.88
498.876	11146.41
499.079	11097.26
499.282	11220.14
499.485	11420.84
499.689	11547.81
499.892	11941.02
500.095	11637.92
500.298	12018.85
500.501	11795.62
500.705	12121.24
500.908	12596.37
501.111	12450.97
501.314	12594.33
501.517	12762.26
501.72	13087.89
501.923	12778.64
502.126	13071.5
502.329	13397.13
502.532	13393.03
502.735	13714.56
502.938	13681.8
503.141	13751.43
503.344	14081.15
503.547	14103.68
503.75	14103.68
503.953	14312.57
504.156	14517.37
504.359	14957.68
504.562	14685.3
504.765	15176.81
504.968	15174.77
505.17	15250.54
505.373	15383.66
505.576	15701.09
505.779	15826.02
505.982	15719.53
506.185	16172.13
506.387	16276.57
506.59	16297.05
506.793	16594.01
506.996	16389.21
507.198	17374.28
507.401	17216.59
507.604	17443.92
507.807	17433.68
508.009	17792.07
508.212	17740.87
508.415	18082.88
508.617	18046.02
508.82	18644.02
509.022	18244.67
509.225	18531.39
509.428	19106.87
509.63	19110.96
509.833	19158.06
510.035	19450.92
510.238	19498.03
510.44	19969.06
510.643	20055.08
510.845	20134.95
511.048	20272.16
511.25	20567.07
511.453	20782.1
511.655	21226.51
511.858	21191.7
512.06	21605.39
512.262	21435.41
512.465	21478.41
512.667	21871.62
512.87	21832.71
513.072	22166.53
513.274	22637.56
513.477	23178.23
513.679	23073.78
513.881	23278.58
514.084	23579.63
514.286	23387.12
514.488	23722.99
514.69	24091.62
514.893	24181.73
515.095	24077.29
515.297	24710.11
515.499	24507.36
515.701	25091.03
515.904	25162.71
516.106	25426.9
516.308	25584.59
516.51	26119.11
516.712	25965.51
516.914	26328
517.116	26848.19
517.318	26983.35
517.52	27046.84
517.722	27040.7
517.925	27526.07
518.127	27831.21
518.329	28105.64
518.531	27636.66
518.733	28386.21
518.935	28787.61
519.136	28461.99
519.338	29129.62
519.54	29107.1
519.742	29592.47
519.944	29625.23
520.146	29858.7
520.348	30223.24
520.55	30053.26
520.752	30249.86
520.954	31079.29
521.155	30315.4
521.357	31259.51
521.559	31249.27
521.761	31765.36
521.963	31898.48
522.164	31998.83
522.366	32172.91
522.568	32351.08
522.77	32381.8
522.971	33102.68
523.173	32740.19
523.375	33346.39
523.576	32920.42
523.778	33299.29
523.98	33915.73
524.181	33532.76
524.383	33909.58
524.584	34128.72
524.786	34390.86
524.988	34106.19
525.189	34634.56
525.391	34630.47
525.592	34888.51
525.794	34816.83
525.995	35195.71
526.197	35390.27
526.398	35685.17
526.6	35345.21
526.801	35656.5
527.003	35806
527.204	35904.31
527.406	36367.15
527.607	36057.9
527.808	36432.68
528.01	35859.25
528.211	36481.83
528.412	37274.4
528.614	36444.97
528.815	36832.04
529.016	37059.36
529.218	36948.77
529.419	37274.4
529.62	36932.39
529.822	36991.78
530.023	37159.71
530.224	37458.71
530.425	37346.08
530.626	37073.7
530.828	37036.83
531.029	37751.57
531.23	37120.8
531.431	37579.54
531.632	37569.3
531.833	37731.09
532.035	37663.51
532.236	37554.97
532.437	37890.84
532.638	37698.33
532.839	37972.75
533.04	37896.98
533.241	37665.56
533.442	38253.33
533.643	37843.73
533.844	37991.19
534.045	37905.17
534.246	37667.61
534.447	37903.12
534.648	37958.42
534.849	37765.91
535.05	38089.49
535.251	37972.75
535.451	37886.74
535.652	38417.16
535.853	37933.84
536.054	37847.83
536.255	38101.78
536.456	37286.68
536.657	38368.01
536.857	38038.29
537.058	38163.21
537.259	38351.63
537.46	38275.85
537.66	37892.88
537.861	38177.55
538.062	37968.66
538.263	38230.8
538.463	37688.09
538.664	37686.04
538.865	38032.14
539.065	38228.75
539.266	37432.09
539.466	38234.89
539.667	37413.66
539.868	38161.17
540.068	37602.07
540.269	37802.77
540.469	38071.06
540.67	37851.92
540.87	38193.93
541.071	37716.76
541.271	37653.27
541.472	37786.39
541.672	37530.39
541.873	37798.68
542.073	37270.3
542.274	38099.73
542.474	38009.62
542.675	37647.13
542.875	38009.62
543.075	37724.95
543.276	37118.75
543.476	37952.27
543.676	37583.64
543.877	37716.76
544.077	37841.68
544.277	37677.85
544.478	37462.81
544.678	37720.85
544.878	37569.3
545.078	37862.16
545.279	37401.37
545.479	37577.5
545.679	37735.19
545.879	37583.64
546.079	37516.06
546.28	37819.16
546.48	37307.16
546.68	37339.93
546.88	37673.75
547.08	37509.91
547.28	37802.77
547.48	37395.23
547.68	37919.51
547.88	37471
548.081	37487.39
548.281	37473.05
548.481	36901.67
548.681	37620.5
548.881	37745.43
549.081	37528.34
549.28	36971.3
549.48	37425.95
549.68	37260.06
549.88	37882.64
550.08	37423.9
550.28	37423.9
550.48	37454.62
550.68	37505.82
550.88	37055.26
551.08	37362.46
551.279	37456.67
551.479	37083.94
551.679	37319.45
551.879	37143.33
552.079	37155.61
552.278	36989.73
552.478	37245.72
552.678	37317.4
552.878	37159.71
553.077	36643.62
553.277	36647.72
553.477	37255.96
553.676	36670.25
553.876	37002.02
554.076	36731.68
554.275	36954.91
554.475	36657.96
554.674	36932.39
554.874	36944.67
555.074	36473.64
555.273	37102.37
555.473	37221.15
555.672	36789.03
555.872	36942.63
556.071	36592.42
556.271	36973.35
556.47	36277.04
556.67	36045.62
556.869	36584.23
557.068	36410.15
557.268	36434.73
557.467	36426.54
557.667	36530.98
557.866	36150.06
558.065	36107.05
558.265	35980.08
558.464	35853.11
558.663	36322.09
558.863	35865.39
559.062	36557.61
559.261	35736.37
559.461	36285.23
559.66	35773.24
559.859	36029.23
560.058	35515.19
560.258	35703.6
560.457	35248.96
560.656	35846.96
560.855	35750.71
561.054	35838.77
561.253	35322.68
561.453	35382.07
561.652	35480.38
561.851	35738.42
562.05	35269.44
562.249	34927.42
562.448	35668.79
562.647	35418.94
562.846	35443.51
563.045	35197.76
563.244	34868.03
563.443	35420.98
563.642	34417.48
563.841	35187.52
564.04	34784.07
564.239	35283.77
564.438	34536.26
564.637	34685.76
564.836	34595.65
565.035	34157.39
565.234	34696
565.432	34245.45
565.631	34237.26
565.83	34409.29
566.029	34497.35
566.228	34263.88
566.427	33960.78
566.625	33794.9
566.824	33467.22
567.023	33905.49
567.222	33510.23
567.42	33917.78
567.619	33688.4
567.818	33491.8
568.016	33606.48
568.215	33878.86
568.414	33059.68
568.612	33932.11
568.811	33459.03
569.01	33760.08
569.208	33174.36
569.407	33583.96
569.605	32768.87
569.804	33469.27
570.002	32768.87
570.201	33067.87
570.4	32672.61
570.598	32703.33
570.797	32430.95
570.995	32533.35
571.193	32082.8
571.392	33043.29
571.59	32197.48
571.789	32297.83
571.987	32287.59
572.186	32342.89
572.384	32142.19
572.582	32203.63
572.781	32066.41
572.979	31687.54
573.177	31949.68
573.376	31888.24
573.574	31527.8
573.772	31458.17
573.971	31335.29
574.169	31384.44
574.367	31267.7
574.565	31189.88
574.763	31247.22
574.962	30915.45
575.16	30665.6
575.358	30989.18
575.556	30856.06
575.754	30952.32
575.952	30731.14
576.151	30944.13
576.349	30438.28
576.547	30362.5
576.745	30548.87
576.943	30469
577.141	30389.13
577.339	30372.74
577.537	30092.17
577.735	29795.21
577.933	30065.55
578.131	30067.59
578.329	29870.99
578.527	29768.59
578.725	29715.34
578.923	29934.48
579.121	29721.49
579.319	29524.88
579.516	29727.63
579.714	29766.54
579.912	29266.84
580.11	29260.69
580.308	29184.92
580.506	29113.24
580.704	28615.58
580.901	28967.84
581.099	28851.1
581.297	29000.6
581.495	29019.03
581.692	28779.42
581.89	28210.09
582.088	28562.34
582.285	28359.59
582.483	28687.26
582.681	28251.05
582.878	28285.86
583.076	28119.98
583.274	28488.61
583.471	27990.95
583.669	28052.39
583.866	27966.38
584.064	28111.78
584.262	27669.42
584.459	27976.62
584.657	27472.82
584.854	27958.19
585.052	27208.63
585.249	27554.74
585.447	27710.38
585.644	27216.82
585.841	27175.86
586.039	27222.97
586.236	27116.47
586.434	26831.8
586.631	27110.33
586.828	26805.18
587.026	26856.38
587.223	26618.82
587.42	26373.06
587.618	26596.29
587.815	26393.54
588.012	26287.04
588.21	26258.37
588.407	26276.8
588.604	26022.86
588.801	26092.49
588.999	25811.92
589.196	25820.11
589.393	26020.81
589.59	25777.1
589.787	25691.09
589.984	25387.99
590.182	25326.55
590.379	25510.86
590.576	25410.51
590.773	25531.34
590.97	25181.14
591.167	25500.62
591.364	24849.37
591.561	24906.71
591.758	24873.95
591.955	25236.44
592.152	25031.64
592.349	24742.88
592.546	25037.78
592.743	24884.19
592.94	24558.56
593.137	24525.79
593.334	24640.48
593.531	24347.62
593.727	24466.4
593.924	24558.56
594.121	24243.17
594.318	24429.54
594.515	23780.33
594.712	24200.16
594.908	23747.56
595.105	24065
595.302	23682.03
595.499	23866.35
595.696	23510
595.892	23411.7
596.089	23569.39
596.286	23510
596.482	23239.67
596.679	23290.87
596.876	23497.71
597.072	23120.88
597.269	23249.91
597.466	22725.63
597.662	23004.15
597.859	22868.98
598.055	22737.91
598.252	22879.22
598.448	22762.49
598.645	22565.88
598.841	22432.77
599.038	22541.31
599.234	22445.05
599.431	22400
599.627	22379.52
599.824	22637.56
600.02	22307.84
600.217	22191.11
600.413	22025.22
600.609	21869.58
600.806	21773.32
601.002	22107.14
601.198	21734.41
601.395	21750.79
601.591	21720.07
601.787	21404.69
601.984	21347.34
602.18	21863.43
602.376	21281.81
602.572	21257.23
602.769	21373.97
602.965	21292.05
603.161	21210.13
603.357	20888.6
603.553	21015.57
603.75	20968.47
603.946	20784.15
604.142	20933.65
604.338	20671.51
604.534	20829.21
604.73	20810.78
604.926	20427.81
605.122	20534.3
605.318	20411.42
605.514	20489.24
605.71	20415.52
605.906	20012.07
606.102	20472.86
606.298	20427.81
606.494	20298.78
606.69	20071.46
606.886	20184.1
607.082	19745.83
607.278	20210.72
607.474	19647.53
607.67	19942.44
607.866	19565.61
608.062	19960.87
608.257	19553.32
608.453	19784.74
608.649	19819.56
608.845	19272.75
609.041	19665.96
609.236	19418.16
609.432	19344.43
609.628	19160.11
609.824	19610.67
610.019	19221.55
610.215	19352.62
610.411	19231.79
610.606	19119.15
610.802	19461.16
610.998	19039.28
611.193	19055.67
611.389	18834.49
611.584	18949.17
611.78	18842.68
611.976	18789.43
612.171	19096.63
612.367	18766.9
612.562	18691.13
612.758	18428.99
612.953	18338.88
613.149	18945.08
613.344	18287.68
613.539	18820.15
613.735	18689.08
613.93	18691.13
614.126	18289.73
614.321	18715.7
614.517	18318.4
614.712	18469.95
614.907	18373.69
615.103	18322.49
615.298	18334.78
615.493	18371.65
615.688	17859.65
615.884	18420.8
616.079	18021.44
616.274	18240.58
616.47	18021.44
616.665	18203.71
616.86	17802.31
617.055	17572.94
617.25	17876.04
617.445	18132.03
617.641	17437.77
617.836	17810.5
618.031	17564.75
618.226	17615.94
618.421	17630.28
618.616	17695.82
618.811	17298.51
619.006	17665.1
619.201	17282.13
619.396	17398.86
619.591	17140.82
619.786	17286.22
619.981	17142.86
620.176	17343.56
620.371	16716.89
620.566	16792.66
620.761	16700.5
620.956	16948.31
621.151	16481.37
621.346	16774.23
621.541	16540.76
621.735	16544.86
621.93	16317.53
622.125	16471.13
622.32	16096.35
622.515	16219.23
622.709	16342.11
622.904	16147.55
623.099	15686.76
623.294	16065.63
623.488	15594.6
623.683	15940.71
623.878	15400.04
624.072	15441
624.267	15379.56
624.462	15400.04
624.656	15101.04
624.851	15049.84
625.046	14963.82
625.24	14834.8
625.435	14756.98
625.629	14660.73
625.824	14845.04
626.018	14865.52
626.213	14259.32
626.407	14548.09
626.602	14292.09
626.796	14742.64
626.991	14457.98
627.185	14263.42
627.38	14113.92
627.574	13743.24
627.768	13784.19
627.963	13943.94
628.157	13546.63
628.352	13810.82
628.546	13663.36
628.74	13677.7
628.935	13399.18
629.129	13517.96
629.323	13386.89
629.517	13327.5
629.712	13292.68
629.906	13241.48
630.1	13014.16
630.294	12967.06
630.489	13012.11
630.683	13032.59
630.877	12727.44
631.071	12739.73
631.265	12956.82
631.459	12496.02
631.653	12588.18
631.848	12659.86
632.042	12389.53
632.236	12506.26
632.43	12311.71
632.624	12569.75
632.818	12332.19
633.012	12111
633.206	12182.68
633.4	12164.25
633.594	11834.53
633.788	11957.41
633.982	11728.03
634.176	11719.84
634.369	11564.2
634.563	11605.16
634.757	11488.42
634.951	11463.85
635.145	11572.39
635.339	11408.55
635.533	11386.02
635.726	11226.28
635.92	11338.92
636.114	11138.22
636.308	11089.07
636.501	11019.44
636.695	11019.44
636.889	10890.42
637.083	11019.44
637.276	10722.48
637.47	10871.98
637.664	10691.76
637.857	10609.84
638.051	10697.91
638.244	10523.83
638.438	10525.88
638.632	10425.53
638.825	10511.54
639.019	10409.14
639.212	10425.53
639.406	10296.5
639.599	10067.13
639.793	10220.73
639.986	9917.63
640.18	9938.11
640.373	9768.13
640.567	9655.49
640.76	9829.57
640.954	9716.93
641.147	9612.48
641.34	9585.86
641.534	9753.79
641.727	9589.95
641.92	9622.72
642.114	9534.66
642.307	9356.49
642.5	9395.4
642.694	9295.05
642.887	9159.88
643.08	9245.9
643.273	9004.24
643.467	9256.14
643.66	8989.9
643.853	9002.19
644.046	8930.51
644.239	9051.34
644.432	8862.93
644.626	8758.48
644.819	8795.34
645.012	8950.99
645.205	8781.01
645.398	8711.38
645.591	8733.9
645.784	8666.32
645.977	8422.61
646.17	8541.39
646.363	8633.55
646.556	8398.04
646.749	8496.34
646.942	8127.71
647.135	8271.06
647.328	7980.25
647.521	8189.14
647.714	8013.02
647.907	8101.08
648.099	8043.74
648.292	8031.45
648.485	7828.7
648.678	7951.58
648.871	7853.28
649.064	7671.01
649.256	8041.69
649.449	7761.12
649.642	7726.3
649.835	7646.43
650.027	7523.55
650.22	7437.54
650.413	7453.92
650.605	7525.6
650.798	7480.55
650.991	7415.01
651.183	7361.76
651.376	7118.06
651.568	7527.65
651.761	7159.02
651.954	7337.19
652.146	7222.5
652.339	7335.14
652.531	7197.93
652.724	7126.25
652.916	7095.53
653.109	6943.98
653.301	7109.86
653.494	7021.8
653.686	6714.61
653.879	7042.28
654.071	7001.32
654.263	6712.56
654.456	6792.43
654.648	6839.53
654.84	6507.76
655.033	6622.45
655.225	6497.52
655.417	6509.81
655.61	6626.54
655.802	6495.47
655.994	6468.85
656.186	6495.47
656.379	6507.76
656.571	6372.6
656.763	6235.38
656.955	6227.19
657.148	6210.81
657.34	6329.59
657.532	6192.37
657.724	6167.8
657.916	6206.71
658.108	5887.23
658.3	5934.33
658.492	6128.89
658.684	5979.39
658.876	5872.89
659.068	5952.76
659.26	5895.42
659.452	5903.61
659.644	5862.65
659.836	5897.47
660.028	5776.64
660.22	5684.48
660.412	5741.82
660.604	5735.68
660.796	5709.05
660.988	5672.19
661.18	5588.22
661.372	5602.56
661.563	5586.18
661.755	5465.35
661.947	5399.81
662.139	5516.55
662.331	5356.8
662.522	5285.12
662.714	5266.69
662.906	5309.7
663.097	5213.45
663.289	5362.95
663.481	5149.96
663.673	5299.46
663.864	5170.44
664.056	5139.72
664.247	5121.29
664.439	5051.66
664.631	5006.6
664.822	5051.66
665.014	5074.18
665.205	5078.28
665.397	5012.74
665.588	4936.97
665.78	4853
665.971	4775.18
666.163	4904.2
666.354	4605.2
666.546	4855.05
666.737	4732.17
666.929	4832.52
667.12	4558.1
667.311	4857.1
667.503	4730.13
667.694	4621.58
667.885	4736.27
668.077	4766.99
668.268	4445.46
668.459	4607.25
668.651	4463.89
668.842	4584.72
669.033	4445.46
669.224	4594.96
669.416	4633.87
669.607	4437.27
669.798	4566.29
669.989	4439.31
670.18	4513.04
670.371	4470.03
670.563	4287.76
670.754	4582.67
670.945	4291.86
671.136	4388.11
671.327	4226.32
671.518	4347.15
671.709	4199.7
671.9	4211.99
672.091	4316.44
672.282	4148.5
672.473	4240.66
672.664	4179.22
672.855	4226.32
673.046	4093.21
673.237	4160.79
673.428	3964.18
673.619	4029.72
673.809	4046.1
674	4130.07
674.191	4158.74
674.382	3949.85
674.573	3937.56
674.764	3955.99
674.954	4109.59
675.145	3915.03
675.336	3790.11
675.527	3872.03
675.717	3921.18
675.908	3880.22
676.099	3847.45
676.289	3812.64
676.48	3859.74
676.671	3773.72
676.861	3824.92
677.052	3644.7
677.243	3757.34
677.433	3618.08
677.624	3677.47
677.814	3665.18
678.005	3726.62
678.195	3755.29
678.386	3736.86
678.576	3730.72
678.767	3700
678.957	3609.89
679.148	3677.47
679.338	3693.85
679.529	3642.65
679.719	3683.61
679.909	3673.37
680.1	3611.93
680.29	3663.13
680.481	3552.54
680.671	3642.65
680.861	3417.38
681.052	3581.21
681.242	3482.91
681.432	3495.2
681.622	3458.34
681.813	3487.01
682.003	3439.9
682.193	3386.66
682.383	3552.54
682.573	3536.16
682.764	3405.09
682.954	3407.14
683.144	3464.48
683.334	3478.82
683.524	3388.71
683.714	3419.43
683.904	3362.08
684.094	3357.99
684.284	3380.51
684.474	3321.12
684.664	3360.03
684.854	3417.38
685.044	3357.99
685.234	3245.35
685.424	3261.73
685.614	3245.35
685.804	3228.96
685.994	3190.05
686.184	3265.83
686.374	3298.59
686.564	3237.16
686.753	3104.04
686.943	3161.38
687.133	3216.68
687.323	3128.61
687.513	3130.66
687.702	3110.18
687.892	3085.61
688.082	3169.57
688.272	3167.52
688.461	3134.76
688.651	3145
688.841	3138.85
689.03	3018.02
689.22	2929.96
689.41	3075.37
689.599	2964.78
689.789	3011.88
689.979	2981.16
690.168	2819.37
690.358	2899.24
690.547	3044.65
690.737	2946.34
690.926	2993.45
691.116	2866.47
691.305	2880.81
691.495	2854.19
691.684	2882.86
691.874	2946.34
692.063	2802.99
692.252	2889
692.442	2876.71
692.631	2788.65
692.82	2727.21
693.01	2774.31
693.199	2774.31
693.388	2676.01
693.578	2704.68
693.767	2802.99
693.956	2710.83
694.146	2786.6
694.335	2655.53
694.524	2716.97
694.713	2637.1
694.902	2696.49
695.092	2643.24
695.281	2546.99
695.47	2655.53
695.659	2598.19
695.848	2475.31
696.037	2620.72
696.226	2581.81
696.415	2612.53
696.604	2581.81
696.793	2516.27
696.982	2585.9
697.171	2557.23
697.36	2596.14
697.549	2544.94
697.738	2544.94
697.927	2503.98
698.116	2530.61
698.305	2438.45
698.494	2413.87
698.683	2516.27
698.872	2590
699.061	2454.83
699.25	2434.35
699.438	2446.64
699.627	2581.81
699.816	2522.41
700.005	2393.39
700.193	2514.22
700.382	2352.43
700.571	2555.18
700.76	2385.2
700.948	2374.96
701.137	2307.38
701.326	2352.43
701.514	2381.1
701.703	2450.74
701.892	2479.41
702.08	2454.83
702.269	2364.72
702.457	2381.1
702.646	2374.96
702.834	2241.84
703.023	2358.58
703.212	2514.22
703.4	2399.54
703.589	2348.34
703.777	2415.92
703.965	2397.49
704.154	2284.85
704.342	2463.02
704.531	2299.19
704.719	2229.56
704.907	2409.78
705.096	2250.03
705.284	2280.75
705.472	2338.1
705.661	2422.06
705.849	2301.23
706.037	2340.15
706.226	2276.66
706.414	2211.12
706.602	2303.28
706.79	2354.48
706.979	2284.85
707.167	2268.47
707.355	2194.74
707.543	2245.94
707.731	2340.15
707.919	2118.96
708.107	2372.91
708.296	2264.37
708.484	2329.91
708.672	2348.34
708.86	2268.47
709.048	2254.13
709.236	2276.66
709.424	2264.37
709.612	2299.19
709.8	2063.67
709.988	2190.64
710.176	2221.36
710.364	2202.93
710.551	2272.56
710.739	2264.37
710.927	2295.09
711.115	2334
711.303	2245.94
711.491	2268.47
711.679	2227.51
711.866	2278.71
712.054	2217.27
712.242	2317.62
712.43	2301.23
712.617	2293.04
712.805	2424.11
712.993	2204.98
713.181	2247.99
713.368	2237.75
713.556	2286.9
713.744	2325.81
713.931	2395.44
714.119	2340.15
714.306	2180.4
714.494	2229.56
714.682	2225.46
714.869	2129.2
715.057	2260.27
715.244	2118.96
715.432	2299.19
715.619	2360.63
715.807	2229.56
715.994	2272.56
716.182	2237.75
716.369	2295.09
716.556	2313.52
716.744	2250.03
716.931	2086.2
717.119	2252.08
717.306	2227.51
717.493	2315.57
717.681	2299.19
717.868	2260.27
718.055	2243.89
718.242	2233.65
718.43	2239.8
718.617	2217.27
718.804	2159.92
718.991	2129.2
719.179	2223.41
719.366	2278.71
719.553	2086.2
719.74	2204.98
719.927	2282.8
720.114	2151.73
720.301	2270.51
720.488	2250.03
720.676	2139.44
720.863	2276.66
721.05	2258.23
721.237	2223.41
721.424	2334
721.611	2252.08
721.798	2176.31
721.985	2192.69
722.172	2245.94
722.358	2303.28
722.545	2118.96
722.732	2334
722.919	2247.99
723.106	2219.32
723.293	2198.84
723.48	2182.45
723.667	2258.23
723.853	2284.85
724.04	2217.27
724.227	2252.08
724.414	2229.56
724.6	2180.4
724.787	2194.74
724.974	2317.62
725.161	2200.88
725.347	2245.94
725.534	2233.65
725.72	2213.17
725.907	2125.11
726.094	2301.23
726.28	2161.97
726.467	2241.84
726.653	2225.46
726.84	2270.51
727.027	2319.67
727.213	2372.91
727.4	2372.91
727.586	2299.19
727.773	2200.88
727.959	2227.51
728.145	2200.88
728.332	2241.84
728.518	2131.25
728.705	2282.8
728.891	2321.71
729.077	2241.84
729.264	2219.32
729.45	2397.49
729.636	2254.13
729.823	2250.03
730.009	2252.08
730.195	2342.19
730.382	2311.47
730.568	2139.44
730.754	2211.12
730.94	2192.69
731.126	2395.44
731.313	2340.15
731.499	2307.38
731.685	2303.28
731.871	2207.03
732.057	2315.57
732.243	2405.68
732.429	2293.04
732.615	2192.69
732.801	2266.42
732.987	2225.46
733.173	2325.81
733.359	2336.05
733.545	2127.16
733.731	2204.98
733.917	2338.1
734.103	2086.2
734.289	2290.99
734.475	2213.17
734.661	2440.5
734.847	2262.32
735.033	2381.1
735.219	2233.65
735.404	2213.17
735.59	2413.87
735.776	2110.77
735.962	2266.42
736.148	2233.65
736.333	2250.03
736.519	2151.73
736.705	2084.15
736.89	2266.42
737.076	2356.53
737.262	2270.51
737.447	2192.69
737.633	2030.9
737.819	2182.45
738.004	2172.21
738.19	2194.74
738.375	2106.68
738.561	2137.4
738.747	2233.65
738.932	2159.92
739.118	2153.78
739.303	2155.83
739.489	2145.59
739.674	2135.35
739.859	2096.44
740.045	2069.81
740.23	2147.64
740.416	2086.2
740.601	2094.39
740.786	2069.81
740.972	2149.68
741.157	2086.2
741.342	2102.58
741.528	2088.25
741.713	2207.03
741.898	2086.2
742.084	2049.33
742.269	1908.02
742.454	2092.34
742.639	2010.42
742.824	2094.39
743.01	2123.06
743.195	2217.27
743.38	1926.46
743.565	2045.24
743.75	2022.71
743.935	2004.28
744.12	1981.75
744.305	2100.53
744.49	2012.47
744.675	2028.85
744.86	2069.81
745.045	2049.33
745.23	1940.79
745.415	1955.13
745.6	1944.89
745.785	2018.61
745.97	2014.52
746.155	1955.13
746.34	1973.56
746.525	1914.17
746.71	1891.64
746.895	1897.78
747.079	1797.43
747.264	1854.78
747.449	1860.92
747.634	1852.73
747.819	1828.15
748.003	1750.33
748.188	1817.91
748.373	1705.28
748.557	1844.54
748.742	1791.29
748.927	1754.43
749.111	1858.87
749.296	1768.76
749.481	1787.19
749.665	1721.66
749.85	1676.6
750.034	1725.75
750.219	1658.17
750.404	1674.56
750.588	1662.27
750.773	1654.08
750.957	1604.92
751.141	1682.75
751.326	1670.46
751.51	1572.16
751.695	1578.3
751.879	1582.4
752.064	1619.26
752.248	1629.5
752.432	1629.5
752.617	1635.64
752.801	1492.29
752.985	1619.26
753.17	1459.52
753.354	1545.53
753.538	1518.91
753.722	1480
753.907	1545.53
754.091	1449.28
754.275	1471.81
754.459	1391.94
754.643	1416.51
754.828	1389.89
755.012	1465.66
755.196	1453.38
755.38	1348.93
755.564	1283.39
755.748	1463.61
755.932	1471.81
756.116	1359.17
756.3	1324.35
756.484	1320.26
756.668	1307.97
756.852	1246.53
757.036	1271.11
757.22	1336.64
757.404	1240.39
757.588	1316.16
757.772	1330.5
757.956	1305.92
758.14	1230.15
758.323	1205.57
758.507	1283.39
758.691	1254.72
758.875	1353.02
759.059	1357.12
759.242	1242.43
759.426	1267.01
759.61	1176.9
759.794	1234.24
759.977	1250.63
760.161	1328.45
760.345	1197.38
760.528	1189.19
760.712	1209.67
760.895	1160.52
761.079	1201.47
761.263	1119.56
761.446	1070.4
761.63	1197.38
761.813	1135.94
761.997	1152.32
762.18	1086.79
762.364	1119.56
762.547	1006.92
762.731	1035.59
762.914	1099.08
763.098	1146.18
763.281	1078.6
763.464	1078.6
763.648	1105.22
763.831	1119.56
764.015	1015.11
764.198	998.73
764.381	1045.83
764.564	978.25
764.748	1029.45
764.931	1039.69
765.114	1013.06
765.297	1103.17
765.481	959.81
765.664	1029.45
765.847	984.39
766.03	1008.97
766.213	1033.54
766.397	1015.11
766.58	963.91
766.763	908.62
766.946	1037.64
767.129	996.68
767.312	1039.69
767.495	968.01
767.678	916.81
767.861	1035.59
768.044	943.43
768.227	939.33
768.41	1080.64
768.593	1006.92
768.776	1094.98
768.959	972.1
769.142	1031.49
769.324	890.18
769.507	896.33
769.69	939.33
769.873	841.03
770.056	974.15
770.239	955.72
770.421	1021.25
770.604	912.71
770.787	904.52
770.97	814.41
771.152	886.09
771.335	1017.16
771.518	832.84
771.7	867.66
771.883	877.9
772.066	947.53
772.248	847.18
772.431	881.99
772.613	898.38
772.796	939.33
772.978	851.27
773.161	939.33
773.343	775.5
773.526	791.88
773.708	863.56
773.891	818.5
774.073	802.12
774.256	783.69
774.438	781.64
774.621	931.14
774.803	824.65
774.985	787.79
775.168	820.55
775.35	779.59
775.532	750.92
775.715	752.97
775.897	697.67
776.079	718.15
776.261	832.84
776.444	666.96
776.626	677.19
776.808	673.1
776.99	695.63
777.173	791.88
777.355	687.43
777.537	785.74
777.719	660.81
777.901	726.35
778.083	615.76
778.265	679.24
778.447	656.72
778.629	617.8
778.811	595.28
778.993	648.52
779.175	701.77
779.357	638.28
779.539	642.38
779.721	658.76
779.903	634.19
780.085	607.56
780.267	675.15
780.449	695.63
780.631	656.72
780.812	664.91
780.994	564.56
781.176	591.18
781.358	601.42
781.54	619.85
781.721	564.56
781.903	546.12
782.085	611.66
782.267	523.6
782.448	580.94
782.63	611.66
782.812	595.28
782.993	537.93
783.175	529.74
783.357	525.65
783.538	611.66
783.72	482.64
783.901	589.13
784.083	566.6
784.264	529.74
784.446	478.54
784.627	517.45
784.809	523.6
784.99	525.65
785.172	562.51
785.353	466.25
785.535	496.97
785.716	449.87
785.897	519.5
786.079	570.7
786.26	496.97
786.441	449.87
786.623	472.4
786.804	421.2
786.985	410.96
787.167	449.87
787.348	441.68
787.529	470.35
787.71	533.84
787.891	451.92
788.073	441.68
788.254	474.45
788.435	517.45
788.616	433.49
788.797	433.49
788.978	443.73
789.159	367.95
789.34	429.39
789.522	419.15
789.703	423.25
789.884	370
790.065	394.58
790.246	349.52
790.427	400.72
790.607	400.72
790.788	456.01
790.969	447.82
791.15	365.9
791.331	429.39
791.512	347.47
791.693	341.33
791.874	363.86
792.054	378.19
792.235	349.52
792.416	353.62
792.597	320.85
792.778	380.24
792.958	357.71
793.139	410.96
793.32	329.04
793.5	306.51
793.681	435.53
793.862	263.51
794.042	251.22
794.223	345.42
794.404	320.85
794.584	343.38
794.765	236.88
794.945	294.22
795.126	302.42
795.306	335.18
795.487	253.27
795.667	310.61
795.848	331.09
796.028	277.84
796.209	294.22
796.389	320.85
796.57	353.62
796.75	349.52
796.93	339.28
797.111	343.38
797.291	283.98
797.471	329.04
797.652	245.07
797.832	257.36
798.012	277.84
798.192	267.6
798.373	283.98
798.553	265.55
798.733	345.42
798.913	288.08
799.093	269.65
799.274	232.79
799.454	331.09
799.634	335.18
799.814	304.46
799.994	243.03
800.174	259.41
800.354	234.83
800.534	226.64
800.714	234.83
800.894	269.65
801.074	257.36
801.254	243.03
801.434	238.93
801.614	197.97
801.794	167.25
801.974	898.38
802.154	200.02
802.334	210.26
802.514	175.44
802.693	259.41
802.873	212.31
803.053	290.13
803.233	263.51
803.413	286.03
803.592	197.97
803.772	214.35
803.952	163.15
804.131	171.35
804.311	283.98
804.491	251.22
804.67	161.11
804.85	275.79
805.03	206.16
805.209	251.22
805.389	210.26
805.568	224.59
805.748	163.15
805.928	240.98
806.107	216.4
806.287	251.22
806.466	226.64
806.646	226.64
806.825	263.51
807.004	193.87
807.184	107.86
807.363	296.27
807.543	202.07
807.722	140.63
807.901	269.65
808.081	193.87
808.26	144.72
808.439	255.31
808.619	206.16
808.798	261.46
808.977	275.79
809.156	202.07
809.336	161.11
809.515	234.83
809.694	238.93
809.873	173.39
810.052	195.92
810.231	187.73
810.411	148.82
810.59	259.41
810.769	142.68
810.948	171.35
811.127	95.57
811.306	171.35
811.485	138.58
811.664	161.11
811.843	99.67
812.022	177.49
812.201	245.07
812.38	161.11
812.559	144.72
812.737	197.97
812.916	163.15
813.095	206.16
813.274	152.91
813.453	148.82
813.632	187.73
813.811	169.3
813.989	185.68
814.168	195.92
814.347	95.57
814.526	202.07
814.704	216.4
814.883	214.35
815.062	148.82
815.24	161.11
815.419	64.85
815.598	185.68
815.776	114
815.955	146.77
816.133	62.8
816.312	128.34
816.49	138.58
816.669	202.07
816.847	116.05
817.026	165.2
817.204	193.87
817.383	218.45
817.561	95.57
817.74	105.81
817.918	73.04
818.097	251.22
818.275	136.53
818.453	161.11
818.632	161.11
818.81	163.15
818.988	152.91
819.167	193.87
819.345	136.53
819.523	128.34
819.701	128.34
819.879	114
820.058	116.05
820.236	118.1
820.414	130.39
820.592	99.67
820.77	42.32
820.948	101.72
821.127	56.66
821.305	161.11
821.483	21.84
821.661	204.11
821.839	103.76
822.017	154.96
822.195	89.43
822.373	181.59
822.551	109.91
822.729	42.32
822.907	114
823.085	140.63
823.262	122.2
823.44	103.76
823.618	146.77
823.796	87.38
823.974	97.62
824.152	144.72
824.329	136.53
824.507	140.63
824.685	93.52
824.863	54.61
825.04	93.52
825.218	87.38
825.396	66.9
825.574	83.28
825.751	77.14
825.929	195.92
826.107	79.19
826.284	71
826.462	189.78
826.639	87.38
826.817	54.61
826.994	185.68
827.172	132.44
827.349	157.01
827.527	71
827.704	73.04
827.882	128.34
828.059	128.34
828.237	132.44
828.414	116.05
828.591	15.7
828.769	99.67
828.946	9.56
829.124	103.76
829.301	136.53
829.478	17.75
829.655	52.56
829.833	64.85
830.01	58.71
830.187	128.34
830.364	83.28
830.542	144.72
830.719	177.49
830.896	118.1
831.073	21.84
831.25	97.62
831.427	62.8
831.604	107.86
831.782	17.75
831.959	85.33
832.136	118.1
832.313	193.87
832.49	128.34
832.667	95.57
832.844	13.65
833.021	120.15
833.198	95.57
833.374	89.43
833.551	-10.92
833.728	66.9
833.905	34.13
834.082	-43.69
834.259	75.09
834.436	25.94
834.612	54.61
834.789	120.15
834.966	44.37
835.143	56.66
835.319	66.9
835.496	50.52
835.673	81.24
835.85	122.2
836.026	62.8
836.203	95.57
836.38	73.04
836.556	66.9
836.733	64.85
836.909	75.09
837.086	79.19
837.262	23.89
837.439	40.28
837.616	15.7
837.792	25.94
837.968	93.52
838.145	-2.73
838.321	44.37
838.498	30.04
838.674	75.09
838.851	58.71
839.027	54.61
839.203	91.48
839.38	71
839.556	-68.27
839.732	89.43
839.909	11.61
840.085	38.23
840.261	32.08
840.437	124.24
840.614	50.52
840.79	87.38
840.966	15.7
841.142	56.66
841.318	38.23
841.494	97.62
841.671	7.51
841.847	38.23
842.023	54.61
842.199	23.89
842.375	23.89
842.551	-19.11
842.727	23.89
842.903	81.24
843.079	19.8
843.255	54.61
843.431	101.72
843.607	48.47
843.783	21.84
843.959	62.8
844.134	23.89
844.31	32.08
844.486	34.13
844.662	13.65
844.838	-6.83
845.013	38.23
845.189	95.57
845.365	95.57
845.541	91.48
845.716	46.42
845.892	25.94
846.068	54.61
846.244	-43.69
846.419	91.48
846.595	66.9
846.77	38.23
846.946	71
847.122	66.9
847.297	54.61
847.473	124.24
847.648	58.71
847.824	62.8
847.999	42.32
848.175	71
848.35	17.75
848.526	13.65
848.701	54.61
848.876	62.8
849.052	97.62
849.227	66.9
849.403	5.46
849.578	-10.92
849.753	-27.31
849.929	21.84
850.104	36.18
850.279	62.8
850.454	-17.07
850.63	46.42
850.805	32.08
850.98	50.52
851.155	75.09
851.33	46.42
851.505	32.08
851.681	116.05
851.856	77.14
852.031	46.42
852.206	-25.26
852.381	48.47
852.556	79.19
852.731	75.09
852.906	73.04
853.081	132.44
853.256	44.37
853.431	13.65
853.606	11.61
853.781	105.81
853.956	-21.16
854.131	38.23
854.305	-6.83
854.48	-8.87
854.655	-19.11
854.83	25.94
855.005	9.56
855.18	13.65
855.354	-2.73
855.529	44.37
855.704	7.51
855.879	62.8
856.053	32.08
856.228	25.94
856.403	30.04
856.577	-35.5
856.752	21.84
856.926	19.8
857.101	111.96
857.276	-39.59
857.45	23.89
857.625	30.04
857.799	44.37
857.974	-8.87
858.148	-19.11
858.323	38.23
858.497	95.57
858.672	5.46
858.846	71
859.02	46.42
859.195	-25.26
859.369	77.14
859.543	46.42
859.718	13.65
859.892	9.56
860.066	-25.26
860.241	-19.11
860.415	15.7
860.589	-35.5
860.763	27.99
860.938	-19.11
861.112	34.13
861.286	-19.11
861.46	-33.45
861.634	-31.4
861.808	5.46
861.982	-35.5
862.157	23.89
862.331	1.37
862.505	30.04
862.679	-27.31
862.853	30.04
863.027	-62.12
863.201	42.32
863.375	25.94
863.549	58.71
863.722	7.51
863.896	54.61
864.07	9.56
864.244	56.66
864.418	-23.21
864.592	32.08
864.766	97.62
864.939	5.46
865.113	1.37
865.287	32.08
865.461	1.37
865.634	40.28
865.808	5.46
865.982	23.89
866.156	-25.26
866.329	-0.68
866.503	17.75
866.676	73.04
866.85	15.7
867.024	21.84
867.197	36.18
867.371	54.61
867.544	89.43
867.718	-27.31
867.891	-15.02
868.065	-10.92
868.238	58.71
868.412	52.56
868.585	62.8
868.759	25.94
868.932	42.32
869.105	-43.69
869.279	30.04
869.452	-17.07
869.625	13.65
869.799	-2.73
869.972	-72.36
870.145	38.23
870.319	58.71
870.492	-66.22
870.665	-19.11
870.838	46.42
871.011	-70.31
871.185	-15.02
871.358	-66.22
871.531	-35.5
871.704	-45.74
871.877	-19.11
872.05	-2.73
872.223	30.04
872.396	99.67
872.569	34.13
872.742	-43.69
872.915	68.95
873.088	-37.55
873.261	15.7
873.434	-27.31
873.607	15.7
873.78	25.94
873.953	-29.35
874.126	46.42
874.299	36.18
874.471	-6.83
874.644	-43.69
874.817	-27.31
874.99	140.63
875.163	5.46
875.335	21.84
875.508	-15.02
875.681	48.47
875.853	5.46
876.026	30.04
876.199	103.76
876.371	-60.07
876.544	21.84
876.717	-10.92
876.889	-49.83
877.062	79.19
877.234	68.95
877.407	13.65
877.579	5.46
877.752	13.65
877.924	60.76
878.097	42.32
878.269	-0.68
878.442	109.91
878.614	-0.68
878.786	7.51
878.959	-27.31
879.131	-4.78
879.303	-2.73
879.476	48.47
879.648	87.38
879.82	17.75
879.993	-27.31
880.165	-55.98
880.337	5.46
880.509	21.84
880.681	-10.92
880.854	-2.73
881.026	-33.45
881.198	21.84
881.37	38.23
881.542	13.65
881.714	-47.79
881.886	-25.26
882.058	-4.78
882.23	-27.31
882.402	-2.73
882.574	21.84
882.746	50.52
882.918	116.05
883.09	54.61
883.262	48.47
883.434	3.41
883.606	-60.07
883.778	13.65
883.95	46.42
884.122	-31.4
884.293	1.37
884.465	-17.07
884.637	79.19
884.809	-4.78
884.98	-6.83
885.152	27.99
885.324	21.84
885.496	-17.07
885.667	-23.21
885.839	-35.5
886.011	1.37
886.182	36.18
886.354	19.8
886.525	-27.31
886.697	-10.92
886.869	-15.02
887.04	-64.17
887.212	27.99
887.383	60.76
887.555	-6.83
887.726	-12.97
887.897	-39.59
888.069	73.04
888.24	21.84
888.412	23.89
888.583	5.46
888.754	58.71
888.926	-35.5
889.097	-101.03
889.268	-51.88
889.44	-10.92
889.611	-43.69
889.782	-60.07
889.953	5.46
890.125	-15.02
890.296	9.56
890.467	-0.68
890.638	44.37
890.809	-19.11
890.98	-2.73
891.151	11.61
891.323	-19.11
891.494	9.56
891.665	77.14
891.836	-8.87
892.007	83.28
892.178	46.42
892.349	38.23
892.52	32.08
892.691	13.65
892.862	5.46
893.032	-78.51
893.203	9.56
893.374	50.52
893.545	62.8
893.716	21.84
893.887	66.9
894.057	5.46
894.228	5.46
894.399	-33.45
894.57	46.42
894.74	54.61
894.911	81.24
895.082	-60.07
895.253	5.46
895.423	17.75
895.594	5.46
895.764	34.13
895.935	-49.83
896.106	-60.07
896.276	7.51
896.447	-27.31
896.617	-23.21
896.788	-27.31
896.958	17.75
897.129	-21.16
897.299	-0.68
897.47	21.84
897.64	17.75
897.81	-39.59
897.981	7.51
898.151	-19.11
898.322	25.94
898.492	-27.31
898.662	7.51
898.832	13.65
899.003	13.65
899.173	48.47
899.343	7.51
899.513	-35.5
