Data from USB4F104151__265__14-46-03-359.txt Node

Date: Thu Mar 13 14:46:03 EDT 2025
User: louis
Spectrometer: USB4F10415
Trigger mode: 4
Integration Time (sec): 2.000000E-2
Scans to average: 1
Electric dark correction enabled: true
Nonlinearity correction enabled: false
Boxcar width: 0
XAxis mode: Wavelengths
Number of Pixels in Spectrum: 3648
>>>>>Begin Spectral Data<<<<<
178.204	-158.72
178.424	-158.72
178.644	-158.72
178.864	-111.61
179.084	-128
179.304	-23.55
179.524	-17.41
179.744	3.07
179.964	23.55
180.184	11.26
180.404	46.08
180.624	7.17
180.844	-29.7
181.064	31.74
181.283	19.46
181.503	-50.18
181.723	-21.5
181.943	-9.22
182.163	134.14
182.383	27.65
182.602	15.36
182.822	-3.07
183.042	46.08
183.262	21.5
183.482	19.46
183.701	-3.07
183.921	58.37
184.141	35.84
184.361	52.22
184.58	91.13
184.8	17.41
185.02	17.41
185.239	64.51
185.459	-9.22
185.679	-13.31
185.898	7.17
186.118	44.03
186.338	76.8
186.557	123.9
186.777	-29.7
186.997	-15.36
187.216	-17.41
187.436	82.94
187.655	64.51
187.875	111.61
188.095	-13.31
188.314	70.65
188.534	48.13
188.753	62.46
188.973	60.42
189.192	74.75
189.412	11.26
189.631	72.7
189.851	48.13
190.07	52.22
190.29	41.98
190.509	46.08
190.729	23.55
190.948	97.28
191.168	154.62
191.387	68.61
191.607	33.79
191.826	13.31
192.045	54.27
192.265	-7.17
192.484	-17.41
192.704	35.84
192.923	23.55
193.142	93.18
193.362	-52.22
193.581	136.19
193.8	70.65
194.02	35.84
194.239	5.12
194.458	5.12
194.678	21.5
194.897	64.51
195.116	-44.03
195.335	89.09
195.555	27.65
195.774	35.84
195.993	7.17
196.212	117.76
196.432	-11.26
196.651	-3.07
196.87	-33.79
197.089	121.85
197.308	35.84
197.528	-5.12
197.747	-17.41
197.966	70.65
198.185	25.6
198.404	-29.7
198.623	39.94
198.842	101.37
199.062	7.17
199.281	91.13
199.5	44.03
199.719	46.08
199.938	84.99
200.157	54.27
200.376	33.79
200.595	119.81
200.814	25.6
201.033	134.14
201.252	7.17
201.471	64.51
201.69	-3.07
201.909	101.37
202.128	80.89
202.347	19.46
202.566	31.74
202.785	-13.31
203.004	29.7
203.223	103.42
203.442	76.8
203.661	31.74
203.879	-5.12
204.098	54.27
204.317	60.42
204.536	78.85
204.755	11.26
204.974	52.22
205.193	52.22
205.411	109.57
205.63	54.27
205.849	60.42
206.068	87.04
206.287	134.14
206.505	99.33
206.724	66.56
206.943	35.84
207.162	-41.98
207.381	35.84
207.599	-11.26
207.818	72.7
208.037	31.74
208.255	48.13
208.474	11.26
208.693	3.07
208.911	39.94
209.13	19.46
209.349	68.61
209.567	56.32
209.786	72.7
210.005	17.41
210.223	97.28
210.442	7.17
210.661	35.84
210.879	44.03
211.098	39.94
211.316	-37.89
211.535	48.13
211.753	27.65
211.972	29.7
212.191	11.26
212.409	62.46
212.628	23.55
212.846	23.55
213.065	1.02
213.283	66.56
213.502	-13.31
213.72	60.42
213.938	23.55
214.157	82.94
214.375	13.31
214.594	-27.65
214.812	84.99
215.031	76.8
215.249	35.84
215.467	84.99
215.686	-3.07
215.904	97.28
216.122	68.61
216.341	44.03
216.559	19.46
216.778	7.17
216.996	-13.31
217.214	84.99
217.432	64.51
217.651	46.08
217.869	27.65
218.087	-3.07
218.306	19.46
218.524	11.26
218.742	15.36
218.96	105.47
219.179	-19.46
219.397	46.08
219.615	117.76
219.833	48.13
220.051	19.46
220.27	78.85
220.488	19.46
220.706	84.99
220.924	23.55
221.142	15.36
221.36	39.94
221.578	46.08
221.796	15.36
222.015	11.26
222.233	35.84
222.451	103.42
222.669	76.8
222.887	52.22
223.105	52.22
223.323	11.26
223.541	11.26
223.759	31.74
223.977	80.89
224.195	109.57
224.413	54.27
224.631	76.8
224.849	19.46
225.067	89.09
225.285	11.26
225.503	82.94
225.721	-39.94
225.939	19.46
226.157	78.85
226.375	134.14
226.592	-17.41
226.81	44.03
227.028	60.42
227.246	123.9
227.464	-70.65
227.682	-5.12
227.9	52.22
228.117	44.03
228.335	52.22
228.553	46.08
228.771	15.36
228.989	25.6
229.206	72.7
229.424	17.41
229.642	-19.46
229.86	-5.12
230.077	87.04
230.295	-78.85
230.513	52.22
230.731	27.65
230.948	109.57
231.166	72.7
231.384	52.22
231.601	-37.89
231.819	48.13
232.037	3.07
232.254	5.12
232.472	35.84
232.689	82.94
232.907	-1.02
233.125	68.61
233.342	44.03
233.56	-3.07
233.777	93.18
233.995	-19.46
234.213	84.99
234.43	46.08
234.648	11.26
234.865	48.13
235.083	64.51
235.3	60.42
235.518	68.61
235.735	99.33
235.953	97.28
236.17	-46.08
236.388	62.46
236.605	21.5
236.822	-13.31
237.04	44.03
237.257	89.09
237.475	-80.89
237.692	46.08
237.909	95.23
238.127	87.04
238.344	17.41
238.562	60.42
238.779	-23.55
238.996	-48.13
239.214	-91.13
239.431	13.31
239.648	13.31
239.865	19.46
240.083	66.56
240.3	-13.31
240.517	72.7
240.735	93.18
240.952	58.37
241.169	121.85
241.386	37.89
241.603	29.7
241.821	80.89
242.038	84.99
242.255	78.85
242.472	-37.89
242.689	35.84
242.907	11.26
243.124	60.42
243.341	33.79
243.558	-5.12
243.775	-84.99
243.992	-13.31
244.209	46.08
244.426	117.76
244.643	46.08
244.86	3.07
245.078	29.7
245.295	76.8
245.512	21.5
245.729	70.65
245.946	-76.8
246.163	35.84
246.38	21.5
246.597	93.18
246.814	68.61
247.031	95.23
247.248	-3.07
247.464	62.46
247.681	39.94
247.898	48.13
248.115	62.46
248.332	109.57
248.549	33.79
248.766	115.71
248.983	62.46
249.2	-5.12
249.417	99.33
249.633	84.99
249.85	54.27
250.067	70.65
250.284	44.03
250.501	13.31
250.717	39.94
250.934	25.6
251.151	134.14
251.368	54.27
251.585	31.74
251.801	89.09
252.018	-60.42
252.235	62.46
252.451	76.8
252.668	17.41
252.885	15.36
253.102	60.42
253.318	93.18
253.535	31.74
253.752	27.65
253.968	11.26
254.185	3.07
254.401	-31.74
254.618	68.61
254.835	27.65
255.051	93.18
255.268	115.71
255.484	23.55
255.701	56.32
255.917	80.89
256.134	50.18
256.351	54.27
256.567	80.89
256.784	70.65
257	-9.22
257.217	21.5
257.433	115.71
257.65	70.65
257.866	111.61
258.082	-3.07
258.299	58.37
258.515	95.23
258.732	5.12
258.948	107.52
259.165	31.74
259.381	1.02
259.597	29.7
259.814	37.89
260.03	13.31
260.246	84.99
260.463	31.74
260.679	48.13
260.895	46.08
261.112	46.08
261.328	37.89
261.544	37.89
261.761	103.42
261.977	91.13
262.193	39.94
262.409	60.42
262.626	1.02
262.842	68.61
263.058	70.65
263.274	-37.89
263.49	1.02
263.707	19.46
263.923	109.57
264.139	-25.6
264.355	13.31
264.571	70.65
264.787	-54.27
265.004	64.51
265.22	-1.02
265.436	31.74
265.652	50.18
265.868	93.18
266.084	29.7
266.3	48.13
266.516	3.07
266.732	41.98
266.948	21.5
267.164	109.57
267.38	80.89
267.596	68.61
267.812	97.28
268.028	64.51
268.244	9.22
268.46	68.61
268.676	87.04
268.892	78.85
269.108	11.26
269.324	80.89
269.54	60.42
269.756	66.56
269.972	-58.37
270.188	-29.7
270.403	72.7
270.619	56.32
270.835	56.32
271.051	46.08
271.267	72.7
271.483	-37.89
271.698	48.13
271.914	70.65
272.13	76.8
272.346	21.5
272.562	9.22
272.777	101.37
272.993	68.61
273.209	35.84
273.425	27.65
273.64	52.22
273.856	35.84
274.072	-15.36
274.287	35.84
274.503	35.84
274.719	-25.6
274.934	19.46
275.15	-17.41
275.366	93.18
275.581	-29.7
275.797	11.26
276.012	62.46
276.228	29.7
276.444	48.13
276.659	64.51
276.875	93.18
277.09	54.27
277.306	35.84
277.521	35.84
277.737	-9.22
277.952	56.32
278.168	21.5
278.383	89.09
278.599	23.55
278.814	97.28
279.03	15.36
279.245	46.08
279.461	87.04
279.676	48.13
279.892	44.03
280.107	3.07
280.322	84.99
280.538	48.13
280.753	-13.31
280.969	-19.46
281.184	44.03
281.399	21.5
281.615	13.31
281.83	27.65
282.045	-13.31
282.26	-5.12
282.476	46.08
282.691	54.27
282.906	60.42
283.122	70.65
283.337	23.55
283.552	101.37
283.767	27.65
283.983	39.94
284.198	-54.27
284.413	84.99
284.628	11.26
284.843	21.5
285.058	27.65
285.274	60.42
285.489	39.94
285.704	48.13
285.919	56.32
286.134	84.99
286.349	-39.94
286.564	72.7
286.779	121.85
286.995	52.22
287.21	-1.02
287.425	60.42
287.64	54.27
287.855	35.84
288.07	64.51
288.285	-19.46
288.5	74.75
288.715	119.81
288.93	7.17
289.145	-1.02
289.36	84.99
289.575	87.04
289.79	72.7
290.004	5.12
290.219	27.65
290.434	66.56
290.649	21.5
290.864	44.03
291.079	-21.5
291.294	80.89
291.509	54.27
291.724	52.22
291.938	35.84
292.153	76.8
292.368	27.65
292.583	31.74
292.798	19.46
293.012	9.22
293.227	52.22
293.442	7.17
293.657	60.42
293.871	21.5
294.086	-9.22
294.301	78.85
294.516	60.42
294.73	84.99
294.945	89.09
295.16	48.13
295.374	117.76
295.589	56.32
295.804	7.17
296.018	29.7
296.233	44.03
296.447	21.5
296.662	-50.18
296.877	78.85
297.091	58.37
297.306	117.76
297.52	72.7
297.735	93.18
297.949	175.1
298.164	54.27
298.378	44.03
298.593	84.99
298.807	113.66
299.022	44.03
299.236	144.38
299.451	70.65
299.665	80.89
299.88	91.13
300.094	52.22
300.309	76.8
300.523	56.32
300.737	35.84
300.952	15.36
301.166	66.56
301.381	52.22
301.595	1.02
301.809	44.03
302.024	119.81
302.238	29.7
302.452	138.24
302.667	27.65
302.881	64.51
303.095	95.23
303.309	37.89
303.524	52.22
303.738	37.89
303.952	-37.89
304.166	150.53
304.381	44.03
304.595	109.57
304.809	-70.65
305.023	84.99
305.237	89.09
305.452	52.22
305.666	89.09
305.88	-3.07
306.094	21.5
306.308	84.99
306.522	95.23
306.736	134.14
306.95	62.46
307.164	-29.7
307.379	76.8
307.593	154.62
307.807	87.04
308.021	107.52
308.235	68.61
308.449	27.65
308.663	-13.31
308.877	68.61
309.091	13.31
309.305	-15.36
309.519	15.36
309.733	101.37
309.947	48.13
310.161	68.61
310.374	76.8
310.588	48.13
310.802	19.46
311.016	52.22
311.23	89.09
311.444	82.94
311.658	78.85
311.872	103.42
312.085	78.85
312.299	76.8
312.513	35.84
312.727	27.65
312.941	54.27
313.154	62.46
313.368	68.61
313.582	78.85
313.796	-5.12
314.009	113.66
314.223	44.03
314.437	29.7
314.651	74.75
314.864	37.89
315.078	46.08
315.292	97.28
315.505	-41.98
315.719	109.57
315.933	52.22
316.146	19.46
316.36	19.46
316.573	66.56
316.787	105.47
317.001	78.85
317.214	58.37
317.428	52.22
317.641	31.74
317.855	111.61
318.068	72.7
318.282	-9.22
318.495	62.46
318.709	84.99
318.922	134.14
319.136	70.65
319.349	3.07
319.563	76.8
319.776	46.08
319.99	70.65
320.203	7.17
320.417	109.57
320.63	101.37
320.843	72.7
321.057	58.37
321.27	13.31
321.483	121.85
321.697	125.95
321.91	52.22
322.124	87.04
322.337	44.03
322.55	84.99
322.763	5.12
322.977	-13.31
323.19	52.22
323.403	130.05
323.617	60.42
323.83	107.52
324.043	35.84
324.256	48.13
324.469	35.84
324.683	84.99
324.896	97.28
325.109	35.84
325.322	84.99
325.535	125.95
325.748	23.55
325.962	35.84
326.175	44.03
326.388	113.66
326.601	99.33
326.814	7.17
327.027	78.85
327.24	113.66
327.453	-21.5
327.666	80.89
327.879	109.57
328.092	35.84
328.305	111.61
328.518	84.99
328.731	19.46
328.944	44.03
329.157	68.61
329.37	48.13
329.583	105.47
329.796	78.85
330.009	-17.41
330.222	7.17
330.435	35.84
330.648	66.56
330.861	21.5
331.073	136.19
331.286	27.65
331.499	11.26
331.712	54.27
331.925	19.46
332.138	82.94
332.35	52.22
332.563	76.8
332.776	39.94
332.989	-3.07
333.202	21.5
333.414	76.8
333.627	166.91
333.84	64.51
334.053	140.29
334.265	117.76
334.478	52.22
334.691	-17.41
334.903	62.46
335.116	31.74
335.329	35.84
335.541	76.8
335.754	103.42
335.966	35.84
336.179	70.65
336.392	54.27
336.604	52.22
336.817	113.66
337.029	3.07
337.242	52.22
337.454	-5.12
337.667	35.84
337.88	99.33
338.092	35.84
338.305	70.65
338.517	3.07
338.729	52.22
338.942	144.38
339.154	78.85
339.367	27.65
339.579	99.33
339.792	31.74
340.004	125.95
340.217	-1.02
340.429	21.5
340.641	103.42
340.854	68.61
341.066	52.22
341.278	72.7
341.491	68.61
341.703	117.76
341.915	70.65
342.128	171.01
342.34	60.42
342.552	54.27
342.764	93.18
342.977	41.98
343.189	11.26
343.401	50.18
343.613	95.23
343.826	31.74
344.038	80.89
344.25	111.61
344.462	60.42
344.674	37.89
344.886	44.03
345.099	52.22
345.311	-5.12
345.523	109.57
345.735	60.42
345.947	62.46
346.159	93.18
346.371	128
346.583	84.99
346.795	121.85
347.007	76.8
347.219	44.03
347.431	17.41
347.643	35.84
347.855	62.46
348.067	27.65
348.279	-13.31
348.491	3.07
348.703	27.65
348.915	78.85
349.127	3.07
349.339	121.85
349.551	52.22
349.763	84.99
349.975	-25.6
350.187	58.37
350.399	101.37
350.61	82.94
350.822	44.03
351.034	78.85
351.246	62.46
351.458	5.12
351.669	44.03
351.881	62.46
352.093	60.42
352.305	101.37
352.517	48.13
352.728	48.13
352.94	60.42
353.152	21.5
353.363	44.03
353.575	56.32
353.787	68.61
353.999	140.29
354.21	87.04
354.422	54.27
354.633	33.79
354.845	35.84
355.057	60.42
355.268	29.7
355.48	68.61
355.692	91.13
355.903	46.08
356.115	27.65
356.326	27.65
356.538	103.42
356.749	-21.5
356.961	201.72
357.172	35.84
357.384	27.65
357.595	80.89
357.807	76.8
358.018	84.99
358.23	89.09
358.441	111.61
358.653	125.95
358.864	31.74
359.075	52.22
359.287	91.13
359.498	60.42
359.709	84.99
359.921	60.42
360.132	66.56
360.344	101.37
360.555	27.65
360.766	60.42
360.977	15.36
361.189	52.22
361.4	37.89
361.611	68.61
361.823	84.99
362.034	60.42
362.245	11.26
362.456	78.85
362.667	39.94
362.879	56.32
363.09	87.04
363.301	11.26
363.512	-9.22
363.723	11.26
363.935	52.22
364.146	44.03
364.357	109.57
364.568	113.66
364.779	60.42
364.99	66.56
365.201	1.02
365.412	95.23
365.623	60.42
365.834	97.28
366.045	-3.07
366.256	101.37
366.467	21.5
366.678	80.89
366.889	3.07
367.1	54.27
367.311	93.18
367.522	35.84
367.733	19.46
367.944	87.04
368.155	70.65
368.366	119.81
368.577	99.33
368.788	87.04
368.999	11.26
369.209	95.23
369.42	117.76
369.631	154.62
369.842	-9.22
370.053	87.04
370.264	35.84
370.474	138.24
370.685	64.51
370.896	46.08
371.107	84.99
371.317	23.55
371.528	29.7
371.739	68.61
371.95	-13.31
372.16	111.61
372.371	-35.84
372.582	138.24
372.792	35.84
373.003	76.8
373.214	193.53
373.424	70.65
373.635	105.47
373.846	33.79
374.056	29.7
374.267	99.33
374.477	62.46
374.688	125.95
374.898	89.09
375.109	44.03
375.319	68.61
375.53	64.51
375.74	125.95
375.951	68.61
376.161	105.47
376.372	52.22
376.582	44.03
376.793	183.29
377.003	87.04
377.214	70.65
377.424	89.09
377.635	125.95
377.845	-25.6
378.055	146.43
378.266	68.61
378.476	44.03
378.686	46.08
378.897	97.28
379.107	52.22
379.317	76.8
379.528	97.28
379.738	113.66
379.948	62.46
380.158	72.7
380.369	72.7
380.579	125.95
380.789	68.61
380.999	66.56
381.21	93.18
381.42	87.04
381.63	11.26
381.84	91.13
382.05	119.81
382.261	76.8
382.471	54.27
382.681	87.04
382.891	103.42
383.101	35.84
383.311	56.32
383.521	46.08
383.731	101.37
383.941	125.95
384.151	117.76
384.361	62.46
384.571	76.8
384.781	70.65
384.991	60.42
385.201	82.94
385.411	101.37
385.621	107.52
385.831	64.51
386.041	44.03
386.251	19.46
386.461	95.23
386.671	99.33
386.881	144.38
387.091	66.56
387.301	140.29
387.511	23.55
387.72	164.86
387.93	64.51
388.14	11.26
388.35	3.07
388.56	21.5
388.769	93.18
388.979	23.55
389.189	62.46
389.399	3.07
389.609	89.09
389.818	76.8
390.028	39.94
390.238	101.37
390.447	56.32
390.657	76.8
390.867	48.13
391.076	56.32
391.286	93.18
391.496	68.61
391.705	54.27
391.915	103.42
392.125	138.24
392.334	138.24
392.544	175.1
392.753	52.22
392.963	52.22
393.172	130.05
393.382	152.57
393.591	109.57
393.801	78.85
394.01	48.13
394.22	128
394.429	35.84
394.639	87.04
394.848	76.8
395.058	97.28
395.267	80.89
395.477	35.84
395.686	95.23
395.895	152.57
396.105	156.67
396.314	113.66
396.524	64.51
396.733	64.51
396.942	93.18
397.152	87.04
397.361	84.99
397.57	142.33
397.78	91.13
397.989	177.15
398.198	142.33
398.407	150.53
398.617	91.13
398.826	103.42
399.035	125.95
399.244	115.71
399.453	80.89
399.663	62.46
399.872	134.14
400.081	111.61
400.29	93.18
400.499	101.37
400.708	193.53
400.917	187.39
401.127	70.65
401.336	185.34
401.545	158.72
401.754	146.43
401.963	177.15
402.172	50.18
402.381	113.66
402.59	130.05
402.799	138.24
403.008	171.01
403.217	150.53
403.426	150.53
403.635	158.72
403.844	150.53
404.053	156.67
404.262	144.38
404.471	175.1
404.68	220.16
404.888	134.14
405.097	74.75
405.306	238.59
405.515	203.77
405.724	154.62
405.933	177.15
406.142	216.06
406.35	156.67
406.559	259.07
406.768	158.72
406.977	257.02
407.185	281.6
407.394	234.49
407.603	199.68
407.812	224.25
408.02	265.21
408.229	259.07
408.438	287.74
408.646	306.17
408.855	254.97
409.064	250.88
409.272	289.79
409.481	398.33
409.69	279.55
409.898	281.6
410.107	297.98
410.315	324.6
410.524	351.23
410.733	400.38
410.941	404.47
411.15	412.67
411.358	398.33
411.567	408.57
411.775	355.32
411.984	375.8
412.192	390.14
412.401	347.13
412.609	529.4
412.818	545.78
413.026	527.35
413.234	461.82
413.443	467.96
413.651	488.44
413.86	578.55
414.068	594.93
414.276	558.07
414.485	644.09
414.693	674.81
414.901	707.57
415.11	680.95
415.318	732.15
415.526	764.92
415.734	781.3
415.943	701.43
416.151	816.12
416.359	834.55
416.567	783.35
416.776	887.79
416.984	928.75
417.192	1108.98
417.4	938.99
417.608	961.52
417.817	1027.06
418.025	1096.69
418.233	1199.09
418.441	1111.02
418.649	1225.71
418.857	1268.72
419.065	1379.31
419.273	1235.95
419.481	1346.54
419.689	1379.31
419.897	1338.35
420.105	1463.27
420.313	1504.23
420.521	1596.39
420.729	1641.45
420.937	1674.21
421.145	1631.21
421.353	1813.48
421.561	1850.34
421.769	1960.93
421.977	2165.73
422.185	2069.47
422.393	2044.9
422.601	2214.88
422.809	2272.22
423.017	2196.45
423.224	2231.26
423.432	2436.06
423.64	2395.1
423.848	2567.13
424.056	2520.03
424.263	2677.72
424.471	2784.21
424.679	2851.8
424.887	2872.28
425.094	2986.96
425.302	3132.37
425.51	3242.96
425.718	3328.97
425.925	3365.84
426.133	3388.36
426.341	3568.59
426.548	3793.86
426.756	3808.2
426.964	3709.9
427.171	4125.63
427.379	4148.16
427.586	4150.21
427.794	4299.71
428.001	4639.67
428.209	4864.95
428.417	4639.67
428.624	5032.88
428.832	4946.87
429.039	4979.64
429.247	5004.21
429.454	5442.48
429.662	5696.43
429.869	5485.48
430.076	5845.93
430.284	5696.43
430.491	5837.73
430.699	6257.57
430.906	6294.43
431.114	6245.28
431.321	6587.29
431.528	6654.87
431.736	6990.74
431.943	7437.2
432.15	7265.17
432.358	7117.72
432.565	7633.8
432.772	7664.52
432.979	7924.62
433.187	8237.95
433.394	8233.86
433.601	8747.9
433.808	8805.24
434.016	8848.25
434.223	9177.97
434.43	9433.97
434.637	9579.37
434.844	10091.37
435.052	10181.48
435.259	10208.1
435.466	10480.48
435.673	10083.17
435.88	10847.07
436.087	11320.15
436.294	11514.7
436.501	11074.39
436.708	11342.67
436.915	11768.65
437.122	12036.94
437.329	12483.39
437.537	12577.6
437.743	13003.58
437.95	12587.84
438.157	13517.62
438.364	13871.92
438.571	13787.95
438.778	13988.65
438.985	15416.08
439.192	14619.42
439.399	14992.16
439.606	14877.47
439.813	15715.09
440.02	16413.45
440.227	16374.53
440.433	16263.94
440.64	16542.47
440.847	16565
441.054	16968.45
441.261	17976.05
441.467	18045.68
441.674	17847.02
441.881	18705.12
442.088	18737.89
442.294	18692.83
442.501	19296.99
442.708	19477.21
442.914	20312.78
443.121	21207.74
443.328	20648.64
443.534	22119.09
443.741	21480.12
443.948	21199.55
444.154	22899.36
444.361	22557.35
444.568	22438.57
444.774	22612.65
444.981	23149.21
445.187	23954.07
445.394	24578.7
445.6	24255.12
445.807	26837.61
446.013	25492.09
446.22	26147.44
446.426	27191.91
446.633	27744.86
446.839	28365.39
447.046	27458.14
447.252	28600.91
447.459	28772.94
447.665	28617.29
447.871	29805.11
448.078	31351.33
448.284	29661.76
448.491	30687.79
448.697	32055.83
448.903	32246.29
449.11	32696.85
449.316	32283.16
449.522	32424.47
449.728	33200.65
449.935	33880.57
450.141	33651.2
450.347	34845.16
450.553	33600
450.76	34050.55
450.966	35351.01
451.172	34982.38
451.378	35801.57
451.584	35035.63
451.791	35996.12
451.997	35686.88
452.203	36549.07
452.409	36549.07
452.615	36690.38
452.821	35332.58
453.027	34922.99
453.233	36483.54
453.44	35279.33
453.646	35580.39
453.852	35373.54
454.058	36440.53
454.264	35584.48
454.47	36268.5
454.676	35561.95
454.882	36465.11
455.088	33409.54
455.294	34167.29
455.5	34390.52
455.705	34765.29
455.911	33389.06
456.117	32772.62
456.323	32530.96
456.529	30990.89
456.735	32363.03
456.941	31537.69
457.147	31023.65
457.352	29811.26
457.558	29940.28
457.764	29690.43
457.97	29186.63
458.176	28527.18
458.381	28664.39
458.587	27492.96
458.793	27167.33
458.999	26092.15
459.204	27791.96
459.41	26921.57
459.616	25434.75
459.821	25498.23
460.027	25266.81
460.233	24885.89
460.438	23442.07
460.644	23730.84
460.85	22715.05
461.055	22538.92
461.261	22418.09
461.466	20712.13
461.672	20222.67
461.878	21592.76
462.083	20484.81
462.289	19892.94
462.494	19505.88
462.7	18846.43
462.905	18459.37
463.111	18940.64
463.316	19356.38
463.522	18467.56
463.727	18467.56
463.932	18825.95
464.138	18352.87
464.343	18633.44
464.549	17799.92
464.754	18395.88
464.959	18299.62
465.165	18264.81
465.37	17490.68
465.575	17089.28
465.781	17797.87
465.986	17994.48
466.191	17310.46
466.397	16829.18
466.602	16245.51
466.807	16675.59
467.012	16732.93
467.218	16579.33
467.423	16401.16
467.628	16667.39
467.833	17238.78
468.038	16792.32
468.244	16188.17
468.449	17056.51
468.654	16229.13
468.859	16083.72
469.064	16206.6
469.269	15608.59
469.474	15479.57
469.679	16063.24
469.885	15495.96
470.09	15641.36
470.295	15704.85
470.5	15143.7
470.705	15248.15
470.91	15045.4
471.115	14830.37
471.32	15250.2
471.525	14846.75
471.73	14533.41
471.935	14455.59
472.139	14117.67
472.344	14209.83
472.549	14177.06
472.754	14054.19
472.959	13687.6
473.164	13634.35
473.369	13122.36
473.574	13904.68
473.778	13759.28
473.983	13507.38
474.188	13409.08
474.393	12778.3
474.598	13130.55
474.802	12778.3
475.007	12565.31
475.212	12831.55
475.417	12389.19
475.621	12442.43
475.826	12331.84
476.031	12067.66
476.235	11971.4
476.44	12026.7
476.645	11995.98
476.849	11944.78
477.054	11668.3
477.259	11496.27
477.463	11488.08
477.668	11164.5
477.872	11498.32
478.077	11246.42
478.282	10892.12
478.486	10982.23
478.691	11029.34
478.895	10879.83
479.1	10851.16
479.304	10873.69
479.509	10441.57
479.713	10416.99
479.918	10486.62
480.122	10161
480.326	10490.72
480.531	10253.16
480.735	10189.67
480.94	10414.95
481.144	10623.84
481.348	10146.66
481.553	10165.09
481.757	9876.33
481.961	9933.67
482.166	10189.67
482.37	10136.42
482.574	9751.4
482.778	9907.05
482.983	10150.76
483.187	9960.3
483.391	10290.02
483.595	9825.13
483.8	9825.13
484.004	10009.45
484.208	10034.02
484.412	10058.6
484.616	10169.19
484.821	9984.87
485.025	9907.05
485.229	9997.16
485.433	9890.67
485.637	9827.18
485.841	9751.4
486.045	9945.96
486.249	10062.69
486.453	9694.06
486.657	10015.59
486.861	10161
487.065	9872.23
487.269	10050.41
487.473	10009.45
487.677	10263.4
487.881	10257.25
488.085	9964.39
488.289	10126.18
488.493	10009.45
488.697	10013.54
488.901	10179.43
489.105	10007.4
489.309	9966.44
489.512	10193.76
489.716	10269.54
489.92	10343.27
490.124	10181.48
490.328	10384.23
490.531	10421.09
490.735	10425.18
490.939	10292.07
491.143	10529.63
491.346	10290.02
491.55	10505.06
491.754	10627.93
491.958	10740.57
492.161	10687.32
492.365	10818.39
492.569	10775.39
492.772	10629.98
492.976	10861.4
493.18	10857.31
493.383	11184.98
493.587	11154.26
493.79	11260.76
493.994	11051.86
494.197	11221.84
494.401	11342.67
494.605	11328.34
494.808	11785.04
495.012	11500.37
495.215	11676.49
495.419	11895.63
495.622	11967.31
495.825	12098.38
496.029	12051.27
496.232	12180.29
496.436	12096.33
496.639	12782.4
496.843	12485.44
497.046	12804.92
497.249	12968.76
497.453	12915.51
497.656	13194.04
497.859	13122.36
498.063	13327.16
498.266	13669.17
498.469	13466.42
498.673	13609.78
498.876	13972.27
499.079	14052.14
499.282	13908.78
499.485	14510.88
499.689	14625.57
499.892	14557.99
500.095	15002.4
500.298	15319.83
500.501	15110.94
500.705	15590.16
500.908	15801.1
501.111	15989.52
501.314	16204.55
501.517	16151.31
501.72	16481.03
501.923	16515.84
502.126	16882.43
502.329	17011.45
502.532	17240.82
502.735	17281.78
502.938	17435.38
503.141	17677.04
503.344	18225.9
503.547	17847.02
503.75	18438.89
503.953	18739.94
504.156	18787.04
504.359	19159.77
504.562	19290.84
504.765	19686.1
504.968	19673.81
505.17	20030.16
505.373	20140.75
505.576	20384.46
505.779	20845.25
505.982	20961.98
506.185	21232.32
506.387	21469.88
506.59	21752.5
506.793	22014.64
506.996	22270.64
507.198	22704.81
507.401	22680.23
507.604	22983.33
507.807	23368.35
508.009	23595.67
508.212	23595.67
508.415	23716.5
508.617	24175.25
508.82	24527.5
509.022	24328.84
509.225	25250.43
509.428	25576.06
509.63	25635.45
509.833	25617.02
510.035	26528.36
510.238	26421.87
510.44	26694.25
510.643	26853.99
510.845	27304.54
511.048	27390.56
511.25	28015.19
511.453	27988.56
511.655	29127.24
511.858	28480.08
512.06	29000.26
512.262	29241.92
512.465	29393.47
512.667	29768.25
512.87	30130.74
513.072	30425.65
513.274	30863.91
513.477	31101.48
513.679	31412.77
513.881	31846.94
514.084	32137.75
514.286	32293.4
514.488	32580.11
514.69	33513.98
514.893	33247.75
515.095	33526.27
515.297	34171.38
515.499	33929.72
515.701	34398.71
515.904	35023.34
516.106	35162.6
516.308	35506.66
516.51	36026.84
516.712	35951.07
516.914	36295.13
517.116	36952.52
517.318	37435.84
517.52	37417.41
517.722	37910.97
517.925	38244.79
518.127	38619.57
518.329	38541.75
518.531	38789.55
518.733	39786.91
518.935	40098.2
519.136	39893.41
519.338	40634.77
519.54	41036.17
519.742	41175.44
519.944	41474.44
520.146	42011.01
520.348	41959.81
520.55	42516.86
520.752	42738.04
520.954	43176.3
521.155	43000.18
521.357	43727.2
521.559	43737.44
521.761	44751.19
521.963	44327.26
522.164	44865.88
522.366	45187.41
522.568	45367.63
522.77	45494.6
522.971	46547.26
523.173	45691.21
523.375	46111.04
523.576	46514.49
523.778	46623.03
523.98	47102.26
524.181	47251.76
524.383	47333.68
524.584	48234.78
524.786	48273.7
524.988	48062.75
525.189	48595.23
525.391	49146.13
525.592	49068.31
525.794	49144.08
525.995	49053.97
526.197	49576.2
526.398	49893.64
526.6	50065.67
526.801	50192.64
527.003	50430.21
527.204	50528.51
527.406	51335.41
527.607	50888.95
527.808	51140.85
528.01	50450.69
528.211	50993.4
528.412	51994.85
528.614	51898.6
528.815	51966.18
529.016	51929.32
529.218	51777.77
529.419	51904.74
529.62	52119.78
529.822	51970.28
530.023	51847.4
530.224	52304.1
530.425	52449.5
530.626	52213.99
530.828	52060.39
531.029	53299.41
531.23	52406.5
531.431	52955.35
531.632	52852.95
531.833	53575.89
532.035	52930.78
532.236	52855
532.437	53166.29
532.638	52658.4
532.839	53582.03
533.04	53215.44
533.241	52949.21
533.442	53942.47
533.643	53448.91
533.844	53393.62
534.045	53416.14
534.246	53145.81
534.447	53608.65
534.648	53387.47
534.849	53688.52
535.05	53434.58
535.251	53500.11
535.451	53323.99
535.652	53756.11
535.853	53778.64
536.054	53250.26
536.255	53649.61
536.456	53369.04
536.657	54214.85
536.857	53649.61
537.058	53565.65
537.259	54001.86
537.46	53498.06
537.66	53715.15
537.861	54036.68
538.062	53414.1
538.263	53881.03
538.463	53240.02
538.664	53354.71
538.865	53801.16
539.065	54001.86
539.266	53106.9
539.466	53829.83
539.667	53258.45
539.868	53799.12
540.068	53526.74
540.269	53371.09
540.469	54403.27
540.67	53741.77
540.87	53338.32
541.071	53481.68
541.271	54065.35
541.472	53903.56
541.672	53430.48
541.873	53194.96
542.073	52998.36
542.274	53911.75
542.474	53418.19
542.675	53188.82
542.875	53694.67
543.075	53483.73
543.276	53125.33
543.476	53717.2
543.676	53575.89
543.877	53778.64
544.077	53221.59
544.277	53420.24
544.478	53084.37
544.678	53528.78
544.878	52963.54
545.078	53510.35
545.279	52725.98
545.479	53104.85
545.679	53227.73
545.879	53366.99
546.079	53565.65
546.28	53188.82
546.48	53108.95
546.68	53588.17
546.88	53493.97
547.08	53360.85
547.28	53067.99
547.48	52971.74
547.68	53680.33
547.88	52809.95
548.081	53551.31
548.281	53608.65
548.481	52494.56
548.681	53590.22
548.881	53739.72
549.081	52826.33
549.28	53067.99
549.48	53397.71
549.68	52918.49
549.88	53696.72
550.08	52615.39
550.28	53043.41
550.48	52781.27
550.68	53289.17
550.88	52777.18
551.08	53270.74
551.279	53387.47
551.479	52846.81
551.679	52824.28
551.879	52685.02
552.079	53338.32
552.278	53242.07
552.478	53133.53
552.678	52752.6
552.878	53100.76
553.077	52822.23
553.277	52535.52
553.477	53289.17
553.676	52852.95
553.876	52754.65
554.076	52633.82
554.275	53049.56
554.475	52379.87
554.674	53016.79
554.874	52779.23
555.074	52498.65
555.273	52873.43
555.473	52695.26
555.672	52762.84
555.872	52123.88
556.071	52572.38
556.271	52412.64
556.47	52306.15
556.67	52252.9
556.869	52273.38
557.068	52658.4
557.268	51806.44
557.467	52089.06
557.667	51831.02
557.866	52281.57
558.065	52068.58
558.265	52123.88
558.464	51368.18
558.663	52248.8
558.863	51384.56
559.062	51902.7
559.261	51263.73
559.461	52291.81
559.66	51550.45
559.859	52076.77
560.058	51233.01
560.258	51443.95
560.457	51605.74
560.656	51730.67
560.855	50796.79
561.054	51273.97
561.253	51020.02
561.453	51220.72
561.652	51308.79
561.851	51644.65
562.05	51212.53
562.249	50831.61
562.448	51486.96
562.647	51474.67
562.846	51069.17
563.045	50790.65
563.244	50489.6
563.443	50864.38
563.642	50329.86
563.841	50585.85
564.04	50370.82
564.239	50868.47
564.438	50043.14
564.637	50397.44
564.836	50424.06
565.035	50266.37
565.234	50043.14
565.432	50182.4
565.631	50110.72
565.83	50157.83
566.029	49645.83
566.228	49676.55
566.427	49246.48
566.625	49309.97
566.824	48675.1
567.023	49406.22
567.222	48722.2
567.42	49553.68
567.619	49389.84
567.818	48967.96
568.016	48892.18
568.215	49359.12
568.414	48681.24
568.612	49086.74
568.811	49008.92
569.01	49004.82
569.208	48197.92
569.407	48552.22
569.605	48156.96
569.804	48591.13
570.002	47708.46
570.201	48308.51
570.4	48079.14
570.598	47630.63
570.797	47530.28
570.995	48013.6
571.193	47317.29
571.392	48032.04
571.59	47298.86
571.789	47161.65
571.987	47071.54
572.186	47245.62
572.384	46881.08
572.582	46956.85
572.781	46956.85
572.979	46625.08
573.177	46729.53
573.376	46410.04
573.574	46408
573.772	46733.62
573.971	46170.43
574.169	45986.11
574.367	45654.34
574.565	46297.41
574.763	46088.51
574.962	46111.04
575.16	45455.69
575.358	45449.55
575.556	45365.58
575.754	46045.51
575.952	45095.25
576.151	45533.51
576.349	44792.15
576.547	44753.24
576.745	44931.41
576.943	44704.09
577.141	44274.01
577.339	44796.24
577.537	44659.03
577.735	44251.48
577.933	44077.41
578.131	44284.25
578.329	44161.37
578.527	43772.26
578.725	43694.44
578.923	44177.76
579.121	43694.44
579.319	43426.15
579.516	43501.93
579.714	43194.73
579.912	43114.86
580.11	43213.16
580.308	43039.09
580.506	42973.55
580.704	42545.53
580.901	43084.14
581.099	42811.76
581.297	42398.07
581.495	42332.54
581.692	42869.11
581.89	42170.75
582.088	42434.94
582.285	41992.58
582.483	42072.45
582.681	41841.03
582.878	41646.47
583.076	41421.19
583.274	41877.89
583.471	40784.27
583.669	41206.16
583.866	40837.52
584.064	41316.75
584.262	40554.9
584.459	41413
584.657	40413.59
584.854	41025.93
585.052	40114.59
585.249	40288.67
585.447	40362.39
585.644	40173.98
585.841	40210.84
586.039	40339.86
586.236	39821.73
586.434	39508.39
586.631	39532.96
586.828	39565.73
587.026	39930.27
587.223	39379.37
587.42	39180.71
587.618	39203.24
587.815	38891.95
588.012	38769.07
588.21	38738.35
588.407	39285.16
588.604	38689.2
588.801	38236.6
588.999	38683.06
589.196	38349.24
589.393	38275.51
589.59	38240.7
589.787	38273.46
589.984	38021.56
590.182	37503.43
590.379	37947.84
590.576	37470.66
590.773	37452.23
590.97	37108.17
591.167	37267.91
591.364	37151.18
591.561	37161.42
591.758	36942.28
591.955	36985.29
592.152	37456.32
592.349	36481.49
592.546	36565.46
592.743	36610.51
592.94	35887.58
593.137	36465.11
593.334	36456.92
593.531	35811.81
593.727	36004.31
593.924	35797.47
594.121	35631.58
594.318	35463.65
594.515	35533.28
594.712	35787.23
594.908	35250.66
595.105	35688.93
595.302	35129.83
595.499	35371.49
595.696	35176.94
595.892	34744.81
596.089	34875.88
596.286	35115.5
596.482	34533.87
596.679	34703.85
596.876	34118.14
597.072	34480.63
597.269	34251.25
597.466	34157.05
597.662	33810.94
597.859	34234.87
598.055	34032.12
598.252	33544.7
598.448	33856
598.645	33108.49
598.841	32903.69
599.038	32946.7
599.234	33417.73
599.431	33221.13
599.627	33071.62
599.824	33321.48
600.02	32520.72
600.217	32870.92
600.413	32442.9
600.609	32635.41
600.806	32346.64
601.002	32535.06
601.198	32379.41
601.395	31988.25
601.591	32154.13
601.787	31906.33
601.984	31390.24
602.18	32021.02
602.376	31679
602.572	31717.92
602.769	31494.69
602.965	30732.84
603.161	31562.27
603.357	31515.17
603.553	31142.44
603.75	31242.79
603.946	31078.95
604.142	31037.99
604.338	30732.84
604.534	30935.59
604.73	30478.89
604.926	30534.19
605.122	30677.55
605.318	29930.04
605.514	29817.4
605.71	29743.67
605.906	29956.66
606.102	29956.66
606.298	30089.78
606.494	29542.97
606.69	30016.05
606.886	29688.38
607.082	29248.07
607.278	29581.88
607.474	29121.09
607.67	29846.07
607.866	29174.34
608.062	29792.83
608.257	28897.86
608.453	28934.73
608.649	29078.08
608.845	28551.76
609.041	29057.6
609.236	28877.38
609.432	28742.22
609.628	28826.18
609.824	28512.84
610.019	28412.49
610.215	28170.83
610.411	28815.94
610.606	28191.31
610.802	28162.64
610.998	28322.38
611.193	27980.37
611.389	27957.85
611.584	27587.16
611.78	27738.71
611.976	27990.61
612.171	27554.4
612.367	27646.55
612.562	27538.01
612.758	27126.37
612.953	27212.38
613.149	27650.65
613.344	27247.2
613.539	27527.77
613.735	26839.65
613.93	27333.21
614.126	27220.58
614.321	27376.22
614.517	27081.31
614.712	26997.35
614.907	26751.59
615.103	27073.12
615.298	26729.06
615.493	27114.08
615.688	26487.4
615.884	26978.92
616.079	26290.8
616.274	26659.43
616.47	26210.93
616.665	26579.56
616.86	26139.25
617.055	26255.98
617.25	26049.14
617.445	26403.44
617.641	25651.83
617.836	26014.32
618.031	25680.5
618.226	26106.48
618.421	25465.47
618.616	25893.49
618.811	25287.29
619.006	25793.14
619.201	24740.49
619.396	25410.17
619.591	24642.18
619.786	25342.59
619.981	24570.51
620.176	25250.43
620.371	24683.14
620.566	24666.76
620.761	24412.81
620.956	24662.66
621.151	24279.69
621.346	24406.67
621.541	23919.25
621.735	24298.13
621.93	23753.37
622.125	23880.34
622.32	23122.59
622.515	23560.86
622.709	23526.04
622.904	23190.17
623.099	23145.12
623.294	23366.3
623.488	22598.31
623.683	22960.8
623.878	22366.89
624.072	22536.87
624.267	22381.23
624.462	22405.8
624.656	22031.02
624.851	21953.2
625.046	21908.15
625.24	21887.67
625.435	21703.35
625.629	21521.08
625.824	21265.08
626.018	21353.15
626.213	21027.52
626.407	21424.83
626.602	20785.86
626.796	20904.64
626.991	20964.03
627.185	20783.81
627.38	20482.76
627.574	20658.88
627.768	20372.17
627.963	20128.46
628.157	20030.16
628.352	20107.98
628.546	19604.18
628.74	19847.89
628.935	19983.06
629.129	19524.31
629.323	19354.33
629.517	19086.04
629.712	19258.07
629.906	19444.44
630.1	18918.11
630.294	19049.18
630.489	18887.39
630.683	18778.85
630.877	18406.12
631.071	18434.79
631.265	18522.85
631.459	18170.6
631.653	17994.48
631.848	18064.11
632.042	18289.38
632.236	18166.51
632.43	17763.06
632.624	17836.78
632.818	17836.78
633.012	17605.36
633.206	17486.58
633.4	17437.43
633.594	17189.63
633.788	17375.99
633.982	17445.62
634.176	17255.16
634.369	16839.42
634.563	17048.32
634.757	16794.37
634.951	16763.65
635.145	16771.84
635.339	16757.5
635.533	16519.94
635.726	16681.73
635.92	16126.73
636.114	16034.57
636.308	16108.3
636.501	16163.59
636.695	16081.67
636.889	16001.8
637.083	15821.58
637.276	15928.08
637.47	15565.59
637.664	15758.1
637.857	15694.61
638.051	15293.21
638.244	15188.76
638.438	15242.01
638.632	14938.91
638.825	15125.27
639.019	14861.09
639.212	14629.66
639.406	14727.97
639.599	14609.19
639.793	14687.01
639.986	14547.75
640.18	14308.13
640.373	14431.01
640.567	13990.7
640.76	14101.29
640.954	13978.41
641.147	13986.6
641.34	14054.19
641.534	13949.74
641.727	13890.35
641.92	13716.27
642.114	13611.82
642.307	13742.89
642.5	13589.3
642.694	13321.01
642.887	13292.34
643.08	13409.08
643.273	13278.01
643.467	13191.99
643.66	12716.86
643.853	12970.81
644.046	12800.83
644.239	12675.9
644.432	12823.36
644.626	12538.69
644.819	12659.52
645.012	12579.65
645.205	12620.61
645.398	12399.43
645.591	12309.32
645.784	12032.84
645.977	12292.93
646.17	12436.29
646.363	12053.32
646.556	11758.41
646.749	11922.25
646.942	12053.32
647.135	11557.71
647.328	11496.27
647.521	11496.27
647.714	11449.17
647.907	11408.21
648.099	11328.34
648.292	11201.37
648.485	11455.31
648.678	11240.28
648.871	10994.52
649.064	10804.06
649.256	10910.55
649.449	11012.95
649.642	10773.34
649.835	10791.77
650.027	10701.66
650.22	10681.18
650.413	10468.19
650.605	10470.24
650.798	10425.18
650.991	10269.54
651.183	10431.33
651.376	10169.19
651.568	10390.37
651.761	10011.5
651.954	9929.58
652.146	10212.2
652.339	10294.11
652.531	10029.93
652.724	9851.75
652.916	9679.72
653.109	9712.49
653.301	9706.35
653.494	9593.71
653.686	9302.9
653.879	9507.69
654.071	9636.72
654.263	9177.97
654.456	9278.32
654.648	9436.02
654.84	9091.96
655.033	9223.03
655.225	9061.24
655.417	9145.2
655.61	9214.84
655.802	9223.03
655.994	9057.14
656.186	8991.61
656.379	8844.15
656.571	8928.12
656.763	8778.62
656.955	8713.08
657.148	8784.76
657.34	8649.6
657.532	8448.9
657.724	8498.05
657.916	8647.55
658.108	8338.3
658.3	8125.32
658.492	8256.39
658.684	8033.16
658.876	8149.89
659.068	8174.47
659.26	8168.32
659.452	8037.25
659.644	7936.9
659.836	8027.01
660.028	8084.36
660.22	7664.52
660.412	7881.61
660.604	7744.39
660.796	7508.88
660.988	7492.49
661.18	7623.56
661.372	7472.01
661.563	7449.49
661.755	7377.81
661.947	7496.59
662.139	7230.35
662.331	7338.9
662.522	7238.55
662.714	7099.28
662.906	7134.1
663.097	7091.09
663.289	7078.8
663.481	6863.77
663.673	6990.74
663.864	6886.29
664.056	6796.18
664.247	6777.75
664.439	6626.2
664.631	6640.54
664.822	6663.07
665.014	6572.96
665.205	6699.93
665.397	6323.1
665.588	6370.21
665.78	6517.66
665.971	6478.75
666.163	6380.45
666.354	6331.3
666.546	6351.78
666.737	6255.52
666.929	6163.36
667.12	6101.92
667.311	6032.29
667.503	6173.6
667.694	6130.59
667.885	5987.24
668.077	5958.57
668.268	5942.18
668.459	5938.09
668.651	5888.93
668.842	5716.9
669.033	5710.76
669.224	5735.34
669.416	5690.28
669.607	5749.67
669.798	5493.68
669.989	5725.1
670.18	5454.76
670.371	5565.36
670.563	5755.82
670.754	5417.9
670.945	5501.87
671.136	5473.2
671.327	5426.09
671.518	5405.61
671.709	5288.88
671.9	5401.52
672.091	5385.13
672.282	5426.09
672.473	5034.93
672.664	5172.15
672.855	5147.57
673.046	5202.86
673.237	5157.81
673.428	5225.39
673.619	5141.43
673.809	5249.97
674	5082.03
674.191	5110.71
674.382	5026.74
674.573	4932.53
674.764	4969.4
674.954	5032.88
675.145	4967.35
675.336	4879.29
675.527	4778.94
675.717	4920.24
675.908	4877.24
676.099	4901.81
676.289	4615.1
676.48	4748.22
676.671	4656.06
676.861	4756.41
677.052	4770.74
677.243	4623.29
677.433	4643.77
677.624	4649.91
677.814	4549.56
678.005	4645.82
678.195	4651.96
678.386	4492.22
678.576	4557.75
678.767	4420.54
678.957	4484.03
679.148	4703.16
679.338	4576.19
679.529	4608.95
679.719	4488.12
679.909	4441.02
680.1	4469.69
680.29	4373.44
680.481	4494.27
680.671	4426.68
680.861	4385.73
681.052	4299.71
681.242	4393.92
681.432	4336.57
681.622	4228.03
681.813	4264.89
682.003	4205.5
682.193	4389.82
682.383	4361.15
682.573	4336.57
682.764	4258.75
682.954	4215.74
683.144	4230.08
683.334	4285.37
683.524	4279.23
683.714	4252.61
683.904	4420.54
684.094	4352.96
684.284	4197.31
684.474	4338.62
684.664	4121.54
684.854	4207.55
685.044	4324.29
685.234	4084.67
685.424	4133.82
685.614	4217.79
685.804	4142.02
685.994	4172.74
686.184	4127.68
686.374	4101.06
686.564	4111.3
686.753	4008.9
686.943	4146.11
687.133	4084.67
687.323	4060.1
687.513	4213.7
687.702	4139.97
687.892	3969.99
688.082	4117.44
688.272	4142.02
688.461	4041.67
688.651	4158.4
688.841	4074.43
689.03	4045.76
689.22	3980.23
689.41	4058.05
689.599	4004.8
689.789	4078.53
689.979	4017.09
690.168	3947.46
690.358	4037.57
690.547	3875.78
690.737	3965.89
690.926	3918.79
691.116	3820.49
691.305	3898.31
691.495	3771.33
691.684	3871.68
691.874	3703.75
692.063	3840.97
692.252	3920.84
692.442	3814.34
692.631	3859.4
692.82	3797.96
693.01	3812.29
693.199	3818.44
693.388	3691.46
693.578	3822.53
693.767	3748.81
693.956	3773.38
694.146	3738.57
694.335	3744.71
694.524	3673.03
694.713	3754.95
694.902	3642.31
695.092	3607.5
695.281	3533.77
695.47	3630.02
695.659	3591.11
695.848	3734.47
696.037	3582.92
696.226	3693.51
696.415	3636.17
696.604	3804.1
696.793	3517.39
696.982	3644.36
697.171	3525.58
697.36	3630.02
697.549	3584.97
697.738	3603.4
697.927	3582.92
698.116	3701.7
698.305	3570.63
698.494	3421.13
698.683	3488.71
698.872	3591.11
699.061	3472.33
699.25	3388.36
699.438	3484.62
699.627	3468.24
699.816	3496.91
700.005	3298.25
700.193	3312.59
700.382	3429.32
700.571	3464.14
700.76	3382.22
700.948	3380.17
701.137	3339.21
701.326	3296.21
701.514	3378.12
701.703	3308.49
701.892	3333.07
702.08	3509.19
702.269	3308.49
702.457	3212.24
702.646	3238.86
702.834	3345.36
703.023	3238.86
703.212	3290.06
703.4	3173.33
703.589	3255.25
703.777	3232.72
703.965	3238.86
704.154	3156.94
704.342	3087.31
704.531	3128.27
704.719	3093.46
704.907	3148.75
705.096	3025.87
705.284	3181.52
705.472	3099.6
705.661	3132.37
705.849	3048.4
706.037	3009.49
706.226	3027.92
706.414	3115.98
706.602	2993.11
706.79	3099.6
706.979	3017.68
707.167	3083.22
707.355	3054.55
707.543	3005.39
707.731	3034.07
707.919	3044.31
708.107	3048.4
708.296	2935.76
708.484	2874.32
708.672	3023.83
708.86	2927.57
709.048	2931.67
709.236	2855.89
709.424	2941.91
709.612	2829.27
709.8	2786.26
709.988	2894.8
710.176	2751.45
710.364	2847.7
710.551	2919.38
710.739	2870.23
710.927	2806.74
711.115	2747.35
711.303	2859.99
711.491	2851.8
711.679	2829.27
711.866	2673.62
712.054	2706.39
712.242	2735.06
712.43	2683.86
712.617	2763.73
712.805	2647
712.993	2741.21
713.181	2806.74
713.368	2665.43
713.556	2698.2
713.744	2718.68
713.931	2708.44
714.119	2667.48
714.306	2649.05
714.494	2730.97
714.682	2630.62
714.869	2610.14
715.057	2571.22
715.244	2538.46
715.432	2483.16
715.619	2606.04
715.807	2534.36
715.994	2503.64
716.182	2460.63
716.369	2556.89
716.556	2636.76
716.744	2434.01
716.931	2536.41
717.119	2438.11
717.306	2468.83
717.493	2517.98
717.681	2472.92
717.868	2452.44
718.055	2526.17
718.242	2436.06
718.43	2427.87
718.617	2282.46
718.804	2454.49
718.991	2462.68
719.179	2370.52
719.366	2411.48
719.553	2382.81
719.74	2354.14
719.927	2378.72
720.114	2292.7
720.301	2284.51
720.488	2241.5
720.676	2296.8
720.863	2292.7
721.05	2307.04
721.237	2165.73
721.424	2261.98
721.611	2343.9
721.798	2169.82
721.985	2266.08
722.172	2132.96
722.358	2182.11
722.545	2182.11
722.732	2223.07
722.919	2300.89
723.106	2243.55
723.293	2180.06
723.48	2315.23
723.667	2167.77
723.853	2161.63
724.04	2251.74
724.227	2208.73
724.414	2126.82
724.6	2141.15
724.787	2135.01
724.974	2216.93
725.161	2143.2
725.347	2110.43
725.534	2116.58
725.72	2051.04
725.907	2069.47
726.094	2083.81
726.28	2069.47
726.467	2026.47
726.653	2020.32
726.84	2075.62
727.027	2153.44
727.213	2028.51
727.4	2085.86
727.586	2067.42
727.773	1936.35
727.959	2067.42
728.145	1960.93
728.332	2020.32
728.518	2010.08
728.705	2069.47
728.891	1944.55
729.077	1946.59
729.264	1928.16
729.45	1840.1
729.636	1962.98
729.823	1897.44
730.009	1932.26
730.195	1829.86
730.382	1895.4
730.568	1960.93
730.754	1854.44
730.94	1864.68
731.126	1962.98
731.313	1850.34
731.499	1788.9
731.685	1825.76
731.871	1911.78
732.057	1862.63
732.243	1883.11
732.429	1772.52
732.615	1770.47
732.801	1907.68
732.987	1821.67
733.173	1846.24
733.359	1866.72
733.545	1795.04
733.731	1809.38
733.917	1764.33
734.103	1866.72
734.289	1758.18
734.475	1766.37
734.661	1813.48
734.847	1737.7
735.033	1754.09
735.219	1737.7
735.404	1733.61
735.59	1657.83
735.776	1715.17
735.962	1758.18
736.148	1749.99
736.333	1715.17
736.519	1643.49
736.705	1600.49
736.89	1629.16
737.076	1545.19
737.262	1543.14
737.447	1623.02
737.633	1764.33
737.819	1588.2
738.004	1496.04
738.19	1565.67
738.375	1620.97
738.561	1739.75
738.747	1530.86
738.932	1641.45
739.118	1537
739.303	1594.34
739.489	1575.91
739.674	1588.2
739.859	1524.71
740.045	1545.19
740.23	1514.47
740.416	1498.09
740.601	1528.81
740.786	1545.19
740.972	1508.33
741.157	1551.34
741.342	1397.74
741.528	1428.46
741.713	1530.86
741.898	1465.32
742.084	1453.03
742.269	1530.86
742.454	1477.61
742.639	1395.69
742.824	1457.13
743.01	1496.04
743.195	1428.46
743.38	1379.31
743.565	1440.75
743.75	1416.17
743.935	1422.31
744.12	1444.84
744.305	1332.2
744.49	1276.91
744.675	1379.31
744.86	1315.82
745.045	1430.51
745.23	1352.68
745.415	1412.07
745.6	1305.58
745.785	1321.96
745.97	1356.78
746.155	1307.63
746.34	1297.39
746.525	1266.67
746.71	1393.64
746.895	1264.62
747.079	1256.43
747.264	1289.2
747.449	1250.28
747.634	1233.9
747.819	1231.85
748.003	1287.15
748.188	1272.81
748.373	1248.24
748.557	1137.65
748.742	1199.09
748.927	1213.42
749.111	1207.28
749.296	1076.21
749.481	1178.61
749.665	1084.4
749.85	1174.51
750.034	1244.14
750.219	1182.7
750.404	1207.28
750.588	1063.92
750.773	1135.6
750.957	1129.45
751.141	1045.49
751.326	1149.93
751.51	1096.69
751.695	1022.96
751.879	1059.82
752.064	1063.92
752.248	1096.69
752.432	1057.78
752.617	1098.74
752.801	1078.26
752.985	1006.58
753.17	1047.54
753.354	1031.15
753.538	979.95
753.722	936.95
753.907	996.34
754.091	977.91
754.275	1002.48
754.459	1025.01
754.643	1068.02
754.828	953.33
755.012	1037.3
755.196	986.1
755.38	971.76
755.564	945.14
755.748	973.81
755.932	920.56
756.116	953.33
756.3	904.18
756.484	879.6
756.668	871.41
756.852	938.99
757.036	930.8
757.22	930.8
757.404	916.47
757.588	906.23
757.772	783.35
757.956	809.97
758.14	822.26
758.323	879.6
758.507	809.97
758.691	793.59
758.875	832.5
759.059	908.27
759.242	797.68
759.426	787.44
759.61	803.83
759.794	816.12
759.977	828.4
760.161	822.26
760.345	879.6
760.528	846.84
760.712	830.45
760.895	748.53
761.079	752.63
761.263	740.34
761.446	705.53
761.63	769.01
761.813	783.35
761.997	783.35
762.18	717.81
762.364	723.96
762.547	723.96
762.731	781.3
762.914	750.58
763.098	717.81
763.281	664.57
763.464	777.2
763.648	760.82
763.831	750.58
764.015	693.24
764.198	664.57
764.381	758.77
764.564	668.66
764.748	699.38
764.931	596.98
765.114	707.57
765.297	740.34
765.481	654.33
765.664	644.09
765.847	785.4
766.03	629.75
766.213	670.71
766.397	674.81
766.58	652.28
766.763	723.96
766.946	623.61
767.129	674.81
767.312	676.85
767.495	658.42
767.678	676.85
767.861	699.38
768.044	633.85
768.227	652.28
768.41	676.85
768.593	660.47
768.776	711.67
768.959	683
769.142	740.34
769.324	642.04
769.507	678.9
769.69	685.05
769.873	695.29
770.056	619.51
770.239	674.81
770.421	693.24
770.604	617.46
770.787	670.71
770.97	633.85
771.152	629.75
771.335	617.46
771.518	623.61
771.7	656.37
771.883	683
772.066	574.46
772.248	601.08
772.431	603.13
772.613	547.83
772.796	660.47
772.978	623.61
773.161	613.37
773.343	592.89
773.526	553.98
773.708	572.41
773.891	633.85
774.073	531.45
774.256	510.97
774.438	609.27
774.621	568.31
774.803	574.46
774.985	586.74
775.168	609.27
775.35	506.87
775.532	639.99
775.715	535.54
775.897	553.98
776.079	539.64
776.261	480.25
776.444	584.7
776.626	582.65
776.808	576.5
776.99	472.06
777.173	510.97
777.355	529.4
777.537	453.63
777.719	463.86
777.901	494.58
778.083	422.91
778.265	463.86
778.447	527.35
778.629	508.92
778.811	461.82
778.993	476.15
779.175	529.4
779.357	394.23
779.539	402.43
779.721	412.67
779.903	476.15
780.085	461.82
780.267	455.67
780.449	398.33
780.631	488.44
780.812	447.48
780.994	457.72
781.176	457.72
781.358	388.09
781.54	392.19
781.721	510.97
781.903	429.05
782.085	429.05
782.267	447.48
782.448	424.95
782.63	422.91
782.812	414.71
782.993	381.95
783.175	412.67
783.357	386.04
783.538	437.24
783.72	345.08
783.901	367.61
784.083	488.44
784.264	396.28
784.446	398.33
784.627	365.56
784.809	300.03
784.99	320.51
785.172	369.66
785.353	392.19
785.535	302.08
785.716	365.56
785.897	340.99
786.079	338.94
786.26	363.51
786.441	455.67
786.623	281.6
786.804	373.75
786.985	330.75
787.167	324.6
787.348	351.23
787.529	316.41
787.71	318.46
787.891	336.89
788.073	304.12
788.254	336.89
788.435	277.5
788.616	300.03
788.797	283.64
788.978	291.84
789.159	269.31
789.34	347.13
789.522	267.26
789.703	314.36
789.884	316.41
790.065	281.6
790.246	379.9
790.427	281.6
790.607	304.12
790.788	257.02
790.969	224.25
791.15	285.69
791.331	275.45
791.512	338.94
791.693	216.06
791.874	175.1
792.054	371.71
792.235	300.03
792.416	248.83
792.597	252.92
792.778	226.3
792.958	310.27
793.139	306.17
793.32	252.92
793.5	289.79
793.681	277.5
793.862	285.69
794.042	230.4
794.223	281.6
794.404	265.21
794.584	158.72
794.765	199.68
794.945	158.72
795.126	259.07
795.306	273.4
795.487	209.92
795.667	224.25
795.848	285.69
796.028	232.44
796.209	250.88
796.389	345.08
796.57	275.45
796.75	242.68
796.93	310.27
797.111	271.36
797.291	232.44
797.471	242.68
797.652	185.34
797.832	171.01
798.012	261.12
798.192	189.44
798.373	187.39
798.553	193.53
798.733	283.64
798.913	175.1
799.093	111.61
799.274	207.87
799.454	232.44
799.634	285.69
799.814	289.79
799.994	216.06
800.174	285.69
800.354	191.49
800.534	150.53
800.714	195.58
800.894	218.11
801.074	220.16
801.254	109.57
801.434	199.68
801.614	130.05
801.794	160.77
801.974	822.26
802.154	152.57
802.334	224.25
802.514	228.35
802.693	209.92
802.873	134.14
803.053	158.72
803.233	216.06
803.413	209.92
803.592	207.87
803.772	218.11
803.952	226.3
804.131	175.1
804.311	158.72
804.491	224.25
804.67	113.66
804.85	142.33
805.03	250.88
805.209	326.65
805.389	80.89
805.568	150.53
805.748	185.34
805.928	109.57
806.107	64.51
806.287	220.16
806.466	205.82
806.646	111.61
806.825	154.62
807.004	134.14
807.184	168.96
807.363	150.53
807.543	105.47
807.722	130.05
807.901	158.72
808.081	130.05
808.26	150.53
808.439	160.77
808.619	158.72
808.798	111.61
808.977	144.38
809.156	164.86
809.336	125.95
809.515	175.1
809.694	117.76
809.873	97.28
810.052	152.57
810.231	224.25
810.411	164.86
810.59	168.96
810.769	183.29
810.948	234.49
811.127	134.14
811.306	168.96
811.485	113.66
811.664	175.1
811.843	128
812.022	121.85
812.201	113.66
812.38	201.72
812.559	60.42
812.737	105.47
812.916	158.72
813.095	109.57
813.274	142.33
813.453	142.33
813.632	166.91
813.811	162.81
813.989	103.42
814.168	238.59
814.347	142.33
814.526	101.37
814.704	93.18
814.883	113.66
815.062	64.51
815.24	84.99
815.419	64.51
815.598	134.14
815.776	113.66
815.955	154.62
816.133	93.18
816.312	185.34
816.49	121.85
816.669	109.57
816.847	125.95
817.026	209.92
817.204	39.94
817.383	144.38
817.561	95.23
817.74	107.52
817.918	218.11
818.097	76.8
818.275	80.89
818.453	154.62
818.632	105.47
818.81	154.62
818.988	89.09
819.167	134.14
819.345	87.04
819.523	56.32
819.701	84.99
819.879	87.04
820.058	166.91
820.236	109.57
820.414	39.94
820.592	68.61
820.77	52.22
820.948	103.42
821.127	70.65
821.305	158.72
821.483	105.47
821.661	179.2
821.839	95.23
822.017	62.46
822.195	52.22
822.373	105.47
822.551	80.89
822.729	146.43
822.907	52.22
823.085	136.19
823.262	132.09
823.44	101.37
823.618	117.76
823.796	158.72
823.974	74.75
824.152	56.32
824.329	54.27
824.507	115.71
824.685	164.86
824.863	117.76
825.04	95.23
825.218	199.68
825.396	60.42
825.574	117.76
825.751	146.43
825.929	78.85
826.107	27.65
826.284	87.04
826.462	93.18
826.639	35.84
826.817	27.65
826.994	13.31
827.172	105.47
827.349	119.81
827.527	117.76
827.704	91.13
827.882	119.81
828.059	89.09
828.237	62.46
828.414	130.05
828.591	-11.26
828.769	119.81
828.946	19.46
829.124	95.23
829.301	56.32
829.478	183.29
829.655	119.81
829.833	84.99
830.01	33.79
830.187	50.18
830.364	93.18
830.542	80.89
830.719	150.53
830.896	97.28
831.073	54.27
831.25	113.66
831.427	148.48
831.604	39.94
831.782	-1.02
831.959	84.99
832.136	11.26
832.313	97.28
832.49	80.89
832.667	91.13
832.844	105.47
833.021	101.37
833.198	39.94
833.374	105.47
833.551	93.18
833.728	70.65
833.905	50.18
834.082	68.61
834.259	13.31
834.436	121.85
834.612	-7.17
834.789	115.71
834.966	-3.07
835.143	93.18
835.319	-23.55
835.496	109.57
835.673	84.99
835.85	84.99
836.026	80.89
836.203	144.38
836.38	5.12
836.556	46.08
836.733	1.02
836.909	113.66
837.086	60.42
837.262	5.12
837.439	89.09
837.616	-25.6
837.792	52.22
837.968	101.37
838.145	15.36
838.321	-17.41
838.498	21.5
838.674	74.75
838.851	44.03
839.027	89.09
839.203	76.8
839.38	87.04
839.556	21.5
839.732	72.7
839.909	19.46
840.085	121.85
840.261	95.23
840.437	95.23
840.614	29.7
840.79	158.72
840.966	54.27
841.142	99.33
841.318	41.98
841.494	117.76
841.671	138.24
841.847	21.5
842.023	5.12
842.199	76.8
842.375	103.42
842.551	-35.84
842.727	39.94
842.903	117.76
843.079	-46.08
843.255	84.99
843.431	70.65
843.607	119.81
843.783	-27.65
843.959	70.65
844.134	15.36
844.31	103.42
844.486	-15.36
844.662	23.55
844.838	60.42
845.013	103.42
845.189	52.22
845.365	-19.46
845.541	-13.31
845.716	72.7
845.892	50.18
846.068	39.94
846.244	-48.13
846.419	-58.37
846.595	-46.08
846.77	41.98
846.946	87.04
847.122	46.08
847.297	19.46
847.473	97.28
847.648	-13.31
847.824	-3.07
847.999	21.5
848.175	95.23
848.35	27.65
848.526	109.57
848.701	76.8
848.876	19.46
849.052	101.37
849.227	35.84
849.403	44.03
849.578	15.36
849.753	54.27
849.929	58.37
850.104	-3.07
850.279	46.08
850.454	35.84
850.63	60.42
850.805	-23.55
850.98	21.5
851.155	44.03
851.33	68.61
851.505	50.18
851.681	76.8
851.856	-27.65
852.031	54.27
852.206	60.42
852.381	-48.13
852.556	27.65
852.731	-54.27
852.906	76.8
853.081	-21.5
853.256	41.98
853.431	62.46
853.606	-60.42
853.781	27.65
853.956	-15.36
854.131	35.84
854.305	50.18
854.48	68.61
854.655	-3.07
854.83	-13.31
855.005	27.65
855.18	60.42
855.354	-15.36
855.529	60.42
855.704	68.61
855.879	64.51
856.053	48.13
856.228	84.99
856.403	-13.31
856.577	103.42
856.752	21.5
856.926	-37.89
857.101	72.7
857.276	70.65
857.45	3.07
857.625	76.8
857.799	7.17
857.974	68.61
858.148	-74.75
858.323	25.6
858.497	68.61
858.672	3.07
858.846	44.03
859.02	64.51
859.195	-5.12
859.369	64.51
859.543	46.08
859.718	37.89
859.892	44.03
860.066	33.79
860.241	37.89
860.415	64.51
860.589	50.18
860.763	-5.12
860.938	39.94
861.112	74.75
861.286	-3.07
861.46	103.42
861.634	27.65
861.808	1.02
861.982	-29.7
862.157	19.46
862.331	27.65
862.505	-25.6
862.679	27.65
862.853	52.22
863.027	23.55
863.201	-29.7
863.375	35.84
863.549	31.74
863.722	44.03
863.896	27.65
864.07	62.46
864.244	93.18
864.418	56.32
864.592	11.26
864.766	44.03
864.939	78.85
865.113	48.13
865.287	84.99
865.461	3.07
865.634	54.27
865.808	19.46
865.982	68.61
866.156	-13.31
866.329	35.84
866.503	-41.98
866.676	121.85
866.85	21.5
867.024	11.26
867.197	-5.12
867.371	21.5
867.544	3.07
867.718	87.04
867.891	48.13
868.065	15.36
868.238	37.89
868.412	-21.5
868.585	-58.37
868.759	46.08
868.932	-3.07
869.105	54.27
869.279	68.61
869.452	-27.65
869.625	-3.07
869.799	-70.65
869.972	50.18
870.145	9.22
870.319	5.12
870.492	35.84
870.665	9.22
870.838	66.56
871.011	5.12
871.185	82.94
871.358	-5.12
871.531	1.02
871.704	76.8
871.877	62.46
872.05	-74.75
872.223	19.46
872.396	-29.7
872.569	15.36
872.742	-44.03
872.915	29.7
873.088	31.74
873.261	11.26
873.434	31.74
873.607	-25.6
873.78	11.26
873.953	-13.31
874.126	-9.22
874.299	3.07
874.471	9.22
874.644	44.03
874.817	64.51
874.99	23.55
875.163	-1.02
875.335	-7.17
875.508	35.84
875.681	21.5
875.853	44.03
876.026	97.28
876.199	-25.6
876.371	117.76
876.544	41.98
876.717	-5.12
876.889	-11.26
877.062	3.07
877.234	3.07
877.407	60.42
877.579	80.89
877.752	13.31
877.924	5.12
878.097	15.36
878.269	-5.12
878.442	-1.02
878.614	76.8
878.786	66.56
878.959	39.94
879.131	25.6
879.303	-105.47
879.476	31.74
879.648	-19.46
879.82	58.37
879.993	21.5
880.165	9.22
880.337	27.65
880.509	3.07
880.681	31.74
880.854	-80.89
881.026	93.18
881.198	119.81
881.37	-7.17
881.542	17.41
881.714	11.26
881.886	7.17
882.058	97.28
882.23	52.22
882.402	27.65
882.574	29.7
882.746	27.65
882.918	72.7
883.09	33.79
883.262	19.46
883.434	-21.5
883.606	-31.74
883.778	-41.98
883.95	35.84
884.122	48.13
884.293	95.23
884.465	-21.5
884.637	3.07
884.809	23.55
884.98	11.26
885.152	15.36
885.324	37.89
885.496	-11.26
885.667	-1.02
885.839	-5.12
886.011	-46.08
886.182	19.46
886.354	60.42
886.525	-9.22
886.697	117.76
886.869	5.12
887.04	-37.89
887.212	23.55
887.383	3.07
887.555	-27.65
887.726	-33.79
887.897	9.22
888.069	-13.31
888.24	35.84
888.412	31.74
888.583	35.84
888.754	76.8
888.926	-9.22
889.097	17.41
889.268	-62.46
889.44	35.84
889.611	66.56
889.782	37.89
889.953	-68.61
890.125	48.13
890.296	62.46
890.467	-37.89
890.638	56.32
890.809	-5.12
890.98	15.36
891.151	72.7
891.323	54.27
891.494	-21.5
891.665	21.5
891.836	107.52
892.007	-21.5
892.178	19.46
892.349	-27.65
892.52	-11.26
892.691	-21.5
892.862	-9.22
893.032	62.46
893.203	74.75
893.374	13.31
893.545	58.37
893.716	-5.12
893.887	68.61
894.057	-15.36
894.228	60.42
894.399	5.12
894.57	29.7
894.74	33.79
894.911	21.5
895.082	-68.61
895.253	5.12
895.423	29.7
895.594	54.27
895.764	-1.02
895.935	-15.36
896.106	19.46
896.276	-41.98
896.447	-50.18
896.617	-33.79
896.788	-13.31
896.958	-13.31
897.129	-60.42
897.299	31.74
897.47	54.27
897.64	17.41
897.81	3.07
897.981	84.99
898.151	-13.31
898.322	13.31
898.492	17.41
898.662	19.46
898.832	-21.5
899.003	-25.6
899.173	21.5
899.343	-7.17
899.513	-9.22
