Data from USB4F104151__177__14-45-03-833.txt Node

Date: Thu Mar 13 14:45:03 EDT 2025
User: louis
Spectrometer: USB4F10415
Trigger mode: 4
Integration Time (sec): 2.000000E-2
Scans to average: 1
Electric dark correction enabled: true
Nonlinearity correction enabled: false
Boxcar width: 0
XAxis mode: Wavelengths
Number of Pixels in Spectrum: 3648
>>>>>Begin Spectral Data<<<<<
178.204	-43.86
178.424	-43.86
178.644	-43.86
178.864	-133.97
179.084	-111.44
179.304	-37.72
179.524	9.39
179.744	25.77
179.964	-29.52
180.184	-9.05
180.404	13.48
180.624	7.34
180.844	36.01
181.064	-78.68
181.283	-13.14
181.503	19.63
181.723	56.49
181.943	-78.68
182.163	169.13
182.383	13.48
182.602	76.97
182.822	13.48
183.042	25.77
183.262	-13.14
183.482	64.68
183.701	5.29
183.921	62.63
184.141	-50
184.361	72.87
184.58	-11.09
184.8	64.68
185.02	68.78
185.239	62.63
185.459	-29.52
185.679	-2.9
185.898	23.72
186.118	85.16
186.338	13.48
186.557	52.39
186.777	1.19
186.997	3.24
187.216	1.19
187.436	68.78
187.655	19.63
187.875	-4.95
188.095	-9.05
188.314	56.49
188.534	119.98
188.753	89.26
188.973	44.2
189.192	60.59
189.412	19.63
189.631	11.43
189.851	36.01
190.07	109.74
190.29	76.97
190.509	-13.14
190.729	68.78
190.948	48.3
191.168	40.11
191.387	44.2
191.607	56.49
191.826	54.44
192.045	66.73
192.265	-27.48
192.484	15.53
192.704	38.06
192.923	-52.05
193.142	105.64
193.362	109.74
193.581	50.35
193.8	62.63
194.02	-13.14
194.239	-25.43
194.458	44.2
194.678	17.58
194.897	50.35
195.116	-45.91
195.335	36.01
195.555	5.29
195.774	-33.62
195.993	36.01
196.212	3.24
196.432	-13.14
196.651	60.59
196.87	-54.1
197.089	31.91
197.308	54.44
197.528	44.2
197.747	-13.14
197.966	42.15
198.185	17.58
198.404	27.82
198.623	-0.85
198.842	44.2
199.062	7.34
199.281	36.01
199.5	-4.95
199.719	89.26
199.938	76.97
200.157	76.97
200.376	44.2
200.595	33.96
200.814	117.93
201.033	68.78
201.252	85.16
201.471	85.16
201.69	3.24
201.909	31.91
202.128	-21.33
202.347	21.67
202.566	17.58
202.785	-4.95
203.004	-52.05
203.223	167.08
203.442	54.44
203.661	48.3
203.879	76.97
204.098	-15.19
204.317	27.82
204.536	27.82
204.755	64.68
204.974	36.01
205.193	-27.48
205.411	50.35
205.63	25.77
205.849	23.72
206.068	11.43
206.287	-21.33
206.505	74.92
206.724	-21.33
206.943	31.91
207.162	15.53
207.381	66.73
207.599	-11.09
207.818	40.11
208.037	68.78
208.255	-2.9
208.474	3.24
208.693	-4.95
208.911	27.82
209.13	-17.24
209.349	19.63
209.567	27.82
209.786	42.15
210.005	44.2
210.223	70.83
210.442	-54.1
210.661	31.91
210.879	64.68
211.098	17.58
211.316	27.82
211.535	25.77
211.753	-43.86
211.972	3.24
212.191	-13.14
212.409	-4.95
212.628	44.2
212.846	13.48
213.065	52.39
213.283	54.44
213.502	95.4
213.72	19.63
213.938	93.35
214.157	-2.9
214.375	52.39
214.594	25.77
214.812	5.29
215.031	-66.39
215.249	-2.9
215.467	46.25
215.686	36.01
215.904	27.82
216.122	13.48
216.341	29.87
216.559	52.39
216.778	40.11
216.996	40.11
217.214	72.87
217.432	-4.95
217.651	33.96
217.869	-25.43
218.087	76.97
218.306	-15.19
218.524	27.82
218.742	85.16
218.96	29.87
219.179	56.49
219.397	46.25
219.615	70.83
219.833	19.63
220.051	23.72
220.27	48.3
220.488	70.83
220.706	68.78
220.924	56.49
221.142	72.87
221.36	21.67
221.578	1.19
221.796	36.01
222.015	-35.67
222.233	19.63
222.451	68.78
222.669	-4.95
222.887	46.25
223.105	60.59
223.323	-29.52
223.541	25.77
223.759	9.39
223.977	54.44
224.195	36.01
224.413	60.59
224.631	68.78
224.849	-4.95
225.067	76.97
225.285	21.67
225.503	64.68
225.721	-11.09
225.939	36.01
226.157	5.29
226.375	89.26
226.592	60.59
226.81	85.16
227.028	-27.48
227.246	68.78
227.464	76.97
227.682	19.63
227.9	15.53
228.117	-21.33
228.335	1.19
228.553	13.48
228.771	81.07
228.989	70.83
229.206	36.01
229.424	27.82
229.642	-37.72
229.86	36.01
230.077	-68.44
230.295	36.01
230.513	134.31
230.731	23.72
230.948	-4.95
231.166	60.59
231.384	29.87
231.601	-9.05
231.819	109.74
232.037	-21.33
232.254	76.97
232.472	9.39
232.689	19.63
232.907	-52.05
233.125	72.87
233.342	95.4
233.56	-2.9
233.777	15.53
233.995	29.87
234.213	29.87
234.43	54.44
234.648	-11.09
234.865	56.49
235.083	44.2
235.3	76.97
235.518	79.02
235.735	126.12
235.953	109.74
236.17	21.67
236.388	38.06
236.605	13.48
236.822	79.02
237.04	40.11
237.257	-54.1
237.475	54.44
237.692	64.68
237.909	-33.62
238.127	-19.29
238.344	79.02
238.562	52.39
238.779	-25.43
238.996	50.35
239.214	111.78
239.431	101.55
239.648	-2.9
239.865	27.82
240.083	27.82
240.3	-76.63
240.517	-4.95
240.735	62.63
240.952	154.79
241.169	101.55
241.386	50.35
241.603	3.24
241.821	-31.57
242.038	52.39
242.255	19.63
242.472	-13.14
242.689	38.06
242.907	48.3
243.124	-31.57
243.341	7.34
243.558	19.63
243.775	-35.67
243.992	21.67
244.209	52.39
244.426	101.55
244.643	115.88
244.86	68.78
245.078	-4.95
245.295	-54.1
245.512	27.82
245.729	-4.95
245.946	76.97
246.163	48.3
246.38	62.63
246.597	7.34
246.814	31.91
247.031	109.74
247.248	109.74
247.464	56.49
247.681	23.72
247.898	-19.29
248.115	40.11
248.332	-2.9
248.549	44.2
248.766	52.39
248.983	72.87
249.2	70.83
249.417	23.72
249.633	-2.9
249.85	29.87
250.067	50.35
250.284	87.21
250.501	60.59
250.717	103.59
250.934	3.24
251.151	46.25
251.368	-23.38
251.585	117.93
251.801	36.01
252.018	-29.52
252.235	93.35
252.451	87.21
252.668	52.39
252.885	117.93
253.102	76.97
253.318	-0.85
253.535	42.15
253.752	-2.9
253.968	44.2
254.185	3.24
254.401	-45.91
254.618	48.3
254.835	25.77
255.051	29.87
255.268	50.35
255.484	79.02
255.701	9.39
255.917	44.2
256.134	40.11
256.351	5.29
256.567	11.43
256.784	97.45
257	-9.05
257.217	19.63
257.433	5.29
257.65	117.93
257.866	40.11
258.082	-17.24
258.299	-9.05
258.515	72.87
258.732	-29.52
258.948	93.35
259.165	-11.09
259.381	-9.05
259.597	85.16
259.814	62.63
260.03	85.16
260.246	-19.29
260.463	109.74
260.679	19.63
260.895	-0.85
261.112	-19.29
261.328	-56.15
261.544	-54.1
261.761	40.11
261.977	29.87
262.193	-29.52
262.409	68.78
262.626	52.39
262.842	7.34
263.058	29.87
263.274	-11.09
263.49	60.59
263.707	38.06
263.923	11.43
264.139	-4.95
264.355	60.59
264.571	93.35
264.787	42.15
265.004	95.4
265.22	38.06
265.436	19.63
265.652	-50
265.868	85.16
266.084	-86.87
266.3	79.02
266.516	19.63
266.732	103.59
266.948	-2.9
267.164	-23.38
267.38	31.91
267.596	13.48
267.812	81.07
268.028	68.78
268.244	46.25
268.46	38.06
268.676	-29.52
268.892	19.63
269.108	3.24
269.324	9.39
269.54	-19.29
269.756	-4.95
269.972	46.25
270.188	68.78
270.403	15.53
270.619	101.55
270.835	93.35
271.051	52.39
271.267	60.59
271.483	87.21
271.698	113.83
271.914	56.49
272.13	76.97
272.346	25.77
272.562	21.67
272.777	38.06
272.993	72.87
273.209	48.3
273.425	79.02
273.64	-37.72
273.856	48.3
274.072	93.35
274.287	17.58
274.503	38.06
274.719	60.59
274.934	29.87
275.15	-78.68
275.366	21.67
275.581	13.48
275.797	25.77
276.012	-37.72
276.228	-9.05
276.444	64.68
276.659	68.78
276.875	11.43
277.09	-35.67
277.306	48.3
277.521	19.63
277.737	-11.09
277.952	29.87
278.168	36.01
278.383	3.24
278.599	33.96
278.814	25.77
279.03	62.63
279.245	79.02
279.461	15.53
279.676	95.4
279.892	72.87
280.107	-2.9
280.322	-4.95
280.538	15.53
280.753	-15.19
280.969	19.63
281.184	-35.67
281.399	101.55
281.615	42.15
281.83	11.43
282.045	3.24
282.26	-13.14
282.476	13.48
282.691	19.63
282.906	70.83
283.122	62.63
283.337	15.53
283.552	-4.95
283.767	-11.09
283.983	-11.09
284.198	-4.95
284.413	44.2
284.628	1.19
284.843	126.12
285.058	40.11
285.274	-2.9
285.489	36.01
285.704	60.59
285.919	36.01
286.134	23.72
286.349	38.06
286.564	52.39
286.779	15.53
286.995	76.97
287.21	-4.95
287.425	11.43
287.64	-7
287.855	23.72
288.07	38.06
288.285	44.2
288.5	50.35
288.715	48.3
288.93	40.11
289.145	68.78
289.36	76.97
289.575	46.25
289.79	79.02
290.004	17.58
290.219	72.87
290.434	-4.95
290.649	3.24
290.864	-29.52
291.079	3.24
291.294	19.63
291.509	36.01
291.724	-4.95
291.938	27.82
292.153	19.63
292.368	-41.81
292.583	36.01
292.798	70.83
293.012	44.2
293.227	-27.48
293.442	-21.33
293.657	97.45
293.871	76.97
294.086	52.39
294.301	72.87
294.516	-43.86
294.73	85.16
294.945	-27.48
295.16	-2.9
295.374	89.26
295.589	72.87
295.804	52.39
296.018	27.82
296.233	68.78
296.447	44.2
296.662	91.31
296.877	79.02
297.091	46.25
297.306	13.48
297.52	11.43
297.735	91.31
297.949	-2.9
298.164	89.26
298.378	-17.24
298.593	62.63
298.807	54.44
299.022	44.2
299.236	-9.05
299.451	-60.24
299.665	-29.52
299.88	70.83
300.094	72.87
300.309	25.77
300.523	48.3
300.737	15.53
300.952	11.43
301.166	68.78
301.381	-23.38
301.595	103.59
301.809	-50
302.024	-4.95
302.238	128.17
302.452	85.16
302.667	3.24
302.881	13.48
303.095	60.59
303.309	48.3
303.524	-62.29
303.738	46.25
303.952	-9.05
304.166	-9.05
304.381	-76.63
304.595	126.12
304.809	97.45
305.023	93.35
305.237	36.01
305.452	76.97
305.666	-29.52
305.88	85.16
306.094	52.39
306.308	52.39
306.522	19.63
306.736	93.35
306.95	85.16
307.164	85.16
307.379	36.01
307.593	66.73
307.807	36.01
308.021	68.78
308.235	36.01
308.449	36.01
308.663	36.01
308.877	27.82
309.091	-0.85
309.305	42.15
309.519	-13.14
309.733	144.55
309.947	11.43
310.161	52.39
310.374	81.07
310.588	29.87
310.802	-45.91
311.016	-4.95
311.23	64.68
311.444	-4.95
311.658	124.07
311.872	-21.33
312.085	-43.86
312.299	48.3
312.513	-4.95
312.727	76.97
312.941	-27.48
313.154	38.06
313.368	11.43
313.582	-66.39
313.796	60.59
314.009	79.02
314.223	60.59
314.437	-2.9
314.651	54.44
314.864	-19.29
315.078	50.35
315.292	27.82
315.505	19.63
315.719	97.45
315.933	48.3
316.146	25.77
316.36	11.43
316.573	60.59
316.787	27.82
317.001	87.21
317.214	25.77
317.428	1.19
317.641	-27.48
317.855	134.31
318.068	17.58
318.282	48.3
318.495	42.15
318.709	99.5
318.922	11.43
319.136	103.59
319.349	29.87
319.563	13.48
319.776	44.2
319.99	29.87
320.203	33.96
320.417	68.78
320.63	31.91
320.843	128.17
321.057	-13.14
321.27	5.29
321.483	126.12
321.697	103.59
321.91	68.78
322.124	5.29
322.337	-15.19
322.55	-35.67
322.763	70.83
322.977	11.43
323.19	21.67
323.403	79.02
323.617	60.59
323.83	-2.9
324.043	11.43
324.256	119.98
324.469	-52.05
324.683	85.16
324.896	-115.54
325.109	-13.14
325.322	11.43
325.535	109.74
325.748	36.01
325.962	-29.52
326.175	36.01
326.388	44.2
326.601	33.96
326.814	56.49
327.027	95.4
327.24	54.44
327.453	-47.96
327.666	85.16
327.879	19.63
328.092	89.26
328.305	52.39
328.518	-4.95
328.731	101.55
328.944	5.29
329.157	91.31
329.37	27.82
329.583	85.16
329.796	85.16
330.009	-25.43
330.222	60.59
330.435	66.73
330.648	70.83
330.861	70.83
331.073	-17.24
331.286	40.11
331.499	19.63
331.712	60.59
331.925	19.63
332.138	23.72
332.35	72.87
332.563	-0.85
332.776	76.97
332.989	72.87
333.202	-13.14
333.414	60.59
333.627	44.2
333.84	70.83
334.053	60.59
334.265	-4.95
334.478	9.39
334.691	134.31
334.903	-21.33
335.116	42.15
335.329	-19.29
335.541	44.2
335.754	152.74
335.966	3.24
336.179	-13.14
336.392	19.63
336.604	40.11
336.817	-13.14
337.029	76.97
337.242	31.91
337.454	93.35
337.667	87.21
337.88	87.21
338.092	15.53
338.305	70.83
338.517	-0.85
338.729	36.01
338.942	56.49
339.154	44.2
339.367	1.19
339.579	5.29
339.792	-54.1
340.004	-4.95
340.217	52.39
340.429	56.49
340.641	58.54
340.854	-45.91
341.066	3.24
341.278	36.01
341.491	76.97
341.703	17.58
341.915	89.26
342.128	17.58
342.34	29.87
342.552	-37.72
342.764	25.77
342.977	109.74
343.189	46.25
343.401	21.67
343.613	-37.72
343.826	29.87
344.038	11.43
344.25	64.68
344.462	1.19
344.674	33.96
344.886	64.68
345.099	-4.95
345.311	40.11
345.523	93.35
345.735	-2.9
345.947	46.25
346.159	21.67
346.371	27.82
346.583	60.59
346.795	62.63
347.007	95.4
347.219	33.96
347.431	3.24
347.643	58.54
347.855	7.34
348.067	113.83
348.279	33.96
348.491	76.97
348.703	119.98
348.915	-15.19
349.127	25.77
349.339	25.77
349.551	60.59
349.763	27.82
349.975	130.22
350.187	101.55
350.399	5.29
350.61	36.01
350.822	29.87
351.034	89.26
351.246	38.06
351.458	15.53
351.669	87.21
351.881	52.39
352.093	146.6
352.305	7.34
352.517	115.88
352.728	99.5
352.94	54.44
353.152	40.11
353.363	64.68
353.575	136.36
353.787	85.16
353.999	54.44
354.21	142.5
354.422	3.24
354.633	60.59
354.845	74.92
355.057	87.21
355.268	15.53
355.48	27.82
355.692	-13.14
355.903	70.83
356.115	-29.52
356.326	38.06
356.538	60.59
356.749	60.59
356.961	31.91
357.172	122.02
357.384	-29.52
357.595	111.78
357.807	19.63
358.018	-4.95
358.23	44.2
358.441	101.55
358.653	3.24
358.864	25.77
359.075	17.58
359.287	19.63
359.498	79.02
359.709	-13.14
359.921	52.39
360.132	-2.9
360.344	68.78
360.555	27.82
360.766	-0.85
360.977	1.19
361.189	46.25
361.4	76.97
361.611	109.74
361.823	95.4
362.034	103.59
362.245	11.43
362.456	60.59
362.667	3.24
362.879	54.44
363.09	97.45
363.301	70.83
363.512	52.39
363.723	-29.52
363.935	40.11
364.146	83.11
364.357	105.64
364.568	38.06
364.779	-21.33
364.99	97.45
365.201	40.11
365.412	85.16
365.623	19.63
365.834	19.63
366.045	72.87
366.256	-29.52
366.467	27.82
366.678	50.35
366.889	101.55
367.1	103.59
367.311	21.67
367.522	-11.09
367.733	19.63
367.944	36.01
368.155	52.39
368.366	-11.09
368.577	54.44
368.788	56.49
368.999	3.24
369.209	54.44
369.42	113.83
369.631	109.74
369.842	44.2
370.053	38.06
370.264	-0.85
370.474	38.06
370.685	76.97
370.896	56.49
371.107	93.35
371.317	-23.38
371.528	-0.85
371.739	44.2
371.95	11.43
372.16	64.68
372.371	97.45
372.582	95.4
372.792	76.97
373.003	76.97
373.214	46.25
373.424	58.54
373.635	-37.72
373.846	79.02
374.056	54.44
374.267	29.87
374.477	54.44
374.688	3.24
374.898	-2.9
375.109	56.49
375.319	64.68
375.53	93.35
375.74	52.39
375.951	87.21
376.161	-2.9
376.372	81.07
376.582	89.26
376.793	19.63
377.003	5.29
377.214	9.39
377.424	97.45
377.635	60.59
377.845	72.87
378.055	21.67
378.266	-9.05
378.476	46.25
378.686	52.39
378.897	36.01
379.107	76.97
379.317	54.44
379.528	15.53
379.738	60.59
379.948	5.29
380.158	11.43
380.369	38.06
380.579	87.21
380.789	68.78
380.999	60.59
381.21	87.21
381.42	142.5
381.63	56.49
381.84	85.16
382.05	79.02
382.261	101.55
382.471	36.01
382.681	93.35
382.891	91.31
383.101	85.16
383.311	-13.14
383.521	68.78
383.731	117.93
383.941	89.26
384.151	70.83
384.361	-0.85
384.571	46.25
384.781	62.63
384.991	95.4
385.201	109.74
385.411	132.26
385.621	103.59
385.831	29.87
386.041	29.87
386.251	85.16
386.461	76.97
386.671	27.82
386.881	64.68
387.091	-0.85
387.301	46.25
387.511	1.19
387.72	38.06
387.93	3.24
388.14	-4.95
388.35	111.78
388.56	83.11
388.769	44.2
388.979	11.43
389.189	29.87
389.399	44.2
389.609	36.01
389.818	76.97
390.028	-4.95
390.238	62.63
390.447	93.35
390.657	27.82
390.867	119.98
391.076	19.63
391.286	68.78
391.496	27.82
391.705	-19.29
391.915	117.93
392.125	144.55
392.334	68.78
392.544	-27.48
392.753	136.36
392.963	23.72
393.172	97.45
393.382	113.83
393.591	109.74
393.801	52.39
394.01	54.44
394.22	66.73
394.429	68.78
394.639	60.59
394.848	89.26
395.058	72.87
395.267	93.35
395.477	109.74
395.686	44.2
395.895	89.26
396.105	117.93
396.314	97.45
396.524	40.11
396.733	76.97
396.942	152.74
397.152	91.31
397.361	81.07
397.57	38.06
397.78	74.92
397.989	25.77
398.198	158.89
398.407	19.63
398.617	68.78
398.826	29.87
399.035	74.92
399.244	124.07
399.453	101.55
399.663	130.22
399.872	93.35
400.081	91.31
400.29	113.83
400.499	93.35
400.708	87.21
400.917	93.35
401.127	60.59
401.336	38.06
401.545	111.78
401.754	68.78
401.963	115.88
402.172	79.02
402.381	44.2
402.59	79.02
402.799	76.97
403.008	117.93
403.217	101.55
403.426	44.2
403.635	62.63
403.844	44.2
404.053	103.59
404.262	138.41
404.471	158.89
404.68	138.41
404.888	93.35
405.097	48.3
405.306	105.64
405.515	85.16
405.724	52.39
405.933	117.93
406.142	97.45
406.35	185.51
406.559	181.42
406.768	113.83
406.977	122.02
407.185	177.32
407.394	93.35
407.603	187.56
407.812	158.89
408.02	160.94
408.229	189.61
408.438	150.7
408.646	152.74
408.855	203.94
409.064	232.62
409.272	226.47
409.481	257.19
409.69	162.98
409.898	179.37
410.107	210.09
410.315	259.24
410.524	193.7
410.733	240.81
410.941	285.86
411.15	265.38
411.358	285.86
411.567	302.25
411.775	240.81
411.984	273.57
412.192	330.92
412.401	347.3
412.609	416.93
412.818	371.88
413.026	400.55
413.234	314.53
413.443	357.54
413.651	347.3
413.86	384.16
414.068	490.66
414.276	410.79
414.485	373.92
414.693	533.67
414.901	515.23
415.11	578.72
415.318	437.41
415.526	486.56
415.734	580.77
415.943	578.72
416.151	654.5
416.359	609.44
416.567	701.6
416.776	611.49
416.984	670.88
417.192	732.32
417.4	693.41
417.608	658.59
417.817	674.98
418.025	814.24
418.233	830.62
418.441	715.94
418.649	806.05
418.857	945.31
419.065	898.2
419.273	863.39
419.481	961.69
419.689	978.08
419.897	1037.47
420.105	1031.32
420.313	1037.47
420.521	1078.43
420.729	1211.54
420.937	1186.97
421.145	1281.18
421.353	1252.5
421.561	1338.52
421.769	1363.09
421.977	1412.25
422.185	1418.39
422.393	1553.55
422.601	1631.38
422.809	1604.75
423.017	1533.08
423.224	1676.43
423.432	1752.21
423.64	1639.57
423.848	1887.37
424.056	1846.41
424.263	1881.23
424.471	1973.39
424.679	1997.96
424.887	2059.4
425.094	2206.86
425.302	2206.86
425.51	2227.34
425.718	2342.02
425.925	2411.65
426.133	2348.17
426.341	2593.92
426.548	2641.03
426.756	2503.81
426.964	2585.73
427.171	2841.73
427.379	2919.55
427.586	3009.66
427.794	3153.02
428.001	3148.92
428.209	3345.53
428.417	3175.55
428.624	3554.42
428.832	3595.38
429.039	3540.08
429.247	3488.89
429.454	3984.49
429.662	4095.08
429.869	3773.55
430.076	4060.27
430.284	4054.12
430.491	4234.35
430.699	4346.98
430.906	4367.46
431.114	4330.6
431.321	4531.3
431.528	4725.86
431.736	4979.81
431.943	5278.81
432.15	5000.29
432.358	5057.63
432.565	5403.74
432.772	5217.37
432.979	5553.24
433.187	5786.71
433.394	5592.15
433.601	6114.38
433.808	6042.7
434.016	6081.61
434.223	6308.94
434.43	6833.22
434.637	6753.35
434.844	7124.03
435.052	7124.03
435.259	7150.65
435.466	7150.65
435.673	7177.28
435.88	7558.2
436.087	7957.55
436.294	7861.3
436.501	7765.04
436.708	7763
436.915	8248.36
437.122	8596.52
437.329	8490.03
437.537	8559.66
437.743	8766.5
437.95	8893.47
438.157	9432.09
438.364	9802.77
438.571	9401.37
438.778	9727
438.985	10474.51
439.192	10091.54
439.399	10327.05
439.606	10243.09
439.813	10667.02
440.02	11340.8
440.227	11344.89
440.433	11088.9
440.64	11596.79
440.847	11267.07
441.054	11750.39
441.261	12391.41
441.467	12260.34
441.674	12594.15
441.881	13048.8
442.088	12823.53
442.294	12788.71
442.501	13306.85
442.708	13216.74
442.914	13986.77
443.121	14459.85
443.328	14013.4
443.534	15129.54
443.741	14621.64
443.948	14552.01
444.154	15530.94
444.361	15416.26
444.568	15272.9
444.774	15510.46
444.981	15600.57
445.187	16100.28
445.394	16948.14
445.6	16706.48
445.807	17996.7
446.013	17652.64
446.22	17570.72
446.426	18332.56
446.633	18412.43
446.839	19174.28
447.046	18404.24
447.252	19616.64
447.459	19528.58
447.665	19446.66
447.871	20159.35
448.078	21166.95
448.284	20110.2
448.491	20704.11
448.697	21308.26
448.903	21791.58
449.11	22061.91
449.316	21785.44
449.522	22027.1
449.728	22489.94
449.935	22788.94
450.141	22631.25
450.347	23116.62
450.553	22457.17
450.76	22797.13
450.966	23511.88
451.172	23380.81
451.378	23925.57
451.584	23563.08
451.791	23966.52
451.997	23640.9
452.203	24345.4
452.409	24570.68
452.615	24138.55
452.821	23284.55
453.027	23169.87
453.233	24060.73
453.44	23251.78
453.646	23853.89
453.852	23626.56
454.058	24105.79
454.264	23292.74
454.47	23759.68
454.676	23284.55
454.882	23944
455.088	22342.49
455.294	22481.75
455.5	22657.87
455.705	22778.7
455.911	21926.75
456.117	21709.66
456.323	21320.55
456.529	20380.53
456.735	21257.06
456.941	20517.75
457.147	20312.95
457.352	19737.47
457.558	19452.8
457.764	19504
457.97	19239.81
458.176	18566.03
458.381	18791.31
458.587	17914.78
458.793	17896.35
458.999	16874.41
459.204	18262.93
459.41	17488.8
459.616	16546.73
459.821	16522.16
460.027	16300.98
460.233	16341.94
460.438	15307.71
460.644	15600.57
460.85	14701.51
461.055	14855.11
461.261	14582.73
461.466	13585.37
461.672	13106.15
461.878	13902.81
462.083	13087.71
462.289	12817.38
462.494	12637.16
462.7	12006.39
462.905	11795.45
463.111	12248.05
463.316	12157.94
463.522	12086.26
463.727	12086.26
463.932	11996.15
464.138	11906.04
464.343	12102.64
464.549	11547.64
464.754	11936.76
464.959	11856.89
465.165	11883.51
465.37	11385.85
465.575	10943.49
465.781	11574.27
465.986	11416.57
466.191	11242.5
466.397	10564.62
466.602	10308.62
466.807	10839.05
467.012	10882.05
467.218	10640.39
467.423	10544.14
467.628	10599.43
467.833	10939.4
468.038	10611.72
468.244	10224.65
468.449	10810.37
468.654	10466.31
468.859	10331.15
469.064	10220.56
469.269	9751.57
469.474	9966.61
469.679	10185.74
469.885	9718.81
470.09	9982.99
470.295	9982.99
470.5	9657.37
470.705	9661.46
470.91	9501.72
471.115	9348.12
471.32	9729.05
471.525	9587.74
471.73	9301.02
471.935	9227.29
472.139	9006.11
472.344	9081.89
472.549	8930.34
472.754	8801.32
472.959	8770.6
473.164	8526.89
473.369	8600.62
473.574	8688.68
473.778	8621.1
473.983	8801.32
474.188	8621.1
474.393	7945.27
474.598	8195.12
474.802	8197.17
475.007	7965.75
475.212	7908.4
475.417	7871.54
475.621	7916.59
475.826	7754.8
476.031	7582.77
476.235	7461.94
476.44	7543.86
476.645	7429.18
476.849	7390.27
477.054	7392.31
477.259	7253.05
477.463	7365.69
477.668	6988.86
477.872	7060.54
478.077	7040.06
478.282	6739.01
478.486	6800.45
478.691	6734.92
478.895	6720.58
479.1	6769.73
479.304	6802.5
479.509	6603.85
479.713	6648.9
479.918	6417.48
480.122	6503.5
480.326	6583.37
480.531	6466.63
480.735	6405.19
480.94	6487.11
481.144	6642.76
481.348	6298.7
481.553	6278.22
481.757	6206.54
481.961	6440.01
482.166	6425.67
482.37	6409.29
482.574	6294.6
482.778	6231.12
482.983	6397
483.187	6339.66
483.391	6298.7
483.595	6050.89
483.8	6016.08
484.004	6306.89
484.208	6276.17
484.412	6247.5
484.616	6294.6
484.821	6415.43
485.025	6206.54
485.229	6085.71
485.433	6159.44
485.637	6138.96
485.841	6130.77
486.045	6210.64
486.249	6261.84
486.453	6231.12
486.657	6272.07
486.861	6327.37
487.065	6034.51
487.269	6065.23
487.473	6192.2
487.677	6235.21
487.881	6366.28
488.085	6126.67
488.289	6265.93
488.493	6233.16
488.697	6319.18
488.901	6339.66
489.105	6190.16
489.309	6208.59
489.512	6397
489.716	6188.11
489.92	6343.75
490.124	6206.54
490.328	6487.11
490.531	6290.51
490.735	6429.77
490.939	6403.14
491.143	6319.18
491.346	6315.08
491.55	6618.18
491.754	6540.36
491.958	6491.21
492.161	6478.92
492.365	6671.43
492.569	6622.28
492.772	6822.98
492.976	6571.08
493.18	6653
493.383	6786.12
493.587	6679.62
493.79	6870.08
493.994	6679.62
494.197	6908.99
494.401	6884.42
494.605	6726.72
494.808	7017.54
495.012	7130.17
495.215	6980.67
495.419	7216.19
495.622	7144.51
495.825	7318.59
496.029	7236.67
496.232	7400.51
496.436	7330.87
496.639	7588.92
496.843	7466.04
497.046	7752.76
497.249	7728.18
497.453	7679.03
497.656	7859.25
497.859	7910.45
498.063	8031.28
498.266	8025.14
498.469	7973.94
498.673	8125.49
498.876	8455.21
499.079	8279.08
499.282	8344.62
499.485	8700.97
499.689	8330.28
499.892	8692.77
500.095	8660.01
500.298	8768.55
500.501	8700.97
500.705	9100.32
500.908	8983.59
501.111	9270.3
501.314	9491.48
501.517	9575.45
501.72	9679.89
501.923	9595.93
502.126	9884.69
502.329	10081.3
502.532	10171.41
502.735	9989.14
502.938	10480.65
503.141	10179.6
503.344	10392.59
503.547	10486.79
503.75	10658.82
503.953	10726.41
504.156	10837
504.359	10802.18
504.562	11168.77
504.765	11316.22
504.968	11299.84
505.17	11695.1
505.373	11355.13
505.576	11650.04
505.779	11760.63
505.982	11897.85
506.185	12153.84
506.387	12129.27
506.59	12237.81
506.793	12585.96
506.996	12458.99
507.198	12743.66
507.401	12813.29
507.604	12727.27
507.807	13136.87
508.009	13079.52
508.212	13360.09
508.415	13495.26
508.617	13759.45
508.82	13661.15
509.022	13650.91
509.225	14056.4
509.428	14353.36
509.63	14332.88
509.833	14255.06
510.035	14865.35
510.238	14552.01
510.44	14898.12
510.643	15041.48
510.845	15215.55
511.048	15231.94
511.25	15438.78
511.453	15592.38
511.655	16028.6
511.858	15954.87
512.06	15809.47
512.262	16294.83
512.465	15969.21
512.667	16427.95
512.87	16552.88
513.072	16442.29
513.274	17089.45
513.477	17456.03
513.679	17216.42
513.881	17537.95
514.084	17525.66
514.286	17544.09
514.488	17658.78
514.69	18166.68
514.893	18127.77
515.095	18146.2
515.297	18690.96
515.499	18647.95
515.701	18627.47
515.904	19147.65
516.106	19211.14
516.308	19389.31
516.51	19536.77
516.712	19716.99
516.914	19663.74
517.116	20212.6
517.318	20175.73
517.52	20583.28
517.722	20513.65
517.925	20958.06
518.127	21048.17
518.329	21222.25
518.531	20730.73
518.733	21707.62
518.935	21898.08
519.136	21676.9
519.338	22141.78
519.54	21840.73
519.742	22061.91
519.944	22541.14
520.146	22747.98
520.348	22786.89
520.55	22903.63
520.752	22803.28
520.954	23393.09
521.155	23360.33
521.357	23731.01
521.559	23642.95
521.761	24230.71
521.963	24283.96
522.164	24402.74
522.366	24398.65
522.568	24849.2
522.77	24832.82
522.971	25060.14
523.173	25000.75
523.375	25625.38
523.576	25322.28
523.778	25006.89
523.98	25654.05
524.181	25686.82
524.383	25549.6
524.584	25711.39
524.786	25883.42
524.988	25969.44
525.189	26278.68
525.391	26352.41
525.592	26665.75
525.794	26604.31
525.995	26635.03
526.197	26737.43
526.398	27214.6
526.6	27550.47
526.801	27138.83
527.003	27413.26
527.204	27185.93
527.406	27548.42
527.607	27579.14
527.808	27863.81
528.01	27474.7
528.211	27943.68
528.412	28330.75
528.614	27998.98
528.815	28338.94
529.016	28203.77
529.218	28117.76
529.419	28418.81
529.62	28486.39
529.822	28164.86
530.023	28367.61
530.224	28257.02
530.425	28332.79
530.626	28527.35
530.828	28158.72
531.029	28957.42
531.23	28410.62
531.431	28726
531.632	28441.34
531.833	28809.97
532.035	28410.62
532.236	28711.67
532.437	28951.28
532.638	29049.58
532.839	28674.81
533.04	28887.79
533.241	28859.12
533.442	29475.56
533.643	29459.18
533.844	28877.55
534.045	29045.49
534.246	28697.33
534.447	29442.79
534.648	29078.25
534.849	29285.1
535.05	28932.85
535.251	29461.23
535.451	29164.27
535.652	29276.91
535.853	29303.53
536.054	28752.63
536.255	29274.86
536.456	29033.2
536.657	29369.07
536.857	29010.67
537.058	29256.43
537.259	29403.88
537.46	29442.79
537.66	29096.69
537.861	29170.41
538.062	29102.83
538.263	29180.65
538.463	29108.97
538.664	28814.07
538.865	29233.9
539.065	29403.88
539.266	28781.3
539.466	29154.03
539.667	28738.29
539.868	29268.72
540.068	28945.14
540.269	29360.87
540.469	29459.18
540.67	29231.85
540.87	29002.48
541.071	29129.45
541.271	29373.16
541.472	28769.01
541.672	28908.27
541.873	28926.71
542.073	28758.77
542.274	29385.45
542.474	29154.03
542.675	28799.73
542.875	29252.33
543.075	28930.8
543.276	29008.62
543.476	29211.37
543.676	28721.91
543.877	29289.2
544.077	29080.3
544.277	29039.34
544.478	28850.93
544.678	29190.89
544.878	28764.92
545.078	28807.92
545.279	28564.21
545.479	28709.62
545.679	28814.07
545.879	28795.64
546.079	28797.68
546.28	28746.48
546.48	28269.31
546.68	28809.97
546.88	28857.07
547.08	28898.03
547.28	28990.19
547.48	28664.57
547.68	29072.11
547.88	28734.2
548.081	28693.24
548.281	28379.9
548.481	28955.38
548.681	28949.23
548.881	28746.48
549.081	28820.21
549.28	28605.17
549.48	28719.86
549.68	29004.53
549.88	28941.04
550.08	28375.8
550.28	28492.54
550.48	28584.69
550.68	28740.34
550.88	28734.2
551.08	28551.93
551.279	28535.54
551.479	28623.61
551.679	28771.06
551.879	28414.71
552.079	28764.92
552.278	28515.06
552.478	28365.56
552.678	28789.49
552.878	28992.24
553.077	28697.33
553.277	28527.35
553.477	28756.72
553.676	28584.69
553.876	28504.82
554.076	28177.15
554.275	28257.02
554.475	28005.12
554.674	28379.9
554.874	28312.31
555.074	28039.93
555.273	28484.34
555.473	27935.49
555.672	28093.18
555.872	28072.7
556.071	28044.03
556.271	28263.16
556.47	28418.81
556.67	28279.55
556.869	27994.88
557.068	27908.86
557.268	27605.77
557.467	27683.59
557.667	27806.47
557.866	27994.88
558.065	27884.29
558.265	27753.22
558.464	27616.01
558.663	27816.71
558.863	27497.22
559.062	28017.41
559.261	27380.49
559.461	27706.12
559.66	27407.11
559.859	27466.5
560.058	27439.88
560.258	27632.39
560.457	27581.19
560.656	27376.39
560.855	27108.11
561.054	27345.67
561.253	27138.83
561.453	27157.26
561.652	27147.02
561.851	27413.26
562.05	27210.51
562.249	27046.67
562.448	27011.85
562.647	26845.97
562.846	26927.89
563.045	26856.21
563.244	26622.74
563.443	27210.51
563.642	26669.84
563.841	26858.26
564.04	26546.97
564.239	27005.71
564.438	26489.62
564.637	26460.95
564.836	26802.96
565.035	26219.29
565.234	26262.3
565.432	26370.84
565.631	25996.06
565.83	26290.97
566.029	26145.56
566.228	25850.66
566.427	26149.66
566.625	25797.41
566.824	25611.04
567.023	26286.87
567.222	25455.4
567.42	25834.27
567.619	25586.47
567.818	25570.08
568.016	25160.49
568.215	25721.63
568.414	25350.95
568.612	25666.34
568.811	25369.38
569.01	25336.62
569.208	24935.21
569.407	25195.31
569.605	25228.07
569.804	25199.4
570.002	24822.58
570.201	25062.19
570.4	24865.58
570.598	24656.69
570.797	24656.69
570.995	24900.4
571.193	24372.02
571.392	24933.17
571.59	24396.6
571.789	24533.81
571.987	24349.5
572.186	24439.61
572.384	24333.11
572.582	24345.4
572.781	24273.72
572.979	23843.65
573.177	23935.81
573.376	24216.38
573.574	24023.87
573.772	24234.81
573.971	23841.6
574.169	23874.37
574.367	23814.98
574.565	23628.61
574.763	23692.1
574.962	23163.72
575.16	23370.57
575.358	23577.41
575.556	23241.54
575.754	23493.44
575.952	23225.16
576.151	23599.94
576.349	23196.49
576.547	23192.39
576.745	23067.47
576.943	23133
577.141	22963.02
577.339	22948.68
577.537	22920.01
577.735	22752.08
577.933	22567.76
578.131	22354.77
578.329	22438.74
578.527	22393.68
578.725	22424.4
578.923	22377.3
579.121	22317.91
579.319	22219.61
579.516	22328.15
579.714	22035.29
579.912	21973.85
580.11	21990.24
580.308	22066.01
580.506	21977.95
580.704	21613.41
580.901	21924.7
581.099	21695.33
581.297	21420.9
581.495	21416.8
581.692	22121.31
581.89	21314.41
582.088	21885.79
582.285	21443.43
582.483	21500.77
582.681	21363.56
582.878	21236.58
583.076	21031.79
583.274	21334.89
583.471	21062.51
583.669	21089.13
583.866	20888.43
584.064	21185.38
584.262	20824.94
584.459	20726.64
584.657	20951.91
584.854	20783.98
585.052	20456.31
585.249	20734.83
585.447	20640.62
585.644	20382.58
585.841	20474.74
586.039	20544.37
586.236	20157.3
586.434	20253.56
586.631	20290.42
586.828	20122.49
587.026	20298.61
587.223	20110.2
587.42	20134.78
587.618	19964.79
587.815	20085.62
588.012	19854.2
588.21	19803
588.407	19813.24
588.604	19555.2
588.801	19270.53
588.999	19481.47
589.196	19735.42
589.393	19389.31
589.59	19555.2
589.787	19485.57
589.984	19362.69
590.182	19274.63
590.379	19356.55
590.576	19008.39
590.773	18733.96
590.97	19006.34
591.167	18987.91
591.364	18750.35
591.561	18920.33
591.758	18701.2
591.955	18590.61
592.152	18824.08
592.349	18697.1
592.546	18811.79
592.743	18695.05
592.94	18463.63
593.137	18660.24
593.334	18674.57
593.531	18078.61
593.727	18410.39
593.924	18215.83
594.121	18154.39
594.318	18127.77
594.515	17865.63
594.712	18183.06
594.908	17994.65
595.105	18013.08
595.302	17972.12
595.499	17755.04
595.696	17591.2
595.892	17605.53
596.089	17781.66
596.286	17558.43
596.482	17656.73
596.679	17656.73
596.876	17466.27
597.072	17255.33
597.269	17413.02
597.466	17503.14
597.662	17060.77
597.859	17238.95
598.055	17398.69
598.252	17097.64
598.448	16763.82
598.645	17034.15
598.841	16935.85
599.038	17060.77
599.234	17001.38
599.431	16630.7
599.627	16892.84
599.824	16905.13
600.02	16391.09
600.217	16706.48
600.413	16444.34
600.609	16505.77
600.806	16491.44
601.002	16362.42
601.198	16186.29
601.395	16227.25
601.591	16198.58
601.787	16200.63
601.984	16051.13
602.18	16311.22
602.376	15993.78
602.572	15989.69
602.769	16137.14
602.965	15809.47
603.161	15801.27
603.357	15885.24
603.553	15844.28
603.75	15748.03
603.946	15668.16
604.142	15694.78
604.338	15475.65
604.534	15756.22
604.73	15379.39
604.926	15176.64
605.122	15608.76
605.318	15305.67
605.514	15338.43
605.71	15260.61
605.906	15322.05
606.102	15379.39
606.298	15117.25
606.494	14924.74
606.69	15199.17
606.886	15086.53
607.082	14699.47
607.278	15178.69
607.474	14715.85
607.67	15023.05
607.866	14709.71
608.062	15008.71
608.257	14719.95
608.453	14967.75
608.649	14422.99
608.845	14609.36
609.041	14650.32
609.236	14539.72
609.432	14801.86
609.628	14265.3
609.824	14607.31
610.019	14332.88
610.215	14494.67
610.411	14719.95
610.606	14582.73
610.802	14461.9
610.998	14289.87
611.193	14105.56
611.389	14144.47
611.584	14113.75
611.78	13945.81
611.976	14277.58
612.171	14140.37
612.367	14148.56
612.562	14097.36
612.758	13906.9
612.953	13913.05
613.149	14085.08
613.344	13745.11
613.539	13947.86
613.735	13925.33
613.93	13800.41
614.126	13796.31
614.321	13794.26
614.517	14003.16
614.712	13857.75
614.907	13642.71
615.103	13622.23
615.298	13753.3
615.493	13827.03
615.688	13566.94
615.884	13810.65
616.079	13519.84
616.274	13386.72
616.47	13808.6
616.665	13495.26
616.86	13493.21
617.055	13442.01
617.25	13319.14
617.445	13450.21
617.641	13192.16
617.836	13423.58
618.031	13167.59
618.226	13194.21
618.421	13149.15
618.616	13081.57
618.811	13093.86
619.006	13028.32
619.201	12874.73
619.396	13030.37
619.591	12948.45
619.786	12725.22
619.981	12538.86
620.176	12803.05
620.371	12631.02
620.566	12602.35
620.761	12590.06
620.956	12807.14
621.151	12403.69
621.346	12321.77
621.541	12069.87
621.735	12405.74
621.93	12291.06
622.125	12221.42
622.32	12112.88
622.515	12065.78
622.709	12035.06
622.904	11955.19
623.099	11908.08
623.294	11912.18
623.488	11623.42
623.683	11801.59
623.878	11607.03
624.072	11607.03
624.267	11631.61
624.462	11418.62
624.656	11447.29
624.851	11443.2
625.046	11185.15
625.24	11330.56
625.435	11138.05
625.629	11045.89
625.824	10890.24
626.018	10935.3
626.213	10611.72
626.407	10931.2
626.602	10628.1
626.796	10875.91
626.991	10703.88
627.185	10542.09
627.38	10640.39
627.574	10619.91
627.768	10540.04
627.963	10492.94
628.157	10382.35
628.352	10312.72
628.546	10075.15
628.74	10150.93
628.935	9882.64
629.129	10204.17
629.323	10152.98
629.517	9866.26
629.712	10048.53
629.906	9815.06
630.1	9688.09
630.294	9808.92
630.489	9618.46
630.683	9634.84
630.877	9550.87
631.071	9622.55
631.265	9669.66
631.459	9524.25
631.653	9430.04
631.848	9481.24
632.042	9298.97
632.236	9403.42
632.43	9042.98
632.624	9208.86
632.818	9169.95
633.012	9045.02
633.206	8975.39
633.4	8969.25
633.594	8827.94
633.788	9004.07
633.982	8883.24
634.176	8784.93
634.369	8809.51
634.563	8492.07
634.757	8686.63
634.951	8647.72
635.145	8524.84
635.339	8344.62
635.533	8535.08
635.726	8504.36
635.92	8313.9
636.114	8528.94
636.308	8393.77
636.501	8260.65
636.695	8313.9
636.889	8166.45
637.083	8193.07
637.276	8047.66
637.47	7916.59
637.664	7834.68
637.857	7961.65
638.051	7863.35
638.244	7969.84
638.438	7975.98
638.632	7994.42
638.825	7566.39
639.019	7760.95
639.212	7781.43
639.406	7679.03
639.599	7642.17
639.793	7629.88
639.986	7674.93
640.18	7629.88
640.373	7474.23
640.567	7427.13
640.76	7294.01
640.954	7314.49
641.147	7267.39
641.34	7218.24
641.534	7339.07
641.727	7140.41
641.92	7040.06
642.114	7142.46
642.307	7089.21
642.5	7013.44
642.694	7033.92
642.887	6982.72
643.08	6982.72
643.273	6982.72
643.467	6876.23
643.66	6812.74
643.853	6790.21
644.046	6698.05
644.239	6581.32
644.432	6591.56
644.626	6466.63
644.819	6470.73
645.012	6532.17
645.205	6700.1
645.398	6521.93
645.591	6415.43
645.784	6315.08
645.977	6245.45
646.17	6290.51
646.363	6323.27
646.556	6315.08
646.749	6292.55
646.942	6245.45
647.135	6065.23
647.328	6370.38
647.521	6044.75
647.714	5895.25
647.907	6067.28
648.099	5844.05
648.292	6255.69
648.485	6038.61
648.678	5893.2
648.871	5796.95
649.064	5717.08
649.256	5862.48
649.449	5725.27
649.642	5770.32
649.835	5770.32
650.027	5758.03
650.22	5659.73
650.413	5690.45
650.605	5606.49
650.798	5661.78
650.991	5545.05
651.183	5315.67
651.376	5569.62
651.568	5422.17
651.761	5313.63
651.954	5272.67
652.146	5461.08
652.339	5342.3
652.531	5389.4
652.724	5313.63
652.916	5194.84
653.109	5323.87
653.301	5237.85
653.494	5289.05
653.686	5141.6
653.879	5301.34
654.071	5045.34
654.263	5067.87
654.456	4985.95
654.648	5139.55
654.84	4977.76
655.033	4844.64
655.225	4887.65
655.417	5022.81
655.61	4969.57
655.802	4926.56
655.994	4844.64
656.186	4764.77
656.379	4838.5
656.571	4867.17
656.763	4760.67
656.955	4701.28
657.148	4910.18
657.34	4648.04
657.532	4488.29
657.724	4584.55
657.916	4582.5
658.108	4633.7
658.3	4576.36
658.492	4570.21
658.684	4504.68
658.876	4488.29
659.068	4480.1
659.26	4306.02
659.452	4353.13
659.644	4224.11
659.836	4324.46
660.028	4459.62
660.22	4301.93
660.412	4349.03
660.604	4201.58
660.796	4199.53
660.988	4209.77
661.18	4068.46
661.372	4242.54
661.563	4160.62
661.755	4230.25
661.947	4070.51
662.139	4052.08
662.331	4189.29
662.522	4168.81
662.714	3992.69
662.906	4029.55
663.097	3830.9
663.289	4134
663.481	3943.53
663.673	3865.71
663.864	3779.7
664.056	3791.98
664.247	3677.3
664.439	3845.23
664.631	3863.66
664.822	3816.56
665.014	3662.96
665.205	3738.74
665.397	3701.87
665.588	3742.83
665.78	3699.83
665.971	3675.25
666.163	3599.48
666.354	3626.1
666.546	3611.76
666.737	3574.9
666.929	3587.19
667.12	3656.82
667.311	3611.76
667.503	3656.82
667.694	3521.65
667.885	3462.26
668.077	3447.93
668.268	3449.97
668.459	3478.65
668.651	3484.79
668.842	3376.25
669.033	3462.26
669.224	3419.25
669.416	3556.47
669.607	3251.32
669.798	3337.34
669.989	3462.26
670.18	3288.18
670.371	3292.28
670.563	3259.51
670.754	3484.79
670.945	3292.28
671.136	3404.92
671.327	3241.08
671.518	3222.65
671.709	3134.59
671.9	3214.46
672.091	3148.92
672.282	3144.83
672.473	3198.07
672.664	3091.58
672.855	3159.16
673.046	3044.48
673.237	3177.59
673.428	3228.79
673.619	3103.87
673.809	3110.01
674	3161.21
674.191	3091.58
674.382	3153.02
674.573	2878.59
674.764	3087.48
674.954	3091.58
675.145	3060.86
675.336	2989.18
675.527	2927.74
675.717	2931.84
675.908	3030.14
676.099	2970.75
676.289	2985.09
676.48	2946.17
676.671	2854.02
676.861	3099.77
677.052	2923.65
677.243	2837.63
677.433	2782.34
677.624	2888.83
677.814	2931.84
678.005	2944.13
678.195	2878.59
678.386	2806.91
678.576	2755.71
678.767	2806.91
678.957	2985.09
679.148	2878.59
679.338	2772.1
679.529	2913.41
679.719	2847.87
679.909	2847.87
680.1	2862.21
680.29	2813.06
680.481	2716.8
680.671	2716.8
680.861	2720.9
681.052	2761.86
681.242	2741.38
681.432	2604.16
681.622	2698.37
681.813	2618.5
682.003	2681.99
682.193	2659.46
682.383	2774.14
682.573	2583.68
682.764	2641.03
682.954	2684.03
683.144	2661.51
683.334	2655.36
683.524	2577.54
683.714	2612.35
683.904	2659.46
684.094	2702.47
684.284	2598.02
684.474	2600.07
684.664	2608.26
684.854	2516.1
685.044	2579.59
685.234	2624.64
685.424	2645.12
685.614	2579.59
685.804	2636.93
685.994	2667.65
686.184	2550.92
686.374	2546.82
686.564	2536.58
686.753	2481.28
686.943	2526.34
687.133	2487.43
687.323	2438.28
687.513	2374.79
687.702	2387.08
687.892	2501.76
688.082	2354.31
688.272	2477.19
688.461	2460.81
688.651	2446.47
688.841	2419.85
689.03	2403.46
689.22	2454.66
689.41	2456.71
689.599	2362.5
689.789	2329.74
689.979	2428.04
690.168	2372.74
690.358	2274.44
690.547	2235.53
690.737	2249.86
690.926	2290.82
691.116	2290.82
691.305	2253.96
691.495	2249.86
691.684	2206.86
691.874	2288.78
692.063	2258.06
692.252	2321.54
692.442	2059.4
692.631	2126.99
692.82	2100.36
693.01	2036.88
693.199	2167.95
693.388	2034.83
693.578	2213
693.767	2151.56
693.956	2159.75
694.146	2135.18
694.335	2069.64
694.524	2067.6
694.713	2051.21
694.902	2092.17
695.092	2067.6
695.281	2108.55
695.47	1977.48
695.659	2002.06
695.848	2092.17
696.037	2118.79
696.226	2018.44
696.415	2143.37
696.604	2049.16
696.793	2133.13
696.982	2139.27
697.171	1961.1
697.36	1977.48
697.549	1979.53
697.738	1950.86
697.927	1934.48
698.116	1916.05
698.305	1911.95
698.494	2075.79
698.683	1954.96
698.872	1920.14
699.061	1838.22
699.25	1975.44
699.438	1840.27
699.627	1954.96
699.816	2020.49
700.005	1858.7
700.193	1854.61
700.382	2043.02
700.571	1899.66
700.76	2038.92
700.948	1942.67
701.137	1903.76
701.326	1993.87
701.514	1881.23
701.703	1905.81
701.892	1895.57
702.08	1940.62
702.269	1780.88
702.457	1895.57
702.646	1961.1
702.834	1971.34
703.023	1938.57
703.212	1952.91
703.4	1778.83
703.589	1885.33
703.777	1850.51
703.965	1793.17
704.154	1928.33
704.342	1895.57
704.531	1815.69
704.719	1856.65
704.907	1967.24
705.096	1844.37
705.284	1834.13
705.472	1758.35
705.661	1879.18
705.849	1838.22
706.037	1846.41
706.226	1907.85
706.414	1850.51
706.602	1750.16
706.79	1993.87
706.979	1911.95
707.167	1887.37
707.355	1854.61
707.543	1899.66
707.731	1830.03
707.919	1868.94
708.107	1717.39
708.296	1881.23
708.484	1784.98
708.672	1748.11
708.86	1879.18
709.048	1815.69
709.236	1821.84
709.424	1858.7
709.612	1936.53
709.8	1852.56
709.988	1873.04
710.176	1883.28
710.364	1870.99
710.551	1813.65
710.739	1862.8
710.927	1811.6
711.115	1813.65
711.303	1879.18
711.491	1830.03
711.679	1825.93
711.866	1840.27
712.054	1881.23
712.242	1817.74
712.43	1772.69
712.617	1848.46
712.805	1862.8
712.993	1889.42
713.181	1707.15
713.368	1926.29
713.556	1815.69
713.744	1815.69
713.931	1895.57
714.119	1830.03
714.306	1905.81
714.494	1797.26
714.682	1819.79
714.869	1895.57
715.057	1819.79
715.244	1895.57
715.432	1928.33
715.619	1834.13
715.807	1903.76
715.994	1789.07
716.182	1981.58
716.369	1895.57
716.556	2006.16
716.744	1864.85
716.931	1774.74
717.119	1793.17
717.306	1797.26
717.493	1870.99
717.681	1864.85
717.868	1838.22
718.055	1856.65
718.242	1825.93
718.43	1807.5
718.617	1887.37
718.804	1887.37
718.991	1977.48
719.179	1930.38
719.366	1821.84
719.553	1899.66
719.74	1889.42
719.927	1928.33
720.114	1932.43
720.301	1787.02
720.488	1823.89
720.676	1887.37
720.863	1887.37
721.05	1909.9
721.237	1961.1
721.424	1971.34
721.611	1911.95
721.798	1801.36
721.985	1870.99
722.172	1813.65
722.358	1772.69
722.545	1920.14
722.732	1852.56
722.919	1885.33
723.106	1907.85
723.293	1887.37
723.48	1823.89
723.667	1805.46
723.853	1891.47
724.04	1907.85
724.227	1905.81
724.414	1948.81
724.6	1928.33
724.787	1926.29
724.974	1862.8
725.161	1948.81
725.347	1889.42
725.534	2067.6
725.72	1807.5
725.907	1899.66
726.094	2028.68
726.28	1928.33
726.467	1944.72
726.653	1823.89
726.84	2045.07
727.027	1938.57
727.213	1821.84
727.4	1930.38
727.586	1864.85
727.773	1895.57
727.959	1842.32
728.145	1866.89
728.332	1954.96
728.518	1838.22
728.705	1922.19
728.891	1868.94
729.077	1889.42
729.264	1737.87
729.45	1854.61
729.636	1883.28
729.823	1821.84
730.009	1961.1
730.195	1805.46
730.382	1899.66
730.568	2053.26
730.754	1948.81
730.94	1858.7
731.126	1899.66
731.313	1889.42
731.499	1907.85
731.685	1854.61
731.871	1864.85
732.057	1971.34
732.243	1995.92
732.429	1961.1
732.615	1936.53
732.801	1930.38
732.987	1870.99
733.173	1946.76
733.359	1981.58
733.545	1868.94
733.731	1907.85
733.917	1873.04
734.103	1813.65
734.289	1981.58
734.475	1834.13
734.661	2043.02
734.847	1899.66
735.033	1789.07
735.219	1870.99
735.404	2018.44
735.59	1844.37
735.776	1864.85
735.962	1870.99
736.148	1928.33
736.333	1961.1
736.519	1885.33
736.705	1905.81
736.89	1864.85
737.076	1879.18
737.262	1936.53
737.447	1924.24
737.633	1791.12
737.819	1852.56
738.004	1838.22
738.19	1940.62
738.375	1756.3
738.561	2002.06
738.747	1905.81
738.932	1832.08
739.118	1891.47
739.303	1922.19
739.489	1870.99
739.674	1787.02
739.859	1817.74
740.045	1952.91
740.23	1887.37
740.416	1889.42
740.601	1891.47
740.786	1766.54
740.972	1789.07
741.157	1782.93
741.342	1815.69
741.528	1776.78
741.713	1791.12
741.898	1799.31
742.084	1842.32
742.269	1809.55
742.454	1764.5
742.639	1801.36
742.824	1723.54
743.01	1797.26
743.195	1758.35
743.38	1721.49
743.565	1715.34
743.75	1701.01
743.935	1739.92
744.12	1711.25
744.305	1678.48
744.49	1748.11
744.675	1725.58
744.86	1569.94
745.045	1746.06
745.23	1655.95
745.415	1674.39
745.6	1694.86
745.785	1545.36
745.97	1690.77
746.155	1662.1
746.34	1660.05
746.525	1645.71
746.71	1674.39
746.895	1574.03
747.079	1584.27
747.264	1602.71
747.449	1614.99
747.634	1617.04
747.819	1653.91
748.003	1557.65
748.188	1567.89
748.373	1531.03
748.557	1526.93
748.742	1551.51
748.927	1483.92
749.111	1621.14
749.296	1459.35
749.481	1553.55
749.665	1512.6
749.85	1475.73
750.034	1500.31
750.219	1430.68
750.404	1322.13
750.588	1430.68
750.773	1465.49
750.957	1387.67
751.141	1428.63
751.326	1363.09
751.51	1414.29
751.695	1334.42
751.879	1481.88
752.064	1414.29
752.248	1289.37
752.432	1451.16
752.617	1309.85
752.801	1387.67
752.985	1354.9
753.17	1387.67
753.354	1334.42
753.538	1363.09
753.722	1256.6
753.907	1311.89
754.091	1264.79
754.275	1260.7
754.459	1148.06
754.643	1252.5
754.828	1281.18
755.012	1248.41
755.196	1246.36
755.38	1342.61
755.564	1277.08
755.748	1232.02
755.932	1141.91
756.116	1221.78
756.3	1225.88
756.484	1162.39
756.668	1272.98
756.852	1090.71
757.036	1182.87
757.22	1133.72
757.404	1137.82
757.588	1129.63
757.772	1094.81
757.956	1109.15
758.14	1170.58
758.323	1064.09
758.507	1059.99
758.691	1096.86
758.875	1092.76
759.059	1182.87
759.242	1055.9
759.426	1146.01
759.61	959.64
759.794	1068.19
759.977	1080.47
760.161	1170.58
760.345	986.27
760.528	994.46
760.712	1019.04
760.895	1002.65
761.079	1037.47
761.263	1066.14
761.446	978.08
761.63	1010.84
761.813	1027.23
761.997	1010.84
762.18	937.12
762.364	1027.23
762.547	924.83
762.731	892.06
762.914	949.4
763.098	930.97
763.281	963.74
763.464	953.5
763.648	961.69
763.831	922.78
764.015	898.2
764.198	912.54
764.381	769.18
764.564	963.74
764.748	928.92
764.931	887.97
765.114	908.44
765.297	912.54
765.481	920.73
765.664	924.83
765.847	900.25
766.03	810.14
766.213	847.01
766.397	855.2
766.58	875.68
766.763	933.02
766.946	916.64
767.129	814.24
767.312	832.67
767.495	900.25
767.678	826.53
767.861	814.24
768.044	818.33
768.227	973.98
768.41	806.05
768.593	896.16
768.776	879.77
768.959	822.43
769.142	887.97
769.324	775.33
769.507	881.82
769.69	742.56
769.873	795.81
770.056	853.15
770.239	773.28
770.421	904.35
770.604	769.18
770.787	767.13
770.97	758.94
771.152	789.66
771.335	769.18
771.518	748.7
771.7	789.66
771.883	834.72
772.066	816.29
772.248	736.42
772.431	834.72
772.613	818.33
772.796	726.18
772.978	750.75
773.161	791.71
773.343	806.05
773.526	613.54
773.708	705.7
773.891	572.58
774.073	750.75
774.256	699.55
774.438	816.29
774.621	670.88
774.803	685.22
774.985	683.17
775.168	634.02
775.35	654.5
775.532	662.69
775.715	629.92
775.897	658.59
776.079	732.32
776.261	621.73
776.444	603.3
776.626	625.83
776.808	646.3
776.99	615.59
777.173	658.59
777.355	576.67
777.537	652.45
777.719	603.3
777.901	660.64
778.083	644.26
778.265	625.83
778.447	654.5
778.629	535.71
778.811	576.67
778.993	631.97
779.175	576.67
779.357	576.67
779.539	570.53
779.721	558.24
779.903	605.35
780.085	513.19
780.267	601.25
780.449	511.14
780.631	535.71
780.812	574.63
780.994	593.06
781.176	504.99
781.358	513.19
781.54	423.08
781.721	474.28
781.903	568.48
782.085	474.28
782.267	470.18
782.448	500.9
782.63	433.32
782.812	545.95
782.993	447.65
783.175	543.91
783.357	457.89
783.538	486.56
783.72	488.61
783.901	541.86
784.083	478.37
784.264	556.19
784.446	414.88
784.627	388.26
784.809	480.42
784.99	414.88
785.172	418.98
785.353	373.92
785.535	439.46
785.716	324.77
785.897	421.03
786.079	384.16
786.26	484.52
786.441	429.22
786.623	343.21
786.804	482.47
786.985	437.41
787.167	390.31
787.348	296.1
787.529	412.84
787.71	447.65
787.891	355.49
788.073	423.08
788.254	447.65
788.435	464.04
788.616	437.41
788.797	410.79
788.978	339.11
789.159	384.16
789.34	388.26
789.522	322.73
789.703	365.73
789.884	359.59
790.065	380.07
790.246	380.07
790.427	347.3
790.607	339.11
790.788	318.63
790.969	361.64
791.15	335.01
791.331	345.25
791.512	365.73
791.693	302.25
791.874	396.45
792.054	343.21
792.235	371.88
792.416	289.96
792.597	308.39
792.778	289.96
792.958	314.53
793.139	396.45
793.32	285.86
793.5	294.05
793.681	412.84
793.862	281.77
794.042	273.57
794.223	212.14
794.404	314.53
794.584	292.01
794.765	283.81
794.945	251.05
795.126	306.34
795.306	355.49
795.487	371.88
795.667	267.43
795.848	302.25
796.028	320.68
796.209	306.34
796.389	183.46
796.57	267.43
796.75	289.96
796.93	281.77
797.111	216.23
797.291	236.71
797.471	281.77
797.652	281.77
797.832	236.71
798.012	253.09
798.192	191.66
798.373	236.71
798.553	341.16
798.733	335.01
798.913	232.62
799.093	240.81
799.274	306.34
799.454	292.01
799.634	210.09
799.814	199.85
799.994	281.77
800.174	183.46
800.354	267.43
800.534	267.43
800.714	249
800.894	251.05
801.074	160.94
801.254	111.78
801.434	279.72
801.614	226.47
801.794	216.23
801.974	767.13
802.154	234.66
802.334	238.76
802.514	177.32
802.693	265.38
802.873	140.46
803.053	122.02
803.233	177.32
803.413	306.34
803.592	265.38
803.772	208.04
803.952	191.66
804.131	158.89
804.311	230.57
804.491	251.05
804.67	193.7
804.85	171.18
805.03	195.75
805.209	251.05
805.389	158.89
805.568	230.57
805.748	136.36
805.928	169.13
806.107	185.51
806.287	210.09
806.466	179.37
806.646	181.42
806.825	208.04
807.004	208.04
807.184	214.18
807.363	152.74
807.543	173.22
807.722	191.66
807.901	195.75
808.081	249
808.26	134.31
808.439	152.74
808.619	160.94
808.798	169.13
808.977	142.5
809.156	183.46
809.336	152.74
809.515	193.7
809.694	208.04
809.873	210.09
810.052	130.22
810.231	150.7
810.411	152.74
810.59	150.7
810.769	111.78
810.948	173.22
811.127	150.7
811.306	128.17
811.485	162.98
811.664	259.24
811.843	117.93
812.022	54.44
812.201	93.35
812.38	167.08
812.559	130.22
812.737	187.56
812.916	179.37
813.095	158.89
813.274	62.63
813.453	165.03
813.632	148.65
813.811	158.89
813.989	74.92
814.168	109.74
814.347	134.31
814.526	158.89
814.704	228.52
814.883	249
815.062	142.5
815.24	183.46
815.419	109.74
815.598	148.65
815.776	93.35
815.955	89.26
816.133	50.35
816.312	179.37
816.49	185.51
816.669	122.02
816.847	122.02
817.026	169.13
817.204	142.5
817.383	128.17
817.561	154.79
817.74	101.55
817.918	138.41
818.097	101.55
818.275	103.59
818.453	160.94
818.632	175.27
818.81	64.68
818.988	134.31
819.167	183.46
819.345	87.21
819.523	72.87
819.701	183.46
819.879	185.51
820.058	154.79
820.236	74.92
820.414	111.78
820.592	154.79
820.77	99.5
820.948	109.74
821.127	81.07
821.305	142.5
821.483	50.35
821.661	122.02
821.839	113.83
822.017	158.89
822.195	117.93
822.373	144.55
822.551	83.11
822.729	101.55
822.907	144.55
823.085	97.45
823.262	60.59
823.44	105.64
823.618	70.83
823.796	87.21
823.974	52.39
824.152	152.74
824.329	142.5
824.507	109.74
824.685	152.74
824.863	103.59
825.04	109.74
825.218	146.6
825.396	72.87
825.574	138.41
825.751	68.78
825.929	136.36
826.107	79.02
826.284	175.27
826.462	134.31
826.639	117.93
826.817	72.87
826.994	117.93
827.172	126.12
827.349	175.27
827.527	79.02
827.704	95.4
827.882	124.07
828.059	103.59
828.237	95.4
828.414	93.35
828.591	25.77
828.769	132.26
828.946	158.89
829.124	91.31
829.301	105.64
829.478	68.78
829.655	119.98
829.833	76.97
830.01	40.11
830.187	111.78
830.364	36.01
830.542	101.55
830.719	76.97
830.896	142.5
831.073	52.39
831.25	87.21
831.427	103.59
831.604	11.43
831.782	11.43
831.959	95.4
832.136	66.73
832.313	136.36
832.49	36.01
832.667	70.83
832.844	3.24
833.021	93.35
833.198	64.68
833.374	76.97
833.551	119.98
833.728	36.01
833.905	56.49
834.082	-19.29
834.259	66.73
834.436	87.21
834.612	72.87
834.789	46.25
834.966	56.49
835.143	36.01
835.319	29.87
835.496	46.25
835.673	117.93
835.85	9.39
836.026	27.82
836.203	97.45
836.38	42.15
836.556	87.21
836.733	132.26
836.909	95.4
837.086	7.34
837.262	64.68
837.439	95.4
837.616	50.35
837.792	46.25
837.968	85.16
838.145	52.39
838.321	-11.09
838.498	15.53
838.674	83.11
838.851	101.55
839.027	31.91
839.203	64.68
839.38	152.74
839.556	79.02
839.732	150.7
839.909	-13.14
840.085	95.4
840.261	-4.95
840.437	40.11
840.614	21.67
840.79	70.83
840.966	36.01
841.142	62.63
841.318	62.63
841.494	93.35
841.671	-29.52
841.847	13.48
842.023	46.25
842.199	111.78
842.375	62.63
842.551	-15.19
842.727	-13.14
842.903	134.31
843.079	33.96
843.255	40.11
843.431	-21.33
843.607	128.17
843.783	87.21
843.959	68.78
844.134	54.44
844.31	160.94
844.486	-25.43
844.662	85.16
844.838	54.44
845.013	76.97
845.189	-17.24
845.365	38.06
845.541	42.15
845.716	5.29
845.892	62.63
846.068	-25.43
846.244	5.29
846.419	60.59
846.595	1.19
846.77	29.87
846.946	56.49
847.122	-9.05
847.297	58.54
847.473	124.07
847.648	66.73
847.824	64.68
847.999	-17.24
848.175	33.96
848.35	83.11
848.526	93.35
848.701	109.74
848.876	-2.9
849.052	13.48
849.227	-2.9
849.403	68.78
849.578	19.63
849.753	87.21
849.929	52.39
850.104	-13.14
850.279	27.82
850.454	15.53
850.63	1.19
850.805	44.2
850.98	-21.33
851.155	-4.95
851.33	76.97
851.505	40.11
851.681	109.74
851.856	101.55
852.031	60.59
852.206	19.63
852.381	23.72
852.556	81.07
852.731	19.63
852.906	38.06
853.081	62.63
853.256	128.17
853.431	38.06
853.606	3.24
853.781	5.29
853.956	21.67
854.131	33.96
854.305	3.24
854.48	27.82
854.655	-29.52
854.83	-11.09
855.005	-37.72
855.18	31.91
855.354	60.59
855.529	-13.14
855.704	99.5
855.879	87.21
856.053	44.2
856.228	3.24
856.403	-86.87
856.577	44.2
856.752	7.34
856.926	-0.85
857.101	76.97
857.276	-31.57
857.45	19.63
857.625	25.77
857.799	134.31
857.974	52.39
858.148	19.63
858.323	38.06
858.497	17.58
858.672	56.49
858.846	-31.57
859.02	-21.33
859.195	-76.63
859.369	38.06
859.543	-0.85
859.718	19.63
859.892	58.54
860.066	-19.29
860.241	46.25
860.415	-27.48
860.589	64.68
860.763	44.2
860.938	-13.14
861.112	7.34
861.286	19.63
861.46	36.01
861.634	-29.52
861.808	36.01
861.982	-41.81
862.157	-62.29
862.331	-45.91
862.505	27.82
862.679	-50
862.853	60.59
863.027	23.72
863.201	46.25
863.375	33.96
863.549	19.63
863.722	31.91
863.896	-13.14
864.07	-37.72
864.244	52.39
864.418	36.01
864.592	-17.24
864.766	-11.09
864.939	15.53
865.113	11.43
865.287	7.34
865.461	-11.09
865.634	-21.33
865.808	40.11
865.982	-58.2
866.156	-86.87
866.329	19.63
866.503	38.06
866.676	36.01
866.85	23.72
867.024	-52.05
867.197	83.11
867.371	68.78
867.544	95.4
867.718	-60.24
867.891	25.77
868.065	11.43
868.238	7.34
868.412	46.25
868.585	-41.81
868.759	-35.67
868.932	-9.05
869.105	31.91
869.279	74.92
869.452	36.01
869.625	-13.14
869.799	44.2
869.972	17.58
870.145	76.97
870.319	44.2
870.492	17.58
870.665	27.82
870.838	54.44
871.011	-56.15
871.185	29.87
871.358	-9.05
871.531	3.24
871.704	27.82
871.877	27.82
872.05	-37.72
872.223	101.55
872.396	52.39
872.569	68.78
872.742	-31.57
872.915	40.11
873.088	-0.85
873.261	68.78
873.434	52.39
873.607	21.67
873.78	44.2
873.953	-37.72
874.126	54.44
874.299	68.78
874.471	-13.14
874.644	-13.14
874.817	-70.48
874.99	93.35
875.163	3.24
875.335	109.74
875.508	38.06
875.681	79.02
875.853	48.3
876.026	15.53
876.199	-13.14
876.371	89.26
876.544	-25.43
876.717	50.35
876.889	44.2
877.062	5.29
877.234	23.72
877.407	74.92
877.579	3.24
877.752	-2.9
877.924	56.49
878.097	3.24
878.269	11.43
878.442	93.35
878.614	60.59
878.786	-0.85
878.959	38.06
879.131	-13.14
879.303	-19.29
879.476	-21.33
879.648	38.06
879.82	11.43
879.993	-4.95
880.165	27.82
880.337	-13.14
880.509	-47.96
880.681	23.72
880.854	-2.9
881.026	-0.85
881.198	29.87
881.37	68.78
881.542	13.48
881.714	-4.95
881.886	21.67
882.058	-27.48
882.23	1.19
882.402	-23.38
882.574	27.82
882.746	105.64
882.918	36.01
883.09	68.78
883.262	15.53
883.434	36.01
883.606	-9.05
883.778	9.39
883.95	105.64
884.122	-27.48
884.293	11.43
884.465	36.01
884.637	68.78
884.809	-41.81
884.98	40.11
885.152	11.43
885.324	44.2
885.496	46.25
885.667	23.72
885.839	95.4
886.011	38.06
886.182	13.48
886.354	54.44
886.525	13.48
886.697	31.91
886.869	-0.85
887.04	68.78
887.212	52.39
887.383	44.2
887.555	15.53
887.726	3.24
887.897	-13.14
888.069	-68.44
888.24	60.59
888.412	13.48
888.583	31.91
888.754	36.01
888.926	-2.9
889.097	-4.95
889.268	-29.52
889.44	-4.95
889.611	-41.81
889.782	19.63
889.953	27.82
890.125	76.97
890.296	-13.14
890.467	-11.09
890.638	-45.91
890.809	48.3
890.98	25.77
891.151	-23.38
891.323	83.11
891.494	19.63
891.665	68.78
891.836	-0.85
892.007	-11.09
892.178	-19.29
892.349	11.43
892.52	-13.14
892.691	117.93
892.862	13.48
893.032	48.3
893.203	-35.67
893.374	46.25
893.545	5.29
893.716	-62.29
893.887	74.92
894.057	15.53
894.228	36.01
894.399	-29.52
894.57	-2.9
894.74	31.91
894.911	29.87
895.082	3.24
895.253	27.82
895.423	-4.95
895.594	46.25
895.764	-21.33
895.935	3.24
896.106	-11.09
896.276	-17.24
896.447	-0.85
896.617	-4.95
896.788	44.2
896.958	25.77
897.129	-68.44
897.299	27.82
897.47	62.63
897.64	52.39
897.81	27.82
897.981	-37.72
898.151	-82.77
898.322	66.73
898.492	38.06
898.662	15.53
898.832	-125.78
899.003	-2.9
899.173	-0.85
899.343	-90.96
899.513	-29.52
