Data from USB4F104151__101__14-43-40-913.txt Node

Date: Thu Mar 13 14:43:40 EDT 2025
User: louis
Spectrometer: USB4F10415
Trigger mode: 4
Integration Time (sec): 2.000000E-2
Scans to average: 1
Electric dark correction enabled: true
Nonlinearity correction enabled: false
Boxcar width: 0
XAxis mode: Wavelengths
Number of Pixels in Spectrum: 3648
>>>>>Begin Spectral Data<<<<<
178.204	-114.17
178.424	-114.17
178.644	-114.17
178.864	-85.5
179.084	-24.06
179.304	18.94
179.524	90.62
179.744	2.56
179.964	-30.21
180.184	27.14
180.404	10.75
180.624	-15.87
180.844	-22.02
181.064	-40.45
181.283	29.18
181.503	-34.3
181.723	-36.35
181.943	-15.87
182.163	43.52
182.383	57.86
182.602	12.8
182.822	90.62
183.042	31.23
183.262	-5.63
183.482	33.28
183.701	14.85
183.921	27.14
184.141	37.38
184.361	59.9
184.58	-24.06
184.8	123.39
185.02	53.76
185.239	53.76
185.459	78.33
185.679	84.48
185.898	-46.59
186.118	49.66
186.338	35.33
186.557	41.47
186.777	55.81
186.997	51.71
187.216	90.62
187.436	82.43
187.655	-11.78
187.875	49.66
188.095	-7.68
188.314	76.29
188.534	82.43
188.753	98.81
188.973	119.29
189.192	8.7
189.412	-1.54
189.631	18.94
189.851	29.18
190.07	59.9
190.29	68.09
190.509	20.99
190.729	-50.69
190.948	35.33
191.168	215.55
191.387	74.24
191.607	57.86
191.826	51.71
192.045	-44.54
192.265	84.48
192.484	23.04
192.704	16.9
192.923	-3.58
193.142	164.35
193.362	-46.59
193.581	176.64
193.8	59.9
194.02	76.29
194.239	8.7
194.458	35.33
194.678	41.47
194.897	27.14
195.116	61.95
195.335	29.18
195.555	14.85
195.774	-7.68
195.993	84.48
196.212	-7.68
196.432	18.94
196.651	-5.63
196.87	12.8
197.089	41.47
197.308	70.14
197.528	16.9
197.747	51.71
197.966	53.76
198.185	57.86
198.404	100.86
198.623	78.33
198.842	49.66
199.062	82.43
199.281	74.24
199.5	8.7
199.719	10.75
199.938	-32.26
200.157	61.95
200.376	18.94
200.595	98.81
200.814	51.71
201.033	66.05
201.252	35.33
201.471	70.14
201.69	66.05
201.909	41.47
202.128	29.18
202.347	49.66
202.566	27.14
202.785	-22.02
203.004	-13.82
203.223	57.86
203.442	-3.58
203.661	33.28
203.879	-7.68
204.098	86.53
204.317	51.71
204.536	98.81
204.755	94.72
204.974	66.05
205.193	45.57
205.411	98.81
205.63	37.38
205.849	51.71
206.068	-11.78
206.287	41.47
206.505	39.42
206.724	100.86
206.943	70.14
207.162	18.94
207.381	86.53
207.599	109.05
207.818	84.48
208.037	70.14
208.255	10.75
208.474	74.24
208.693	41.47
208.911	0.51
209.13	92.67
209.349	29.18
209.567	-40.45
209.786	168.45
210.005	84.48
210.223	33.28
210.442	74.24
210.661	41.47
210.879	-3.58
211.098	43.52
211.316	16.9
211.535	107.01
211.753	66.05
211.972	16.9
212.191	-52.74
212.409	49.66
212.628	66.05
212.846	57.86
213.065	16.9
213.283	92.67
213.502	45.57
213.72	80.38
213.938	20.99
214.157	84.48
214.375	0.51
214.594	68.09
214.812	12.8
215.031	41.47
215.249	37.38
215.467	90.62
215.686	49.66
215.904	57.86
216.122	-54.78
216.341	68.09
216.559	145.92
216.778	98.81
216.996	82.43
217.214	8.7
217.432	51.71
217.651	74.24
217.869	27.14
218.087	33.28
218.306	76.29
218.524	166.4
218.742	111.1
218.96	49.66
219.179	51.71
219.397	98.81
219.615	-9.73
219.833	123.39
220.051	14.85
220.27	43.52
220.488	55.81
220.706	109.05
220.924	49.66
221.142	-52.74
221.36	92.67
221.578	16.9
221.796	37.38
222.015	76.29
222.233	25.09
222.451	61.95
222.669	47.62
222.887	96.77
223.105	-19.97
223.323	-13.82
223.541	51.71
223.759	90.62
223.977	-15.87
224.195	16.9
224.413	18.94
224.631	29.18
224.849	4.61
225.067	80.38
225.285	37.38
225.503	8.7
225.721	-19.97
225.939	31.23
226.157	121.34
226.375	113.15
226.592	51.71
226.81	43.52
227.028	43.52
227.246	190.97
227.464	59.9
227.682	16.9
227.9	2.56
228.117	156.16
228.335	33.28
228.553	80.38
228.771	18.94
228.989	25.09
229.206	2.56
229.424	18.94
229.642	-56.83
229.86	-5.63
230.077	33.28
230.295	10.75
230.513	0.51
230.731	53.76
230.948	98.81
231.166	51.71
231.384	49.66
231.601	-5.63
231.819	90.62
232.037	20.99
232.254	-7.68
232.472	-56.83
232.689	33.28
232.907	121.34
233.125	61.95
233.342	43.52
233.56	74.24
233.777	12.8
233.995	25.09
234.213	90.62
234.43	37.38
234.648	41.47
234.865	37.38
235.083	59.9
235.3	-22.02
235.518	0.51
235.735	98.81
235.953	8.7
236.17	57.86
236.388	74.24
236.605	45.57
236.822	37.38
237.04	84.48
237.257	10.75
237.475	76.29
237.692	70.14
237.909	47.62
238.127	-28.16
238.344	27.14
238.562	-26.11
238.779	-19.97
238.996	-3.58
239.214	82.43
239.431	98.81
239.648	-30.21
239.865	31.23
240.083	74.24
240.3	61.95
240.517	92.67
240.735	94.72
240.952	141.82
241.169	102.91
241.386	100.86
241.603	57.86
241.821	-26.11
242.038	80.38
242.255	12.8
242.472	29.18
242.689	123.39
242.907	57.86
243.124	35.33
243.341	33.28
243.558	78.33
243.775	66.05
243.992	41.47
244.209	53.76
244.426	113.15
244.643	64
244.86	-3.58
245.078	66.05
245.295	59.9
245.512	-5.63
245.729	18.94
245.946	57.86
246.163	107.01
246.38	74.24
246.597	12.8
246.814	68.09
247.031	10.75
247.248	90.62
247.464	53.76
247.681	10.75
247.898	78.33
248.115	51.71
248.332	10.75
248.549	131.58
248.766	45.57
248.983	57.86
249.2	-15.87
249.417	72.19
249.633	-5.63
249.85	76.29
250.067	66.05
250.284	-7.68
250.501	18.94
250.717	70.14
250.934	-11.78
251.151	41.47
251.368	51.71
251.585	94.72
251.801	92.67
252.018	133.63
252.235	31.23
252.451	100.86
252.668	74.24
252.885	16.9
253.102	25.09
253.318	-28.16
253.535	51.71
253.752	25.09
253.968	-22.02
254.185	-24.06
254.401	84.48
254.618	35.33
254.835	-3.58
255.051	84.48
255.268	66.05
255.484	51.71
255.701	49.66
255.917	117.25
256.134	-36.35
256.351	117.25
256.567	25.09
256.784	0.51
257	-3.58
257.217	117.25
257.433	45.57
257.65	111.1
257.866	121.34
258.082	-30.21
258.299	59.9
258.515	113.15
258.732	70.14
258.948	10.75
259.165	98.81
259.381	35.33
259.597	113.15
259.814	117.25
260.03	61.95
260.246	49.66
260.463	74.24
260.679	0.51
260.895	2.56
261.112	86.53
261.328	49.66
261.544	25.09
261.761	117.25
261.977	76.29
262.193	78.33
262.409	76.29
262.626	27.14
262.842	43.52
263.058	-22.02
263.274	25.09
263.49	98.81
263.707	76.29
263.923	68.09
264.139	-11.78
264.355	12.8
264.571	117.25
264.787	59.9
265.004	78.33
265.22	49.66
265.436	25.09
265.652	86.53
265.868	90.62
266.084	107.01
266.3	90.62
266.516	12.8
266.732	57.86
266.948	-30.21
267.164	25.09
267.38	57.86
267.596	-1.54
267.812	113.15
268.028	41.47
268.244	-24.06
268.46	84.48
268.676	84.48
268.892	41.47
269.108	16.9
269.324	-13.82
269.54	-36.35
269.756	35.33
269.972	-52.74
270.188	8.7
270.403	41.47
270.619	12.8
270.835	49.66
271.051	66.05
271.267	-1.54
271.483	27.14
271.698	74.24
271.914	-26.11
272.13	35.33
272.346	16.9
272.562	-9.73
272.777	90.62
272.993	76.29
273.209	119.29
273.425	70.14
273.64	127.49
273.856	39.42
274.072	20.99
274.287	72.19
274.503	70.14
274.719	25.09
274.934	53.76
275.15	-3.58
275.366	35.33
275.581	-22.02
275.797	102.91
276.012	57.86
276.228	33.28
276.444	57.86
276.659	115.2
276.875	10.75
277.09	-38.4
277.306	74.24
277.521	49.66
277.737	6.66
277.952	27.14
278.168	51.71
278.383	94.72
278.599	51.71
278.814	125.44
279.03	49.66
279.245	78.33
279.461	29.18
279.676	31.23
279.892	72.19
280.107	8.7
280.322	-3.58
280.538	84.48
280.753	31.23
280.969	25.09
281.184	80.38
281.399	82.43
281.615	-62.98
281.83	92.67
282.045	41.47
282.26	-40.45
282.476	-32.26
282.691	43.52
282.906	25.09
283.122	20.99
283.337	66.05
283.552	127.49
283.767	45.57
283.983	133.63
284.198	14.85
284.413	111.1
284.628	41.47
284.843	-32.26
285.058	131.58
285.274	29.18
285.489	35.33
285.704	90.62
285.919	29.18
286.134	2.56
286.349	35.33
286.564	70.14
286.779	27.14
286.995	8.7
287.21	61.95
287.425	90.62
287.64	39.42
287.855	90.62
288.07	-38.4
288.285	109.05
288.5	90.62
288.715	100.86
288.93	4.61
289.145	12.8
289.36	57.86
289.575	72.19
289.79	98.81
290.004	98.81
290.219	78.33
290.434	74.24
290.649	35.33
290.864	37.38
291.079	35.33
291.294	74.24
291.509	82.43
291.724	39.42
291.938	98.81
292.153	111.1
292.368	12.8
292.583	84.48
292.798	86.53
293.012	96.77
293.227	53.76
293.442	57.86
293.657	45.57
293.871	74.24
294.086	47.62
294.301	35.33
294.516	61.95
294.73	49.66
294.945	64
295.16	31.23
295.374	53.76
295.589	43.52
295.804	131.58
296.018	66.05
296.233	96.77
296.447	37.38
296.662	-15.87
296.877	90.62
297.091	68.09
297.306	-7.68
297.52	8.7
297.735	12.8
297.949	31.23
298.164	98.81
298.378	-15.87
298.593	25.09
298.807	-36.35
299.022	2.56
299.236	49.66
299.451	78.33
299.665	10.75
299.88	16.9
300.094	100.86
300.309	94.72
300.523	100.86
300.737	41.47
300.952	49.66
301.166	35.33
301.381	-32.26
301.595	78.33
301.809	27.14
302.024	31.23
302.238	4.61
302.452	100.86
302.667	127.49
302.881	84.48
303.095	78.33
303.309	49.66
303.524	49.66
303.738	98.81
303.952	86.53
304.166	-7.68
304.381	64
304.595	78.33
304.809	57.86
305.023	51.71
305.237	127.49
305.452	25.09
305.666	86.53
305.88	139.77
306.094	-1.54
306.308	90.62
306.522	158.21
306.736	104.96
306.95	-13.82
307.164	66.05
307.379	-30.21
307.593	49.66
307.807	-1.54
308.021	90.62
308.235	74.24
308.449	59.9
308.663	43.52
308.877	186.88
309.091	61.95
309.305	16.9
309.519	2.56
309.733	57.86
309.947	100.86
310.161	76.29
310.374	98.81
310.588	39.42
310.802	51.71
311.016	53.76
311.23	94.72
311.444	39.42
311.658	29.18
311.872	47.62
312.085	33.28
312.299	74.24
312.513	33.28
312.727	102.91
312.941	59.9
313.154	41.47
313.368	-9.73
313.582	115.2
313.796	53.76
314.009	82.43
314.223	76.29
314.437	90.62
314.651	-3.58
314.864	43.52
315.078	80.38
315.292	86.53
315.505	20.99
315.719	57.86
315.933	10.75
316.146	2.56
316.36	70.14
316.573	131.58
316.787	74.24
317.001	2.56
317.214	57.86
317.428	74.24
317.641	29.18
317.855	66.05
318.068	27.14
318.282	-3.58
318.495	82.43
318.709	25.09
318.922	61.95
319.136	82.43
319.349	68.09
319.563	51.71
319.776	137.73
319.99	-24.06
320.203	66.05
320.417	8.7
320.63	10.75
320.843	117.25
321.057	47.62
321.27	43.52
321.483	25.09
321.697	53.76
321.91	61.95
322.124	74.24
322.337	111.1
322.55	68.09
322.763	45.57
322.977	53.76
323.19	80.38
323.403	2.56
323.617	59.9
323.83	78.33
324.043	43.52
324.256	92.67
324.469	0.51
324.683	12.8
324.896	57.86
325.109	74.24
325.322	82.43
325.535	64
325.748	35.33
325.962	20.99
326.175	0.51
326.388	74.24
326.601	45.57
326.814	8.7
327.027	12.8
327.24	41.47
327.453	33.28
327.666	29.18
327.879	74.24
328.092	43.52
328.305	82.43
328.518	92.67
328.731	25.09
328.944	100.86
329.157	16.9
329.37	8.7
329.583	18.94
329.796	152.06
330.009	-5.63
330.222	94.72
330.435	-3.58
330.648	27.14
330.861	2.56
331.073	51.71
331.286	-5.63
331.499	57.86
331.712	-28.16
331.925	76.29
332.138	94.72
332.35	82.43
332.563	37.38
332.776	66.05
332.989	61.95
333.202	66.05
333.414	10.75
333.627	2.56
333.84	43.52
334.053	123.39
334.265	29.18
334.478	59.9
334.691	-5.63
334.903	141.82
335.116	64
335.329	55.81
335.541	76.29
335.754	59.9
335.966	80.38
336.179	74.24
336.392	33.28
336.604	41.47
336.817	57.86
337.029	78.33
337.242	51.71
337.454	39.42
337.667	-24.06
337.88	92.67
338.092	84.48
338.305	66.05
338.517	0.51
338.729	20.99
338.942	47.62
339.154	53.76
339.367	0.51
339.579	68.09
339.792	59.9
340.004	113.15
340.217	10.75
340.429	74.24
340.641	-13.82
340.854	-30.21
341.066	68.09
341.278	121.34
341.491	61.95
341.703	92.67
341.915	-32.26
342.128	82.43
342.34	96.77
342.552	39.42
342.764	2.56
342.977	23.04
343.189	49.66
343.401	-17.92
343.613	41.47
343.826	57.86
344.038	49.66
344.25	61.95
344.462	0.51
344.674	84.48
344.886	20.99
345.099	51.71
345.311	57.86
345.523	-3.58
345.735	4.61
345.947	-54.78
346.159	-22.02
346.371	80.38
346.583	-24.06
346.795	90.62
347.007	90.62
347.219	47.62
347.431	8.7
347.643	107.01
347.855	84.48
348.067	86.53
348.279	33.28
348.491	35.33
348.703	102.91
348.915	59.9
349.127	82.43
349.339	92.67
349.551	66.05
349.763	125.44
349.975	25.09
350.187	66.05
350.399	115.2
350.61	45.57
350.822	-32.26
351.034	90.62
351.246	57.86
351.458	66.05
351.669	72.19
351.881	102.91
352.093	84.48
352.305	127.49
352.517	70.14
352.728	66.05
352.94	59.9
353.152	76.29
353.363	68.09
353.575	41.47
353.787	74.24
353.999	78.33
354.21	82.43
354.422	2.56
354.633	-36.35
354.845	43.52
355.057	35.33
355.268	57.86
355.48	27.14
355.692	57.86
355.903	57.86
356.115	-24.06
356.326	53.76
356.538	57.86
356.749	113.15
356.961	131.58
357.172	53.76
357.384	2.56
357.595	92.67
357.807	64
358.018	45.57
358.23	98.81
358.441	57.86
358.653	35.33
358.864	27.14
359.075	90.62
359.287	59.9
359.498	72.19
359.709	117.25
359.921	64
360.132	66.05
360.344	4.61
360.555	90.62
360.766	84.48
360.977	90.62
361.189	82.43
361.4	49.66
361.611	94.72
361.823	82.43
362.034	84.48
362.245	8.7
362.456	111.1
362.667	43.52
362.879	98.81
363.09	80.38
363.301	70.14
363.512	53.76
363.723	35.33
363.935	-19.97
364.146	33.28
364.357	25.09
364.568	25.09
364.779	25.09
364.99	41.47
365.201	37.38
365.412	49.66
365.623	20.99
365.834	74.24
366.045	25.09
366.256	74.24
366.467	102.91
366.678	41.47
366.889	72.19
367.1	20.99
367.311	84.48
367.522	37.38
367.733	139.77
367.944	137.73
368.155	59.9
368.366	51.71
368.577	43.52
368.788	66.05
368.999	0.51
369.209	70.14
369.42	143.87
369.631	180.73
369.842	53.76
370.053	16.9
370.264	12.8
370.474	31.23
370.685	59.9
370.896	100.86
371.107	115.2
371.317	86.53
371.528	90.62
371.739	86.53
371.95	43.52
372.16	135.68
372.371	66.05
372.582	57.86
372.792	41.47
373.003	57.86
373.214	29.18
373.424	111.1
373.635	41.47
373.846	139.77
374.056	20.99
374.267	74.24
374.477	41.47
374.688	61.95
374.898	66.05
375.109	84.48
375.319	55.81
375.53	147.97
375.74	86.53
375.951	16.9
376.161	29.18
376.372	96.77
376.582	33.28
376.793	94.72
377.003	53.76
377.214	131.58
377.424	49.66
377.635	66.05
377.845	-9.73
378.055	76.29
378.266	68.09
378.476	129.53
378.686	49.66
378.897	27.14
379.107	125.44
379.317	84.48
379.528	57.86
379.738	74.24
379.948	78.33
380.158	94.72
380.369	37.38
380.579	51.71
380.789	41.47
380.999	-15.87
381.21	119.29
381.42	107.01
381.63	98.81
381.84	57.86
382.05	123.39
382.261	49.66
382.471	18.94
382.681	43.52
382.891	94.72
383.101	76.29
383.311	49.66
383.521	98.81
383.731	152.06
383.941	150.01
384.151	74.24
384.361	92.67
384.571	35.33
384.781	107.01
384.991	94.72
385.201	102.91
385.411	107.01
385.621	51.71
385.831	90.62
386.041	12.8
386.251	41.47
386.461	59.9
386.671	135.68
386.881	88.57
387.091	49.66
387.301	80.38
387.511	51.71
387.72	78.33
387.93	27.14
388.14	25.09
388.35	78.33
388.56	123.39
388.769	82.43
388.979	61.95
389.189	2.56
389.399	84.48
389.609	76.29
389.818	98.81
390.028	45.57
390.238	109.05
390.447	39.42
390.657	98.81
390.867	57.86
391.076	8.7
391.286	104.96
391.496	102.91
391.705	49.66
391.915	94.72
392.125	70.14
392.334	109.05
392.544	123.39
392.753	31.23
392.963	135.68
393.172	135.68
393.382	25.09
393.591	186.88
393.801	92.67
394.01	115.2
394.22	111.1
394.429	90.62
394.639	61.95
394.848	86.53
395.058	57.86
395.267	98.81
395.477	82.43
395.686	51.71
395.895	160.25
396.105	115.2
396.314	111.1
396.524	82.43
396.733	117.25
396.942	92.67
397.152	74.24
397.361	143.87
397.57	33.28
397.78	123.39
397.989	156.16
398.198	94.72
398.407	102.91
398.617	123.39
398.826	98.81
399.035	119.29
399.244	104.96
399.453	49.66
399.663	94.72
399.872	145.92
400.081	86.53
400.29	131.58
400.499	131.58
400.708	147.97
400.917	125.44
401.127	84.48
401.336	90.62
401.545	143.87
401.754	84.48
401.963	123.39
402.172	127.49
402.381	90.62
402.59	182.78
402.799	121.34
403.008	152.06
403.217	197.12
403.426	74.24
403.635	102.91
403.844	98.81
404.053	184.83
404.262	129.53
404.471	197.12
404.68	119.29
404.888	141.82
405.097	66.05
405.306	180.73
405.515	180.73
405.724	141.82
405.933	152.06
406.142	121.34
406.35	139.77
406.559	180.73
406.768	150.01
406.977	236.03
407.185	143.87
407.394	248.32
407.603	109.05
407.812	182.78
408.02	221.69
408.229	221.69
408.438	176.64
408.646	166.4
408.855	207.36
409.064	199.16
409.272	272.89
409.481	240.12
409.69	205.31
409.898	176.64
410.107	221.69
410.315	297.47
410.524	164.35
410.733	299.52
410.941	336.38
411.15	410.11
411.358	352.76
411.567	401.91
411.775	358.91
411.984	379.39
412.192	393.72
412.401	379.39
412.609	426.49
412.818	455.16
413.026	473.59
413.234	414.2
413.443	512.5
413.651	412.15
413.86	561.66
414.068	596.47
414.276	520.7
414.485	489.98
414.693	582.14
414.901	606.71
415.11	606.71
415.318	614.9
415.526	713.21
415.734	651.77
415.943	631.29
416.151	670.2
416.359	711.16
416.567	750.07
416.776	788.98
416.984	754.16
417.192	827.89
417.4	782.84
417.608	836.08
417.817	938.48
418.025	803.32
418.233	983.54
418.441	954.87
418.649	952.82
418.857	1020.4
419.065	1044.98
419.273	1063.41
419.481	1161.71
419.689	1065.46
419.897	1245.68
420.105	1290.73
420.313	1380.84
420.521	1335.79
420.729	1313.26
420.937	1389.03
421.145	1458.67
421.353	1573.35
421.561	1503.72
421.769	1659.37
421.977	1690.09
422.185	1720.81
422.393	1806.82
422.601	1786.34
422.809	1810.92
423.017	1862.12
423.224	2056.67
423.432	2073.06
423.64	2132.45
423.848	2314.72
424.056	2306.52
424.263	2378.2
424.471	2318.81
424.679	2427.35
424.887	2556.38
425.094	2599.38
425.302	2542.04
425.51	2626.01
425.718	2769.37
425.925	2820.56
426.133	2869.72
426.341	3051.99
426.548	3301.84
426.756	3271.12
426.964	3246.54
427.171	3330.51
427.379	3559.88
427.586	3475.91
427.794	3678.66
428.001	3860.93
428.209	4043.2
428.417	4002.24
428.624	4207.04
428.832	4145.6
429.039	4223.42
429.247	4161.98
429.454	4616.63
429.662	4895.16
429.869	4688.31
430.076	4866.49
430.284	4819.38
430.491	4942.26
430.699	5228.98
430.906	5317.04
431.114	5341.61
431.321	5595.56
431.528	5587.37
431.736	5890.47
431.943	6367.65
432.15	6009.25
432.358	6111.65
432.565	6551.96
432.772	6365.6
432.979	6758.81
433.187	6865.3
433.394	6861.21
433.601	7266.71
433.808	7514.51
434.016	7383.44
434.223	7637.39
434.43	8085.89
434.637	7907.72
434.844	8458.62
435.052	8581.5
435.259	8421.76
435.466	8647.04
435.673	8573.31
435.88	9220.47
436.087	9574.77
436.294	9496.94
436.501	9253.23
436.708	9486.7
436.915	9890.15
437.122	10285.41
437.329	10099.05
437.537	10424.67
437.743	10858.84
437.95	10383.71
438.157	11145.56
438.364	11516.24
438.571	11594.06
438.778	11448.66
438.985	12691.77
439.192	12058.95
439.399	12347.72
439.606	12093.77
439.813	13011.26
440.02	13674.8
440.227	13345.08
440.433	13328.69
440.64	13699.37
440.847	13715.76
441.054	14256.42
441.261	14932.25
441.467	14745.89
441.674	15008.03
441.881	15515.92
442.088	15442.2
442.294	15419.67
442.501	15690
442.708	16105.74
442.914	16650.5
443.121	17590.52
443.328	17150.2
443.534	18229.48
443.741	17768.69
443.948	17404.15
444.154	18903.26
444.361	18659.56
444.568	18561.25
444.774	18684.13
444.981	18839.78
445.187	19116.25
445.394	20246.73
445.6	20033.74
445.807	21926.07
446.013	21043.39
446.22	21440.7
446.426	22001.84
446.633	22423.72
446.839	23709.85
447.046	22343.85
447.252	23351.45
447.459	23685.27
447.665	23244.96
447.871	24244.37
448.078	25514.11
448.284	24121.49
448.491	25131.14
448.697	25956.47
448.903	26648.68
449.11	26382.45
449.316	25927.8
449.522	26370.16
449.728	27236.45
449.935	27502.68
450.141	27672.67
450.347	27899.99
450.553	27428.96
450.76	27572.32
450.966	28700.75
451.172	28364.88
451.378	29065.28
451.584	28282.96
451.791	28950.6
451.997	28831.82
452.203	29272.13
452.409	29608
452.615	29716.54
452.821	28162.13
453.027	27908.18
453.233	29716.54
453.44	28600.4
453.646	28790.86
453.852	29057.09
454.058	29610.04
454.264	28745.8
454.47	29157.44
454.676	28674.12
454.882	29431.87
455.088	26730.6
455.294	27504.73
455.5	28000.34
455.705	28272.72
455.911	26626.15
456.117	26417.26
456.323	26341.49
456.529	24742.02
456.735	26050.67
456.941	25989.24
457.147	24877.19
457.352	24338.57
457.558	23892.12
457.764	23777.43
457.97	23586.97
458.176	23120.03
458.381	22999.2
458.587	21924.02
458.793	22159.53
458.999	20953.28
459.204	22593.7
459.41	21708.98
459.616	20414.66
459.821	20478.15
460.027	20422.86
460.233	19714.26
460.438	19005.66
460.644	18981.09
460.85	18352.36
461.055	18059.5
461.261	17795.31
461.466	16670.98
461.672	16075.02
461.878	17113.34
462.083	16138.51
462.289	15847.69
462.494	15515.92
462.7	14815.52
462.905	14653.73
463.111	15106.33
463.316	15063.32
463.522	14797.09
463.727	14782.75
463.932	14719.26
464.138	14512.42
464.343	14422.31
464.549	14385.44
464.754	14420.26
464.959	14518.56
465.165	14362.92
465.37	14014.76
465.575	13687.09
465.781	14160.17
465.986	14006.57
466.191	13625.65
466.397	13443.38
466.602	12702.01
466.807	13277.49
467.012	12996.92
467.218	12984.63
467.423	12849.47
467.628	12935.48
467.833	13613.36
468.038	13048.12
468.244	12632.38
468.449	13189.43
468.654	12616
468.859	12863.8
469.064	12755.26
469.269	12296.52
469.474	12224.84
469.679	12493.12
469.885	12067.14
470.09	12390.72
470.295	12374.34
470.5	11759.95
470.705	12241.22
470.91	11866.44
471.115	11475.28
471.32	11645.26
471.525	11704.65
471.73	11280.72
471.935	11321.68
472.139	10985.82
472.344	11118.93
472.549	11116.89
472.754	10754.4
472.959	10963.29
473.164	10584.41
473.369	10527.07
473.574	10910.04
473.778	10621.28
473.983	10570.08
474.188	10555.74
474.393	10101.09
474.598	10142.05
474.802	10168.68
475.007	9970.02
475.212	10068.33
475.417	9609.58
475.621	9337.2
475.826	9709.93
476.031	9312.63
476.235	9290.1
476.44	9369.97
476.645	9142.64
476.849	9372.02
477.054	9136.5
477.259	8896.89
477.463	8821.11
477.668	8735.1
477.872	8888.7
478.077	8581.5
478.282	8522.11
478.486	8456.57
478.691	8423.81
478.895	8419.71
479.1	8362.37
479.304	8495.49
479.509	8116.61
479.713	8225.15
479.918	8030.6
480.122	7844.23
480.326	8075.65
480.531	8022.41
480.735	7897.48
480.94	8012.17
481.144	7905.67
481.348	7928.2
481.553	7653.77
481.757	7614.86
481.961	7649.68
482.166	7760.27
482.37	7786.89
482.574	7678.35
482.778	7692.68
482.983	7850.38
483.187	7774.6
483.391	7750.03
483.595	7586.19
483.8	7459.21
484.004	7571.85
484.208	7717.26
484.412	7719.31
484.616	7778.7
484.821	7618.96
485.025	7641.48
485.229	7819.66
485.433	7649.68
485.637	7758.22
485.841	7457.17
486.045	7592.33
486.249	7594.38
486.453	7549.32
486.657	7545.23
486.861	7680.39
487.065	7465.36
487.269	7602.57
487.473	7504.27
487.677	7625.1
487.881	7659.92
488.085	7676.3
488.289	7780.75
488.493	7520.65
488.697	7721.35
488.901	7840.14
489.105	7874.95
489.309	7815.56
489.512	7668.11
489.716	7844.23
489.92	7846.28
490.124	7700.87
490.328	7930.25
490.531	7766.41
490.735	7858.57
490.939	7997.83
491.143	7913.86
491.346	7932.29
491.55	7979.4
491.754	7938.44
491.958	7872.9
492.161	8065.41
492.365	7950.73
492.569	7934.34
492.772	8057.22
492.976	8223.11
493.18	8202.63
493.383	8298.88
493.587	8315.27
493.79	8333.7
493.994	8270.21
494.197	8278.4
494.401	8364.42
494.605	8489.34
494.808	8786.3
495.012	8667.52
495.215	8601.98
495.419	8712.57
495.622	8618.36
495.825	8741.24
496.029	8808.83
496.232	9077.11
496.436	9146.74
496.639	9245.04
496.843	9171.32
497.046	9306.48
497.249	9507.18
497.453	9388.4
497.656	9527.66
497.859	9490.8
498.063	9587.05
498.266	10133.86
498.469	9822.57
498.673	9871.72
498.876	10150.25
499.079	10154.34
499.282	10213.73
499.485	10584.41
499.689	10637.66
499.892	10768.73
500.095	10750.3
500.298	11055.45
500.501	10873.18
500.705	11053.4
500.908	11387.22
501.111	11448.66
501.314	11796.81
501.517	11866.44
501.72	11696.46
501.923	11606.35
502.126	12128.58
502.329	12271.94
502.532	12355.91
502.735	12271.94
502.938	12493.12
503.141	12691.77
503.344	12874.04
503.547	12800.32
503.75	12986.68
503.953	13324.6
504.156	13533.49
504.359	13404.47
504.562	13541.68
504.765	14070.06
504.968	13891.88
505.17	14010.67
505.373	14328.1
505.576	14516.51
505.779	14696.74
505.982	14686.5
506.185	14801.18
506.387	14950.68
506.59	15261.98
506.793	15384.85
506.996	15270.17
507.198	15896.85
507.401	15606.03
507.604	15737.1
507.807	16285.96
508.009	16394.5
508.212	16378.12
508.415	16722.18
508.617	16750.85
508.82	16845.05
509.022	16886.01
509.225	17508.6
509.428	17539.32
509.63	17604.85
509.833	17977.58
510.035	18348.26
510.238	18194.67
510.44	18362.6
510.643	18542.82
510.845	18510.05
511.048	18702.56
511.25	18897.12
511.453	19241.18
511.655	19648.72
511.858	20031.69
512.06	19816.66
512.262	19984.59
512.465	19800.27
512.667	20205.77
512.87	20398.28
513.072	20650.18
513.274	20863.17
513.477	21133.5
513.679	21352.63
513.881	21473.46
514.084	21893.3
514.286	21457.08
514.488	22196.4
514.69	22855.84
514.893	22503.59
515.095	22614.18
515.297	22986.91
515.499	22859.94
515.701	23445.66
515.904	23455.9
516.106	23734.42
516.308	24150.16
516.51	24160.4
516.712	24273.04
516.914	24598.66
517.116	25004.16
517.318	24932.48
517.52	25030.79
517.722	25340.03
517.925	25643.13
518.127	25927.8
518.329	25862.26
518.531	26325.1
518.733	26499.18
518.935	26724.46
519.136	26462.32
519.338	27150.43
519.54	26974.31
519.742	27512.92
519.944	27523.16
520.146	28047.44
520.348	28026.96
520.55	28594.25
520.752	28198.99
520.954	28776.52
521.155	28592.2
521.357	29073.48
521.559	29304.9
521.761	29945.91
521.963	29706.3
522.164	29575.23
522.366	30111.8
522.568	30240.82
522.77	30435.38
522.971	31305.76
523.173	30539.82
523.375	31117.35
523.576	30869.54
523.778	31148.07
523.98	31512.61
524.181	31436.83
524.383	31547.42
524.584	31938.58
524.786	32108.57
524.988	31893.53
525.189	32518.16
525.391	32411.67
525.592	32673.81
525.794	32729.1
525.995	32796.68
526.197	32659.47
526.398	33021.96
526.6	33331.2
526.801	33613.82
527.003	34066.42
527.204	33568.77
527.406	33849.34
527.607	33611.78
527.808	34340.85
528.01	33417.22
528.211	34117.62
528.412	34555.89
528.614	34537.46
528.815	34226.17
529.016	34320.37
529.218	34516.98
529.419	34584.56
529.62	34727.92
529.822	34455.54
530.023	34306.04
530.224	34820.08
530.425	34795.5
530.626	34772.97
530.828	34379.76
531.029	35504.1
531.23	34779.12
531.431	34809.84
531.632	35067.88
531.833	35194.85
532.035	35155.94
532.236	35055.59
532.437	35432.42
532.638	35493.86
532.839	35448.8
533.04	35330.02
533.241	34936.81
533.442	35784.67
533.643	35774.43
533.844	35428.32
534.045	35403.75
534.246	35276.77
534.447	35631.07
534.648	35143.66
534.849	35878.88
535.05	35346.4
535.251	35756
535.451	35395.56
535.652	35669.98
535.853	35262.44
536.054	35362.79
536.255	35784.67
536.456	35297.25
536.657	36145.11
536.857	35571.68
537.058	35508.19
537.259	35825.63
537.46	35440.61
537.66	35401.7
537.861	35938.27
538.062	35612.64
538.263	35817.44
538.463	35807.2
538.664	35764.19
538.865	35862.49
539.065	35788.77
539.266	35559.39
539.466	35663.84
539.667	35295.21
539.868	35491.81
540.068	35569.63
540.269	35510.24
540.469	35543.01
540.67	35379.17
540.87	35356.64
541.071	35289.06
541.271	35543.01
541.472	35188.71
541.672	35338.21
541.873	35196.9
542.073	34871.28
542.274	35561.44
542.474	35008.49
542.675	35108.84
542.875	35510.24
543.075	35090.41
543.276	34977.77
543.476	35784.67
543.676	35264.49
543.877	35258.34
544.077	35192.81
544.277	34787.31
544.478	35246.05
544.678	35299.3
544.878	34842.6
545.078	35418.08
545.279	34967.53
545.479	35096.55
545.679	35330.02
545.879	34936.81
546.079	34936.81
546.28	35110.89
546.48	34615.28
546.68	35119.08
546.88	35235.81
547.08	35121.13
547.28	34949.1
547.48	34574.32
547.68	34877.42
547.88	34830.32
548.081	35014.63
548.281	34887.66
548.481	34463.73
548.681	35180.52
548.881	34992.11
549.081	34861.04
549.28	34732.01
549.48	35319.78
549.68	34674.67
549.88	34928.62
550.08	34815.98
550.28	34924.52
550.48	34871.28
550.68	35256.29
550.88	35039.21
551.08	34756.59
551.279	34822.12
551.479	34600.94
551.679	35131.37
551.879	34689.01
552.079	34789.36
552.278	34441.2
552.478	34807.79
552.678	35004.39
552.878	34641.9
553.077	34639.86
553.277	34185.21
553.477	35016.68
553.676	34451.44
553.876	34414.58
554.076	34625.52
554.275	34281.46
554.475	34203.64
554.674	34734.06
554.874	34402.29
555.074	34408.43
555.273	34545.65
555.473	34379.76
555.672	34330.61
555.872	34107.38
556.071	34668.53
556.271	34336.76
556.47	34109.43
556.67	33861.63
556.869	34019.32
557.068	33943.55
557.268	33896.44
557.467	33937.4
557.667	33802.24
557.866	33980.41
558.065	34082.81
558.265	33585.15
558.464	33765.37
558.663	33499.14
558.863	33564.67
559.062	33916.92
559.261	33552.38
559.461	34029.56
559.66	33306.63
559.859	33781.76
560.058	33237
560.258	33372.16
560.457	33337.35
560.656	33378.31
560.855	33445.89
561.054	33536
561.253	33062.92
561.453	32929.8
561.652	33298.44
561.851	33230.85
562.05	32878.6
562.249	32757.77
562.448	33112.07
562.647	32987.14
562.846	33005.58
563.045	33196.04
563.244	32608.27
563.443	32956.43
563.642	32514.06
563.841	32413.71
564.04	32452.62
564.239	32933.9
564.438	32524.3
564.637	32233.49
564.836	32487.44
565.035	32081.94
565.234	32315.41
565.432	31866.91
565.631	32083.99
565.83	32239.64
566.029	32055.32
566.228	31899.67
566.427	31780.89
566.625	31455.26
566.824	31586.33
567.023	31733.79
567.222	31348.77
567.42	31625.25
567.619	31694.88
567.818	31676.44
568.016	31543.33
568.215	31516.7
568.414	31094.82
568.612	31348.77
568.811	31014.95
569.01	31025.19
569.208	30642.22
569.407	31080.49
569.605	30505.01
569.804	30982.18
570.002	30654.51
570.201	31004.71
570.4	30500.91
570.598	30486.57
570.797	30429.23
570.995	30482.48
571.193	30476.33
571.392	30230.58
571.59	30081.08
571.789	30130.23
571.987	29823.03
572.186	29759.55
572.384	29825.08
572.582	30230.58
572.781	30124.08
572.979	29614.14
573.177	29755.45
573.376	29616.19
573.574	29608
573.772	29745.21
573.971	29472.83
574.169	29173.83
574.367	29329.47
574.565	29636.67
574.763	29063.24
574.962	28760.14
575.16	28797
575.358	28897.35
575.556	28604.49
575.754	29290.56
575.952	28538.96
576.151	28827.72
576.349	28493.9
576.547	28479.57
576.745	28285.01
576.943	28883.02
577.141	28438.61
577.339	28479.57
577.537	27752.54
577.735	27992.15
577.933	28559.44
578.131	28006.48
578.329	27650.14
578.527	27965.53
578.725	27969.62
578.923	27983.96
579.121	27918.42
579.319	27801.69
579.516	27670.62
579.714	27586.65
579.912	27418.72
580.11	27549.79
580.308	27011.17
580.506	26966.12
580.704	26826.85
580.901	27336.8
581.099	27179.11
581.297	26861.67
581.495	26665.07
581.692	26986.6
581.89	26570.86
582.088	27261.02
582.285	26675.3
582.483	26597.48
582.681	26368.11
582.878	26222.7
583.076	26466.41
583.274	26370.16
583.471	26005.62
583.669	26206.32
583.866	25766.01
584.064	25839.73
584.262	25845.88
584.459	26044.53
584.657	25776.25
584.854	25958.52
585.052	25327.74
585.249	25800.82
585.447	25827.45
585.644	25550.97
585.841	25636.98
586.039	25663.61
586.236	25043.07
586.434	25008.26
586.631	24993.92
586.828	24885.38
587.026	24959.11
587.223	25006.21
587.42	24934.53
587.618	24879.24
587.815	24379.53
588.012	24723.59
588.21	24506.51
588.407	24416.4
588.604	24451.21
588.801	24246.41
588.999	24578.18
589.196	24420.49
589.393	24197.26
589.59	24537.23
589.787	24146.06
589.984	24090.77
590.182	23693.46
590.379	24076.43
590.576	23849.11
590.773	23654.55
590.97	23685.27
591.167	23965.84
591.364	23431.32
591.561	23576.73
591.758	23408.79
591.955	23554.2
592.152	23449.75
592.349	22831.27
592.546	23371.93
592.743	23060.64
592.94	23005.34
593.137	22931.62
593.334	22956.19
593.531	22603.94
593.727	22962.34
593.924	22595.75
594.121	22382.76
594.318	22675.62
594.515	22282.41
594.712	22153.39
594.908	22233.26
595.105	22481.06
595.302	22356.14
595.499	22261.93
595.696	22468.78
595.892	22020.27
596.089	21993.65
596.286	21919.92
596.482	21862.58
596.679	21901.49
596.876	21780.66
597.072	21889.2
597.269	21696.69
597.466	21235.9
597.662	21498.04
597.859	21262.52
598.055	21473.46
598.252	21133.5
598.448	21295.29
598.645	21110.97
598.841	20943.04
599.038	21231.8
599.234	21168.32
599.431	20861.12
599.627	20701.38
599.824	20826.31
600.02	20408.52
600.217	20801.73
600.413	20549.83
600.609	20414.66
600.806	20742.34
601.002	20426.95
601.198	20177.1
601.395	20277.45
601.591	20064.46
601.787	20338.89
601.984	20125.9
602.18	20125.9
602.376	19941.58
602.572	19824.85
602.769	19923.15
602.965	19509.46
603.161	19759.31
603.357	19603.67
603.553	19394.78
603.75	19753.17
603.946	19378.39
604.142	19378.39
604.338	18946.27
604.534	19509.46
604.73	19200.22
604.926	18958.56
605.122	18923.74
605.318	19116.25
605.514	19001.57
605.71	18987.23
605.906	18974.94
606.102	18909.41
606.298	18954.46
606.494	18745.57
606.69	19269.85
606.886	18878.69
607.082	18430.18
607.278	18723.04
607.474	18424.04
607.67	18548.96
607.866	18378.98
608.062	18723.04
608.257	18559.2
608.453	18301.16
608.649	18415.85
608.845	18391.27
609.041	17946.86
609.236	18247.91
609.432	18182.38
609.628	18094.32
609.824	17950.96
610.019	18180.33
610.215	17877.23
610.411	17803.5
610.606	17748.21
610.802	18106.6
610.998	17848.56
611.193	17864.94
611.389	17535.22
611.584	17719.54
611.78	17637.62
611.976	17680.63
612.171	17512.69
612.367	17783.02
612.562	17465.59
612.758	17129.72
612.953	17420.53
613.149	17592.56
613.344	17541.36
613.539	17674.48
613.735	17109.24
613.93	17287.42
614.126	17105.15
614.321	17342.71
614.517	17236.22
614.712	17156.35
614.907	17146.11
615.103	17135.87
615.298	16953.6
615.493	16929.02
615.688	17060.09
615.884	17266.94
616.079	16689.41
616.274	17082.62
616.47	16955.65
616.665	16886.01
616.86	16738.56
617.055	16777.47
617.25	16568.58
617.445	16634.11
617.641	16099.59
617.836	16531.72
618.031	16328.97
618.226	16609.54
618.421	16357.64
618.616	16548.1
618.811	16212.23
619.006	16326.92
619.201	16177.42
619.396	16359.69
619.591	16050.44
619.786	15921.42
619.981	15733.01
620.176	15819.02
620.371	15755.54
620.566	15872.27
620.761	15409.43
620.956	15651.09
621.151	15397.14
621.346	15593.75
621.541	15102.23
621.735	15352.09
621.93	14870.81
622.125	14827.81
622.32	14999.84
622.515	15161.62
622.709	14797.09
622.904	14940.44
623.099	14700.83
623.294	14792.99
623.488	14704.93
623.683	14668.06
623.878	14412.07
624.072	14448.93
624.267	14444.84
624.462	14348.58
624.656	14119.21
624.851	14154.02
625.046	14014.76
625.24	13943.08
625.435	13676.85
625.629	13904.17
625.824	13975.85
626.018	13846.83
626.213	13412.66
626.407	13623.6
626.602	13504.82
626.796	13521.2
626.991	13648.18
627.185	13449.52
627.38	13093.18
627.574	13093.18
627.768	13084.98
627.963	12968.25
628.157	12953.91
628.352	12732.73
628.546	12656.96
628.74	12800.32
628.935	12636.48
629.129	12595.52
629.323	12355.91
629.517	12185.93
629.712	12403.01
629.906	12284.23
630.1	12042.57
630.294	12118.34
630.489	12157.25
630.683	11977.03
630.877	11974.99
631.071	11526.48
631.265	11886.92
631.459	11632.97
631.653	11692.37
631.848	11622.73
632.042	11444.56
632.236	11784.52
632.43	11585.87
632.624	11346.26
632.818	11555.15
633.012	11354.45
633.206	11450.71
633.4	11143.51
633.594	11192.66
633.788	10801.5
633.982	11073.88
634.176	11217.24
634.369	10744.16
634.563	10850.65
634.757	10670.43
634.951	10658.14
635.145	10680.67
635.339	10760.54
635.533	10459.49
635.726	10783.07
635.92	10391.91
636.114	10459.49
636.308	10393.95
636.501	10285.41
636.695	10127.72
636.889	10242.4
637.083	10072.42
637.276	10142.05
637.47	9929.06
637.664	10025.32
637.857	9888.11
638.051	9888.11
638.244	9685.36
638.438	9810.28
638.632	9646.44
638.825	9732.46
639.019	9494.9
639.212	9630.06
639.406	9550.19
639.599	9398.64
639.793	9468.27
639.986	9324.91
640.18	9296.24
640.373	9269.62
640.567	9064.82
640.76	9294.19
640.954	9044.34
641.147	9126.26
641.34	8972.66
641.534	8874.36
641.727	8999.29
641.92	8995.19
642.114	8661.37
642.307	8933.75
642.5	8874.36
642.694	8554.88
642.887	8585.6
643.08	8786.3
643.273	8751.48
643.467	8511.87
643.66	8397.18
643.853	8405.38
644.046	8354.18
644.239	8274.31
644.432	8264.07
644.626	8155.52
644.819	8173.96
645.012	8331.65
645.205	8167.81
645.398	8087.94
645.591	7934.34
645.784	8044.93
645.977	7965.06
646.17	7803.27
646.363	7831.94
646.556	7885.19
646.749	7741.83
646.942	7774.6
647.135	7690.63
647.328	7496.08
647.521	7621
647.714	7573.9
647.907	7342.48
648.099	7571.85
648.292	7569.8
648.485	7504.27
648.678	7401.87
648.871	7317.9
649.064	7332.24
649.256	7383.44
649.449	7045.52
649.642	7324.05
649.835	7074.2
650.027	6998.42
650.22	7070.1
650.413	6922.65
650.605	6975.89
650.798	6750.62
650.991	6793.62
651.183	6713.75
651.376	6762.9
651.568	6930.84
651.761	6867.35
651.954	6764.95
652.146	6726.04
652.339	6533.53
652.531	6648.22
652.724	6545.82
652.916	6250.91
653.109	6640.03
653.301	6422.94
653.494	6435.23
653.686	6234.53
653.879	6322.59
654.071	6369.69
654.263	6228.38
654.456	6218.15
654.648	6310.3
654.84	6072.74
655.033	6152.61
655.225	6209.95
655.417	6003.11
655.61	6226.34
655.802	5921.19
655.994	5814.7
656.186	6048.16
656.379	5915.05
656.571	5968.29
656.763	5904.81
656.955	5890.47
657.148	5796.26
657.34	5956.01
657.532	5616.04
657.724	5702.06
657.916	5726.63
658.108	5771.69
658.3	5718.44
658.492	5507.5
658.684	5661.1
658.876	5462.44
659.068	5636.52
659.26	5300.66
659.452	5441.96
659.644	5454.25
659.836	5374.38
660.028	5468.59
660.22	5290.42
660.412	5382.57
660.604	5208.5
660.796	5140.91
660.988	5192.11
661.18	5337.52
661.372	4972.98
661.563	5124.53
661.755	5032.37
661.947	4915.64
662.139	4985.27
662.331	4956.6
662.522	4966.84
662.714	4827.57
662.906	4962.74
663.097	4889.01
663.289	4794.81
663.481	4819.38
663.673	4768.18
663.864	4751.8
664.056	4839.86
664.247	4829.62
664.439	4686.26
664.631	4639.16
664.822	4704.7
665.014	4524.47
665.205	4624.83
665.397	4547
665.588	4497.85
665.78	4436.41
665.971	4366.78
666.163	4491.71
666.354	4352.45
666.546	4407.74
666.737	4282.81
666.929	4362.69
667.12	4497.85
667.311	4303.29
667.503	4346.3
667.694	4315.58
667.885	4170.18
668.077	4301.25
668.268	4149.7
668.459	4229.57
668.651	4231.62
668.842	4084.16
669.033	4254.14
669.224	4098.5
669.416	4243.9
669.607	4123.07
669.798	4129.22
669.989	4088.26
670.18	4121.03
670.371	4098.5
670.563	4006.34
670.754	4035.01
670.945	3860.93
671.136	3940.8
671.327	3953.09
671.518	3953.09
671.709	4065.73
671.9	3998.15
672.091	3918.28
672.282	3801.54
672.473	3717.58
672.664	3813.83
672.855	3826.12
673.046	3770.82
673.237	3690.95
673.428	3850.69
673.619	3752.39
673.809	3764.68
674	3793.35
674.191	3738.05
674.382	3709.38
674.573	3647.94
674.764	3688.9
674.954	3615.18
675.145	3629.51
675.336	3672.52
675.527	3629.51
675.717	3553.74
675.908	3551.69
676.099	3533.26
676.289	3574.22
676.48	3580.36
676.671	3582.41
676.861	3484.11
677.052	3563.98
677.243	3510.73
677.433	3457.48
677.624	3570.12
677.814	3467.72
678.005	3463.63
678.195	3504.59
678.386	3375.56
678.576	3457.48
678.767	3430.86
678.957	3437
679.148	3498.44
679.338	3412.43
679.529	3391.95
679.719	3387.85
679.909	3437
680.1	3262.93
680.29	3353.04
680.481	3336.65
680.671	3307.98
680.861	3355.08
681.052	3307.98
681.242	3312.08
681.432	3348.94
681.622	3295.69
681.813	3215.82
682.003	3375.56
682.193	3191.25
682.383	3277.26
682.573	3303.89
682.764	3148.24
682.954	3336.65
683.144	3256.78
683.334	3244.49
683.524	3334.61
683.714	3168.72
683.904	3033.55
684.094	3238.35
684.284	3285.45
684.474	3238.35
684.664	3213.77
684.854	3125.71
685.044	3097.04
685.234	3121.62
685.424	3230.16
685.614	3181.01
685.804	3264.97
685.994	2998.74
686.184	3021.27
686.374	3056.08
686.564	3004.88
686.753	2984.4
686.943	3015.12
687.133	2974.16
687.323	3056.08
687.513	3000.79
687.702	2920.92
687.892	3101.14
688.082	2949.59
688.272	3011.03
688.461	2935.25
688.651	2947.54
688.841	3033.55
689.03	2785.75
689.22	2902.48
689.41	2869.72
689.599	2763.22
689.789	2925.01
689.979	2834.9
690.168	2898.39
690.358	2740.69
690.547	2734.55
690.737	2709.97
690.926	2761.17
691.116	2773.46
691.305	2718.17
691.495	2890.2
691.684	2671.06
691.874	2687.45
692.063	2611.67
692.252	2613.72
692.442	2550.23
692.631	2566.62
692.82	2574.81
693.01	2681.3
693.199	2564.57
693.388	2556.38
693.578	2564.57
693.767	2572.76
693.956	2664.92
694.146	2599.38
694.335	2548.19
694.524	2527.71
694.713	2662.87
694.902	2449.88
695.092	2517.47
695.281	2494.94
695.47	2470.36
695.659	2378.2
695.848	2453.98
696.037	2429.4
696.226	2507.23
696.415	2417.12
696.604	2441.69
696.793	2296.28
696.982	2390.49
697.171	2421.21
697.36	2372.06
697.549	2441.69
697.738	2400.73
697.927	2413.02
698.116	2318.81
698.305	2322.91
698.494	2423.26
698.683	2247.13
698.872	2376.16
699.061	2247.13
699.25	2279.9
699.438	2243.04
699.627	2228.7
699.816	2288.09
700.005	2183.65
700.193	2310.62
700.382	2327
700.571	2296.28
700.76	2404.83
700.948	2306.52
701.137	2273.76
701.326	2224.61
701.514	2224.61
701.703	2386.4
701.892	2286.05
702.08	2318.81
702.269	2185.69
702.457	2138.59
702.646	2230.75
702.834	2122.21
703.023	2228.7
703.212	2091.49
703.4	2189.79
703.589	2294.24
703.777	2220.51
703.965	2247.13
704.154	2195.93
704.342	2200.03
704.531	2331.1
704.719	2269.66
704.907	2183.65
705.096	2167.26
705.284	2118.11
705.472	2251.23
705.661	2167.26
705.849	2171.36
706.037	2179.55
706.226	2167.26
706.414	2171.36
706.602	2208.22
706.79	2134.5
706.979	2105.82
707.167	2071.01
707.355	2150.88
707.543	2046.43
707.731	2146.78
707.919	2206.17
708.107	2007.52
708.296	2187.74
708.484	1958.37
708.672	2130.4
708.86	2171.36
709.048	2048.48
709.236	2118.11
709.424	2191.84
709.612	2195.93
709.8	2118.11
709.988	2093.54
710.176	2220.51
710.364	2052.58
710.551	2040.29
710.739	2118.11
710.927	2179.55
711.115	2060.77
711.303	2163.17
711.491	2093.54
711.679	2075.1
711.866	2122.21
712.054	2073.06
712.242	2077.15
712.43	2165.21
712.617	2050.53
712.805	2034.14
712.993	2042.34
713.181	2077.15
713.368	2171.36
713.556	2075.1
713.744	2056.67
713.931	2183.65
714.119	2124.26
714.306	2066.91
714.494	2007.52
714.682	1997.28
714.869	1978.85
715.057	1984.99
715.244	2042.34
715.432	2122.21
715.619	2066.91
715.807	2032.1
715.994	2171.36
716.182	2095.58
716.369	2138.59
716.556	2071.01
716.744	1993.19
716.931	1972.71
717.119	2138.59
717.306	2175.45
717.493	1954.27
717.681	2095.58
717.868	2073.06
718.055	1968.61
718.242	2007.52
718.43	2089.44
718.617	2007.52
718.804	2013.67
718.991	2128.35
719.179	2048.48
719.366	2034.14
719.553	2011.62
719.74	2107.87
719.927	2087.39
720.114	2023.91
720.301	1987.04
720.488	2009.57
720.676	2025.95
720.863	2046.43
721.05	2138.59
721.237	2034.14
721.424	2034.14
721.611	2146.78
721.798	2023.91
721.985	1903.07
722.172	2036.19
722.358	1956.32
722.545	2042.34
722.732	1995.23
722.919	2081.25
723.106	2097.63
723.293	1970.66
723.48	2025.95
723.667	2019.81
723.853	2052.58
724.04	2042.34
724.227	2136.54
724.414	1976.8
724.6	2044.38
724.787	1956.32
724.974	2083.3
725.161	2062.82
725.347	2056.67
725.534	2019.81
725.72	2032.1
725.907	1989.09
726.094	2015.71
726.28	2134.5
726.467	2171.36
726.653	2015.71
726.84	2017.76
727.027	2148.83
727.213	2028
727.4	2128.35
727.586	2109.92
727.773	2058.72
727.959	1913.31
728.145	2017.76
728.332	1929.7
728.518	2017.76
728.705	2036.19
728.891	2034.14
729.077	2025.95
729.264	1974.75
729.45	1962.47
729.636	2017.76
729.823	1987.04
730.009	2032.1
730.195	2079.2
730.382	2111.97
730.568	2034.14
730.754	2062.82
730.94	2038.24
731.126	2019.81
731.313	2058.72
731.499	2042.34
731.685	2028
731.871	2089.44
732.057	2036.19
732.243	2073.06
732.429	2050.53
732.615	1941.99
732.801	2116.06
732.987	2032.1
733.173	1974.75
733.359	1984.99
733.545	2032.1
733.731	2044.38
733.917	2105.82
734.103	1964.51
734.289	1974.75
734.475	1982.95
734.661	1980.9
734.847	2017.76
735.033	2044.38
735.219	1974.75
735.404	1993.19
735.59	2083.3
735.776	1991.14
735.962	2048.48
736.148	2011.62
736.333	2064.86
736.519	2042.34
736.705	2124.26
736.89	2056.67
737.076	1984.99
737.262	1925.6
737.447	1991.14
737.633	1952.23
737.819	2079.2
738.004	1937.89
738.19	1999.33
738.375	2009.57
738.561	1999.33
738.747	1894.88
738.932	1950.18
739.118	1962.47
739.303	2005.47
739.489	1921.51
739.674	1982.95
739.859	2028
740.045	1993.19
740.23	1880.55
740.416	1950.18
740.601	1788.39
740.786	1970.66
740.972	1860.07
741.157	1901.03
741.342	1866.21
741.528	1825.25
741.713	1890.79
741.898	1987.04
742.084	1903.07
742.269	1935.84
742.454	1765.86
742.639	1864.16
742.824	1819.11
743.01	1837.54
743.195	1882.6
743.38	1810.92
743.565	1802.72
743.75	1860.07
743.935	1884.64
744.12	1903.07
744.305	1892.84
744.49	1726.95
744.675	1690.09
744.86	1712.61
745.045	1886.69
745.23	1827.3
745.415	1837.54
745.6	1796.58
745.785	1761.77
745.97	1798.63
746.155	1720.81
746.34	1839.59
746.525	1810.92
746.71	1753.57
746.895	1649.13
747.079	1745.38
747.264	1688.04
747.449	1729
747.634	1645.03
747.819	1690.09
748.003	1688.04
748.188	1647.08
748.373	1688.04
748.557	1667.56
748.742	1622.5
748.927	1614.31
749.111	1585.64
749.296	1581.54
749.481	1569.26
749.665	1669.61
749.85	1473
750.034	1520.1
750.219	1534.44
750.404	1450.47
750.588	1624.55
750.773	1567.21
750.957	1397.23
751.141	1409.51
751.326	1552.87
751.51	1397.23
751.695	1470.95
751.879	1429.99
752.064	1421.8
752.248	1434.09
752.432	1493.48
752.617	1438.19
752.801	1466.86
752.985	1276.4
753.17	1450.47
753.354	1460.71
753.538	1364.46
753.722	1401.32
753.907	1339.88
754.091	1331.69
754.275	1411.56
754.459	1266.16
754.643	1245.68
754.828	1272.3
755.012	1409.51
755.196	1241.58
755.38	1282.54
755.564	1253.87
755.748	1260.01
755.932	1305.07
756.116	1280.49
756.3	1274.35
756.484	1253.87
756.668	1174
756.852	1081.84
757.036	1264.11
757.22	1180.14
757.404	1186.29
757.588	1188.33
757.772	1309.16
757.956	1147.37
758.14	1118.7
758.323	1073.65
758.507	1161.71
758.691	1085.94
758.875	1112.56
759.059	1188.33
759.242	1106.42
759.426	1094.13
759.61	1223.15
759.794	1128.94
759.977	1163.76
760.161	1182.19
760.345	1130.99
760.528	1114.61
760.712	1044.98
760.895	1135.09
761.079	1092.08
761.263	999.92
761.446	1028.59
761.63	1042.93
761.813	1065.46
761.997	1028.59
762.18	899.57
762.364	954.87
762.547	999.92
762.731	1092.08
762.914	1073.65
763.098	948.72
763.281	1010.16
763.464	946.67
763.648	995.82
763.831	944.63
764.015	936.43
764.198	1014.26
764.381	967.15
764.564	1051.12
764.748	920.05
764.931	993.78
765.114	913.91
765.297	885.23
765.481	899.57
765.664	940.53
765.847	854.51
766.03	971.25
766.213	956.91
766.397	975.35
766.58	872.95
766.763	918
766.946	977.39
767.129	889.33
767.312	854.51
767.495	889.33
767.678	903.67
767.861	983.54
768.044	903.67
768.227	899.57
768.41	823.8
768.593	901.62
768.776	854.51
768.959	852.47
769.142	868.85
769.324	860.66
769.507	838.13
769.69	772.6
769.873	791.03
770.056	887.28
770.239	844.28
770.421	860.66
770.604	745.97
770.787	805.36
770.97	815.6
771.152	827.89
771.335	852.47
771.518	799.22
771.7	825.84
771.883	836.08
772.066	829.94
772.248	819.7
772.431	903.67
772.613	852.47
772.796	825.84
772.978	655.86
773.161	846.32
773.343	821.75
773.526	754.16
773.708	707.06
773.891	764.4
774.073	758.26
774.256	786.93
774.438	760.31
774.621	641.53
774.803	795.12
774.985	778.74
775.168	621.05
775.35	565.75
775.532	739.83
775.715	643.57
775.897	662.01
776.079	698.87
776.261	633.33
776.444	707.06
776.626	649.72
776.808	698.87
776.99	778.74
777.173	623.09
777.355	670.2
777.537	619
777.719	672.25
777.901	612.85
778.083	623.09
778.265	545.27
778.447	584.18
778.629	655.86
778.811	541.18
778.993	619
779.175	655.86
779.357	627.19
779.539	586.23
779.721	582.14
779.903	598.52
780.085	555.51
780.267	551.42
780.449	641.53
780.631	543.22
780.812	623.09
780.994	598.52
781.176	539.13
781.358	543.22
781.54	590.33
781.721	580.09
781.903	594.42
782.085	483.83
782.267	553.46
782.448	541.18
782.63	471.54
782.812	522.74
782.993	467.45
783.175	565.75
783.357	475.64
783.538	502.26
783.72	545.27
783.901	479.74
784.083	528.89
784.264	582.14
784.446	434.68
784.627	408.06
784.809	496.12
784.99	418.3
785.172	422.39
785.353	471.54
785.535	442.87
785.716	449.02
785.897	328.19
786.079	502.26
786.26	520.7
786.441	449.02
786.623	449.02
786.804	354.81
786.985	463.35
787.167	475.64
787.348	393.72
787.529	424.44
787.71	459.26
787.891	360.95
788.073	397.82
788.254	408.06
788.435	422.39
788.616	363
788.797	422.39
788.978	336.38
789.159	338.43
789.34	430.59
789.522	412.15
789.703	377.34
789.884	461.3
790.065	401.91
790.246	375.29
790.427	418.3
790.607	354.81
790.788	352.76
790.969	369.15
791.15	352.76
791.331	369.15
791.512	340.47
791.693	336.38
791.874	434.68
792.054	391.67
792.235	324.09
792.416	340.47
792.597	363
792.778	252.41
792.958	311.8
793.139	289.28
793.32	360.95
793.5	336.38
793.681	377.34
793.862	305.66
794.042	289.28
794.223	330.23
794.404	369.15
794.584	299.52
794.765	229.88
794.945	272.89
795.126	418.3
795.306	377.34
795.487	365.05
795.667	322.04
795.848	348.67
796.028	258.56
796.209	373.24
796.389	336.38
796.57	303.61
796.75	184.83
796.93	299.52
797.111	328.19
797.291	322.04
797.471	291.32
797.652	270.84
797.832	309.76
798.012	332.28
798.192	262.65
798.373	264.7
798.553	229.88
798.733	223.74
798.913	272.89
799.093	283.13
799.274	260.6
799.454	326.14
799.634	320
799.814	254.46
799.994	260.6
800.174	305.66
800.354	248.32
800.534	236.03
800.714	233.98
800.894	164.35
801.074	242.17
801.254	166.4
801.434	279.04
801.614	170.49
801.794	211.45
801.974	741.88
802.154	262.65
802.334	258.56
802.514	182.78
802.693	180.73
802.873	172.54
803.053	207.36
803.233	168.45
803.413	248.32
803.592	166.4
803.772	213.5
803.952	188.93
804.131	229.88
804.311	205.31
804.491	238.08
804.67	197.12
804.85	164.35
805.03	264.7
805.209	207.36
805.389	168.45
805.568	172.54
805.748	160.25
805.928	158.21
806.107	248.32
806.287	285.18
806.466	190.97
806.646	174.59
806.825	238.08
807.004	139.77
807.184	233.98
807.363	190.97
807.543	190.97
807.722	158.21
807.901	166.4
808.081	264.7
808.26	147.97
808.439	180.73
808.619	201.21
808.798	252.41
808.977	197.12
809.156	150.01
809.336	164.35
809.515	215.55
809.694	188.93
809.873	139.77
810.052	139.77
810.231	307.71
810.411	176.64
810.59	246.27
810.769	170.49
810.948	164.35
811.127	141.82
811.306	209.4
811.485	143.87
811.664	207.36
811.843	109.05
812.022	195.07
812.201	172.54
812.38	213.5
812.559	147.97
812.737	166.4
812.916	152.06
813.095	156.16
813.274	166.4
813.453	174.59
813.632	150.01
813.811	221.69
813.989	135.68
814.168	147.97
814.347	137.73
814.526	209.4
814.704	225.79
814.883	190.97
815.062	141.82
815.24	111.1
815.419	76.29
815.598	117.25
815.776	102.91
815.955	150.01
816.133	119.29
816.312	178.69
816.49	135.68
816.669	107.01
816.847	156.16
817.026	123.39
817.204	168.45
817.383	57.86
817.561	107.01
817.74	188.93
817.918	160.25
818.097	98.81
818.275	193.02
818.453	147.97
818.632	164.35
818.81	139.77
818.988	150.01
819.167	84.48
819.345	156.16
819.523	102.91
819.701	180.73
819.879	158.21
820.058	182.78
820.236	100.86
820.414	82.43
820.592	107.01
820.77	49.66
820.948	123.39
821.127	115.2
821.305	125.44
821.483	147.97
821.661	141.82
821.839	135.68
822.017	96.77
822.195	16.9
822.373	141.82
822.551	68.09
822.729	156.16
822.907	102.91
823.085	158.21
823.262	166.4
823.44	92.67
823.618	84.48
823.796	90.62
823.974	100.86
824.152	86.53
824.329	160.25
824.507	107.01
824.685	125.44
824.863	143.87
825.04	123.39
825.218	131.58
825.396	37.38
825.574	156.16
825.751	117.25
825.929	82.43
826.107	98.81
826.284	66.05
826.462	113.15
826.639	141.82
826.817	57.86
826.994	115.2
827.172	70.14
827.349	141.82
827.527	123.39
827.704	121.34
827.882	111.1
828.059	119.29
828.237	57.86
828.414	53.76
828.591	27.14
828.769	57.86
828.946	113.15
829.124	150.01
829.301	119.29
829.478	156.16
829.655	123.39
829.833	37.38
830.01	25.09
830.187	125.44
830.364	37.38
830.542	131.58
830.719	139.77
830.896	74.24
831.073	49.66
831.25	115.2
831.427	121.34
831.604	-7.68
831.782	98.81
831.959	113.15
832.136	119.29
832.313	123.39
832.49	59.9
832.667	166.4
832.844	33.28
833.021	74.24
833.198	61.95
833.374	145.92
833.551	-1.54
833.728	66.05
833.905	68.09
834.082	92.67
834.259	86.53
834.436	82.43
834.612	78.33
834.789	82.43
834.966	23.04
835.143	33.28
835.319	8.7
835.496	100.86
835.673	107.01
835.85	117.25
836.026	94.72
836.203	78.33
836.38	0.51
836.556	86.53
836.733	147.97
836.909	125.44
837.086	109.05
837.262	150.01
837.439	-34.3
837.616	59.9
837.792	109.05
837.968	119.29
838.145	53.76
838.321	37.38
838.498	125.44
838.674	107.01
838.851	57.86
839.027	43.52
839.203	115.2
839.38	86.53
839.556	10.75
839.732	57.86
839.909	100.86
840.085	70.14
840.261	10.75
840.437	84.48
840.614	66.05
840.79	176.64
840.966	2.56
841.142	74.24
841.318	82.43
841.494	51.71
841.671	96.77
841.847	33.28
842.023	8.7
842.199	82.43
842.375	41.47
842.551	59.9
842.727	47.62
842.903	66.05
843.079	57.86
843.255	125.44
843.431	16.9
843.607	51.71
843.783	59.9
843.959	43.52
844.134	82.43
844.31	53.76
844.486	49.66
844.662	57.86
844.838	35.33
845.013	119.29
845.189	98.81
845.365	86.53
845.541	2.56
845.716	115.2
845.892	100.86
846.068	57.86
846.244	-7.68
846.419	82.43
846.595	-7.68
846.77	64
846.946	35.33
847.122	113.15
847.297	23.04
847.473	76.29
847.648	33.28
847.824	82.43
847.999	-30.21
848.175	139.77
848.35	84.48
848.526	82.43
848.701	88.57
848.876	55.81
849.052	139.77
849.227	18.94
849.403	-7.68
849.578	90.62
849.753	59.9
849.929	107.01
850.104	53.76
850.279	92.67
850.454	51.71
850.63	66.05
850.805	76.29
850.98	27.14
851.155	45.57
851.33	133.63
851.505	35.33
851.681	107.01
851.856	66.05
852.031	59.9
852.206	100.86
852.381	25.09
852.556	-32.26
852.731	16.9
852.906	98.81
853.081	57.86
853.256	78.33
853.431	-24.06
853.606	-13.82
853.781	16.9
853.956	74.24
854.131	59.9
854.305	31.23
854.48	76.29
854.655	53.76
854.83	16.9
855.005	66.05
855.18	43.52
855.354	49.66
855.529	61.95
855.704	29.18
855.879	41.47
856.053	115.2
856.228	41.47
856.403	51.71
856.577	76.29
856.752	-3.58
856.926	39.42
857.101	68.09
857.276	12.8
857.45	47.62
857.625	49.66
857.799	59.9
857.974	27.14
858.148	47.62
858.323	-13.82
858.497	82.43
858.672	12.8
858.846	25.09
859.02	49.66
859.195	104.96
859.369	107.01
859.543	64
859.718	12.8
859.892	59.9
860.066	43.52
860.241	-24.06
860.415	86.53
860.589	8.7
860.763	-71.17
860.938	66.05
861.112	39.42
861.286	72.19
861.46	12.8
861.634	-19.97
861.808	37.38
861.982	25.09
862.157	12.8
862.331	27.14
862.505	4.61
862.679	66.05
862.853	18.94
863.027	35.33
863.201	115.2
863.375	57.86
863.549	66.05
863.722	25.09
863.896	94.72
864.07	61.95
864.244	39.42
864.418	57.86
864.592	33.28
864.766	25.09
864.939	8.7
865.113	53.76
865.287	84.48
865.461	-5.63
865.634	33.28
865.808	31.23
865.982	-3.58
866.156	16.9
866.329	-3.58
866.503	16.9
866.676	33.28
866.85	39.42
867.024	61.95
867.197	98.81
867.371	2.56
867.544	51.71
867.718	35.33
867.891	100.86
868.065	8.7
868.238	10.75
868.412	51.71
868.585	-54.78
868.759	41.47
868.932	-42.5
869.105	10.75
869.279	49.66
869.452	-22.02
869.625	39.42
869.799	16.9
869.972	4.61
870.145	-24.06
870.319	55.81
870.492	6.66
870.665	-3.58
870.838	37.38
871.011	-65.02
871.185	23.04
871.358	4.61
871.531	66.05
871.704	-19.97
871.877	-38.4
872.05	53.76
872.223	37.38
872.396	8.7
872.569	31.23
872.742	-40.45
872.915	29.18
873.088	2.56
873.261	41.47
873.434	39.42
873.607	90.62
873.78	33.28
873.953	8.7
874.126	37.38
874.299	70.14
874.471	66.05
874.644	0.51
874.817	29.18
874.99	41.47
875.163	12.8
875.335	84.48
875.508	20.99
875.681	57.86
875.853	-24.06
876.026	-30.21
876.199	57.86
876.371	82.43
876.544	-30.21
876.717	107.01
876.889	-15.87
877.062	33.28
877.234	0.51
877.407	55.81
877.579	51.71
877.752	-9.73
877.924	57.86
878.097	-56.83
878.269	0.51
878.442	20.99
878.614	35.33
878.786	41.47
878.959	53.76
879.131	127.49
879.303	-52.74
879.476	16.9
879.648	117.25
879.82	23.04
879.993	-13.82
880.165	-5.63
880.337	-44.54
880.509	88.57
880.681	-15.87
880.854	-32.26
881.026	0.51
881.198	57.86
881.37	-32.26
881.542	-11.78
881.714	2.56
881.886	55.81
882.058	-19.97
882.23	39.42
882.402	78.33
882.574	41.47
882.746	35.33
882.918	12.8
883.09	43.52
883.262	-38.4
883.434	0.51
883.606	-19.97
883.778	-3.58
883.95	68.09
884.122	74.24
884.293	14.85
884.465	49.66
884.637	53.76
884.809	41.47
884.98	27.14
885.152	-79.36
885.324	45.57
885.496	-15.87
885.667	-30.21
885.839	-15.87
886.011	88.57
886.182	78.33
886.354	0.51
886.525	86.53
886.697	61.95
886.869	18.94
887.04	18.94
887.212	43.52
887.383	66.05
887.555	31.23
887.726	-54.78
887.897	-19.97
888.069	100.86
888.24	12.8
888.412	10.75
888.583	25.09
888.754	2.56
888.926	27.14
889.097	43.52
889.268	-19.97
889.44	41.47
889.611	2.56
889.782	16.9
889.953	-7.68
890.125	41.47
890.296	0.51
890.467	45.57
890.638	31.23
890.809	66.05
890.98	0.51
891.151	16.9
891.323	33.28
891.494	25.09
891.665	43.52
891.836	-40.45
892.007	41.47
892.178	74.24
892.349	16.9
892.52	-15.87
892.691	14.85
892.862	35.33
893.032	25.09
893.203	66.05
893.374	20.99
893.545	-36.35
893.716	25.09
893.887	33.28
894.057	-24.06
894.228	102.91
894.399	-40.45
894.57	84.48
894.74	51.71
894.911	25.09
895.082	-7.68
895.253	25.09
895.423	8.7
895.594	37.38
895.764	4.61
895.935	113.15
896.106	61.95
896.276	-40.45
896.447	33.28
896.617	10.75
896.788	-77.31
896.958	96.77
897.129	-28.16
897.299	25.09
897.47	18.94
897.64	18.94
897.81	10.75
897.981	8.7
898.151	-30.21
898.322	59.9
898.492	33.28
898.662	25.09
898.832	-52.74
899.003	-42.5
899.173	8.7
899.343	12.8
899.513	10.75
