Data from USB4F104151__14__14-42-37-728.txt Node

Date: Thu Mar 13 14:42:37 EDT 2025
User: louis
Spectrometer: USB4F10415
Trigger mode: 4
Integration Time (sec): 2.000000E-2
Scans to average: 1
Electric dark correction enabled: true
Nonlinearity correction enabled: false
Boxcar width: 0
XAxis mode: Wavelengths
Number of Pixels in Spectrum: 3648
>>>>>Begin Spectral Data<<<<<
178.204	-70.31
178.424	-70.31
178.644	-70.31
178.864	-96.94
179.084	-84.65
179.304	19.8
179.524	-2.73
179.744	-55.98
179.964	58.71
180.184	9.56
180.404	-37.55
180.624	-10.92
180.844	21.85
181.064	-47.79
181.283	-6.83
181.503	-37.55
181.723	89.43
181.943	-43.69
182.163	27.99
182.383	-10.92
182.602	71
182.822	-60.07
183.042	-23.21
183.262	1.37
183.482	-39.59
183.701	66.9
183.921	44.37
184.141	-66.22
184.361	83.28
184.58	66.9
184.8	1.37
185.02	40.28
185.239	-47.79
185.459	11.61
185.679	11.61
185.898	-60.07
186.118	-31.4
186.338	46.42
186.557	-15.02
186.777	-62.12
186.997	-76.46
187.216	11.61
187.436	58.71
187.655	13.65
187.875	134.48
188.095	25.94
188.314	93.52
188.534	17.75
188.753	60.76
188.973	13.65
189.192	-70.31
189.412	19.8
189.631	-10.92
189.851	-31.4
190.07	60.76
190.29	-19.11
190.509	25.94
190.729	79.19
190.948	87.38
191.168	107.86
191.387	75.09
191.607	-12.97
191.826	58.71
192.045	58.71
192.265	62.8
192.484	50.52
192.704	103.76
192.923	77.14
193.142	50.52
193.362	21.85
193.581	66.9
193.8	60.76
194.02	50.52
194.239	-15.02
194.458	103.76
194.678	19.8
194.897	-2.73
195.116	25.94
195.335	75.09
195.555	73.04
195.774	9.56
195.993	38.23
196.212	-2.73
196.432	-19.11
196.651	-4.78
196.87	34.13
197.089	58.71
197.308	-4.78
197.528	99.67
197.747	60.76
197.966	19.8
198.185	83.28
198.404	-84.65
198.623	17.75
198.842	13.65
199.062	-37.55
199.281	107.86
199.5	50.52
199.719	73.04
199.938	27.99
200.157	9.56
200.376	44.37
200.595	79.19
200.814	52.56
201.033	-39.59
201.252	50.52
201.471	27.99
201.69	62.8
201.909	50.52
202.128	-39.59
202.347	-62.12
202.566	91.48
202.785	30.04
203.004	-92.84
203.223	58.71
203.442	-8.87
203.661	-39.59
203.879	-31.4
204.098	62.8
204.317	-23.21
204.536	30.04
204.755	17.75
204.974	42.32
205.193	48.47
205.411	85.33
205.63	34.13
205.849	19.8
206.068	19.8
206.287	34.13
206.505	30.04
206.724	-33.45
206.943	17.75
207.162	25.94
207.381	81.24
207.599	52.56
207.818	42.32
208.037	13.65
208.255	19.8
208.474	-19.11
208.693	62.8
208.911	34.13
209.13	50.52
209.349	66.9
209.567	42.32
209.786	17.75
210.005	75.09
210.223	-21.16
210.442	25.94
210.661	46.42
210.879	-35.5
211.098	34.13
211.316	21.85
211.535	34.13
211.753	71
211.972	75.09
212.191	91.48
212.409	-80.55
212.628	-4.78
212.846	11.61
213.065	9.56
213.283	77.14
213.502	19.8
213.72	54.61
213.938	21.85
214.157	64.85
214.375	91.48
214.594	50.52
214.812	38.23
215.031	34.13
215.249	-2.73
215.467	23.89
215.686	-23.21
215.904	34.13
216.122	17.75
216.341	122.2
216.559	-27.31
216.778	9.56
216.996	-15.02
217.214	44.37
217.432	-82.6
217.651	21.85
217.869	17.75
218.087	54.61
218.306	-23.21
218.524	66.9
218.742	13.65
218.96	11.61
219.179	58.71
219.397	-4.78
219.615	107.86
219.833	34.13
220.051	-12.97
220.27	5.46
220.488	62.8
220.706	77.14
220.924	50.52
221.142	5.46
221.36	68.95
221.578	9.56
221.796	62.8
222.015	17.75
222.233	-15.02
222.451	52.56
222.669	3.41
222.887	34.13
223.105	-12.97
223.323	-15.02
223.541	-15.02
223.759	17.75
223.977	-12.97
224.195	83.28
224.413	17.75
224.631	42.32
224.849	42.32
225.067	54.61
225.285	-55.98
225.503	17.75
225.721	42.32
225.939	-55.98
226.157	-2.73
226.375	152.91
226.592	5.46
226.81	3.41
227.028	75.09
227.246	-27.31
227.464	36.18
227.682	120.15
227.9	19.8
228.117	42.32
228.335	-27.31
228.553	46.42
228.771	-35.5
228.989	27.99
229.206	54.61
229.424	40.28
229.642	-23.21
229.86	17.75
230.077	-23.21
230.295	13.65
230.513	-10.92
230.731	132.44
230.948	42.32
231.166	38.23
231.384	19.8
231.601	17.75
231.819	79.19
232.037	21.85
232.254	-53.93
232.472	25.94
232.689	1.37
232.907	-6.83
233.125	21.85
233.342	83.28
233.56	-64.17
233.777	1.37
233.995	25.94
234.213	71
234.43	21.85
234.648	15.7
234.865	-84.65
235.083	19.8
235.3	25.94
235.518	95.57
235.735	66.9
235.953	-4.78
236.17	38.23
236.388	9.56
236.605	17.75
236.822	60.76
237.04	-45.74
237.257	58.71
237.475	34.13
237.692	77.14
237.909	1.37
238.127	34.13
238.344	38.23
238.562	21.85
238.779	46.42
238.996	-15.02
239.214	21.85
239.431	48.47
239.648	-2.73
239.865	23.89
240.083	34.13
240.3	-6.83
240.517	-25.26
240.735	75.09
240.952	36.18
241.169	19.8
241.386	9.56
241.603	-12.97
241.821	-4.78
242.038	32.08
242.255	66.9
242.472	44.37
242.689	66.9
242.907	46.42
243.124	50.52
243.341	42.32
243.558	23.89
243.775	54.61
243.992	32.08
244.209	109.91
244.426	42.32
244.643	77.14
244.86	81.24
245.078	-6.83
245.295	81.24
245.512	68.95
245.729	-15.02
245.946	81.24
246.163	-4.78
246.38	-19.11
246.597	48.47
246.814	-0.68
247.031	-6.83
247.248	21.85
247.464	-6.83
247.681	9.56
247.898	34.13
248.115	89.43
248.332	27.99
248.549	93.52
248.766	38.23
248.983	62.8
249.2	95.57
249.417	58.71
249.633	-37.55
249.85	52.56
250.067	-10.92
250.284	36.18
250.501	89.43
250.717	21.85
250.934	-17.07
251.151	21.85
251.368	21.85
251.585	42.32
251.801	-35.5
252.018	-31.4
252.235	46.42
252.451	11.61
252.668	19.8
252.885	25.94
253.102	5.46
253.318	17.75
253.535	32.08
253.752	13.65
253.968	13.65
254.185	40.28
254.401	91.48
254.618	-10.92
254.835	34.13
255.051	46.42
255.268	23.89
255.484	93.52
255.701	17.75
255.917	54.61
256.134	-12.97
256.351	79.19
256.567	-29.35
256.784	17.75
257	-35.5
257.217	85.33
257.433	7.51
257.65	21.85
257.866	13.65
258.082	46.42
258.299	9.56
258.515	107.86
258.732	46.42
258.948	25.94
259.165	21.85
259.381	34.13
259.597	1.37
259.814	17.75
260.03	30.04
260.246	71
260.463	21.85
260.679	68.95
260.895	-74.41
261.112	17.75
261.328	9.56
261.544	-23.21
261.761	71
261.977	-8.87
262.193	-27.31
262.409	42.32
262.626	17.75
262.842	25.94
263.058	23.89
263.274	71
263.49	3.41
263.707	34.13
263.923	25.94
264.139	-31.4
264.355	-29.35
264.571	34.13
264.787	36.18
265.004	11.61
265.22	-55.98
265.436	73.04
265.652	25.94
265.868	-23.21
266.084	34.13
266.3	30.04
266.516	66.9
266.732	9.56
266.948	54.61
267.164	42.32
267.38	17.75
267.596	58.71
267.812	54.61
268.028	42.32
268.244	9.56
268.46	-43.69
268.676	73.04
268.892	-10.92
269.108	44.37
269.324	-15.02
269.54	9.56
269.756	34.13
269.972	-53.93
270.188	-12.97
270.403	17.75
270.619	21.85
270.835	52.56
271.051	-39.59
271.267	21.85
271.483	60.76
271.698	13.65
271.914	-4.78
272.13	-45.74
272.346	-37.55
272.562	46.42
272.777	122.2
272.993	-31.4
273.209	-45.74
273.425	73.04
273.64	-12.97
273.856	21.85
274.072	-4.78
274.287	-6.83
274.503	58.71
274.719	-2.73
274.934	60.76
275.15	-15.02
275.366	1.37
275.581	-53.93
275.797	-0.68
276.012	34.13
276.228	52.56
276.444	91.48
276.659	93.52
276.875	27.99
277.09	11.61
277.306	-15.02
277.521	27.99
277.737	21.85
277.952	27.99
278.168	-6.83
278.383	66.9
278.599	50.52
278.814	36.18
279.03	42.32
279.245	91.48
279.461	-4.78
279.676	36.18
279.892	-84.65
280.107	46.42
280.322	-23.21
280.538	27.99
280.753	-31.4
280.969	66.9
281.184	34.13
281.399	116.05
281.615	27.99
281.83	36.18
282.045	3.41
282.26	68.95
282.476	-27.31
282.691	68.95
282.906	9.56
283.122	-21.16
283.337	25.94
283.552	38.23
283.767	23.89
283.983	38.23
284.198	50.52
284.413	62.8
284.628	36.18
284.843	132.44
285.058	60.76
285.274	91.48
285.489	42.32
285.704	46.42
285.919	7.51
286.134	-45.74
286.349	58.71
286.564	36.18
286.779	30.04
286.995	-6.83
287.21	9.56
287.425	-31.4
287.64	44.37
287.855	11.61
288.07	-19.11
288.285	91.48
288.5	42.32
288.715	34.13
288.93	1.37
289.145	-4.78
289.36	66.9
289.575	52.56
289.79	54.61
290.004	83.28
290.219	36.18
290.434	21.85
290.649	19.8
290.864	-31.4
291.079	13.65
291.294	58.71
291.509	9.56
291.724	44.37
291.938	66.9
292.153	73.04
292.368	77.14
292.583	52.56
292.798	30.04
293.012	1.37
293.227	1.37
293.442	30.04
293.657	44.37
293.871	52.56
294.086	62.8
294.301	144.72
294.516	54.61
294.73	13.65
294.945	34.13
295.16	62.8
295.374	21.85
295.589	-4.78
295.804	17.75
296.018	58.71
296.233	73.04
296.447	91.48
296.662	21.85
296.877	-27.31
297.091	44.37
297.306	44.37
297.52	3.41
297.735	-19.11
297.949	-6.83
298.164	58.71
298.378	-2.73
298.593	-12.97
298.807	99.67
299.022	54.61
299.236	9.56
299.451	-4.78
299.665	9.56
299.88	34.13
300.094	-6.83
300.309	32.08
300.523	58.71
300.737	-12.97
300.952	13.65
301.166	75.09
301.381	27.99
301.595	77.14
301.809	34.13
302.024	77.14
302.238	-39.59
302.452	85.33
302.667	36.18
302.881	17.75
303.095	60.76
303.309	58.71
303.524	52.56
303.738	38.23
303.952	38.23
304.166	46.42
304.381	38.23
304.595	120.15
304.809	-6.83
305.023	60.76
305.237	73.04
305.452	25.94
305.666	75.09
305.88	30.04
306.094	44.37
306.308	97.62
306.522	66.9
306.736	25.94
306.95	13.65
307.164	107.86
307.379	-23.21
307.593	36.18
307.807	-15.02
308.021	-4.78
308.235	-15.02
308.449	27.99
308.663	5.46
308.877	91.48
309.091	3.41
309.305	48.47
309.519	91.48
309.733	159.06
309.947	71
310.161	-31.4
310.374	9.56
310.588	107.86
310.802	-12.97
311.016	83.28
311.23	60.76
311.444	-10.92
311.658	34.13
311.872	50.52
312.085	83.28
312.299	-2.73
312.513	87.38
312.727	38.23
312.941	21.85
313.154	99.67
313.368	23.89
313.582	66.9
313.796	54.61
314.009	91.48
314.223	58.71
314.437	38.23
314.651	103.76
314.864	44.37
315.078	34.13
315.292	25.94
315.505	46.42
315.719	48.47
315.933	25.94
316.146	52.56
316.36	34.13
316.573	42.32
316.787	52.56
317.001	36.18
317.214	1.37
317.428	50.52
317.641	58.71
317.855	-2.73
318.068	-15.02
318.282	-70.31
318.495	64.85
318.709	132.44
318.922	-6.83
319.136	30.04
319.349	-15.02
319.563	23.89
319.776	52.56
319.99	-2.73
320.203	109.91
320.417	17.75
320.63	54.61
320.843	17.75
321.057	19.8
321.27	27.99
321.483	66.9
321.697	21.85
321.91	60.76
322.124	38.23
322.337	-19.11
322.55	-68.27
322.763	40.28
322.977	9.56
323.19	30.04
323.403	-23.21
323.617	46.42
323.83	116.05
324.043	-23.21
324.256	13.65
324.469	-0.68
324.683	-6.83
324.896	38.23
325.109	30.04
325.322	1.37
325.535	-6.83
325.748	44.37
325.962	-0.68
326.175	142.68
326.388	42.32
326.601	44.37
326.814	66.9
327.027	66.9
327.24	56.66
327.453	-101.03
327.666	75.09
327.879	-8.87
328.092	-15.02
328.305	30.04
328.518	11.61
328.731	-33.45
328.944	50.52
329.157	71
329.37	75.09
329.583	85.33
329.796	34.13
330.009	42.32
330.222	73.04
330.435	50.52
330.648	38.23
330.861	34.13
331.073	58.71
331.286	68.95
331.499	25.94
331.712	25.94
331.925	-10.92
332.138	5.46
332.35	44.37
332.563	21.85
332.776	27.99
332.989	1.37
333.202	77.14
333.414	-12.97
333.627	11.61
333.84	83.28
334.053	-72.36
334.265	-39.59
334.478	30.04
334.691	-15.02
334.903	42.32
335.116	-21.16
335.329	30.04
335.541	34.13
335.754	27.99
335.966	42.32
336.179	5.46
336.392	68.95
336.604	107.86
336.817	44.37
337.029	11.61
337.242	66.9
337.454	75.09
337.667	1.37
337.88	15.7
338.092	62.8
338.305	-2.73
338.517	-76.46
338.729	27.99
338.942	54.61
339.154	3.41
339.367	-39.59
339.579	3.41
339.792	25.94
340.004	17.75
340.217	38.23
340.429	75.09
340.641	11.61
340.854	-39.59
341.066	58.71
341.278	17.75
341.491	148.82
341.703	99.67
341.915	-39.59
342.128	136.53
342.34	50.52
342.552	19.8
342.764	7.51
342.977	42.32
343.189	132.44
343.401	25.94
343.613	1.37
343.826	54.61
344.038	-23.21
344.25	44.37
344.462	1.37
344.674	3.41
344.886	17.75
345.099	60.76
345.311	44.37
345.523	11.61
345.735	-10.92
345.947	77.14
346.159	1.37
346.371	-4.78
346.583	62.8
346.795	58.71
347.007	58.71
347.219	107.86
347.431	75.09
347.643	101.72
347.855	79.19
348.067	17.75
348.279	32.08
348.491	-6.83
348.703	1.37
348.915	-60.07
349.127	13.65
349.339	85.33
349.551	-17.07
349.763	58.71
349.975	13.65
350.187	13.65
350.399	44.37
350.61	-47.79
350.822	124.24
351.034	1.37
351.246	60.76
351.458	25.94
351.669	-17.07
351.881	58.71
352.093	40.28
352.305	93.52
352.517	34.13
352.728	79.19
352.94	19.8
353.152	27.99
353.363	9.56
353.575	97.62
353.787	81.24
353.999	11.61
354.21	25.94
354.422	-47.79
354.633	15.7
354.845	-15.02
355.057	58.71
355.268	58.71
355.48	-37.55
355.692	-15.02
355.903	15.7
356.115	44.37
356.326	-19.11
356.538	118.1
356.749	15.7
356.961	40.28
357.172	21.85
357.384	-37.55
357.595	77.14
357.807	38.23
358.018	19.8
358.23	62.8
358.441	52.56
358.653	58.71
358.864	17.75
359.075	93.52
359.287	9.56
359.498	105.81
359.709	87.38
359.921	-21.16
360.132	9.56
360.344	52.56
360.555	30.04
360.766	52.56
360.977	99.67
361.189	21.85
361.4	-51.88
361.611	93.52
361.823	62.8
362.034	9.56
362.245	-19.11
362.456	-10.92
362.667	42.32
362.879	-15.02
363.09	91.48
363.301	-31.4
363.512	46.42
363.723	17.75
363.935	52.56
364.146	99.67
364.357	54.61
364.568	7.51
364.779	-21.16
364.99	148.82
365.201	-12.97
365.412	132.44
365.623	30.04
365.834	30.04
366.045	68.95
366.256	50.52
366.467	44.37
366.678	66.9
366.889	3.41
367.1	27.99
367.311	95.57
367.522	83.28
367.733	99.67
367.944	-12.97
368.155	5.46
368.366	68.95
368.577	30.04
368.788	118.1
368.999	89.43
369.209	-6.83
369.42	58.71
369.631	148.82
369.842	27.99
370.053	64.85
370.264	75.09
370.474	1.37
370.685	-6.83
370.896	48.47
371.107	68.95
371.317	93.52
371.528	36.18
371.739	60.76
371.95	21.85
372.16	15.7
372.371	-15.02
372.582	21.85
372.792	89.43
373.003	9.56
373.214	-6.83
373.424	99.67
373.635	-8.87
373.846	-4.78
374.056	32.08
374.267	85.33
374.477	21.85
374.688	1.37
374.898	-21.16
375.109	48.47
375.319	89.43
375.53	116.05
375.74	91.48
375.951	-15.02
376.161	66.9
376.372	5.46
376.582	13.65
376.793	34.13
377.003	38.23
377.214	97.62
377.424	5.46
377.635	50.52
377.845	11.61
378.055	83.28
378.266	34.13
378.476	-35.5
378.686	71
378.897	93.52
379.107	50.52
379.317	83.28
379.528	36.18
379.738	32.08
379.948	1.37
380.158	79.19
380.369	60.76
380.579	124.24
380.789	25.94
380.999	75.09
381.21	-25.26
381.42	124.24
381.63	13.65
381.84	128.34
382.05	34.13
382.261	71
382.471	95.57
382.681	83.28
382.891	42.32
383.101	64.85
383.311	34.13
383.521	40.28
383.731	9.56
383.941	36.18
384.151	11.61
384.361	1.37
384.571	52.56
384.781	132.44
384.991	101.72
385.201	118.1
385.411	101.72
385.621	71
385.831	-8.87
386.041	58.71
386.251	15.7
386.461	50.52
386.671	-15.02
386.881	54.61
387.091	-58.03
387.301	50.52
387.511	62.8
387.72	159.06
387.93	-4.78
388.14	3.41
388.35	91.48
388.56	116.05
388.769	165.2
388.979	34.13
389.189	62.8
389.399	75.09
389.609	68.95
389.818	50.52
390.028	9.56
390.238	99.67
390.447	38.23
390.657	60.76
390.867	-15.02
391.076	83.28
391.286	58.71
391.496	11.61
391.705	13.65
391.915	99.67
392.125	111.96
392.334	25.94
392.544	91.48
392.753	99.67
392.963	17.75
393.172	1.37
393.382	60.76
393.591	91.48
393.801	66.9
394.01	93.52
394.22	-27.31
394.429	-21.16
394.639	25.94
394.848	68.95
395.058	97.62
395.267	56.66
395.477	62.8
395.686	68.95
395.895	68.95
396.105	157.01
396.314	71
396.524	34.13
396.733	91.48
396.942	91.48
397.152	116.05
397.361	30.04
397.57	1.37
397.78	34.13
397.989	3.41
398.198	167.25
398.407	97.62
398.617	103.76
398.826	44.37
399.035	66.9
399.244	5.46
399.453	25.94
399.663	79.19
399.872	107.86
400.081	66.9
400.29	87.38
400.499	62.8
400.708	152.91
400.917	144.72
401.127	99.67
401.336	124.24
401.545	130.39
401.754	107.86
401.963	109.91
402.172	138.58
402.381	42.32
402.59	77.14
402.799	62.8
403.008	83.28
403.217	99.67
403.426	116.05
403.635	46.42
403.844	85.33
404.053	111.96
404.262	118.1
404.471	68.95
404.68	185.68
404.888	87.38
405.097	44.37
405.306	54.61
405.515	83.28
405.724	79.19
405.933	206.16
406.142	140.63
406.35	210.26
406.559	85.33
406.768	130.39
406.977	148.82
407.185	169.3
407.394	126.29
407.603	95.57
407.812	189.78
408.02	150.87
408.229	202.07
408.438	271.7
408.646	126.29
408.855	116.05
409.064	175.44
409.272	148.82
409.481	251.22
409.69	109.91
409.898	200.02
410.107	310.61
410.315	251.22
410.524	206.16
410.733	267.6
410.941	296.27
411.15	312.66
411.358	370
411.567	247.12
411.775	298.32
411.984	335.18
412.192	281.94
412.401	331.09
412.609	476.49
412.818	458.06
413.026	386.38
413.234	437.58
413.443	382.29
413.651	341.33
413.86	468.3
414.068	451.92
414.276	507.21
414.485	453.97
414.693	429.39
414.901	593.23
415.11	546.12
415.318	560.46
415.526	582.99
415.734	609.61
415.943	652.62
416.151	677.19
416.359	595.28
416.567	697.67
416.776	662.86
416.984	771.4
417.192	709.96
417.4	806.22
417.608	787.79
417.817	746.83
418.025	857.42
418.233	980.29
418.441	927.05
418.649	976.2
418.857	972.1
419.065	1043.78
419.273	980.29
419.481	1066.31
419.689	1086.79
419.897	1197.38
420.105	1189.19
420.313	1273.15
420.521	1264.96
420.729	1287.49
420.937	1217.86
421.145	1355.07
421.353	1484.09
421.561	1428.8
421.769	1574.21
421.977	1609.02
422.185	1660.22
422.393	1707.32
422.601	1828.15
422.809	1766.71
423.017	1764.67
423.224	1867.06
423.432	1928.5
423.64	1899.83
423.848	2133.3
424.056	2069.81
424.263	2225.46
424.471	2102.58
424.679	2311.47
424.887	2553.13
425.094	2452.78
425.302	2403.63
425.51	2467.12
425.718	2698.54
425.925	2590
426.133	2868.52
426.341	2876.71
426.548	2946.34
426.756	3075.37
426.964	3091.75
427.171	3368.23
427.379	3284.26
427.586	3507.49
427.794	3568.93
428.001	3730.72
428.209	3917.08
428.417	3659.04
428.624	3958.04
428.832	4064.54
429.039	3986.71
429.247	3960.09
429.454	4424.98
429.662	4719.89
429.869	4402.45
430.076	4777.23
430.284	4574.48
430.491	4818.19
430.699	5022.98
430.906	5022.98
431.114	5158.15
431.321	5367.04
431.528	5367.04
431.736	5666.05
431.943	5801.21
432.15	5938.43
432.358	5917.95
432.565	6223.09
432.772	6087.93
432.979	6411.51
433.187	6755.57
433.394	6644.98
433.601	6931.69
433.808	7185.64
434.016	7097.58
434.223	7445.73
434.43	7795.93
434.637	7601.38
434.844	8090.84
435.052	8152.28
435.259	8226.01
435.466	8389.85
435.673	8064.22
435.88	8692.94
436.087	9381.06
436.294	8934.6
436.501	9061.58
436.708	9323.72
436.915	9610.43
437.122	9888.96
437.329	9913.53
437.537	10292.41
437.743	10286.26
437.95	10351.8
438.157	10966.19
438.364	11383.98
438.571	11379.88
438.778	11109.55
438.985	12242.07
439.192	11887.78
439.399	12225.69
439.606	12020.89
439.813	12584.09
440.02	13280.39
440.227	13178
440.433	12965.01
440.64	13466.76
440.847	13290.63
441.054	13712.52
441.261	14472.31
441.467	14318.71
441.674	14709.88
441.881	15279.21
442.088	15307.88
442.294	14943.35
442.501	15529.06
442.708	15916.13
442.914	16602.2
443.121	17122.38
443.328	16444.51
443.534	17937.48
443.741	17204.3
443.948	17116.24
444.154	18261.05
444.361	18082.88
444.568	18543.67
444.774	18533.43
444.981	18742.33
445.187	19174.45
445.394	19997.73
445.6	19803.18
445.807	21556.24
446.013	20786.2
446.22	21003.28
446.426	21888.01
446.633	22258.69
446.839	22805.5
447.046	22031.37
447.252	23247.86
447.459	23491.57
447.665	22887.42
447.871	24505.31
448.078	25111.51
448.284	24056.81
448.491	24826.84
448.697	25697.23
448.903	26180.55
449.11	26301.38
449.316	25951.18
449.522	26475.46
449.728	27001.79
449.935	27304.88
450.141	27460.53
450.347	27941.8
450.553	27190.2
450.76	27464.63
450.966	28685.22
451.172	28218.28
451.378	29086.62
451.584	28261.29
451.791	28994.46
451.997	28926.88
452.203	29498.26
452.409	29651.86
452.615	29178.78
452.821	28062.63
453.027	27997.1
453.233	29944.72
453.44	28302.25
453.646	28732.32
453.852	28789.66
454.058	29447.06
454.264	28224.42
454.47	29037.47
454.676	28386.21
454.882	29135.77
455.088	27046.84
455.294	27210.68
455.5	27491.25
455.705	28292.01
455.911	26938.3
456.117	26180.55
456.323	25908.17
456.529	24548.32
456.735	25822.16
456.941	24941.53
457.147	24677.34
457.352	23860.2
457.558	23854.06
457.764	23669.74
457.97	23315.44
458.176	22899.7
458.381	22733.82
458.587	21478.41
458.793	22043.65
458.999	20714.52
459.204	22078.47
459.41	21328.91
459.616	20073.51
459.821	20270.11
460.027	19848.23
460.233	19967.01
460.438	18490.43
460.644	18801.72
460.85	18121.79
461.055	17867.84
461.261	17736.77
461.466	16614.49
461.672	16012.38
461.878	17169.49
462.083	15887.46
462.289	15729.77
462.494	15662.18
462.7	14769.27
462.905	14775.41
463.111	15168.62
463.316	15070.32
463.522	14933.11
463.727	14920.82
463.932	14787.7
464.138	14584.95
464.343	14830.71
464.549	14062.72
464.754	14759.03
464.959	14799.99
465.165	14464.12
465.37	13921.41
465.575	13468.81
465.781	14378.11
465.986	14406.78
466.191	13630.6
466.397	13542.53
466.602	12760.21
466.807	13374.6
467.012	13317.26
467.218	13132.94
467.423	13243.53
467.628	13155.47
467.833	13624.45
468.038	13204.62
468.244	12895.38
468.449	13458.57
468.654	13083.79
468.859	12805.27
469.064	12776.59
469.269	12264.6
469.474	12350.62
469.679	12618.9
469.885	12424.34
470.09	12557.46
470.295	12336.28
470.5	11967.65
470.705	12129.44
470.91	11922.59
471.115	11388.07
471.32	11957.41
471.525	11955.36
471.73	11551.91
471.935	11576.48
472.139	11424.93
472.344	11265.19
472.549	11177.13
472.754	11248.81
472.959	10851.5
473.164	10824.88
473.369	10464.44
473.574	10937.52
473.778	10908.85
473.983	10794.16
474.188	10640.56
474.393	10120.38
474.598	10491.06
474.802	10015.93
475.007	10398.9
475.212	10116.28
475.417	9811.14
475.621	9766.08
475.826	9630.91
476.031	9739.46
476.235	9487.56
476.44	9559.24
476.645	9383.11
476.849	9346.25
477.054	9239.75
477.259	9163.98
477.463	9006.28
477.668	8907.98
477.872	9041.1
478.077	8930.51
478.282	8529.11
478.486	8600.79
478.691	8436.95
478.895	8721.62
479.1	8443.09
479.304	8590.55
479.509	8234.2
479.713	8496.34
479.918	8307.93
480.122	8051.93
480.326	8344.79
480.531	8307.93
480.735	7976.16
480.94	8000.73
481.144	8398.04
481.348	7912.67
481.553	8066.27
481.757	7863.52
481.961	7996.64
482.166	8039.64
482.37	7890.14
482.574	8006.88
482.778	7757.02
482.983	7947.48
483.187	7855.33
483.391	8043.74
483.595	7773.41
483.8	7855.33
484.004	8039.64
484.208	8010.97
484.412	7931.1
484.616	8072.41
484.821	8051.93
485.025	7830.75
485.229	8000.73
485.433	7898.33
485.637	7896.28
485.841	7845.09
486.045	7843.04
486.249	7777.5
486.453	7963.87
486.657	7886.04
486.861	8045.79
487.065	7636.19
487.269	7988.44
487.473	7808.22
487.677	7988.44
487.881	8113.37
488.085	7914.72
488.289	8080.6
488.493	7947.48
488.697	8090.84
488.901	7994.59
489.105	7834.85
489.309	8152.28
489.512	8037.59
489.716	7951.58
489.92	8154.33
490.124	8035.55
490.328	8262.87
490.531	8031.45
490.735	8260.82
490.939	8459.48
491.143	8289.49
491.346	8299.73
491.55	8516.82
491.754	8377.56
491.958	8475.86
492.161	8545.49
492.365	8580.31
492.569	8357.08
492.772	8582.35
492.976	8676.56
493.18	8709.33
493.383	8910.03
493.587	8957.13
493.79	8914.13
493.994	8758.48
494.197	8998.09
494.401	8957.13
494.605	9063.63
494.808	9233.61
495.012	9143.5
495.215	9417.93
495.419	9460.93
495.622	9465.03
495.825	9698.5
496.029	9530.56
496.232	9768.13
496.436	9612.48
496.639	9931.97
496.843	9989.31
497.046	10106.04
497.249	10271.93
497.453	10226.87
497.656	10489.01
497.859	10572.98
498.063	10509.49
498.266	11005.1
498.469	10648.75
498.673	10998.96
498.876	10998.96
499.079	11015.34
499.282	11072.68
499.485	11562.15
499.689	11437.22
499.892	11705.51
500.095	11930.78
500.298	12022.94
500.501	11979.93
500.705	12280.99
500.908	12479.64
501.111	12440.73
501.314	12792.98
501.517	12803.22
501.72	13128.84
501.923	13067.41
502.126	13417.61
502.329	13575.3
502.532	13681.8
502.735	13694.08
502.938	14144.64
503.141	13970.56
503.344	14283.9
503.547	14347.39
503.75	14691.45
503.953	14972.02
504.156	15189.1
504.359	15086.7
504.562	15131.76
504.765	15400.04
504.968	15830.12
505.17	15830.12
505.373	15852.64
505.576	16252
505.779	16385.12
505.982	16524.38
506.185	17032.27
506.387	16747.61
506.59	17142.86
506.793	17318.99
506.996	17523.79
507.198	17966.15
507.401	17671.24
507.604	18189.38
507.807	18611.26
508.009	18680.89
508.212	18900.02
508.415	18994.23
508.617	19233.84
508.82	19262.51
509.022	19211.31
509.225	20024.36
509.428	19993.64
509.63	20239.39
509.833	20128.8
510.035	20835.35
510.238	20798.49
510.44	21138.45
510.643	21523.47
510.845	21357.58
511.048	21435.41
511.25	21828.62
511.453	22025.22
511.655	22637.56
511.858	22453.25
512.06	23036.92
512.262	22942.71
512.465	22903.8
512.667	23194.61
512.87	23761.9
513.072	23970.79
513.274	24454.11
513.477	24628.19
513.679	24728.54
513.881	24775.64
514.084	25699.28
514.286	25150.42
514.488	25641.93
514.69	26436.55
514.893	26096.58
515.095	26549.18
515.297	27005.88
515.499	26768.32
515.701	27351.99
515.904	27354.04
516.106	28111.78
516.308	27919.28
516.51	28373.92
516.712	28271.53
516.914	28636.06
517.116	29197.21
517.318	29146.01
517.52	29471.64
517.722	29623.19
517.925	29672.34
518.127	30339.97
518.329	30284.68
518.531	30747.52
518.733	31239.03
518.935	31306.62
519.136	31247.22
519.338	31644.53
519.54	31972.21
519.742	32023.4
519.944	32736.1
520.146	33307.48
520.348	33360.73
520.55	33403.74
520.752	33676.12
520.954	34212.68
521.155	34040.65
521.357	34646.85
521.559	34530.12
521.761	34929.47
521.963	34894.66
522.164	35058.49
522.366	35924.79
522.568	35638.07
522.77	35871.54
522.971	36545.32
523.173	36057.9
523.375	36823.84
523.576	36711.21
523.778	36557.61
523.98	36952.87
524.181	37466.91
524.383	37720.85
524.584	37987.09
524.786	37853.97
524.988	37538.58
525.189	38165.26
525.391	38558.47
525.592	38875.91
525.794	38640.39
525.995	39150.34
526.197	38779.65
526.398	39463.68
526.6	39746.29
526.801	39627.51
527.003	39785.21
527.204	39740.15
527.406	40260.33
527.607	39895.8
527.808	40563.43
528.01	39682.81
528.211	40385.26
528.412	41341.66
528.614	40641.26
528.815	40329.97
529.016	40903.4
529.218	40874.73
529.419	41042.66
529.62	41054.95
529.822	41024.23
530.023	40923.88
530.224	41425.63
530.425	41069.28
530.626	40930.02
530.828	40950.5
531.029	42009.3
531.23	40821.48
531.431	41544.41
531.632	41956.05
531.833	41579.23
532.035	41761.5
532.236	41521.88
532.437	41872.09
532.638	41655
532.839	41937.62
533.04	42095.31
533.241	41587.42
533.442	42447.57
533.643	41904.85
533.844	41816.79
534.045	41892.57
534.246	41863.89
534.447	42304.21
534.648	42267.34
534.849	42261.2
535.05	42078.93
535.251	42240.72
535.451	42031.83
535.652	42382.03
535.853	42240.72
536.054	42355.41
536.255	42210
536.456	41937.62
536.657	42121.94
536.857	42035.92
537.058	42281.68
537.259	42650.31
537.46	42416.85
537.66	42273.49
537.861	42384.08
538.062	42158.8
538.263	42369.74
538.463	41947.86
538.664	42302.16
538.865	42259.15
539.065	42207.95
539.266	42166.99
539.466	42662.6
539.667	41867.99
539.868	42767.05
540.068	42031.83
540.269	41917.14
540.469	42347.22
540.67	42267.34
540.87	42459.85
541.071	42250.96
541.271	42357.45
541.472	42179.28
541.672	41947.86
541.873	41945.81
542.073	41509.6
542.274	42322.64
542.474	42093.27
542.675	42130.13
542.875	42453.71
543.075	42144.47
543.276	41517.79
543.476	41990.87
543.676	42062.55
543.877	42058.45
544.077	42320.59
544.277	41761.5
544.478	41839.32
544.678	42101.46
544.878	42642.12
545.078	41937.62
545.279	41913.05
545.479	41904.85
545.679	42015.44
545.879	42099.41
546.079	42037.97
546.28	41843.41
546.48	41859.8
546.68	42074.84
546.88	42017.49
547.08	42332.88
547.28	42029.78
547.48	41605.85
547.68	42222.29
547.88	41741.02
548.081	42005.2
548.281	41994.96
548.481	41882.33
548.681	41407.2
548.881	41716.44
549.081	42044.12
549.28	41958.1
549.48	42265.3
549.68	41925.33
549.88	42113.75
550.08	41663.19
550.28	41898.71
550.48	41911
550.68	41960.15
550.88	41632.47
551.08	41507.55
551.279	41691.87
551.479	41339.61
551.679	41876.18
551.879	41687.77
552.079	41659.1
552.278	41671.39
552.478	41892.57
552.678	41724.63
552.878	41906.9
553.077	41872.09
553.277	41368.29
553.477	42218.19
553.676	41278.18
553.876	41827.03
554.076	41661.15
554.275	41556.7
554.475	41208.54
554.674	41368.29
554.874	41589.47
555.074	41343.71
555.273	41315.04
555.473	41487.07
555.672	41032.42
555.872	41046.75
556.071	41360.09
556.271	41585.37
556.47	41110.24
556.67	40669.93
556.869	41054.95
557.068	41231.07
557.268	40903.4
557.467	41110.24
557.667	40737.51
557.866	40725.22
558.065	41052.9
558.265	40798.95
558.464	40598.25
558.663	40995.56
558.863	40454.89
559.062	40944.36
559.261	40434.41
559.461	40757.99
559.66	40639.21
559.859	40307.44
560.058	40295.15
560.258	40375.02
560.457	40030.96
560.656	40436.46
560.855	40080.11
561.054	40159.98
561.253	39826.17
561.453	40157.94
561.652	40061.68
561.851	40475.37
562.05	39805.69
562.249	39645.94
562.448	40108.79
562.647	40049.39
562.846	39705.34
563.045	40198.9
563.244	39353.08
563.443	39764.73
563.642	39353.08
563.841	39502.59
564.04	39375.61
564.239	39547.64
564.438	38851.33
564.637	39148.29
564.836	39633.66
565.035	39027.46
565.234	39303.93
565.432	38963.97
565.631	38773.51
565.83	38976.26
566.029	38734.6
566.228	38918.92
566.427	38943.49
566.625	38492.94
566.824	38114.06
567.023	38595.34
567.222	37864.21
567.42	38771.46
567.619	38167.31
567.818	38460.17
568.016	38406.92
568.215	38494.99
568.414	38064.91
568.612	38238.99
568.811	37882.64
569.01	37925.65
569.208	37493.53
569.407	37825.3
569.605	37640.98
569.804	37997.33
570.002	37554.97
570.201	37767.96
570.4	37176.09
570.598	37280.54
570.797	36870.95
570.995	37233.44
571.193	36887.33
571.392	37307.16
571.59	36940.58
571.789	36922.15
571.987	36997.92
572.186	36451.11
572.384	36426.54
572.582	36496.17
572.781	37006.11
572.979	35947.31
573.177	36180.78
573.376	36569.9
573.574	36057.9
573.772	35961.65
573.971	35896.11
574.169	36191.02
574.367	35922.74
574.565	35808.05
574.763	35812.15
574.962	35560.25
575.16	35068.73
575.358	35365.69
575.556	34845.51
575.754	35894.07
575.952	34829.12
576.151	35064.64
576.349	34841.41
576.547	34405.19
576.745	34726.72
576.943	34847.55
577.141	34575.17
577.339	34712.39
577.537	34190.16
577.735	34540.36
577.933	34423.62
578.131	34257.74
578.329	34032.46
578.527	34235.21
578.725	33745.75
578.923	33946.45
579.121	33782.61
579.319	33755.99
579.516	34095.95
579.714	33577.81
579.912	33702.74
580.11	33418.07
580.308	33532.76
580.506	33153.88
580.704	32901.98
580.901	33358.68
581.099	33258.33
581.297	32799.58
581.495	32740.19
581.692	32969.57
581.89	32711.52
582.088	33174.36
582.285	32449.38
582.483	32691.04
582.681	32807.78
582.878	32281.45
583.076	32129.9
583.274	32363.37
583.471	31845.23
583.669	31931.25
583.866	31816.56
584.064	31759.22
584.262	31669.11
584.459	31970.16
584.657	31456.12
584.854	31544.18
585.052	31363.96
585.249	31398.77
585.447	31032.19
585.644	30964.6
585.841	31052.67
586.039	31128.44
586.236	30323.59
586.434	30636.93
586.631	30464.9
586.828	30735.23
587.026	30565.25
587.223	30514.05
587.42	30450.56
587.618	30309.25
587.815	30098.31
588.012	30292.87
588.21	30169.99
588.407	30301.06
588.604	29778.83
588.801	29834.13
588.999	29502.36
589.196	29354.9
589.393	29547.41
589.59	29735.82
589.787	29492.12
589.984	29373.33
590.182	29133.72
590.379	29158.3
590.576	29143.96
590.773	29045.66
590.97	28679.07
591.167	28816.29
591.364	28550.05
591.561	28769.18
591.758	28619.68
591.955	28683.17
592.152	28556.19
592.349	28335.01
592.546	28558.24
592.743	28294.05
592.94	28126.12
593.137	27851.69
593.334	28052.39
593.531	27831.21
593.727	27528.11
593.924	27706.29
594.121	27638.7
594.318	27648.94
594.515	27337.65
594.712	27790.25
594.908	27319.22
595.105	27351.99
595.302	27042.74
595.499	27313.08
595.696	26981.31
595.892	26667.97
596.089	27022.26
596.286	26710.97
596.482	27022.26
596.679	26891.19
596.876	26586.05
597.072	26553.28
597.269	26526.66
597.466	26219.46
597.662	26348.48
597.859	26297.28
598.055	26061.77
598.252	25895.88
598.448	25979.85
598.645	25773
598.841	25641.93
599.038	25748.43
599.234	25895.88
599.431	25261.01
599.627	25365.46
599.824	25738.19
600.02	25377.75
600.217	25691.09
600.413	25256.92
600.609	25138.13
600.806	24994.78
601.002	25099.22
601.198	24675.29
601.395	24937.43
601.591	24878.04
601.787	24447.97
601.984	24511.46
602.18	24724.44
602.376	24126.44
602.572	24200.16
602.769	24216.55
602.965	23946.22
603.161	24151.01
603.357	24019.94
603.553	23999.46
603.75	24056.81
603.946	23907.3
604.142	24099.81
604.338	23661.55
604.534	23628.78
604.73	23370.74
604.926	23428.08
605.122	23694.32
605.318	23395.31
605.514	23491.57
605.71	23141.36
605.906	23204.85
606.102	23147.51
606.298	23053.3
606.494	22975.48
606.69	23012.34
606.886	22940.66
607.082	22662.14
607.278	22911.99
607.474	22408.19
607.67	22926.33
607.866	22510.59
608.062	22699
608.257	22443.01
608.453	22418.43
608.649	22144
608.845	22275.07
609.041	22207.49
609.236	22211.59
609.432	22209.54
609.628	22117.38
609.824	22027.27
610.019	21902.34
610.215	22094.85
610.411	21982.21
610.606	21675.02
610.802	21888.01
610.998	21728.27
611.193	21816.33
611.389	21453.84
611.584	21414.93
611.78	21455.89
611.976	21558.28
612.171	21580.81
612.367	21457.93
612.562	21222.42
612.758	21185.55
612.953	21146.64
613.149	21271.57
613.344	21011.48
613.539	21392.4
613.735	21302.29
613.93	21101.59
614.126	20829.21
614.321	21261.33
614.517	20861.97
614.712	20970.52
614.907	20917.27
615.103	20790.3
615.298	20311.07
615.493	20790.3
615.688	20362.27
615.884	20780.06
616.079	20675.61
616.274	20513.82
616.47	20599.83
616.665	20220.96
616.86	20157.47
617.055	20118.56
617.25	20276.26
617.445	19973.16
617.641	20042.79
617.836	20235.3
618.031	19881
618.226	20145.19
618.421	19711.02
618.616	20108.32
618.811	19600.43
619.006	19751.98
619.201	19395.63
619.396	19450.92
619.591	19258.42
619.786	19176.5
619.981	19164.21
620.176	19545.13
620.371	18805.81
620.566	19151.92
620.761	18869.3
620.956	19016.76
621.151	18742.33
621.346	18805.81
621.541	18410.56
621.735	18644.02
621.93	18414.65
622.125	18162.75
622.32	18084.93
622.515	18410.56
622.709	17986.63
622.904	17833.03
623.099	17716.29
623.294	17970.24
623.488	17738.82
623.683	17601.61
623.878	17323.08
624.072	17433.68
624.267	17349.71
624.462	17210.45
624.656	16956.5
624.851	17087.57
625.046	16868.44
625.24	16974.93
625.435	16729.17
625.629	16755.8
625.824	16763.99
626.018	16761.94
626.213	16092.26
626.407	16286.81
626.602	15934.56
626.796	16110.69
626.991	16159.84
627.185	16237.66
627.38	16114.78
627.574	15815.78
627.768	15535.21
627.963	15578.22
628.157	15357.03
628.352	15598.7
628.546	15299.69
628.74	15535.21
628.935	15260.78
629.129	15076.46
629.323	14965.87
629.517	14955.63
629.712	14863.47
629.906	14615.67
630.1	14822.52
630.294	14593.14
630.489	14365.82
630.683	14673.01
630.877	14421.11
631.071	14337.15
631.265	14419.07
631.459	14103.68
631.653	14113.92
631.848	14075.01
632.042	13837.44
632.236	14171.26
632.43	13649.03
632.624	13837.44
632.818	13771.91
633.012	13524.1
633.206	13810.82
633.4	13499.53
633.594	13272.2
633.788	13304.97
633.982	13307.02
634.176	13302.92
634.369	12987.54
634.563	13178
634.757	13079.69
634.951	13087.89
635.145	12936.34
635.339	12872.85
635.533	12844.18
635.726	12889.23
635.92	12481.69
636.114	12512.41
636.308	12342.42
636.501	12352.66
636.695	12356.76
636.889	12328.09
637.083	12244.12
637.276	12207.26
637.47	12068
637.664	11945.12
637.857	12084.38
638.051	11846.82
638.244	11822.24
638.438	11867.3
638.632	11539.62
638.825	11527.33
639.019	11463.85
639.212	11478.18
639.406	11224.23
639.599	11287.72
639.793	11543.72
639.986	11218.09
640.18	11334.82
640.373	11142.32
640.567	11003.05
640.76	11054.25
640.954	10986.67
641.147	10886.32
641.34	10826.93
641.534	10876.08
641.727	10775.73
641.92	10544.31
642.114	10489.01
642.307	10620.08
642.5	10355.9
642.694	10478.77
642.887	10212.54
643.08	10294.46
643.273	10052.8
643.467	10130.62
643.66	10097.85
643.853	9956.54
644.046	9848
644.239	10065.08
644.432	9938.11
644.626	9831.62
644.819	9790.66
645.012	9575.62
645.205	9579.72
645.398	9643.2
645.591	9596.1
645.784	9508.04
645.977	9286.86
646.17	9405.64
646.363	9309.38
646.556	8899.79
646.749	9249.99
646.942	9278.66
647.135	9090.25
647.328	8979.66
647.521	9041.1
647.714	8811.73
647.907	8987.85
648.099	8807.63
648.292	8983.76
648.485	8875.21
648.678	8688.85
648.871	8594.64
649.064	8514.77
649.256	8461.52
649.449	8510.68
649.642	8320.21
649.835	8189.14
650.027	8295.64
650.22	8402.13
650.413	8238.3
650.605	8148.19
650.798	8008.92
650.991	8070.36
651.183	7914.72
651.376	7816.41
651.568	8076.51
651.761	8010.97
651.954	8017.11
652.146	7771.36
652.339	7892.19
652.531	7728.35
652.724	7793.89
652.916	7587.04
653.109	7644.38
653.301	7621.86
653.494	7679.2
653.686	7226.6
653.879	7566.56
654.071	7351.53
654.263	7468.26
654.456	7437.54
654.648	7464.16
654.84	7275.75
655.033	7140.58
655.225	7111.91
655.417	6956.27
655.61	7064.81
655.802	7093.48
655.994	6948.08
656.186	6999.27
656.379	6931.69
656.571	6905.07
656.763	6763.76
656.955	6696.18
657.148	6804.72
657.34	6755.57
657.532	6599.92
657.724	6622.45
657.916	6528.24
658.108	6599.92
658.3	6448.37
658.492	6515.95
658.684	6427.89
658.876	6356.21
659.068	6425.84
659.26	6321.4
659.452	6411.51
659.644	6300.92
659.836	6137.08
660.028	6223.09
660.22	6139.13
660.412	5942.52
660.604	5862.65
660.796	5913.85
660.988	6049.02
661.18	5827.84
661.372	5862.65
661.563	5944.57
661.755	5887.23
661.947	5682.43
662.139	5709.05
662.331	5829.88
662.522	5778.69
662.714	5645.57
662.906	5508.35
663.097	5620.99
663.289	5596.42
663.481	5383.43
663.673	5418.24
663.864	5494.02
664.056	5184.77
664.247	5391.62
664.439	5139.72
664.631	5217.54
664.822	5321.99
665.014	5162.25
665.205	5227.78
665.397	5115.14
665.588	5111.05
665.78	5160.2
665.971	5022.98
666.163	4990.22
666.354	4891.91
666.546	5014.79
666.737	4877.58
666.929	4777.23
667.12	4887.82
667.311	4687.12
667.503	4703.5
667.694	4891.91
667.885	4822.28
668.077	4670.73
668.268	4834.57
668.459	4594.96
668.651	4642.06
668.842	4599.06
669.033	4494.61
669.224	4590.86
669.416	4601.1
669.607	4476.18
669.798	4537.62
669.989	4531.47
670.18	4506.9
670.371	4461.84
670.563	4279.57
670.754	4351.25
670.945	4420.88
671.136	4298
671.327	4336.92
671.518	4252.95
671.709	4211.99
671.9	4357.39
672.091	4224.28
672.282	4207.89
672.473	4140.31
672.664	4142.36
672.855	4203.8
673.046	4154.65
673.237	4064.54
673.428	4027.67
673.619	4113.69
673.809	4089.11
674	4023.58
674.191	4117.78
674.382	3851.55
674.573	4017.43
674.764	3919.13
674.954	3853.59
675.145	3786.01
675.336	3953.94
675.527	3859.74
675.717	3939.61
675.908	3880.22
676.099	3896.6
676.289	3851.55
676.48	3777.82
676.671	3751.2
676.861	3800.35
677.052	3826.97
677.243	3749.15
677.433	3687.71
677.624	3599.65
677.814	3800.35
678.005	3745.05
678.195	3700
678.386	3712.28
678.576	3671.33
678.767	3616.03
678.957	3601.69
679.148	3743
679.338	3523.87
679.529	3599.65
679.719	3515.68
679.909	3534.11
680.1	3616.03
680.29	3765.53
680.481	3536.16
680.671	3546.4
680.861	3599.65
681.052	3507.49
681.242	3460.38
681.432	3484.96
681.622	3403.04
681.813	3425.57
682.003	3409.19
682.193	3519.78
682.383	3622.17
682.573	3468.58
682.764	3384.61
682.954	3392.8
683.144	3474.72
683.334	3433.76
683.524	3491.1
683.714	3458.34
683.904	3302.69
684.094	3409.19
684.284	3382.56
684.474	3544.35
684.664	3435.81
684.854	3452.19
685.044	3417.38
685.234	3444
685.424	3456.29
685.614	3345.7
685.804	3210.53
685.994	3245.35
686.184	3396.9
686.374	3284.26
686.564	3239.2
686.753	3327.27
686.943	3321.12
687.133	3228.96
687.323	3347.75
687.513	3183.91
687.702	3241.25
687.892	3343.65
688.082	3208.48
688.272	3220.77
688.461	3198.24
688.651	3106.09
688.841	3099.94
689.03	3147.05
689.22	2938.15
689.41	3011.88
689.599	3106.09
689.789	3112.23
689.979	3067.17
690.168	3159.33
690.358	3003.69
690.547	3036.45
690.737	3073.32
690.926	2989.35
691.116	2954.54
691.305	3104.04
691.495	2995.5
691.684	3097.89
691.874	2948.39
692.063	3091.75
692.252	2989.35
692.442	2878.76
692.631	2985.26
692.82	2893.1
693.01	2852.14
693.199	2876.71
693.388	2872.62
693.578	2934.06
693.767	2966.82
693.956	2878.76
694.146	3003.69
694.335	2929.96
694.524	2813.23
694.713	2786.6
694.902	2802.99
695.092	2862.38
695.281	2860.33
695.47	2913.58
695.659	2729.26
695.848	2729.26
696.037	2737.45
696.226	2819.37
696.415	2780.46
696.604	2833.71
696.793	2790.7
696.982	2800.94
697.171	2876.71
697.36	2686.25
697.549	2678.06
697.738	2712.88
697.927	2659.63
698.116	2788.65
698.305	2755.88
698.494	2684.2
698.683	2635.05
698.872	2706.73
699.061	2782.51
699.25	2663.72
699.438	2633.01
699.627	2680.11
699.816	2782.51
700.005	2755.88
700.193	2663.72
700.382	2759.98
700.571	2600.24
700.76	2585.9
700.948	2616.62
701.137	2661.68
701.326	2731.31
701.514	2485.55
701.703	2614.57
701.892	2639.15
702.08	2729.26
702.269	2600.24
702.457	2469.17
702.646	2544.94
702.834	2596.14
703.023	2590
703.212	2475.31
703.4	2667.82
703.589	2448.69
703.777	2503.98
703.965	2458.93
704.154	2549.04
704.342	2526.51
704.531	2581.81
704.719	2460.98
704.907	2614.57
705.096	2336.05
705.284	2385.2
705.472	2360.63
705.661	2422.06
705.849	2559.28
706.037	2403.63
706.226	2370.87
706.414	2434.35
706.602	2311.47
706.79	2323.76
706.979	2327.86
707.167	2340.15
707.355	2297.14
707.543	2403.63
707.731	2362.67
707.919	2235.7
708.107	2342.19
708.296	2233.65
708.484	2354.48
708.672	2420.02
708.86	2350.39
709.048	2372.91
709.236	2290.99
709.424	2372.91
709.612	2336.05
709.8	2247.99
709.988	2256.18
710.176	2266.42
710.364	2311.47
710.551	2417.97
710.739	2374.96
710.927	2250.03
711.115	2313.52
711.303	2354.48
711.491	2217.27
711.679	2229.56
711.866	2221.36
712.054	2327.86
712.242	2176.31
712.43	2274.61
712.617	2247.99
712.805	2264.37
712.993	2198.84
713.181	2231.6
713.368	2204.98
713.556	2102.58
713.744	2078.01
713.931	2303.28
714.119	2123.06
714.306	2266.42
714.494	2088.25
714.682	2057.53
714.869	2164.02
715.057	2067.77
715.244	2129.2
715.432	2135.35
715.619	2192.69
715.807	2106.68
715.994	2155.83
716.182	2084.15
716.369	2018.61
716.556	2082.1
716.744	2067.77
716.931	2024.76
717.119	2176.31
717.306	2182.45
717.493	2110.77
717.681	2026.81
717.868	2069.81
718.055	2010.42
718.242	2049.33
718.43	1998.13
718.617	1965.37
718.804	2051.38
718.991	2024.76
719.179	1920.31
719.366	1991.99
719.553	1971.51
719.74	2012.47
719.927	2016.57
720.114	1991.99
720.301	2000.18
720.488	1856.82
720.676	1996.09
720.863	2032.95
721.05	1983.8
721.237	1844.54
721.424	2016.57
721.611	1946.94
721.798	1955.13
721.985	1983.8
722.172	1838.39
722.358	1901.88
722.545	1914.17
722.732	1787.19
722.919	1926.46
723.106	1723.71
723.293	1811.77
723.48	1897.78
723.667	1885.5
723.853	1779
724.04	1871.16
724.227	1912.12
724.414	1756.47
724.6	1723.71
724.787	1852.73
724.974	1803.58
725.161	1901.88
725.347	1840.44
725.534	1770.81
725.72	1787.19
725.907	1875.26
726.094	1879.35
726.28	1787.19
726.467	1830.2
726.653	1852.73
726.84	1822.01
727.027	1781.05
727.213	1815.87
727.4	1836.35
727.586	1772.86
727.773	1807.67
727.959	1676.6
728.145	1756.47
728.332	1869.11
728.518	1674.56
728.705	1717.56
728.891	1830.2
729.077	1707.32
729.264	1705.28
729.45	1666.36
729.636	1729.85
729.823	1793.34
730.009	1781.05
730.195	1774.91
730.382	1631.55
730.568	1721.66
730.754	1729.85
730.94	1660.22
731.126	1627.45
731.313	1758.52
731.499	1619.26
731.685	1682.75
731.871	1615.16
732.057	1649.98
732.243	1697.08
732.429	1664.32
732.615	1692.99
732.801	1672.51
732.987	1541.44
733.173	1598.78
733.359	1551.68
733.545	1594.68
733.731	1494.33
733.917	1672.51
734.103	1779
734.289	1682.75
734.475	1543.49
734.661	1674.56
734.847	1467.71
735.033	1658.17
735.219	1639.74
735.404	1641.79
735.59	1553.73
735.776	1559.87
735.962	1574.21
736.148	1649.98
736.333	1561.92
736.519	1633.6
736.705	1568.06
736.89	1527.1
737.076	1426.75
737.262	1500.48
737.447	1561.92
737.633	1549.63
737.819	1518.91
738.004	1457.47
738.19	1533.25
738.375	1551.68
738.561	1457.47
738.747	1389.89
738.932	1439.04
739.118	1510.72
739.303	1465.66
739.489	1484.09
739.674	1418.56
739.859	1482.05
740.045	1480
740.23	1484.09
740.416	1449.28
740.601	1363.26
740.786	1498.43
740.972	1402.18
741.157	1477.95
741.342	1377.6
741.528	1420.61
741.713	1410.37
741.898	1428.8
742.084	1291.59
742.269	1402.18
742.454	1443.14
742.639	1363.26
742.824	1357.12
743.01	1242.43
743.195	1385.79
743.38	1271.11
743.565	1348.93
743.75	1355.07
743.935	1348.93
744.12	1400.13
744.305	1344.83
744.49	1291.59
744.675	1328.45
744.86	1303.87
745.045	1305.92
745.23	1281.35
745.415	1217.86
745.6	1291.59
745.785	1279.3
745.97	1336.64
746.155	1183.04
746.34	1199.43
746.525	1226.05
746.71	1221.95
746.895	1267.01
747.079	1205.57
747.264	1207.62
747.449	1125.7
747.634	1205.57
747.819	1140.04
748.003	1137.99
748.188	1156.42
748.373	1121.6
748.557	1142.08
748.742	1119.56
748.927	1105.22
749.111	1092.93
749.296	1156.42
749.481	1168.71
749.665	1092.93
749.85	1066.31
750.034	1115.46
750.219	1131.84
750.404	1051.97
750.588	1082.69
750.773	1066.31
750.957	1041.73
751.141	1074.5
751.326	1086.79
751.51	984.39
751.695	1021.25
751.879	1066.31
752.064	976.2
752.248	1049.93
752.432	1013.06
752.617	1074.5
752.801	996.68
752.985	1017.16
753.17	1033.54
753.354	914.76
753.538	918.86
753.722	976.2
753.907	1011.01
754.091	996.68
754.275	886.09
754.459	927.05
754.643	939.34
754.828	935.24
755.012	955.72
755.196	927.05
755.38	841.03
755.564	941.38
755.748	896.33
755.932	914.76
756.116	873.8
756.3	976.2
756.484	847.18
756.668	763.21
756.852	869.7
757.036	853.32
757.22	931.14
757.404	810.31
757.588	845.13
757.772	836.94
757.956	843.08
758.14	826.7
758.323	775.5
758.507	869.7
758.691	812.36
758.875	836.94
759.059	871.75
759.242	771.4
759.426	738.63
759.61	845.13
759.794	746.83
759.977	705.87
760.161	789.83
760.345	763.21
760.528	812.36
760.712	787.79
760.895	826.7
761.079	699.72
761.263	746.83
761.446	677.19
761.63	769.35
761.813	705.87
761.997	673.1
762.18	746.83
762.364	806.22
762.547	689.48
762.731	738.63
762.914	615.76
763.098	718.15
763.281	763.21
763.464	666.96
763.648	771.4
763.831	734.54
764.015	748.87
764.198	714.06
764.381	718.15
764.564	707.91
764.748	666.96
764.931	722.25
765.114	585.04
765.297	673.1
765.481	716.11
765.664	689.48
765.847	611.66
766.03	605.52
766.213	750.92
766.397	685.39
766.58	623.95
766.763	664.91
766.946	630.09
767.129	626
767.312	599.37
767.495	681.29
767.678	611.66
767.861	671.05
768.044	548.17
768.227	605.52
768.41	714.06
768.593	691.53
768.776	605.52
768.959	664.91
769.142	681.29
769.324	666.96
769.507	546.12
769.69	644.43
769.873	707.91
770.056	613.71
770.239	548.17
770.421	648.52
770.604	574.8
770.787	558.41
770.97	542.03
771.152	582.99
771.335	615.76
771.518	525.65
771.7	634.19
771.883	523.6
772.066	617.8
772.248	595.28
772.431	582.99
772.613	605.52
772.796	607.56
772.978	603.47
773.161	642.38
773.343	554.32
773.526	486.73
773.708	576.84
773.891	523.6
774.073	515.41
774.256	542.03
774.438	517.45
774.621	539.98
774.803	611.66
774.985	517.45
775.168	591.18
775.35	447.82
775.532	443.73
775.715	560.46
775.897	550.22
776.079	580.94
776.261	476.49
776.444	468.3
776.626	509.26
776.808	568.65
776.99	410.96
777.173	484.69
777.355	503.12
777.537	460.11
777.719	421.2
777.901	482.64
778.083	476.49
778.265	417.1
778.447	494.93
778.629	435.53
778.811	445.77
778.993	505.17
779.175	572.75
779.357	417.1
779.539	423.25
779.721	542.03
779.903	501.07
780.085	525.65
780.267	437.58
780.449	427.34
780.631	410.96
780.812	419.15
780.994	451.92
781.176	363.86
781.358	470.35
781.54	406.86
781.721	443.73
781.903	390.48
782.085	349.52
782.267	322.9
782.448	312.66
782.63	312.66
782.812	398.67
782.993	482.64
783.175	351.57
783.357	396.62
783.538	427.34
783.72	314.7
783.901	437.58
784.083	380.24
784.264	353.62
784.446	372.05
784.627	331.09
784.809	361.81
784.99	372.05
785.172	388.43
785.353	320.85
785.535	451.92
785.716	394.58
785.897	331.09
786.079	263.51
786.26	314.7
786.441	357.71
786.623	228.69
786.804	316.75
786.985	314.7
787.167	398.67
787.348	318.8
787.529	351.57
787.71	380.24
787.891	345.42
788.073	259.41
788.254	210.26
788.435	333.14
788.616	210.26
788.797	206.16
788.978	306.51
789.159	283.98
789.34	296.27
789.522	271.7
789.703	279.89
789.884	312.66
790.065	306.51
790.246	333.14
790.427	206.16
790.607	324.94
790.788	263.51
790.969	265.55
791.15	216.4
791.331	271.7
791.512	267.6
791.693	251.22
791.874	273.75
792.054	310.61
792.235	294.22
792.416	232.79
792.597	214.35
792.778	234.83
792.958	331.09
793.139	206.16
793.32	214.35
793.5	249.17
793.681	281.94
793.862	189.78
794.042	230.74
794.223	247.12
794.404	206.16
794.584	159.06
794.765	222.55
794.945	232.79
795.126	281.94
795.306	144.72
795.487	271.7
795.667	202.07
795.848	243.03
796.028	200.02
796.209	187.73
796.389	255.31
796.57	206.16
796.75	214.35
796.93	210.26
797.111	167.25
797.291	271.7
797.471	173.39
797.652	261.46
797.832	238.93
798.012	175.44
798.192	247.12
798.373	130.39
798.553	157.01
798.733	191.83
798.913	165.2
799.093	109.91
799.274	128.34
799.454	181.59
799.634	189.78
799.814	159.06
799.994	224.59
800.174	210.26
800.354	181.59
800.534	167.25
800.714	191.83
800.894	95.57
801.074	124.24
801.254	93.52
801.434	181.59
801.614	189.78
801.794	157.01
801.974	740.68
802.154	173.39
802.334	243.03
802.514	128.34
802.693	154.96
802.873	126.29
803.053	218.45
803.233	185.68
803.413	171.35
803.592	210.26
803.772	71
803.952	181.59
804.131	71
804.311	118.1
804.491	263.51
804.67	87.38
804.85	118.1
805.03	128.34
805.209	191.83
805.389	140.63
805.568	157.01
805.748	148.82
805.928	107.86
806.107	111.96
806.287	101.72
806.466	138.58
806.646	175.44
806.825	189.78
807.004	62.8
807.184	136.53
807.363	177.49
807.543	73.04
807.722	114
807.901	169.3
808.081	124.24
808.26	101.72
808.439	116.05
808.619	122.2
808.798	107.86
808.977	114
809.156	165.2
809.336	216.4
809.515	148.82
809.694	83.28
809.873	62.8
810.052	148.82
810.231	114
810.411	52.56
810.59	169.3
810.769	144.72
810.948	134.48
811.127	77.14
811.306	103.76
811.485	83.28
811.664	157.01
811.843	54.61
812.022	148.82
812.201	148.82
812.38	140.63
812.559	107.86
812.737	126.29
812.916	75.09
813.095	116.05
813.274	118.1
813.453	83.28
813.632	126.29
813.811	152.91
813.989	68.95
814.168	163.15
814.347	5.46
814.526	109.91
814.704	120.15
814.883	109.91
815.062	103.76
815.24	120.15
815.419	107.86
815.598	107.86
815.776	91.48
815.955	46.42
816.133	101.72
816.312	91.48
816.49	58.71
816.669	73.04
816.847	122.2
817.026	62.8
817.204	60.76
817.383	132.44
817.561	42.32
817.74	114
817.918	152.91
818.097	126.29
818.275	116.05
818.453	54.61
818.632	202.07
818.81	77.14
818.988	11.61
819.167	85.33
819.345	83.28
819.523	99.67
819.701	54.61
819.879	48.47
820.058	120.15
820.236	93.52
820.414	148.82
820.592	95.57
820.77	89.43
820.948	66.9
821.127	114
821.305	85.33
821.483	-8.87
821.661	124.24
821.839	118.1
822.017	58.71
822.195	30.04
822.373	101.72
822.551	60.76
822.729	81.24
822.907	79.19
823.085	50.52
823.262	23.89
823.44	85.33
823.618	99.67
823.796	34.13
823.974	64.85
824.152	101.72
824.329	66.9
824.507	148.82
824.685	75.09
824.863	52.56
825.04	46.42
825.218	81.24
825.396	120.15
825.574	52.56
825.751	83.28
825.929	66.9
826.107	79.19
826.284	58.71
826.462	107.86
826.639	83.28
826.817	5.46
826.994	25.94
827.172	54.61
827.349	83.28
827.527	62.8
827.704	42.32
827.882	40.28
828.059	93.52
828.237	91.48
828.414	87.38
828.591	27.99
828.769	-19.11
828.946	85.33
829.124	50.52
829.301	58.71
829.478	25.94
829.655	118.1
829.833	54.61
830.01	87.38
830.187	60.76
830.364	-0.68
830.542	34.13
830.719	87.38
830.896	116.05
831.073	21.85
831.25	50.52
831.427	54.61
831.604	75.09
831.782	81.24
831.959	85.33
832.136	62.8
832.313	103.76
832.49	19.8
832.667	91.48
832.844	58.71
833.021	99.67
833.198	40.28
833.374	25.94
833.551	1.37
833.728	99.67
833.905	107.86
834.082	-19.11
834.259	60.76
834.436	21.85
834.612	79.19
834.789	36.18
834.966	116.05
835.143	21.85
835.319	62.8
835.496	114
835.673	64.85
835.85	142.68
836.026	38.23
836.203	83.28
836.38	17.75
836.556	7.51
836.733	38.23
836.909	118.1
837.086	-39.59
837.262	-12.97
837.439	75.09
837.616	9.56
837.792	75.09
837.968	50.52
838.145	13.65
838.321	21.85
838.498	56.66
838.674	79.19
838.851	17.75
839.027	62.8
839.203	-19.11
839.38	60.76
839.556	48.47
839.732	126.29
839.909	-10.92
840.085	66.9
840.261	42.32
840.437	42.32
840.614	71
840.79	109.91
840.966	46.42
841.142	93.52
841.318	58.71
841.494	42.32
841.671	126.29
841.847	75.09
842.023	-25.26
842.199	36.18
842.375	21.85
842.551	17.75
842.727	-2.73
842.903	68.95
843.079	-4.78
843.255	85.33
843.431	25.94
843.607	38.23
843.783	-51.88
843.959	27.99
844.134	1.37
844.31	83.28
844.486	-31.4
844.662	-31.4
844.838	44.37
845.013	109.91
845.189	77.14
845.365	34.13
845.541	-39.59
845.716	25.94
845.892	11.61
846.068	77.14
846.244	-25.26
846.419	148.82
846.595	50.52
846.77	-47.79
846.946	30.04
847.122	83.28
847.297	32.08
847.473	105.81
847.648	13.65
847.824	62.8
847.999	-62.12
848.175	54.61
848.35	58.71
848.526	36.18
848.701	17.75
848.876	-10.92
849.052	27.99
849.227	27.99
849.403	-31.4
849.578	50.52
849.753	-6.83
849.929	-17.07
850.104	7.51
850.279	40.28
850.454	79.19
850.63	30.04
850.805	1.37
850.98	-6.83
851.155	81.24
851.33	9.56
851.505	-2.73
851.681	71
851.856	-66.22
852.031	66.9
852.206	83.28
852.381	-19.11
852.556	-4.78
852.731	42.32
852.906	-4.78
853.081	-10.92
853.256	25.94
853.431	9.56
853.606	-15.02
853.781	52.56
853.956	13.65
854.131	58.71
854.305	13.65
854.48	3.41
854.655	3.41
854.83	25.94
855.005	30.04
855.18	-23.21
855.354	25.94
855.529	60.76
855.704	9.56
855.879	71
856.053	21.85
856.228	-12.97
856.403	9.56
856.577	-6.83
856.752	17.75
856.926	9.56
857.101	-25.26
857.276	-2.73
857.45	50.52
857.625	50.52
857.799	9.56
857.974	68.95
858.148	25.94
858.323	75.09
858.497	9.56
858.672	71
858.846	-53.93
859.02	-15.02
859.195	-10.92
859.369	36.18
859.543	44.37
859.718	27.99
859.892	50.52
860.066	99.67
860.241	3.41
860.415	-58.03
860.589	7.51
860.763	9.56
860.938	-19.11
861.112	23.89
861.286	-23.21
861.46	81.24
861.634	-74.41
861.808	42.32
861.982	-47.79
862.157	42.32
862.331	5.46
862.505	-37.55
862.679	71
862.853	-15.02
863.027	25.94
863.201	34.13
863.375	11.61
863.549	1.37
863.722	60.76
863.896	9.56
864.07	54.61
864.244	13.65
864.418	68.95
864.592	42.32
864.766	42.32
864.939	25.94
865.113	13.65
865.287	124.24
865.461	9.56
865.634	-21.16
865.808	17.75
865.982	32.08
866.156	13.65
866.329	-53.93
866.503	99.67
866.676	34.13
866.85	-49.83
867.024	-2.73
867.197	-8.87
867.371	38.23
867.544	3.41
867.718	-55.98
867.891	-6.83
868.065	66.9
868.238	13.65
868.412	17.75
868.585	142.68
868.759	58.71
868.932	48.47
869.105	-15.02
869.279	-19.11
869.452	-6.83
869.625	30.04
869.799	-49.83
869.972	44.37
870.145	-29.35
870.319	17.75
870.492	15.7
870.665	11.61
870.838	52.56
871.011	-6.83
871.185	-45.74
871.358	54.61
871.531	3.41
871.704	-39.59
871.877	1.37
872.05	21.85
872.223	-31.4
872.396	3.41
872.569	-55.98
872.742	13.65
872.915	-27.31
873.088	-6.83
873.261	27.99
873.434	19.8
873.607	60.76
873.78	44.37
873.953	3.41
874.126	-25.26
874.299	19.8
874.471	-39.59
874.644	38.23
874.817	3.41
874.99	75.09
875.163	-39.59
875.335	9.56
875.508	42.32
875.681	34.13
875.853	-35.5
876.026	-2.73
876.199	46.42
876.371	15.7
876.544	7.51
876.717	19.8
876.889	32.08
877.062	34.13
877.234	3.41
877.407	25.94
877.579	-43.69
877.752	-6.83
877.924	75.09
878.097	54.61
878.269	-8.87
878.442	5.46
878.614	1.37
878.786	3.41
878.959	1.37
879.131	48.47
879.303	-31.4
879.476	-27.31
879.648	9.56
879.82	42.32
879.993	3.41
880.165	-37.55
880.337	-74.41
880.509	75.09
880.681	-72.36
880.854	-23.21
881.026	83.28
881.198	83.28
881.37	25.94
881.542	58.71
881.714	58.71
881.886	-47.79
882.058	-31.4
882.23	23.89
882.402	-4.78
882.574	-19.11
882.746	-6.83
882.918	25.94
883.09	3.41
883.262	-10.92
883.434	30.04
883.606	-72.36
883.778	-6.83
883.95	-4.78
884.122	-10.92
884.293	-31.4
884.465	-4.78
884.637	5.46
884.809	-53.93
884.98	11.61
885.152	-29.35
885.324	66.9
885.496	-64.17
885.667	-70.31
885.839	-10.92
886.011	77.14
886.182	-39.59
886.354	30.04
886.525	27.99
886.697	1.37
886.869	-4.78
887.04	17.75
887.212	44.37
887.383	42.32
887.555	-37.55
887.726	-68.27
887.897	17.75
888.069	-6.83
888.24	11.61
888.412	36.18
888.583	-78.51
888.754	75.09
888.926	-19.11
889.097	36.18
889.268	-23.21
889.44	-4.78
889.611	-0.68
889.782	-12.97
889.953	-76.46
890.125	-2.73
890.296	73.04
890.467	-51.88
890.638	-45.74
890.809	9.56
890.98	13.65
891.151	42.32
891.323	15.7
891.494	5.46
891.665	58.71
891.836	32.08
892.007	-23.21
892.178	11.61
892.349	19.8
892.52	-15.02
892.691	-39.59
892.862	17.75
893.032	-21.16
893.203	-47.79
893.374	-8.87
893.545	64.85
893.716	25.94
893.887	-43.69
894.057	-4.78
894.228	3.41
894.399	-6.83
894.57	13.65
894.74	-62.12
894.911	13.65
895.082	-80.55
895.253	-27.31
895.423	-21.16
895.594	27.99
895.764	-6.83
895.935	-27.31
896.106	71
896.276	52.56
896.447	62.8
896.617	-4.78
896.788	-25.26
896.958	1.37
897.129	-15.02
897.299	11.61
897.47	66.9
897.64	36.18
897.81	-27.31
897.981	40.28
898.151	-66.22
898.322	34.13
898.492	30.04
898.662	-6.83
898.832	-70.31
899.003	-21.16
899.173	-78.51
899.343	-19.11
899.513	52.56
