Data from USB4F104151__307__14-46-42-170.txt Node

Date: Thu Mar 13 14:46:42 EDT 2025
User: louis
Spectrometer: USB4F10415
Trigger mode: 4
Integration Time (sec): 2.000000E-2
Scans to average: 1
Electric dark correction enabled: true
Nonlinearity correction enabled: false
Boxcar width: 0
XAxis mode: Wavelengths
Number of Pixels in Spectrum: 3648
>>>>>Begin Spectral Data<<<<<
178.204	-141.31
178.424	-141.31
178.644	-141.31
178.864	-61.44
179.084	-90.11
179.304	8.19
179.524	65.54
179.744	-57.34
179.964	-6.14
180.184	-12.29
180.404	-20.48
180.624	24.58
180.844	-30.72
181.064	-38.91
181.283	-30.72
181.503	38.91
181.723	59.39
181.943	24.58
182.163	2.05
182.383	40.96
182.602	16.38
182.822	65.54
183.042	10.24
183.262	28.67
183.482	10.24
183.701	10.24
183.921	81.92
184.141	-10.24
184.361	98.3
184.58	32.77
184.8	34.82
185.02	12.29
185.239	28.67
185.459	28.67
185.679	106.49
185.898	0
186.118	45.06
186.338	20.48
186.557	30.72
186.777	22.53
186.997	36.86
187.216	6.14
187.436	20.48
187.655	0
187.875	79.87
188.095	18.43
188.314	124.93
188.534	81.92
188.753	59.39
188.973	10.24
189.192	114.69
189.412	51.2
189.631	38.91
189.851	102.4
190.07	57.34
190.29	40.96
190.509	16.38
190.729	100.35
190.948	24.58
191.168	204.8
191.387	114.69
191.607	-30.72
191.826	81.92
192.045	45.06
192.265	16.38
192.484	-6.14
192.704	28.67
192.923	-55.3
193.142	53.25
193.362	-14.34
193.581	10.24
193.8	86.01
194.02	73.73
194.239	-6.14
194.458	20.48
194.678	20.48
194.897	-16.38
195.116	-20.48
195.335	106.49
195.555	65.54
195.774	-8.19
195.993	30.72
196.212	26.62
196.432	20.48
196.651	-77.82
196.87	-8.19
197.089	57.34
197.308	32.77
197.528	-49.15
197.747	-8.19
197.966	26.62
198.185	122.88
198.404	0
198.623	90.11
198.842	10.24
199.062	-10.24
199.281	71.68
199.5	-8.19
199.719	28.67
199.938	0
200.157	81.92
200.376	2.05
200.595	-20.48
200.814	-8.19
201.033	36.86
201.252	32.77
201.471	32.77
201.69	63.49
201.909	-4.1
202.128	51.2
202.347	40.96
202.566	40.96
202.785	32.77
203.004	-10.24
203.223	137.21
203.442	0
203.661	-20.48
203.879	16.38
204.098	65.54
204.317	12.29
204.536	47.1
204.755	16.38
204.974	0
205.193	12.29
205.411	63.49
205.63	40.96
205.849	16.38
206.068	-24.58
206.287	75.77
206.505	4.1
206.724	71.68
206.943	-18.43
207.162	-28.67
207.381	2.05
207.599	10.24
207.818	-51.2
208.037	90.11
208.255	32.77
208.474	-14.34
208.693	57.34
208.911	65.54
209.13	-8.19
209.349	34.82
209.567	86.01
209.786	26.62
210.005	-4.1
210.223	-8.19
210.442	-65.53
210.661	28.67
210.879	65.54
211.098	-49.15
211.316	67.58
211.535	-14.34
211.753	-32.77
211.972	57.34
212.191	106.49
212.409	55.3
212.628	114.69
212.846	57.34
213.065	81.92
213.283	106.49
213.502	16.38
213.72	26.62
213.938	63.49
214.157	-49.15
214.375	12.29
214.594	-4.1
214.812	-8.19
215.031	65.54
215.249	81.92
215.467	34.82
215.686	12.29
215.904	126.97
216.122	8.19
216.341	57.34
216.559	38.91
216.778	57.34
216.996	110.59
217.214	49.15
217.432	10.24
217.651	51.2
217.869	24.58
218.087	49.15
218.306	-34.82
218.524	28.67
218.742	2.05
218.96	16.38
219.179	20.48
219.397	12.29
219.615	49.15
219.833	53.25
220.051	2.05
220.27	112.64
220.488	20.48
220.706	32.77
220.924	-40.96
221.142	63.49
221.36	57.34
221.578	-6.14
221.796	73.73
222.015	-40.96
222.233	32.77
222.451	65.54
222.669	-24.58
222.887	106.49
223.105	-20.48
223.323	45.06
223.541	57.34
223.759	-32.77
223.977	45.06
224.195	53.25
224.413	100.35
224.631	-22.53
224.849	12.29
225.067	26.62
225.285	16.38
225.503	98.3
225.721	34.82
225.939	16.38
226.157	67.58
226.375	0
226.592	0
226.81	24.58
227.028	51.2
227.246	32.77
227.464	73.73
227.682	16.38
227.9	24.58
228.117	79.87
228.335	8.19
228.553	0
228.771	30.72
228.989	75.77
229.206	12.29
229.424	-38.91
229.642	-49.15
229.86	57.34
230.077	28.67
230.295	2.05
230.513	57.34
230.731	16.38
230.948	2.05
231.166	143.36
231.384	-22.53
231.601	53.25
231.819	122.88
232.037	16.38
232.254	-24.58
232.472	-14.34
232.689	-30.72
232.907	2.05
233.125	12.29
233.342	57.34
233.56	-53.25
233.777	-12.29
233.995	45.06
234.213	88.06
234.43	98.3
234.648	-26.62
234.865	-30.72
235.083	45.06
235.3	49.15
235.518	12.29
235.735	153.6
235.953	92.16
236.17	61.44
236.388	34.82
236.605	16.38
236.822	83.97
237.04	2.05
237.257	-36.86
237.475	16.38
237.692	20.48
237.909	88.06
238.127	-34.82
238.344	24.58
238.562	49.15
238.779	22.53
238.996	-6.14
239.214	-28.67
239.431	18.43
239.648	-30.72
239.865	106.49
240.083	65.54
240.3	34.82
240.517	45.06
240.735	53.25
240.952	92.16
241.169	-8.19
241.386	43.01
241.603	14.34
241.821	34.82
242.038	40.96
242.255	36.86
242.472	-8.19
242.689	59.39
242.907	49.15
243.124	53.25
243.341	86.01
243.558	8.19
243.775	0
243.992	-14.34
244.209	20.48
244.426	92.16
244.643	28.67
244.86	45.06
245.078	75.77
245.295	-6.14
245.512	-45.06
245.729	12.29
245.946	69.63
246.163	22.53
246.38	4.1
246.597	73.73
246.814	104.45
247.031	24.58
247.248	38.91
247.464	24.58
247.681	40.96
247.898	77.82
248.115	73.73
248.332	-45.06
248.549	81.92
248.766	8.19
248.983	90.11
249.2	0
249.417	-8.19
249.633	90.11
249.85	100.35
250.067	24.58
250.284	81.92
250.501	51.2
250.717	38.91
250.934	38.91
251.151	12.29
251.368	8.19
251.585	98.3
251.801	98.3
252.018	-2.05
252.235	45.06
252.451	-28.67
252.668	26.62
252.885	63.49
253.102	69.63
253.318	94.21
253.535	-36.86
253.752	16.38
253.968	-16.38
254.185	-24.58
254.401	24.58
254.618	18.43
254.835	-12.29
255.051	106.49
255.268	51.2
255.484	-24.58
255.701	71.68
255.917	92.16
256.134	-57.34
256.351	26.62
256.567	-12.29
256.784	40.96
257	-57.34
257.217	57.34
257.433	49.15
257.65	12.29
257.866	100.35
258.082	-18.43
258.299	-6.14
258.515	67.58
258.732	-16.38
258.948	-73.73
259.165	92.16
259.381	22.53
259.597	32.77
259.814	32.77
260.03	10.24
260.246	67.58
260.463	24.58
260.679	10.24
260.895	6.14
261.112	65.54
261.328	53.25
261.544	34.82
261.761	53.25
261.977	18.43
262.193	-38.91
262.409	8.19
262.626	16.38
262.842	0
263.058	-24.58
263.274	57.34
263.49	59.39
263.707	110.59
263.923	6.14
264.139	-16.38
264.355	6.14
264.571	20.48
264.787	-16.38
265.004	75.77
265.22	32.77
265.436	77.82
265.652	-24.58
265.868	61.44
266.084	49.15
266.3	90.11
266.516	24.58
266.732	73.73
266.948	65.54
267.164	20.48
267.38	34.82
267.596	2.05
267.812	106.49
268.028	16.38
268.244	34.82
268.46	51.2
268.676	49.15
268.892	65.54
269.108	22.53
269.324	-24.58
269.54	-71.68
269.756	2.05
269.972	49.15
270.188	-24.58
270.403	-24.58
270.619	61.44
270.835	43.01
271.051	20.48
271.267	28.67
271.483	-49.15
271.698	81.92
271.914	-26.62
272.13	53.25
272.346	-6.14
272.562	83.97
272.777	28.67
272.993	8.19
273.209	22.53
273.425	12.29
273.64	65.54
273.856	90.11
274.072	59.39
274.287	-6.14
274.503	108.54
274.719	81.92
274.934	34.82
275.15	2.05
275.366	43.01
275.581	-55.3
275.797	55.3
276.012	2.05
276.228	10.24
276.444	24.58
276.659	40.96
276.875	32.77
277.09	4.1
277.306	16.38
277.521	38.91
277.737	-73.73
277.952	8.19
278.168	-47.1
278.383	40.96
278.599	36.86
278.814	40.96
279.03	57.34
279.245	71.68
279.461	24.58
279.676	49.15
279.892	-16.38
280.107	-10.24
280.322	57.34
280.538	57.34
280.753	53.25
280.969	45.06
281.184	2.05
281.399	120.83
281.615	14.34
281.83	73.73
282.045	16.38
282.26	-26.62
282.476	32.77
282.691	8.19
282.906	-24.58
283.122	43.01
283.337	4.1
283.552	65.54
283.767	4.1
283.983	94.21
284.198	98.3
284.413	-14.34
284.628	-34.82
284.843	73.73
285.058	83.97
285.274	55.3
285.489	57.34
285.704	8.19
285.919	12.29
286.134	32.77
286.349	63.49
286.564	65.54
286.779	86.01
286.995	47.1
287.21	-4.1
287.425	-30.72
287.64	2.05
287.855	26.62
288.07	12.29
288.285	59.39
288.5	6.14
288.715	57.34
288.93	-28.67
289.145	73.73
289.36	75.77
289.575	24.58
289.79	36.86
290.004	24.58
290.219	-34.82
290.434	43.01
290.649	-8.19
290.864	-16.38
291.079	8.19
291.294	8.19
291.509	16.38
291.724	51.2
291.938	34.82
292.153	73.73
292.368	-22.53
292.583	40.96
292.798	49.15
293.012	63.49
293.227	98.3
293.442	26.62
293.657	57.34
293.871	12.29
294.086	2.05
294.301	73.73
294.516	18.43
294.73	18.43
294.945	6.14
295.16	45.06
295.374	34.82
295.589	73.73
295.804	-14.34
296.018	-55.3
296.233	108.54
296.447	26.62
296.662	28.67
296.877	100.35
297.091	12.29
297.306	73.73
297.52	-30.72
297.735	16.38
297.949	65.54
298.164	53.25
298.378	-10.24
298.593	30.72
298.807	-4.1
299.022	65.54
299.236	57.34
299.451	2.05
299.665	18.43
299.88	49.15
300.094	36.86
300.309	-38.91
300.523	2.05
300.737	-20.48
300.952	73.73
301.166	61.44
301.381	65.54
301.595	-8.19
301.809	14.34
302.024	26.62
302.238	30.72
302.452	53.25
302.667	86.01
302.881	12.29
303.095	73.73
303.309	65.54
303.524	30.72
303.738	47.1
303.952	34.82
304.166	20.48
304.381	40.96
304.595	51.2
304.809	24.58
305.023	-2.05
305.237	59.39
305.452	65.54
305.666	77.82
305.88	94.21
306.094	36.86
306.308	-24.58
306.522	30.72
306.736	40.96
306.95	122.88
307.164	77.82
307.379	34.82
307.593	100.35
307.807	110.59
308.021	16.38
308.235	65.54
308.449	40.96
308.663	45.06
308.877	106.49
309.091	83.97
309.305	92.16
309.519	53.25
309.733	40.96
309.947	-12.29
310.161	6.14
310.374	43.01
310.588	96.25
310.802	8.19
311.016	28.67
311.23	24.58
311.444	8.19
311.658	18.43
311.872	57.34
312.085	98.3
312.299	106.49
312.513	104.45
312.727	53.25
312.941	-8.19
313.154	57.34
313.368	43.01
313.582	59.39
313.796	73.73
314.009	43.01
314.223	67.58
314.437	-32.77
314.651	26.62
314.864	32.77
315.078	40.96
315.292	16.38
315.505	26.62
315.719	49.15
315.933	67.58
316.146	-10.24
316.36	14.34
316.573	40.96
316.787	69.63
317.001	65.54
317.214	32.77
317.428	49.15
317.641	-4.1
317.855	16.38
318.068	16.38
318.282	-12.29
318.495	126.97
318.709	-14.34
318.922	-24.58
319.136	100.35
319.349	28.67
319.563	49.15
319.776	57.34
319.99	-22.53
320.203	28.67
320.417	8.19
320.63	32.77
320.843	92.16
321.057	102.4
321.27	24.58
321.483	61.44
321.697	49.15
321.91	24.58
322.124	22.53
322.337	12.29
322.55	36.86
322.763	38.91
322.977	43.01
323.19	4.1
323.403	69.63
323.617	-4.1
323.83	14.34
324.043	90.11
324.256	43.01
324.469	0
324.683	110.59
324.896	36.86
325.109	16.38
325.322	18.43
325.535	24.58
325.748	59.39
325.962	-8.19
326.175	57.34
326.388	49.15
326.601	6.14
326.814	4.1
327.027	26.62
327.24	124.93
327.453	12.29
327.666	-18.43
327.879	63.49
328.092	10.24
328.305	28.67
328.518	30.72
328.731	18.43
328.944	26.62
329.157	26.62
329.37	73.73
329.583	-16.38
329.796	81.92
330.009	-20.48
330.222	32.77
330.435	-24.58
330.648	131.07
330.861	51.2
331.073	26.62
331.286	40.96
331.499	18.43
331.712	45.06
331.925	-20.48
332.138	-10.24
332.35	131.07
332.563	0
332.776	114.69
332.989	-32.77
333.202	10.24
333.414	36.86
333.627	59.39
333.84	-12.29
334.053	8.19
334.265	47.1
334.478	12.29
334.691	57.34
334.903	-6.14
335.116	12.29
335.329	40.96
335.541	59.39
335.754	139.26
335.966	47.1
336.179	47.1
336.392	0
336.604	2.05
336.817	26.62
337.029	24.58
337.242	40.96
337.454	172.03
337.667	43.01
337.88	12.29
338.092	55.3
338.305	30.72
338.517	73.73
338.729	4.1
338.942	71.68
339.154	-2.05
339.367	-38.91
339.579	59.39
339.792	45.06
340.004	-24.58
340.217	75.77
340.429	16.38
340.641	49.15
340.854	16.38
341.066	32.77
341.278	90.11
341.491	40.96
341.703	49.15
341.915	69.63
342.128	65.54
342.34	94.21
342.552	-16.38
342.764	10.24
342.977	12.29
343.189	77.82
343.401	143.36
343.613	67.58
343.826	67.58
344.038	-75.77
344.25	73.73
344.462	-55.3
344.674	73.73
344.886	12.29
345.099	49.15
345.311	-18.43
345.523	40.96
345.735	30.72
345.947	114.69
346.159	61.44
346.371	43.01
346.583	69.63
346.795	131.07
347.007	26.62
347.219	59.39
347.431	-4.1
347.643	53.25
347.855	-4.1
348.067	10.24
348.279	16.38
348.491	92.16
348.703	63.49
348.915	26.62
349.127	-10.24
349.339	49.15
349.551	28.67
349.763	47.1
349.975	100.35
350.187	51.2
350.399	114.69
350.61	47.1
350.822	-4.1
351.034	98.3
351.246	-20.48
351.458	6.14
351.669	34.82
351.881	-6.14
352.093	47.1
352.305	90.11
352.517	32.77
352.728	182.27
352.94	47.1
353.152	73.73
353.363	36.86
353.575	81.92
353.787	77.82
353.999	-32.77
354.21	108.54
354.422	-32.77
354.633	12.29
354.845	143.36
355.057	32.77
355.268	90.11
355.48	40.96
355.692	73.73
355.903	24.58
356.115	65.54
356.326	-30.72
356.538	51.2
356.749	59.39
356.961	53.25
357.172	73.73
357.384	59.39
357.595	12.29
357.807	53.25
358.018	83.97
358.23	-22.53
358.441	114.69
358.653	40.96
358.864	-4.1
359.075	-22.53
359.287	77.82
359.498	8.19
359.709	51.2
359.921	28.67
360.132	30.72
360.344	131.07
360.555	-8.19
360.766	57.34
360.977	49.15
361.189	67.58
361.4	81.92
361.611	49.15
361.823	126.97
362.034	75.77
362.245	57.34
362.456	40.96
362.667	32.77
362.879	77.82
363.09	65.54
363.301	106.49
363.512	34.82
363.723	53.25
363.935	51.2
364.146	45.06
364.357	83.97
364.568	59.39
364.779	-40.96
364.99	28.67
365.201	-36.86
365.412	90.11
365.623	-40.96
365.834	96.25
366.045	55.3
366.256	38.91
366.467	45.06
366.678	77.82
366.889	126.97
367.1	65.54
367.311	51.2
367.522	8.19
367.733	-20.48
367.944	28.67
368.155	-16.38
368.366	49.15
368.577	49.15
368.788	106.49
368.999	83.97
369.209	59.39
369.42	98.3
369.631	102.4
369.842	12.29
370.053	67.58
370.264	65.54
370.474	57.34
370.685	57.34
370.896	40.96
371.107	18.43
371.317	86.01
371.528	0
371.739	118.78
371.95	16.38
372.16	92.16
372.371	-32.77
372.582	32.77
372.792	65.54
373.003	16.38
373.214	40.96
373.424	12.29
373.635	22.53
373.846	100.35
374.056	53.25
374.267	81.92
374.477	155.65
374.688	43.01
374.898	73.73
375.109	0
375.319	67.58
375.53	61.44
375.74	43.01
375.951	-10.24
376.161	57.34
376.372	147.45
376.582	10.24
376.793	71.68
377.003	8.19
377.214	65.54
377.424	51.2
377.635	8.19
377.845	28.67
378.055	81.92
378.266	57.34
378.476	10.24
378.686	24.58
378.897	131.07
379.107	32.77
379.317	71.68
379.528	106.49
379.738	71.68
379.948	32.77
380.158	40.96
380.369	63.49
380.579	81.92
380.789	-22.53
380.999	77.82
381.21	8.19
381.42	98.3
381.63	90.11
381.84	6.14
382.05	-14.34
382.261	34.82
382.471	92.16
382.681	75.77
382.891	75.77
383.101	40.96
383.311	53.25
383.521	16.38
383.731	92.16
383.941	108.54
384.151	51.2
384.361	49.15
384.571	110.59
384.781	8.19
384.991	63.49
385.201	143.36
385.411	24.58
385.621	75.77
385.831	18.43
386.041	14.34
386.251	86.01
386.461	94.21
386.671	147.45
386.881	49.15
387.091	55.3
387.301	45.06
387.511	4.1
387.72	83.97
387.93	38.91
388.14	-47.1
388.35	49.15
388.56	49.15
388.769	-30.72
388.979	24.58
389.189	10.24
389.399	88.06
389.609	49.15
389.818	116.73
390.028	131.07
390.238	28.67
390.447	32.77
390.657	57.34
390.867	-12.29
391.076	-14.34
391.286	77.82
391.496	106.49
391.705	116.73
391.915	65.54
392.125	26.62
392.334	28.67
392.544	88.06
392.753	30.72
392.963	77.82
393.172	12.29
393.382	16.38
393.591	108.54
393.801	49.15
394.01	135.17
394.22	86.01
394.429	12.29
394.639	20.48
394.848	110.59
395.058	40.96
395.267	-22.53
395.477	88.06
395.686	83.97
395.895	131.07
396.105	94.21
396.314	65.54
396.524	106.49
396.733	135.17
396.942	114.69
397.152	118.78
397.361	174.08
397.57	96.25
397.78	73.73
397.989	94.21
398.198	110.59
398.407	34.82
398.617	141.31
398.826	131.07
399.035	141.31
399.244	98.3
399.453	90.11
399.663	49.15
399.872	2.05
400.081	100.35
400.29	118.78
400.499	133.12
400.708	86.01
400.917	94.21
401.127	65.54
401.336	67.58
401.545	98.3
401.754	114.69
401.963	139.26
402.172	131.07
402.381	49.15
402.59	118.78
402.799	145.41
403.008	165.89
403.217	90.11
403.426	139.26
403.635	131.07
403.844	116.73
404.053	143.36
404.262	165.89
404.471	131.07
404.68	100.35
404.888	83.97
405.097	184.32
405.306	165.89
405.515	143.36
405.724	155.65
405.933	155.65
406.142	155.65
406.35	221.18
406.559	159.74
406.768	104.45
406.977	167.93
407.185	155.65
407.394	167.93
407.603	122.88
407.812	258.04
408.02	311.29
408.229	200.7
408.438	172.03
408.646	233.47
408.855	159.74
409.064	172.03
409.272	221.18
409.481	278.52
409.69	196.61
409.898	217.08
410.107	278.52
410.315	333.82
410.524	233.47
410.733	270.33
410.941	288.76
411.15	331.77
411.358	286.72
411.567	434.17
411.775	339.96
411.984	329.72
412.192	436.22
412.401	344.06
412.609	409.59
412.818	387.07
413.026	546.81
413.234	511.99
413.443	516.09
413.651	440.31
413.86	475.13
414.068	507.9
414.276	589.82
414.485	493.56
414.693	610.29
414.901	585.72
415.11	731.12
415.318	684.02
415.526	641.01
415.734	727.03
415.943	598.01
416.151	739.32
416.359	704.5
416.567	694.26
416.776	786.42
416.984	851.96
417.192	909.3
417.4	933.87
417.608	860.15
417.817	944.11
418.025	976.88
418.233	1093.62
418.441	1046.51
418.649	1056.75
418.857	1124.33
419.065	1112.05
419.273	1148.91
419.481	1269.74
419.689	1171.44
419.897	1294.32
420.105	1419.24
420.313	1355.76
420.521	1390.57
420.729	1384.43
420.937	1525.74
421.145	1515.5
421.353	1644.52
421.561	1691.62
421.769	1755.11
421.977	1808.36
422.185	1746.92
422.393	1908.71
422.601	1966.05
422.809	1996.77
423.017	2099.17
423.224	2140.13
423.432	2097.12
423.64	2142.18
423.848	2420.7
424.056	2277.34
424.263	2398.17
424.471	2473.95
424.679	2539.48
424.887	2570.2
425.094	2680.79
425.302	2711.51
425.51	2852.82
425.718	2883.54
425.925	2844.63
426.133	3033.04
426.341	3221.45
426.548	3385.29
426.756	3448.78
426.964	3420.11
427.171	3571.66
427.379	3708.87
427.586	3692.49
427.794	4079.55
428.001	4091.84
428.209	4317.12
428.417	4167.62
428.624	4532.15
428.832	4509.63
429.039	4456.38
429.247	4542.39
429.454	4925.36
429.662	5146.55
429.869	4900.79
430.076	5154.74
430.284	5031.86
430.491	5210.03
430.699	5629.87
430.906	5705.64
431.114	5609.39
431.321	5957.54
431.528	6078.37
431.736	6406.05
431.943	6719.39
432.15	6530.97
432.358	6561.69
432.565	6872.98
432.772	6956.95
432.979	7237.52
433.187	7296.91
433.394	7290.77
433.601	7798.66
433.808	7899.02
434.016	7851.91
434.223	8099.72
434.43	8677.24
434.637	8509.31
434.844	8912.76
435.052	9035.64
435.259	9099.13
435.466	9215.86
435.673	8947.58
435.88	9731.95
436.087	10231.65
436.294	10301.28
436.501	9936.74
436.708	10172.26
436.915	10444.64
437.122	10764.12
437.329	10848.09
437.537	11405.14
437.743	11401.04
437.95	11503.44
438.157	11796.3
438.364	12404.55
438.571	12166.98
438.778	12353.35
438.985	13614.9
439.192	12926.78
439.399	13414.2
439.606	12986.17
439.813	13756.21
440.02	14614.31
440.227	14337.83
440.433	14112.55
440.64	14597.92
440.847	14333.73
441.054	14907.16
441.261	16015.12
441.467	15716.11
441.674	15834.89
441.881	16754.43
442.088	16809.73
442.294	16209.67
442.501	16858.88
442.708	16977.66
442.914	17989.36
443.121	18704.1
443.328	18202.35
443.534	19328.73
443.741	18675.43
443.948	18403.05
444.154	20010.7
444.361	19625.68
444.568	19648.21
444.774	19846.87
444.981	20078.29
445.187	20633.29
445.394	21659.32
445.6	21272.25
445.807	23180.96
446.013	22077.1
446.22	22652.58
446.426	23467.67
446.633	23656.09
446.839	24671.88
447.046	23678.61
447.252	24784.52
447.459	24929.92
447.665	24692.36
447.871	25884.28
448.078	27215.46
448.284	25857.65
448.491	26463.85
448.697	27434.59
448.903	28243.54
449.11	27928.15
449.316	27467.36
449.522	27936.34
449.728	28827.21
449.935	29029.96
450.141	29236.8
450.347	29627.96
450.553	28751.43
450.76	29158.98
450.966	30271.03
451.172	29914.68
451.378	30527.02
451.584	29926.97
451.791	30373.42
451.997	30703.15
452.203	31245.86
452.409	31165.99
452.615	30877.22
452.821	29673.02
453.027	29787.71
453.233	31409.7
453.44	30133.81
453.646	30238.26
453.852	30375.47
454.058	31303.2
454.264	29937.21
454.47	30684.72
454.676	30150.2
454.882	31315.49
455.088	28642.89
455.294	29068.87
455.5	29331.01
455.705	29533.76
455.911	28671.56
456.117	27962.97
456.323	27711.07
456.529	25835.13
456.735	27362.91
456.941	26596.97
457.147	26257.01
457.352	25615.99
457.558	25239.17
457.764	25259.65
457.97	24923.78
458.176	24333.96
458.381	24280.72
458.587	23260.83
458.793	23156.38
458.999	21866.16
459.204	23826.07
459.41	22904.48
459.616	21403.32
459.821	21458.62
460.027	21554.87
460.233	20842.18
460.438	20227.79
460.644	20340.43
460.85	19361.5
461.055	18896.61
461.261	18824.93
461.466	17571.57
461.672	17221.37
461.878	18327.27
462.083	17100.54
462.289	16596.74
462.494	16613.12
462.7	15826.7
462.905	15404.82
463.111	15802.13
463.316	15869.71
463.522	15451.92
463.727	15507.22
463.932	15554.32
464.138	15261.46
464.343	15429.4
464.549	15118.11
464.754	15357.72
464.959	15265.56
465.165	14974.75
465.37	14874.4
465.575	13979.43
465.781	14812.96
465.986	14954.27
466.191	14280.49
466.397	13805.36
466.602	13197.11
466.807	13831.98
467.012	13725.49
467.218	13799.21
467.423	13545.27
467.628	13653.81
467.833	14274.34
468.038	13659.95
468.244	13313.84
468.449	13823.79
468.654	13524.79
468.859	13444.91
469.064	13363
469.269	12572.48
469.474	13002.55
469.679	13233.97
469.885	12566.34
470.09	12844.86
470.295	12918.59
470.5	12484.42
470.705	12486.47
470.91	12394.31
471.115	11972.43
471.32	12422.98
471.525	12205.89
471.73	11974.47
471.935	12115.78
472.139	11536.21
472.344	11689.81
472.549	11601.74
472.754	11454.29
472.959	11409.23
473.164	11030.36
473.369	10784.6
473.574	11427.67
473.778	11177.81
473.983	11114.33
474.188	10846.04
474.393	10606.43
474.598	10510.18
474.802	10469.22
475.007	10317.67
475.212	10559.33
475.417	10078.05
475.621	10403.68
475.826	9756.52
476.031	9875.31
476.235	9744.24
476.44	9850.73
476.645	9559.92
476.849	9709.42
477.054	9670.51
477.259	9394.03
477.463	9381.74
477.668	9142.13
477.872	9338.74
478.077	9015.16
478.282	8777.59
478.486	8896.38
478.691	8791.93
478.895	8939.38
479.1	8791.93
479.304	8730.49
479.509	8218.5
479.713	8626.04
479.918	8439.68
480.122	8179.59
480.326	8357.76
480.531	8550.27
480.735	8314.75
480.94	8251.27
481.144	8466.3
481.348	7931.78
481.553	8372.1
481.757	8011.65
481.961	8126.34
482.166	8273.79
482.37	8191.88
482.574	7929.74
482.778	8040.33
482.983	8284.03
483.187	8034.18
483.391	8241.03
483.595	8038.28
483.8	8005.51
484.004	8073.09
484.208	8169.35
484.412	8015.75
484.616	7890.82
484.821	8277.89
485.025	8044.42
485.229	7991.17
485.433	7935.88
485.637	8060.81
485.841	7997.32
486.045	7972.74
486.249	7888.78
486.453	7931.78
486.657	8023.94
486.861	7989.13
487.065	7970.69
487.269	8060.81
487.473	7679.88
487.677	8017.8
487.881	8032.13
488.085	8009.61
488.289	8322.94
488.493	8013.7
488.697	8071.04
488.901	8056.71
489.105	8011.65
489.309	7899.02
489.512	8040.33
489.716	7901.06
489.92	8056.71
490.124	8073.09
490.328	8292.23
490.531	8081.28
490.735	8159.11
490.939	8415.1
491.143	8032.13
491.346	8226.69
491.55	8191.88
491.754	8245.12
491.958	8462.21
492.161	8368
492.365	8245.12
492.569	8357.76
492.772	8566.65
492.976	8394.62
493.18	8396.67
493.383	8712.06
493.587	8642.43
493.79	8619.9
493.994	8660.86
494.197	8783.74
494.401	8904.57
494.605	8783.74
494.808	8847.23
495.012	8988.53
495.215	9035.64
495.419	9142.13
495.622	9019.25
495.825	9193.33
496.029	9199.48
496.232	9459.57
496.436	9322.35
496.639	9752.43
496.843	9521.01
497.046	9643.88
497.249	9715.56
497.453	9772.91
497.656	10010.47
497.859	10016.62
498.063	10170.21
498.266	10428.26
498.469	10164.07
498.673	10307.43
498.876	10465.12
499.079	10592.09
499.282	10522.46
499.485	10821.47
499.689	10973.02
499.892	10987.35
500.095	10989.4
500.298	11251.54
500.501	11171.67
500.705	11632.46
500.908	11591.5
501.111	11624.27
501.314	11845.45
501.517	11888.46
501.72	11890.51
501.923	12123.98
502.126	12447.55
502.329	12617.54
502.532	12595.01
502.735	12597.06
502.938	12883.77
503.141	12963.64
503.344	13174.58
503.547	13016.89
503.75	13369.14
503.953	13426.48
504.156	13819.69
504.359	13891.37
504.562	13793.07
504.765	14194.47
504.968	14260.01
505.17	14405.41
505.373	14661.41
505.576	14780.19
505.779	14630.69
505.982	14999.32
506.185	15138.59
506.387	15220.5
506.59	15331.09
506.793	15703.82
506.996	15664.91
507.198	16318.21
507.401	16064.27
507.604	15884.05
507.807	16604.93
508.009	16445.19
508.212	16822.02
508.415	16748.29
508.617	17159.93
508.82	17301.24
509.022	17366.78
509.225	17618.68
509.428	18015.98
509.63	18079.47
509.833	18181.87
510.035	18317.03
510.238	18360.04
510.44	18550.5
510.643	18697.95
510.845	19048.16
511.048	18640.61
511.25	19465.94
511.453	19185.37
511.655	20137.68
511.858	19832.53
512.06	19967.7
512.262	19910.35
512.465	20168.4
512.667	20698.82
512.87	20756.16
513.072	20647.62
513.274	20999.87
513.477	21274.3
513.679	21530.3
513.881	21900.98
514.084	22101.68
514.286	21716.66
514.488	22322.86
514.69	22498.98
514.893	22967.97
515.095	22728.36
515.297	23082.66
515.499	23060.13
515.701	23357.08
515.904	23918.23
516.106	23729.81
516.308	23871.12
516.51	24428.17
516.712	24393.36
516.914	24546.95
517.116	24972.93
517.318	25226.88
517.52	25101.95
517.722	25288.32
517.925	25626.23
518.127	26168.94
518.329	26187.38
518.531	26232.43
518.733	26656.36
518.935	27027.04
519.136	26582.63
519.338	27086.43
519.54	27256.42
519.742	27643.48
519.944	27737.69
520.146	28005.97
520.348	28335.7
520.55	28651.08
520.752	28370.51
520.954	28702.28
521.155	28630.6
521.357	29318.72
521.559	29335.1
521.761	29597.24
521.963	29539.9
522.164	30088.76
522.366	30129.72
522.568	30449.2
522.77	30692.91
522.971	30895.66
523.173	30529.07
523.375	31284.77
523.576	31290.91
523.778	31284.77
523.98	31639.07
524.181	31505.95
524.383	31727.13
524.584	32073.24
524.786	32452.11
524.988	32118.29
525.189	32423.44
525.391	32792.08
525.592	32957.96
525.794	32656.91
525.995	33152.52
526.197	33248.77
526.398	33205.77
526.6	33773.05
526.801	33605.12
527.003	33773.05
527.204	33709.57
527.406	34143.73
527.607	34266.61
527.808	34252.28
528.01	33500.67
528.211	34162.17
528.412	34477.55
528.614	34620.91
528.815	34833.9
529.016	34903.53
529.218	34606.58
529.419	34778.61
529.62	34678.25
529.822	34557.42
530.023	35153.38
530.224	35268.07
530.425	35306.98
530.626	34883.05
530.828	34975.21
531.029	35667.42
531.23	35321.32
531.431	35403.24
531.632	35485.15
531.833	35571.17
532.035	35765.73
532.236	35706.34
532.437	36019.67
532.638	35395.04
532.839	35763.68
533.04	35767.77
533.241	35661.28
533.442	36341.21
533.643	36005.34
533.844	36238.81
534.045	35646.94
534.246	35937.76
534.447	36138.46
534.648	35900.89
534.849	36128.22
535.05	35835.36
535.251	36257.24
535.451	36091.35
535.652	35964.38
535.853	35945.95
536.054	36007.39
536.255	36050.39
536.456	35825.12
536.657	36529.62
536.857	35687.9
537.058	35745.25
537.259	36277.72
537.46	35902.94
537.66	35968.48
537.861	36474.32
538.062	35948
538.263	35966.43
538.463	36001.24
538.664	35999.19
538.865	36126.17
539.065	36296.15
539.266	35974.62
539.466	35982.81
539.667	35833.31
539.868	36259.29
540.068	36136.41
540.269	35988.95
540.469	36124.12
540.67	36007.39
540.87	35794.4
541.071	35943.9
541.271	36124.12
541.472	35814.88
541.672	35667.42
541.873	36066.78
542.073	35528.16
542.274	36117.98
542.474	35696.1
542.675	35644.9
542.875	35964.38
543.075	35636.7
543.276	35816.93
543.476	36058.59
543.676	35589.6
543.877	35870.17
544.077	36113.88
544.277	35618.27
544.478	35423.72
544.678	35898.84
544.878	35612.13
545.078	35751.39
545.279	35556.83
545.479	35974.62
545.679	35964.38
545.879	35780.06
546.079	35712.48
546.28	35583.46
546.48	35112.42
546.68	35603.94
546.88	35567.07
547.08	35349.99
547.28	35433.96
547.48	35153.38
547.68	35565.03
547.88	35325.41
548.081	35605.98
548.281	35415.52
548.481	35436
548.681	35939.8
548.881	35429.86
549.081	35536.35
549.28	35401.19
549.48	35591.65
549.68	35458.53
549.88	35917.28
550.08	35044.84
550.28	35714.53
550.48	35347.94
550.68	35546.59
550.88	35476.96
551.08	34987.5
551.279	35487.2
551.479	35118.57
551.679	35593.7
551.879	35087.85
552.079	35526.11
552.278	34967.02
552.478	35386.85
552.678	35601.89
552.878	35485.15
553.077	35139.05
553.277	35169.77
553.477	35409.38
553.676	35239.4
553.876	35257.83
554.076	34557.42
554.275	34987.5
554.475	34452.98
554.674	35311.08
554.874	34698.73
555.074	34418.16
555.273	34999.79
555.473	35112.42
555.672	34645.49
555.872	34936.3
556.071	34971.11
556.271	35128.81
556.47	34817.52
556.67	34620.91
556.869	34756.08
557.068	34747.89
557.268	34485.75
557.467	34700.78
557.667	34149.88
557.866	34719.21
558.065	34813.42
558.265	34311.67
558.464	34328.05
558.663	34610.67
558.863	34033.14
559.062	34895.34
559.261	34065.91
559.461	34567.66
559.66	33955.32
559.859	34418.16
560.058	34000.38
560.258	33750.52
560.457	34170.36
560.656	34143.73
560.855	33713.66
561.054	33734.14
561.253	33660.41
561.453	34035.19
561.652	33973.75
561.851	33496.58
562.05	33469.95
562.249	33502.72
562.448	33680.89
562.647	33222.15
562.846	33490.43
563.045	33502.72
563.244	33039.88
563.443	33494.53
563.642	32736.78
563.841	33232.39
564.04	32749.07
564.239	33496.58
564.438	32824.84
564.637	33058.31
564.836	32964.1
565.035	32230.93
565.234	32527.89
565.432	32521.74
565.631	32269.84
565.83	32433.68
566.029	32312.85
566.228	32413.2
566.427	32220.69
566.625	32362
566.824	32218.64
567.023	32474.64
567.222	31215.14
567.42	32261.65
567.619	32001.56
567.818	31641.12
568.016	31911.45
568.215	31983.13
568.414	31624.73
568.612	32003.61
568.811	31432.22
569.01	31417.89
569.208	31229.48
569.407	31591.97
569.605	30834.22
569.804	31356.45
570.002	30619.18
570.201	31168.04
570.4	30965.29
570.598	30826.03
570.797	30594.61
570.995	30840.36
571.193	30268.98
571.392	30846.51
571.59	30334.51
571.789	30408.24
571.987	30621.23
572.186	30336.56
572.384	29822.52
572.582	30701.1
572.781	30195.25
572.979	29881.91
573.177	30207.54
573.376	30195.25
573.574	29814.33
573.772	29820.47
573.971	29537.85
574.169	29601.34
574.367	29380.16
574.565	29552.19
574.763	29693.5
574.962	29351.49
575.16	29120.07
575.358	29314.62
575.556	29179.46
575.754	29150.79
575.952	28931.65
576.151	29050.44
576.349	28943.94
576.547	28722.76
576.745	28571.21
576.943	28546.64
577.141	28354.13
577.339	28612.17
577.537	28223.06
577.735	28171.86
577.933	28239.44
578.131	28454.48
578.329	28044.88
578.527	27879
578.725	28130.9
578.923	27805.27
579.121	27760.22
579.319	27596.38
579.516	27778.65
579.714	27756.12
579.912	27792.98
580.11	27571.8
580.308	27741.78
580.506	27194.98
580.704	26969.7
580.901	27377.25
581.099	27381.34
581.297	26871.4
581.495	27117.15
581.692	26902.12
581.89	26736.23
582.088	27090.53
582.285	26898.02
582.483	26975.84
582.681	26914.41
582.878	26545.77
583.076	26234.48
583.274	26891.88
583.471	26101.36
583.669	26289.77
583.866	26146.42
584.064	26218.1
584.262	25615.99
584.459	26340.97
584.657	25671.29
584.854	26084.98
585.052	25435.77
585.249	26041.97
585.447	25978.48
585.644	25337.47
585.841	25661.05
586.039	25716.34
586.236	25124.48
586.434	25208.45
586.631	25353.85
586.828	25298.56
587.026	24987.27
587.223	24938.12
587.42	25046.66
587.618	24772.23
587.815	24860.29
588.012	24741.51
588.21	24616.58
588.407	24796.81
588.604	24272.53
588.801	24491.66
588.999	24641.16
589.196	24594.06
589.393	24538.76
589.59	24354.44
589.787	24090.26
589.984	23891.6
590.182	23944.85
590.379	23922.32
590.576	23920.28
590.773	24168.08
590.97	23617.18
591.167	23920.28
591.364	23613.08
591.561	23854.74
591.758	23578.26
591.955	23060.13
592.152	23447.19
592.349	23041.7
592.546	23045.79
592.743	23307.93
592.94	22785.7
593.137	23238.3
593.334	23250.59
593.531	22589.1
593.727	22834.85
593.924	22832.8
594.121	22886.05
594.318	22714.02
594.515	22425.26
594.712	22691.49
594.908	22378.15
595.105	22609.57
595.302	22275.76
595.499	22232.75
595.696	22300.33
595.892	21710.52
596.089	22097.58
596.286	22044.34
596.482	22136.49
596.679	21841.59
596.876	21913.27
597.072	21659.32
597.269	21687.99
597.466	21710.52
597.662	21530.3
597.859	21649.08
598.055	21589.69
598.252	21616.31
598.448	21370.55
598.645	20979.39
598.841	21094.08
599.038	21374.65
599.234	21239.48
599.431	20795.07
599.627	20774.6
599.824	20733.64
600.02	20496.07
600.217	20735.68
600.413	20577.99
600.609	20899.52
600.806	20582.09
601.002	20973.25
601.198	20451.02
601.395	20184.78
601.591	20070.09
601.787	20225.74
601.984	20209.36
602.18	20340.43
602.376	19953.36
602.572	20217.55
602.769	20186.83
602.965	19664.6
603.161	20080.33
603.357	19719.89
603.553	19777.23
603.75	19515.09
603.946	19754.71
604.142	19431.13
604.338	19398.36
604.534	19394.26
604.73	19453.66
604.926	19429.08
605.122	19433.18
605.318	19199.71
605.514	18837.22
605.71	18863.84
605.906	19111.64
606.102	19117.79
606.298	18865.89
606.494	18693.86
606.69	19099.36
606.886	18906.85
607.082	18362.09
607.278	18740.96
607.474	18515.69
607.67	18546.4
607.866	18317.03
608.062	18648.8
608.257	18411.24
608.453	18370.28
608.649	18390.76
608.845	18233.07
609.041	18282.22
609.236	18237.16
609.432	18122.48
609.628	18198.25
609.824	18102
610.019	17968.88
610.215	18067.18
610.411	17985.26
610.606	17858.29
610.802	17841.9
610.998	17987.31
611.193	17895.15
611.389	17678.07
611.584	17819.38
611.78	17483.51
611.976	17884.91
612.171	17692.4
612.367	17659.63
612.562	17573.62
612.758	17405.69
612.953	17172.22
613.149	17753.84
613.344	17633.01
613.539	17972.97
613.735	17503.99
613.93	17452.79
614.126	17540.85
614.321	17499.89
614.517	17321.72
614.712	17348.34
614.907	17354.49
615.103	17254.14
615.298	16895.74
615.493	17293.05
615.688	17047.29
615.884	17397.49
616.079	16783.1
616.274	17008.38
616.47	17004.28
616.665	16946.94
616.86	17032.96
617.055	16953.09
617.25	16860.93
617.445	16666.37
617.641	16619.27
617.836	16776.96
618.031	16316.17
618.226	16836.35
618.421	16371.46
618.616	16930.56
618.811	16264.97
619.006	16725.76
619.201	16058.12
619.396	16269.06
619.591	16029.45
619.786	16158.47
619.981	15855.37
620.176	16215.82
620.371	15738.64
620.566	15757.07
620.761	15875.85
620.956	15752.98
621.151	15453.97
621.346	15349.53
621.541	15501.08
621.735	15564.56
621.93	15361.81
622.125	15349.53
622.32	14827.29
622.515	15154.97
622.709	15161.11
622.904	15261.46
623.099	14815.01
623.294	14806.81
623.488	14806.81
623.683	14878.49
623.878	14464.8
624.072	14524.19
624.267	14585.63
624.462	14356.26
624.656	14040.87
624.851	14094.12
625.046	14245.67
625.24	13928.24
625.435	13973.29
625.629	13995.82
625.824	13688.62
626.018	13874.99
626.213	13655.86
626.407	13602.61
626.602	13344.56
626.796	13510.45
626.991	13420.34
627.185	13631.28
627.38	13363
627.574	13434.67
627.768	12961.59
627.963	12984.12
628.157	13090.62
628.352	13127.48
628.546	12738.37
628.74	12969.79
628.935	12644.16
629.129	12678.97
629.323	12519.23
629.517	12527.42
629.712	12474.18
629.906	12455.75
630.1	12269.38
630.294	12353.35
630.489	12183.37
630.683	12199.75
630.877	11984.71
631.071	11968.33
631.265	12132.17
631.459	11827.02
631.653	11755.34
631.848	11886.41
632.042	11714.38
632.236	11904.84
632.43	11599.69
632.624	11616.08
632.818	11736.91
633.012	11267.92
633.206	11261.78
633.4	11552.59
633.594	11181.91
633.788	11392.85
633.982	11151.19
634.176	11054.94
634.369	10930.01
634.563	11030.36
634.757	10966.87
634.951	10805.08
635.145	10731.36
635.339	10821.47
635.533	10714.97
635.726	10737.5
635.92	10395.49
636.114	10389.35
636.308	10387.3
636.501	10315.62
636.695	10370.91
636.889	10297.19
637.083	10272.61
637.276	10125.16
637.47	10221.41
637.664	10078.05
637.857	10012.52
638.051	10086.25
638.244	9928.55
638.438	9799.53
638.632	9891.69
638.825	9734
639.019	9756.52
639.212	9660.27
639.406	9426.8
639.599	9332.59
639.793	9725.8
639.986	9338.74
640.18	9459.57
640.373	9367.41
640.567	9297.78
640.76	9297.78
640.954	9375.6
641.147	9068.41
641.34	9052.02
641.534	9172.85
641.727	8943.48
641.92	8912.76
642.114	9043.83
642.307	8888.18
642.5	9019.25
642.694	8683.39
642.887	8812.41
643.08	8757.11
643.273	8613.76
643.467	8609.66
643.66	8634.24
643.853	8499.07
644.046	8540.03
644.239	8429.44
644.432	8296.32
644.626	8114.05
644.819	8355.71
645.012	8300.42
645.205	8286.08
645.398	8218.5
645.591	8099.72
645.784	8036.23
645.977	8011.65
646.17	7966.6
646.363	7890.82
646.556	7849.86
646.749	7831.43
646.942	7970.69
647.135	7741.32
647.328	7769.99
647.521	7587.72
647.714	7649.16
647.907	7733.13
648.099	7610.25
648.292	7724.94
648.485	7419.79
648.678	7479.18
648.871	7503.76
649.064	7432.08
649.256	7266.19
649.449	7333.78
649.642	7442.32
649.835	7143.32
650.027	7307.15
650.22	7026.58
650.413	7204.75
650.605	7212.95
650.798	7139.22
650.991	6969.24
651.183	7094.16
651.376	6946.71
651.568	6897.56
651.761	6903.7
651.954	6799.26
652.146	6770.58
652.339	6807.45
652.531	6688.67
652.724	6768.54
652.916	6549.4
653.109	6684.57
653.301	6709.15
653.494	6561.69
653.686	6342.56
653.879	6664.09
654.071	6504.35
654.263	6467.49
654.456	6356.89
654.648	6406.05
654.84	6254.5
655.033	6188.96
655.225	6234.02
655.417	6209.44
655.61	6170.53
655.802	6156.19
655.994	6180.77
656.186	6090.66
656.379	6135.71
656.571	6213.54
656.763	5971.88
656.955	5832.61
657.148	6045.6
657.34	6035.36
657.532	5699.5
657.724	5752.74
657.916	5838.76
658.108	5978.02
658.3	5623.72
658.492	5738.41
658.684	5619.63
658.876	5646.25
659.068	5650.35
659.26	5562.28
659.452	5502.89
659.644	5466.03
659.836	5578.67
660.028	5636.01
660.22	5375.92
660.412	5425.07
660.604	5394.35
660.796	5283.76
660.988	5255.09
661.18	5289.9
661.372	5183.41
661.563	5400.49
661.755	5177.27
661.947	5201.84
662.139	5193.65
662.331	5105.59
662.522	5212.08
662.714	4988.85
662.906	5038
663.097	4892.6
663.289	4906.93
663.481	4906.93
663.673	4874.17
663.864	4849.59
664.056	4894.65
664.247	4835.25
664.439	4802.49
664.631	4681.66
664.822	4685.75
665.014	4884.41
665.205	4612.03
665.397	4712.38
665.588	4759.48
665.78	4745.14
665.971	4566.97
666.163	4630.46
666.354	4786.1
666.546	4505.53
666.737	4521.91
666.929	4548.54
667.12	4546.49
667.311	4523.96
667.503	4319.17
667.694	4327.36
667.885	4384.7
668.077	4319.17
668.268	4501.44
668.459	4384.7
668.651	4179.9
668.842	4358.08
669.033	4319.17
669.224	4186.05
669.416	4343.74
669.607	4534.2
669.798	4167.62
669.989	4263.87
670.18	4249.54
670.371	4024.26
670.563	4120.51
670.754	4155.33
670.945	4042.69
671.136	4081.6
671.327	4163.52
671.518	4024.26
671.709	3962.82
671.9	4054.98
672.091	4024.26
672.282	3864.52
672.473	3833.8
672.664	3899.33
672.855	3827.65
673.046	4020.16
673.237	3968.96
673.428	3801.03
673.619	3741.64
673.809	3682.25
674	3827.65
674.191	3778.5
674.382	3764.17
674.573	3833.8
674.764	3764.17
674.954	3792.84
675.145	3731.4
675.336	3514.31
675.527	3577.8
675.717	3647.43
675.908	3598.28
676.099	3633.1
676.289	3743.69
676.48	3592.14
676.671	3530.7
676.861	3520.46
677.052	3573.71
677.243	3540.94
677.433	3585.99
677.624	3502.03
677.814	3448.78
678.005	3338.19
678.195	3502.03
678.386	3342.28
678.576	3334.09
678.767	3373
678.957	3366.86
679.148	3428.3
679.338	3426.25
679.529	3456.97
679.719	3350.48
679.909	3344.33
680.1	3194.83
680.29	3315.66
680.481	3198.93
680.671	3330
680.861	3149.78
681.052	3270.61
681.242	3280.85
681.432	3346.38
681.622	3145.68
681.813	3157.97
682.003	3084.24
682.193	3178.45
682.383	3166.16
682.573	3180.5
682.764	3256.27
682.954	3162.06
683.144	3026.9
683.334	3002.32
683.524	3243.98
683.714	3065.81
683.904	3125.2
684.094	3043.28
684.284	3022.8
684.474	3002.32
684.664	3006.42
684.854	3020.75
685.044	2883.54
685.234	2910.16
685.424	2912.21
685.614	2809.81
685.804	3094.48
685.994	2828.24
686.184	2895.83
686.374	2754.52
686.564	2981.84
686.753	2807.77
686.943	2899.92
687.133	2918.36
687.323	2824.15
687.513	2858.96
687.702	2854.87
687.892	2762.71
688.082	2695.13
688.272	2818.01
688.461	2787.29
688.651	2846.68
688.841	2775
689.03	2576.34
689.22	2631.64
689.41	2752.47
689.599	2666.46
689.789	2691.03
689.979	2723.8
690.168	2744.28
690.358	2656.22
690.547	2637.78
690.737	2580.44
690.926	2621.4
691.116	2568.15
691.305	2680.79
691.495	2691.03
691.684	2473.95
691.874	2566.1
692.063	2539.48
692.252	2516.95
692.442	2582.49
692.631	2531.29
692.82	2551.77
693.01	2525.15
693.199	2527.19
693.388	2383.84
693.578	2445.27
693.767	2385.88
693.956	2424.8
694.146	2480.09
694.335	2490.33
694.524	2451.42
694.713	2447.32
694.902	2340.83
695.092	2392.03
695.281	2519
695.47	2334.68
695.659	2301.92
695.848	2375.64
696.037	2338.78
696.226	2443.23
696.415	2342.88
696.604	2387.93
696.793	2324.44
696.982	2295.77
697.171	2432.99
697.36	2248.67
697.549	2322.4
697.738	2228.19
697.927	2267.1
698.116	2224.09
698.305	2236.38
698.494	2277.34
698.683	2314.2
698.872	2187.23
699.061	2301.92
699.25	2330.59
699.438	2418.65
699.627	2172.89
699.816	2248.67
700.005	2267.1
700.193	2142.18
700.382	2351.07
700.571	2293.73
700.76	2195.42
700.948	2293.73
701.137	2181.09
701.326	2172.89
701.514	2285.53
701.703	2310.11
701.892	2107.36
702.08	2295.77
702.269	2138.08
702.457	2252.77
702.646	2187.23
702.834	2187.23
703.023	2187.23
703.212	2205.66
703.4	2279.39
703.589	2082.78
703.777	2207.71
703.965	2109.41
704.154	2172.89
704.342	2201.57
704.531	2168.8
704.719	2211.81
704.907	2213.85
705.096	2121.7
705.284	2242.53
705.472	2269.15
705.661	2113.5
705.849	2252.77
706.037	2260.96
706.226	2279.39
706.414	2213.85
706.602	2279.39
706.79	2238.43
706.979	2154.46
707.167	2097.12
707.355	2056.16
707.543	2097.12
707.731	2248.67
707.919	2105.31
708.107	2043.87
708.296	2140.13
708.484	2123.74
708.672	2004.96
708.86	2127.84
709.048	2121.7
709.236	1994.72
709.424	2181.09
709.612	2158.56
709.8	2109.41
709.988	2162.66
710.176	2224.09
710.364	2181.09
710.551	2054.11
710.739	2125.79
710.927	2123.74
711.115	2076.64
711.303	2121.7
711.491	2080.74
711.679	2103.26
711.866	2199.52
712.054	2224.09
712.242	2058.21
712.43	2140.13
712.617	2111.46
712.805	2013.15
712.993	1990.63
713.181	2052.06
713.368	2058.21
713.556	2074.59
713.744	2074.59
713.931	2115.55
714.119	2074.59
714.306	2129.89
714.494	2088.93
714.682	2090.98
714.869	1998.82
715.057	2109.41
715.244	2088.93
715.432	2072.54
715.619	2162.66
715.807	2121.7
715.994	2123.74
716.182	2080.74
716.369	2050.02
716.556	2191.33
716.744	1992.67
716.931	2047.97
717.119	1998.82
717.306	2148.32
717.493	1998.82
717.681	2052.06
717.868	2056.16
718.055	2082.78
718.242	2031.59
718.43	2111.46
718.617	2111.46
718.804	2082.78
718.991	2056.16
719.179	2031.59
719.366	2035.68
719.553	2105.31
719.74	2050.02
719.927	1966.05
720.114	2066.4
720.301	2009.06
720.488	2015.2
720.676	1929.19
720.863	2072.54
721.05	1968.1
721.237	2017.25
721.424	1984.48
721.611	2017.25
721.798	1990.63
721.985	1927.14
722.172	1974.24
722.358	1988.58
722.545	2070.5
722.732	2121.7
722.919	2150.37
723.106	2035.68
723.293	2119.65
723.48	1943.52
723.667	1957.86
723.853	1970.15
724.04	2039.78
724.227	2007.01
724.414	2058.21
724.6	2088.93
724.787	2103.26
724.974	1966.05
725.161	1951.71
725.347	2017.25
725.534	2039.78
725.72	2072.54
725.907	1939.43
726.094	1982.43
726.28	2000.87
726.467	1925.09
726.653	1937.38
726.84	1933.28
727.027	1982.43
727.213	1984.48
727.4	1968.1
727.586	2019.3
727.773	1935.33
727.959	2015.2
728.145	1918.95
728.332	2000.87
728.518	2025.44
728.705	2084.83
728.891	2007.01
729.077	1984.48
729.264	1951.71
729.45	2105.31
729.636	1949.67
729.823	1941.47
730.009	1982.43
730.195	1957.86
730.382	1984.48
730.568	1970.15
730.754	2041.82
730.94	1982.43
731.126	1918.95
731.313	2097.12
731.499	1941.47
731.685	1968.1
731.871	1814.5
732.057	2050.02
732.243	1900.52
732.429	1937.38
732.615	1949.67
732.801	1974.24
732.987	1880.04
733.173	1949.67
733.359	1933.28
733.545	1875.94
733.731	1986.53
733.917	1976.29
734.103	1959.91
734.289	1945.57
734.475	1937.38
734.661	1947.62
734.847	1970.15
735.033	1884.13
735.219	1894.37
735.404	1898.47
735.59	1884.13
735.776	1806.31
735.962	1834.98
736.148	1859.56
736.333	1933.28
736.519	1781.73
736.705	1810.4
736.89	1755.11
737.076	1859.56
737.262	1826.79
737.447	1814.5
737.633	1873.89
737.819	1871.84
738.004	1929.19
738.19	1886.18
738.375	1777.64
738.561	1794.02
738.747	1822.69
738.932	1808.36
739.118	1843.17
739.303	1824.74
739.489	1824.74
739.674	1757.16
739.859	1777.64
740.045	1812.45
740.23	1777.64
740.416	1736.68
740.601	1812.45
740.786	1810.4
740.972	1802.21
741.157	1703.91
741.342	1724.39
741.528	1714.15
741.713	1662.95
741.898	1763.3
742.084	1597.42
742.269	1845.22
742.454	1687.53
742.639	1730.53
742.824	1656.81
743.01	1595.37
743.195	1794.02
743.38	1708.01
743.565	1740.77
743.75	1626.09
743.935	1636.33
744.12	1697.77
744.305	1609.7
744.49	1691.62
744.675	1648.61
744.86	1613.8
745.045	1712.1
745.23	1603.56
745.415	1626.09
745.6	1540.07
745.785	1550.31
745.97	1578.98
746.155	1628.14
746.34	1605.61
746.525	1636.33
746.71	1599.46
746.895	1458.15
747.079	1533.93
747.264	1523.69
747.449	1638.38
747.634	1495.02
747.819	1470.44
748.003	1443.82
748.188	1490.92
748.373	1581.03
748.557	1552.36
748.742	1501.16
748.927	1482.73
749.111	1425.39
749.296	1333.23
749.481	1400.81
749.665	1398.76
749.85	1400.81
750.034	1454.06
750.219	1327.08
750.404	1396.71
750.588	1458.15
750.773	1359.85
750.957	1302.51
751.141	1363.95
751.326	1466.35
751.51	1343.47
751.695	1368.04
751.879	1251.31
752.064	1349.61
752.248	1259.5
752.432	1368.04
752.617	1228.78
752.801	1351.66
752.985	1325.04
753.17	1220.59
753.354	1337.32
753.538	1327.08
753.722	1298.41
753.907	1196.01
754.091	1239.02
754.275	1175.53
754.459	1241.07
754.643	1148.91
754.828	1284.08
755.012	1138.67
755.196	1261.55
755.38	1165.29
755.564	1165.29
755.748	1110
755.932	1163.25
756.116	1163.25
756.3	1128.43
756.484	1066.99
756.668	993.26
756.852	1099.76
757.036	1075.18
757.22	1091.57
757.404	1071.09
757.588	1073.14
757.772	1042.42
757.956	1122.29
758.14	1073.14
758.323	1056.75
758.507	1054.7
758.691	1021.94
758.875	991.22
759.059	1073.14
759.242	1034.22
759.426	1066.99
759.61	946.16
759.794	933.87
759.977	911.35
760.161	976.88
760.345	1023.98
760.528	964.59
760.712	962.55
760.895	958.45
761.079	1032.18
761.263	970.74
761.446	964.59
761.63	999.41
761.813	944.11
761.997	897.01
762.18	888.82
762.364	970.74
762.547	796.66
762.731	1023.98
762.914	905.2
763.098	790.52
763.281	892.91
763.464	917.49
763.648	925.68
763.831	886.77
764.015	798.71
764.198	888.82
764.381	833.52
764.564	876.53
764.748	884.72
764.931	944.11
765.114	815.09
765.297	811
765.481	821.24
765.664	851.96
765.847	786.42
766.03	808.95
766.213	813.04
766.397	854
766.58	847.86
766.763	870.39
766.946	767.99
767.129	765.94
767.312	839.67
767.495	815.09
767.678	741.36
767.861	827.38
768.044	872.43
768.227	811
768.41	845.81
768.593	831.48
768.776	770.04
768.959	747.51
769.142	786.42
769.324	794.61
769.507	720.89
769.69	743.41
769.873	763.89
770.056	866.29
770.239	876.53
770.421	759.8
770.604	708.6
770.787	692.21
770.97	811
771.152	722.93
771.335	784.37
771.518	753.65
771.7	698.36
771.883	747.51
772.066	776.18
772.248	712.69
772.431	692.21
772.613	892.91
772.796	729.08
772.978	679.93
773.161	737.27
773.343	624.63
773.526	696.31
773.708	712.69
773.891	663.54
774.073	673.78
774.256	651.25
774.438	788.47
774.621	696.31
774.803	665.59
774.985	663.54
775.168	686.07
775.35	673.78
775.532	638.97
775.715	698.36
775.897	602.1
776.079	667.64
776.261	598.01
776.444	667.64
776.626	651.25
776.808	677.88
776.99	589.82
777.173	632.82
777.355	575.48
777.537	608.25
777.719	583.67
777.901	600.05
778.083	575.48
778.265	583.67
778.447	585.72
778.629	614.39
778.811	569.34
778.993	503.8
779.175	598.01
779.357	583.67
779.539	516.09
779.721	581.62
779.903	540.66
780.085	577.53
780.267	409.59
780.449	475.13
780.631	628.73
780.812	503.8
780.994	557.05
781.176	452.6
781.358	475.13
781.54	542.71
781.721	491.51
781.903	460.79
782.085	514.04
782.267	471.03
782.448	417.79
782.63	462.84
782.812	434.17
782.993	438.27
783.175	548.86
783.357	442.36
783.538	434.17
783.72	450.55
783.901	434.17
784.083	440.31
784.264	520.18
784.446	413.69
784.627	466.94
784.809	485.37
784.99	411.64
785.172	434.17
785.353	401.4
785.535	452.6
785.716	446.46
785.897	456.7
786.079	342.01
786.26	401.4
786.441	503.8
786.623	397.31
786.804	395.26
786.985	344.06
787.167	399.35
787.348	374.78
787.529	335.87
787.71	331.77
787.891	393.21
788.073	362.49
788.254	411.64
788.435	409.59
788.616	376.83
788.797	401.4
788.978	360.44
789.159	331.77
789.34	362.49
789.522	362.49
789.703	360.44
789.884	403.45
790.065	409.59
790.246	344.06
790.427	423.93
790.607	417.79
790.788	282.62
790.969	294.91
791.15	303.1
791.331	335.87
791.512	311.29
791.693	370.68
791.874	319.48
792.054	380.92
792.235	253.95
792.416	319.48
792.597	280.57
792.778	323.58
792.958	360.44
793.139	266.24
793.32	313.34
793.5	264.19
793.681	337.91
793.862	294.91
794.042	272.38
794.223	307.2
794.404	276.48
794.584	288.76
794.765	294.91
794.945	286.72
795.126	344.06
795.306	292.86
795.487	296.96
795.667	221.18
795.848	264.19
796.028	278.52
796.209	245.76
796.389	237.56
796.57	294.91
796.75	253.95
796.93	294.91
797.111	315.39
797.291	231.42
797.471	215.04
797.652	237.56
797.832	233.47
798.012	294.91
798.192	249.85
798.373	227.32
798.553	196.61
798.733	245.76
798.913	237.56
799.093	194.56
799.274	176.13
799.454	237.56
799.634	163.84
799.814	258.04
799.994	194.56
800.174	266.24
800.354	212.99
800.534	241.66
800.714	270.33
800.894	239.61
801.074	229.37
801.254	225.28
801.434	196.61
801.614	262.14
801.794	206.84
801.974	811
802.154	208.89
802.334	178.17
802.514	202.75
802.693	278.52
802.873	204.8
803.053	253.95
803.233	204.8
803.413	174.08
803.592	100.35
803.772	172.03
803.952	237.56
804.131	186.37
804.311	208.89
804.491	272.38
804.67	192.51
804.85	180.22
805.03	253.95
805.209	217.08
805.389	165.89
805.568	200.7
805.748	192.51
805.928	288.76
806.107	260.09
806.287	204.8
806.466	198.65
806.646	83.97
806.825	126.97
807.004	208.89
807.184	188.41
807.363	196.61
807.543	229.37
807.722	143.36
807.901	192.51
808.081	258.04
808.26	81.92
808.439	141.31
808.619	151.55
808.798	227.32
808.977	208.89
809.156	172.03
809.336	167.93
809.515	270.33
809.694	174.08
809.873	141.31
810.052	126.97
810.231	155.65
810.411	114.69
810.59	253.95
810.769	188.41
810.948	196.61
811.127	135.17
811.306	131.07
811.485	157.69
811.664	198.65
811.843	194.56
812.022	165.89
812.201	157.69
812.38	157.69
812.559	159.74
812.737	206.84
812.916	149.5
813.095	86.01
813.274	124.93
813.453	92.16
813.632	124.93
813.811	233.47
813.989	73.73
814.168	151.55
814.347	163.84
814.526	165.89
814.704	180.22
814.883	163.84
815.062	139.26
815.24	126.97
815.419	129.02
815.598	118.78
815.776	83.97
815.955	114.69
816.133	131.07
816.312	98.3
816.49	106.49
816.669	133.12
816.847	67.58
817.026	133.12
817.204	126.97
817.383	129.02
817.561	122.88
817.74	122.88
817.918	147.45
818.097	143.36
818.275	124.93
818.453	114.69
818.632	159.74
818.81	188.41
818.988	34.82
819.167	24.58
819.345	92.16
819.523	65.54
819.701	81.92
819.879	167.93
820.058	135.17
820.236	69.63
820.414	77.82
820.592	20.48
820.77	61.44
820.948	145.41
821.127	65.54
821.305	155.65
821.483	57.34
821.661	114.69
821.839	67.58
822.017	77.82
822.195	122.88
822.373	79.87
822.551	135.17
822.729	110.59
822.907	43.01
823.085	163.84
823.262	133.12
823.44	49.15
823.618	126.97
823.796	79.87
823.974	139.26
824.152	143.36
824.329	71.68
824.507	141.31
824.685	141.31
824.863	139.26
825.04	40.96
825.218	159.74
825.396	73.73
825.574	98.3
825.751	112.64
825.929	59.39
826.107	77.82
826.284	184.32
826.462	100.35
826.639	24.58
826.817	34.82
826.994	133.12
827.172	36.86
827.349	108.54
827.527	122.88
827.704	71.68
827.882	40.96
828.059	43.01
828.237	55.3
828.414	229.37
828.591	-14.34
828.769	108.54
828.946	83.97
829.124	96.25
829.301	114.69
829.478	145.41
829.655	81.92
829.833	141.31
830.01	65.54
830.187	98.3
830.364	65.54
830.542	118.78
830.719	73.73
830.896	51.2
831.073	55.3
831.25	102.4
831.427	77.82
831.604	14.34
831.782	16.38
831.959	16.38
832.136	77.82
832.313	131.07
832.49	83.97
832.667	100.35
832.844	94.21
833.021	118.78
833.198	53.25
833.374	137.21
833.551	45.06
833.728	141.31
833.905	131.07
834.082	24.58
834.259	65.54
834.436	16.38
834.612	22.53
834.789	49.15
834.966	114.69
835.143	102.4
835.319	38.91
835.496	133.12
835.673	98.3
835.85	30.72
836.026	59.39
836.203	83.97
836.38	12.29
836.556	8.19
836.733	8.19
836.909	169.98
837.086	77.82
837.262	92.16
837.439	75.77
837.616	69.63
837.792	28.67
837.968	90.11
838.145	-28.67
838.321	73.73
838.498	110.59
838.674	122.88
838.851	122.88
839.027	61.44
839.203	94.21
839.38	88.06
839.556	40.96
839.732	102.4
839.909	63.49
840.085	81.92
840.261	-22.53
840.437	-12.29
840.614	67.58
840.79	98.3
840.966	83.97
841.142	8.19
841.318	8.19
841.494	126.97
841.671	8.19
841.847	69.63
842.023	-36.86
842.199	88.06
842.375	120.83
842.551	-51.2
842.727	-4.1
842.903	110.59
843.079	40.96
843.255	106.49
843.431	65.54
843.607	47.1
843.783	67.58
843.959	16.38
844.134	45.06
844.31	57.34
844.486	34.82
844.662	45.06
844.838	40.96
845.013	51.2
845.189	65.54
845.365	61.44
845.541	2.05
845.716	73.73
845.892	59.39
846.068	32.77
846.244	30.72
846.419	61.44
846.595	61.44
846.77	57.34
846.946	4.1
847.122	81.92
847.297	-8.19
847.473	104.45
847.648	-2.05
847.824	83.97
847.999	20.48
848.175	32.77
848.35	71.68
848.526	98.3
848.701	40.96
848.876	49.15
849.052	28.67
849.227	92.16
849.403	24.58
849.578	49.15
849.753	81.92
849.929	73.73
850.104	16.38
850.279	-40.96
850.454	67.58
850.63	36.86
850.805	112.64
850.98	-65.53
851.155	-20.48
851.33	67.58
851.505	-20.48
851.681	28.67
851.856	10.24
852.031	18.43
852.206	-14.34
852.381	63.49
852.556	34.82
852.731	16.38
852.906	45.06
853.081	43.01
853.256	43.01
853.431	16.38
853.606	26.62
853.781	-79.87
853.956	34.82
854.131	59.39
854.305	43.01
854.48	24.58
854.655	-4.1
854.83	51.2
855.005	69.63
855.18	57.34
855.354	24.58
855.529	10.24
855.704	-106.49
855.879	65.54
856.053	36.86
856.228	51.2
856.403	69.63
856.577	4.1
856.752	-53.25
856.926	18.43
857.101	-8.19
857.276	-32.77
857.45	34.82
857.625	45.06
857.799	30.72
857.974	18.43
858.148	-34.82
858.323	-40.96
858.497	16.38
858.672	10.24
858.846	32.77
859.02	22.53
859.195	-22.53
859.369	26.62
859.543	83.97
859.718	51.2
859.892	-12.29
860.066	51.2
860.241	8.19
860.415	73.73
860.589	71.68
860.763	40.96
860.938	-55.3
861.112	28.67
861.286	-20.48
861.46	75.77
861.634	-16.38
861.808	38.91
861.982	16.38
862.157	-49.15
862.331	12.29
862.505	57.34
862.679	32.77
862.853	28.67
863.027	88.06
863.201	94.21
863.375	40.96
863.549	49.15
863.722	8.19
863.896	81.92
864.07	0
864.244	0
864.418	51.2
864.592	45.06
864.766	53.25
864.939	59.39
865.113	-40.96
865.287	20.48
865.461	-4.1
865.634	45.06
865.808	10.24
865.982	-22.53
866.156	-2.05
866.329	-98.3
866.503	40.96
866.676	40.96
866.85	110.59
867.024	-8.19
867.197	36.86
867.371	45.06
867.544	20.48
867.718	-63.49
867.891	-8.19
868.065	36.86
868.238	2.05
868.412	57.34
868.585	28.67
868.759	-18.43
868.932	-20.48
869.105	-49.15
869.279	-57.34
869.452	16.38
869.625	-32.77
869.799	38.91
869.972	40.96
870.145	20.48
870.319	-4.1
870.492	32.77
870.665	-30.72
870.838	-55.3
871.011	-100.35
871.185	-14.34
871.358	36.86
871.531	16.38
871.704	30.72
871.877	30.72
872.05	-8.19
872.223	-2.05
872.396	-24.58
872.569	47.1
872.742	40.96
872.915	59.39
873.088	6.14
873.261	-6.14
873.434	30.72
873.607	-16.38
873.78	51.2
873.953	-14.34
874.126	53.25
874.299	65.54
874.471	-16.38
874.644	36.86
874.817	65.54
874.99	104.45
875.163	26.62
875.335	59.39
875.508	-40.96
875.681	18.43
875.853	12.29
876.026	-10.24
876.199	-18.43
876.371	24.58
876.544	-24.58
876.717	18.43
876.889	18.43
877.062	-8.19
877.234	40.96
877.407	2.05
877.579	40.96
877.752	49.15
877.924	32.77
878.097	43.01
878.269	26.62
878.442	34.82
878.614	32.77
878.786	71.68
878.959	-45.06
879.131	12.29
879.303	-14.34
879.476	-67.58
879.648	57.34
879.82	61.44
879.993	-40.96
880.165	102.4
880.337	-57.34
880.509	57.34
880.681	-43.01
880.854	73.73
881.026	-8.19
881.198	106.49
881.37	12.29
881.542	-14.34
881.714	-22.53
881.886	51.2
882.058	63.49
882.23	40.96
882.402	4.1
882.574	73.73
882.746	69.63
882.918	0
883.09	24.58
883.262	-16.38
883.434	-24.58
883.606	-49.15
883.778	-8.19
883.95	12.29
884.122	-8.19
884.293	75.77
884.465	-32.77
884.637	90.11
884.809	28.67
884.98	55.3
885.152	12.29
885.324	10.24
885.496	-4.1
885.667	43.01
885.839	-26.62
886.011	106.49
886.182	20.48
886.354	86.01
886.525	45.06
886.697	0
886.869	2.05
887.04	20.48
887.212	-88.06
887.383	81.92
887.555	-8.19
887.726	12.29
887.897	0
888.069	36.86
888.24	24.58
888.412	8.19
888.583	-8.19
888.754	20.48
888.926	-57.34
889.097	47.1
889.268	14.34
889.44	34.82
889.611	24.58
889.782	8.19
889.953	-24.58
890.125	67.58
890.296	-6.14
890.467	116.73
890.638	-71.68
890.809	-8.19
890.98	30.72
891.151	90.11
891.323	69.63
891.494	45.06
891.665	4.1
891.836	-4.1
892.007	26.62
892.178	2.05
892.349	-2.05
892.52	-4.1
892.691	65.54
892.862	16.38
893.032	4.1
893.203	30.72
893.374	24.58
893.545	40.96
893.716	-32.77
893.887	90.11
894.057	10.24
894.228	59.39
894.399	-49.15
894.57	12.29
894.74	-22.53
894.911	45.06
895.082	20.48
895.253	-8.19
895.423	24.58
895.594	32.77
895.764	-36.86
895.935	-16.38
896.106	16.38
896.276	-4.1
896.447	-34.82
896.617	-28.67
896.788	10.24
896.958	16.38
897.129	-88.06
897.299	12.29
897.47	98.3
897.64	16.38
897.81	14.34
897.981	28.67
898.151	-16.38
898.322	-53.25
898.492	-43.01
898.662	-49.15
898.832	8.19
899.003	92.16
899.173	18.43
899.343	-51.2
899.513	40.96
