Data from USB4F104151__184__14-45-08-072.txt Node

Date: Thu Mar 13 14:45:08 EDT 2025
User: louis
Spectrometer: USB4F10415
Trigger mode: 4
Integration Time (sec): 2.000000E-2
Scans to average: 1
Electric dark correction enabled: true
Nonlinearity correction enabled: false
Boxcar width: 0
XAxis mode: Wavelengths
Number of Pixels in Spectrum: 3648
>>>>>Begin Spectral Data<<<<<
178.204	-71.68
178.424	-71.68
178.644	-71.68
178.864	-116.73
179.084	-102.4
179.304	10.24
179.524	8.19
179.744	0
179.964	26.62
180.184	-40.96
180.404	12.29
180.624	-34.82
180.844	-10.24
181.064	2.05
181.283	28.67
181.503	-32.77
181.723	30.72
181.943	14.34
182.163	79.87
182.383	-8.19
182.602	47.1
182.822	63.49
183.042	14.34
183.262	32.77
183.482	75.77
183.701	24.58
183.921	6.14
184.141	-43.01
184.361	79.87
184.58	-10.24
184.8	10.24
185.02	26.62
185.239	-6.14
185.459	45.06
185.679	22.53
185.898	-18.43
186.118	100.35
186.338	63.49
186.557	83.97
186.777	65.54
186.997	38.91
187.216	65.54
187.436	114.69
187.655	14.34
187.875	-6.14
188.095	38.91
188.314	49.15
188.534	96.25
188.753	22.53
188.973	67.58
189.192	32.77
189.412	69.63
189.631	-10.24
189.851	51.2
190.07	47.1
190.29	-16.38
190.509	8.19
190.729	22.53
190.948	49.15
191.168	122.88
191.387	57.34
191.607	22.53
191.826	14.34
192.045	32.77
192.265	131.07
192.484	40.96
192.704	-26.62
192.923	-40.96
193.142	47.1
193.362	53.25
193.581	32.77
193.8	47.1
194.02	106.49
194.239	26.62
194.458	22.53
194.678	30.72
194.897	38.91
195.116	47.1
195.335	22.53
195.555	38.91
195.774	38.91
195.993	36.86
196.212	-51.2
196.432	51.2
196.651	6.14
196.87	83.97
197.089	178.17
197.308	-10.24
197.528	63.49
197.747	-2.05
197.966	126.97
198.185	122.88
198.404	34.82
198.623	14.34
198.842	32.77
199.062	104.45
199.281	88.06
199.5	34.82
199.719	165.89
199.938	49.15
200.157	104.45
200.376	22.53
200.595	88.06
200.814	77.82
201.033	49.15
201.252	55.3
201.471	2.05
201.69	-2.05
201.909	71.68
202.128	43.01
202.347	90.11
202.566	14.34
202.785	14.34
203.004	20.48
203.223	49.15
203.442	-53.25
203.661	-6.14
203.879	22.53
204.098	114.69
204.317	30.72
204.536	81.92
204.755	71.68
204.974	63.49
205.193	112.64
205.411	75.77
205.63	63.49
205.849	100.35
206.068	-12.29
206.287	67.58
206.505	145.41
206.724	40.96
206.943	114.69
207.162	-2.05
207.381	43.01
207.599	10.24
207.818	63.49
208.037	71.68
208.255	-34.82
208.474	-36.86
208.693	71.68
208.911	22.53
209.13	40.96
209.349	38.91
209.567	88.06
209.786	65.54
210.005	122.88
210.223	40.96
210.442	-6.14
210.661	51.2
210.879	67.58
211.098	-47.1
211.316	61.44
211.535	30.72
211.753	71.68
211.972	49.15
212.191	88.06
212.409	79.87
212.628	26.62
212.846	-32.77
213.065	122.88
213.283	122.88
213.502	63.49
213.72	30.72
213.938	14.34
214.157	61.44
214.375	92.16
214.594	38.91
214.812	59.39
215.031	49.15
215.249	-43.01
215.467	-10.24
215.686	40.96
215.904	10.24
216.122	28.67
216.341	71.68
216.559	-6.14
216.778	55.3
216.996	51.2
217.214	67.58
217.432	67.58
217.651	73.73
217.869	-34.82
218.087	47.1
218.306	45.06
218.524	-26.62
218.742	43.01
218.96	-6.14
219.179	86.01
219.397	38.91
219.615	71.68
219.833	126.97
220.051	24.58
220.27	30.72
220.488	71.68
220.706	30.72
220.924	2.05
221.142	-43.01
221.36	43.01
221.578	-47.1
221.796	10.24
222.015	90.11
222.233	6.14
222.451	63.49
222.669	98.3
222.887	71.68
223.105	14.34
223.323	73.73
223.541	14.34
223.759	49.15
223.977	14.34
224.195	88.06
224.413	43.01
224.631	30.72
224.849	47.1
225.067	137.21
225.285	22.53
225.503	96.25
225.721	30.72
225.939	22.53
226.157	20.48
226.375	149.5
226.592	53.25
226.81	63.49
227.028	26.62
227.246	92.16
227.464	6.14
227.682	88.06
227.9	47.1
228.117	88.06
228.335	79.87
228.553	63.49
228.771	57.34
228.989	137.21
229.206	-18.43
229.424	-10.24
229.642	6.14
229.86	28.67
230.077	96.25
230.295	-32.77
230.513	22.53
230.731	57.34
230.948	38.91
231.166	59.39
231.384	10.24
231.601	79.87
231.819	59.39
232.037	30.72
232.254	6.14
232.472	40.96
232.689	40.96
232.907	12.29
233.125	-26.62
233.342	30.72
233.56	18.43
233.777	-34.82
233.995	43.01
234.213	47.1
234.43	12.29
234.648	63.49
234.865	43.01
235.083	71.68
235.3	10.24
235.518	16.38
235.735	106.49
235.953	55.3
236.17	-10.24
236.388	16.38
236.605	-10.24
236.822	55.3
237.04	104.45
237.257	79.87
237.475	16.38
237.692	2.05
237.909	-6.14
238.127	-8.19
238.344	30.72
238.562	-10.24
238.779	28.67
238.996	16.38
239.214	-14.34
239.431	49.15
239.648	-12.29
239.865	77.82
240.083	100.35
240.3	-2.05
240.517	0
240.735	-24.58
240.952	51.2
241.169	16.38
241.386	106.49
241.603	18.43
241.821	6.14
242.038	71.68
242.255	55.3
242.472	-2.05
242.689	8.19
242.907	53.25
243.124	75.77
243.341	2.05
243.558	57.34
243.775	-24.58
243.992	12.29
244.209	10.24
244.426	55.3
244.643	43.01
244.86	-26.62
245.078	47.1
245.295	24.58
245.512	38.91
245.729	-12.29
245.946	40.96
246.163	18.43
246.38	55.3
246.597	18.43
246.814	59.39
247.031	45.06
247.248	-30.72
247.464	45.06
247.681	71.68
247.898	24.58
248.115	14.34
248.332	-6.14
248.549	96.25
248.766	120.83
248.983	67.58
249.2	18.43
249.417	16.38
249.633	-14.34
249.85	67.58
250.067	51.2
250.284	43.01
250.501	49.15
250.717	51.2
250.934	32.77
251.151	47.1
251.368	57.34
251.585	16.38
251.801	63.49
252.018	63.49
252.235	122.88
252.451	-34.82
252.668	88.06
252.885	57.34
253.102	8.19
253.318	57.34
253.535	32.77
253.752	-20.48
253.968	8.19
254.185	16.38
254.401	65.54
254.618	10.24
254.835	0
255.051	71.68
255.268	47.1
255.484	79.87
255.701	67.58
255.917	63.49
256.134	28.67
256.351	-2.05
256.567	57.34
256.784	57.34
257	14.34
257.217	106.49
257.433	55.3
257.65	83.97
257.866	75.77
258.082	16.38
258.299	65.54
258.515	-6.14
258.732	77.82
258.948	26.62
259.165	14.34
259.381	55.3
259.597	6.14
259.814	71.68
260.03	96.25
260.246	6.14
260.463	32.77
260.679	32.77
260.895	28.67
261.112	4.1
261.328	63.49
261.544	47.1
261.761	129.02
261.977	43.01
262.193	-16.38
262.409	98.3
262.626	18.43
262.842	96.25
263.058	-32.77
263.274	92.16
263.49	-6.14
263.707	45.06
263.923	-4.1
264.139	-26.62
264.355	55.3
264.571	49.15
264.787	94.21
265.004	104.45
265.22	24.58
265.436	59.39
265.652	36.86
265.868	40.96
266.084	92.16
266.3	104.45
266.516	55.3
266.732	47.1
266.948	38.91
267.164	43.01
267.38	30.72
267.596	40.96
267.812	16.38
268.028	-4.1
268.244	-16.38
268.46	79.87
268.676	-4.1
268.892	47.1
269.108	40.96
269.324	79.87
269.54	16.38
269.756	55.3
269.972	-32.77
270.188	30.72
270.403	-49.15
270.619	-6.14
270.835	38.91
271.051	59.39
271.267	67.58
271.483	38.91
271.698	43.01
271.914	71.68
272.13	22.53
272.346	24.58
272.562	86.01
272.777	63.49
272.993	83.97
273.209	14.34
273.425	86.01
273.64	-34.82
273.856	59.39
274.072	10.24
274.287	28.67
274.503	61.44
274.719	110.59
274.934	-2.05
275.15	-18.43
275.366	47.1
275.581	-2.05
275.797	43.01
276.012	112.64
276.228	75.77
276.444	6.14
276.659	118.78
276.875	43.01
277.09	28.67
277.306	8.19
277.521	14.34
277.737	47.1
277.952	75.77
278.168	32.77
278.383	75.77
278.599	24.58
278.814	49.15
279.03	-45.06
279.245	22.53
279.461	96.25
279.676	118.78
279.892	-22.53
280.107	73.73
280.322	32.77
280.538	10.24
280.753	79.87
280.969	55.3
281.184	32.77
281.399	69.63
281.615	67.58
281.83	63.49
282.045	63.49
282.26	49.15
282.476	10.24
282.691	49.15
282.906	14.34
283.122	114.69
283.337	10.24
283.552	63.49
283.767	2.05
283.983	100.35
284.198	-2.05
284.413	40.96
284.628	8.19
284.843	63.49
285.058	14.34
285.274	38.91
285.489	57.34
285.704	63.49
285.919	-51.2
286.134	88.06
286.349	-8.19
286.564	79.87
286.779	34.82
286.995	30.72
287.21	10.24
287.425	79.87
287.64	92.16
287.855	96.25
288.07	-8.19
288.285	112.64
288.5	55.3
288.715	69.63
288.93	30.72
289.145	59.39
289.36	69.63
289.575	69.63
289.79	92.16
290.004	28.67
290.219	65.54
290.434	22.53
290.649	-2.05
290.864	8.19
291.079	-59.39
291.294	6.14
291.509	65.54
291.724	47.1
291.938	71.68
292.153	57.34
292.368	-16.38
292.583	86.01
292.798	90.11
293.012	-6.14
293.227	88.06
293.442	22.53
293.657	30.72
293.871	26.62
294.086	-2.05
294.301	57.34
294.516	129.02
294.73	38.91
294.945	18.43
295.16	14.34
295.374	104.45
295.589	53.25
295.804	77.82
296.018	26.62
296.233	129.02
296.447	149.5
296.662	14.34
296.877	100.35
297.091	122.88
297.306	96.25
297.52	94.21
297.735	14.34
297.949	40.96
298.164	129.02
298.378	53.25
298.593	-18.43
298.807	30.72
299.022	92.16
299.236	63.49
299.451	55.3
299.665	71.68
299.88	79.87
300.094	-32.77
300.309	32.77
300.523	96.25
300.737	24.58
300.952	16.38
301.166	86.01
301.381	14.34
301.595	22.53
301.809	96.25
302.024	55.3
302.238	8.19
302.452	131.07
302.667	-43.01
302.881	96.25
303.095	129.02
303.309	-18.43
303.524	34.82
303.738	10.24
303.952	22.53
304.166	145.41
304.381	22.53
304.595	71.68
304.809	34.82
305.023	47.1
305.237	-24.58
305.452	-4.1
305.666	90.11
305.88	79.87
306.094	71.68
306.308	55.3
306.522	49.15
306.736	57.34
306.95	92.16
307.164	14.34
307.379	47.1
307.593	120.83
307.807	57.34
308.021	108.54
308.235	-10.24
308.449	75.77
308.663	124.93
308.877	112.64
309.091	59.39
309.305	75.77
309.519	-14.34
309.733	90.11
309.947	-34.82
310.161	26.62
310.374	79.87
310.588	71.68
310.802	6.14
311.016	-57.34
311.23	90.11
311.444	40.96
311.658	88.06
311.872	63.49
312.085	120.83
312.299	55.3
312.513	-49.15
312.727	59.39
312.941	90.11
313.154	10.24
313.368	22.53
313.582	-2.05
313.796	71.68
314.009	112.64
314.223	83.97
314.437	51.2
314.651	30.72
314.864	38.91
315.078	55.3
315.292	-26.62
315.505	26.62
315.719	0
315.933	69.63
316.146	-34.82
316.36	65.54
316.573	116.73
316.787	14.34
317.001	59.39
317.214	63.49
317.428	8.19
317.641	10.24
317.855	-6.14
318.068	92.16
318.282	43.01
318.495	22.53
318.709	69.63
318.922	32.77
319.136	186.37
319.349	129.02
319.563	2.05
319.776	-4.1
319.99	18.43
320.203	40.96
320.417	-26.62
320.63	43.01
320.843	53.25
321.057	63.49
321.27	79.87
321.483	67.58
321.697	36.86
321.91	40.96
322.124	47.1
322.337	38.91
322.55	75.77
322.763	65.54
322.977	38.91
323.19	43.01
323.403	22.53
323.617	10.24
323.83	153.6
324.043	49.15
324.256	120.83
324.469	36.86
324.683	40.96
324.896	81.92
325.109	73.73
325.322	18.43
325.535	100.35
325.748	30.72
325.962	67.58
326.175	-26.62
326.388	63.49
326.601	81.92
326.814	53.25
327.027	47.1
327.24	40.96
327.453	38.91
327.666	79.87
327.879	129.02
328.092	18.43
328.305	49.15
328.518	118.78
328.731	49.15
328.944	71.68
329.157	57.34
329.37	-30.72
329.583	96.25
329.796	45.06
330.009	51.2
330.222	30.72
330.435	114.69
330.648	65.54
330.861	6.14
331.073	55.3
331.286	38.91
331.499	24.58
331.712	26.62
331.925	-20.48
332.138	69.63
332.35	16.38
332.563	26.62
332.776	77.82
332.989	-2.05
333.202	83.97
333.414	22.53
333.627	61.44
333.84	55.3
334.053	163.84
334.265	38.91
334.478	-18.43
334.691	83.97
334.903	81.92
335.116	71.68
335.329	10.24
335.541	81.92
335.754	71.68
335.966	43.01
336.179	86.01
336.392	-32.77
336.604	57.34
336.817	73.73
337.029	151.55
337.242	-47.1
337.454	106.49
337.667	63.49
337.88	65.54
338.092	14.34
338.305	112.64
338.517	-6.14
338.729	88.06
338.942	30.72
339.154	40.96
339.367	43.01
339.579	47.1
339.792	47.1
340.004	126.97
340.217	-18.43
340.429	94.21
340.641	47.1
340.854	55.3
341.066	34.82
341.278	124.93
341.491	77.82
341.703	32.77
341.915	71.68
342.128	104.45
342.34	45.06
342.552	49.15
342.764	112.64
342.977	71.68
343.189	92.16
343.401	30.72
343.613	-12.29
343.826	71.68
344.038	135.17
344.25	88.06
344.462	47.1
344.674	57.34
344.886	108.54
345.099	47.1
345.311	59.39
345.523	0
345.735	10.24
345.947	98.3
346.159	122.88
346.371	104.45
346.583	104.45
346.795	55.3
347.007	71.68
347.219	71.68
347.431	73.73
347.643	104.45
347.855	53.25
348.067	133.12
348.279	71.68
348.491	71.68
348.703	49.15
348.915	63.49
349.127	71.68
349.339	59.39
349.551	63.49
349.763	75.77
349.975	71.68
350.187	98.3
350.399	92.16
350.61	-26.62
350.822	-6.14
351.034	69.63
351.246	-6.14
351.458	120.83
351.669	-32.77
351.881	88.06
352.093	55.3
352.305	43.01
352.517	73.73
352.728	36.86
352.94	63.49
353.152	47.1
353.363	49.15
353.575	75.77
353.787	114.69
353.999	96.25
354.21	108.54
354.422	-2.05
354.633	16.38
354.845	88.06
355.057	51.2
355.268	90.11
355.48	77.82
355.692	79.87
355.903	12.29
356.115	-14.34
356.326	-10.24
356.538	73.73
356.749	38.91
356.961	129.02
357.172	-40.96
357.384	63.49
357.595	73.73
357.807	-26.62
358.018	47.1
358.23	32.77
358.441	100.35
358.653	55.3
358.864	26.62
359.075	32.77
359.287	32.77
359.498	122.88
359.709	81.92
359.921	18.43
360.132	34.82
360.344	57.34
360.555	2.05
360.766	92.16
360.977	55.3
361.189	81.92
361.4	-26.62
361.611	63.49
361.823	100.35
362.034	79.87
362.245	51.2
362.456	98.3
362.667	88.06
362.879	40.96
363.09	49.15
363.301	124.93
363.512	71.68
363.723	16.38
363.935	90.11
364.146	32.77
364.357	47.1
364.568	61.44
364.779	-53.25
364.99	38.91
365.201	-2.05
365.412	88.06
365.623	30.72
365.834	116.73
366.045	12.29
366.256	90.11
366.467	137.21
366.678	-2.05
366.889	-4.1
367.1	6.14
367.311	98.3
367.522	28.67
367.733	137.21
367.944	63.49
368.155	79.87
368.366	18.43
368.577	92.16
368.788	81.92
368.999	47.1
369.209	75.77
369.42	110.59
369.631	81.92
369.842	81.92
370.053	55.3
370.264	38.91
370.474	10.24
370.685	38.91
370.896	51.2
371.107	73.73
371.317	55.3
371.528	79.87
371.739	71.68
371.95	112.64
372.16	106.49
372.371	10.24
372.582	28.67
372.792	83.97
373.003	-14.34
373.214	83.97
373.424	-20.48
373.635	6.14
373.846	178.17
374.056	28.67
374.267	18.43
374.477	34.82
374.688	26.62
374.898	43.01
375.109	145.41
375.319	30.72
375.53	2.05
375.74	112.64
375.951	22.53
376.161	51.2
376.372	98.3
376.582	57.34
376.793	59.39
377.003	96.25
377.214	51.2
377.424	81.92
377.635	79.87
377.845	61.44
378.055	73.73
378.266	8.19
378.476	-6.14
378.686	30.72
378.897	118.78
379.107	153.6
379.317	71.68
379.528	104.45
379.738	88.06
379.948	12.29
380.158	120.83
380.369	51.2
380.579	88.06
380.789	75.77
380.999	55.3
381.21	49.15
381.42	30.72
381.63	120.83
381.84	63.49
382.05	86.01
382.261	24.58
382.471	59.39
382.681	108.54
382.891	51.2
383.101	100.35
383.311	12.29
383.521	47.1
383.731	114.69
383.941	104.45
384.151	-16.38
384.361	92.16
384.571	71.68
384.781	94.21
384.991	176.13
385.201	190.46
385.411	141.31
385.621	96.25
385.831	40.96
386.041	77.82
386.251	12.29
386.461	104.45
386.671	-2.05
386.881	79.87
387.091	67.58
387.301	120.83
387.511	30.72
387.72	92.16
387.93	38.91
388.14	57.34
388.35	26.62
388.56	178.17
388.769	38.91
388.979	57.34
389.189	65.54
389.399	49.15
389.609	79.87
389.818	118.78
390.028	2.05
390.238	-16.38
390.447	47.1
390.657	114.69
390.867	34.82
391.076	38.91
391.286	32.77
391.496	94.21
391.705	71.68
391.915	63.49
392.125	100.35
392.334	49.15
392.544	49.15
392.753	104.45
392.963	14.34
393.172	88.06
393.382	59.39
393.591	83.97
393.801	75.77
394.01	161.79
394.22	55.3
394.429	63.49
394.639	67.58
394.848	114.69
395.058	139.26
395.267	81.92
395.477	120.83
395.686	100.35
395.895	96.25
396.105	145.41
396.314	143.36
396.524	96.25
396.733	102.4
396.942	116.73
397.152	98.3
397.361	176.13
397.57	96.25
397.78	98.3
397.989	141.31
398.198	163.84
398.407	186.37
398.617	112.64
398.826	114.69
399.035	79.87
399.244	180.22
399.453	141.31
399.663	120.83
399.872	122.88
400.081	141.31
400.29	194.56
400.499	104.45
400.708	190.46
400.917	129.02
401.127	112.64
401.336	90.11
401.545	198.65
401.754	90.11
401.963	120.83
402.172	157.69
402.381	22.53
402.59	120.83
402.799	114.69
403.008	124.93
403.217	149.5
403.426	131.07
403.635	106.49
403.844	135.17
404.053	178.17
404.262	194.56
404.471	157.69
404.68	120.83
404.888	139.26
405.097	38.91
405.306	186.37
405.515	202.75
405.724	165.89
405.933	206.84
406.142	178.17
406.35	256
406.559	202.75
406.768	260.09
406.977	210.94
407.185	253.95
407.394	227.32
407.603	215.04
407.812	229.37
408.02	264.19
408.229	288.76
408.438	215.04
408.646	237.56
408.855	272.38
409.064	262.14
409.272	227.32
409.481	344.06
409.69	276.48
409.898	245.76
410.107	313.34
410.315	348.15
410.524	358.39
410.733	479.22
410.941	313.34
411.15	354.3
411.358	409.59
411.567	335.87
411.775	403.45
411.984	481.27
412.192	507.9
412.401	456.7
412.609	483.32
412.818	505.85
413.026	516.09
413.234	559.1
413.443	548.86
413.651	708.6
413.86	604.15
414.068	655.35
414.276	702.45
414.485	677.88
414.693	677.88
414.901	753.65
415.11	731.12
415.318	718.84
415.526	794.61
415.734	940.02
415.943	829.43
416.151	890.87
416.359	899.06
416.567	948.21
416.776	946.16
416.984	1046.51
417.192	1038.32
417.4	1095.66
417.608	1005.55
417.817	1038.32
418.025	1140.72
418.233	1327.08
418.441	1216.49
418.649	1259.5
418.857	1343.47
419.065	1439.72
419.273	1251.31
419.481	1429.48
419.689	1433.58
419.897	1621.99
420.105	1597.42
420.313	1679.33
420.521	1728.49
420.729	1728.49
420.937	1673.19
421.145	1906.66
421.353	1974.24
421.561	1955.81
421.769	2090.98
421.977	2222.05
422.185	2164.7
422.393	2246.62
422.601	2357.21
422.809	2430.94
423.017	2473.95
423.224	2549.72
423.432	2521.05
423.64	2635.74
423.848	2904.02
424.056	2711.51
424.263	2959.31
424.471	3096.53
424.679	3082.19
424.887	3178.45
425.094	3352.52
425.302	3258.32
425.51	3373
425.718	3616.71
425.925	3434.44
426.133	3751.88
426.341	3889.09
426.548	4136.9
426.756	4081.6
426.964	4257.73
427.171	4470.72
427.379	4505.53
427.586	4509.63
427.794	4642.75
428.001	4947.89
428.209	5226.42
428.417	5117.87
428.624	5214.13
428.832	5504.94
429.039	5287.86
429.247	5420.97
429.454	5705.64
429.662	6457.25
429.869	5728.17
430.076	6199.2
430.284	6059.94
430.491	6348.7
430.699	6733.72
430.906	6680.47
431.114	6836.12
431.321	6963.09
431.528	7282.58
431.736	7557
431.943	7950.21
432.15	7647.12
432.358	8167.3
432.565	8269.7
432.772	8173.44
432.979	8658.81
433.187	8853.37
433.394	8855.42
433.601	9549.68
433.808	9447.28
434.016	9179
434.223	9641.84
434.43	10458.98
434.637	9981.8
434.844	10962.78
435.052	11044.7
435.259	10919.77
435.466	10919.77
435.673	11020.12
435.88	11689.81
436.087	12111.69
436.294	12177.22
436.501	11847.5
436.708	12300.1
436.915	12808
437.122	13098.81
437.329	12851
437.537	13641.52
437.743	13696.81
437.95	13561.65
438.157	14493.47
438.364	14739.23
438.571	14747.42
438.778	15003.42
438.985	16207.62
439.192	15546.13
439.399	16297.74
439.606	15697.68
439.813	16727.81
440.02	17749.75
440.227	17059.58
440.433	17084.16
440.64	17825.52
440.847	17848.05
441.054	18185.96
441.261	19316.44
441.467	18910.94
441.674	19619.54
441.881	19994.32
442.088	19994.32
442.294	19783.38
442.501	20397.77
442.708	20723.4
442.914	21657.27
443.121	22609.58
443.328	21806.77
443.534	23406.23
443.741	22726.31
443.948	22392.49
444.154	24260.24
444.361	23834.26
444.568	24428.17
444.774	23871.12
444.981	24247.95
445.187	25347.71
445.394	25972.34
445.6	26017.4
445.807	28282.45
446.013	27250.27
446.22	27436.64
446.426	28685.9
446.633	28864.07
446.839	29677.12
447.046	28606.03
447.252	30250.55
447.459	30170.68
447.665	30197.3
447.871	31114.79
448.078	32771.6
448.284	31475.23
448.491	32405.01
448.697	33379.84
448.903	34072.06
449.11	34098.68
449.316	33701.37
449.522	34598.38
449.728	34989.55
449.935	35335.65
450.141	35716.57
450.347	36453.84
450.553	34995.69
450.76	35829.21
450.966	36847.05
451.172	36296.15
451.378	37660.1
451.584	36695.5
451.791	37311.94
451.997	37395.91
452.203	38284.73
452.409	38303.16
452.615	37799.36
452.821	36693.46
453.027	36195.8
453.233	38059.45
453.44	36687.31
453.646	37318.09
453.852	37066.19
454.058	38118.84
454.264	36873.68
454.47	37780.93
454.676	36595.15
454.882	38026.68
455.088	35022.31
455.294	35245.54
455.5	35937.76
455.705	36111.83
455.911	34788.85
456.117	34287.09
456.323	33641.98
456.529	32013.85
456.735	33650.17
456.941	32448.02
457.147	31897.11
457.352	31241.76
457.558	30942.76
457.764	30963.24
457.97	30553.65
458.176	29851.19
458.381	29744.7
458.587	28530.25
458.793	28067.41
458.999	26883.69
459.204	28724.81
459.41	28026.45
459.616	26433.13
459.821	26156.66
460.027	26095.22
460.233	25620.09
460.438	24426.12
460.644	24491.66
460.85	23703.19
461.055	23244.45
461.261	23240.35
461.466	21409.47
461.672	20784.83
461.878	22529.7
462.083	20774.6
462.289	20532.93
462.494	20229.84
462.7	19422.94
462.905	18929.38
463.111	19650.26
463.316	19451.61
463.522	19009.25
463.727	19267.29
463.932	19046.11
464.138	18763.49
464.343	19103.45
464.549	18480.87
464.754	18958.05
464.959	18847.46
465.165	18753.25
465.37	18114.28
465.575	17360.63
465.781	18126.57
465.986	18169.58
466.191	17479.41
466.397	17354.49
466.602	16252.68
466.807	17010.43
467.012	17135.35
467.218	17047.29
467.423	16559.88
467.628	17082.11
467.833	17637.11
468.038	16969.47
468.244	16297.74
468.449	16924.41
468.654	16615.17
468.859	16504.58
469.064	16355.08
469.269	15767.31
469.474	15974.16
469.679	16133.9
469.885	15677.2
470.09	15865.61
470.295	15691.54
470.5	15480.6
470.705	15410.96
470.91	15085.34
471.115	15005.47
471.32	15234.84
471.525	15169.3
471.73	15056.67
471.935	14898.97
472.139	14153.51
472.344	14569.25
472.549	14284.58
472.754	14221.1
472.959	13877.04
473.164	13616.94
473.369	13428.53
473.574	13946.67
473.778	13608.75
473.983	13862.7
474.188	13569.84
474.393	13107
474.598	13133.62
474.802	12842.81
475.007	12685.12
475.212	13131.58
475.417	12412.74
475.621	12607.3
475.826	12537.66
476.031	12427.07
476.235	11943.75
476.44	12283.72
476.645	11890.51
476.849	12025.67
477.054	11753.29
477.259	11616.08
477.463	11534.16
477.668	11468.62
477.872	11499.34
478.077	11120.47
478.282	10977.11
478.486	11018.07
478.691	10700.64
478.895	10999.64
479.1	10837.85
479.304	11030.36
479.509	10245.99
479.713	10696.54
479.918	10411.87
480.122	10100.58
480.326	10336.1
480.531	10528.61
480.735	10213.22
480.94	10280.8
481.144	10413.92
481.348	10033
481.553	10053.48
481.757	9848.68
481.961	10162.02
482.166	10053.48
482.37	10041.19
482.574	10026.85
482.778	10008.42
482.983	10241.89
483.187	10033
483.391	10102.63
483.595	10112.87
483.8	9707.37
484.004	9977.7
484.208	9848.68
484.412	10051.43
484.616	9828.2
484.821	10178.4
485.025	9901.93
485.229	10028.9
485.433	9951.08
485.637	9985.9
485.841	9891.69
486.045	9928.55
486.249	9912.17
486.453	9854.83
486.657	9797.48
486.861	9983.85
487.065	9707.37
487.269	9885.55
487.473	9828.2
487.677	10094.44
487.881	10053.48
488.085	10254.18
488.289	10051.43
488.493	9877.35
488.697	10125.16
488.901	10096.49
489.105	10082.15
489.309	10035.05
489.512	10188.64
489.716	10043.24
489.92	10000.23
490.124	10094.44
490.328	10544.99
490.531	10092.39
490.735	10350.43
490.939	10248.04
491.143	10241.89
491.346	10237.8
491.55	10411.87
491.754	10432.35
491.958	10430.3
492.161	10528.61
492.365	10497.89
492.569	10622.81
492.772	10532.7
492.976	10643.29
493.18	10870.62
493.383	10895.19
493.587	10839.9
493.79	11018.07
493.994	10735.45
494.197	11226.96
494.401	11093.85
494.605	11050.84
494.808	11390.8
495.012	11411.28
495.215	11446.1
495.419	11421.52
495.622	11444.05
495.825	11806.54
496.029	11489.1
496.232	11843.4
496.436	11872.07
496.639	12146.5
496.843	11925.32
497.046	12394.31
497.249	12445.51
497.453	12511.04
497.656	12717.89
497.859	12672.83
498.063	12859.2
498.266	13201.21
498.469	13035.32
498.673	13117.24
498.876	13363
499.079	13526.83
499.282	13352.76
499.485	13846.32
499.689	13944.62
499.892	14182.18
500.095	14243.62
500.298	14526.24
500.501	14264.1
500.705	14712.61
500.908	14860.06
501.111	15177.5
501.314	15296.28
501.517	15423.25
501.72	15488.79
501.923	15472.4
502.126	15982.35
502.329	16275.21
502.532	16086.79
502.735	16135.95
502.938	16402.18
503.141	16699.14
503.344	16963.33
503.547	17229.56
503.75	17342.2
503.953	17250.04
504.156	17716.98
504.359	17911.53
504.562	17938.16
504.765	18140.91
504.968	18368.23
505.17	18722.53
505.373	18921.18
505.576	19164.89
505.779	19449.56
505.982	19326.68
506.185	19889.87
506.387	19865.3
506.59	20231.88
506.793	20494.02
506.996	20500.17
507.198	20891.33
507.401	20870.85
507.604	21274.3
507.807	21776.05
508.009	21737.14
508.212	21898.93
508.415	22068.91
508.617	22353.58
508.82	22498.98
509.022	22310.57
509.225	23049.89
509.428	22992.55
509.63	23449.24
509.833	23746.2
510.035	24282.77
510.238	23852.69
510.44	24206.99
510.643	24612.49
510.845	25036.42
511.048	24708.74
511.25	25050.75
511.453	25456.25
511.655	26189.42
511.858	26025.59
512.06	26306.16
512.262	26426.99
512.465	26330.73
512.667	27217.5
512.87	27158.11
513.072	27252.32
513.274	27711.07
513.477	27907.67
513.679	28302.93
513.881	28485.2
514.084	29124.16
514.286	28853.83
514.488	29130.31
514.69	29630.01
514.893	29886.01
515.095	30053.94
515.297	30418.48
515.499	30752.3
515.701	30733.87
515.904	31196.71
516.106	31245.86
516.308	32032.28
516.51	32058.9
516.712	32249.36
516.914	32679.44
517.116	32869.9
517.318	32990.73
517.52	33213.96
517.722	33197.57
517.925	33527.3
518.127	34328.05
518.329	34504.18
518.531	34147.83
518.733	34590.19
518.935	35204.58
519.136	35382.76
519.338	35933.66
519.54	35585.5
519.742	35935.71
519.944	36124.12
520.146	37053.9
520.348	37127.63
520.55	37357
520.752	37455.3
520.954	38051.26
521.155	37815.74
521.357	38383.03
521.559	38581.68
521.761	39081.39
521.963	38890.93
522.164	39179.69
522.366	39206.31
522.568	39882.14
522.77	39757.22
522.971	40166.81
523.173	40387.99
523.375	40535.45
523.576	40502.68
523.778	40535.45
523.98	41336.2
524.181	41383.3
524.383	41297.29
524.584	41907.58
524.786	41991.55
524.988	42096
525.189	42345.85
525.391	42304.89
525.592	42552.69
525.794	42812.79
525.995	42870.13
526.197	43003.25
526.398	43287.92
526.6	43218.28
526.801	43586.92
527.003	44043.62
527.204	43885.92
527.406	44576.09
527.607	44365.15
527.808	44316
528.01	43423.08
528.211	44746.07
528.412	45043.02
528.614	44887.38
528.815	44617.05
529.016	45264.21
529.218	44922.19
529.419	45108.56
529.62	45487.43
529.822	45208.91
530.023	45636.94
530.224	45178.19
530.425	45108.56
530.626	44879.19
530.828	45432.14
531.029	46406.97
531.23	45657.42
531.431	45516.11
531.632	45995.33
531.833	46230.85
532.035	45755.72
532.236	45706.57
532.437	46204.22
532.638	45632.84
532.839	46392.64
533.04	46038.34
533.241	45907.27
533.442	46744.89
533.643	46165.31
533.844	45976.9
534.045	46660.92
534.246	45829.44
534.447	46361.92
534.648	45915.46
534.849	46355.77
535.05	45579.59
535.251	46353.72
535.451	46271.81
535.652	46337.34
535.853	46417.21
536.054	46310.72
536.255	46613.82
536.456	45940.03
536.657	47072.56
536.857	46392.64
537.058	46374.2
537.259	46480.7
537.46	46689.59
537.66	46286.14
537.861	46482.75
538.062	46394.68
538.263	46243.13
538.463	46243.13
538.664	46083.39
538.865	46556.47
539.065	46529.85
539.266	45444.43
539.466	46216.51
539.667	45696.33
539.868	46593.34
540.068	46062.91
540.269	46048.58
540.469	46124.35
540.67	45894.98
540.87	45976.9
541.071	46198.08
541.271	46101.82
541.472	46284.09
541.672	46206.27
541.873	45956.42
542.073	45552.97
542.274	46611.77
542.474	46296.38
542.675	45716.81
542.875	46748.98
543.075	45923.65
543.276	45573.45
543.476	46466.36
543.676	46124.35
543.877	46069.06
544.077	46236.99
544.277	46062.91
544.478	45868.36
544.678	46007.62
544.878	45614.41
545.078	45804.87
545.279	45849.92
545.479	45894.98
545.679	46075.2
545.879	45638.98
546.079	45325.64
546.28	45677.89
546.48	45202.77
546.68	45886.79
546.88	45980.99
547.08	45440.33
547.28	45581.64
547.48	45505.87
547.68	45606.22
547.88	45196.62
548.081	45962.56
548.281	45837.64
548.481	45364.56
548.681	45829.44
548.881	45819.2
549.081	45663.56
549.28	45774.15
549.48	45690.18
549.68	45856.07
549.88	45935.94
550.08	45352.27
550.28	45354.32
550.48	45159.76
550.68	45581.64
550.88	44803.41
551.08	45366.6
551.279	45313.36
551.479	45000.02
551.679	44928.34
551.879	45479.24
552.079	45528.39
552.278	45106.51
552.478	45475.15
552.678	44893.52
552.878	45780.29
553.077	44938.58
553.277	44985.68
553.477	45534.54
553.676	45307.21
553.876	45139.28
554.076	44770.64
554.275	44680.53
554.475	44680.53
554.674	44995.92
554.874	45309.26
555.074	44866.9
555.273	44875.09
555.473	44959.06
555.672	44842.32
555.872	44811.6
556.071	44524.89
556.271	45149.52
556.47	44676.44
556.67	44387.67
556.869	44631.38
557.068	44733.78
557.268	44383.58
557.467	44547.42
557.667	44598.62
557.866	44293.47
558.065	44068.19
558.265	43820.39
558.464	43949.41
558.663	44367.19
558.863	43672.93
559.062	44940.63
559.261	43363.69
559.461	44367.19
559.66	43674.98
559.859	43887.97
560.058	43517.29
560.258	43756.9
560.457	43423.08
560.656	43838.82
560.855	43787.62
561.054	43879.78
561.253	43269.48
561.453	43150.7
561.652	43881.83
561.851	43539.82
562.05	43165.04
562.249	43093.36
562.448	43461.99
562.647	43171.18
562.846	42904.95
563.045	43095.41
563.244	42820.98
563.443	43298.16
563.642	42800.5
563.841	43289.96
564.04	42925.42
564.239	43132.27
564.438	42767.73
564.637	42945.9
564.836	42569.08
565.035	42382.71
565.234	42587.51
565.432	42376.57
565.631	42153.34
565.83	42253.69
566.029	42171.77
566.228	41940.35
566.427	42104.19
566.625	41796.99
566.824	41870.72
567.023	41743.75
567.222	41141.64
567.42	42007.93
567.619	41610.63
567.818	41643.4
568.016	41504.13
568.215	41811.33
568.414	41076.11
568.612	41594.25
568.811	41301.39
569.01	41299.34
569.208	40576.4
569.407	40832.4
569.605	40875.41
569.804	40879.5
570.002	40420.76
570.201	40891.79
570.4	40422.81
570.598	40015.26
570.797	39970.21
570.995	40357.27
571.193	40093.08
571.392	40609.17
571.59	39820.7
571.789	39806.37
571.987	39697.83
572.186	39908.77
572.384	39622.05
572.582	39560.61
572.781	39779.75
572.979	39310.76
573.177	39603.62
573.376	39683.49
573.574	38927.79
573.772	39294.38
573.971	39015.85
574.169	38651.31
574.367	38645.17
574.565	39304.62
574.763	38714.8
574.962	38702.51
575.16	38813.1
575.358	38413.75
575.556	38311.35
575.754	38690.23
575.952	37649.86
576.151	38337.97
576.349	37903.81
576.547	37881.28
576.745	37789.12
576.943	38096.31
577.141	38133.18
577.339	37985.72
577.537	37610.95
577.735	37606.85
577.933	37232.07
578.131	37088.71
578.329	37410.25
578.527	36607.44
578.725	37105.1
578.923	37209.54
579.121	36758.99
579.319	36761.04
579.516	37131.72
579.714	36707.79
579.912	36498.9
580.11	36333.01
580.308	36189.66
580.506	36523.47
580.704	35935.71
580.901	36365.78
581.099	36251.09
581.297	35800.54
581.495	35810.78
581.692	35902.94
581.89	35700.19
582.088	35827.17
582.285	35814.88
582.483	35857.88
582.681	35362.28
582.878	35450.34
583.076	34928.11
583.274	35325.41
583.471	34817.52
583.669	34887.15
583.866	34805.23
584.064	35003.88
584.262	34502.13
584.459	34921.96
584.657	34622.96
584.854	34631.15
585.052	33883.64
585.249	34409.97
585.447	34262.52
585.644	33932.79
585.841	34024.95
586.039	34002.43
586.236	33807.87
586.434	33656.32
586.631	33271.3
586.828	33457.67
587.026	33342.98
587.223	33242.63
587.42	33398.27
587.618	33531.39
587.815	32480.78
588.012	32966.15
588.21	33031.69
588.407	32982.54
588.604	32814.6
588.801	32411.15
588.999	32609.81
589.196	32888.33
589.393	32278.04
589.59	32312.85
589.787	32378.39
589.984	31962.65
590.182	31665.69
590.379	32112.15
590.576	31503.9
590.773	31856.15
590.97	31782.43
591.167	31856.15
591.364	31245.86
591.561	31661.6
591.758	31178.28
591.955	31211.04
592.152	31284.77
592.349	30936.62
592.546	31424.03
592.743	31149.6
592.94	30518.83
593.137	30854.7
593.334	30907.94
593.531	30639.66
593.727	30830.12
593.924	30596.65
594.121	30170.68
594.318	30391.86
594.515	29640.25
594.712	30287.41
594.908	29806.14
595.105	30285.36
595.302	29748.79
595.499	29693.5
595.696	29580.86
595.892	29404.74
596.089	29595.2
596.286	29296.19
596.482	29204.03
596.679	29111.88
596.876	29167.17
597.072	28747.34
597.269	29310.53
597.466	28751.43
597.662	28661.32
597.859	28610.12
598.055	28438.09
598.252	28552.78
598.448	28810.82
598.645	28532.3
598.841	28196.43
599.038	28155.47
599.234	28198.48
599.431	27706.97
599.627	27872.85
599.824	28085.84
600.02	27835.99
600.217	27387.49
600.413	27428.45
600.609	27315.81
600.806	27291.23
601.002	27311.71
601.198	27102.82
601.395	27108.96
601.591	27254.37
601.787	27221.6
601.984	26893.93
602.18	26990.18
602.376	27033.19
602.572	26871.4
602.769	26719.85
602.965	26277.49
603.161	26297.97
603.357	26394.22
603.553	26420.84
603.75	26717.8
603.946	26017.4
604.142	25960.05
604.338	25675.38
604.534	26001.01
604.73	25605.75
604.926	25687.67
605.122	25943.67
605.318	25564.79
605.514	25382.52
605.71	25224.83
605.906	25323.13
606.102	25503.35
606.298	25446.01
606.494	25245.31
606.69	25360
606.886	25329.28
607.082	25056.9
607.278	25224.83
607.474	24577.67
607.67	25089.67
607.866	24514.19
608.062	24796.81
608.257	24499.85
608.453	24614.54
608.649	24692.36
608.845	24434.32
609.041	24385.16
609.236	24479.37
609.432	24368.78
609.628	24100.5
609.824	24184.46
610.019	23895.7
610.215	24215.18
610.411	24237.71
610.606	23885.46
610.802	24114.83
610.998	23905.94
611.193	23850.64
611.389	23828.12
611.584	23879.32
611.78	23551.64
611.976	23592.6
612.171	23565.98
612.367	23713.43
612.562	23717.53
612.758	23305.88
612.953	23244.45
613.149	23647.9
613.344	23191.2
613.539	23633.56
613.735	23551.64
613.93	23471.77
614.126	23144.09
614.321	23402.14
614.517	23199.39
614.712	23158.43
614.907	23105.18
615.103	22990.5
615.298	23043.74
615.493	22961.83
615.688	22636.2
615.884	23191.2
616.079	22779.56
616.274	22632.1
616.47	22707.88
616.665	22947.49
616.86	22687.4
617.055	22636.2
617.25	22605.48
617.445	22722.21
617.641	21864.11
617.836	22372.01
618.031	21956.27
618.226	22382.25
618.421	22402.73
618.616	22388.39
618.811	21747.38
619.006	22173.36
619.201	21552.82
619.396	21794.48
619.591	21540.54
619.786	21690.04
619.981	21036.74
620.176	21470.9
620.371	21219
620.566	21223.1
620.761	21151.42
620.956	21163.71
621.151	20575.94
621.346	20946.62
621.541	20733.64
621.735	20838.08
621.93	20438.73
622.125	20485.83
622.32	20244.17
622.515	20438.73
622.709	20094.67
622.904	20063.95
623.099	19863.25
623.294	19855.06
623.488	19492.57
623.683	19783.38
623.878	19693.27
624.072	19461.85
624.267	19607.25
624.462	19398.36
624.656	19113.69
624.851	18956
625.046	18917.09
625.24	18726.63
625.435	18718.43
625.629	18738.91
625.824	18212.59
626.018	18435.81
626.213	17852.14
626.407	18433.77
626.602	17977.07
626.796	18169.58
626.991	17970.93
627.185	17917.68
627.38	17829.62
627.574	17377.01
627.768	17329.91
627.963	17233.66
628.157	17053.44
628.352	17276.66
628.546	17028.86
628.74	17118.97
628.935	16944.89
629.129	17104.63
629.323	16754.43
629.517	16547.59
629.712	16609.03
629.906	16398.09
630.1	16385.8
630.294	16475.91
630.489	16273.16
630.683	16226.06
630.877	15947.53
631.071	16049.93
631.265	16178.95
631.459	15886.09
631.653	15701.78
631.848	15548.18
632.042	15576.85
632.236	15705.87
632.43	15327
632.624	15378.2
632.818	15515.41
633.012	15142.68
633.206	15157.02
633.4	15048.47
633.594	14847.77
633.788	14898.97
633.982	14866.21
634.176	14987.04
634.369	14739.23
634.563	14726.94
634.757	14534.43
634.951	14518.05
635.145	14090.02
635.339	14554.91
635.533	14276.39
635.726	14124.84
635.92	13920.04
636.114	14059.31
636.308	13944.62
636.501	14006.06
636.695	13918
636.889	13827.88
637.083	13602.61
637.276	13279.03
637.47	13440.82
637.664	13436.72
637.857	13418.29
638.051	13377.33
638.244	13107
638.438	13215.54
638.632	13092.66
638.825	12900.16
639.019	13152.06
639.212	13043.51
639.406	12683.07
639.599	12744.51
639.793	12633.92
639.986	12584.77
640.18	12508.99
640.373	12330.82
640.567	12500.8
640.76	12455.75
640.954	12152.65
641.147	12207.94
641.34	12304.2
641.534	12117.83
641.727	12050.25
641.92	12085.06
642.114	11890.51
642.307	11657.04
642.5	11870.03
642.694	11454.29
642.887	11638.61
643.08	11644.75
643.273	11480.91
643.467	11517.78
643.66	11347.79
643.853	11417.43
644.046	11001.69
644.239	11288.4
644.432	11106.13
644.626	11089.75
644.819	11036.5
645.012	11077.46
645.205	10868.57
645.398	10968.92
645.591	10698.59
645.784	10895.19
645.977	10798.94
646.17	10598.24
646.363	10618.72
646.556	10258.28
646.749	10614.62
646.942	10420.06
647.135	10170.21
647.328	10346.34
647.521	10370.91
647.714	9940.84
647.907	10186.6
648.099	10012.52
648.292	10024.81
648.485	9971.56
648.678	9893.74
648.871	9664.36
649.064	9783.15
649.256	9797.48
649.449	9770.86
649.642	9469.81
649.835	9385.84
650.027	9484.14
650.22	9334.64
650.413	9396.08
650.605	9273.2
650.798	9318.26
650.991	9011.06
651.183	9140.08
651.376	9262.96
651.568	9230.2
651.761	8953.72
651.954	9090.93
652.146	8923
652.339	8918.9
652.531	8935.29
652.724	8687.48
652.916	8574.85
653.109	8875.9
653.301	8730.49
653.494	8802.17
653.686	8497.02
653.879	8644.48
654.071	8337.28
654.263	8388.48
654.456	8380.29
654.648	8261.51
654.84	8271.75
655.033	8251.27
655.225	8259.46
655.417	8294.27
655.61	8138.63
655.802	8126.34
655.994	8017.8
656.186	7982.98
656.379	7976.84
656.571	7872.39
656.763	7849.86
656.955	7724.94
657.148	7774.09
657.34	7739.27
657.532	7470.99
657.724	7606.16
657.916	7600.01
658.108	7567.24
658.3	7575.44
658.492	7370.64
658.684	7550.86
658.876	7438.22
659.068	7413.65
659.26	7298.96
659.452	7249.81
659.644	7458.7
659.836	7049.11
660.028	7034.77
660.22	6993.81
660.412	7057.3
660.604	6926.23
660.796	6903.7
660.988	7100.31
661.18	6909.85
661.372	6703
661.563	6870.94
661.755	6840.22
661.947	6733.72
662.139	6647.71
662.331	6600.6
662.522	6475.68
662.714	6623.13
662.906	6537.12
663.097	6649.75
663.289	6436.77
663.481	6391.71
663.673	6297.5
663.864	6354.85
664.056	6307.74
664.247	6332.32
664.439	6076.32
664.631	6154.15
664.822	6197.15
665.014	6195.11
665.205	6145.95
665.397	6002.6
665.588	6041.51
665.78	6080.42
665.971	6086.56
666.163	5953.45
666.354	5875.62
666.546	5898.15
666.737	5840.81
666.929	5865.38
667.12	5871.53
667.311	5746.6
667.503	5722.02
667.694	5765.03
667.885	5488.56
668.077	5799.85
668.268	5629.87
668.459	5660.59
668.651	5695.4
668.842	5404.59
669.033	5431.21
669.224	5414.83
669.416	5363.63
669.607	5461.93
669.798	5343.15
669.989	5416.88
670.18	5181.36
670.371	5248.94
670.563	5124.02
670.754	5240.75
670.945	5212.08
671.136	5210.03
671.327	5199.79
671.518	5029.81
671.709	5242.8
671.9	5076.91
672.091	5060.53
672.282	5095.35
672.473	4964.28
672.664	5015.48
672.855	5085.11
673.046	5023.67
673.237	5132.21
673.428	4956.08
673.619	4775.86
673.809	4904.89
674	4743.1
674.191	4900.79
674.382	4837.3
674.573	4798.39
674.764	4655.03
674.954	4863.93
675.145	4757.43
675.336	4822.97
675.527	4708.28
675.717	4687.8
675.908	4693.94
676.099	4667.32
676.289	4581.31
676.48	4571.07
676.671	4472.76
676.861	4767.67
677.052	4411.32
677.243	4534.2
677.433	4573.11
677.624	4495.29
677.814	4452.28
678.005	4394.94
678.195	4538.3
678.386	4380.61
678.576	4364.22
678.767	4325.31
678.957	4376.51
679.148	4413.37
679.338	4265.92
679.529	4284.35
679.719	4292.54
679.909	4396.99
680.1	4308.93
680.29	4153.28
680.481	4210.62
680.671	4421.56
680.861	4130.75
681.052	4282.3
681.242	4298.69
681.432	4188.1
681.622	4003.78
681.813	4116.42
682.003	4179.9
682.193	3987.4
682.383	4097.99
682.573	4106.18
682.764	4184
682.954	4151.23
683.144	4100.03
683.334	3923.91
683.524	4093.89
683.714	4126.66
683.904	4036.55
684.094	3962.82
684.284	3983.3
684.474	4054.98
684.664	4032.45
684.854	3954.63
685.044	3870.66
685.234	3823.56
685.424	3882.95
685.614	3733.45
685.804	3856.33
685.994	3960.77
686.184	3950.53
686.374	3925.96
686.564	3733.45
686.753	3837.89
686.943	3860.42
687.133	3696.58
687.323	3735.49
687.513	3813.32
687.702	3741.64
687.892	3692.49
688.082	3766.21
688.272	3618.76
688.461	3629
688.651	3688.39
688.841	3792.84
689.03	3622.86
689.22	3614.66
689.41	3590.09
689.599	3588.04
689.789	3512.27
689.979	3430.35
690.168	3522.51
690.358	3536.84
690.547	3487.69
690.737	3463.12
690.926	3508.17
691.116	3352.52
691.305	3405.77
691.495	3432.4
691.684	3405.77
691.874	3430.35
692.063	3356.62
692.252	3405.77
692.442	3475.4
692.631	3293.13
692.82	3416.01
693.01	3319.76
693.199	3340.24
693.388	3303.37
693.578	3149.78
693.767	3235.79
693.956	3413.96
694.146	3227.6
694.335	3186.64
694.524	3178.45
694.713	3264.46
694.902	3074
695.092	3145.68
695.281	3178.45
695.47	3241.93
695.659	3168.21
695.848	3293.13
696.037	3012.56
696.226	3164.11
696.415	3135.44
696.604	3299.28
696.793	2949.07
696.982	3057.62
697.171	3033.04
697.36	3094.48
697.549	2930.64
697.738	3057.62
697.927	2949.07
698.116	2987.99
698.305	2926.55
698.494	2957.27
698.683	2987.99
698.872	2951.12
699.061	2930.64
699.25	2955.22
699.438	2832.34
699.627	3020.75
699.816	2975.7
700.005	2938.84
700.193	2901.97
700.382	2955.22
700.571	2916.31
700.76	2895.83
700.948	2865.11
701.137	2793.43
701.326	2856.92
701.514	2711.51
701.703	2717.65
701.892	2736.09
702.08	2836.44
702.269	2766.81
702.457	2725.85
702.646	2844.63
702.834	2652.12
703.023	2834.39
703.212	2803.67
703.4	2897.88
703.589	2775
703.777	2791.38
703.965	2676.7
704.154	2834.39
704.342	2758.61
704.531	2660.31
704.719	2602.97
704.907	2783.19
705.096	2607.06
705.284	2748.37
705.472	2744.28
705.661	2652.12
705.849	2684.89
706.037	2701.27
706.226	2717.65
706.414	2699.22
706.602	2471.9
706.79	2568.15
706.979	2627.54
707.167	2744.28
707.355	2533.34
707.543	2686.94
707.731	2713.56
707.919	2570.2
708.107	2467.8
708.296	2594.78
708.484	2658.26
708.672	2602.97
708.86	2521.05
709.048	2506.71
709.236	2553.82
709.424	2584.54
709.612	2602.97
709.8	2486.23
709.988	2541.53
710.176	2547.67
710.364	2539.48
710.551	2566.1
710.739	2486.23
710.927	2488.28
711.115	2527.19
711.303	2613.21
711.491	2508.76
711.679	2373.6
711.866	2553.82
712.054	2451.42
712.242	2475.99
712.43	2504.67
712.617	2557.91
712.805	2592.73
712.993	2435.03
713.181	2416.6
713.368	2506.71
713.556	2414.56
713.744	2488.28
713.931	2490.33
714.119	2402.27
714.306	2471.9
714.494	2340.83
714.682	2383.84
714.869	2381.79
715.057	2437.08
715.244	2353.12
715.432	2463.71
715.619	2392.03
715.807	2394.08
715.994	2332.64
716.182	2398.17
716.369	2375.64
716.556	2363.36
716.744	2344.92
716.931	2324.44
717.119	2310.11
717.306	2416.6
717.493	2340.83
717.681	2299.87
717.868	2385.88
718.055	2416.6
718.242	2338.78
718.43	2340.83
718.617	2258.91
718.804	2310.11
718.991	2377.69
719.179	2351.07
719.366	2398.17
719.553	2301.92
719.74	2369.5
719.927	2242.53
720.114	2269.15
720.301	2299.87
720.488	2197.47
720.676	2244.57
720.863	2312.16
721.05	2277.34
721.237	2357.21
721.424	2375.64
721.611	2369.5
721.798	2220
721.985	2242.53
722.172	2217.95
722.358	2293.72
722.545	2283.49
722.732	2154.46
722.919	2236.38
723.106	2197.47
723.293	2260.96
723.48	2256.86
723.667	2197.47
723.853	2230.24
724.04	2248.67
724.227	2279.39
724.414	2234.33
724.6	2127.84
724.787	2236.38
724.974	2275.29
725.161	2275.29
725.347	2160.61
725.534	2086.88
725.72	2273.25
725.907	2176.99
726.094	2144.22
726.28	2176.99
726.467	2072.54
726.653	2136.03
726.84	2211.81
727.027	2314.2
727.213	2156.51
727.4	2328.54
727.586	2181.09
727.773	2203.61
727.959	2193.37
728.145	2232.29
728.332	2209.76
728.518	2205.66
728.705	2205.66
728.891	2201.57
729.077	2121.7
729.264	2062.3
729.45	2183.13
729.636	2121.7
729.823	2168.8
730.009	2119.65
730.195	2213.85
730.382	2152.42
730.568	2095.07
730.754	2164.7
730.94	2074.59
731.126	2119.65
731.313	2127.84
731.499	2144.22
731.685	2140.13
731.871	2062.3
732.057	2066.4
732.243	2133.98
732.429	2101.22
732.615	2226.14
732.801	2129.89
732.987	2113.5
733.173	2088.93
733.359	2109.41
733.545	2152.42
733.731	2093.02
733.917	2119.65
734.103	2072.54
734.289	2037.73
734.475	2056.16
734.661	2050.02
734.847	2084.83
735.033	2176.99
735.219	2119.65
735.404	2017.25
735.59	2041.82
735.776	2039.78
735.962	2000.87
736.148	2127.84
736.333	2015.2
736.519	1964
736.705	1941.47
736.89	1943.52
737.076	1931.23
737.262	2039.78
737.447	1902.56
737.633	1955.81
737.819	2058.21
738.004	1927.14
738.19	1865.7
738.375	1990.63
738.561	2004.96
738.747	1951.71
738.932	1990.63
739.118	2039.78
739.303	1908.71
739.489	2013.15
739.674	1951.71
739.859	2019.3
740.045	1923.04
740.23	1902.56
740.416	1832.93
740.601	1955.81
740.786	1980.39
740.972	1867.75
741.157	1894.37
741.342	1933.28
741.528	1810.4
741.713	1880.04
741.898	1947.62
742.084	1867.75
742.269	1830.88
742.454	1914.85
742.639	1865.7
742.824	1783.78
743.01	1855.46
743.195	1857.51
743.38	1808.36
743.565	1796.07
743.75	1800.16
743.935	1818.6
744.12	1941.47
744.305	1800.16
744.49	1769.45
744.675	1718.25
744.86	1732.58
745.045	1693.67
745.23	1705.96
745.415	1763.3
745.6	1730.53
745.785	1742.82
745.97	1746.92
746.155	1763.3
746.34	1699.81
746.525	1652.71
746.71	1746.92
746.895	1613.8
747.079	1589.22
747.264	1669.09
747.449	1697.77
747.634	1644.52
747.819	1601.51
748.003	1564.65
748.188	1611.75
748.373	1650.66
748.557	1662.95
748.742	1613.8
748.927	1665
749.111	1538.02
749.296	1566.7
749.481	1595.37
749.665	1550.31
749.85	1468.39
750.034	1607.66
750.219	1560.55
750.404	1501.16
750.588	1531.88
750.773	1540.07
750.957	1441.77
751.141	1509.35
751.326	1562.6
751.51	1452.01
751.695	1398.76
751.879	1402.86
752.064	1482.73
752.248	1495.02
752.432	1443.82
752.617	1386.47
752.801	1388.52
752.985	1316.84
753.17	1470.44
753.354	1368.04
753.538	1402.86
753.722	1257.45
753.907	1316.84
754.091	1306.6
754.275	1263.6
754.459	1320.94
754.643	1251.31
754.828	1292.27
755.012	1226.73
755.196	1234.93
755.38	1347.56
755.564	1239.02
755.748	1234.93
755.932	1308.65
756.116	1218.54
756.3	1228.78
756.484	1161.2
756.668	1216.49
756.852	1239.02
757.036	1171.44
757.22	1245.16
757.404	1177.58
757.588	1202.16
757.772	1234.93
757.956	1146.86
758.14	1171.44
758.323	1214.45
758.507	1153.01
758.691	1071.09
758.875	1202.16
759.059	1140.72
759.242	1073.14
759.426	1153.01
759.61	1077.23
759.794	1079.28
759.977	1064.94
760.161	1185.77
760.345	1087.47
760.528	1173.49
760.712	1054.7
760.895	983.03
761.079	1062.9
761.263	1103.86
761.446	940.02
761.63	1032.18
761.813	999.41
761.997	985.07
762.18	1081.33
762.364	1034.22
762.547	980.98
762.731	952.31
762.914	1077.23
763.098	950.26
763.281	1005.55
763.464	980.98
763.648	1030.13
763.831	1005.55
764.015	892.91
764.198	929.78
764.381	1030.13
764.564	940.02
764.748	950.26
764.931	962.55
765.114	919.54
765.297	917.49
765.481	1015.79
765.664	892.91
765.847	944.11
766.03	884.72
766.213	907.25
766.397	940.02
766.58	929.78
766.763	825.33
766.946	851.95
767.129	989.17
767.312	800.76
767.495	954.35
767.678	821.24
767.861	880.63
768.044	884.72
768.227	770.04
768.41	817.14
768.593	845.81
768.776	884.72
768.959	786.42
769.142	870.39
769.324	817.14
769.507	903.15
769.69	849.91
769.873	872.43
770.056	837.62
770.239	784.37
770.421	813.04
770.604	802.8
770.787	782.32
770.97	866.29
771.152	788.47
771.335	854
771.518	776.18
771.7	825.33
771.883	892.91
772.066	868.34
772.248	749.56
772.431	839.67
772.613	718.84
772.796	710.65
772.978	765.94
773.161	776.18
773.343	774.13
773.526	702.45
773.708	784.37
773.891	663.54
774.073	698.36
774.256	745.46
774.438	802.8
774.621	737.27
774.803	806.9
774.985	684.02
775.168	778.23
775.35	653.3
775.532	722.93
775.715	745.46
775.897	747.51
776.079	663.54
776.261	616.44
776.444	727.03
776.626	694.26
776.808	608.25
776.99	681.97
777.173	626.68
777.355	671.73
777.537	645.11
777.719	681.97
777.901	579.58
778.083	569.34
778.265	567.29
778.447	606.2
778.629	587.77
778.811	645.11
778.993	706.55
779.175	686.07
779.357	651.25
779.539	524.28
779.721	671.73
779.903	595.96
780.085	610.29
780.267	546.81
780.449	598.01
780.631	567.29
780.812	647.16
780.994	604.15
781.176	563.19
781.358	471.03
781.54	573.43
781.721	604.15
781.903	567.29
782.085	499.7
782.267	522.23
782.448	526.33
782.63	415.74
782.812	540.66
782.993	528.38
783.175	499.7
783.357	452.6
783.538	493.56
783.72	555
783.901	499.7
784.083	505.85
784.264	532.47
784.446	456.7
784.627	481.27
784.809	477.18
784.99	446.46
785.172	423.93
785.353	466.94
785.535	473.08
785.716	423.93
785.897	407.55
786.079	421.88
786.26	507.9
786.441	403.45
786.623	391.16
786.804	432.12
786.985	413.69
787.167	450.55
787.348	391.16
787.529	475.13
787.71	483.32
787.891	415.74
788.073	403.45
788.254	358.39
788.435	464.89
788.616	344.06
788.797	456.7
788.978	331.77
789.159	342.01
789.34	376.83
789.522	401.4
789.703	387.07
789.884	325.63
790.065	415.74
790.246	440.31
790.427	391.16
790.607	378.87
790.788	329.72
790.969	354.3
791.15	374.78
791.331	342.01
791.512	309.24
791.693	319.48
791.874	382.97
792.054	333.82
792.235	344.06
792.416	333.82
792.597	358.39
792.778	364.54
792.958	374.78
793.139	319.48
793.32	276.48
793.5	317.44
793.681	303.1
793.862	348.15
794.042	313.34
794.223	274.43
794.404	284.67
794.584	270.33
794.765	274.43
794.945	309.24
795.126	368.63
795.306	305.15
795.487	270.33
795.667	288.76
795.848	253.95
796.028	280.57
796.209	243.71
796.389	372.73
796.57	239.61
796.75	245.76
796.93	307.2
797.111	215.04
797.291	333.82
797.471	227.32
797.652	186.37
797.832	237.56
798.012	317.44
798.192	223.23
798.373	268.28
798.553	268.28
798.733	286.72
798.913	280.57
799.093	243.71
799.274	303.1
799.454	200.7
799.634	309.24
799.814	288.76
799.994	276.48
800.174	313.34
800.354	202.75
800.534	196.61
800.714	276.48
800.894	212.99
801.074	198.65
801.254	296.96
801.434	301.05
801.614	264.19
801.794	172.03
801.974	845.81
802.154	196.61
802.334	260.09
802.514	212.99
802.693	210.94
802.873	235.52
803.053	210.94
803.233	190.46
803.413	243.71
803.592	198.65
803.772	268.28
803.952	268.28
804.131	96.25
804.311	227.32
804.491	303.1
804.67	229.37
804.85	206.84
805.03	190.46
805.209	270.33
805.389	235.52
805.568	243.71
805.748	253.95
805.928	194.56
806.107	239.61
806.287	202.75
806.466	245.76
806.646	219.13
806.825	184.32
807.004	223.23
807.184	157.69
807.363	204.8
807.543	167.93
807.722	225.28
807.901	153.6
808.081	190.46
808.26	174.08
808.439	219.13
808.619	163.84
808.798	145.41
808.977	202.75
809.156	253.95
809.336	206.84
809.515	219.13
809.694	137.21
809.873	253.95
810.052	131.07
810.231	202.75
810.411	182.27
810.59	245.76
810.769	208.89
810.948	198.65
811.127	104.45
811.306	169.98
811.485	174.08
811.664	194.56
811.843	221.18
812.022	167.93
812.201	139.26
812.38	118.78
812.559	178.17
812.737	147.45
812.916	129.02
813.095	176.13
813.274	137.21
813.453	200.7
813.632	92.16
813.811	174.08
813.989	172.03
814.168	227.32
814.347	71.68
814.526	141.31
814.704	159.74
814.883	155.65
815.062	184.32
815.24	235.52
815.419	153.6
815.598	90.11
815.776	61.44
815.955	227.32
816.133	86.01
816.312	176.13
816.49	131.07
816.669	126.97
816.847	120.83
817.026	112.64
817.204	147.45
817.383	92.16
817.561	141.31
817.74	124.93
817.918	153.6
818.097	98.3
818.275	120.83
818.453	124.93
818.632	194.56
818.81	169.98
818.988	67.58
819.167	186.37
819.345	104.45
819.523	129.02
819.701	57.34
819.879	139.26
820.058	104.45
820.236	57.34
820.414	137.21
820.592	161.79
820.77	104.45
820.948	149.5
821.127	182.27
821.305	141.31
821.483	47.1
821.661	151.55
821.839	63.49
822.017	178.17
822.195	75.77
822.373	196.61
822.551	104.45
822.729	198.65
822.907	202.75
823.085	112.64
823.262	83.97
823.44	120.83
823.618	118.78
823.796	124.93
823.974	145.41
824.152	51.2
824.329	96.25
824.507	137.21
824.685	79.87
824.863	112.64
825.04	145.41
825.218	163.84
825.396	-38.91
825.574	149.5
825.751	137.21
825.929	155.65
826.107	92.16
826.284	75.77
826.462	47.1
826.639	53.25
826.817	86.01
826.994	98.3
827.172	100.35
827.349	133.12
827.527	88.06
827.704	38.91
827.882	149.5
828.059	14.34
828.237	108.54
828.414	124.93
828.591	59.39
828.769	88.06
828.946	49.15
829.124	174.08
829.301	116.73
829.478	73.73
829.655	112.64
829.833	81.92
830.01	88.06
830.187	92.16
830.364	49.15
830.542	118.78
830.719	24.58
830.896	79.87
831.073	133.12
831.25	163.84
831.427	116.73
831.604	96.25
831.782	102.4
831.959	106.49
832.136	40.96
832.313	108.54
832.49	8.19
832.667	92.16
832.844	63.49
833.021	131.07
833.198	102.4
833.374	79.87
833.551	131.07
833.728	30.72
833.905	63.49
834.082	22.53
834.259	49.15
834.436	120.83
834.612	30.72
834.789	145.41
834.966	10.24
835.143	55.3
835.319	75.77
835.496	131.07
835.673	57.34
835.85	110.59
836.026	51.2
836.203	106.49
836.38	100.35
836.556	32.77
836.733	57.34
836.909	100.35
837.086	32.77
837.262	106.49
837.439	135.17
837.616	124.93
837.792	126.97
837.968	112.64
838.145	59.39
838.321	71.68
838.498	71.68
838.674	163.84
838.851	83.97
839.027	129.02
839.203	108.54
839.38	112.64
839.556	71.68
839.732	137.21
839.909	59.39
840.085	-2.05
840.261	55.3
840.437	63.49
840.614	14.34
840.79	55.3
840.966	137.21
841.142	38.91
841.318	88.06
841.494	32.77
841.671	129.02
841.847	75.77
842.023	20.48
842.199	124.93
842.375	63.49
842.551	14.34
842.727	30.72
842.903	100.35
843.079	18.43
843.255	90.11
843.431	122.88
843.607	116.73
843.783	-34.82
843.959	75.77
844.134	98.3
844.31	108.54
844.486	63.49
844.662	47.1
844.838	102.4
845.013	81.92
845.189	49.15
845.365	18.43
845.541	55.3
845.716	104.45
845.892	75.77
846.068	26.62
846.244	71.68
846.419	55.3
846.595	10.24
846.77	-2.05
846.946	129.02
847.122	47.1
847.297	43.01
847.473	129.02
847.648	24.58
847.824	65.54
847.999	2.05
848.175	67.58
848.35	40.96
848.526	22.53
848.701	100.35
848.876	81.92
849.052	-18.43
849.227	92.16
849.403	10.24
849.578	22.53
849.753	-6.14
849.929	71.68
850.104	6.14
850.279	75.77
850.454	32.77
850.63	71.68
850.805	34.82
850.98	47.1
851.155	104.45
851.33	159.74
851.505	55.3
851.681	-12.29
851.856	14.34
852.031	120.83
852.206	-6.14
852.381	47.1
852.556	51.2
852.731	47.1
852.906	65.54
853.081	65.54
853.256	18.43
853.431	55.3
853.606	90.11
853.781	-32.77
853.956	-47.1
854.131	131.07
854.305	6.14
854.48	-14.34
854.655	14.34
854.83	98.3
855.005	-6.14
855.18	63.49
855.354	-22.53
855.529	75.77
855.704	-18.43
855.879	73.73
856.053	-55.3
856.228	57.34
856.403	6.14
856.577	71.68
856.752	92.16
856.926	-36.86
857.101	-30.72
857.276	47.1
857.45	14.34
857.625	30.72
857.799	-43.01
857.974	79.87
858.148	63.49
858.323	61.44
858.497	28.67
858.672	36.86
858.846	-22.53
859.02	14.34
859.195	-30.72
859.369	79.87
859.543	24.58
859.718	108.54
859.892	51.2
860.066	57.34
860.241	67.58
860.415	20.48
860.589	45.06
860.763	30.72
860.938	22.53
861.112	47.1
861.286	26.62
861.46	10.24
861.634	36.86
861.808	32.77
861.982	32.77
862.157	14.34
862.331	-43.01
862.505	-22.53
862.679	-8.19
862.853	26.62
863.027	67.58
863.201	22.53
863.375	0
863.549	2.05
863.722	4.1
863.896	57.34
864.07	6.14
864.244	83.97
864.418	32.77
864.592	57.34
864.766	-10.24
864.939	14.34
865.113	-22.53
865.287	114.69
865.461	-40.96
865.634	30.72
865.808	32.77
865.982	45.06
866.156	-32.77
866.329	-53.25
866.503	51.2
866.676	120.83
866.85	-4.1
867.024	-63.49
867.197	55.3
867.371	47.1
867.544	-16.38
867.718	104.45
867.891	-14.34
868.065	-14.34
868.238	24.58
868.412	32.77
868.585	32.77
868.759	-83.97
868.932	6.14
869.105	-18.43
869.279	26.62
869.452	49.15
869.625	43.01
869.799	8.19
869.972	2.05
870.145	16.38
870.319	96.25
870.492	106.49
870.665	55.3
870.838	75.77
871.011	-18.43
871.185	92.16
871.358	63.49
871.531	98.3
871.704	-51.2
871.877	38.91
872.05	32.77
872.223	-45.06
872.396	16.38
872.569	81.92
872.742	26.62
872.915	43.01
873.088	20.48
873.261	-83.97
873.434	12.29
873.607	100.35
873.78	16.38
873.953	-61.44
874.126	36.86
874.299	51.2
874.471	-83.97
874.644	106.49
874.817	71.68
874.99	86.01
875.163	24.58
875.335	-10.24
875.508	43.01
875.681	104.45
875.853	-81.92
876.026	32.77
876.199	71.68
876.371	6.14
876.544	38.91
876.717	63.49
876.889	-26.62
877.062	26.62
877.234	26.62
877.407	6.14
877.579	63.49
877.752	18.43
877.924	30.72
878.097	75.77
878.269	47.1
878.442	-30.72
878.614	-14.34
878.786	55.3
878.959	88.06
879.131	108.54
879.303	-59.39
879.476	-40.96
879.648	55.3
879.82	-18.43
879.993	18.43
880.165	-43.01
880.337	-96.25
880.509	47.1
880.681	36.86
880.854	71.68
881.026	22.53
881.198	59.39
881.37	36.86
881.542	26.62
881.714	-24.58
881.886	14.34
882.058	30.72
882.23	32.77
882.402	-47.1
882.574	14.34
882.746	36.86
882.918	69.63
883.09	-24.58
883.262	28.67
883.434	24.58
883.606	-57.34
883.778	51.2
883.95	-16.38
884.122	-71.68
884.293	34.82
884.465	-63.49
884.637	79.87
884.809	-18.43
884.98	24.58
885.152	-2.05
885.324	6.14
885.496	-4.1
885.667	88.06
885.839	81.92
886.011	47.1
886.182	51.2
886.354	96.25
886.525	26.62
886.697	32.77
886.869	-22.53
887.04	-24.58
887.212	16.38
887.383	22.53
887.555	2.05
887.726	-32.77
887.897	22.53
888.069	30.72
888.24	0
888.412	40.96
888.583	12.29
888.754	47.1
888.926	-32.77
889.097	-26.62
889.268	-38.91
889.44	38.91
889.611	-38.91
889.782	40.96
889.953	8.19
890.125	77.82
890.296	10.24
890.467	-51.2
890.638	30.72
890.809	-22.53
890.98	-59.39
891.151	59.39
891.323	14.34
891.494	75.77
891.665	55.3
891.836	49.15
892.007	63.49
892.178	47.1
892.349	55.3
892.52	38.91
892.691	55.3
892.862	-18.43
893.032	104.45
893.203	-2.05
893.374	-16.38
893.545	26.62
893.716	-22.53
893.887	8.19
894.057	-6.14
894.228	-32.77
894.399	-6.14
894.57	40.96
894.74	-26.62
894.911	73.73
895.082	6.14
895.253	-59.39
895.423	-20.48
895.594	20.48
895.764	59.39
895.935	20.48
896.106	43.01
896.276	24.58
896.447	12.29
896.617	12.29
896.788	-22.53
896.958	59.39
897.129	-47.1
897.299	71.68
897.47	38.91
897.64	47.1
897.81	-49.15
897.981	-14.34
898.151	-67.58
898.322	-18.43
898.492	2.05
898.662	-40.96
898.832	38.91
899.003	63.49
899.173	43.01
899.343	51.2
899.513	-34.82
