Data from USB4F104151__157__14-44-41-059.txt Node

Date: Thu Mar 13 14:44:41 EDT 2025
User: louis
Spectrometer: USB4F10415
Trigger mode: 4
Integration Time (sec): 2.000000E-2
Scans to average: 1
Electric dark correction enabled: true
Nonlinearity correction enabled: false
Boxcar width: 0
XAxis mode: Wavelengths
Number of Pixels in Spectrum: 3648
>>>>>Begin Spectral Data<<<<<
178.204	-107.52
178.424	-107.52
178.644	-107.52
178.864	-130.05
179.084	-117.76
179.304	33.79
179.524	-13.31
179.744	-13.31
179.964	35.84
180.184	27.65
180.404	-48.13
180.624	11.26
180.844	11.26
181.064	-91.13
181.283	44.03
181.503	-3.07
181.723	5.12
181.943	23.55
182.163	84.99
182.383	54.27
182.602	39.94
182.822	39.94
183.042	48.13
183.262	-1.02
183.482	1.02
183.701	-23.55
183.921	72.7
184.141	-7.17
184.361	46.08
184.58	115.71
184.8	82.94
185.02	35.84
185.239	46.08
185.459	7.17
185.679	48.13
185.898	11.26
186.118	89.09
186.338	54.27
186.557	80.89
186.777	-7.17
186.997	60.42
187.216	23.55
187.436	80.89
187.655	103.42
187.875	-31.74
188.095	52.22
188.314	80.89
188.534	140.29
188.753	5.12
188.973	84.99
189.192	23.55
189.412	72.7
189.631	27.65
189.851	-31.74
190.07	66.56
190.29	-9.22
190.509	44.03
190.729	35.84
190.948	41.98
191.168	140.29
191.387	17.41
191.607	35.84
191.826	39.94
192.045	60.42
192.265	74.75
192.484	130.05
192.704	37.89
192.923	21.5
193.142	76.8
193.362	-9.22
193.581	138.24
193.8	107.52
194.02	220.16
194.239	27.65
194.458	68.61
194.678	-3.07
194.897	23.55
195.116	-23.55
195.335	46.08
195.555	56.32
195.774	62.46
195.993	7.17
196.212	39.94
196.432	-33.79
196.651	41.98
196.87	7.17
197.089	125.95
197.308	60.42
197.528	27.65
197.747	33.79
197.966	132.09
198.185	171.01
198.404	95.23
198.623	33.79
198.842	41.98
199.062	138.24
199.281	33.79
199.5	25.6
199.719	80.89
199.938	-1.02
200.157	52.22
200.376	91.13
200.595	44.03
200.814	105.47
201.033	5.12
201.252	89.09
201.471	17.41
201.69	74.75
201.909	123.9
202.128	33.79
202.347	113.66
202.566	39.94
202.785	64.51
203.004	52.22
203.223	130.05
203.442	103.42
203.661	48.13
203.879	109.57
204.098	48.13
204.317	3.07
204.536	41.98
204.755	44.03
204.974	64.51
205.193	58.37
205.411	125.95
205.63	70.65
205.849	123.9
206.068	50.18
206.287	66.56
206.505	119.81
206.724	89.09
206.943	-15.36
207.162	60.42
207.381	23.55
207.599	50.18
207.818	60.42
208.037	17.41
208.255	7.17
208.474	25.6
208.693	97.28
208.911	41.98
209.13	15.36
209.349	31.74
209.567	27.65
209.786	39.94
210.005	109.57
210.223	76.8
210.442	-33.79
210.661	72.7
210.879	-1.02
211.098	60.42
211.316	58.37
211.535	56.32
211.753	-33.79
211.972	50.18
212.191	23.55
212.409	37.89
212.628	7.17
212.846	80.89
213.065	31.74
213.283	68.61
213.502	52.22
213.72	64.51
213.938	52.22
214.157	33.79
214.375	50.18
214.594	31.74
214.812	31.74
215.031	101.37
215.249	-5.12
215.467	31.74
215.686	66.56
215.904	91.13
216.122	76.8
216.341	64.51
216.559	68.61
216.778	66.56
216.996	33.79
217.214	64.51
217.432	54.27
217.651	5.12
217.869	19.46
218.087	39.94
218.306	56.32
218.524	74.75
218.742	-70.65
218.96	58.37
219.179	9.22
219.397	66.56
219.615	113.66
219.833	48.13
220.051	97.28
220.27	91.13
220.488	33.79
220.706	82.94
220.924	58.37
221.142	-7.17
221.36	74.75
221.578	35.84
221.796	76.8
222.015	39.94
222.233	132.09
222.451	91.13
222.669	5.12
222.887	89.09
223.105	-1.02
223.323	97.28
223.541	-31.74
223.759	39.94
223.977	66.56
224.195	54.27
224.413	19.46
224.631	-66.56
224.849	-13.31
225.067	33.79
225.285	82.94
225.503	64.51
225.721	25.6
225.939	41.98
226.157	44.03
226.375	56.32
226.592	64.51
226.81	80.89
227.028	66.56
227.246	154.62
227.464	50.18
227.682	64.51
227.9	52.22
228.117	60.42
228.335	-17.41
228.553	95.23
228.771	52.22
228.989	66.56
229.206	19.46
229.424	-48.13
229.642	-17.41
229.86	-64.51
230.077	117.76
230.295	54.27
230.513	27.65
230.731	39.94
230.948	130.05
231.166	39.94
231.384	11.26
231.601	-9.22
231.819	52.22
232.037	44.03
232.254	78.85
232.472	82.94
232.689	-25.6
232.907	50.18
233.125	13.31
233.342	74.75
233.56	3.07
233.777	76.8
233.995	-17.41
234.213	123.9
234.43	105.47
234.648	82.94
234.865	7.17
235.083	109.57
235.3	72.7
235.518	95.23
235.735	87.04
235.953	142.33
236.17	64.51
236.388	-17.41
236.605	105.47
236.822	95.23
237.04	109.57
237.257	60.42
237.475	44.03
237.692	89.09
237.909	99.33
238.127	109.57
238.344	113.66
238.562	60.42
238.779	-17.41
238.996	7.17
239.214	15.36
239.431	5.12
239.648	35.84
239.865	64.51
240.083	105.47
240.3	33.79
240.517	39.94
240.735	35.84
240.952	146.43
241.169	64.51
241.386	76.8
241.603	132.09
241.821	-21.5
242.038	72.7
242.255	66.56
242.472	17.41
242.689	70.65
242.907	31.74
243.124	33.79
243.341	64.51
243.558	23.55
243.775	101.37
243.992	27.65
244.209	109.57
244.426	146.43
244.643	115.71
244.86	50.18
245.078	56.32
245.295	82.94
245.512	48.13
245.729	-25.6
245.946	21.5
246.163	84.99
246.38	64.51
246.597	9.22
246.814	64.51
247.031	50.18
247.248	17.41
247.464	-15.36
247.681	58.37
247.898	50.18
248.115	115.71
248.332	-15.36
248.549	113.66
248.766	119.81
248.983	107.52
249.2	123.9
249.417	68.61
249.633	58.37
249.85	105.47
250.067	-44.03
250.284	58.37
250.501	25.6
250.717	107.52
250.934	-72.7
251.151	56.32
251.368	-1.02
251.585	33.79
251.801	33.79
252.018	-13.31
252.235	58.37
252.451	80.89
252.668	72.7
252.885	138.24
253.102	68.61
253.318	91.13
253.535	64.51
253.752	-1.02
253.968	44.03
254.185	9.22
254.401	44.03
254.618	72.7
254.835	23.55
255.051	3.07
255.268	44.03
255.484	35.84
255.701	56.32
255.917	68.61
256.134	-3.07
256.351	173.05
256.567	-13.31
256.784	72.7
257	64.51
257.217	105.47
257.433	15.36
257.65	74.75
257.866	82.94
258.082	33.79
258.299	-31.74
258.515	156.67
258.732	105.47
258.948	15.36
259.165	62.46
259.381	91.13
259.597	68.61
259.814	35.84
260.03	48.13
260.246	-17.41
260.463	84.99
260.679	23.55
260.895	97.28
261.112	70.65
261.328	-9.22
261.544	50.18
261.761	156.67
261.977	76.8
262.193	64.51
262.409	39.94
262.626	80.89
262.842	66.56
263.058	25.6
263.274	31.74
263.49	72.7
263.707	125.95
263.923	113.66
264.139	-19.46
264.355	25.6
264.571	72.7
264.787	72.7
265.004	80.89
265.22	60.42
265.436	35.84
265.652	-11.26
265.868	70.65
266.084	33.79
266.3	23.55
266.516	31.74
266.732	25.6
266.948	113.66
267.164	11.26
267.38	60.42
267.596	46.08
267.812	105.47
268.028	68.61
268.244	80.89
268.46	99.33
268.676	19.46
268.892	121.85
269.108	7.17
269.324	17.41
269.54	-19.46
269.756	82.94
269.972	50.18
270.188	50.18
270.403	56.32
270.619	80.89
270.835	-1.02
271.051	62.46
271.267	72.7
271.483	23.55
271.698	-15.36
271.914	123.9
272.13	44.03
272.346	35.84
272.562	60.42
272.777	76.8
272.993	11.26
273.209	7.17
273.425	48.13
273.64	7.17
273.856	84.99
274.072	105.47
274.287	60.42
274.503	35.84
274.719	105.47
274.934	115.71
275.15	15.36
275.366	64.51
275.581	33.79
275.797	99.33
276.012	80.89
276.228	78.85
276.444	23.55
276.659	113.66
276.875	-13.31
277.09	150.53
277.306	46.08
277.521	89.09
277.737	64.51
277.952	50.18
278.168	105.47
278.383	107.52
278.599	64.51
278.814	44.03
279.03	52.22
279.245	138.24
279.461	113.66
279.676	84.99
279.892	7.17
280.107	25.6
280.322	70.65
280.538	89.09
280.753	64.51
280.969	121.85
281.184	15.36
281.399	138.24
281.615	50.18
281.83	1.02
282.045	33.79
282.26	11.26
282.476	125.95
282.691	44.03
282.906	-1.02
283.122	39.94
283.337	11.26
283.552	48.13
283.767	-39.94
283.983	58.37
284.198	27.65
284.413	-64.51
284.628	-23.55
284.843	33.79
285.058	56.32
285.274	60.42
285.489	-25.6
285.704	82.94
285.919	35.84
286.134	48.13
286.349	-31.74
286.564	44.03
286.779	19.46
286.995	84.99
287.21	-5.12
287.425	76.8
287.64	64.51
287.855	80.89
288.07	13.31
288.285	41.98
288.5	52.22
288.715	76.8
288.93	62.46
289.145	89.09
289.36	72.7
289.575	78.85
289.79	33.79
290.004	64.51
290.219	121.85
290.434	115.71
290.649	39.94
290.864	-13.31
291.079	9.22
291.294	72.7
291.509	50.18
291.724	54.27
291.938	15.36
292.153	115.71
292.368	76.8
292.583	37.89
292.798	82.94
293.012	72.7
293.227	-17.41
293.442	50.18
293.657	80.89
293.871	44.03
294.086	58.37
294.301	74.75
294.516	31.74
294.73	117.76
294.945	-7.17
295.16	105.47
295.374	76.8
295.589	-11.26
295.804	50.18
296.018	41.98
296.233	72.7
296.447	95.23
296.662	-1.02
296.877	76.8
297.091	76.8
297.306	7.17
297.52	58.37
297.735	121.85
297.949	48.13
298.164	121.85
298.378	-7.17
298.593	3.07
298.807	27.65
299.022	82.94
299.236	93.18
299.451	25.6
299.665	48.13
299.88	64.51
300.094	50.18
300.309	89.09
300.523	-13.31
300.737	54.27
300.952	33.79
301.166	44.03
301.381	-1.02
301.595	91.13
301.809	41.98
302.024	48.13
302.238	64.51
302.452	134.14
302.667	27.65
302.881	29.7
303.095	68.61
303.309	91.13
303.524	25.6
303.738	109.57
303.952	11.26
304.166	150.53
304.381	37.89
304.595	142.33
304.809	39.94
305.023	113.66
305.237	37.89
305.452	-1.02
305.666	31.74
305.88	138.24
306.094	95.23
306.308	89.09
306.522	41.98
306.736	56.32
306.95	-5.12
307.164	41.98
307.379	60.42
307.593	80.89
307.807	58.37
308.021	44.03
308.235	113.66
308.449	48.13
308.663	-7.17
308.877	130.05
309.091	41.98
309.305	105.47
309.519	11.26
309.733	-5.12
309.947	41.98
310.161	25.6
310.374	7.17
310.588	52.22
310.802	44.03
311.016	17.41
311.23	95.23
311.444	23.55
311.658	76.8
311.872	125.95
312.085	33.79
312.299	62.46
312.513	115.71
312.727	23.55
312.941	35.84
313.154	93.18
313.368	23.55
313.582	93.18
313.796	46.08
314.009	101.37
314.223	72.7
314.437	58.37
314.651	72.7
314.864	58.37
315.078	56.32
315.292	41.98
315.505	3.07
315.719	74.75
315.933	89.09
316.146	80.89
316.36	27.65
316.573	58.37
316.787	62.46
317.001	138.24
317.214	58.37
317.428	74.75
317.641	15.36
317.855	84.99
318.068	23.55
318.282	41.98
318.495	74.75
318.709	-1.02
318.922	46.08
319.136	41.98
319.349	46.08
319.563	48.13
319.776	31.74
319.99	48.13
320.203	134.14
320.417	11.26
320.63	89.09
320.843	97.28
321.057	33.79
321.27	17.41
321.483	56.32
321.697	123.9
321.91	3.07
322.124	17.41
322.337	56.32
322.55	44.03
322.763	121.85
322.977	171.01
323.19	31.74
323.403	97.28
323.617	82.94
323.83	113.66
324.043	19.46
324.256	72.7
324.469	21.5
324.683	25.6
324.896	-1.02
325.109	68.61
325.322	27.65
325.535	89.09
325.748	7.17
325.962	23.55
326.175	-15.36
326.388	128
326.601	107.52
326.814	-15.36
327.027	64.51
327.24	82.94
327.453	15.36
327.666	97.28
327.879	68.61
328.092	113.66
328.305	64.51
328.518	56.32
328.731	115.71
328.944	41.98
329.157	105.47
329.37	17.41
329.583	154.62
329.796	82.94
330.009	33.79
330.222	74.75
330.435	33.79
330.648	52.22
330.861	103.42
331.073	11.26
331.286	68.61
331.499	56.32
331.712	111.61
331.925	3.07
332.138	82.94
332.35	140.29
332.563	-27.65
332.776	23.55
332.989	-7.17
333.202	68.61
333.414	72.7
333.627	105.47
333.84	52.22
334.053	125.95
334.265	35.84
334.478	-48.13
334.691	21.5
334.903	50.18
335.116	-5.12
335.329	74.75
335.541	15.36
335.754	177.15
335.966	78.85
336.179	113.66
336.392	66.56
336.604	23.55
336.817	48.13
337.029	78.85
337.242	39.94
337.454	99.33
337.667	123.9
337.88	97.28
338.092	111.61
338.305	72.7
338.517	17.41
338.729	130.05
338.942	105.47
339.154	35.84
339.367	-15.36
339.579	35.84
339.792	52.22
340.004	50.18
340.217	60.42
340.429	105.47
340.641	52.22
340.854	84.99
341.066	44.03
341.278	119.81
341.491	134.14
341.703	56.32
341.915	80.89
342.128	31.74
342.34	111.61
342.552	58.37
342.764	64.51
342.977	-9.22
343.189	66.56
343.401	17.41
343.613	15.36
343.826	105.47
344.038	64.51
344.25	-25.6
344.462	72.7
344.674	39.94
344.886	35.84
345.099	60.42
345.311	66.56
345.523	84.99
345.735	15.36
345.947	39.94
346.159	91.13
346.371	97.28
346.583	66.56
346.795	125.95
347.007	74.75
347.219	72.7
347.431	115.71
347.643	60.42
347.855	56.32
348.067	121.85
348.279	52.22
348.491	72.7
348.703	82.94
348.915	80.89
349.127	19.46
349.339	56.32
349.551	-1.02
349.763	95.23
349.975	39.94
350.187	111.61
350.399	146.43
350.61	89.09
350.822	31.74
351.034	78.85
351.246	37.89
351.458	74.75
351.669	64.51
351.881	39.94
352.093	80.89
352.305	154.62
352.517	23.55
352.728	44.03
352.94	115.71
353.152	29.7
353.363	62.46
353.575	48.13
353.787	80.89
353.999	82.94
354.21	84.99
354.422	123.9
354.633	46.08
354.845	89.09
355.057	97.28
355.268	-1.02
355.48	74.75
355.692	35.84
355.903	56.32
356.115	27.65
356.326	52.22
356.538	48.13
356.749	148.48
356.961	113.66
357.172	-15.36
357.384	80.89
357.595	119.81
357.807	-1.02
358.018	17.41
358.23	23.55
358.441	99.33
358.653	115.71
358.864	31.74
359.075	64.51
359.287	97.28
359.498	82.94
359.709	93.18
359.921	19.46
360.132	99.33
360.344	64.51
360.555	121.85
360.766	64.51
360.977	87.04
361.189	11.26
361.4	46.08
361.611	64.51
361.823	191.49
362.034	70.65
362.245	66.56
362.456	56.32
362.667	48.13
362.879	48.13
363.09	82.94
363.301	52.22
363.512	89.09
363.723	50.18
363.935	66.56
364.146	97.28
364.357	19.46
364.568	56.32
364.779	74.75
364.99	101.37
365.201	107.52
365.412	144.38
365.623	15.36
365.834	72.7
366.045	27.65
366.256	68.61
366.467	113.66
366.678	31.74
366.889	82.94
367.1	56.32
367.311	46.08
367.522	17.41
367.733	121.85
367.944	80.89
368.155	31.74
368.366	23.55
368.577	35.84
368.788	121.85
368.999	46.08
369.209	89.09
369.42	84.99
369.631	97.28
369.842	119.81
370.053	60.42
370.264	66.56
370.474	-27.65
370.685	115.71
370.896	76.8
371.107	115.71
371.317	121.85
371.528	1.02
371.739	58.37
371.95	95.23
372.16	115.71
372.371	58.37
372.582	39.94
372.792	11.26
373.003	105.47
373.214	93.18
373.424	97.28
373.635	-23.55
373.846	89.09
374.056	115.71
374.267	39.94
374.477	72.7
374.688	74.75
374.898	66.56
375.109	89.09
375.319	82.94
375.53	109.57
375.74	80.89
375.951	89.09
376.161	64.51
376.372	125.95
376.582	15.36
376.793	97.28
377.003	41.98
377.214	7.17
377.424	17.41
377.635	7.17
377.845	70.65
378.055	107.52
378.266	41.98
378.476	105.47
378.686	31.74
378.897	72.7
379.107	72.7
379.317	113.66
379.528	132.09
379.738	121.85
379.948	119.81
380.158	99.33
380.369	39.94
380.579	25.6
380.789	-1.02
380.999	89.09
381.21	82.94
381.42	97.28
381.63	23.55
381.84	97.28
382.05	48.13
382.261	68.61
382.471	97.28
382.681	107.52
382.891	115.71
383.101	80.89
383.311	48.13
383.521	66.56
383.731	64.51
383.941	138.24
384.151	99.33
384.361	35.84
384.571	128
384.781	117.76
384.991	56.32
385.201	109.57
385.411	82.94
385.621	33.79
385.831	27.65
386.041	113.66
386.251	138.24
386.461	72.7
386.671	95.23
386.881	97.28
387.091	52.22
387.301	80.89
387.511	113.66
387.72	89.09
387.93	121.85
388.14	27.65
388.35	72.7
388.56	66.56
388.769	76.8
388.979	17.41
389.189	33.79
389.399	35.84
389.609	58.37
389.818	52.22
390.028	60.42
390.238	89.09
390.447	105.47
390.657	80.89
390.867	76.8
391.076	64.51
391.286	89.09
391.496	89.09
391.705	72.7
391.915	56.32
392.125	84.99
392.334	50.18
392.544	97.28
392.753	76.8
392.963	19.46
393.172	80.89
393.382	74.75
393.591	148.48
393.801	17.41
394.01	80.89
394.22	93.18
394.429	72.7
394.639	64.51
394.848	80.89
395.058	17.41
395.267	56.32
395.477	27.65
395.686	121.85
395.895	99.33
396.105	189.44
396.314	46.08
396.524	87.04
396.733	44.03
396.942	140.29
397.152	115.71
397.361	138.24
397.57	121.85
397.78	89.09
397.989	146.43
398.198	205.82
398.407	66.56
398.617	156.67
398.826	146.43
399.035	64.51
399.244	113.66
399.453	99.33
399.663	121.85
399.872	158.72
400.081	93.18
400.29	132.09
400.499	-15.36
400.708	142.33
400.917	140.29
401.127	121.85
401.336	50.18
401.545	162.81
401.754	181.25
401.963	121.85
402.172	138.24
402.381	158.72
402.59	103.42
402.799	97.28
403.008	177.15
403.217	80.89
403.426	70.65
403.635	82.94
403.844	185.34
404.053	187.39
404.262	185.34
404.471	142.33
404.68	209.92
404.888	164.86
405.097	203.77
405.306	109.57
405.515	150.53
405.724	211.96
405.933	140.29
406.142	244.73
406.35	181.25
406.559	181.25
406.768	158.72
406.977	162.81
407.185	121.85
407.394	211.96
407.603	150.53
407.812	261.12
408.02	254.97
408.229	177.15
408.438	173.05
408.646	214.01
408.855	191.49
409.064	207.87
409.272	236.54
409.481	254.97
409.69	310.27
409.898	265.21
410.107	314.36
410.315	318.46
410.524	343.03
410.733	318.46
410.941	216.06
411.15	269.31
411.358	340.99
411.567	359.42
411.775	326.65
411.984	293.88
412.192	390.14
412.401	312.32
412.609	379.9
412.818	357.37
413.026	373.75
413.234	402.43
413.443	392.19
413.651	416.76
413.86	418.81
414.068	504.82
414.276	416.76
414.485	482.3
414.693	510.97
414.901	558.07
415.11	605.17
415.318	482.3
415.526	646.13
415.734	662.52
415.943	674.81
416.151	625.65
416.359	654.33
416.567	695.29
416.776	672.76
416.984	832.5
417.192	764.92
417.4	908.27
417.608	740.34
417.817	801.78
418.025	812.02
418.233	1000.43
418.441	891.89
418.649	916.47
418.857	979.95
419.065	992.24
419.273	938.99
419.481	1119.21
419.689	1145.84
419.897	1162.22
420.105	1278.96
420.313	1194.99
420.521	1289.2
420.729	1276.91
420.937	1377.26
421.145	1377.26
421.353	1371.12
421.561	1463.27
421.769	1444.84
421.977	1571.82
422.185	1604.58
422.393	1661.93
422.601	1844.2
422.809	1684.45
423.017	1768.42
423.224	1973.22
423.432	2022.37
423.64	1940.45
423.848	2130.91
424.056	2081.76
424.263	2210.78
424.471	2268.13
424.679	2266.08
424.887	2345.95
425.094	2442.2
425.302	2362.33
425.51	2565.08
425.718	2616.28
425.925	2593.75
426.133	2628.57
426.341	2868.18
426.548	3103.7
426.756	3027.92
426.964	3103.7
427.171	3189.71
427.379	3304.4
427.586	3414.99
427.794	3392.46
428.001	3460.04
428.209	3650.5
428.417	3685.32
428.624	3871.68
428.832	4031.43
429.039	4019.14
429.247	3957.7
429.454	4316.09
429.662	4555.71
429.869	4228.03
430.076	4623.29
430.284	4334.53
430.491	4764.6
430.699	4877.24
430.906	4819.89
431.114	4907.96
431.321	5147.57
431.528	5225.39
431.736	5632.94
431.943	5596.07
432.15	5655.47
432.358	5784.49
432.565	5948.33
432.772	6054.82
432.979	6214.56
433.187	6476.7
433.394	6372.25
433.601	6765.46
433.808	6986.65
434.016	6691.74
434.223	7105.43
434.43	7547.79
434.637	7383.95
434.844	7793.55
435.052	8108.93
435.259	8020.87
435.466	7889.8
435.673	7912.33
435.88	8635.26
436.087	8891.26
436.294	8928.12
436.501	8751.99
436.708	8852.34
436.915	9167.73
437.122	9485.17
437.329	9608.05
437.537	10042.21
437.743	10148.71
437.95	9778.03
438.157	10546.02
438.364	10849.11
438.571	10621.79
438.778	11000.66
438.985	11793.23
439.192	11447.12
439.399	11475.79
439.606	11471.7
439.813	12280.64
440.02	12733.25
440.227	12475.2
440.433	12417.86
440.64	12811.07
440.847	12647.23
441.054	13128.5
441.261	13853.48
441.467	13738.8
441.674	14183.21
441.881	14840.61
442.088	14625.57
442.294	14408.48
442.501	14768.93
442.708	15153.94
442.914	15575.83
443.121	16192.26
443.328	15608.59
443.534	17142.52
443.741	16182.03
443.948	16237.32
444.154	17758.96
444.361	17500.92
444.568	17521.4
444.774	17394.42
444.981	17283.83
445.187	18416.36
445.394	19157.72
445.6	18719.46
445.807	20415.18
446.013	19823.31
446.22	19905.23
446.426	20863.68
446.633	21177.02
446.839	21750.45
447.046	20736.71
447.252	21942.96
447.459	22278.83
447.665	21902
447.871	22799.01
448.078	23653.02
448.284	22669.99
448.491	23079.58
448.697	24294.03
448.903	24713.86
449.11	25006.72
449.316	24459.91
449.522	24500.87
449.728	25502.33
449.935	25647.74
450.141	25553.53
450.347	26286.7
450.553	25205.38
450.76	25713.27
450.966	26444.4
451.172	26255.98
451.378	27144.8
451.584	26292.85
451.791	27187.81
451.997	26808.93
452.203	27449.95
452.409	27310.69
452.615	27462.24
452.821	26317.42
453.027	25963.12
453.233	27419.23
453.44	26436.2
453.646	26331.76
453.852	26477.16
454.058	27566.68
454.264	26010.23
454.47	27306.59
454.676	26116.72
454.882	27548.25
455.088	24881.8
455.294	25338.49
455.5	25664.12
455.705	25918.07
455.911	24875.65
456.117	24361.61
456.323	24394.38
456.529	23026.34
456.735	24013.46
456.941	23349.92
457.147	23050.91
457.352	22352.55
457.558	21838.51
457.764	22358.7
457.97	21772.98
458.176	21473.98
458.381	21150.4
458.587	20255.43
458.793	20431.56
458.999	19094.24
459.204	20775.62
459.41	19985.1
459.616	18631.4
459.821	18825.95
460.027	18801.38
460.233	18328.3
460.438	17537.78
460.644	17564.4
460.85	16775.94
461.055	16259.85
461.261	16540.42
461.466	15336.21
461.672	14678.82
461.878	15833.87
462.083	15082.27
462.289	14408.48
462.494	14431.01
462.7	13855.53
462.905	13343.54
463.111	13751.09
463.316	13927.21
463.522	13419.32
463.727	13652.78
463.932	13488.95
464.138	13417.27
464.343	13572.91
464.549	12884.8
464.754	13456.18
464.959	13517.62
465.165	13204.28
465.37	12874.56
465.575	12352.32
465.781	12933.95
465.986	12751.68
466.191	12483.39
466.397	12094.28
466.602	11731.79
466.807	12364.61
467.012	12077.9
467.218	12024.65
467.423	11840.33
467.628	12081.99
467.833	12438.34
468.038	12096.33
468.244	11549.52
468.449	12063.56
468.654	11811.66
468.859	11539.28
469.064	11615.05
469.269	10916.7
469.474	11201.37
469.679	11463.51
469.885	11060.06
470.09	11164.5
470.295	11283.28
470.5	10969.94
470.705	11250.52
470.91	10851.16
471.115	10656.61
471.32	10869.59
471.525	10820.44
471.73	10500.96
471.935	10543.97
472.139	10142.57
472.344	10269.54
472.549	10089.32
472.754	9945.96
472.959	9702.25
473.164	9612.14
473.369	9632.62
473.574	9931.62
473.778	9812.84
473.983	9419.63
474.188	9620.33
474.393	9173.88
474.598	9206.64
474.802	9327.47
475.007	9216.88
475.212	9108.34
475.417	8797.05
475.621	8897.4
475.826	8870.78
476.031	8698.75
476.235	8659.84
476.44	8477.57
476.645	8418.18
476.849	8385.41
477.054	8188.8
477.259	8061.83
477.463	8168.32
477.668	7932.81
477.872	8194.95
478.077	7986.05
478.282	7672.71
478.486	7728.01
478.691	7617.42
478.895	7674.76
479.1	7760.78
479.304	7615.37
479.509	7412.62
479.713	7605.13
479.918	7334.8
480.122	7420.81
480.326	7269.27
480.531	7353.23
480.735	7279.5
480.94	7259.03
481.144	7490.45
481.348	7029.65
481.553	7207.83
481.757	7003.03
481.961	7193.49
482.166	7240.59
482.37	7242.64
482.574	6994.84
482.778	7113.62
482.983	7136.15
483.187	7201.68
483.391	7263.12
483.595	6931.35
483.8	6994.84
484.004	6951.83
484.208	7156.63
484.412	7015.32
484.616	7019.41
484.821	7103.38
485.025	6822.81
485.229	7130
485.433	6884.25
485.637	6980.5
485.841	6937.49
486.045	7111.57
486.249	6998.93
486.453	7019.41
486.657	7005.08
486.861	7146.39
487.065	6874.01
487.269	6831
487.473	6790.04
487.677	7109.52
487.881	7025.56
488.085	7023.51
488.289	7054.23
488.493	6863.77
488.697	7121.81
488.901	7127.96
489.105	6908.82
489.309	7119.76
489.512	7203.73
489.716	7240.59
489.92	7013.27
490.124	7105.43
490.328	7240.59
490.531	7144.34
490.735	7134.1
490.939	7338.9
491.143	7351.18
491.346	7326.61
491.55	7318.42
491.754	7476.11
491.958	7502.73
492.161	7287.7
492.365	7463.82
492.569	7410.57
492.772	7420.81
492.976	7494.54
493.18	7605.13
493.383	7682.95
493.587	7576.46
493.79	7570.32
493.994	7584.65
494.197	7846.79
494.401	7957.38
494.605	7805.83
494.808	7979.91
495.012	7938.95
495.215	8096.64
495.419	7949.19
495.622	8018.82
495.825	8221.57
496.029	8117.12
496.232	8393.6
496.436	8285.06
496.639	8323.97
496.843	8530.81
497.046	8526.72
497.249	8551.29
497.453	8772.47
497.656	8741.75
497.859	8776.57
498.063	8766.33
498.266	9075.57
498.469	9003.89
498.673	9046.9
498.876	9055.09
499.079	9474.93
499.282	9288.56
499.485	9507.69
499.689	9616.24
499.892	9599.85
500.095	10001.26
500.298	10234.72
500.501	9982.82
500.705	10263.4
500.908	10238.82
501.111	10169.19
501.314	10488.67
501.517	10439.52
501.72	10689.37
501.923	10718.04
502.126	11015
502.329	11084.63
502.532	11109.21
502.735	11334.48
502.938	11692.88
503.141	11782.99
503.344	11795.28
503.547	11760.46
503.75	11836.24
503.953	12067.66
504.156	12149.57
504.359	12352.32
504.562	12442.43
504.765	12620.61
504.968	12739.39
505.17	13097.78
505.373	12823.36
505.576	13183.8
505.779	13189.94
505.982	13478.71
506.185	13650.74
506.387	13708.08
506.59	13808.43
506.793	14213.93
506.996	14166.82
507.198	14605.09
507.401	14431.01
507.604	14752.54
507.807	14910.24
508.009	15022.87
508.212	14910.24
508.415	15303.45
508.617	15371.03
508.82	15432.47
509.022	15393.56
509.225	16067.34
509.428	15840.01
509.63	16028.43
509.833	16382.73
510.035	16681.73
510.238	16403.21
510.44	16661.25
510.643	16921.34
510.845	17109.75
511.048	16773.89
511.25	17523.44
511.453	17181.43
511.655	17879.79
511.858	17875.7
512.06	18088.68
512.262	18119.4
512.465	18389.74
512.667	18481.89
512.87	18989.79
513.072	18860.77
513.274	19229.4
513.477	19278.55
513.679	19632.85
513.881	19516.12
514.084	19849.94
514.286	20017.87
514.488	19825.36
514.69	20812.48
514.893	20878.02
515.095	20835.01
515.297	21123.77
515.499	21088.96
515.701	21283.52
515.904	21781.17
516.106	21598.9
516.308	22086.32
516.51	22493.86
516.712	22418.09
516.914	22784.68
517.116	22700.71
517.318	23282.33
517.52	23149.21
517.722	23587.48
517.925	23634.58
518.127	23808.66
518.329	24246.93
518.531	23804.56
518.733	24271.5
518.935	24629.9
519.136	24795.78
519.338	25094.79
519.54	25051.78
519.742	25447.04
519.944	25444.99
520.146	25899.64
520.348	26169.97
520.55	26253.94
520.752	26176.11
520.954	26880.61
521.155	26671.72
521.357	26626.67
521.559	27034.21
521.761	27785.82
521.963	27576.92
522.164	27138.66
522.366	27826.78
522.568	28213.84
522.77	28392.01
522.971	28283.47
523.173	28387.92
523.375	28705.35
523.576	28961.35
523.778	28908.1
523.98	29276.74
524.181	29798.97
524.383	29596.22
524.584	29715
524.786	29874.74
524.988	30104.12
525.189	30120.5
525.391	30302.77
525.592	30353.97
525.794	30759.47
525.995	30919.21
526.197	30628.4
526.398	30863.91
526.6	30931.5
526.801	31259.17
527.003	31336.99
527.204	31760.92
527.406	31873.56
527.607	31629.85
527.808	31896.09
528.01	31443.49
528.211	32205.33
528.412	32428.56
528.614	32379.41
528.815	32375.31
529.016	32547.34
529.218	32408.08
529.419	32576.01
529.62	32674.32
529.822	32868.87
530.023	33047.05
530.224	32377.36
530.425	32893.45
530.626	32463.38
530.828	32799.24
531.029	33561.09
531.23	32735.76
531.431	33208.84
531.632	33444.35
531.833	33198.6
532.035	33255.94
532.236	33341.96
532.437	33763.84
532.638	33298.95
532.839	33651.2
533.04	33552.9
533.241	32958.99
533.442	34034.17
533.643	33479.17
533.844	33765.88
534.045	33536.51
534.246	33493.5
534.447	33802.75
534.648	33518.08
534.849	33890.81
535.05	33374.72
535.251	33911.29
535.451	33913.34
535.652	33954.3
535.853	33810.94
536.054	34169.33
536.255	34161.14
536.456	33786.36
536.657	34044.41
536.857	33704.45
537.058	33571.33
537.259	33868.28
537.46	33935.87
537.66	33600
537.861	33821.18
538.062	33679.87
538.263	33872.38
538.463	33673.73
538.664	33712.64
538.865	34195.96
539.065	34103.8
539.266	33335.81
539.466	34042.36
539.667	33352.2
539.868	33782.27
540.068	33849.85
540.269	33538.56
540.469	33610.24
540.67	33319.43
540.87	33753.6
541.071	33520.13
541.271	34114.04
541.472	33847.8
541.672	33808.89
541.873	33718.78
542.073	33391.11
542.274	33835.52
542.474	33643.01
542.675	33602.05
542.875	33655.29
543.075	33835.52
543.276	33171.97
543.476	33669.63
543.676	33624.57
543.877	33901.05
544.077	33661.44
544.277	32862.73
544.478	33520.13
544.678	33681.92
544.878	33296.9
545.078	33417.73
545.279	33452.55
545.479	33593.86
545.679	33774.08
545.879	33212.93
546.079	33507.84
546.28	33528.32
546.48	33399.3
546.68	33122.82
546.88	33339.91
547.08	33526.27
547.28	33301
547.48	33325.57
547.68	33372.67
547.88	33282.56
548.081	33473.03
548.281	33292.8
548.481	33255.94
548.681	33593.86
548.881	33448.45
549.081	33751.55
549.28	33323.52
549.48	33489.41
549.68	33346.05
549.88	33884.67
550.08	33184.26
550.28	33458.69
550.48	33391.11
550.68	33653.25
550.88	33511.94
551.08	33479.17
551.279	33407.49
551.479	33114.63
551.679	33294.85
551.879	33159.69
552.079	33272.32
552.278	33333.76
552.478	33393.15
552.678	33092.1
552.878	33415.68
553.077	33073.67
553.277	33004.04
553.477	33413.63
553.676	32934.41
553.876	33038.86
554.076	33133.06
554.275	33008.14
554.475	32647.69
554.674	33010.18
554.874	33073.67
555.074	33014.28
555.273	33421.83
555.473	32791.05
555.672	32803.34
555.872	33067.53
556.071	33118.73
556.271	32977.42
556.47	32756.24
556.67	32596.49
556.869	32764.43
557.068	32223.76
557.268	32463.38
557.467	32586.25
557.667	32690.7
557.866	32520.72
558.065	32438.8
558.265	32205.33
558.464	32119.32
558.663	32449.04
558.863	31584.8
559.062	32406.03
559.261	31810.07
559.461	32481.81
559.66	31625.76
559.859	31726.11
560.058	31742.49
560.258	31707.68
560.457	31441.44
560.656	32219.67
560.855	31597.09
561.054	31959.58
561.253	31490.59
561.453	31781.4
561.652	31726.11
561.851	32021.02
562.05	31265.31
562.249	31087.14
562.448	31390.24
562.647	30986.79
562.846	31293.99
563.045	31033.89
563.244	30800.43
563.443	31175.2
563.642	30822.95
563.841	30980.65
564.04	30677.55
564.239	31052.33
564.438	30628.4
564.637	30898.73
564.836	30632.49
565.035	30622.25
565.234	30788.14
565.432	30192.18
565.631	30214.71
565.83	30368.3
566.029	30243.38
566.228	30489.13
566.427	30259.76
566.625	29706.81
566.824	29641.28
567.023	30042.68
567.222	29225.54
567.42	29788.73
567.619	29780.54
567.818	29434.43
568.016	29444.67
568.215	29858.36
568.414	29620.8
568.612	29862.46
568.811	29098.56
569.01	29397.57
569.208	28838.47
569.407	29289.03
569.605	28928.58
569.804	29028.93
570.002	28760.65
570.201	28965.45
570.4	28547.66
570.598	28410.45
570.797	28451.41
570.995	28695.11
571.193	28437.07
571.392	28557.9
571.59	28238.42
571.789	28256.85
571.987	28269.14
572.186	27976.28
572.384	27781.72
572.582	28093.01
572.781	28021.33
572.979	27503.2
573.177	27679.32
573.376	27855.45
573.574	27718.23
573.772	27419.23
573.971	27433.57
574.169	27337.31
574.367	27099.75
574.565	27564.64
574.763	27261.54
574.962	26919.53
575.16	26903.14
575.358	26931.81
575.556	26708.58
575.754	27095.65
575.952	26237.55
576.151	26833.51
576.349	26370.67
576.547	26491.5
576.745	26657.39
576.943	26452.59
577.141	26083.95
577.339	26196.59
577.537	25936.5
577.735	26028.66
577.933	25860.73
578.131	26081.91
578.329	25664.12
578.527	25836.15
578.725	25766.52
578.923	25805.43
579.121	25551.48
579.319	25399.93
579.516	25584.25
579.714	25629.3
579.912	25334.4
580.11	25371.26
580.308	25256.57
580.506	25021.06
580.704	24705.67
580.901	25111.17
581.099	25008.77
581.297	24840.84
581.495	24844.93
581.692	24763.01
581.89	24738.44
582.088	24982.15
582.285	24480.39
582.483	24615.56
582.681	24543.88
582.878	24492.68
583.076	23954.07
583.274	24474.25
583.471	24066.7
583.669	24038.03
583.866	23917.2
584.064	23970.45
584.262	23693.97
584.459	24046.23
584.657	23614.1
584.854	23816.85
585.052	23499.42
585.249	23607.96
585.447	23380.64
585.644	23198.37
585.841	23462.55
586.039	23268
586.236	23282.33
586.434	22964.9
586.631	23036.58
586.828	22825.64
587.026	23184.03
587.223	22928.03
587.42	22936.23
587.618	22694.57
587.815	22504.1
588.012	22506.15
588.21	22446.76
588.407	22614.69
588.604	22497.96
588.801	21750.45
588.999	22295.21
589.196	22158
589.393	21959.34
589.59	22016.69
589.787	22063.79
589.984	21971.63
590.182	21713.59
590.379	21981.87
590.576	21605.05
590.773	21615.29
590.97	21770.93
591.167	21564.09
591.364	21445.3
591.561	21547.7
591.758	21277.37
591.955	21263.04
592.152	21217.98
592.349	20847.3
592.546	21093.05
592.743	21236.41
592.94	20826.82
593.137	20867.78
593.334	21179.07
593.531	20695.75
593.727	20884.16
593.924	20687.56
594.121	20232.91
594.318	20794.05
594.515	20355.79
594.712	20867.78
594.908	20566.73
595.105	20271.82
595.302	20218.57
595.499	20224.72
595.696	20185.8
595.892	19972.82
596.089	20138.7
596.286	20077.26
596.482	20101.84
596.679	20077.26
596.876	20153.04
597.072	19897.04
597.269	19819.22
597.466	19602.13
597.662	19499.73
597.859	19565.27
598.055	19378.9
598.252	19403.48
598.448	19344.09
598.645	19043.04
598.841	19098.33
599.038	19210.97
599.234	19333.85
599.431	19002.08
599.627	18864.86
599.824	18950.88
600.02	18877.15
600.217	18717.41
600.413	18676.45
600.609	18735.84
600.806	18500.33
601.002	18791.14
601.198	18524.9
601.395	18641.64
601.591	18485.99
601.787	18391.78
601.984	18346.73
602.18	18520.81
602.376	18119.4
602.572	17963.76
602.769	18211.56
602.965	17898.22
603.161	18107.12
603.357	17928.94
603.553	17922.8
603.75	17859.31
603.946	17746.67
604.142	17748.72
604.338	17433.33
604.534	17621.75
604.73	17345.27
604.926	17554.16
605.122	17251.06
605.318	17462.01
605.514	17416.95
605.71	17179.39
605.906	17355.51
606.102	17046.27
606.298	17326.84
606.494	17072.89
606.69	17326.84
606.886	16855.81
607.082	16902.91
607.278	17193.72
607.474	16739.07
607.67	16935.68
607.866	16462.6
608.062	16972.54
608.257	16448.26
608.453	16718.59
608.649	16839.42
608.845	16280.33
609.041	16548.61
609.236	16560.9
609.432	16345.86
609.628	16382.73
609.824	16356.1
610.019	16042.76
610.215	16263.94
610.411	16151.31
610.606	16218.89
610.802	15997.71
610.998	16057.1
611.193	16038.67
611.389	15993.61
611.584	15901.45
611.78	15856.4
611.976	15901.45
612.171	16071.43
612.367	15895.31
612.562	15907.6
612.758	15895.31
612.953	15450.9
613.149	15946.51
613.344	15616.79
613.539	15729.42
613.735	15680.27
613.93	15878.93
614.126	15606.55
614.321	15719.18
614.517	15917.84
614.712	15414.04
614.907	15469.33
615.103	15682.32
615.298	15293.21
615.493	15608.59
615.688	15432.47
615.884	15751.95
616.079	15500.05
616.274	15328.02
616.47	15547.15
616.665	15125.27
616.86	15051.55
617.055	14963.48
617.25	14848.8
617.445	15123.23
617.641	14926.62
617.836	14887.71
618.031	14689.06
618.226	14822.17
618.421	14834.46
618.616	14895.9
618.811	14900
619.006	14803.74
619.201	14678.82
619.396	14590.75
619.591	14328.61
619.786	14408.48
619.981	14172.97
620.176	14568.23
620.371	14261.03
620.566	14109.48
620.761	14129.96
620.956	14351.14
621.151	13755.18
621.346	13988.65
621.541	13656.88
621.735	13964.07
621.93	13583.15
622.125	13742.89
622.32	13521.71
622.515	13587.25
622.709	13656.88
622.904	13695.79
623.099	13306.68
623.294	13521.71
623.488	13185.85
623.683	13118.26
623.878	13095.74
624.072	13079.35
624.267	13048.63
624.462	13009.72
624.656	12651.33
624.851	12673.85
625.046	12620.61
625.24	12684.09
625.435	12514.11
625.629	12419.91
625.824	12387.14
626.018	12409.67
626.213	12184.39
626.407	12155.72
626.602	12172.1
626.796	12057.42
626.991	12186.44
627.185	11950.92
627.38	11909.96
627.574	11858.76
627.768	11582.29
627.963	11791.18
628.157	11518.8
628.352	11742.03
628.546	11178.84
628.74	11354.96
628.935	11164.5
629.129	11264.85
629.323	11285.33
629.517	11127.64
629.712	11076.44
629.906	11060.06
630.1	10845.02
630.294	10787.68
630.489	10994.52
630.683	10941.27
630.877	10763.1
631.071	10771.29
631.265	10599.26
631.459	10716
631.653	10445.66
631.848	10531.68
632.042	10580.83
632.236	10681.18
632.43	10421.09
632.624	10341.22
632.818	10189.67
633.012	10177.38
633.206	10021.74
633.4	10091.37
633.594	10214.24
633.788	10117.99
633.982	9909.1
634.176	10009.45
634.369	9835.37
634.563	9759.6
634.757	9653.1
634.951	9632.62
635.145	9694.06
635.339	9739.12
635.533	9608.05
635.726	9364.34
635.92	9562.99
636.114	9374.58
636.308	9337.71
636.501	9300.85
636.695	9225.08
636.889	9120.63
637.083	9165.68
637.276	9177.97
637.47	9120.63
637.664	9001.85
637.857	8991.61
638.051	8948.6
638.244	8993.65
638.438	8776.57
638.632	8774.52
638.825	8815.48
639.019	8694.65
639.212	8491.9
639.406	8534.91
639.599	8508.29
639.793	8502.14
639.986	8448.9
640.18	8600.44
640.373	8436.61
640.567	8373.12
640.76	8412.03
640.954	8414.08
641.147	7986.05
641.34	8248.19
641.534	8010.63
641.727	8160.13
641.92	7957.38
642.114	7996.29
642.307	8088.45
642.5	7988.1
642.694	7771.02
642.887	7680.91
643.08	7871.37
643.273	7766.92
643.467	7553.93
643.66	7666.57
643.853	7484.3
644.046	7521.17
644.239	7617.42
644.432	7500.69
644.626	7519.12
644.819	7324.56
645.012	7381.9
645.205	7375.76
645.398	7269.27
645.591	7017.36
645.784	7068.56
645.977	7123.86
646.17	7138.2
646.363	7027.6
646.556	7064.47
646.749	6925.21
646.942	6886.29
647.135	6978.45
647.328	6798.23
647.521	6802.33
647.714	6634.39
647.907	6773.66
648.099	6638.49
648.292	6749.08
648.485	6699.93
648.678	6642.59
648.871	6560.67
649.064	6532
649.256	6519.71
649.449	6562.72
649.642	6247.33
649.835	6421.41
650.027	6206.37
650.22	6347.68
650.413	6185.89
650.605	6269.86
650.798	6319.01
650.991	6302.62
651.183	6073.25
651.376	6187.94
651.568	6106.02
651.761	6044.58
651.954	6085.54
652.146	6124.45
652.339	5979.04
652.531	5993.38
652.724	5794.73
652.916	5929.89
653.109	5802.92
653.301	5917.61
653.494	5817.26
653.686	5733.29
653.879	5831.59
654.071	5651.37
654.263	5782.44
654.456	5661.61
654.648	5694.38
654.84	5643.18
655.033	5409.71
655.225	5401.52
655.417	5436.33
655.61	5577.64
655.802	5553.07
655.994	5436.33
656.186	5434.29
656.379	5274.54
656.571	5424.05
656.763	5143.47
656.955	5217.2
657.148	5290.93
657.34	5268.4
657.532	5350.32
657.724	5276.59
657.916	5196.72
658.108	5170.1
658.3	5112.75
658.492	5086.13
658.684	5065.65
658.876	4938.68
659.068	4940.72
659.26	4905.91
659.452	4856.76
659.644	4914.1
659.836	4701.11
660.028	4928.44
660.22	4879.29
660.412	4760.5
660.604	4823.99
660.796	4922.29
660.988	4809.65
661.18	4742.07
661.372	4604.86
661.563	4760.5
661.755	4619.19
661.947	4570.04
662.139	4594.62
662.331	4750.26
662.522	4422.59
662.714	4461.5
662.906	4617.15
663.097	4373.44
663.289	4445.12
663.481	4484.03
663.673	4455.36
663.864	4373.44
664.056	4303.81
664.247	4332.48
664.439	4275.13
664.631	4139.97
664.822	4260.8
665.014	4219.84
665.205	4170.69
665.397	4090.82
665.588	4139.97
665.78	4283.33
665.971	4185.02
666.163	4219.84
666.354	4209.6
666.546	4144.06
666.737	4166.59
666.929	4086.72
667.12	4070.34
667.311	4006.85
667.503	3892.16
667.694	4058.05
667.885	3873.73
668.077	3849.16
668.268	3943.36
668.459	3965.89
668.651	3783.62
668.842	3834.82
669.033	3900.36
669.224	3754.95
669.416	3920.84
669.607	3816.39
669.798	3881.92
669.989	3818.44
670.18	3677.13
670.371	3695.56
670.563	3836.87
670.754	3625.93
670.945	3851.21
671.136	3591.11
671.327	3695.56
671.518	3634.12
671.709	3638.22
671.9	3652.55
672.091	3603.4
672.282	3759.05
672.473	3664.84
672.664	3597.26
672.855	3556.3
673.046	3621.83
673.237	3644.36
673.428	3455.95
673.619	3453.9
673.809	3470.28
674	3378.12
674.191	3505.1
674.382	3443.66
674.573	3521.48
674.764	3480.52
674.954	3437.52
675.145	3349.45
675.336	3347.4
675.527	3443.66
675.717	3408.84
675.908	3404.75
676.099	3396.56
676.289	3302.35
676.48	3230.67
676.671	3251.15
676.861	3449.8
677.052	3316.69
677.243	3322.83
677.433	3300.3
677.624	3279.82
677.814	3224.53
678.005	3324.88
678.195	3322.83
678.386	3277.77
678.576	3365.84
678.767	3199.95
678.957	3275.73
679.148	3177.42
679.338	3267.53
679.529	3283.92
679.719	3089.36
679.909	3345.36
680.1	3140.56
680.29	3202
680.481	3197.9
680.671	3206.1
680.861	3158.99
681.052	3138.51
681.242	3165.14
681.432	3234.77
681.622	3206.1
681.813	3156.94
682.003	3130.32
682.193	3007.44
682.383	3163.09
682.573	3070.93
682.764	3238.86
682.954	3072.98
683.144	3120.08
683.334	2943.96
683.524	3005.39
683.714	3023.83
683.904	3087.31
684.094	3003.35
684.284	2960.34
684.474	2993.11
684.664	3105.74
684.854	2978.77
685.044	3021.78
685.234	2816.98
685.424	2816.98
685.614	2915.28
685.804	2939.86
685.994	2984.91
686.184	2948.05
686.374	3056.59
686.564	2816.98
686.753	2993.11
686.943	2825.17
687.133	2931.67
687.323	2792.41
687.513	2816.98
687.702	2784.21
687.892	2970.58
688.082	2890.71
688.272	2816.98
688.461	2821.08
688.651	2827.22
688.841	2714.58
689.03	2751.45
689.22	2638.81
689.41	2786.26
689.599	2720.73
689.789	2788.31
689.979	2786.26
690.168	2685.91
690.358	2653.14
690.547	2706.39
690.737	2728.92
690.926	2599.9
691.116	2491.35
691.305	2620.38
691.495	2714.58
691.684	2667.48
691.874	2624.47
692.063	2468.83
692.252	2651.1
692.442	2556.89
692.631	2472.92
692.82	2589.66
693.01	2460.63
693.199	2442.2
693.388	2458.59
693.578	2397.15
693.767	2456.54
693.956	2456.54
694.146	2505.69
694.335	2444.25
694.524	2515.93
694.713	2415.58
694.902	2464.73
695.092	2495.45
695.281	2501.59
695.47	2423.77
695.659	2409.44
695.848	2319.32
696.037	2393.05
696.226	2399.2
696.415	2261.98
696.604	2409.44
696.793	2456.54
696.982	2380.76
697.171	2395.1
697.36	2327.52
697.549	2378.72
697.738	2388.96
697.927	2362.33
698.116	2395.1
698.305	2374.62
698.494	2329.56
698.683	2270.17
698.872	2364.38
699.061	2317.28
699.25	2358.24
699.438	2253.79
699.627	2350.04
699.816	2452.44
700.005	2239.45
700.193	2304.99
700.382	2403.29
700.571	2261.98
700.76	2294.75
700.948	2366.43
701.137	2331.61
701.326	2286.56
701.514	2237.41
701.703	2210.78
701.892	2319.32
702.08	2374.62
702.269	2309.08
702.457	2405.34
702.646	2294.75
702.834	2292.7
703.023	2255.84
703.212	2341.85
703.4	2227.17
703.589	2243.55
703.777	2302.94
703.965	2259.93
704.154	2403.29
704.342	2304.99
704.531	2280.41
704.719	2235.36
704.907	2294.75
705.096	2243.55
705.284	2292.7
705.472	2304.99
705.661	2251.74
705.849	2284.51
706.037	2237.41
706.226	2333.66
706.414	2374.62
706.602	2296.8
706.79	2292.7
706.979	2278.37
707.167	2249.69
707.355	2229.21
707.543	2202.59
707.731	2237.41
707.919	2261.98
708.107	2270.17
708.296	2311.13
708.484	2188.25
708.672	2278.37
708.86	2163.68
709.048	2280.41
709.236	2182.11
709.424	2268.13
709.612	2202.59
709.8	2196.45
709.988	2268.13
710.176	2229.21
710.364	2284.51
710.551	2337.76
710.739	2210.78
710.927	2178.01
711.115	2341.85
711.303	2243.55
711.491	2229.21
711.679	2384.86
711.866	2206.69
712.054	2255.84
712.242	2302.94
712.43	2317.28
712.617	2153.44
712.805	2268.13
712.993	2313.18
713.181	2276.32
713.368	2188.25
713.556	2194.4
713.744	2122.72
713.931	2264.03
714.119	2235.36
714.306	2296.8
714.494	2253.79
714.682	2237.41
714.869	2196.45
715.057	2264.03
715.244	2194.4
715.432	2268.13
715.619	2296.8
715.807	2382.81
715.994	2288.61
716.182	2243.55
716.369	2198.49
716.556	2280.41
716.744	2196.45
716.931	2292.7
717.119	2350.04
717.306	2302.94
717.493	2243.55
717.681	2214.88
717.868	2272.22
718.055	2212.83
718.242	2206.69
718.43	2223.07
718.617	2161.63
718.804	2311.13
718.991	2253.79
719.179	2255.84
719.366	2374.62
719.553	2255.84
719.74	2247.65
719.927	2300.89
720.114	2259.93
720.301	2274.27
720.488	2225.12
720.676	2173.92
720.863	2221.02
721.05	2427.87
721.237	2137.06
721.424	2178.01
721.611	2278.37
721.798	2194.4
721.985	2190.3
722.172	2180.06
722.358	2276.32
722.545	2149.34
722.732	2227.17
722.919	2221.02
723.106	2153.44
723.293	2300.89
723.48	2229.21
723.667	2223.07
723.853	2229.21
724.04	2218.97
724.227	2382.81
724.414	2313.18
724.6	2352.09
724.787	2249.69
724.974	2333.66
725.161	2137.06
725.347	2204.64
725.534	2251.74
725.72	2231.26
725.907	2333.66
726.094	2335.71
726.28	2196.45
726.467	2137.06
726.653	2280.41
726.84	2194.4
727.027	2329.56
727.213	2227.17
727.4	2167.77
727.586	2341.85
727.773	2178.01
727.959	2229.21
728.145	2218.97
728.332	2261.98
728.518	2198.49
728.705	2264.03
728.891	2284.51
729.077	2284.51
729.264	2409.44
729.45	2261.98
729.636	2329.56
729.823	2163.68
730.009	2253.79
730.195	2214.88
730.382	2253.79
730.568	2210.78
730.754	2210.78
730.94	2214.88
731.126	2288.61
731.313	2212.83
731.499	2247.65
731.685	2182.11
731.871	2302.94
732.057	2200.54
732.243	2304.99
732.429	2204.64
732.615	2251.74
732.801	2292.7
732.987	2120.67
733.173	2235.36
733.359	2294.75
733.545	2186.21
733.731	2202.59
733.917	2284.51
734.103	2218.97
734.289	2249.69
734.475	2155.49
734.661	2309.08
734.847	2253.79
735.033	2223.07
735.219	2212.83
735.404	2204.64
735.59	2221.02
735.776	2089.95
735.962	2161.63
736.148	2284.51
736.333	2139.1
736.519	2118.62
736.705	2251.74
736.89	2233.31
737.076	2196.45
737.262	2112.48
737.447	2227.17
737.633	2194.4
737.819	2163.68
738.004	2141.15
738.19	2233.31
738.375	2096.1
738.561	2112.48
738.747	2051.04
738.932	2198.49
739.118	2130.91
739.303	2081.76
739.489	2145.25
739.674	2067.42
739.859	2075.62
740.045	2083.81
740.23	2120.67
740.416	2124.77
740.601	2122.72
740.786	2192.35
740.972	2044.9
741.157	2030.56
741.342	2104.29
741.528	2038.75
741.713	2114.53
741.898	1973.22
742.084	2040.8
742.269	2067.42
742.454	2048.99
742.639	2046.94
742.824	1991.65
743.01	2030.56
743.195	1997.79
743.38	1981.41
743.565	2010.08
743.75	2022.37
743.935	1958.88
744.12	2141.15
744.305	1907.68
744.49	1919.97
744.675	1874.92
744.86	1909.73
745.045	2040.8
745.23	1936.35
745.415	1934.31
745.6	1883.11
745.785	1874.92
745.97	1795.04
746.155	1825.76
746.34	1862.63
746.525	1809.38
746.71	1958.88
746.895	1653.73
747.079	1827.81
747.264	1858.53
747.449	1774.56
747.634	1891.3
747.819	1793
748.003	1729.51
748.188	1760.23
748.373	1680.36
748.557	1682.41
748.742	1778.66
748.927	1711.08
749.111	1774.56
749.296	1678.31
749.481	1676.26
749.665	1631.21
749.85	1680.36
750.034	1727.46
750.219	1698.79
750.404	1592.3
750.588	1575.91
750.773	1645.54
750.957	1661.93
751.141	1520.62
751.326	1678.31
751.51	1616.87
751.695	1547.24
751.879	1657.83
752.064	1582.06
752.248	1606.63
752.432	1637.35
752.617	1547.24
752.801	1469.42
752.985	1424.36
753.17	1475.56
753.354	1580.01
753.538	1528.81
753.722	1383.4
753.907	1434.6
754.091	1463.27
754.275	1383.4
754.459	1416.17
754.643	1432.55
754.828	1412.07
755.012	1395.69
755.196	1455.08
755.38	1422.31
755.564	1344.49
755.748	1313.77
755.932	1403.88
756.116	1278.96
756.3	1403.88
756.484	1407.98
756.668	1276.91
756.852	1328.11
757.036	1260.52
757.22	1215.47
757.404	1358.83
757.588	1221.61
757.772	1319.92
757.956	1176.56
758.14	1254.38
758.323	1178.61
758.507	1240.05
758.691	1238
758.875	1203.18
759.059	1227.76
759.242	1145.84
759.426	1106.93
759.61	1119.21
759.794	1113.07
759.977	1207.28
760.161	1276.91
760.345	1205.23
760.528	1141.74
760.712	1096.69
760.895	1184.75
761.079	1194.99
761.263	1065.97
761.446	1098.74
761.63	1162.22
761.813	1098.74
761.997	1065.97
762.18	1076.21
762.364	1076.21
762.547	1016.82
762.731	1147.89
762.914	992.24
763.098	1035.25
763.281	1123.31
763.464	1121.26
763.648	1020.91
763.831	1006.58
764.015	1088.5
764.198	1100.78
764.381	1016.82
764.564	1010.67
764.748	1010.67
764.931	1080.3
765.114	936.95
765.297	1014.77
765.481	1072.11
765.664	975.86
765.847	1010.67
766.03	924.66
766.213	949.23
766.397	955.38
766.58	916.47
766.763	1006.58
766.946	986.1
767.129	998.38
767.312	1018.86
767.495	883.7
767.678	930.8
767.861	979.95
768.044	941.04
768.227	969.71
768.41	938.99
768.593	795.64
768.776	965.62
768.959	932.85
769.142	943.09
769.324	934.9
769.507	951.28
769.69	945.14
769.873	982
770.056	893.94
770.239	938.99
770.421	941.04
770.604	883.7
770.787	859.12
770.97	848.88
771.152	820.21
771.335	869.36
771.518	859.12
771.7	869.36
771.883	982
772.066	857.07
772.248	941.04
772.431	844.79
772.613	785.4
772.796	875.51
772.978	863.22
773.161	826.36
773.343	805.88
773.526	715.77
773.708	773.11
773.891	834.55
774.073	842.74
774.256	703.48
774.438	777.2
774.621	711.67
774.803	807.92
774.985	785.4
775.168	760.82
775.35	705.53
775.532	791.54
775.715	703.48
775.897	826.36
776.079	687.09
776.261	711.67
776.444	699.38
776.626	785.4
776.808	697.33
776.99	742.39
777.173	705.53
777.355	680.95
777.537	596.98
777.719	695.29
777.901	615.41
778.083	637.94
778.265	642.04
778.447	678.9
778.629	623.61
778.811	603.13
778.993	744.44
779.175	678.9
779.357	666.61
779.539	656.37
779.721	670.71
779.903	678.9
780.085	584.7
780.267	590.84
780.449	664.57
780.631	629.75
780.812	734.2
780.994	572.41
781.176	650.23
781.358	576.5
781.54	621.56
781.721	556.02
781.903	498.68
782.085	490.49
782.267	613.37
782.448	560.12
782.63	539.64
782.812	584.7
782.993	535.54
783.175	545.78
783.357	541.69
783.538	484.34
783.72	531.45
783.901	590.84
784.083	494.58
784.264	502.78
784.446	498.68
784.627	472.06
784.809	523.26
784.99	506.87
785.172	467.96
785.353	506.87
785.535	556.02
785.716	470.01
785.897	508.92
786.079	461.82
786.26	482.3
786.441	402.43
786.623	414.71
786.804	447.48
786.985	449.53
787.167	459.77
787.348	490.49
787.529	424.95
787.71	539.64
787.891	441.34
788.073	367.61
788.254	404.47
788.435	564.22
788.616	416.76
788.797	392.19
788.978	322.56
789.159	326.65
789.34	437.24
789.522	386.04
789.703	451.58
789.884	392.19
790.065	386.04
790.246	437.24
790.427	343.03
790.607	416.76
790.788	392.19
790.969	367.61
791.15	388.09
791.331	363.51
791.512	392.19
791.693	343.03
791.874	386.04
792.054	429.05
792.235	420.86
792.416	371.71
792.597	285.69
792.778	408.57
792.958	244.73
793.139	314.36
793.32	355.32
793.5	295.93
793.681	377.85
793.862	273.4
794.042	386.04
794.223	336.89
794.404	377.85
794.584	351.23
794.765	265.21
794.945	359.42
795.126	244.73
795.306	375.8
795.487	310.27
795.667	261.12
795.848	287.74
796.028	297.98
796.209	371.71
796.389	277.5
796.57	261.12
796.75	285.69
796.93	345.08
797.111	254.97
797.291	236.54
797.471	236.54
797.652	281.6
797.832	287.74
798.012	441.34
798.192	222.2
798.373	287.74
798.553	248.83
798.733	265.21
798.913	263.16
799.093	228.35
799.274	244.73
799.454	203.77
799.634	318.46
799.814	246.78
799.994	261.12
800.174	187.39
800.354	257.02
800.534	248.83
800.714	289.79
800.894	271.36
801.074	300.03
801.254	324.6
801.434	293.88
801.614	246.78
801.794	162.81
801.974	912.37
802.154	228.35
802.334	291.84
802.514	277.5
802.693	224.25
802.873	211.96
803.053	316.41
803.233	252.92
803.413	318.46
803.592	310.27
803.772	220.16
803.952	261.12
804.131	250.88
804.311	287.74
804.491	285.69
804.67	326.65
804.85	236.54
805.03	224.25
805.209	295.93
805.389	191.49
805.568	205.82
805.748	136.19
805.928	287.74
806.107	191.49
806.287	224.25
806.466	205.82
806.646	269.31
806.825	146.43
807.004	179.2
807.184	205.82
807.363	240.64
807.543	232.44
807.722	150.53
807.901	154.62
808.081	175.1
808.26	115.71
808.439	261.12
808.619	199.68
808.798	214.01
808.977	156.67
809.156	261.12
809.336	179.2
809.515	203.77
809.694	230.4
809.873	211.96
810.052	187.39
810.231	220.16
810.411	248.83
810.59	195.58
810.769	136.19
810.948	209.92
811.127	142.33
811.306	228.35
811.485	136.19
811.664	287.74
811.843	191.49
812.022	214.01
812.201	138.24
812.38	214.01
812.559	228.35
812.737	197.63
812.916	125.95
813.095	189.44
813.274	189.44
813.453	236.54
813.632	201.72
813.811	248.83
813.989	168.96
814.168	162.81
814.347	154.62
814.526	166.91
814.704	214.01
814.883	156.67
815.062	201.72
815.24	228.35
815.419	191.49
815.598	197.63
815.776	99.33
815.955	171.01
816.133	132.09
816.312	185.34
816.49	87.04
816.669	162.81
816.847	132.09
817.026	173.05
817.204	146.43
817.383	211.96
817.561	162.81
817.74	203.77
817.918	162.81
818.097	171.01
818.275	93.18
818.453	179.2
818.632	197.63
818.81	142.33
818.988	205.82
819.167	187.39
819.345	187.39
819.523	138.24
819.701	113.66
819.879	109.57
820.058	99.33
820.236	136.19
820.414	193.53
820.592	162.81
820.77	142.33
820.948	146.43
821.127	101.37
821.305	171.01
821.483	130.05
821.661	138.24
821.839	164.86
822.017	99.33
822.195	60.42
822.373	189.44
822.551	91.13
822.729	123.9
822.907	70.65
823.085	125.95
823.262	130.05
823.44	107.52
823.618	103.42
823.796	158.72
823.974	160.77
824.152	148.48
824.329	105.47
824.507	99.33
824.685	95.23
824.863	89.09
825.04	99.33
825.218	230.4
825.396	99.33
825.574	97.28
825.751	214.01
825.929	130.05
826.107	17.41
826.284	156.67
826.462	113.66
826.639	113.66
826.817	123.9
826.994	101.37
827.172	66.56
827.349	160.77
827.527	91.13
827.704	171.01
827.882	138.24
828.059	50.18
828.237	146.43
828.414	146.43
828.591	109.57
828.769	115.71
828.946	101.37
829.124	121.85
829.301	113.66
829.478	187.39
829.655	89.09
829.833	123.9
830.01	52.22
830.187	187.39
830.364	115.71
830.542	173.05
830.719	142.33
830.896	121.85
831.073	179.2
831.25	50.18
831.427	154.62
831.604	154.62
831.782	132.09
831.959	101.37
832.136	130.05
832.313	89.09
832.49	64.51
832.667	91.13
832.844	52.22
833.021	148.48
833.198	162.81
833.374	130.05
833.551	91.13
833.728	68.61
833.905	150.53
834.082	74.75
834.259	123.9
834.436	46.08
834.612	97.28
834.789	44.03
834.966	119.81
835.143	72.7
835.319	109.57
835.496	60.42
835.673	105.47
835.85	138.24
836.026	166.91
836.203	68.61
836.38	89.09
836.556	103.42
836.733	58.37
836.909	130.05
837.086	115.71
837.262	44.03
837.439	64.51
837.616	78.85
837.792	187.39
837.968	89.09
838.145	41.98
838.321	72.7
838.498	50.18
838.674	52.22
838.851	19.46
839.027	48.13
839.203	68.61
839.38	123.9
839.556	125.95
839.732	134.14
839.909	72.7
840.085	138.24
840.261	140.29
840.437	107.52
840.614	87.04
840.79	148.48
840.966	97.28
841.142	113.66
841.318	72.7
841.494	82.94
841.671	27.65
841.847	62.46
842.023	39.94
842.199	97.28
842.375	138.24
842.551	117.76
842.727	80.89
842.903	154.62
843.079	109.57
843.255	31.74
843.431	93.18
843.607	64.51
843.783	54.27
843.959	146.43
844.134	54.27
844.31	89.09
844.486	74.75
844.662	-1.02
844.838	87.04
845.013	82.94
845.189	105.47
845.365	91.13
845.541	113.66
845.716	80.89
845.892	103.42
846.068	105.47
846.244	62.46
846.419	80.89
846.595	91.13
846.77	80.89
846.946	70.65
847.122	31.74
847.297	97.28
847.473	179.2
847.648	1.02
847.824	23.55
847.999	62.46
848.175	56.32
848.35	50.18
848.526	121.85
848.701	107.52
848.876	107.52
849.052	56.32
849.227	115.71
849.403	35.84
849.578	109.57
849.753	66.56
849.929	93.18
850.104	80.89
850.279	91.13
850.454	91.13
850.63	97.28
850.805	54.27
850.98	146.43
851.155	23.55
851.33	23.55
851.505	48.13
851.681	121.85
851.856	56.32
852.031	95.23
852.206	66.56
852.381	39.94
852.556	17.41
852.731	80.89
852.906	82.94
853.081	87.04
853.256	103.42
853.431	1.02
853.606	64.51
853.781	17.41
853.956	54.27
854.131	80.89
854.305	-17.41
854.48	23.55
854.655	99.33
854.83	166.91
855.005	48.13
855.18	113.66
855.354	41.98
855.529	54.27
855.704	58.37
855.879	158.72
856.053	44.03
856.228	54.27
856.403	11.26
856.577	60.42
856.752	23.55
856.926	97.28
857.101	134.14
857.276	39.94
857.45	21.5
857.625	48.13
857.799	25.6
857.974	95.23
858.148	46.08
858.323	60.42
858.497	64.51
858.672	-5.12
858.846	82.94
859.02	15.36
859.195	134.14
859.369	72.7
859.543	33.79
859.718	44.03
859.892	50.18
860.066	97.28
860.241	-33.79
860.415	72.7
860.589	23.55
860.763	-9.22
860.938	31.74
861.112	150.53
861.286	-21.5
861.46	31.74
861.634	97.28
861.808	80.89
861.982	31.74
862.157	-15.36
862.331	66.56
862.505	41.98
862.679	60.42
862.853	60.42
863.027	72.7
863.201	80.89
863.375	15.36
863.549	39.94
863.722	97.28
863.896	87.04
864.07	37.89
864.244	50.18
864.418	41.98
864.592	-1.02
864.766	27.65
864.939	82.94
865.113	23.55
865.287	23.55
865.461	5.12
865.634	48.13
865.808	46.08
865.982	74.75
866.156	15.36
866.329	64.51
866.503	113.66
866.676	93.18
866.85	48.13
867.024	58.37
867.197	50.18
867.371	70.65
867.544	52.22
867.718	15.36
867.891	29.7
868.065	-1.02
868.238	39.94
868.412	74.75
868.585	56.32
868.759	11.26
868.932	3.07
869.105	64.51
869.279	121.85
869.452	46.08
869.625	39.94
869.799	33.79
869.972	-52.22
870.145	44.03
870.319	72.7
870.492	17.41
870.665	80.89
870.838	56.32
871.011	56.32
871.185	39.94
871.358	35.84
871.531	87.04
871.704	56.32
871.877	68.61
872.05	31.74
872.223	56.32
872.396	33.79
872.569	89.09
872.742	-50.18
872.915	44.03
873.088	-41.98
873.261	25.6
873.434	76.8
873.607	37.89
873.78	50.18
873.953	-1.02
874.126	1.02
874.299	15.36
874.471	23.55
874.644	48.13
874.817	31.74
874.99	113.66
875.163	9.22
875.335	117.76
875.508	56.32
875.681	138.24
875.853	27.65
876.026	19.46
876.199	80.89
876.371	82.94
876.544	68.61
876.717	105.47
876.889	-15.36
877.062	27.65
877.234	9.22
877.407	-33.79
877.579	80.89
877.752	25.6
877.924	33.79
878.097	99.33
878.269	46.08
878.442	31.74
878.614	31.74
878.786	33.79
878.959	-23.55
879.131	105.47
879.303	-58.37
879.476	15.36
879.648	39.94
879.82	115.71
879.993	66.56
880.165	-1.02
880.337	1.02
880.509	82.94
880.681	-19.46
880.854	44.03
881.026	58.37
881.198	56.32
881.37	-29.7
881.542	95.23
881.714	80.89
881.886	17.41
882.058	89.09
882.23	76.8
882.402	39.94
882.574	-25.6
882.746	93.18
882.918	107.52
883.09	52.22
883.262	9.22
883.434	31.74
883.606	-25.6
883.778	60.42
883.95	80.89
884.122	-13.31
884.293	52.22
884.465	56.32
884.637	31.74
884.809	35.84
884.98	70.65
885.152	68.61
885.324	74.75
885.496	7.17
885.667	-23.55
885.839	41.98
886.011	37.89
886.182	37.89
886.354	31.74
886.525	19.46
886.697	33.79
886.869	66.56
887.04	27.65
887.212	39.94
887.383	99.33
887.555	50.18
887.726	103.42
887.897	66.56
888.069	11.26
888.24	107.52
888.412	-33.79
888.583	56.32
888.754	72.7
888.926	-78.85
889.097	33.79
889.268	44.03
889.44	-21.5
889.611	39.94
889.782	23.55
889.953	19.46
890.125	117.76
890.296	11.26
890.467	-1.02
890.638	7.17
890.809	15.36
890.98	5.12
891.151	17.41
891.323	68.61
891.494	41.98
891.665	31.74
891.836	7.17
892.007	39.94
892.178	-5.12
892.349	48.13
892.52	52.22
892.691	31.74
892.862	23.55
893.032	82.94
893.203	-39.94
893.374	39.94
893.545	87.04
893.716	41.98
893.887	31.74
894.057	17.41
894.228	70.65
894.399	60.42
894.57	9.22
894.74	-23.55
894.911	11.26
895.082	-33.79
895.253	1.02
895.423	-13.31
895.594	52.22
895.764	-9.22
895.935	35.84
896.106	68.61
896.276	52.22
896.447	74.75
896.617	15.36
896.788	15.36
896.958	-68.61
897.129	-41.98
897.299	33.79
897.47	17.41
897.64	64.51
897.81	66.56
897.981	33.79
898.151	31.74
898.322	74.75
898.492	19.46
898.662	-1.02
898.832	46.08
899.003	101.37
899.173	15.36
899.343	-9.22
899.513	-33.79
