Data from USB4F104151__82__14-43-28-076.txt Node

Date: Thu Mar 13 14:43:28 EDT 2025
User: louis
Spectrometer: USB4F10415
Trigger mode: 4
Integration Time (sec): 2.000000E-2
Scans to average: 1
Electric dark correction enabled: true
Nonlinearity correction enabled: false
Boxcar width: 0
XAxis mode: Wavelengths
Number of Pixels in Spectrum: 3648
>>>>>Begin Spectral Data<<<<<
178.204	-62.63
178.424	-62.63
178.644	-62.63
178.864	-119.98
179.084	-119.98
179.304	43.86
179.524	-21.67
179.744	-3.24
179.964	50
180.184	-70.83
180.404	50
180.624	-9.39
180.844	11.09
181.064	-60.59
181.283	35.67
181.503	-48.3
181.723	23.38
181.943	7
182.163	43.86
182.383	19.29
182.602	45.91
182.822	101.2
183.042	109.4
183.262	7
183.482	4.95
183.701	0.85
183.921	-1.19
184.141	31.57
184.361	115.54
184.58	27.48
184.8	-27.82
185.02	-1.19
185.239	60.24
185.459	7
185.679	45.91
185.898	-5.29
186.118	35.67
186.338	56.15
186.557	2.9
186.777	-13.48
186.997	2.9
187.216	-21.67
187.436	133.97
187.655	74.58
187.875	15.19
188.095	29.52
188.314	45.91
188.534	62.29
188.753	21.33
188.973	-5.29
189.192	60.24
189.412	43.86
189.631	-1.19
189.851	-5.29
190.07	2.9
190.29	7
190.509	-13.48
190.729	43.86
190.948	27.48
191.168	150.36
191.387	113.49
191.607	2.9
191.826	15.19
192.045	56.15
192.265	31.57
192.484	84.82
192.704	45.91
192.923	-17.58
193.142	160.59
193.362	47.96
193.581	70.48
193.8	52.05
194.02	113.49
194.239	37.72
194.458	4.95
194.678	-40.11
194.897	123.73
195.116	-19.63
195.335	76.63
195.555	39.76
195.774	27.48
195.993	-1.19
196.212	90.96
196.432	39.76
196.651	27.48
196.87	-36.01
197.089	56.15
197.308	86.87
197.528	54.1
197.747	47.96
197.966	17.24
198.185	47.96
198.404	29.52
198.623	125.78
198.842	43.86
199.062	43.86
199.281	62.29
199.5	19.29
199.719	47.96
199.938	54.1
200.157	43.86
200.376	80.72
200.595	64.34
200.814	76.63
201.033	43.86
201.252	31.57
201.471	52.05
201.69	11.09
201.909	74.58
202.128	66.39
202.347	78.68
202.566	70.48
202.785	2.9
203.004	-25.77
203.223	2.9
203.442	15.19
203.661	33.62
203.879	76.63
204.098	35.67
204.317	17.24
204.536	95.06
204.755	-29.87
204.974	-11.43
205.193	105.3
205.411	191.31
205.63	93.01
205.849	-15.53
206.068	64.34
206.287	21.33
206.505	93.01
206.724	11.09
206.943	62.29
207.162	7
207.381	76.63
207.599	54.1
207.818	60.24
208.037	56.15
208.255	-27.82
208.474	23.38
208.693	125.78
208.911	62.29
209.13	66.39
209.349	23.38
209.567	23.38
209.786	125.78
210.005	43.86
210.223	37.72
210.442	-3.24
210.661	27.48
210.879	31.57
211.098	-19.63
211.316	39.76
211.535	129.88
211.753	39.76
211.972	19.29
212.191	43.86
212.409	35.67
212.628	60.24
212.846	-15.53
213.065	39.76
213.283	45.91
213.502	31.57
213.72	-3.24
213.938	17.24
214.157	54.1
214.375	47.96
214.594	2.9
214.812	88.92
215.031	17.24
215.249	-36.01
215.467	43.86
215.686	70.48
215.904	41.81
216.122	50
216.341	11.09
216.559	7
216.778	54.1
216.996	27.48
217.214	76.63
217.432	11.09
217.651	39.76
217.869	101.2
218.087	-3.24
218.306	35.67
218.524	76.63
218.742	-79.02
218.96	56.15
219.179	-40.11
219.397	11.09
219.615	113.49
219.833	66.39
220.051	-56.49
220.27	103.25
220.488	35.67
220.706	78.68
220.924	68.44
221.142	-5.29
221.36	-21.67
221.578	37.72
221.796	37.72
222.015	21.33
222.233	54.1
222.451	88.92
222.669	45.91
222.887	101.2
223.105	-11.43
223.323	97.11
223.541	-3.24
223.759	72.53
223.977	80.72
224.195	66.39
224.413	76.63
224.631	39.76
224.849	43.86
225.067	-5.29
225.285	52.05
225.503	15.19
225.721	31.57
225.939	13.14
226.157	-21.67
226.375	129.88
226.592	-5.29
226.81	4.95
227.028	97.11
227.246	54.1
227.464	-44.2
227.682	103.25
227.9	72.53
228.117	47.96
228.335	47.96
228.553	29.52
228.771	37.72
228.989	47.96
229.206	54.1
229.424	95.06
229.642	52.05
229.86	35.67
230.077	62.29
230.295	35.67
230.513	37.72
230.731	47.96
230.948	109.4
231.166	166.74
231.384	13.14
231.601	-79.02
231.819	39.76
232.037	-27.82
232.254	11.09
232.472	52.05
232.689	-33.96
232.907	29.52
233.125	31.57
233.342	43.86
233.56	-11.43
233.777	21.33
233.995	-7.34
234.213	129.88
234.43	78.68
234.648	43.86
234.865	45.91
235.083	84.82
235.3	97.11
235.518	13.14
235.735	43.86
235.953	62.29
236.17	43.86
236.388	68.44
236.605	-21.67
236.822	68.44
237.04	103.25
237.257	43.86
237.475	43.86
237.692	25.43
237.909	7
238.127	15.19
238.344	-5.29
238.562	35.67
238.779	19.29
238.996	43.86
239.214	54.1
239.431	76.63
239.648	-50.35
239.865	52.05
240.083	121.68
240.3	74.58
240.517	27.48
240.735	27.48
240.952	84.82
241.169	88.92
241.386	113.49
241.603	45.91
241.821	-25.77
242.038	60.24
242.255	74.58
242.472	-50.35
242.689	4.95
242.907	84.82
243.124	56.15
243.341	43.86
243.558	21.33
243.775	52.05
243.992	-19.63
244.209	-1.19
244.426	41.81
244.643	35.67
244.86	-13.48
245.078	43.86
245.295	80.72
245.512	-17.58
245.729	76.63
245.946	-11.43
246.163	13.14
246.38	19.29
246.597	-5.29
246.814	64.34
247.031	35.67
247.248	-5.29
247.464	35.67
247.681	17.24
247.898	41.81
248.115	-3.24
248.332	13.14
248.549	70.48
248.766	70.48
248.983	58.2
249.2	68.44
249.417	52.05
249.633	27.48
249.85	78.68
250.067	52.05
250.284	58.2
250.501	76.63
250.717	43.86
250.934	68.44
251.151	13.14
251.368	33.62
251.585	-13.48
251.801	43.86
252.018	70.48
252.235	13.14
252.451	17.24
252.668	68.44
252.885	76.63
253.102	43.86
253.318	11.09
253.535	4.95
253.752	56.15
253.968	76.63
254.185	47.96
254.401	23.38
254.618	2.9
254.835	13.14
255.051	109.4
255.268	101.2
255.484	47.96
255.701	35.67
255.917	2.9
256.134	-1.19
256.351	13.14
256.567	13.14
256.784	117.59
257	-74.92
257.217	70.48
257.433	-33.96
257.65	11.09
257.866	84.82
258.082	27.48
258.299	11.09
258.515	47.96
258.732	-9.39
258.948	54.1
259.165	-7.34
259.381	56.15
259.597	7
259.814	15.19
260.03	21.33
260.246	-9.39
260.463	64.34
260.679	101.2
260.895	62.29
261.112	144.21
261.328	70.48
261.544	35.67
261.761	78.68
261.977	13.14
262.193	35.67
262.409	62.29
262.626	19.29
262.842	7
263.058	45.91
263.274	47.96
263.49	4.95
263.707	101.2
263.923	-1.19
264.139	-9.39
264.355	-9.39
264.571	109.4
264.787	29.52
265.004	101.2
265.22	43.86
265.436	2.9
265.652	50
265.868	76.63
266.084	-13.48
266.3	68.44
266.516	43.86
266.732	52.05
266.948	19.29
267.164	15.19
267.38	62.29
267.596	60.24
267.812	60.24
268.028	60.24
268.244	-1.19
268.46	60.24
268.676	2.9
268.892	27.48
269.108	-44.2
269.324	-13.48
269.54	19.29
269.756	113.49
269.972	-11.43
270.188	47.96
270.403	21.33
270.619	27.48
270.835	13.14
271.051	-79.02
271.267	43.86
271.483	35.67
271.698	68.44
271.914	37.72
272.13	2.9
272.346	23.38
272.562	105.3
272.777	45.91
272.993	11.09
273.209	56.15
273.425	33.62
273.64	60.24
273.856	13.14
274.072	43.86
274.287	-11.43
274.503	27.48
274.719	-17.58
274.934	-9.39
275.15	-11.43
275.366	39.76
275.581	50
275.797	39.76
276.012	19.29
276.228	41.81
276.444	52.05
276.659	88.92
276.875	29.52
277.09	70.48
277.306	43.86
277.521	45.91
277.737	31.57
277.952	93.01
278.168	62.29
278.383	27.48
278.599	68.44
278.814	76.63
279.03	35.67
279.245	66.39
279.461	-3.24
279.676	2.9
279.892	62.29
280.107	19.29
280.322	-15.53
280.538	70.48
280.753	-13.48
280.969	15.19
281.184	52.05
281.399	84.82
281.615	29.52
281.83	19.29
282.045	15.19
282.26	11.09
282.476	25.43
282.691	-5.29
282.906	64.34
283.122	56.15
283.337	19.29
283.552	11.09
283.767	39.76
283.983	131.92
284.198	31.57
284.413	54.1
284.628	13.14
284.843	35.67
285.058	19.29
285.274	9.05
285.489	68.44
285.704	52.05
285.919	2.9
286.134	70.48
286.349	99.16
286.564	70.48
286.779	95.06
286.995	45.91
287.21	-1.19
287.425	101.2
287.64	15.19
287.855	93.01
288.07	-3.24
288.285	7
288.5	70.48
288.715	105.3
288.93	56.15
289.145	56.15
289.36	138.07
289.575	54.1
289.79	88.92
290.004	37.72
290.219	43.86
290.434	52.05
290.649	78.68
290.864	9.05
291.079	31.57
291.294	80.72
291.509	78.68
291.724	19.29
291.938	-5.29
292.153	68.44
292.368	11.09
292.583	64.34
292.798	88.92
293.012	52.05
293.227	27.48
293.442	68.44
293.657	60.24
293.871	56.15
294.086	-5.29
294.301	43.86
294.516	7
294.73	54.1
294.945	-95.4
295.16	7
295.374	56.15
295.589	62.29
295.804	9.05
296.018	86.87
296.233	103.25
296.447	84.82
296.662	-21.67
296.877	84.82
297.091	97.11
297.306	56.15
297.52	2.9
297.735	76.63
297.949	23.38
298.164	43.86
298.378	39.76
298.593	43.86
298.807	11.09
299.022	80.72
299.236	-11.43
299.451	58.2
299.665	58.2
299.88	70.48
300.094	88.92
300.309	27.48
300.523	68.44
300.737	-25.77
300.952	47.96
301.166	60.24
301.381	-1.19
301.595	68.44
301.809	39.76
302.024	78.68
302.238	93.01
302.452	19.29
302.667	35.67
302.881	35.67
303.095	64.34
303.309	74.58
303.524	68.44
303.738	-38.06
303.952	-17.58
304.166	140.12
304.381	29.52
304.595	47.96
304.809	27.48
305.023	33.62
305.237	52.05
305.452	93.01
305.666	115.54
305.88	64.34
306.094	-5.29
306.308	-5.29
306.522	39.76
306.736	45.91
306.95	58.2
307.164	21.33
307.379	66.39
307.593	76.63
307.807	64.34
308.021	11.09
308.235	58.2
308.449	23.38
308.663	47.96
308.877	101.2
309.091	-15.53
309.305	109.4
309.519	-21.67
309.733	76.63
309.947	-76.97
310.161	33.62
310.374	56.15
310.588	101.2
310.802	-3.24
311.016	45.91
311.23	31.57
311.444	56.15
311.658	13.14
311.872	19.29
312.085	119.64
312.299	117.59
312.513	80.72
312.727	-21.67
312.941	33.62
313.154	74.58
313.368	68.44
313.582	117.59
313.796	-5.29
314.009	-17.58
314.223	21.33
314.437	-19.63
314.651	58.2
314.864	68.44
315.078	80.72
315.292	37.72
315.505	33.62
315.719	60.24
315.933	133.97
316.146	41.81
316.36	-13.48
316.573	70.48
316.787	117.59
317.001	45.91
317.214	7
317.428	35.67
317.641	76.63
317.855	99.16
318.068	29.52
318.282	68.44
318.495	109.4
318.709	70.48
318.922	60.24
319.136	95.06
319.349	50
319.563	33.62
319.776	39.76
319.99	43.86
320.203	21.33
320.417	54.1
320.63	76.63
320.843	113.49
321.057	19.29
321.27	95.06
321.483	19.29
321.697	43.86
321.91	41.81
322.124	19.29
322.337	99.16
322.55	35.67
322.763	93.01
322.977	13.14
323.19	2.9
323.403	23.38
323.617	82.77
323.83	27.48
324.043	35.67
324.256	52.05
324.469	68.44
324.683	62.29
324.896	-1.19
325.109	-19.63
325.322	78.68
325.535	21.33
325.748	76.63
325.962	35.67
326.175	39.76
326.388	35.67
326.601	84.82
326.814	27.48
327.027	95.06
327.24	82.77
327.453	2.9
327.666	19.29
327.879	35.67
328.092	68.44
328.305	125.78
328.518	52.05
328.731	68.44
328.944	60.24
329.157	60.24
329.37	29.52
329.583	54.1
329.796	84.82
330.009	13.14
330.222	39.76
330.435	13.14
330.648	76.63
330.861	47.96
331.073	-29.87
331.286	11.09
331.499	43.86
331.712	-11.43
331.925	70.48
332.138	13.14
332.35	19.29
332.563	27.48
332.776	117.59
332.989	70.48
333.202	17.24
333.414	11.09
333.627	84.82
333.84	23.38
334.053	125.78
334.265	47.96
334.478	19.29
334.691	47.96
334.903	-11.43
335.116	101.2
335.329	17.24
335.541	52.05
335.754	136.02
335.966	13.14
336.179	11.09
336.392	19.29
336.604	117.59
336.817	68.44
337.029	56.15
337.242	52.05
337.454	45.91
337.667	56.15
337.88	35.67
338.092	82.77
338.305	27.48
338.517	-46.25
338.729	84.82
338.942	64.34
339.154	52.05
339.367	68.44
339.579	56.15
339.792	4.95
340.004	117.59
340.217	52.05
340.429	35.67
340.641	15.19
340.854	19.29
341.066	60.24
341.278	72.53
341.491	95.06
341.703	-11.43
341.915	47.96
342.128	29.52
342.34	2.9
342.552	52.05
342.764	95.06
342.977	43.86
343.189	62.29
343.401	52.05
343.613	-11.43
343.826	19.29
344.038	27.48
344.25	-9.39
344.462	31.57
344.674	68.44
344.886	68.44
345.099	62.29
345.311	142.16
345.523	117.59
345.735	-19.63
345.947	133.97
346.159	50
346.371	4.95
346.583	35.67
346.795	62.29
347.007	41.81
347.219	90.96
347.431	31.57
347.643	136.02
347.855	11.09
348.067	95.06
348.279	-25.77
348.491	-1.19
348.703	150.36
348.915	86.87
349.127	11.09
349.339	156.5
349.551	35.67
349.763	21.33
349.975	58.2
350.187	74.58
350.399	121.68
350.61	70.48
350.822	25.43
351.034	80.72
351.246	72.53
351.458	127.83
351.669	47.96
351.881	74.58
352.093	23.38
352.305	101.2
352.517	47.96
352.728	60.24
352.94	62.29
353.152	80.72
353.363	70.48
353.575	121.68
353.787	125.78
353.999	76.63
354.21	93.01
354.422	45.91
354.633	74.58
354.845	76.63
355.057	56.15
355.268	93.01
355.48	-3.24
355.692	62.29
355.903	25.43
356.115	-7.34
356.326	31.57
356.538	68.44
356.749	76.63
356.961	86.87
357.172	64.34
357.384	52.05
357.595	123.73
357.807	56.15
358.018	11.09
358.23	37.72
358.441	107.35
358.653	11.09
358.864	68.44
359.075	4.95
359.287	56.15
359.498	56.15
359.709	25.43
359.921	27.48
360.132	-36.01
360.344	52.05
360.555	76.63
360.766	43.86
360.977	76.63
361.189	76.63
361.4	111.44
361.611	43.86
361.823	35.67
362.034	43.86
362.245	17.24
362.456	4.95
362.667	19.29
362.879	70.48
363.09	-13.48
363.301	23.38
363.512	11.09
363.723	7
363.935	33.62
364.146	74.58
364.357	11.09
364.568	60.24
364.779	35.67
364.99	125.78
365.201	2.9
365.412	119.64
365.623	-27.82
365.834	21.33
366.045	93.01
366.256	52.05
366.467	43.86
366.678	52.05
366.889	99.16
367.1	37.72
367.311	84.82
367.522	70.48
367.733	13.14
367.944	-19.63
368.155	72.53
368.366	43.86
368.577	117.59
368.788	47.96
368.999	31.57
369.209	43.86
369.42	103.25
369.631	146.26
369.842	-1.19
370.053	25.43
370.264	47.96
370.474	-38.06
370.685	76.63
370.896	52.05
371.107	80.72
371.317	27.48
371.528	23.38
371.739	60.24
371.95	72.53
372.16	78.68
372.371	41.81
372.582	31.57
372.792	37.72
373.003	78.68
373.214	68.44
373.424	111.44
373.635	72.53
373.846	117.59
374.056	15.19
374.267	93.01
374.477	105.3
374.688	47.96
374.898	101.2
375.109	68.44
375.319	93.01
375.53	93.01
375.74	66.39
375.951	95.06
376.161	31.57
376.372	76.63
376.582	45.91
376.793	-7.34
377.003	13.14
377.214	39.76
377.424	47.96
377.635	62.29
377.845	-13.48
378.055	86.87
378.266	43.86
378.476	125.78
378.686	52.05
378.897	109.4
379.107	27.48
379.317	88.92
379.528	70.48
379.738	154.45
379.948	-19.63
380.158	101.2
380.369	101.2
380.579	74.58
380.789	142.16
380.999	2.9
381.21	90.96
381.42	45.91
381.63	17.24
381.84	144.21
382.05	113.49
382.261	93.01
382.471	170.83
382.681	15.19
382.891	37.72
383.101	111.44
383.311	43.86
383.521	39.76
383.731	80.72
383.941	84.82
384.151	113.49
384.361	62.29
384.571	90.96
384.781	97.11
384.991	68.44
385.201	162.64
385.411	131.92
385.621	76.63
385.831	45.91
386.041	62.29
386.251	62.29
386.461	103.25
386.671	84.82
386.881	-5.29
387.091	19.29
387.301	37.72
387.511	37.72
387.72	111.44
387.93	45.91
388.14	37.72
388.35	-5.29
388.56	19.29
388.769	113.49
388.979	43.86
389.189	50
389.399	29.52
389.609	15.19
389.818	70.48
390.028	21.33
390.238	117.59
390.447	93.01
390.657	52.05
390.867	64.34
391.076	-29.87
391.286	62.29
391.496	136.02
391.705	21.33
391.915	62.29
392.125	101.2
392.334	76.63
392.544	142.16
392.753	58.2
392.963	41.81
393.172	133.97
393.382	7
393.591	119.64
393.801	86.87
394.01	109.4
394.22	97.11
394.429	35.67
394.639	39.76
394.848	125.78
395.058	33.62
395.267	-9.39
395.477	72.53
395.686	68.44
395.895	156.5
396.105	109.4
396.314	33.62
396.524	60.24
396.733	93.01
396.942	121.68
397.152	133.97
397.361	136.02
397.57	117.59
397.78	86.87
397.989	43.86
398.198	101.2
398.407	62.29
398.617	93.01
398.826	162.64
399.035	93.01
399.244	158.55
399.453	191.31
399.663	138.07
399.872	191.31
400.081	127.83
400.29	193.36
400.499	82.77
400.708	90.96
400.917	146.26
401.127	86.87
401.336	86.87
401.545	93.01
401.754	70.48
401.963	95.06
402.172	117.59
402.381	170.83
402.59	105.3
402.799	125.78
403.008	207.7
403.217	99.16
403.426	156.5
403.635	119.64
403.844	121.68
404.053	127.83
404.262	260.95
404.471	142.16
404.68	119.64
404.888	160.59
405.097	197.46
405.306	88.92
405.515	181.07
405.724	195.41
405.933	187.22
406.142	140.12
406.35	219.99
406.559	199.51
406.768	183.12
406.977	219.99
407.185	215.89
407.394	185.17
407.603	179.03
407.812	193.36
408.02	215.89
408.229	209.75
408.438	191.31
408.646	136.02
408.855	262.99
409.064	316.24
409.272	279.38
409.481	299.86
409.69	260.95
409.898	273.23
410.107	306
410.315	273.23
410.524	346.96
410.733	322.38
410.941	267.09
411.15	379.73
411.358	408.4
411.567	355.15
411.775	355.15
411.984	439.12
412.192	367.44
412.401	389.97
412.609	441.17
412.818	428.88
413.026	422.73
413.234	518.99
413.443	492.37
413.651	379.73
413.86	498.51
414.068	619.34
414.276	566.09
414.485	539.47
414.693	527.18
414.901	668.49
415.11	676.68
415.318	643.92
415.526	674.64
415.734	674.64
415.943	830.28
416.151	756.55
416.359	772.94
416.567	815.94
416.776	895.82
416.984	832.33
417.192	936.78
417.4	912.2
417.608	963.4
417.817	965.45
418.025	1157.96
418.233	1067.85
418.441	1026.89
418.649	1133.38
418.857	1248.07
419.065	1223.49
419.273	1176.39
419.481	1340.22
419.689	1252.16
419.897	1334.08
420.105	1354.56
420.313	1416
420.521	1456.96
420.729	1545.02
420.937	1514.3
421.145	1618.75
421.353	1749.82
421.561	1854.27
421.769	1813.31
421.977	1807.16
422.185	1915.7
422.393	2075.45
422.601	2124.6
422.809	2128.69
423.017	2132.79
423.224	2151.22
423.432	2304.82
423.64	2188.08
423.848	2626.35
424.056	2362.16
424.263	2593.58
424.471	2601.77
424.679	2708.27
424.887	2763.56
425.094	2775.85
425.302	2915.11
425.51	2820.91
425.718	3058.47
425.925	3255.08
426.133	3310.37
426.341	3334.95
426.548	3398.43
426.756	3552.03
426.964	3570.46
427.171	3791.64
427.379	3943.19
427.586	3984.15
427.794	4084.5
428.001	4305.68
428.209	4549.39
428.417	4326.16
428.624	4676.37
428.832	4666.13
429.039	4766.48
429.247	4610.83
429.454	5081.86
429.662	5540.61
429.869	5081.86
430.076	5460.74
430.284	5313.28
430.491	5630.72
430.699	5864.19
430.906	6015.74
431.114	5837.56
431.321	6271.73
431.528	6417.14
431.736	6728.43
431.943	6970.09
432.15	6789.87
432.358	6851.31
432.565	7193.32
432.772	7103.21
432.979	7441.12
433.187	7713.5
433.394	7695.07
433.601	8213.21
433.808	8342.23
434.016	8202.97
434.223	8571.6
434.43	9169.61
434.637	8927.95
434.844	9589.44
435.052	9509.57
435.259	9272.01
435.466	9616.07
435.673	9468.61
435.88	10183.35
436.087	10674.87
436.294	10730.16
436.501	10490.55
436.708	10652.34
436.915	11123.37
437.122	11594.4
437.329	11451.05
437.537	11606.69
437.743	11997.85
437.95	12040.86
438.157	12774.03
438.364	12982.93
438.571	12657.3
438.778	13005.45
438.985	14199.42
439.192	13666.95
439.399	14183.04
439.606	13666.95
439.813	14490.23
440.02	15325.8
440.227	15164.01
440.433	14908.02
440.64	15676.01
440.847	15215.21
441.054	15602.28
441.261	16937.55
441.467	16472.67
441.674	16710.23
441.881	17470.03
442.088	17470.03
442.294	17259.09
442.501	17701.45
442.708	18020.93
442.914	18700.86
443.121	19706.41
443.328	19397.17
443.534	20212.26
443.741	19829.29
443.948	19405.36
444.154	20918.81
444.361	20879.89
444.568	20779.54
444.774	20879.89
444.981	21295.63
445.187	21770.76
445.394	22555.13
445.6	22460.93
445.807	24383.97
446.013	23570.93
446.22	23929.32
446.426	24736.22
446.633	25033.18
446.839	25911.75
447.046	24934.87
447.252	26022.34
447.459	26177.99
447.665	26231.24
447.871	27228.6
448.078	28457.38
448.284	27036.09
448.491	28121.51
448.697	28903.84
448.903	29618.58
449.11	29946.25
449.316	29034.91
449.522	29606.29
449.728	30439.81
449.935	30718.34
450.141	30650.75
450.347	31220.09
450.553	30243.21
450.76	30841.21
450.966	31797.62
451.172	31385.97
451.378	32483.69
451.584	31691.12
451.791	32375.14
451.997	32596.32
452.203	32829.79
452.409	32872.8
452.615	32936.29
452.821	31457.65
453.027	31156.6
453.233	33214.81
453.44	31822.19
453.646	32252.27
453.852	32360.81
454.058	32258.41
454.264	31867.25
454.47	32514.41
454.676	31908.21
454.882	32868.7
455.088	29862.29
455.294	30601.6
455.5	30800.26
455.705	31291.77
455.911	29979.02
456.117	29706.64
456.323	29288.85
456.529	27789.74
456.735	28916.12
456.941	27980.2
457.147	27652.53
457.352	27025.85
457.558	26188.23
457.764	26790.33
457.97	26206.66
458.176	25639.37
458.381	25772.49
458.587	24590.81
458.793	24467.94
458.999	23050.74
459.204	25082.33
459.41	24295.91
459.616	22551.04
459.821	22505.98
460.027	22456.83
460.233	22006.28
460.438	20941.33
460.644	21400.08
460.85	20240.93
461.055	19853.86
461.261	19796.52
461.466	18588.22
461.672	17943.11
461.878	19286.58
462.083	17857.09
462.289	17572.43
462.494	17433.16
462.7	16415.32
462.905	16235.1
463.111	16786.01
463.316	16775.77
463.522	16593.5
463.727	16530.01
463.932	16360.03
464.138	16306.78
464.343	16241.25
464.549	15864.42
464.754	16177.76
464.959	16454.23
465.165	15784.55
465.37	15575.66
465.575	14979.7
465.781	15645.29
465.986	15698.53
466.191	15039.09
466.397	14721.65
466.602	13970.05
466.807	14561.91
467.012	14652.02
467.218	14664.31
467.423	14340.73
467.628	14445.18
467.833	14971.5
468.038	14328.44
468.244	14180.99
468.449	14563.96
468.654	14140.03
468.859	14027.39
469.064	13918.85
469.269	13560.45
469.474	13533.83
469.679	13922.94
469.885	13374.09
470.09	13490.82
470.295	13644.42
470.5	13116.05
470.705	13267.59
470.91	12972.69
471.115	12862.1
471.32	13089.42
471.525	13093.52
471.73	12565.14
471.935	12587.67
472.139	12327.58
472.344	12626.58
472.549	12012.19
472.754	12069.53
472.959	11715.23
473.164	11512.49
473.369	11467.43
473.574	11901.6
473.778	11655.84
473.983	11453.09
474.188	11641.51
474.393	11113.13
474.598	11156.14
474.802	11166.38
475.007	11106.99
475.212	11000.49
475.417	10566.32
475.621	10672.82
475.826	10605.24
476.031	10455.73
476.235	10136.25
476.44	10248.89
476.645	10273.46
476.849	10269.37
477.054	10029.76
477.259	9935.55
477.463	9863.87
477.668	9693.89
477.872	9972.41
478.077	9652.93
478.282	9376.45
478.486	9272.01
478.691	9265.86
478.895	9329.35
479.1	9360.07
479.304	9183.95
479.509	8915.66
479.713	8960.72
479.918	8817.36
480.122	8846.03
480.326	8950.48
480.531	8800.98
480.735	8723.15
480.94	8630.99
481.144	9063.12
481.348	8579.79
481.553	8444.63
481.757	8229.59
481.961	8659.67
482.166	8694.48
482.37	8649.43
482.574	8366.81
482.778	8440.53
482.983	8522.45
483.187	8430.29
483.391	8551.12
483.595	8504.02
483.8	8399.57
484.004	8471.25
484.208	8401.62
484.412	8254.17
484.616	8450.77
484.821	8370.9
485.025	8323.8
485.229	8360.66
485.433	8442.58
485.637	8291.03
485.841	8383.19
486.045	8510.16
486.249	8342.23
486.453	8354.52
486.657	8301.27
486.861	8461.01
487.065	8401.62
487.269	8432.34
487.473	8016.6
487.677	8391.38
487.881	8391.38
488.085	8305.37
488.289	8448.72
488.493	8483.54
488.697	8436.44
488.901	8407.77
489.105	8221.4
489.309	8442.58
489.512	8555.22
489.716	8473.3
489.92	8555.22
490.124	8657.62
490.328	8610.51
490.531	8708.82
490.735	8809.17
490.939	8651.47
491.143	8544.98
491.346	8727.25
491.55	8841.93
491.754	8547.03
491.958	8671.95
492.161	8854.22
492.365	8782.54
492.569	9018.06
492.772	8917.71
492.976	9112.27
493.18	9091.79
493.383	9183.95
493.587	8993.48
493.79	9212.62
493.994	9081.55
494.197	9288.39
494.401	9362.12
494.605	9378.5
494.808	9382.6
495.012	9532.1
495.215	9718.47
495.419	9720.51
495.622	9376.45
495.825	9665.22
496.029	9775.81
496.232	9929.41
496.436	9661.12
496.639	10156.73
496.843	10023.61
497.046	10166.97
497.249	10326.71
497.453	10277.56
497.656	10590.9
497.859	10379.96
498.063	10738.35
498.266	10840.75
498.469	10934.96
498.673	11066.03
498.876	11180.71
499.079	11164.33
499.282	11408.04
499.485	11586.21
499.689	11702.95
499.892	11487.91
500.095	11731.62
500.298	11954.85
500.501	11940.51
500.705	12210.84
500.908	12300.95
501.111	12432.02
501.314	12685.97
501.517	12579.48
501.72	13089.42
501.923	12876.43
502.126	13191.82
502.329	13331.08
502.532	13513.35
502.735	13365.9
502.938	13888.13
503.141	13744.77
503.344	13998.72
503.547	13937.28
503.75	14185.08
503.953	14445.18
504.156	14443.13
504.359	14572.15
504.562	14729.84
504.765	15067.76
504.968	15180.4
505.17	15503.98
505.373	15444.59
505.576	15676.01
505.779	15708.77
505.982	15866.47
506.185	16151.13
506.387	16194.14
506.59	16323.16
506.793	16749.14
506.996	16792.15
507.198	17338.96
507.401	17046.1
507.604	17504.84
507.807	17691.21
508.009	17666.63
508.212	17924.68
508.415	18039.36
508.617	18514.49
508.82	18401.85
509.022	18367.04
509.225	19020.34
509.428	19116.59
509.63	18825.78
509.833	19233.33
510.035	19864.1
510.238	19687.98
510.44	19614.25
510.643	20085.28
510.845	20279.84
511.048	19946.02
511.25	20658.71
511.453	20570.65
511.655	21209.62
511.858	21156.37
512.06	21328.4
512.262	21426.7
512.465	21563.92
512.667	21783.05
512.87	22196.74
513.072	22092.29
513.274	22563.33
513.477	22673.92
513.679	22923.77
513.881	23030.26
514.084	23611.89
514.286	23507.44
514.488	23732.72
514.69	23990.76
514.893	24093.16
515.095	24295.91
515.297	24693.21
515.499	24947.16
515.701	25016.79
515.904	25205.2
516.106	25129.43
516.308	25596.37
516.51	25924.04
516.712	26091.98
516.914	26069.45
517.116	26665.41
517.318	26407.36
517.52	27048.38
517.722	27054.52
517.925	27369.91
518.127	27756.97
518.329	27929
518.531	28039.59
518.733	28570.02
518.935	28488.1
519.136	28467.62
519.338	29170.07
519.54	29262.23
519.742	29655.44
519.944	29436.31
520.146	30058.89
520.348	30151.05
520.55	30099.85
520.752	30366.09
520.954	30720.38
521.155	30871.93
521.357	31017.34
521.559	31322.49
521.761	31625.59
521.963	31736.18
522.164	32098.67
522.366	32000.37
522.568	32395.62
522.77	32463.21
522.971	32919.9
523.173	32571.75
523.375	33089.88
523.576	32946.53
523.778	33128.8
523.98	33702.23
524.181	33634.64
524.383	33442.14
524.584	34154.83
524.786	34496.84
524.988	34439.5
525.189	34916.67
525.391	34531.65
525.592	34974.02
525.794	34851.14
525.995	35111.23
526.197	35080.51
526.398	35469.62
526.6	35574.07
526.801	35838.26
527.003	35660.09
527.204	35858.74
527.406	36012.34
527.607	35801.4
527.808	36325.68
528.01	35680.56
528.211	36251.95
528.412	37239.07
528.614	36636.97
528.815	36854.05
529.016	36970.79
529.218	36493.61
529.419	36698.41
529.62	36897.06
529.822	37034.27
530.023	36970.79
530.224	37273.88
530.425	37062.94
530.626	36892.96
530.828	36667.69
531.029	37984.53
531.23	37118.24
531.431	37075.23
531.632	37601.56
531.833	37978.39
532.035	37296.41
532.236	37693.72
532.437	37925.14
532.638	37390.62
532.839	37556.5
533.04	37593.37
533.241	37445.91
533.442	38058.26
533.643	37591.32
533.844	37603.61
534.045	37964.05
534.246	37105.95
534.447	37939.47
534.648	37587.22
534.849	37648.66
535.05	37458.2
535.251	37617.94
535.451	37912.85
535.652	38023.44
535.853	38140.18
536.054	37703.96
536.255	37867.8
536.456	37597.46
536.657	38220.05
536.857	37937.43
537.058	37843.22
537.259	38207.76
537.46	37964.05
537.66	37986.58
537.861	37890.32
538.062	37914.9
538.263	38281.49
538.463	37501.21
538.664	37912.85
538.865	37601.56
539.065	38146.32
539.266	37439.77
539.466	37953.81
539.667	37222.69
539.868	38088.98
540.068	37886.23
540.269	37501.21
540.469	37916.95
540.67	37581.08
540.87	37699.86
541.071	37558.55
541.271	37982.48
541.472	37931.28
541.672	37286.17
541.873	37779.73
542.073	37052.7
542.274	38074.64
542.474	37554.46
542.675	37542.17
542.875	37921.04
543.075	37882.13
543.276	37519.64
543.476	37873.94
543.676	37665.05
543.877	37955.86
544.077	37669.14
544.277	37693.72
544.478	37519.64
544.678	37472.54
544.878	37728.53
545.078	37374.24
545.279	37421.34
545.479	37218.59
545.679	37425.43
545.879	37347.61
546.079	37495.07
546.28	37404.95
546.48	37054.75
546.68	37515.54
546.88	37345.56
547.08	37452.06
547.28	37355.8
547.48	36993.31
547.68	37648.66
547.88	37228.83
548.081	37374.24
548.281	37208.35
548.481	36987.17
548.681	37445.91
548.881	37490.97
549.081	36983.07
549.28	36921.63
549.48	37290.27
549.68	37259.55
549.88	37353.76
550.08	36780.32
550.28	37163.29
550.48	37255.45
550.68	37140.77
550.88	37050.66
551.08	36944.16
551.279	37423.39
551.479	36618.53
551.679	37208.35
551.879	36800.8
552.079	37384.47
552.278	37161.25
552.478	37335.32
552.678	36970.79
552.878	37042.46
553.077	36862.24
553.277	36784.42
553.477	37454.11
553.676	36978.98
553.876	36596.01
554.076	36776.23
554.275	36663.59
554.475	36315.44
554.674	36460.84
554.874	36884.77
555.074	36563.24
555.273	36729.12
555.473	37093.66
555.672	36561.19
555.872	36344.11
556.071	36471.08
556.271	36870.43
556.47	36145.45
556.67	36188.46
556.869	36297
557.068	36862.24
557.268	36311.34
557.467	36176.17
557.667	36540.71
557.866	36403.5
558.065	35998
558.265	36098.35
558.464	35832.11
558.663	36403.5
558.863	35635.51
559.062	36401.45
559.261	35713.33
559.461	36235.56
559.66	35385.66
559.859	35539.26
560.058	35563.83
560.258	35389.75
560.457	35105.09
560.656	35625.27
560.855	35301.69
561.054	35811.63
561.253	35221.82
561.453	35426.62
561.652	35432.76
561.851	35414.33
562.05	35457.34
562.249	35168.57
562.448	35115.33
562.647	35363.13
562.846	35166.52
563.045	35150.14
563.244	34832.71
563.443	35047.74
563.642	34545.99
563.841	34902.34
564.04	34279.75
564.239	34781.51
564.438	34545.99
564.637	34398.54
564.836	34775.36
565.035	34339.15
565.234	34388.3
565.432	34425.16
565.631	34101.58
565.83	34570.57
566.029	34085.2
566.228	34013.52
566.427	33988.94
566.625	33937.74
566.824	33493.33
567.023	34117.96
567.222	33268.06
567.42	34165.07
567.619	33694.04
567.818	33354.07
568.016	33454.42
568.215	33761.62
568.414	33839.44
568.612	33311.07
568.811	33599.83
569.01	33384.79
569.208	32678.24
569.407	33309.02
569.605	32620.9
569.804	33192.28
570.002	32852.32
570.201	32833.89
570.4	32801.12
570.598	32348.52
570.797	32514.41
570.995	32334.18
571.193	32041.32
571.392	32616.8
571.59	31953.26
571.789	32026.99
571.987	32231.79
572.186	32254.31
572.384	31402.36
572.582	31963.5
572.781	31857.01
572.979	31519.09
573.177	31668.59
573.376	31693.17
573.574	31443.32
573.772	31848.82
573.971	31420.79
574.169	30767.49
574.367	31289.72
574.565	31052.16
574.763	31203.71
574.962	30716.29
575.16	30669.19
575.358	30937.47
575.556	30458.24
575.754	30697.86
575.952	30577.03
576.151	30540.16
576.349	30210.44
576.547	30572.93
576.745	30407.05
576.943	30695.81
577.141	29993.36
577.339	30544.26
577.537	30247.3
577.735	30413.19
577.933	29804.94
578.131	29993.36
578.329	29645.2
578.527	29594
578.725	29471.12
578.923	29702.54
579.121	29364.63
579.319	29428.12
579.516	29397.4
579.714	29575.57
579.912	29100.44
580.11	29057.43
580.308	29272.47
580.506	29116.83
580.704	28449.19
580.901	28909.98
581.099	28981.66
581.297	28746.14
581.495	28905.88
581.692	29135.26
581.89	28260.77
582.088	28799.39
582.285	28232.1
582.483	28135.85
582.681	28154.28
582.878	28053.93
583.076	28154.28
583.274	28428.71
583.471	28187.05
583.669	27918.76
583.866	27961.77
584.064	28197.29
584.262	27410.87
584.459	27998.63
584.657	27713.97
584.854	27695.53
585.052	27068.86
585.249	27623.86
585.447	27406.77
585.644	27036.09
585.841	27351.48
586.039	27517.36
586.236	26730.94
586.434	26739.13
586.631	26956.22
586.828	26589.63
587.026	27005.37
587.223	26513.86
587.42	26739.13
587.618	26431.94
587.815	26069.45
588.012	26167.75
588.21	26024.39
588.407	26307.01
588.604	26481.09
588.801	25969.1
588.999	26005.96
589.196	25938.38
589.393	25938.38
589.59	25774.54
589.787	25512.4
589.984	25551.31
590.182	25403.86
590.379	25620.94
590.576	25270.74
590.773	25274.84
590.97	25121.24
591.167	25614.8
591.364	24871.39
591.561	25471.44
591.758	24592.86
591.955	24885.72
592.152	24746.46
592.349	25053.66
592.546	24895.96
592.743	24515.04
592.94	24424.93
593.137	24535.52
593.334	24576.48
593.531	24177.12
593.727	24347.11
593.924	24402.4
594.121	23951.85
594.318	24551.9
594.515	23415.28
594.712	24254.95
594.908	24035.81
595.105	24017.38
595.302	23790.06
595.499	23806.44
595.696	24017.38
595.892	23505.39
596.089	23540.21
596.286	23564.78
596.482	23362.03
596.679	23427.57
596.876	23390.7
597.072	23245.3
597.269	22995.45
597.466	22723.07
597.662	22864.38
597.859	22843.9
598.055	22956.54
598.252	22831.61
598.448	22473.21
598.645	22630.91
598.841	22352.38
599.038	22653.44
599.234	22426.11
599.431	22299.14
599.627	22213.12
599.824	22329.86
600.02	22221.31
600.217	22213.12
600.413	21957.13
600.609	21973.51
600.806	21905.93
601.002	21944.84
601.198	21938.69
601.395	21563.92
601.591	21561.87
601.787	21615.12
601.984	21142.03
602.18	21588.49
602.376	21412.37
602.572	21045.78
602.769	21359.12
602.965	21248.53
603.161	20849.18
603.357	21023.25
603.553	20867.61
603.75	20847.13
603.946	21017.11
604.142	20912.66
604.338	20511.26
604.534	20843.03
604.73	20568.6
604.926	20208.16
605.122	20671
605.318	20533.79
605.514	20109.86
605.71	20339.23
605.906	20433.44
606.102	20210.21
606.298	20232.74
606.494	20011.56
606.69	20249.12
606.886	20253.22
607.082	19780.14
607.278	20199.97
607.474	19962.4
607.67	20134.43
607.866	19421.74
608.062	19896.87
608.257	19679.79
608.453	19505.71
608.649	19790.38
608.845	19661.35
609.041	19610.15
609.236	19720.74
609.432	19546.67
609.628	19282.48
609.824	19360.3
610.019	19196.46
610.215	19511.85
610.411	19270.19
610.606	19245.62
610.802	19339.82
610.998	18922.04
611.193	19032.63
611.389	19044.91
611.584	19057.2
611.78	18850.36
611.976	18881.08
612.171	18854.45
612.367	18860.6
612.562	18876.98
612.758	18463.29
612.953	18586.17
613.149	18801.21
613.344	18543.16
613.539	18735.67
613.735	18616.89
613.93	18426.43
614.126	18467.39
614.321	18829.88
614.517	18246.21
614.712	18434.62
614.907	18483.77
615.103	18170.43
615.298	18377.28
615.493	18479.68
615.688	17998.4
615.884	18121.28
616.079	18158.14
616.274	18293.31
616.47	18080.32
616.665	18395.71
616.86	17971.78
617.055	17977.92
617.25	17877.57
617.445	18100.8
617.641	17597
617.836	17683.02
618.031	17797.7
618.226	17674.82
618.421	17324.62
618.616	17619.53
618.811	17363.53
619.006	17279.57
619.201	17267.28
619.396	17322.57
619.591	17072.72
619.786	17222.22
619.981	16878.16
620.176	17197.65
620.371	16601.69
620.566	16972.37
620.761	16837.2
620.956	16966.23
621.151	16548.44
621.346	16894.55
621.541	16519.77
621.735	16478.81
621.93	16251.49
622.125	16587.35
622.32	16231.01
622.515	16198.24
622.709	16202.33
622.904	16183.9
623.099	15866.47
623.294	15899.23
623.488	15676.01
623.683	15526.5
623.878	15501.93
624.072	15690.34
624.267	15596.14
624.462	15151.73
624.656	15256.17
624.851	15100.53
625.046	14989.94
625.24	15057.52
625.435	14813.81
625.629	14926.45
625.824	14879.35
626.018	14604.92
626.213	14432.89
626.407	14748.28
626.602	14484.09
626.796	14492.28
626.991	14451.32
627.185	13949.57
627.38	13910.66
627.574	14269.05
627.768	13877.89
627.963	13933.18
628.157	13640.33
628.352	13804.16
628.546	13630.09
628.74	13814.4
628.935	13357.71
629.129	13572.74
629.323	13437.58
629.517	13433.48
629.712	13222.54
629.906	13128.33
630.1	12999.31
630.294	13216.4
630.489	13093.52
630.683	12907.15
630.877	12800.66
631.071	12806.8
631.265	12774.03
631.459	12602.01
631.653	12731.03
631.848	12602.01
632.042	12405.4
632.236	12509.85
632.43	12300.95
632.624	12184.22
632.818	12286.62
633.012	11948.7
633.206	12081.82
633.4	12139.16
633.594	11811.49
633.788	11969.18
633.982	12077.73
634.176	11610.79
634.369	11553.45
634.563	11864.74
634.757	11598.5
634.951	11590.31
635.145	11408.04
635.339	11459.24
635.533	11487.91
635.726	11213.48
635.92	11205.29
636.114	11299.5
636.308	11154.09
636.501	11057.84
636.695	10840.75
636.889	10859.18
637.083	10984.11
637.276	10668.72
637.47	10652.34
637.664	10814.13
637.857	10826.42
638.051	10812.08
638.244	10595
638.438	10433.21
638.632	10406.58
638.825	10390.2
639.019	10302.14
639.212	10220.22
639.406	10429.11
639.599	10287.8
639.793	10214.07
639.986	10115.77
640.18	10220.22
640.373	10136.25
640.567	10031.8
640.76	9865.92
640.954	9734.85
641.147	9710.27
641.34	9659.07
641.534	9659.07
641.727	9714.37
641.92	9667.27
642.114	9538.24
642.307	9427.65
642.5	9466.56
642.694	9280.2
642.887	9208.52
643.08	9298.63
643.273	9327.3
643.467	9235.14
643.66	8995.53
643.853	9026.25
644.046	8981.2
644.239	9112.27
644.432	8886.99
644.626	8848.08
644.819	9040.59
645.012	8678.1
645.205	8817.36
645.398	8717.01
645.591	8561.36
645.784	8493.78
645.977	8583.89
646.17	8635.09
646.363	8639.19
646.556	8268.5
646.749	8434.39
646.942	8286.93
647.135	8266.46
647.328	8297.17
647.521	8243.93
647.714	8098.52
647.907	8098.52
648.099	8129.24
648.292	7920.35
648.485	8061.66
648.678	8030.94
648.871	7738.08
649.064	7924.44
649.256	7926.49
649.449	7871.2
649.642	7713.5
649.835	7678.69
650.027	7525.09
650.22	7527.14
650.413	7408.36
650.605	7527.14
650.798	7443.17
650.991	7473.89
651.183	7248.61
651.376	7279.33
651.568	7336.68
651.761	7281.38
651.954	7236.33
652.146	7236.33
652.339	7224.04
652.531	7064.3
652.724	7248.61
652.916	6974.19
653.109	7193.32
653.301	6843.12
653.494	7027.43
653.686	6949.61
653.879	7125.74
654.071	6961.9
654.263	6783.73
654.456	6812.4
654.648	6671.09
654.84	6572.79
655.033	6648.56
655.225	6724.33
655.417	6494.96
655.61	6476.53
655.802	6370.04
655.994	6497.01
656.186	6400.76
656.379	6286.07
656.571	6413.04
656.763	6359.8
656.955	6286.07
657.148	6304.5
657.34	6230.77
657.532	6263.54
657.724	6130.42
657.916	5966.59
658.108	6157.05
658.3	6044.41
658.492	6042.36
658.684	5909.24
658.876	5985.02
659.068	5892.86
659.26	5909.24
659.452	5929.72
659.644	6007.55
659.836	5890.81
660.028	5749.5
660.22	5708.54
660.412	5802.75
660.604	5776.13
660.796	5528.32
660.988	5516.03
661.18	5608.19
661.372	5569.28
661.563	5620.48
661.755	5368.58
661.947	5444.35
662.139	5364.48
662.331	5372.68
662.522	5294.85
662.714	5348.1
662.906	5436.16
663.097	5341.96
663.289	5288.71
663.481	5331.72
663.673	5311.24
663.864	5114.63
664.056	5270.28
664.247	5171.97
664.439	5028.62
664.631	5200.65
664.822	4928.27
665.014	5065.48
665.205	5022.47
665.397	5028.62
665.588	5028.62
665.78	4985.61
665.971	4918.03
666.163	4946.7
666.354	4770.57
666.546	4854.54
666.737	4725.52
666.929	4813.58
667.12	4868.88
667.311	4795.15
667.503	4672.27
667.694	4813.58
667.885	4737.81
668.077	4727.57
668.268	4594.45
668.459	4815.63
668.651	4631.31
668.842	4752.14
669.033	4596.5
669.224	4446.99
669.416	4584.21
669.607	4401.94
669.798	4420.37
669.989	4477.71
670.18	4485.9
670.371	4432.66
670.563	4307.73
670.754	4324.12
670.945	4344.6
671.136	4297.49
671.327	4176.66
671.518	4365.07
671.709	4197.14
671.9	4297.49
672.091	4365.07
672.282	4254.48
672.473	4274.96
672.664	4195.09
672.855	4043.54
673.046	4084.5
673.237	4098.84
673.428	4102.93
673.619	4016.92
673.809	4100.89
674	4018.97
674.191	3943.19
674.382	3984.15
674.573	4047.64
674.764	4078.36
674.954	3922.71
675.145	3922.71
675.336	3980.06
675.527	4035.35
675.717	3844.89
675.908	3805.98
676.099	3885.85
676.289	3986.2
676.48	3779.36
676.671	3767.07
676.861	3898.14
677.052	3748.64
677.243	3758.88
677.433	3910.43
677.624	3787.55
677.814	3748.64
678.005	3681.05
678.195	3787.55
678.386	3631.9
678.576	3738.4
678.767	3779.36
678.957	3560.22
679.148	3654.43
679.338	3541.79
679.529	3713.82
679.719	3734.3
679.909	3558.18
680.1	3640.09
680.29	3541.79
680.481	3582.75
680.671	3615.52
680.861	3545.89
681.052	3480.35
681.242	3549.98
681.432	3576.61
681.622	3427.11
681.813	3582.75
682.003	3414.82
682.193	3402.53
682.383	3519.26
682.573	3527.46
682.764	3341.09
682.954	3504.93
683.144	3447.58
683.334	3320.61
683.524	3418.91
683.714	3363.62
683.904	3371.81
684.094	3312.42
684.284	3332.9
684.474	3345.19
684.664	3357.47
684.854	3371.81
685.044	3205.92
685.234	3271.46
685.424	3269.41
685.614	3134.25
685.804	3238.69
685.994	3267.36
686.184	3201.83
686.374	3210.02
686.564	3199.78
686.753	3207.97
686.943	3091.24
687.133	3115.81
687.323	3175.2
687.513	3156.77
687.702	3093.29
687.892	3027.75
688.082	3050.28
688.272	3029.8
688.461	3109.67
688.651	3126.05
688.841	2872.11
689.03	3027.75
689.22	2939.69
689.41	3015.46
689.599	3001.13
689.789	2919.21
689.979	2935.59
690.168	2796.33
690.358	2915.11
690.547	2839.34
690.737	2886.44
690.926	2878.25
691.116	2857.77
691.305	2861.87
691.495	2802.47
691.684	2814.76
691.874	2919.21
692.063	2861.87
692.252	2841.39
692.442	2771.76
692.631	2632.49
692.82	2872.11
693.01	2659.12
693.199	2679.6
693.388	2663.21
693.578	2763.56
693.767	2700.08
693.956	2765.61
694.146	2788.14
694.335	2661.16
694.524	2601.77
694.713	2544.43
694.902	2632.49
695.092	2628.4
695.281	2495.28
695.47	2587.44
695.659	2566.96
695.848	2519.85
696.037	2657.07
696.226	2550.57
696.415	2550.57
696.604	2628.4
696.793	2460.46
696.982	2558.77
697.171	2607.92
697.36	2583.34
697.549	2380.59
697.738	2452.27
697.927	2435.89
698.116	2511.66
698.305	2562.86
698.494	2503.47
698.683	2528.05
698.872	2546.48
699.061	2429.74
699.25	2431.79
699.438	2403.12
699.627	2435.89
699.816	2378.55
700.005	2423.6
700.193	2372.4
700.382	2526
700.571	2495.28
700.76	2339.63
700.948	2403.12
701.137	2435.89
701.326	2378.55
701.514	2409.26
701.703	2476.85
701.892	2345.78
702.08	2384.69
702.269	2341.68
702.457	2427.7
702.646	2394.93
702.834	2351.92
703.023	2323.25
703.212	2321.2
703.4	2304.82
703.589	2280.24
703.777	2272.05
703.965	2427.7
704.154	2274.1
704.342	2247.48
704.531	2190.13
704.719	2308.91
704.907	2308.91
705.096	2192.18
705.284	2290.48
705.472	2251.57
705.661	2104.12
705.849	2153.27
706.037	2347.83
706.226	2282.29
706.414	2251.57
706.602	2161.46
706.79	2231.09
706.979	2157.36
707.167	2198.32
707.355	2210.61
707.543	2190.13
707.731	2308.91
707.919	2296.63
708.107	2227
708.296	2112.31
708.484	2183.99
708.672	2329.39
708.86	2290.48
709.048	2202.42
709.236	2239.28
709.424	2153.27
709.612	2249.52
709.8	2229.04
709.988	2272.05
710.176	2235.19
710.364	2181.94
710.551	2259.76
710.739	2200.37
710.927	2218.8
711.115	2165.56
711.303	2171.7
711.491	2179.89
711.679	2104.12
711.866	2208.56
712.054	2190.13
712.242	2227
712.43	2280.24
712.617	2132.79
712.805	2239.28
712.993	2095.93
713.181	2095.93
713.368	2165.56
713.556	2132.79
713.744	2132.79
713.931	2173.75
714.119	2255.67
714.306	2048.82
714.494	2233.14
714.682	2059.06
714.869	2169.65
715.057	2116.41
715.244	2069.3
715.432	2222.9
715.619	2210.61
715.807	2116.41
715.994	2157.36
716.182	2138.93
716.369	2188.08
716.556	2005.81
716.744	2321.2
716.931	2200.37
717.119	2263.86
717.306	2118.45
717.493	2181.94
717.681	2200.37
717.868	2145.08
718.055	2206.52
718.242	2241.33
718.43	2192.18
718.617	2227
718.804	2059.06
718.991	2063.16
719.179	2075.45
719.366	2233.14
719.553	2212.66
719.74	2083.64
719.927	2087.73
720.114	2202.42
720.301	2071.35
720.488	2167.6
720.676	2179.89
720.863	2079.54
721.05	2229.04
721.237	2186.04
721.424	2132.79
721.611	2212.66
721.798	2083.64
721.985	2190.13
722.172	2067.25
722.358	2124.6
722.545	2175.8
722.732	2110.26
722.919	2188.08
723.106	2104.12
723.293	2132.79
723.48	2059.06
723.667	2087.73
723.853	2143.03
724.04	2071.35
724.227	2200.37
724.414	2081.59
724.6	2018.1
724.787	2128.69
724.974	2165.56
725.161	2042.68
725.347	2108.21
725.534	2122.55
725.72	2171.7
725.907	2145.08
726.094	2159.41
726.28	2165.56
726.467	2167.6
726.653	2147.12
726.84	2186.04
727.027	2151.22
727.213	2134.84
727.4	2149.17
727.586	2198.32
727.773	2190.13
727.959	2186.04
728.145	2149.17
728.332	2044.73
728.518	2216.76
728.705	2126.64
728.891	2120.5
729.077	2186.04
729.264	2136.88
729.45	2124.6
729.636	2134.84
729.823	2124.6
730.009	2136.88
730.195	2093.88
730.382	2091.83
730.568	2149.17
730.754	2134.84
730.94	2126.64
731.126	2063.16
731.313	2227
731.499	2171.7
731.685	2216.76
731.871	2104.12
732.057	2149.17
732.243	2128.69
732.429	2061.11
732.615	2222.9
732.801	2163.51
732.987	2100.02
733.173	2116.41
733.359	2110.26
733.545	2175.8
733.731	2124.6
733.917	2061.11
734.103	2272.05
734.289	2100.02
734.475	2001.72
734.661	2214.71
734.847	2194.23
735.033	1993.53
735.219	2106.17
735.404	2003.77
735.59	1975.1
735.776	1981.24
735.962	2157.36
736.148	2175.8
736.333	2112.31
736.519	2143.03
736.705	2038.58
736.89	2034.49
737.076	2177.84
737.262	2018.1
737.447	2128.69
737.633	2036.53
737.819	2110.26
738.004	2026.29
738.19	2136.88
738.375	2032.44
738.561	2116.41
738.747	2108.21
738.932	1905.46
739.118	2181.94
739.303	1919.8
739.489	2042.68
739.674	1985.34
739.859	1968.95
740.045	2020.15
740.23	1958.71
740.416	1936.18
740.601	1932.09
740.786	2009.91
740.972	1993.53
741.157	1948.47
741.342	1878.84
741.528	2026.29
741.713	2067.25
741.898	1962.81
742.084	1958.71
742.269	1872.7
742.454	2014.01
742.639	2038.58
742.824	1903.42
743.01	1891.13
743.195	1944.38
743.38	1862.46
743.565	1948.47
743.75	1962.81
743.935	1823.55
744.12	1917.75
744.305	1807.16
744.49	1788.73
744.675	1831.74
744.86	1819.45
745.045	1766.2
745.23	1831.74
745.415	1932.09
745.6	1809.21
745.785	1850.17
745.97	1837.88
746.155	1862.46
746.34	1774.39
746.525	1774.39
746.71	1764.15
746.895	1751.87
747.079	1743.67
747.264	1661.76
747.449	1770.3
747.634	1755.96
747.819	1698.62
748.003	1637.18
748.188	1583.93
748.373	1690.43
748.557	1686.33
748.742	1641.28
748.927	1715
749.111	1575.74
749.296	1616.7
749.481	1641.28
749.665	1542.97
749.85	1473.34
750.034	1602.36
750.219	1620.8
750.404	1502.01
750.588	1616.7
750.773	1563.45
750.957	1592.13
751.141	1514.3
751.326	1504.06
751.51	1465.15
751.695	1366.85
751.879	1534.78
752.064	1463.1
752.248	1413.95
752.432	1491.77
752.617	1499.97
752.801	1506.11
752.985	1387.33
753.17	1436.48
753.354	1471.29
753.538	1461.06
753.722	1450.82
753.907	1471.29
754.091	1356.61
754.275	1372.99
754.459	1348.42
754.643	1305.41
754.828	1381.18
755.012	1342.27
755.196	1319.75
755.38	1264.45
755.564	1305.41
755.748	1289.03
755.932	1405.76
756.116	1299.27
756.3	1272.64
756.484	1239.87
756.668	1315.65
756.852	1184.58
757.036	1221.44
757.22	1342.27
757.404	1170.24
757.588	1266.5
757.772	1151.81
757.956	1231.68
758.14	1219.39
758.323	1162.05
758.507	1176.39
758.691	1100.61
758.875	1291.07
759.059	1289.03
759.242	1166.15
759.426	1192.77
759.61	1178.44
759.794	1047.37
759.977	1141.57
760.161	1250.11
760.345	1219.39
760.528	1145.67
760.712	1121.09
760.895	1092.42
761.079	1059.65
761.263	1094.47
761.446	1012.55
761.63	1096.52
761.813	1141.57
761.997	1028.93
762.18	1166.15
762.364	1102.66
762.547	971.59
762.731	1088.32
762.914	1059.65
763.098	944.97
763.281	1051.46
763.464	947.01
763.648	1024.84
763.831	1010.5
764.015	965.45
764.198	1051.46
764.381	949.06
764.564	1018.69
764.748	977.73
764.931	936.78
765.114	985.93
765.297	1043.27
765.481	938.82
765.664	930.63
765.847	928.58
766.03	998.21
766.213	914.25
766.397	1057.61
766.58	998.21
766.763	963.4
766.946	897.86
767.129	928.58
767.312	916.3
767.495	918.34
767.678	830.28
767.861	932.68
768.044	895.82
768.227	969.54
768.41	869.19
768.593	914.25
768.776	856.9
768.959	936.78
769.142	957.25
769.324	940.87
769.507	822.09
769.69	858.95
769.873	985.93
770.056	912.2
770.239	770.89
770.421	961.35
770.604	930.63
770.787	944.97
770.97	889.67
771.152	875.34
771.335	850.76
771.518	824.14
771.7	840.52
771.883	887.62
772.066	805.71
772.248	815.94
772.431	799.56
772.613	881.48
772.796	797.51
772.978	848.71
773.161	858.95
773.343	803.66
773.526	779.08
773.708	723.79
773.891	789.32
774.073	701.26
774.256	789.32
774.438	789.32
774.621	748.36
774.803	846.66
774.985	748.36
775.168	830.28
775.35	770.89
775.532	666.44
775.715	756.55
775.897	756.55
776.079	691.02
776.261	691.02
776.444	699.21
776.626	693.07
776.808	725.83
776.99	695.11
777.173	787.27
777.355	795.47
777.537	635.72
777.719	711.5
777.901	584.52
778.083	666.44
778.265	660.3
778.447	650.06
778.629	623.44
778.811	586.57
778.993	633.68
779.175	635.72
779.357	658.25
779.539	557.9
779.721	602.96
779.903	602.96
780.085	668.49
780.267	539.47
780.449	613.2
780.631	621.39
780.812	639.82
780.994	605
781.176	580.43
781.358	609.1
781.54	553.8
781.721	602.96
781.903	564.04
782.085	508.75
782.267	551.76
782.448	584.52
782.63	537.42
782.812	602.96
782.993	580.43
783.175	553.8
783.357	502.61
783.538	514.89
783.72	494.41
783.901	490.32
784.083	506.7
784.264	469.84
784.446	529.23
784.627	492.37
784.809	559.95
784.99	529.23
785.172	510.8
785.353	494.41
785.535	465.74
785.716	404.3
785.897	445.26
786.079	514.89
786.26	461.65
786.441	428.88
786.623	400.21
786.804	414.54
786.985	496.46
787.167	465.74
787.348	406.35
787.529	432.97
787.71	478.03
787.891	512.85
788.073	420.69
788.254	406.35
788.435	508.75
788.616	404.3
788.797	437.07
788.978	396.11
789.159	379.73
789.34	363.34
789.522	420.69
789.703	439.12
789.884	322.38
790.065	418.64
790.246	461.65
790.427	377.68
790.607	402.26
790.788	324.43
790.969	328.53
791.15	277.33
791.331	365.39
791.512	334.67
791.693	285.52
791.874	365.39
792.054	365.39
792.235	437.07
792.416	361.3
792.597	346.96
792.778	291.66
792.958	291.66
793.139	342.86
793.32	316.24
793.5	412.5
793.681	396.11
793.862	326.48
794.042	363.34
794.223	334.67
794.404	383.82
794.584	314.19
794.765	359.25
794.945	262.99
795.126	336.72
795.306	281.43
795.487	338.77
795.667	236.37
795.848	396.11
796.028	308.05
796.209	297.81
796.389	324.43
796.57	275.28
796.75	265.04
796.93	314.19
797.111	260.95
797.291	322.38
797.471	289.62
797.652	285.52
797.832	306
798.012	332.62
798.192	240.47
798.373	265.04
798.553	269.14
798.733	338.77
798.913	252.75
799.093	301.9
799.274	275.28
799.454	217.94
799.634	252.75
799.814	322.38
799.994	267.09
800.174	297.81
800.354	346.96
800.534	234.32
800.714	279.38
800.894	217.94
801.074	244.56
801.254	217.94
801.434	217.94
801.614	236.37
801.794	199.51
801.974	838.47
802.154	244.56
802.334	346.96
802.514	193.36
802.693	226.13
802.873	205.65
803.053	215.89
803.233	242.51
803.413	275.28
803.592	256.85
803.772	162.64
803.952	240.47
804.131	183.12
804.311	306
804.491	240.47
804.67	195.41
804.85	215.89
805.03	152.4
805.209	236.37
805.389	258.9
805.568	281.43
805.748	248.66
805.928	146.26
806.107	236.37
806.287	238.42
806.466	205.65
806.646	150.36
806.825	191.31
807.004	185.17
807.184	168.79
807.363	193.36
807.543	277.33
807.722	203.6
807.901	265.04
808.081	168.79
808.26	152.4
808.439	183.12
808.619	234.32
808.798	222.03
808.977	142.16
809.156	242.51
809.336	127.83
809.515	260.95
809.694	125.78
809.873	156.5
810.052	226.13
810.231	228.18
810.411	201.55
810.59	224.08
810.769	187.22
810.948	199.51
811.127	195.41
811.306	101.2
811.485	136.02
811.664	181.07
811.843	166.74
812.022	172.88
812.201	222.03
812.38	224.08
812.559	158.55
812.737	207.7
812.916	166.74
813.095	138.07
813.274	238.42
813.453	133.97
813.632	195.41
813.811	215.89
813.989	68.44
814.168	136.02
814.347	76.63
814.526	183.12
814.704	156.5
814.883	154.45
815.062	117.59
815.24	164.69
815.419	174.93
815.598	195.41
815.776	176.98
815.955	176.98
816.133	170.83
816.312	201.55
816.49	197.46
816.669	64.34
816.847	142.16
817.026	109.4
817.204	148.31
817.383	160.59
817.561	86.87
817.74	158.55
817.918	179.03
818.097	144.21
818.275	133.97
818.453	154.45
818.632	179.03
818.81	183.12
818.988	101.2
819.167	176.98
819.345	113.49
819.523	62.29
819.701	146.26
819.879	133.97
820.058	138.07
820.236	162.64
820.414	125.78
820.592	142.16
820.77	140.12
820.948	52.05
821.127	103.25
821.305	125.78
821.483	129.88
821.661	125.78
821.839	133.97
822.017	117.59
822.195	127.83
822.373	109.4
822.551	60.24
822.729	62.29
822.907	136.02
823.085	138.07
823.262	117.59
823.44	103.25
823.618	125.78
823.796	183.12
823.974	150.36
824.152	103.25
824.329	125.78
824.507	154.45
824.685	111.44
824.863	185.17
825.04	109.4
825.218	86.87
825.396	52.05
825.574	156.5
825.751	203.6
825.929	152.4
826.107	-1.19
826.284	88.92
826.462	125.78
826.639	101.2
826.817	109.4
826.994	117.59
827.172	97.11
827.349	215.89
827.527	86.87
827.704	101.2
827.882	88.92
828.059	95.06
828.237	172.88
828.414	68.44
828.591	99.16
828.769	93.01
828.946	105.3
829.124	68.44
829.301	86.87
829.478	60.24
829.655	33.62
829.833	68.44
830.01	11.09
830.187	86.87
830.364	103.25
830.542	111.44
830.719	133.97
830.896	72.53
831.073	60.24
831.25	90.96
831.427	136.02
831.604	90.96
831.782	37.72
831.959	76.63
832.136	70.48
832.313	37.72
832.49	133.97
832.667	123.73
832.844	21.33
833.021	101.2
833.198	66.39
833.374	88.92
833.551	103.25
833.728	152.4
833.905	140.12
834.082	56.15
834.259	33.62
834.436	113.49
834.612	78.68
834.789	56.15
834.966	99.16
835.143	2.9
835.319	72.53
835.496	129.88
835.673	31.57
835.85	136.02
836.026	47.96
836.203	54.1
836.38	90.96
836.556	2.9
836.733	78.68
836.909	60.24
837.086	19.29
837.262	11.09
837.439	68.44
837.616	95.06
837.792	19.29
837.968	56.15
838.145	19.29
838.321	115.54
838.498	103.25
838.674	74.58
838.851	88.92
839.027	50
839.203	19.29
839.38	125.78
839.556	54.1
839.732	109.4
839.909	60.24
840.085	52.05
840.261	-13.48
840.437	95.06
840.614	84.82
840.79	-38.06
840.966	113.49
841.142	68.44
841.318	101.2
841.494	54.1
841.671	43.86
841.847	68.44
842.023	-36.01
842.199	66.39
842.375	52.05
842.551	37.72
842.727	35.67
842.903	78.68
843.079	2.9
843.255	103.25
843.431	23.38
843.607	76.63
843.783	2.9
843.959	52.05
844.134	-17.58
844.31	76.63
844.486	39.76
844.662	70.48
844.838	33.62
845.013	111.44
845.189	41.81
845.365	43.86
845.541	95.06
845.716	43.86
845.892	62.29
846.068	19.29
846.244	60.24
846.419	-11.43
846.595	27.48
846.77	93.01
846.946	107.35
847.122	121.68
847.297	17.24
847.473	76.63
847.648	29.52
847.824	11.09
847.999	-21.67
848.175	76.63
848.35	97.11
848.526	95.06
848.701	60.24
848.876	35.67
849.052	70.48
849.227	29.52
849.403	39.76
849.578	133.97
849.753	68.44
849.929	-13.48
850.104	21.33
850.279	99.16
850.454	-44.2
850.63	70.48
850.805	152.4
850.98	27.48
851.155	17.24
851.33	109.4
851.505	68.44
851.681	52.05
851.856	50
852.031	13.14
852.206	-1.19
852.381	7
852.556	86.87
852.731	43.86
852.906	68.44
853.081	60.24
853.256	136.02
853.431	33.62
853.606	-27.82
853.781	23.38
853.956	-11.43
854.131	60.24
854.305	35.67
854.48	23.38
854.655	47.96
854.83	-29.87
855.005	168.79
855.18	117.59
855.354	-36.01
855.529	107.35
855.704	90.96
855.879	29.52
856.053	-7.34
856.228	80.72
856.403	-27.82
856.577	117.59
856.752	19.29
856.926	47.96
857.101	72.53
857.276	52.05
857.45	17.24
857.625	86.87
857.799	-11.43
857.974	52.05
858.148	-46.25
858.323	17.24
858.497	41.81
858.672	4.95
858.846	37.72
859.02	13.14
859.195	-13.48
859.369	43.86
859.543	41.81
859.718	4.95
859.892	31.57
860.066	19.29
860.241	13.14
860.415	-7.34
860.589	43.86
860.763	45.91
860.938	-60.59
861.112	27.48
861.286	111.44
861.46	62.29
861.634	117.59
861.808	97.11
861.982	11.09
862.157	-5.29
862.331	31.57
862.505	27.48
862.679	-5.29
862.853	19.29
863.027	17.24
863.201	144.21
863.375	15.19
863.549	29.52
863.722	109.4
863.896	27.48
864.07	11.09
864.244	27.48
864.418	111.44
864.592	88.92
864.766	68.44
864.939	-29.87
865.113	-17.58
865.287	11.09
865.461	-1.19
865.634	-5.29
865.808	4.95
865.982	-21.67
866.156	-36.01
866.329	11.09
866.503	13.14
866.676	23.38
866.85	-1.19
867.024	37.72
867.197	41.81
867.371	-46.25
867.544	56.15
867.718	68.44
867.891	39.76
868.065	86.87
868.238	58.2
868.412	13.14
868.585	11.09
868.759	15.19
868.932	60.24
869.105	-33.96
869.279	56.15
869.452	52.05
869.625	119.64
869.799	2.9
869.972	19.29
870.145	37.72
870.319	54.1
870.492	-38.06
870.665	2.9
870.838	43.86
871.011	-46.25
871.185	21.33
871.358	15.19
871.531	76.63
871.704	56.15
871.877	60.24
872.05	27.48
872.223	21.33
872.396	60.24
872.569	88.92
872.742	-5.29
872.915	43.86
873.088	4.95
873.261	52.05
873.434	-33.96
873.607	7
873.78	82.77
873.953	15.19
874.126	52.05
874.299	-11.43
874.471	-36.01
874.644	27.48
874.817	74.58
874.99	60.24
875.163	-38.06
875.335	-21.67
875.508	29.52
875.681	11.09
875.853	-54.44
876.026	-3.24
876.199	35.67
876.371	-3.24
876.544	27.48
876.717	21.33
876.889	-31.91
877.062	31.57
877.234	-13.48
877.407	-1.19
877.579	84.82
877.752	-23.72
877.924	88.92
878.097	47.96
878.269	27.48
878.442	50
878.614	-19.63
878.786	76.63
878.959	4.95
879.131	-25.77
879.303	-5.29
879.476	58.2
879.648	15.19
879.82	13.14
879.993	-5.29
880.165	19.29
880.337	-5.29
880.509	84.82
880.681	11.09
880.854	29.52
881.026	70.48
881.198	39.76
881.37	21.33
881.542	13.14
881.714	27.48
881.886	11.09
882.058	56.15
882.23	-44.2
882.402	-52.39
882.574	19.29
882.746	21.33
882.918	60.24
883.09	43.86
883.262	27.48
883.434	97.11
883.606	-13.48
883.778	-42.15
883.95	52.05
884.122	11.09
884.293	93.01
884.465	47.96
884.637	37.72
884.809	11.09
884.98	84.82
885.152	19.29
885.324	80.72
885.496	27.48
885.667	39.76
885.839	-3.24
886.011	95.06
886.182	4.95
886.354	2.9
886.525	11.09
886.697	78.68
886.869	35.67
887.04	19.29
887.212	93.01
887.383	88.92
887.555	-1.19
887.726	15.19
887.897	43.86
888.069	29.52
888.24	-1.19
888.412	11.09
888.583	80.72
888.754	-21.67
888.926	-70.83
889.097	-15.53
889.268	-144.55
889.44	39.76
889.611	-50.35
889.782	-36.01
889.953	21.33
890.125	125.78
890.296	-29.87
890.467	-13.48
890.638	23.38
890.809	11.09
890.98	-46.25
891.151	27.48
891.323	31.57
891.494	-23.72
891.665	7
891.836	-83.11
892.007	-11.43
892.178	-21.67
892.349	72.53
892.52	47.96
892.691	60.24
892.862	-3.24
893.032	-19.63
893.203	56.15
893.374	39.76
893.545	23.38
893.716	-15.53
893.887	52.05
894.057	-21.67
894.228	11.09
894.399	19.29
894.57	29.52
894.74	9.05
894.911	62.29
895.082	-5.29
895.253	64.34
895.423	52.05
895.594	64.34
895.764	43.86
895.935	21.33
896.106	4.95
896.276	2.9
896.447	39.76
896.617	11.09
896.788	35.67
896.958	47.96
897.129	27.48
897.299	-15.53
897.47	113.49
897.64	84.82
897.81	27.48
897.981	-44.2
898.151	-27.82
898.322	-52.39
898.492	60.24
898.662	101.2
898.832	15.19
899.003	39.76
899.173	21.33
899.343	-25.77
899.513	27.48
