Data from USB4F104151__220__14-45-31-087.txt Node

Date: Thu Mar 13 14:45:31 EDT 2025
User: louis
Spectrometer: USB4F10415
Trigger mode: 4
Integration Time (sec): 2.000000E-2
Scans to average: 1
Electric dark correction enabled: true
Nonlinearity correction enabled: false
Boxcar width: 0
XAxis mode: Wavelengths
Number of Pixels in Spectrum: 3648
>>>>>Begin Spectral Data<<<<<
178.204	-80.04
178.424	-80.04
178.644	-80.04
178.864	-166.06
179.084	-26.79
179.304	20.31
179.524	-49.32
179.744	-92.33
179.964	20.31
180.184	48.98
180.404	28.5
180.624	-28.84
180.844	-24.75
181.064	-14.51
181.283	3.93
181.503	-51.37
181.723	139.09
181.943	-24.75
182.163	42.84
182.383	-57.51
182.602	44.88
182.822	36.69
183.042	38.74
183.262	96.08
183.482	10.07
183.701	3.93
183.921	-4.27
184.141	-8.36
184.361	53.08
184.58	77.65
184.8	-6.31
185.02	36.69
185.239	12.12
185.459	-18.6
185.679	102.23
185.898	-41.13
186.118	87.89
186.338	1.88
186.557	-2.22
186.777	-0.17
186.997	-12.46
187.216	-45.23
187.436	77.65
187.655	114.52
187.875	145.24
188.095	24.4
188.314	20.31
188.534	12.12
188.753	57.17
188.973	91.99
189.192	5.97
189.412	53.08
189.631	59.22
189.851	36.69
190.07	61.27
190.29	-24.75
190.509	3.93
190.729	-0.17
190.948	30.55
191.168	169.81
191.387	94.04
191.607	22.36
191.826	24.4
192.045	61.27
192.265	5.97
192.484	-32.94
192.704	44.88
192.923	20.31
193.142	128.85
193.362	28.5
193.581	110.42
193.8	-12.46
194.02	-71.85
194.239	89.94
194.458	69.46
194.678	104.28
194.897	-12.46
195.116	55.12
195.335	98.13
195.555	116.56
195.774	8.02
195.993	-49.32
196.212	26.45
196.432	1.88
196.651	1.88
196.87	14.17
197.089	108.37
197.308	165.71
197.528	53.08
197.747	-26.79
197.966	16.21
198.185	94.04
198.404	3.93
198.623	69.46
198.842	40.79
199.062	28.5
199.281	20.31
199.5	22.36
199.719	32.6
199.938	85.84
200.157	77.65
200.376	-20.65
200.595	12.12
200.814	12.12
201.033	-12.46
201.252	20.31
201.471	57.17
201.69	38.74
201.909	79.7
202.128	104.28
202.347	46.93
202.566	38.74
202.785	-12.46
203.004	3.93
203.223	38.74
203.442	59.22
203.661	-10.41
203.879	14.17
204.098	12.12
204.317	-16.55
204.536	26.45
204.755	14.17
204.974	53.08
205.193	55.12
205.411	112.47
205.63	-20.65
205.849	55.12
206.068	28.5
206.287	53.08
206.505	81.75
206.724	-41.13
206.943	46.93
207.162	-20.65
207.381	44.88
207.599	14.17
207.818	81.75
208.037	48.98
208.255	48.98
208.474	-32.94
208.693	20.31
208.911	-45.23
209.13	-6.31
209.349	46.93
209.567	145.24
209.786	3.93
210.005	16.21
210.223	61.27
210.442	75.6
210.661	-26.79
210.879	-4.27
211.098	20.31
211.316	85.84
211.535	102.23
211.753	26.45
211.972	53.08
212.191	3.93
212.409	89.94
212.628	57.17
212.846	12.12
213.065	28.5
213.283	22.36
213.502	77.65
213.72	48.98
213.938	3.93
214.157	-24.75
214.375	75.6
214.594	22.36
214.812	18.26
215.031	51.03
215.249	8.02
215.467	16.21
215.686	-4.27
215.904	71.51
216.122	32.6
216.341	71.51
216.559	42.84
216.778	87.89
216.996	40.79
217.214	3.93
217.432	-2.22
217.651	69.46
217.869	36.69
218.087	-10.41
218.306	-34.99
218.524	20.31
218.742	-26.79
218.96	71.51
219.179	20.31
219.397	-30.89
219.615	28.5
219.833	-18.6
220.051	-12.46
220.27	14.17
220.488	36.69
220.706	18.26
220.924	5.97
221.142	24.4
221.36	22.36
221.578	44.88
221.796	44.88
222.015	81.75
222.233	53.08
222.451	85.84
222.669	14.17
222.887	40.79
223.105	48.98
223.323	63.32
223.541	18.26
223.759	57.17
223.977	32.6
224.195	20.31
224.413	34.64
224.631	-43.18
224.849	26.45
225.067	44.88
225.285	36.69
225.503	81.75
225.721	-53.42
225.939	12.12
226.157	26.45
226.375	83.8
226.592	26.45
226.81	36.69
227.028	48.98
227.246	102.23
227.464	-24.75
227.682	-32.94
227.9	57.17
228.117	69.46
228.335	38.74
228.553	20.31
228.771	77.65
228.989	32.6
229.206	53.08
229.424	36.69
229.642	24.4
229.86	-22.7
230.077	-4.27
230.295	-10.41
230.513	65.36
230.731	-4.27
230.948	38.74
231.166	8.02
231.384	-51.37
231.601	12.12
231.819	48.98
232.037	77.65
232.254	3.93
232.472	-18.6
232.689	3.93
232.907	91.99
233.125	30.55
233.342	1.88
233.56	55.12
233.777	46.93
233.995	53.08
234.213	85.84
234.43	77.65
234.648	-53.42
234.865	-22.7
235.083	8.02
235.3	12.12
235.518	81.75
235.735	44.88
235.953	38.74
236.17	5.97
236.388	18.26
236.605	75.6
236.822	30.55
237.04	1.88
237.257	-24.75
237.475	-0.17
237.692	40.79
237.909	-0.17
238.127	32.6
238.344	-34.99
238.562	94.04
238.779	-10.41
238.996	-51.37
239.214	-8.36
239.431	104.28
239.648	-4.27
239.865	3.93
240.083	38.74
240.3	106.32
240.517	-12.46
240.735	-37.03
240.952	61.27
241.169	102.23
241.386	71.51
241.603	8.02
241.821	16.21
242.038	46.93
242.255	106.32
242.472	102.23
242.689	-26.79
242.907	69.46
243.124	36.69
243.341	46.93
243.558	38.74
243.775	36.69
243.992	-53.42
244.209	55.12
244.426	106.32
244.643	-2.22
244.86	-20.65
245.078	61.27
245.295	-8.36
245.512	-18.6
245.729	55.12
245.946	40.79
246.163	53.08
246.38	-16.55
246.597	55.12
246.814	36.69
247.031	-4.27
247.248	-8.36
247.464	24.4
247.681	18.26
247.898	-8.36
248.115	94.04
248.332	12.12
248.549	40.79
248.766	77.65
248.983	53.08
249.2	-45.23
249.417	63.32
249.633	53.08
249.85	38.74
250.067	-4.27
250.284	83.8
250.501	71.51
250.717	53.08
250.934	12.12
251.151	12.12
251.368	14.17
251.585	61.27
251.801	-18.6
252.018	-2.22
252.235	20.31
252.451	30.55
252.668	38.74
252.885	-2.22
253.102	94.04
253.318	34.64
253.535	12.12
253.752	38.74
253.968	85.84
254.185	69.46
254.401	53.08
254.618	38.74
254.835	8.02
255.051	73.56
255.268	65.36
255.484	46.93
255.701	46.93
255.917	16.21
256.134	-28.84
256.351	8.02
256.567	-8.36
256.784	14.17
257	48.98
257.217	77.65
257.433	61.27
257.65	38.74
257.866	22.36
258.082	-63.66
258.299	38.74
258.515	57.17
258.732	-6.31
258.948	-10.41
259.165	36.69
259.381	-65.71
259.597	3.93
259.814	18.26
260.03	-0.17
260.246	5.97
260.463	79.7
260.679	57.17
260.895	30.55
261.112	24.4
261.328	87.89
261.544	-45.23
261.761	44.88
261.977	96.08
262.193	-59.56
262.409	28.5
262.626	40.79
262.842	12.12
263.058	28.5
263.274	14.17
263.49	-59.56
263.707	22.36
263.923	69.46
264.139	-4.27
264.355	44.88
264.571	126.8
264.787	-20.65
265.004	61.27
265.22	14.17
265.436	65.36
265.652	-4.27
265.868	3.93
266.084	30.55
266.3	-4.27
266.516	24.4
266.732	30.55
266.948	44.88
267.164	-10.41
267.38	22.36
267.596	-8.36
267.812	-12.46
268.028	-8.36
268.244	44.88
268.46	12.12
268.676	-4.27
268.892	-10.41
269.108	63.32
269.324	-4.27
269.54	-43.18
269.756	44.88
269.972	1.88
270.188	-20.65
270.403	44.88
270.619	63.32
270.835	40.79
271.051	18.26
271.267	-53.42
271.483	36.69
271.698	10.07
271.914	30.55
272.13	55.12
272.346	3.93
272.562	12.12
272.777	48.98
272.993	-0.17
273.209	36.69
273.425	38.74
273.64	-41.13
273.856	-24.75
274.072	-47.27
274.287	102.23
274.503	-4.27
274.719	-0.17
274.934	-10.41
275.15	-0.17
275.366	-12.46
275.581	5.97
275.797	46.93
276.012	26.45
276.228	-20.65
276.444	14.17
276.659	28.5
276.875	48.98
277.09	28.5
277.306	30.55
277.521	-2.22
277.737	-12.46
277.952	-10.41
278.168	-34.99
278.383	71.51
278.599	22.36
278.814	-8.36
279.03	53.08
279.245	40.79
279.461	38.74
279.676	108.37
279.892	12.12
280.107	40.79
280.322	36.69
280.538	46.93
280.753	28.5
280.969	12.12
281.184	-0.17
281.399	18.26
281.615	20.31
281.83	67.41
282.045	-43.18
282.26	40.79
282.476	5.97
282.691	46.93
282.906	89.94
283.122	26.45
283.337	57.17
283.552	46.93
283.767	-32.94
283.983	44.88
284.198	36.69
284.413	40.79
284.628	3.93
284.843	20.31
285.058	12.12
285.274	61.27
285.489	3.93
285.704	28.5
285.919	12.12
286.134	57.17
286.349	-4.27
286.564	-37.03
286.779	3.93
286.995	-43.18
287.21	-55.47
287.425	38.74
287.64	-14.51
287.855	-0.17
288.07	14.17
288.285	-26.79
288.5	20.31
288.715	22.36
288.93	77.65
289.145	-4.27
289.36	53.08
289.575	22.36
289.79	-6.31
290.004	30.55
290.219	89.94
290.434	-39.08
290.649	22.36
290.864	94.04
291.079	69.46
291.294	38.74
291.509	-45.23
291.724	26.45
291.938	24.4
292.153	106.32
292.368	12.12
292.583	20.31
292.798	53.08
293.012	36.69
293.227	20.31
293.442	-2.22
293.657	40.79
293.871	137.04
294.086	3.93
294.301	-10.41
294.516	36.69
294.73	-20.65
294.945	-26.79
295.16	-16.55
295.374	63.32
295.589	10.07
295.804	34.64
296.018	38.74
296.233	65.36
296.447	-0.17
296.662	-24.75
296.877	63.32
297.091	53.08
297.306	120.66
297.52	59.22
297.735	36.69
297.949	36.69
298.164	28.5
298.378	36.69
298.593	20.31
298.807	20.31
299.022	51.03
299.236	38.74
299.451	61.27
299.665	28.5
299.88	20.31
300.094	24.4
300.309	12.12
300.523	38.74
300.737	53.08
300.952	53.08
301.166	53.08
301.381	65.36
301.595	12.12
301.809	12.12
302.024	-41.13
302.238	40.79
302.452	110.42
302.667	36.69
302.881	85.84
303.095	61.27
303.309	87.89
303.524	28.5
303.738	73.56
303.952	71.51
304.166	48.98
304.381	-82.09
304.595	55.12
304.809	-4.27
305.023	22.36
305.237	-8.36
305.452	-12.46
305.666	89.94
305.88	55.12
306.094	-4.27
306.308	85.84
306.522	14.17
306.736	-26.79
306.95	5.97
307.164	75.6
307.379	59.22
307.593	118.61
307.807	-12.46
308.021	-6.31
308.235	26.45
308.449	8.02
308.663	12.12
308.877	-14.51
309.091	-37.03
309.305	96.08
309.519	-82.09
309.733	75.6
309.947	48.98
310.161	-51.37
310.374	65.36
310.588	61.27
310.802	-4.27
311.016	36.69
311.23	-0.17
311.444	87.89
311.658	-18.6
311.872	30.55
312.085	5.97
312.299	79.7
312.513	42.84
312.727	36.69
312.941	77.65
313.154	38.74
313.368	30.55
313.582	53.08
313.796	24.4
314.009	20.31
314.223	14.17
314.437	44.88
314.651	94.04
314.864	3.93
315.078	-47.27
315.292	73.56
315.505	12.12
315.719	16.21
315.933	-2.22
316.146	-32.94
316.36	-0.17
316.573	94.04
316.787	20.31
317.001	8.02
317.214	69.46
317.428	48.98
317.641	-67.75
317.855	44.88
318.068	20.31
318.282	48.98
318.495	57.17
318.709	-18.6
318.922	32.6
319.136	28.5
319.349	32.6
319.563	57.17
319.776	81.75
319.99	38.74
320.203	30.55
320.417	5.97
320.63	12.12
320.843	85.84
321.057	-2.22
321.27	106.32
321.483	12.12
321.697	55.12
321.91	32.6
322.124	-12.46
322.337	32.6
322.55	28.5
322.763	14.17
322.977	-34.99
323.19	-4.27
323.403	-4.27
323.617	1.88
323.83	110.42
324.043	-28.84
324.256	46.93
324.469	-41.13
324.683	104.28
324.896	-8.36
325.109	28.5
325.322	3.93
325.535	-4.27
325.748	14.17
325.962	16.21
326.175	14.17
326.388	53.08
326.601	44.88
326.814	42.84
327.027	40.79
327.24	8.02
327.453	-51.37
327.666	32.6
327.879	57.17
328.092	-53.42
328.305	42.84
328.518	-2.22
328.731	20.31
328.944	44.88
329.157	126.8
329.37	57.17
329.583	55.12
329.796	53.08
330.009	-14.51
330.222	104.28
330.435	32.6
330.648	71.51
330.861	18.26
331.073	-4.27
331.286	44.88
331.499	53.08
331.712	-22.7
331.925	28.5
332.138	5.97
332.35	102.23
332.563	36.69
332.776	53.08
332.989	-77.99
333.202	87.89
333.414	94.04
333.627	28.5
333.84	-53.42
334.053	77.65
334.265	-14.51
334.478	28.5
334.691	85.84
334.903	30.55
335.116	-77.99
335.329	-37.03
335.541	34.64
335.754	114.52
335.966	-12.46
336.179	69.46
336.392	16.21
336.604	63.32
336.817	81.75
337.029	100.18
337.242	34.64
337.454	53.08
337.667	-61.61
337.88	71.51
338.092	-26.79
338.305	32.6
338.517	30.55
338.729	44.88
338.942	12.12
339.154	-37.03
339.367	16.21
339.579	-43.18
339.792	30.55
340.004	48.98
340.217	-8.36
340.429	118.61
340.641	-43.18
340.854	5.97
341.066	3.93
341.278	79.7
341.491	38.74
341.703	69.46
341.915	-32.94
342.128	24.4
342.34	34.64
342.552	22.36
342.764	51.03
342.977	14.17
343.189	44.88
343.401	24.4
343.613	-28.84
343.826	65.36
344.038	3.93
344.25	-14.51
344.462	55.12
344.674	12.12
344.886	20.31
345.099	104.28
345.311	36.69
345.523	42.84
345.735	-26.79
345.947	85.84
346.159	12.12
346.371	44.88
346.583	-37.03
346.795	110.42
347.007	-71.85
347.219	28.5
347.431	-6.31
347.643	116.56
347.855	-12.46
348.067	40.79
348.279	-43.18
348.491	-2.22
348.703	69.46
348.915	24.4
349.127	26.45
349.339	61.27
349.551	48.98
349.763	-26.79
349.975	98.13
350.187	69.46
350.399	73.56
350.61	57.17
350.822	8.02
351.034	65.36
351.246	96.08
351.458	3.93
351.669	79.7
351.881	75.6
352.093	100.18
352.305	63.32
352.517	51.03
352.728	110.42
352.94	69.46
353.152	3.93
353.363	8.02
353.575	12.12
353.787	-37.03
353.999	24.4
354.21	38.74
354.422	57.17
354.633	-45.23
354.845	48.98
355.057	73.56
355.268	14.17
355.48	126.8
355.692	-2.22
355.903	-30.89
356.115	30.55
356.326	-37.03
356.538	14.17
356.749	51.03
356.961	71.51
357.172	61.27
357.384	77.65
357.595	28.5
357.807	-37.03
358.018	67.41
358.23	73.56
358.441	40.79
358.653	55.12
358.864	30.55
359.075	57.17
359.287	-41.13
359.498	118.61
359.709	73.56
359.921	-6.31
360.132	-2.22
360.344	69.46
360.555	57.17
360.766	75.6
360.977	-0.17
361.189	71.51
361.4	102.23
361.611	106.32
361.823	61.27
362.034	48.98
362.245	-94.38
362.456	24.4
362.667	44.88
362.879	-12.46
363.09	69.46
363.301	16.21
363.512	87.89
363.723	69.46
363.935	5.97
364.146	-14.51
364.357	10.07
364.568	122.71
364.779	-51.37
364.99	8.02
365.201	44.88
365.412	1.88
365.623	30.55
365.834	32.6
366.045	24.4
366.256	69.46
366.467	53.08
366.678	22.36
366.889	5.97
367.1	-51.37
367.311	61.27
367.522	20.31
367.733	12.12
367.944	12.12
368.155	-22.7
368.366	63.32
368.577	38.74
368.788	102.23
368.999	20.31
369.209	-16.55
369.42	65.36
369.631	132.95
369.842	3.93
370.053	55.12
370.264	16.21
370.474	3.93
370.685	18.26
370.896	-24.75
371.107	3.93
371.317	44.88
371.528	32.6
371.739	94.04
371.95	30.55
372.16	-12.46
372.371	-0.17
372.582	63.32
372.792	85.84
373.003	61.27
373.214	14.17
373.424	-16.55
373.635	-24.75
373.846	63.32
374.056	46.93
374.267	-4.27
374.477	44.88
374.688	73.56
374.898	55.12
375.109	38.74
375.319	124.76
375.53	38.74
375.74	61.27
375.951	83.8
376.161	106.32
376.372	77.65
376.582	8.02
376.793	51.03
377.003	-20.65
377.214	73.56
377.424	46.93
377.635	57.17
377.845	5.97
378.055	59.22
378.266	16.21
378.476	12.12
378.686	8.02
378.897	118.61
379.107	28.5
379.317	143.19
379.528	40.79
379.738	53.08
379.948	8.02
380.158	46.93
380.369	10.07
380.579	65.36
380.789	8.02
380.999	118.61
381.21	71.51
381.42	36.69
381.63	28.5
381.84	53.08
382.05	26.45
382.261	28.5
382.471	61.27
382.681	79.7
382.891	77.65
383.101	87.89
383.311	-45.23
383.521	20.31
383.731	32.6
383.941	81.75
384.151	20.31
384.361	-28.84
384.571	-26.79
384.781	65.36
384.991	20.31
385.201	38.74
385.411	96.08
385.621	159.57
385.831	65.36
386.041	53.08
386.251	59.22
386.461	85.84
386.671	32.6
386.881	40.79
387.091	59.22
387.301	120.66
387.511	-37.03
387.72	44.88
387.93	77.65
388.14	48.98
388.35	48.98
388.56	53.08
388.769	77.65
388.979	24.4
389.189	-16.55
389.399	32.6
389.609	28.5
389.818	61.27
390.028	61.27
390.238	110.42
390.447	63.32
390.657	-32.94
390.867	65.36
391.076	5.97
391.286	14.17
391.496	73.56
391.705	79.7
391.915	57.17
392.125	126.8
392.334	3.93
392.544	67.41
392.753	32.6
392.963	-59.56
393.172	14.17
393.382	16.21
393.591	137.04
393.801	12.12
394.01	8.02
394.22	44.88
394.429	73.56
394.639	16.21
394.848	153.43
395.058	28.5
395.267	46.93
395.477	57.17
395.686	34.64
395.895	77.65
396.105	135
396.314	81.75
396.524	77.65
396.733	128.85
396.942	81.75
397.152	61.27
397.361	102.23
397.57	69.46
397.78	-16.55
397.989	69.46
398.198	163.67
398.407	71.51
398.617	98.13
398.826	20.31
399.035	28.5
399.244	114.52
399.453	178
399.663	63.32
399.872	102.23
400.081	102.23
400.29	126.8
400.499	73.56
400.708	-16.55
400.917	73.56
401.127	118.61
401.336	20.31
401.545	130.9
401.754	118.61
401.963	69.46
402.172	16.21
402.381	-12.46
402.59	42.84
402.799	178
403.008	94.04
403.217	110.42
403.426	73.56
403.635	161.62
403.844	73.56
404.053	180.05
404.262	167.76
404.471	186.19
404.68	137.04
404.888	169.81
405.097	63.32
405.306	112.47
405.515	184.15
405.724	153.43
405.933	135
406.142	167.76
406.35	137.04
406.559	200.53
406.768	225.11
406.977	202.58
407.185	135
407.394	167.76
407.603	196.43
407.812	151.38
408.02	208.72
408.229	167.76
408.438	85.84
408.646	167.76
408.855	184.15
409.064	143.19
409.272	239.44
409.481	233.3
409.69	241.49
409.898	235.35
410.107	243.54
410.315	223.06
410.524	319.31
410.733	278.35
410.941	251.73
411.15	290.64
411.358	364.37
411.567	440.14
411.775	370.51
411.984	323.41
412.192	407.38
412.401	350.03
412.609	376.66
412.818	446.29
413.026	429.9
413.234	431.95
413.443	520.01
413.651	481.1
413.86	481.1
414.068	487.25
414.276	556.88
414.485	536.4
414.693	560.97
414.901	548.68
415.11	583.5
415.318	577.36
415.526	544.59
415.734	661.32
415.943	663.37
416.151	741.19
416.359	724.81
416.567	808.78
416.776	724.81
416.984	751.43
417.192	851.78
417.4	773.96
417.608	751.43
417.817	880.46
418.025	943.94
418.233	978.76
418.441	939.85
418.649	962.37
418.857	1124.16
419.065	1118.02
419.273	1101.64
419.481	1091.4
419.689	1154.88
419.897	1290.05
420.105	1308.48
420.313	1306.43
420.521	1335.1
420.729	1351.49
420.937	1349.44
421.145	1437.5
421.353	1447.74
421.561	1666.88
421.769	1625.92
421.977	1718.08
422.185	1736.51
422.393	1740.6
422.601	1906.49
422.809	1920.82
423.017	1953.59
423.224	2002.74
423.432	2035.51
423.64	2125.62
423.848	2297.65
424.056	2162.48
424.263	2432.82
424.471	2477.87
424.679	2408.24
424.887	2502.45
425.094	2641.71
425.302	2666.28
425.51	2834.22
425.718	2869.03
425.925	2936.62
426.133	3053.35
426.341	3143.46
426.548	3278.63
426.756	3264.29
426.964	3280.68
427.171	3542.82
427.379	3510.05
427.586	3659.55
427.794	3720.99
428.001	3764
428.209	3993.37
428.417	4007.7
428.624	4284.18
428.832	4243.22
429.039	4116.25
429.247	4261.65
429.454	4665.1
429.662	4972.3
429.869	4564.75
430.076	4962.06
430.284	4787.98
430.491	4949.77
430.699	5426.95
430.906	5340.93
431.114	5365.51
431.321	5820.16
431.528	5799.68
431.736	6072.06
431.943	6428.4
432.15	6139.64
432.358	6237.94
432.565	6512.37
432.772	6590.19
432.979	6838
433.187	7067.37
433.394	7089.9
433.601	7483.11
433.808	7462.63
434.016	7452.39
434.223	7696.1
434.43	8265.43
434.637	8214.23
434.844	8685.26
435.052	8693.46
435.259	8679.12
435.466	8703.7
435.673	8652.5
435.88	9205.45
436.087	9737.92
436.294	9574.08
436.501	9387.72
436.708	9557.7
436.915	10178.23
437.122	10700.47
437.329	10423.99
437.537	10919.6
437.743	10968.75
437.95	10962.61
438.157	11398.82
438.364	11853.47
438.571	11884.19
438.778	12168.86
438.985	13069.97
439.192	12455.58
439.399	12756.63
439.606	12463.77
439.813	13301.39
440.02	13971.07
440.227	13745.8
440.433	13651.59
440.64	14175.87
440.847	13999.74
441.054	14544.5
441.261	15355.5
441.467	15273.58
441.674	15539.82
441.881	15947.36
442.088	16062.05
442.294	16086.62
442.501	16152.16
442.708	16686.68
442.914	17141.33
443.121	17991.23
443.328	17292.88
443.534	18617.91
443.741	18296.38
443.948	17942.08
444.154	19246.64
444.361	18849.33
444.568	19240.5
444.774	19090.99
444.981	19543.6
445.187	19953.19
445.394	20565.53
445.6	20799
445.807	22605.31
446.013	21671.43
446.22	21859.85
446.426	22994.42
446.633	23014.9
446.839	23637.48
447.046	22613.5
447.252	24163.81
447.459	23993.83
447.665	23985.64
447.871	24946.14
448.078	26125.77
448.284	24817.11
448.491	25718.22
448.697	26729.92
448.903	27016.63
449.11	26897.85
449.316	26641.85
449.522	27264.44
449.728	28200.36
449.935	28302.76
450.141	27970.99
450.347	28849.57
450.553	27661.74
450.76	28134.82
450.966	29005.21
451.172	28800.41
451.378	29537.68
451.584	29152.66
451.791	29851.02
451.997	29865.36
452.203	30223.75
452.409	30391.69
452.615	29945.23
452.821	28673.44
453.027	28743.07
453.233	30377.35
453.44	28927.39
453.646	29324.69
453.852	29578.64
454.058	29713.81
454.264	28962.2
454.47	29978
454.676	28941.72
454.882	30178.7
455.088	27551.15
455.294	27801.01
455.5	28650.91
455.705	28548.51
455.911	27289.01
456.117	26801.6
456.323	26838.46
456.529	25241.04
456.735	26203.59
456.941	25744.84
457.147	25427.41
457.352	24716.76
457.558	24376.8
457.764	24167.91
457.97	23963.11
458.176	23582.19
458.381	23508.46
458.587	22418.94
458.793	22451.71
458.999	21204.5
459.204	22842.87
459.41	21792.26
459.616	20510.24
459.821	20688.41
460.027	20678.17
460.233	20033.06
460.438	19195.44
460.644	19521.07
460.85	18540.09
461.055	18277.95
461.261	18054.72
461.466	16930.39
461.672	16291.42
461.878	17237.58
462.083	16375.39
462.289	15797.86
462.494	15707.75
462.7	15017.58
462.905	14775.92
463.111	15412.84
463.316	15351.4
463.522	15046.26
463.727	15025.78
463.932	15136.37
464.138	14646.9
464.343	14906.99
464.549	14487.16
464.754	15027.82
464.959	14800.5
465.165	14409.34
465.37	14022.27
465.575	13840
465.781	14239.36
465.986	14212.73
466.191	13686.4
466.397	13541
466.602	12822.16
466.807	13383.31
467.012	13567.62
467.218	13184.65
467.423	13135.5
467.628	13119.12
467.833	13766.28
468.038	13219.47
468.244	12783.25
468.449	13397.64
468.654	12986
468.859	12699.28
469.064	12744.34
469.269	12258.97
469.474	12218.01
469.679	12609.17
469.885	12299.93
470.09	12381.85
470.295	12453.53
470.5	12146.33
470.705	12197.53
470.91	11886.24
471.115	11775.65
471.32	11957.92
471.525	11806.37
471.73	11501.22
471.935	11570.85
472.139	10974.89
472.344	11454.12
472.549	11243.18
472.754	11185.83
472.959	10794.67
473.164	10495.67
473.369	10393.27
473.574	10817.2
473.778	10643.12
473.983	10665.65
474.188	10634.93
474.393	10124.99
474.598	10260.15
474.802	10014.4
475.007	10047.16
475.212	10047.16
475.417	9512.64
475.621	9825.98
475.826	9723.58
476.031	9412.29
476.235	9342.66
476.44	9348.81
476.645	9045.71
476.849	9490.12
477.054	9273.03
477.259	9094.86
477.463	9068.23
477.668	8709.84
477.872	8916.69
478.077	8672.98
478.282	8429.27
478.486	8509.14
478.691	8455.89
478.895	8376.02
479.1	8416.98
479.304	8376.02
479.509	8206.04
479.713	8312.53
479.918	8117.98
480.122	7829.21
480.326	7984.86
480.531	8009.44
480.735	7950.04
480.94	7917.28
481.144	8142.55
481.348	7794.4
481.553	7861.98
481.757	7628.51
481.961	7714.53
482.166	7870.17
482.37	7939.8
482.574	7706.34
482.778	7605.99
482.983	7782.11
483.187	7698.14
483.391	7741.15
483.595	7618.27
483.8	7575.27
484.004	7778.01
484.208	8003.29
484.412	7816.93
484.616	7532.26
484.821	7892.7
485.025	7474.92
485.229	7954.14
485.433	7614.18
485.637	7778.01
485.841	7581.41
486.045	7689.95
486.249	7843.55
486.453	7800.54
486.657	7581.41
486.861	7814.88
487.065	7714.53
487.269	7755.49
487.473	7540.45
487.677	7632.61
487.881	7728.86
488.085	7726.82
488.289	7804.64
488.493	7636.7
488.697	7755.49
488.901	7845.6
489.105	7716.58
489.309	7810.78
489.512	7655.14
489.716	7808.73
489.92	7919.32
490.124	7786.21
490.328	7788.25
490.531	7956.19
490.735	8064.73
490.939	7907.04
491.143	7880.41
491.346	7786.21
491.55	8066.78
491.754	8027.87
491.958	8269.53
492.161	8101.59
492.365	8091.35
492.569	7835.36
492.772	7904.99
492.976	8259.29
493.18	8312.53
493.383	8314.58
493.587	8406.74
493.79	8525.52
493.994	8226.52
494.197	8404.69
494.401	8494.8
494.605	8433.36
494.808	8804.05
495.012	8638.16
495.215	8785.62
495.419	8767.18
495.622	8865.49
495.825	8836.81
496.029	8998.6
496.232	9219.78
496.436	9027.28
496.639	9332.42
496.843	9158.35
497.046	9506.5
497.249	9656
497.453	9631.43
497.656	9621.19
497.859	9584.32
498.063	9897.66
498.266	9901.76
498.469	9879.23
498.673	10081.98
498.876	10276.54
499.079	10397.37
499.282	10307.26
499.485	10415.8
499.689	10368.7
499.892	10825.39
500.095	10596.02
500.298	11220.65
500.501	11007.66
500.705	11140.78
500.908	11234.99
501.111	11527.85
501.314	11521.7
501.517	11562.66
501.72	11851.42
501.923	11855.52
502.126	11869.86
502.329	12150.43
502.532	12355.22
502.735	12256.92
502.938	12510.87
503.141	12625.56
503.344	12758.67
503.547	12848.79
503.75	13029.01
503.953	13164.17
504.156	13297.29
504.359	13315.72
504.562	13487.75
504.765	13749.89
504.968	14079.61
505.17	14263.93
505.373	14069.37
505.576	14405.24
505.779	14603.89
505.982	14583.41
506.185	14835.31
506.387	15083.12
506.59	15232.62
506.793	15439.47
506.996	15298.16
507.198	15773.28
507.401	15531.62
507.604	15625.83
507.807	16117.34
508.009	16340.57
508.212	16211.55
508.415	16463.45
508.617	16621.14
508.82	16678.49
509.022	16846.42
509.225	17165.9
509.428	17092.18
509.63	17294.93
509.833	17569.35
510.035	17931.84
510.238	18032.19
510.44	18169.41
510.643	18361.92
510.845	18462.27
511.048	18523.71
511.25	18826.81
511.453	18738.74
511.655	19820.07
511.858	19316.27
512.06	19480.11
512.262	19848.74
512.465	19979.81
512.667	20112.93
512.87	20182.56
513.072	20559.39
513.274	20649.5
513.477	21208.59
513.679	21106.2
513.881	21409.29
514.084	21626.38
514.286	21632.52
514.488	21612.04
514.69	22076.93
514.893	22439.42
515.095	22357.5
515.297	22683.13
515.499	22523.39
515.701	22906.36
515.904	23295.47
516.106	23473.65
516.308	23662.06
516.51	23811.56
516.712	23885.29
516.914	24055.27
517.116	24702.43
517.318	24757.72
517.52	24784.35
517.722	24868.31
517.925	25243.09
518.127	25460.18
518.329	25621.97
518.531	25564.62
518.733	26074.57
518.935	26326.47
519.136	26277.32
519.338	27028.92
519.54	26633.66
519.742	27127.22
519.944	27424.18
520.146	27538.87
520.348	27852.2
520.55	27758
520.752	27815.34
520.954	28519.84
521.155	28415.4
521.357	28626.34
521.559	29060.51
521.761	29343.13
521.963	28964.25
522.164	29212.06
522.366	29877.65
522.568	29709.71
522.77	29873.55
522.971	30279.05
523.173	30174.6
523.375	30420.36
523.576	30449.03
523.778	30311.81
523.98	31008.12
524.181	31255.93
524.383	31096.19
524.584	31546.74
524.786	31503.73
524.988	31305.08
525.189	31774.06
525.391	32154.99
525.592	32404.84
525.794	32480.61
525.995	32394.6
526.197	32329.06
526.398	32730.47
526.6	32947.55
526.801	33002.85
527.003	32877.92
527.204	33269.08
527.406	33520.98
527.607	33414.49
527.808	33586.52
528.01	33043.81
528.211	33416.54
528.412	34258.25
528.614	33865.04
528.815	34051.41
529.016	34403.66
529.218	34149.71
529.419	34258.25
529.62	33944.91
529.822	34299.21
530.023	34331.98
530.224	34284.87
530.425	34350.41
530.626	34174.28
530.828	34141.52
531.029	35081.53
531.23	34383.18
531.431	34753.86
531.632	34547.01
531.833	34811.2
532.035	35018.05
532.236	34461
532.437	34940.22
532.638	34764.1
532.839	35200.32
533.04	35175.74
533.241	34540.87
533.442	35120.45
533.643	34858.31
533.844	35296.57
534.045	35253.56
534.246	34846.02
534.447	35179.84
534.648	35026.24
534.849	35142.97
535.05	34891.07
535.251	34727.24
535.451	35005.76
535.652	35378.49
535.853	34839.87
536.054	35214.65
536.255	35255.61
536.456	34989.38
536.657	35677.49
536.857	35083.58
537.058	34874.69
537.259	35487.03
537.46	35159.36
537.66	35087.68
537.861	35292.47
538.062	35044.67
538.263	35097.92
538.463	35038.53
538.664	35149.12
538.865	35067.2
539.065	35196.22
539.266	34987.33
539.466	35343.67
539.667	34561.35
539.868	35122.49
540.068	34786.63
540.269	34692.42
540.469	35358.01
540.67	35185.98
540.87	35142.97
541.071	34968.9
541.271	34776.39
541.472	34956.61
541.672	34964.8
541.873	34682.18
542.073	34655.56
542.274	34760
542.474	35095.87
542.675	34405.7
542.875	35147.07
543.075	34710.85
543.276	34538.82
543.476	35077.44
543.676	34387.27
543.877	34915.65
544.077	35126.59
544.277	34680.13
544.478	34803.01
544.678	34516.29
544.878	34602.31
545.078	34899.26
545.279	34676.04
545.479	34706.76
545.679	34831.68
545.879	34659.65
546.079	34624.84
546.28	34717
546.48	34448.71
546.68	34614.6
546.88	34843.97
547.08	34622.79
547.28	34352.46
547.48	34366.79
547.68	34833.73
547.88	34481.48
548.081	34635.08
548.281	34510.15
548.481	34600.26
548.681	34987.33
548.881	34342.22
549.081	34649.41
549.28	34510.15
549.48	34901.31
549.68	34385.22
549.88	34968.9
550.08	34540.87
550.28	34534.73
550.48	34278.73
550.68	34676.04
550.88	34377.03
551.08	34358.6
551.279	34477.38
551.479	34219.34
551.679	34766.15
551.879	34114.89
552.079	34456.9
552.278	34209.1
552.478	34032.97
552.678	34331.98
552.878	34278.73
553.077	34315.59
553.277	33531.22
553.477	34223.44
553.676	34006.35
553.876	34678.08
554.076	34035.02
554.275	34006.35
554.475	33918.29
554.674	34239.82
554.874	34174.28
555.074	33672.53
555.273	34379.08
555.473	34366.79
555.672	33926.48
555.872	33572.18
556.071	34190.67
556.271	34145.61
556.47	33959.25
556.67	33711.44
556.869	33787.22
557.068	33596.76
557.268	33486.17
557.467	33727.83
557.667	33336.66
557.866	33633.62
558.065	33742.16
558.265	33398.1
558.464	33570.13
558.663	33795.41
558.863	33062.24
559.062	33619.28
559.261	32939.36
559.461	33619.28
559.66	32916.83
559.859	33176.92
560.058	33049.95
560.258	33189.21
560.457	32904.54
560.656	33062.24
560.855	32830.82
561.054	32961.89
561.253	32443.75
561.453	32986.46
561.652	32800.1
561.851	32841.06
562.05	32480.61
562.249	32279.91
562.448	32642.4
562.647	32767.33
562.846	32396.65
563.045	32718.18
563.244	32271.72
563.443	32695.65
563.642	32034.16
563.841	32245.1
564.04	31911.28
564.239	32269.67
564.438	31853.94
564.637	32138.6
564.836	32159.08
565.035	31585.65
565.234	31894.89
565.432	31694.19
565.631	31354.23
565.83	31712.63
566.029	31415.67
566.228	31497.59
566.427	31722.87
566.625	31128.95
566.824	31100.28
567.023	31249.78
567.222	30870.91
567.42	31204.73
567.619	31182.2
567.818	31139.19
568.016	30795.14
568.215	31450.49
568.414	30817.66
568.612	30868.86
568.811	30506.37
569.01	30475.65
569.208	30475.65
569.407	30588.29
569.605	30641.54
569.804	30598.53
570.002	30332.29
570.201	30653.83
570.4	30291.34
570.598	30233.99
570.797	29562.26
570.995	29959.56
571.193	29701.52
571.392	30131.59
571.59	30006.67
571.789	29687.18
571.987	29584.79
572.186	29345.17
572.384	29547.92
572.582	29609.36
572.781	29343.13
572.979	29064.6
573.177	29093.27
573.376	29070.75
573.574	29201.82
573.772	29025.69
573.971	29212.06
574.169	28712.35
574.367	28489.12
574.565	29044.12
574.763	28728.73
574.962	28685.73
575.16	28263.85
575.358	28491.17
575.556	28179.88
575.754	28673.44
575.952	28177.83
576.151	28536.23
576.349	28057
576.547	28050.86
576.745	28274.09
576.943	28071.34
577.141	27901.36
577.339	27719.09
577.537	27467.19
577.735	27436.47
577.933	27577.78
578.131	27489.71
578.329	27227.57
578.527	27110.84
578.725	27198.9
578.923	27254.2
579.121	27028.92
579.319	27368.88
579.516	27440.56
579.714	27209.14
579.912	27149.75
580.11	26975.67
580.308	26609.09
580.506	26803.64
580.704	25990.6
580.901	26615.23
581.099	26645.95
581.297	26142.15
581.495	26328.52
581.692	26363.33
581.89	26062.28
582.088	26342.85
582.285	25978.31
582.483	25894.35
582.681	26217.93
582.878	25888.2
583.076	25619.92
583.274	25918.92
583.471	25601.49
583.669	26000.84
583.866	25607.63
584.064	25658.83
584.262	25322.96
584.459	25380.31
584.657	25415.12
584.854	25499.09
585.052	24860.12
585.249	25294.29
585.447	25228.76
585.644	24870.36
585.841	24802.78
586.039	25312.72
586.236	24882.65
586.434	24628.7
586.631	24876.51
586.828	24659.42
587.026	24384.99
587.223	24557.02
587.42	24309.22
587.618	24206.82
587.815	24384.99
588.012	24106.47
588.21	24167.91
588.407	24526.3
588.604	23928.3
588.801	23625.2
588.999	24002.02
589.196	23891.43
589.393	23789.03
589.59	23965.16
589.787	23533.04
589.984	23336.43
590.182	23313.91
590.379	23629.29
590.576	23418.35
590.773	23133.68
590.97	23027.19
591.167	23340.53
591.364	23023.09
591.561	23324.15
591.758	22570.49
591.955	22908.41
592.152	22892.02
592.349	22519.29
592.546	23008.76
592.743	23033.33
592.94	22304.26
593.137	22304.26
593.334	22793.72
593.531	22076.93
593.727	22273.54
593.924	22289.92
594.121	22146.56
594.318	22244.87
594.515	21992.97
594.712	22283.78
594.908	21974.53
595.105	22089.22
595.302	21628.43
595.499	21935.62
595.696	21675.53
595.892	21415.44
596.089	21456.4
596.286	21689.87
596.482	21306.9
596.679	21270.03
596.876	21540.36
597.072	21335.57
597.269	21354
597.466	20792.86
597.662	21175.83
597.859	21016.08
598.055	21235.22
598.252	20842.01
598.448	20772.38
598.645	20715.03
598.841	20540.96
599.038	20440.61
599.234	20737.56
599.431	20473.37
599.627	20395.55
599.824	20397.6
600.02	20192.8
600.217	20280.86
600.413	20063.78
600.609	20246.05
600.806	20133.41
601.002	20088.35
601.198	20151.84
601.395	20127.27
601.591	19891.75
601.787	19899.94
601.984	19775.02
602.18	19777.06
602.376	19775.02
602.572	19199.54
602.769	19402.29
602.965	19447.34
603.161	19445.29
603.357	19099.19
603.553	18998.84
603.75	19056.18
603.946	19019.32
604.142	18951.73
604.338	18773.56
604.534	18880.05
604.73	18603.58
604.926	18683.45
605.122	18902.58
605.318	18564.67
605.514	18748.98
605.71	18341.44
605.906	18558.52
606.102	18765.37
606.298	18439.74
606.494	18501.18
606.69	18288.19
606.886	18257.47
607.082	18040.39
607.278	18519.61
607.474	18083.39
607.67	18054.72
607.866	17978.95
608.062	18241.09
608.257	17954.37
608.453	17765.96
608.649	17798.73
608.845	18122.3
609.041	17544.78
609.236	18007.62
609.432	17573.45
609.628	17958.47
609.824	17700.42
610.019	17579.59
610.215	17495.63
610.411	17790.53
610.606	17530.44
610.802	17487.43
610.998	17208.91
611.193	17378.89
611.389	17620.55
611.584	17219.15
611.78	17067.6
611.976	17559.11
612.171	17391.18
612.367	17290.83
612.562	17118.8
612.758	16957.01
612.953	17118.8
613.149	16989.78
613.344	16965.2
613.539	17235.53
613.735	17036.88
613.93	17038.93
614.126	17172.05
614.321	16903.76
614.517	16969.3
614.712	16760.41
614.907	16864.85
615.103	16772.69
615.298	16526.94
615.493	16864.85
615.688	16619.1
615.884	16877.14
616.079	16193.12
616.274	16580.18
616.47	16551.51
616.665	16479.83
616.86	16324.19
617.055	16395.87
617.25	16471.64
617.445	16332.38
617.641	15828.58
617.836	16557.66
618.031	15652.45
618.226	16074.34
618.421	16236.13
618.616	16125.54
618.811	15924.83
619.006	15969.89
619.201	15797.86
619.396	15849.06
619.591	15783.52
619.786	15699.56
619.981	15410.79
620.176	15777.38
620.371	15257.2
620.566	15550.06
620.761	15650.41
620.956	15566.44
621.151	15056.5
621.346	15156.85
621.541	15023.73
621.735	14745.2
621.93	14896.75
622.125	14925.43
622.32	14599.8
622.515	14726.77
622.709	14732.92
622.904	14509.69
623.099	14329.47
623.294	14540.41
623.488	14153.34
623.683	14298.75
623.878	14134.91
624.072	14222.97
624.267	13930.11
624.462	13942.4
624.656	13930.11
624.851	13897.35
625.046	13729.41
625.24	13635.21
625.435	13463.18
625.629	13452.94
625.824	13594.25
626.018	13545.09
626.213	13004.43
626.407	13244.04
626.602	13102.73
626.796	13147.79
626.991	13127.31
627.185	12768.91
627.38	12992.14
627.574	12832.4
627.768	12721.81
627.963	12623.51
628.157	12439.19
628.352	12451.48
628.546	12394.14
628.74	12498.58
628.935	12160.67
629.129	12287.64
629.323	12140.19
629.517	12103.32
629.712	12095.13
629.906	12009.12
630.1	11957.92
630.294	12039.84
630.489	11697.83
630.683	11896.48
630.877	11734.69
631.071	11689.63
631.265	11441.83
631.459	11521.7
631.653	11431.59
631.848	11325.1
632.042	11300.52
632.236	11366.06
632.43	11302.57
632.624	11304.62
632.818	11079.34
633.012	11079.34
633.206	11118.25
633.4	10907.31
633.594	10784.43
633.788	10731.19
633.982	10780.34
634.176	10874.54
634.369	10686.13
634.563	10630.84
634.757	10514.1
634.951	10677.94
635.145	10391.22
635.339	10387.13
635.533	10309.3
635.726	10456.76
635.92	10297.02
636.114	10174.14
636.308	10118.84
636.501	10151.61
636.695	10284.73
636.889	10194.62
637.083	9944.77
637.276	9891.52
637.47	9883.33
637.664	9993.92
637.857	9619.14
638.051	9604.8
638.244	9649.86
638.438	9774.78
638.632	9418.44
638.825	9328.33
639.019	9301.7
639.212	9209.54
639.406	9502.4
639.599	9273.03
639.793	9383.62
639.986	9072.33
640.18	9146.06
640.373	8994.51
640.567	8875.73
640.76	8920.78
640.954	8918.73
641.147	8826.57
641.34	8986.32
641.534	9010.89
641.727	8820.43
641.92	8869.58
642.114	8564.43
642.307	8642.26
642.5	8498.9
642.694	8482.52
642.887	8380.12
643.08	8591.06
643.273	8490.71
643.467	8277.72
643.66	8287.96
643.853	8220.38
644.046	8040.15
644.239	8181.46
644.432	8257.24
644.626	8029.91
644.819	8138.46
645.012	8097.5
645.205	8015.58
645.398	7935.71
645.591	7806.69
645.784	7825.12
645.977	7681.76
646.17	7700.19
646.363	7763.68
646.556	7630.56
646.749	7722.72
646.942	7704.29
647.135	7655.14
647.328	7675.62
647.521	7466.72
647.714	7458.53
647.907	7409.38
648.099	7458.53
648.292	7352.04
648.485	7452.39
648.678	7231.21
648.871	7161.58
649.064	7034.6
649.256	7165.67
649.449	7171.82
649.642	6950.64
649.835	6944.49
650.027	6954.73
650.22	6962.92
650.413	6852.33
650.605	6676.21
650.798	6733.55
650.991	6543.09
651.183	6694.64
651.376	6790.89
651.568	6807.28
651.761	6694.64
651.954	6522.61
652.146	6565.62
652.339	6479.6
652.531	6526.71
652.724	6549.23
652.916	6360.82
653.109	6295.29
653.301	6387.44
653.494	6319.86
653.686	6115.06
653.879	6313.72
654.071	6420.21
654.263	6139.64
654.456	6280.95
654.648	6072.06
654.84	6070.01
655.033	6274.81
655.225	6008.57
655.417	5977.85
655.61	5918.46
655.802	5994.23
655.994	5963.51
656.186	5859.07
656.379	5848.83
656.571	5945.08
656.763	5797.63
656.955	5664.51
657.148	5777.15
657.34	5783.29
657.532	5715.71
657.724	5584.64
657.916	5609.22
658.108	5668.61
658.3	5488.39
658.492	5631.74
658.684	5375.75
658.876	5474.05
659.068	5443.33
659.26	5285.64
659.452	5320.45
659.644	5310.21
659.836	5236.49
660.028	5293.83
660.22	5035.78
660.412	5136.13
660.604	5222.15
660.796	5107.46
660.988	5226.25
661.18	5072.65
661.372	5062.41
661.563	4984.59
661.755	5060.36
661.947	5213.96
662.139	4880.14
662.331	4828.94
662.522	4931.34
662.714	4988.68
662.906	4820.75
663.097	4808.46
663.289	4779.79
663.481	4781.84
663.673	4757.26
663.864	4681.49
664.056	4706.06
664.247	4667.15
664.439	4636.43
664.631	4730.64
664.822	4595.47
665.014	4568.85
665.205	4552.46
665.397	4472.59
665.588	4683.53
665.78	4476.69
665.971	4675.34
666.163	4529.94
666.354	4574.99
666.546	4364.05
666.737	4321.04
666.929	4386.58
667.12	4179.73
667.311	4448.02
667.503	4271.89
667.694	4310.8
667.885	4333.33
668.077	4290.32
668.268	4165.4
668.459	4173.59
668.651	4149.01
668.842	4118.29
669.033	4058.9
669.224	4099.86
669.416	4308.76
669.607	4079.38
669.798	4157.21
669.989	4241.17
670.18	4075.29
670.371	3972.89
670.563	3882.78
670.754	4056.86
670.945	4011.8
671.136	3960.6
671.327	3968.79
671.518	4013.85
671.709	3921.69
671.9	3936.03
672.091	3972.89
672.282	3903.26
672.473	3845.91
672.664	3866.39
672.855	3768.09
673.046	3870.49
673.237	3925.79
673.428	3813.15
673.619	3854.11
673.809	3772.19
674	3747.61
674.191	3761.95
674.382	3706.65
674.573	3645.21
674.764	3602.21
674.954	3698.46
675.145	3557.15
675.336	3575.58
675.527	3706.65
675.717	3559.2
675.908	3594.01
676.099	3604.25
676.289	3497.76
676.48	3446.56
676.671	3436.32
676.861	3657.5
677.052	3438.37
677.243	3407.65
677.433	3456.8
677.624	3454.75
677.814	3401.51
678.005	3403.55
678.195	3522.34
678.386	3403.55
678.576	3434.27
678.767	3432.22
678.957	3346.21
679.148	3462.94
679.338	3350.31
679.529	3346.21
679.719	3262.24
679.909	3417.89
680.1	3370.79
680.29	3303.2
680.481	3395.36
680.671	3303.2
680.861	3348.26
681.052	3313.44
681.242	3243.81
681.432	3266.34
681.622	3133.22
681.813	3415.84
682.003	3256.1
682.193	3102.5
682.383	3215.14
682.573	3069.73
682.764	3051.3
682.954	3239.72
683.144	3198.76
683.334	3100.45
683.524	3165.99
683.714	3165.99
683.904	3141.41
684.094	3165.99
684.284	3118.89
684.474	3125.03
684.664	3125.03
684.854	3088.17
685.044	3075.88
685.234	3014.44
685.424	3102.5
685.614	3034.92
685.804	3032.87
685.994	3120.93
686.184	3100.45
686.374	3034.92
686.564	2938.66
686.753	3043.11
686.943	2946.86
687.133	3061.54
687.323	2967.34
687.513	2940.71
687.702	2955.05
687.892	2895.66
688.082	2903.85
688.272	2817.83
688.461	2959.14
688.651	2912.04
688.841	2854.7
689.03	2772.78
689.22	2807.59
689.41	2903.85
689.599	2889.51
689.789	2764.59
689.979	2828.07
690.168	2844.46
690.358	2766.64
690.547	2838.31
690.737	2723.63
690.926	2584.37
691.116	2719.53
691.305	2850.6
691.495	2690.86
691.684	2654
691.874	2676.52
692.063	2627.37
692.252	2680.62
692.442	2631.47
692.631	2502.45
692.82	2654
693.01	2551.6
693.199	2559.79
693.388	2430.77
693.578	2510.64
693.767	2537.26
693.956	2527.02
694.146	2543.41
694.335	2555.69
694.524	2463.54
694.713	2332.47
694.902	2447.15
695.092	2488.11
695.281	2459.44
695.47	2326.32
695.659	2477.87
695.848	2350.9
696.037	2334.51
696.226	2408.24
696.415	2367.28
696.604	2381.62
696.793	2400.05
696.982	2363.19
697.171	2350.9
697.36	2400.05
697.549	2365.23
697.738	2305.84
697.927	2359.09
698.116	2330.42
698.305	2346.8
698.494	2305.84
698.683	2234.16
698.872	2289.46
699.061	2363.19
699.25	2336.56
699.438	2305.84
699.627	2207.54
699.816	2211.64
700.005	2232.12
700.193	2232.12
700.382	2273.07
700.571	2281.27
700.76	2182.96
700.948	2236.21
701.137	2217.78
701.326	2283.31
701.514	2273.07
701.703	2322.23
701.892	2223.92
702.08	2346.8
702.269	2266.93
702.457	2213.68
702.646	2119.48
702.834	2240.31
703.023	2182.96
703.212	2256.69
703.4	2094.9
703.589	2185.01
703.777	2174.77
703.965	2146.1
704.154	2236.21
704.342	2203.44
704.531	2135.86
704.719	2174.77
704.907	2199.35
705.096	2230.07
705.284	2174.77
705.472	2117.43
705.661	2051.89
705.849	2170.68
706.037	2219.83
706.226	2158.39
706.414	2084.66
706.602	2176.82
706.79	2291.51
706.979	2053.94
707.167	2248.5
707.355	2047.8
707.543	2133.81
707.731	2146.1
707.919	2125.62
708.107	2219.83
708.296	1994.55
708.484	2094.9
708.672	2152.24
708.86	2101.05
709.048	2334.51
709.236	2180.92
709.424	2129.72
709.612	2129.72
709.8	2135.86
709.988	2166.58
710.176	2105.14
710.364	2160.44
710.551	2125.62
710.739	2109.24
710.927	2121.52
711.115	2115.38
711.303	2146.1
711.491	2219.83
711.679	2125.62
711.866	2152.24
712.054	2137.91
712.242	2031.41
712.43	2225.97
712.617	2103.09
712.805	2037.56
712.993	1961.78
713.181	2076.47
713.368	2191.16
713.556	2053.94
713.744	2084.66
713.931	2182.96
714.119	2125.62
714.306	2193.2
714.494	2012.98
714.682	2047.8
714.869	2049.85
715.057	2191.16
715.244	2023.22
715.432	2096.95
715.619	2154.29
715.807	2084.66
715.994	2150.2
716.182	2115.38
716.369	2217.78
716.556	2111.29
716.744	2055.99
716.931	2105.14
717.119	2182.96
717.306	2076.47
717.493	2172.72
717.681	2168.63
717.868	2015.03
718.055	1976.12
718.242	2027.32
718.43	2068.28
718.617	2055.99
718.804	2109.24
718.991	2096.95
719.179	2158.39
719.366	2043.7
719.553	2094.9
719.74	2121.52
719.927	2043.7
720.114	2068.28
720.301	2015.03
720.488	2088.76
720.676	2203.44
720.863	2135.86
721.05	2121.52
721.237	2101.05
721.424	2109.24
721.611	2158.39
721.798	2103.09
721.985	2029.37
722.172	2127.67
722.358	2035.51
722.545	2133.81
722.732	2117.43
722.919	2113.33
723.106	2064.18
723.293	2045.75
723.48	2135.86
723.667	1969.98
723.853	2121.52
724.04	2172.72
724.227	2135.86
724.414	2105.14
724.6	2066.23
724.787	2146.1
724.974	2164.53
725.161	2111.29
725.347	1959.74
725.534	2064.18
725.72	2070.33
725.907	2072.37
726.094	2043.7
726.28	2219.83
726.467	2160.44
726.653	2053.94
726.84	2076.47
727.027	2199.35
727.213	2084.66
727.4	2293.55
727.586	2340.66
727.773	2150.2
727.959	2096.95
728.145	2139.96
728.332	2123.57
728.518	2232.12
728.705	2240.31
728.891	2144.05
729.077	2078.52
729.264	2113.33
729.45	2015.03
729.636	2160.44
729.823	2055.99
730.009	2139.96
730.195	2084.66
730.382	2084.66
730.568	2086.71
730.754	2025.27
730.94	2072.37
731.126	2127.67
731.313	2115.38
731.499	2113.33
731.685	2174.77
731.871	2166.58
732.057	2086.71
732.243	2137.91
732.429	2258.74
732.615	2133.81
732.801	2137.91
732.987	2119.48
733.173	2033.46
733.359	1994.55
733.545	2064.18
733.731	2051.89
733.917	2158.39
734.103	2170.68
734.289	2125.62
734.475	2101.05
734.661	1996.6
734.847	2101.05
735.033	2025.27
735.219	2146.1
735.404	2088.76
735.59	2152.24
735.776	2066.23
735.962	2191.16
736.148	2142
736.333	2142
736.519	2137.91
736.705	2053.94
736.89	2121.52
737.076	2150.2
737.262	1980.22
737.447	1994.55
737.633	2047.8
737.819	2068.28
738.004	2076.47
738.19	2047.8
738.375	2043.7
738.561	2125.62
738.747	2037.56
738.932	2076.47
739.118	2060.09
739.303	1990.45
739.489	2053.94
739.674	2008.89
739.859	1963.83
740.045	1910.58
740.23	2064.18
740.416	1945.4
740.601	2000.69
740.786	1947.45
740.972	1988.41
741.157	2021.17
741.342	1949.5
741.528	1980.22
741.713	1920.82
741.898	1988.41
742.084	1898.3
742.269	1955.64
742.454	1869.62
742.639	1972.02
742.824	1978.17
743.01	2006.84
743.195	1914.68
743.38	1988.41
743.565	1863.48
743.75	2037.56
743.935	1961.78
744.12	1945.4
744.305	1744.7
744.49	1853.24
744.675	1847.1
744.86	1843
745.045	1808.19
745.23	1861.43
745.415	1810.23
745.6	1865.53
745.785	1670.97
745.97	1871.67
746.155	1756.99
746.34	1881.91
746.525	1761.08
746.71	1806.14
746.895	1724.22
747.079	1802.04
747.264	1761.08
747.449	1740.6
747.634	1732.41
747.819	1826.62
748.003	1728.31
748.188	1683.26
748.373	1720.12
748.557	1609.53
748.742	1707.84
748.927	1619.77
749.111	1756.99
749.296	1724.22
749.481	1652.54
749.665	1609.53
749.85	1636.16
750.034	1621.82
750.219	1560.38
750.404	1697.6
750.588	1568.57
750.773	1562.43
750.957	1513.28
751.141	1529.66
751.326	1453.89
751.51	1496.89
751.695	1498.94
751.879	1587.01
752.064	1513.28
752.248	1439.55
752.432	1505.09
752.617	1478.46
752.801	1488.7
752.985	1376.06
753.17	1464.13
753.354	1517.37
753.538	1404.74
753.722	1396.54
753.907	1347.39
754.091	1388.35
754.275	1369.92
754.459	1371.97
754.643	1388.35
754.828	1376.06
755.012	1374.02
755.196	1292.1
755.38	1242.95
755.564	1322.82
755.748	1404.74
755.932	1331.01
756.116	1408.83
756.3	1224.51
756.484	1169.22
756.668	1288
756.852	1265.47
757.036	1167.17
757.22	1253.19
757.404	1228.61
757.588	1216.32
757.772	1333.06
757.956	1232.71
758.14	1218.37
758.323	1228.61
758.507	1171.27
758.691	1144.64
758.875	1185.6
759.059	1187.65
759.242	1158.98
759.426	1214.27
759.61	1169.22
759.794	1158.98
759.977	1087.3
760.161	1230.66
760.345	1161.03
760.528	1085.25
760.712	1161.03
760.895	1120.07
761.079	1070.92
761.263	1011.53
761.446	1138.5
761.63	1077.06
761.813	1066.82
761.997	1029.96
762.18	997.19
762.364	1109.83
762.547	1029.96
762.731	1130.31
762.914	1066.82
763.098	1052.49
763.281	1083.2
763.464	925.51
763.648	890.7
763.831	1138.5
764.015	962.37
764.198	1042.25
764.381	978.76
764.564	921.42
764.748	1021.77
764.931	948.04
765.114	995.14
765.297	974.66
765.481	937.8
765.664	984.9
765.847	935.75
766.03	1089.35
766.213	898.89
766.397	986.95
766.58	1046.34
766.763	945.99
766.946	995.14
767.129	1019.72
767.312	950.09
767.495	882.5
767.678	921.42
767.861	941.89
768.044	907.08
768.227	905.03
768.41	970.57
768.593	921.42
768.776	880.46
768.959	907.08
769.142	864.07
769.324	880.46
769.507	927.56
769.69	794.44
769.873	896.84
770.056	1011.53
770.239	933.7
770.421	835.4
770.604	880.46
770.787	784.2
770.97	763.72
771.152	794.44
771.335	917.32
771.518	890.7
771.7	915.27
771.883	833.35
772.066	890.7
772.248	763.72
772.431	839.5
772.613	896.84
772.796	827.21
772.978	816.97
773.161	819.02
773.343	823.11
773.526	751.43
773.708	819.02
773.891	640.84
774.073	878.41
774.256	839.5
774.438	806.73
774.621	767.82
774.803	802.63
774.985	683.85
775.168	747.34
775.35	782.15
775.532	753.48
775.715	743.24
775.897	708.43
776.079	751.43
776.261	778.06
776.444	646.99
776.626	651.08
776.808	669.52
776.99	601.93
777.173	704.33
777.355	706.38
777.537	722.76
777.719	718.67
777.901	665.42
778.083	651.08
778.265	640.84
778.447	634.7
778.629	694.09
778.811	675.66
778.993	659.28
779.175	683.85
779.357	581.45
779.539	577.36
779.721	606.03
779.903	618.32
780.085	552.78
780.267	614.22
780.449	563.02
780.631	614.22
780.812	642.89
780.994	624.46
781.176	554.83
781.358	520.01
781.54	520.01
781.721	655.18
781.903	530.25
782.085	589.64
782.267	544.59
782.448	442.19
782.63	503.63
782.812	552.78
782.993	577.36
783.175	495.44
783.357	450.38
783.538	556.88
783.72	454.48
783.901	474.96
784.083	458.57
784.264	530.25
784.446	489.29
784.627	569.16
784.809	524.11
784.99	528.21
785.172	560.97
785.353	454.48
785.535	470.86
785.716	491.34
785.897	446.29
786.079	456.53
786.26	446.29
786.441	448.33
786.623	388.94
786.804	397.14
786.985	413.52
787.167	376.66
787.348	429.9
787.529	464.72
787.71	448.33
787.891	382.8
788.073	397.14
788.254	315.22
788.435	485.2
788.616	438.09
788.797	403.28
788.978	390.99
789.159	425.81
789.34	413.52
789.522	397.14
789.703	413.52
789.884	421.71
790.065	413.52
790.246	421.71
790.427	333.65
790.607	315.22
790.788	448.33
790.969	302.93
791.15	397.14
791.331	329.55
791.512	350.03
791.693	339.79
791.874	251.73
792.054	317.26
792.235	417.61
792.416	405.33
792.597	315.22
792.778	350.03
792.958	300.88
793.139	372.56
793.32	307.02
793.5	307.02
793.681	296.78
793.862	323.41
794.042	282.45
794.223	257.87
794.404	268.11
794.584	259.92
794.765	300.88
794.945	319.31
795.126	335.7
795.306	372.56
795.487	255.83
795.667	280.4
795.848	325.46
796.028	327.5
796.209	350.03
796.389	313.17
796.57	292.69
796.75	257.87
796.93	253.78
797.111	335.7
797.291	290.64
797.471	290.64
797.652	309.07
797.832	249.68
798.012	347.98
798.192	290.64
798.373	280.4
798.553	204.63
798.733	288.59
798.913	253.78
799.093	245.59
799.274	270.16
799.454	282.45
799.634	266.07
799.814	241.49
799.994	261.97
800.174	257.87
800.354	208.72
800.534	229.2
800.714	188.24
800.894	202.58
801.074	216.91
801.254	225.11
801.434	249.68
801.614	221.01
801.794	292.69
801.974	907.08
802.154	216.91
802.334	178
802.514	190.29
802.693	200.53
802.873	243.54
803.053	315.22
803.233	216.91
803.413	186.19
803.592	147.28
803.772	180.05
803.952	143.19
804.131	192.34
804.311	233.3
804.491	212.82
804.67	208.72
804.85	184.15
805.03	218.96
805.209	241.49
805.389	198.48
805.568	137.04
805.748	233.3
805.928	155.47
806.107	180.05
806.287	278.35
806.466	200.53
806.646	151.38
806.825	218.96
807.004	192.34
807.184	227.15
807.363	163.67
807.543	184.15
807.722	198.48
807.901	257.87
808.081	196.43
808.26	188.24
808.439	165.71
808.619	249.68
808.798	159.57
808.977	192.34
809.156	249.68
809.336	147.28
809.515	241.49
809.694	106.32
809.873	122.71
810.052	151.38
810.231	122.71
810.411	114.52
810.59	192.34
810.769	135
810.948	143.19
811.127	161.62
811.306	130.9
811.485	137.04
811.664	173.91
811.843	135
812.022	210.77
812.201	151.38
812.38	202.58
812.559	192.34
812.737	137.04
812.916	135
813.095	151.38
813.274	137.04
813.453	135
813.632	96.08
813.811	143.19
813.989	71.51
814.168	175.95
814.347	22.36
814.526	126.8
814.704	167.76
814.883	169.81
815.062	73.56
815.24	118.61
815.419	139.09
815.598	182.1
815.776	143.19
815.955	216.91
816.133	73.56
816.312	149.33
816.49	145.24
816.669	178
816.847	204.63
817.026	206.67
817.204	159.57
817.383	114.52
817.561	83.8
817.74	169.81
817.918	51.03
818.097	147.28
818.275	114.52
818.453	159.57
818.632	102.23
818.81	128.85
818.988	106.32
819.167	153.43
819.345	110.42
819.523	79.7
819.701	46.93
819.879	112.47
820.058	110.42
820.236	169.81
820.414	94.04
820.592	55.12
820.77	126.8
820.948	77.65
821.127	30.55
821.305	145.24
821.483	114.52
821.661	153.43
821.839	194.39
822.017	135
822.195	167.76
822.373	96.08
822.551	120.66
822.729	73.56
822.907	87.89
823.085	169.81
823.262	94.04
823.44	126.8
823.618	98.13
823.796	71.51
823.974	32.6
824.152	85.84
824.329	87.89
824.507	55.12
824.685	184.15
824.863	77.65
825.04	77.65
825.218	102.23
825.396	233.3
825.574	81.75
825.751	122.71
825.929	143.19
826.107	69.46
826.284	118.61
826.462	114.52
826.639	161.62
826.817	71.51
826.994	139.09
827.172	120.66
827.349	114.52
827.527	89.94
827.704	100.18
827.882	69.46
828.059	130.9
828.237	36.69
828.414	53.08
828.591	63.32
828.769	130.9
828.946	69.46
829.124	53.08
829.301	192.34
829.478	53.08
829.655	73.56
829.833	53.08
830.01	57.17
830.187	106.32
830.364	112.47
830.542	116.56
830.719	108.37
830.896	130.9
831.073	153.43
831.25	94.04
831.427	85.84
831.604	132.95
831.782	34.64
831.959	57.17
832.136	120.66
832.313	108.37
832.49	48.98
832.667	102.23
832.844	83.8
833.021	145.24
833.198	18.26
833.374	-0.17
833.551	44.88
833.728	53.08
833.905	65.36
834.082	36.69
834.259	167.76
834.436	20.31
834.612	3.93
834.789	118.61
834.966	30.55
835.143	106.32
835.319	28.5
835.496	22.36
835.673	42.84
835.85	169.81
836.026	81.75
836.203	122.71
836.38	87.89
836.556	94.04
836.733	57.17
836.909	71.51
837.086	110.42
837.262	53.08
837.439	3.93
837.616	55.12
837.792	12.12
837.968	67.41
838.145	69.46
838.321	20.31
838.498	24.4
838.674	98.13
838.851	69.46
839.027	69.46
839.203	46.93
839.38	65.36
839.556	61.27
839.732	143.19
839.909	48.98
840.085	69.46
840.261	44.88
840.437	91.99
840.614	-34.99
840.79	118.61
840.966	46.93
841.142	55.12
841.318	-6.31
841.494	51.03
841.671	-12.46
841.847	-2.22
842.023	-22.7
842.199	26.45
842.375	36.69
842.551	-39.08
842.727	61.27
842.903	126.8
843.079	24.4
843.255	75.6
843.431	5.97
843.607	79.7
843.783	-8.36
843.959	46.93
844.134	85.84
844.31	104.28
844.486	75.6
844.662	-32.94
844.838	42.84
845.013	102.23
845.189	77.65
845.365	24.4
845.541	40.79
845.716	12.12
845.892	79.7
846.068	96.08
846.244	20.31
846.419	63.32
846.595	48.98
846.77	18.26
846.946	-0.17
847.122	79.7
847.297	-18.6
847.473	110.42
847.648	-45.23
847.824	57.17
847.999	-51.37
848.175	44.88
848.35	48.98
848.526	77.65
848.701	-10.41
848.876	71.51
849.052	48.98
849.227	51.03
849.403	71.51
849.578	32.6
849.753	110.42
849.929	57.17
850.104	28.5
850.279	36.69
850.454	59.22
850.63	28.5
850.805	5.97
850.98	79.7
851.155	-8.36
851.33	46.93
851.505	20.31
851.681	79.7
851.856	44.88
852.031	102.23
852.206	96.08
852.381	20.31
852.556	36.69
852.731	36.69
852.906	14.17
853.081	48.98
853.256	28.5
853.431	14.17
853.606	77.65
853.781	3.93
853.956	-32.94
854.131	48.98
854.305	-4.27
854.48	-34.99
854.655	-43.18
854.83	-2.22
855.005	79.7
855.18	61.27
855.354	32.6
855.529	51.03
855.704	-2.22
855.879	96.08
856.053	-37.03
856.228	8.02
856.403	30.55
856.577	36.69
856.752	3.93
856.926	-2.22
857.101	114.52
857.276	46.93
857.45	94.04
857.625	44.88
857.799	3.93
857.974	28.5
858.148	26.45
858.323	48.98
858.497	20.31
858.672	20.31
858.846	5.97
859.02	12.12
859.195	-20.65
859.369	-2.22
859.543	24.4
859.718	36.69
859.892	-65.71
860.066	53.08
860.241	8.02
860.415	53.08
860.589	20.31
860.763	32.6
860.938	-10.41
861.112	18.26
861.286	22.36
861.46	-12.46
861.634	-65.71
861.808	104.28
861.982	-53.42
862.157	-8.36
862.331	-57.51
862.505	-61.61
862.679	-8.36
862.853	-2.22
863.027	-14.51
863.201	44.88
863.375	-41.13
863.549	53.08
863.722	46.93
863.896	24.4
864.07	-22.7
864.244	-8.36
864.418	20.31
864.592	-43.18
864.766	36.69
864.939	-12.46
865.113	5.97
865.287	16.21
865.461	48.98
865.634	22.36
865.808	18.26
865.982	-8.36
866.156	18.26
866.329	-18.6
866.503	55.12
866.676	36.69
866.85	-16.55
867.024	36.69
867.197	77.65
867.371	40.79
867.544	55.12
867.718	-12.46
867.891	30.55
868.065	18.26
868.238	22.36
868.412	22.36
868.585	-16.55
868.759	36.69
868.932	32.6
869.105	-41.13
869.279	5.97
869.452	36.69
869.625	1.88
869.799	8.02
869.972	28.5
870.145	22.36
870.319	14.17
870.492	24.4
870.665	-0.17
870.838	63.32
871.011	-20.65
871.185	38.74
871.358	1.88
871.531	-28.84
871.704	-67.75
871.877	53.08
872.05	22.36
872.223	-45.23
872.396	55.12
872.569	40.79
872.742	-118.95
872.915	89.94
873.088	-2.22
873.261	-57.51
873.434	14.17
873.607	-16.55
873.78	98.13
873.953	-32.94
874.126	-45.23
874.299	3.93
874.471	-20.65
874.644	-4.27
874.817	32.6
874.99	71.51
875.163	-4.27
875.335	18.26
875.508	14.17
875.681	61.27
875.853	-12.46
876.026	32.6
876.199	30.55
876.371	-18.6
876.544	75.6
876.717	14.17
876.889	16.21
877.062	46.93
877.234	-84.14
877.407	8.02
877.579	61.27
877.752	61.27
877.924	73.56
878.097	22.36
878.269	3.93
878.442	20.31
878.614	57.17
878.786	73.56
878.959	24.4
879.131	-43.18
879.303	-69.8
879.476	71.51
879.648	61.27
879.82	48.98
879.993	-37.03
880.165	-49.32
880.337	1.88
880.509	30.55
880.681	3.93
880.854	-2.22
881.026	-12.46
881.198	57.17
881.37	20.31
881.542	48.98
881.714	38.74
881.886	-49.32
882.058	-57.51
882.23	20.31
882.402	46.93
882.574	-61.61
882.746	69.46
882.918	20.31
883.09	79.7
883.262	48.98
883.434	-8.36
883.606	-45.23
883.778	14.17
883.95	10.07
884.122	-41.13
884.293	24.4
884.465	-65.71
884.637	65.36
884.809	-34.99
884.98	-0.17
885.152	-20.65
885.324	-0.17
885.496	-26.79
885.667	46.93
885.839	-45.23
886.011	-2.22
886.182	-12.46
886.354	-8.36
886.525	-34.99
886.697	-4.27
886.869	-53.42
887.04	10.07
887.212	12.12
887.383	28.5
887.555	24.4
887.726	18.26
887.897	3.93
888.069	-12.46
888.24	-4.27
888.412	30.55
888.583	-84.14
888.754	32.6
888.926	12.12
889.097	14.17
889.268	-45.23
889.44	-10.41
889.611	3.93
889.782	-4.27
889.953	16.21
890.125	137.04
890.296	-37.03
890.467	30.55
890.638	-24.75
890.809	-20.65
890.98	-14.51
891.151	22.36
891.323	-16.55
891.494	-0.17
891.665	-37.03
891.836	44.88
892.007	20.31
892.178	-45.23
892.349	3.93
892.52	20.31
892.691	-22.7
892.862	-22.7
893.032	-16.55
893.203	67.41
893.374	-12.46
893.545	-2.22
893.716	38.74
893.887	57.17
894.057	-4.27
894.228	-34.99
894.399	-16.55
894.57	36.69
894.74	-4.27
894.911	-37.03
895.082	-26.79
895.253	-12.46
895.423	-4.27
895.594	14.17
895.764	-2.22
895.935	-24.75
896.106	14.17
896.276	-32.94
896.447	-12.46
896.617	-16.55
896.788	28.5
896.958	30.55
897.129	-61.61
897.299	100.18
897.47	-4.27
897.64	-18.6
897.81	-30.89
897.981	12.12
898.151	-2.22
898.322	20.31
898.492	48.98
898.662	-18.6
898.832	30.55
899.003	-57.51
899.173	28.5
899.343	1.88
899.513	-51.37
