Data from USB4F104151__277__14-46-19-576.txt Node

Date: Thu Mar 13 14:46:19 EDT 2025
User: louis
Spectrometer: USB4F10415
Trigger mode: 4
Integration Time (sec): 2.000000E-2
Scans to average: 1
Electric dark correction enabled: true
Nonlinearity correction enabled: false
Boxcar width: 0
XAxis mode: Wavelengths
Number of Pixels in Spectrum: 3648
>>>>>Begin Spectral Data<<<<<
178.204	-126.63
178.424	-126.63
178.644	-126.63
178.864	-163.5
179.084	-179.88
179.304	-30.38
179.524	-3.75
179.744	-20.14
179.964	43.35
180.184	12.63
180.404	12.63
180.624	-16.04
180.844	49.49
181.064	-54.95
181.283	-9.9
181.503	2.39
181.723	14.68
181.943	-46.76
182.163	78.16
182.383	35.16
182.602	55.64
182.822	6.49
183.042	2.39
183.262	100.69
183.482	84.31
183.701	16.73
183.921	67.92
184.141	-67.24
184.361	65.88
184.58	10.58
184.8	16.73
185.02	20.82
185.239	88.4
185.459	41.3
185.679	39.25
185.898	-57
186.118	-18.09
186.338	45.4
186.557	-28.33
186.777	37.2
186.997	6.49
187.216	39.25
187.436	102.74
187.655	47.44
187.875	65.88
188.095	-52.91
188.314	80.21
188.534	26.96
188.753	12.63
188.973	-7.85
189.192	61.78
189.412	26.96
189.631	55.64
189.851	51.54
190.07	12.63
190.29	-20.14
190.509	49.49
190.729	6.49
190.948	2.39
191.168	117.08
191.387	-42.67
191.607	-5.8
191.826	67.92
192.045	-54.95
192.265	35.16
192.484	88.4
192.704	0.34
192.923	-44.71
193.142	67.92
193.362	-22.19
193.581	112.98
193.8	-44.71
194.02	78.16
194.239	-22.19
194.458	-3.75
194.678	4.44
194.897	-63.15
195.116	35.16
195.335	14.68
195.555	6.49
195.774	76.12
195.993	4.44
196.212	-3.75
196.432	6.49
196.651	33.11
196.87	-11.95
197.089	18.77
197.308	63.83
197.528	-1.71
197.747	35.16
197.966	-18.09
198.185	45.4
198.404	35.16
198.623	37.2
198.842	45.4
199.062	16.73
199.281	16.73
199.5	-38.57
199.719	86.36
199.938	43.35
200.157	100.69
200.376	-11.95
200.595	110.93
200.814	53.59
201.033	53.59
201.252	53.59
201.471	47.44
201.69	51.54
201.909	2.39
202.128	33.11
202.347	16.73
202.566	10.58
202.785	-26.28
203.004	4.44
203.223	72.02
203.442	-44.71
203.661	51.54
203.879	45.4
204.098	35.16
204.317	80.21
204.536	53.59
204.755	45.4
204.974	39.25
205.193	43.35
205.411	59.73
205.63	69.97
205.849	14.68
206.068	41.3
206.287	92.5
206.505	45.4
206.724	51.54
206.943	20.82
207.162	20.82
207.381	10.58
207.599	2.39
207.818	-28.33
208.037	6.49
208.255	67.92
208.474	-97.96
208.693	80.21
208.911	-24.23
209.13	53.59
209.349	22.87
209.567	35.16
209.786	10.58
210.005	-18.09
210.223	51.54
210.442	-36.52
210.661	-13.99
210.879	22.87
211.098	26.96
211.316	55.64
211.535	94.55
211.753	39.25
211.972	35.16
212.191	-13.99
212.409	20.82
212.628	39.25
212.846	37.2
213.065	49.49
213.283	33.11
213.502	18.77
213.72	26.96
213.938	-22.19
214.157	20.82
214.375	80.21
214.594	-42.67
214.812	22.87
215.031	-20.14
215.249	2.39
215.467	31.06
215.686	8.53
215.904	49.49
216.122	63.83
216.341	4.44
216.559	112.98
216.778	-13.99
216.996	-26.28
217.214	-44.71
217.432	-13.99
217.651	18.77
217.869	-24.23
218.087	-20.14
218.306	-46.76
218.524	10.58
218.742	45.4
218.96	-1.71
219.179	-5.8
219.397	-30.38
219.615	51.54
219.833	12.63
220.051	-16.04
220.27	84.31
220.488	20.82
220.706	-5.8
220.924	10.58
221.142	67.92
221.36	10.58
221.578	41.3
221.796	55.64
222.015	35.16
222.233	43.35
222.451	117.08
222.669	24.92
222.887	67.92
223.105	-20.14
223.323	74.07
223.541	98.64
223.759	43.35
223.977	26.96
224.195	72.02
224.413	133.46
224.631	80.21
224.849	53.59
225.067	57.68
225.285	43.35
225.503	26.96
225.721	43.35
225.939	35.16
226.157	31.06
226.375	61.78
226.592	18.77
226.81	51.54
227.028	-42.67
227.246	100.69
227.464	20.82
227.682	29.01
227.9	-5.8
228.117	82.26
228.335	37.2
228.553	84.31
228.771	20.82
228.989	31.06
229.206	84.31
229.424	10.58
229.642	22.87
229.86	76.12
230.077	-18.09
230.295	94.55
230.513	-28.33
230.731	84.31
230.948	133.46
231.166	72.02
231.384	4.44
231.601	84.31
231.819	45.4
232.037	35.16
232.254	69.97
232.472	-5.8
232.689	24.92
232.907	41.3
233.125	45.4
233.342	45.4
233.56	22.87
233.777	43.35
233.995	35.16
234.213	37.2
234.43	84.31
234.648	-46.76
234.865	-11.95
235.083	61.78
235.3	4.44
235.518	82.26
235.735	59.73
235.953	-13.99
236.17	-16.04
236.388	59.73
236.605	20.82
236.822	96.6
237.04	35.16
237.257	-11.95
237.475	10.58
237.692	10.58
237.909	4.44
238.127	14.68
238.344	78.16
238.562	45.4
238.779	16.73
238.996	10.58
239.214	84.31
239.431	2.39
239.648	51.54
239.865	67.92
240.083	88.4
240.3	96.6
240.517	6.49
240.735	26.96
240.952	88.4
241.169	102.74
241.386	18.77
241.603	55.64
241.821	69.97
242.038	100.69
242.255	-20.14
242.472	18.77
242.689	47.44
242.907	102.74
243.124	29.01
243.341	-1.71
243.558	-3.75
243.775	-5.8
243.992	-22.19
244.209	-48.81
244.426	59.73
244.643	-22.19
244.86	35.16
245.078	10.58
245.295	6.49
245.512	37.2
245.729	-3.75
245.946	29.01
246.163	2.39
246.38	18.77
246.597	55.64
246.814	35.16
247.031	82.26
247.248	47.44
247.464	35.16
247.681	72.02
247.898	22.87
248.115	2.39
248.332	-54.95
248.549	-13.99
248.766	100.69
248.983	92.5
249.2	67.92
249.417	37.2
249.633	-5.8
249.85	22.87
250.067	55.64
250.284	37.2
250.501	10.58
250.717	53.59
250.934	4.44
251.151	31.06
251.368	29.01
251.585	31.06
251.801	63.83
252.018	57.68
252.235	39.25
252.451	4.44
252.668	61.78
252.885	35.16
253.102	45.4
253.318	-13.99
253.535	18.77
253.752	18.77
253.968	26.96
254.185	31.06
254.401	2.39
254.618	2.39
254.835	51.54
255.051	78.16
255.268	80.21
255.484	16.73
255.701	18.77
255.917	39.25
256.134	-38.57
256.351	106.84
256.567	18.77
256.784	88.4
257	14.68
257.217	55.64
257.433	88.4
257.65	-3.75
257.866	22.87
258.082	-1.71
258.299	-34.47
258.515	37.2
258.732	-24.23
258.948	10.58
259.165	67.92
259.381	10.58
259.597	10.58
259.814	14.68
260.03	-11.95
260.246	59.73
260.463	35.16
260.679	-3.75
260.895	14.68
261.112	29.01
261.328	26.96
261.544	51.54
261.761	-1.71
261.977	-3.75
262.193	26.96
262.409	61.78
262.626	-20.14
262.842	76.12
263.058	51.54
263.274	-36.52
263.49	35.16
263.707	69.97
263.923	20.82
264.139	10.58
264.355	88.4
264.571	121.17
264.787	14.68
265.004	26.96
265.22	18.77
265.436	18.77
265.652	-5.8
265.868	47.44
266.084	-5.8
266.3	43.35
266.516	-16.04
266.732	67.92
266.948	6.49
267.164	108.88
267.38	14.68
267.596	117.08
267.812	100.69
268.028	35.16
268.244	-50.86
268.46	39.25
268.676	31.06
268.892	92.5
269.108	8.53
269.324	-67.24
269.54	14.68
269.756	78.16
269.972	-20.14
270.188	-5.8
270.403	-26.28
270.619	49.49
270.835	-16.04
271.051	10.58
271.267	22.87
271.483	-44.71
271.698	18.77
271.914	10.58
272.13	39.25
272.346	-18.09
272.562	18.77
272.777	123.22
272.993	-34.47
273.209	59.73
273.425	45.4
273.64	41.3
273.856	-7.85
274.072	20.82
274.287	26.96
274.503	47.44
274.719	31.06
274.934	41.3
275.15	-26.28
275.366	10.58
275.581	53.59
275.797	-50.86
276.012	41.3
276.228	76.12
276.444	49.49
276.659	-34.47
276.875	82.26
277.09	18.77
277.306	12.63
277.521	47.44
277.737	37.2
277.952	69.97
278.168	-13.99
278.383	10.58
278.599	51.54
278.814	29.01
279.03	4.44
279.245	88.4
279.461	6.49
279.676	45.4
279.892	43.35
280.107	-5.8
280.322	-28.33
280.538	51.54
280.753	86.36
280.969	-28.33
281.184	67.92
281.399	110.93
281.615	2.39
281.83	24.92
282.045	29.01
282.26	18.77
282.476	2.39
282.691	102.74
282.906	45.4
283.122	51.54
283.337	-3.75
283.552	92.5
283.767	43.35
283.983	59.73
284.198	125.27
284.413	76.12
284.628	12.63
284.843	108.88
285.058	-1.71
285.274	4.44
285.489	47.44
285.704	80.21
285.919	18.77
286.134	47.44
286.349	57.68
286.564	35.16
286.779	98.64
286.995	29.01
287.21	76.12
287.425	4.44
287.64	2.39
287.855	-13.99
288.07	0.34
288.285	76.12
288.5	47.44
288.715	43.35
288.93	39.25
289.145	18.77
289.36	35.16
289.575	4.44
289.79	26.96
290.004	108.88
290.219	26.96
290.434	51.54
290.649	61.78
290.864	29.01
291.079	4.44
291.294	37.2
291.509	67.92
291.724	18.77
291.938	53.59
292.153	4.44
292.368	20.82
292.583	53.59
292.798	33.11
293.012	100.69
293.227	16.73
293.442	55.64
293.657	-3.75
293.871	57.68
294.086	39.25
294.301	86.36
294.516	45.4
294.73	29.01
294.945	4.44
295.16	14.68
295.374	69.97
295.589	72.02
295.804	22.87
296.018	-1.71
296.233	35.16
296.447	59.73
296.662	24.92
296.877	51.54
297.091	76.12
297.306	39.25
297.52	45.4
297.735	49.49
297.949	-9.9
298.164	102.74
298.378	51.54
298.593	-13.99
298.807	-26.28
299.022	-20.14
299.236	69.97
299.451	-22.19
299.665	-5.8
299.88	-20.14
300.094	61.78
300.309	-1.71
300.523	12.63
300.737	24.92
300.952	33.11
301.166	45.4
301.381	-22.19
301.595	-40.62
301.809	51.54
302.024	47.44
302.238	2.39
302.452	2.39
302.667	-11.95
302.881	121.17
303.095	67.92
303.309	-1.71
303.524	45.4
303.738	35.16
303.952	39.25
304.166	35.16
304.381	-9.9
304.595	51.54
304.809	84.31
305.023	94.55
305.237	45.4
305.452	-18.09
305.666	37.2
305.88	78.16
306.094	110.93
306.308	-7.85
306.522	-3.75
306.736	12.63
306.95	18.77
307.164	6.49
307.379	29.01
307.593	26.96
307.807	45.4
308.021	49.49
308.235	78.16
308.449	-18.09
308.663	45.4
308.877	108.88
309.091	-50.86
309.305	-16.04
309.519	35.16
309.733	39.25
309.947	26.96
310.161	14.68
310.374	51.54
310.588	29.01
310.802	20.82
311.016	65.88
311.23	72.02
311.444	18.77
311.658	37.2
311.872	69.97
312.085	88.4
312.299	2.39
312.513	-20.14
312.727	-11.95
312.941	63.83
313.154	45.4
313.368	10.58
313.582	59.73
313.796	29.01
314.009	78.16
314.223	22.87
314.437	26.96
314.651	-7.85
314.864	47.44
315.078	10.58
315.292	4.44
315.505	78.16
315.719	26.96
315.933	22.87
316.146	26.96
316.36	10.58
316.573	65.88
316.787	65.88
317.001	-20.14
317.214	22.87
317.428	65.88
317.641	31.06
317.855	57.68
318.068	35.16
318.282	2.39
318.495	69.97
318.709	18.77
318.922	6.49
319.136	47.44
319.349	31.06
319.563	61.78
319.776	96.6
319.99	35.16
320.203	26.96
320.417	29.01
320.63	76.12
320.843	67.92
321.057	-5.8
321.27	63.83
321.483	29.01
321.697	76.12
321.91	37.2
322.124	-26.28
322.337	33.11
322.55	-11.95
322.763	14.68
322.977	-13.99
323.19	12.63
323.403	-28.33
323.617	33.11
323.83	55.64
324.043	61.78
324.256	59.73
324.469	96.6
324.683	61.78
324.896	-3.75
325.109	37.2
325.322	49.49
325.535	-34.47
325.748	92.5
325.962	6.49
326.175	76.12
326.388	59.73
326.601	26.96
326.814	24.92
327.027	24.92
327.24	78.16
327.453	-20.14
327.666	45.4
327.879	133.46
328.092	24.92
328.305	35.16
328.518	43.35
328.731	-95.91
328.944	35.16
329.157	12.63
329.37	-3.75
329.583	35.16
329.796	55.64
330.009	-77.48
330.222	92.5
330.435	45.4
330.648	-26.28
330.861	18.77
331.073	31.06
331.286	29.01
331.499	35.16
331.712	18.77
331.925	35.16
332.138	59.73
332.35	80.21
332.563	20.82
332.776	88.4
332.989	12.63
333.202	88.4
333.414	-26.28
333.627	104.79
333.84	51.54
334.053	74.07
334.265	12.63
334.478	14.68
334.691	2.39
334.903	-30.38
335.116	-22.19
335.329	35.16
335.541	65.88
335.754	112.98
335.966	-26.28
336.179	51.54
336.392	2.39
336.604	37.2
336.817	-26.28
337.029	74.07
337.242	20.82
337.454	59.73
337.667	88.4
337.88	74.07
338.092	35.16
338.305	43.35
338.517	18.77
338.729	76.12
338.942	72.02
339.154	10.58
339.367	2.39
339.579	20.82
339.792	26.96
340.004	76.12
340.217	22.87
340.429	26.96
340.641	22.87
340.854	12.63
341.066	-30.38
341.278	117.08
341.491	59.73
341.703	51.54
341.915	-18.09
342.128	51.54
342.34	82.26
342.552	-44.71
342.764	29.01
342.977	37.2
343.189	18.77
343.401	29.01
343.613	2.39
343.826	37.2
344.038	47.44
344.25	18.77
344.462	10.58
344.674	35.16
344.886	26.96
345.099	127.32
345.311	-52.91
345.523	12.63
345.735	35.16
345.947	127.32
346.159	-1.71
346.371	45.4
346.583	-13.99
346.795	37.2
347.007	33.11
347.219	20.82
347.431	45.4
347.643	18.77
347.855	86.36
348.067	61.78
348.279	31.06
348.491	76.12
348.703	133.46
348.915	4.44
349.127	20.82
349.339	12.63
349.551	6.49
349.763	76.12
349.975	-1.71
350.187	92.5
350.399	115.03
350.61	4.44
350.822	88.4
351.034	43.35
351.246	-22.19
351.458	135.51
351.669	67.92
351.881	72.02
352.093	-7.85
352.305	67.92
352.517	84.31
352.728	29.01
352.94	35.16
353.152	127.32
353.363	29.01
353.575	-30.38
353.787	104.79
353.999	-5.8
354.21	86.36
354.422	61.78
354.633	-1.71
354.845	12.63
355.057	-13.99
355.268	102.74
355.48	-22.19
355.692	-11.95
355.903	96.6
356.115	59.73
356.326	31.06
356.538	16.73
356.749	57.68
356.961	137.56
357.172	-24.23
357.384	37.2
357.595	133.46
357.807	-79.53
358.018	-5.8
358.23	16.73
358.441	61.78
358.653	123.22
358.864	51.54
359.075	35.16
359.287	88.4
359.498	92.5
359.709	35.16
359.921	2.39
360.132	-5.8
360.344	12.63
360.555	43.35
360.766	61.78
360.977	76.12
361.189	43.35
361.4	84.31
361.611	55.64
361.823	67.92
362.034	45.4
362.245	-54.95
362.456	43.35
362.667	39.25
362.879	51.54
363.09	26.96
363.301	-5.8
363.512	37.2
363.723	72.02
363.935	-32.43
364.146	80.21
364.357	67.92
364.568	18.77
364.779	10.58
364.99	-18.09
365.201	61.78
365.412	84.31
365.623	10.58
365.834	100.69
366.045	94.55
366.256	35.16
366.467	39.25
366.678	-9.9
366.889	20.82
367.1	-5.8
367.311	102.74
367.522	74.07
367.733	67.92
367.944	43.35
368.155	-1.71
368.366	133.46
368.577	125.27
368.788	61.78
368.999	43.35
369.209	37.2
369.42	117.08
369.631	78.16
369.842	26.96
370.053	61.78
370.264	45.4
370.474	4.44
370.685	-5.8
370.896	10.58
371.107	110.93
371.317	108.88
371.528	-30.38
371.739	57.68
371.95	84.31
372.16	63.83
372.371	-13.99
372.582	51.54
372.792	4.44
373.003	55.64
373.214	69.97
373.424	10.58
373.635	6.49
373.846	51.54
374.056	-1.71
374.267	67.92
374.477	69.97
374.688	4.44
374.898	61.78
375.109	-11.95
375.319	94.55
375.53	88.4
375.74	35.16
375.951	43.35
376.161	43.35
376.372	92.5
376.582	-22.19
376.793	24.92
377.003	0.34
377.214	-16.04
377.424	4.44
377.635	43.35
377.845	94.55
378.055	108.88
378.266	-20.14
378.476	78.16
378.686	18.77
378.897	108.88
379.107	20.82
379.317	18.77
379.528	88.4
379.738	-26.28
379.948	67.92
380.158	-26.28
380.369	10.58
380.579	158.03
380.789	35.16
380.999	67.92
381.21	69.97
381.42	112.98
381.63	-38.57
381.84	80.21
382.05	53.59
382.261	59.73
382.471	43.35
382.681	35.16
382.891	133.46
383.101	63.83
383.311	-75.43
383.521	-5.8
383.731	76.12
383.941	119.12
384.151	61.78
384.361	82.26
384.571	74.07
384.781	108.88
384.991	59.73
385.201	119.12
385.411	76.12
385.621	76.12
385.831	41.3
386.041	92.5
386.251	76.12
386.461	55.64
386.671	22.87
386.881	63.83
387.091	22.87
387.301	86.36
387.511	-32.43
387.72	53.59
387.93	16.73
388.14	53.59
388.35	43.35
388.56	59.73
388.769	76.12
388.979	6.49
389.189	33.11
389.399	72.02
389.609	61.78
389.818	92.5
390.028	49.49
390.238	67.92
390.447	51.54
390.657	47.44
390.867	18.77
391.076	-3.75
391.286	43.35
391.496	45.4
391.705	45.4
391.915	86.36
392.125	100.69
392.334	-5.8
392.544	24.92
392.753	98.64
392.963	10.58
393.172	26.96
393.382	90.45
393.591	158.03
393.801	51.54
394.01	80.21
394.22	39.25
394.429	69.97
394.639	61.78
394.848	69.97
395.058	76.12
395.267	49.49
395.477	98.64
395.686	82.26
395.895	92.5
396.105	106.84
396.314	143.7
396.524	84.31
396.733	94.55
396.942	43.35
397.152	61.78
397.361	76.12
397.57	12.63
397.78	41.3
397.989	112.98
398.198	153.94
398.407	55.64
398.617	67.92
398.826	65.88
399.035	92.5
399.244	92.5
399.453	123.22
399.663	24.92
399.872	96.6
400.081	33.11
400.29	129.36
400.499	63.83
400.708	158.03
400.917	141.65
401.127	61.78
401.336	96.6
401.545	176.47
401.754	155.99
401.963	203.09
402.172	141.65
402.381	76.12
402.59	80.21
402.799	137.56
403.008	86.36
403.217	123.22
403.426	149.84
403.635	80.21
403.844	59.73
404.053	63.83
404.262	55.64
404.471	160.08
404.68	108.88
404.888	145.75
405.097	72.02
405.306	147.8
405.515	102.74
405.724	133.46
405.933	119.12
406.142	141.65
406.35	166.23
406.559	135.51
406.768	139.6
406.977	239.95
407.185	211.28
407.394	242
407.603	110.93
407.812	133.46
408.02	168.27
408.229	209.23
408.438	160.08
408.646	209.23
408.855	190.8
409.064	176.47
409.272	207.19
409.481	192.85
409.69	252.24
409.898	252.24
410.107	280.91
410.315	256.34
410.524	239.95
410.733	276.82
410.941	260.43
411.15	346.45
411.358	285.01
411.567	295.25
411.775	334.16
411.984	295.25
412.192	395.6
412.401	317.78
412.609	377.17
412.818	424.27
413.026	432.46
413.234	422.22
413.443	397.65
413.651	387.41
413.86	411.98
414.068	471.37
414.276	553.29
414.485	545.1
414.693	551.24
414.901	647.5
415.11	498
415.318	571.72
415.526	536.91
415.734	584.01
415.943	657.74
416.151	678.22
416.359	592.2
416.567	674.12
416.776	690.51
416.984	778.57
417.192	891.21
417.4	743.75
417.608	717.13
417.817	776.52
418.025	872.78
418.233	960.84
418.441	956.74
418.649	948.55
418.857	956.74
419.065	1014.09
419.273	995.65
419.481	1044.81
419.689	1136.96
419.897	1177.92
420.105	1161.54
420.313	1165.64
420.521	1308.99
420.729	1282.37
420.937	1417.54
421.145	1386.82
421.353	1448.26
421.561	1610.04
421.769	1577.28
421.977	1585.47
422.185	1583.42
422.393	1712.44
422.601	1886.52
422.809	1739.07
423.017	1780.03
423.224	1851.71
423.432	1911.1
423.64	1929.53
423.848	2150.71
424.056	1956.15
424.263	2214.2
424.471	2255.15
424.679	2253.11
424.887	2582.83
425.094	2515.25
425.302	2537.77
425.51	2468.14
425.718	2595.12
425.925	2718
426.133	2828.59
426.341	2824.49
426.548	2951.46
426.756	3123.49
426.964	3107.11
427.171	3275.04
427.379	3402.02
427.586	3436.83
427.794	3608.86
428.001	3721.5
428.209	3762.46
428.417	3827.99
428.624	3985.69
428.832	4051.22
429.039	3920.15
429.247	4028.7
429.454	4385.04
429.662	4714.77
429.869	4426
430.076	4550.93
430.284	4684.05
430.491	4763.92
430.699	5126.41
430.906	5144.84
431.114	5099.78
431.321	5204.23
431.528	5294.34
431.736	5863.68
431.943	5998.84
432.15	5853.44
432.358	5935.35
432.565	6146.3
432.772	6064.38
432.979	6523.12
433.187	6686.96
433.394	6637.81
433.601	6981.87
433.808	7055.59
434.016	7108.84
434.223	7368.93
434.43	7848.16
434.637	7686.37
434.844	8188.12
435.052	8317.14
435.259	8161.5
435.466	8437.97
435.673	8261.85
435.88	8734.93
436.087	9218.25
436.294	9251.02
436.501	9023.69
436.708	9085.13
436.915	9423.05
437.122	10045.63
437.329	9701.57
437.537	10008.76
437.743	10301.62
437.95	10250.42
438.157	10703.03
438.364	11198.63
438.571	11284.65
438.778	11333.8
438.985	12175.52
439.192	11810.98
439.399	12159.13
439.606	11741.35
439.813	12644.5
440.02	13373.58
440.227	12882.06
440.433	12865.68
440.64	13299.85
440.847	13219.98
441.054	13635.72
441.261	14536.82
441.467	14311.55
441.674	14803.06
441.881	15263.85
442.088	15044.72
442.294	14954.61
442.501	15401.07
442.708	15706.21
442.914	16269.41
443.121	17147.98
443.328	16277.6
443.534	17860.68
443.741	17422.41
443.948	16836.69
444.154	18208.83
444.361	18249.79
444.568	18202.69
444.774	18305.09
444.981	18352.19
445.187	18835.51
445.394	19994.66
445.6	19728.42
445.807	21893.13
446.013	20516.89
446.22	20922.39
446.426	21958.66
446.633	22175.75
446.839	22951.93
447.046	22099.97
447.252	22949.88
447.459	23128.05
447.665	22896.63
447.871	23908.33
448.078	24907.74
448.284	24225.76
448.491	24821.72
448.697	25679.82
448.903	26134.47
449.11	26197.96
449.316	25913.29
449.522	26271.68
449.728	26967.99
449.935	27236.28
450.141	27363.25
450.347	27752.37
450.553	27131.83
450.76	27600.82
450.966	28290.98
451.172	28137.38
451.378	28604.32
451.584	28075.94
451.791	29007.77
451.997	28903.32
452.203	29132.7
452.409	29620.11
452.615	29247.38
452.821	27979.69
453.027	27836.33
453.233	29687.7
453.44	28331.94
453.646	28692.38
453.852	28493.73
454.058	29276.05
454.264	28190.63
454.47	28921.76
454.676	28395.43
454.882	29200.28
455.088	26507.2
455.294	27099.06
455.5	27551.66
455.705	28020.65
455.911	26861.5
456.117	26333.12
456.323	26179.53
456.529	24584.16
456.735	25651.15
456.941	25047
457.147	24561.63
457.352	23994.34
457.558	23904.23
457.764	23896.04
457.97	23447.54
458.176	23015.41
458.381	22872.06
458.587	21530.64
458.793	22102.02
458.999	20406.3
459.204	22011.91
459.41	21405.71
459.616	20240.42
459.821	20277.28
460.027	19892.26
460.233	19855.4
460.438	18714.68
460.644	18866.23
460.85	18032.71
461.055	17758.28
461.261	17829.96
461.466	16523.35
461.672	16035.94
461.878	17242.19
462.083	15964.26
462.289	15706.21
462.494	15646.82
462.7	14917.75
462.905	14512.25
463.111	15143.02
463.316	15214.7
463.522	14782.58
463.727	15046.77
463.932	14821.49
464.138	14911.6
464.343	15016.05
464.549	14411.9
464.754	14778.48
464.959	14831.73
465.165	14518.39
465.37	13977.73
465.575	13586.57
465.781	14305.4
465.986	14149.76
466.191	13852.8
466.397	13406.34
466.602	12822.67
466.807	13387.91
467.012	13416.58
467.218	13269.13
467.423	13041.81
467.628	13027.47
467.833	13740.16
468.038	13119.63
468.244	12871.82
468.449	13330.57
468.654	13119.63
468.859	12996.75
469.064	12621.97
469.269	12333.21
469.474	12464.28
469.679	12646.55
469.885	12445.85
470.09	12210.33
470.295	12478.61
470.5	12138.65
470.705	12146.84
470.91	11858.08
471.115	11806.88
471.32	11978.91
471.525	12032.16
471.73	11806.88
471.935	11706.53
472.139	11301.03
472.344	11604.13
472.549	11294.89
472.754	11387.05
472.959	10930.35
473.164	10682.55
473.369	10557.62
473.574	11014.32
473.778	10664.11
473.983	10836.14
474.188	10918.06
474.393	10248.38
474.598	10252.47
474.802	10148.03
475.007	10342.58
475.212	10078.4
475.417	9771.2
475.621	9816.26
475.826	9896.13
476.031	9795.78
476.235	9488.58
476.44	9672.9
476.645	9488.58
476.849	9455.81
477.054	9300.17
477.259	9269.45
477.463	9349.32
477.668	8958.16
477.872	9009.36
478.077	8720.59
478.282	8704.21
478.486	8669.39
478.691	8583.38
478.895	8784.08
479.1	8503.51
479.304	8675.54
479.509	8227.03
479.713	8536.28
479.918	8270.04
480.122	8120.54
480.326	8337.62
480.531	8206.55
480.735	8147.16
480.94	8063.19
481.144	8280.28
481.348	8227.03
481.553	7981.28
481.757	7833.82
481.961	8075.48
482.166	8079.58
482.37	7909.6
482.574	7846.11
482.778	7966.94
482.983	8028.38
483.187	7753.95
483.391	7940.32
483.595	7780.57
483.8	8001.76
484.004	7923.93
484.208	7964.89
484.412	7753.95
484.616	7895.26
484.821	7874.78
485.025	7684.32
485.229	7856.35
485.433	7751.9
485.637	7811.29
485.841	7829.73
486.045	7893.21
486.249	7981.28
486.453	7837.92
486.657	7751.9
486.861	7946.46
487.065	7866.59
487.269	7876.83
487.473	7852.25
487.677	8138.97
487.881	7897.31
488.085	7936.22
488.289	8136.92
488.493	8085.72
488.697	7870.69
488.901	8112.35
489.105	7950.56
489.309	8122.59
489.512	8323.29
489.716	8210.65
489.92	8030.43
490.124	8104.15
490.328	8239.32
490.531	8335.57
490.735	8347.86
490.939	8376.53
491.143	8206.55
491.346	8114.39
491.55	8351.96
491.754	8530.13
491.958	8296.66
492.161	8259.8
492.365	8560.85
492.569	8456.4
492.772	8597.71
492.976	8767.7
493.18	8693.97
493.383	8661.2
493.587	8698.06
493.79	8868.05
493.994	8827.09
494.197	8925.39
494.401	9115.85
494.605	9058.51
494.808	9189.58
495.012	9228.49
495.215	9455.81
495.419	9398.47
495.622	9357.51
495.825	9451.72
496.029	9515.2
496.232	9777.34
496.436	9468.1
496.639	10070.2
496.843	9889.98
497.046	10086.59
497.249	10240.19
497.453	10156.22
497.656	10287.29
497.859	10270.9
498.063	10504.37
498.266	10793.14
498.469	10479.8
498.673	10963.12
498.876	10983.6
499.079	11200.68
499.282	11022.51
499.485	11657.38
499.689	11575.46
499.892	11643.04
500.095	11847.84
500.298	12073.12
500.501	11997.34
500.705	12136.6
500.908	12234.91
501.111	12738.71
501.314	12675.22
501.517	12564.63
501.72	12888.21
501.923	12978.32
502.126	13269.13
502.329	13443.21
502.532	13435.02
502.735	13680.77
502.938	13879.43
503.141	14080.13
503.344	14225.53
503.547	14291.07
503.75	14477.43
503.953	14461.05
504.156	14848.11
504.359	15206.51
504.562	15257.71
504.765	15714.41
504.968	15378.54
505.17	15896.67
505.373	15714.41
505.576	16181.34
505.779	16435.29
505.982	16263.26
506.185	16689.24
506.387	16848.98
506.59	16955.47
506.793	17217.61
506.996	17330.25
507.198	17584.2
507.401	17621.06
507.604	17786.95
507.807	18225.22
508.009	18393.15
508.212	18618.43
508.415	18831.41
508.617	18829.37
508.82	19081.27
509.022	19189.81
509.225	19693.61
509.428	19695.66
509.63	19920.93
509.833	20078.63
510.035	20559.9
510.238	20625.43
510.44	20930.58
510.643	21198.87
510.845	21565.45
511.048	21006.36
511.25	21585.93
511.453	21661.71
511.655	22458.37
511.858	22382.59
512.06	22220.8
512.262	22800.38
512.465	22829.05
512.667	23353.33
512.87	23660.52
513.072	23541.74
513.274	23848.94
513.477	24223.72
513.679	24602.59
513.881	24915.93
514.084	25024.47
514.286	24872.92
514.488	25075.67
514.69	26070.98
514.893	26167.24
515.095	26316.74
515.297	26519.49
515.499	26640.32
515.701	26456
515.904	27209.65
516.106	27330.48
516.308	27498.42
516.51	28110.76
516.712	27881.39
516.914	28473.25
517.116	28864.41
517.318	29136.79
517.52	28827.55
517.722	29454.23
517.925	30054.28
518.127	30341
518.329	30412.68
518.531	30345.09
518.733	30769.02
518.935	30680.96
519.136	31258.49
519.338	31754.1
519.54	31475.57
519.742	32006
519.944	32116.59
520.146	32534.37
520.348	32825.18
520.55	32966.49
520.752	32880.48
520.954	33642.32
521.155	33507.16
521.357	34103.12
521.559	34367.3
521.761	34680.64
521.963	34400.07
522.164	34975.55
522.366	34707.27
522.568	35403.58
522.77	35266.36
522.971	36243.24
523.173	35727.16
523.375	36290.35
523.576	36169.52
523.778	36181.81
523.98	36599.59
524.181	36820.77
524.383	37285.66
524.584	37328.67
524.786	37568.28
524.988	37330.72
525.189	38074.13
525.391	38053.65
525.592	38491.91
525.794	38584.07
525.995	38489.87
526.197	38477.58
526.398	38586.12
526.6	39108.35
526.801	39014.15
527.003	39380.73
527.204	39098.11
527.406	39544.57
527.607	39575.29
527.808	39767.8
528.01	39249.66
528.211	39618.3
528.412	40673
528.614	39816.95
528.815	39898.87
529.016	40750.82
529.218	40408.81
529.419	40189.68
529.62	40640.23
529.822	40279.79
530.023	40834.79
530.224	40500.97
530.425	40505.07
530.626	40836.84
530.828	40470.25
531.029	41410.27
531.23	40935.14
531.431	41465.56
531.632	41047.78
531.833	41230.05
532.035	41549.53
532.236	41549.53
532.437	41205.47
532.638	41205.47
532.839	41156.32
533.04	41742.04
533.241	41217.76
533.442	41506.52
533.643	41719.51
533.844	41137.89
534.045	41590.49
534.246	41164.51
534.447	41580.25
534.648	41610.97
534.849	41862.87
535.05	41277.15
535.251	41705.18
535.451	41656.03
535.652	41772.76
535.853	41512.67
536.054	41739.99
536.255	41793.24
536.456	41479.9
536.657	42188.5
536.857	41813.72
537.058	41588.44
537.259	41758.42
537.46	41832.15
537.66	41451.23
537.861	41819.86
538.062	41832.15
538.263	42024.66
538.463	41713.37
538.664	41748.18
538.865	41449.18
539.065	41600.73
539.266	41449.18
539.466	41912.02
539.667	41271.01
539.868	41610.97
540.068	41705.18
540.269	41397.98
540.469	41811.67
540.67	41260.77
540.87	42012.37
541.071	41537.24
541.271	41709.27
541.472	41537.24
541.672	41459.42
541.873	41625.31
542.073	41416.41
542.274	42063.57
542.474	41471.71
542.675	41332.45
542.875	42108.63
543.075	41647.83
543.276	41256.67
543.476	41729.75
543.676	41127.65
543.877	41852.63
544.077	41484
544.277	41400.03
544.478	41479.9
544.678	41873.11
544.878	41723.61
545.078	41545.44
545.279	41103.07
545.479	41287.39
545.679	41422.56
545.879	41459.42
546.079	41416.41
546.28	41246.43
546.48	41084.64
546.68	41182.94
546.88	41391.84
547.08	41527
547.28	41164.51
547.48	40705.77
547.68	41332.45
547.88	40982.24
548.081	41778.9
548.281	41230.05
548.481	41195.23
548.681	41686.75
548.881	41549.53
549.081	41139.94
549.28	41139.94
549.48	41314.01
549.68	41131.75
549.88	42163.92
550.08	40771.3
550.28	41262.82
550.48	40965.86
550.68	41244.38
550.88	41072.35
551.08	40883.94
551.279	41184.99
551.479	40701.67
551.679	41193.18
551.879	41211.62
552.079	41340.64
552.278	40808.17
552.478	41127.65
552.678	41397.98
552.878	41103.07
553.077	41285.34
553.277	40783.59
553.477	41400.03
553.676	40615.66
553.876	41115.36
554.076	40789.73
554.275	40779.5
554.475	40222.45
554.674	41010.92
554.874	40646.38
555.074	40525.55
555.273	40918.76
555.473	40965.86
555.672	40681.19
555.872	40427.24
556.071	40875.75
556.271	40722.15
556.47	40595.18
556.67	40247.02
556.869	40429.29
557.068	40601.32
557.268	40320.75
557.467	40500.97
557.667	40584.94
557.866	40689.38
558.065	40367.85
558.265	39894.77
558.464	40124.15
558.663	40058.61
558.863	39532.28
559.062	40576.75
559.261	39798.52
559.461	40638.19
559.66	39722.74
559.859	39706.36
560.058	39544.57
560.258	40066.8
560.457	39563
560.656	39968.5
560.855	39651.06
561.054	39675.64
561.253	39438.08
561.453	39493.37
561.652	39769.85
561.851	39673.59
562.05	39739.13
562.249	39255.81
562.448	39659.26
562.647	39677.69
562.846	39270.14
563.045	39177.98
563.244	38969.09
563.443	39567.1
563.642	38698.76
563.841	39188.22
564.04	38809.35
564.239	39132.93
564.438	38674.18
564.637	38772.49
564.836	38518.54
565.035	38731.53
565.234	38569.74
565.432	38676.23
565.631	38217.49
565.83	38442.76
566.029	38344.46
566.228	38000.4
566.427	37996.31
566.625	38070.03
566.824	37537.56
567.023	38235.92
567.222	37138.21
567.42	37601.05
567.619	37732.12
567.818	38022.93
568.016	37797.65
568.215	38110.99
568.414	37332.76
568.612	37512.98
568.811	37189.41
569.01	37312.28
569.208	37103.39
569.407	37480.22
569.605	36706.09
569.804	37240.61
570.002	36812.58
570.201	37154.59
570.4	36923.17
570.598	36405.03
570.797	36411.18
570.995	36605.73
571.193	36441.9
571.392	37023.52
571.59	36206.38
571.789	36028.21
571.987	36476.71
572.186	35954.48
572.384	35903.28
572.582	35968.82
572.781	36030.26
572.979	35417.91
573.177	35856.18
573.376	36040.5
573.574	35555.13
573.772	35739.44
573.971	35952.43
574.169	35280.7
574.367	35335.99
574.565	35215.16
574.763	35063.61
574.962	34963.26
575.16	34619.21
575.358	35014.46
575.556	34455.37
575.754	34957.12
575.952	34346.83
576.151	34545.48
576.349	34039.63
576.547	34312.01
576.745	34385.74
576.943	34277.19
577.141	34195.28
577.339	34361.16
577.537	33933.14
577.735	34109.26
577.933	33738.58
578.131	34109.26
578.329	33793.87
578.527	32952.16
578.725	33453.91
578.923	33398.62
579.121	33380.18
579.319	33138.52
579.516	33148.76
579.714	33122.14
579.912	32810.85
580.11	32606.05
580.308	32898.91
580.506	32505.7
580.704	32188.27
580.901	32610.15
581.099	32673.63
581.297	32448.36
581.495	32323.43
581.692	32591.72
581.89	32401.25
582.088	32229.23
582.285	31940.46
582.483	32200.55
582.681	32112.49
582.878	31565.68
583.076	31580.02
583.274	31768.43
583.471	31395.7
583.669	31577.97
583.866	31135.61
584.064	31481.72
584.262	31035.26
584.459	30992.25
584.657	30814.08
584.854	31213.43
585.052	30803.84
585.249	31010.68
585.447	30850.94
585.644	30644.1
585.841	30773.12
586.039	30785.41
586.236	30283.66
586.434	30177.16
586.631	30449.54
586.828	30441.35
587.026	30521.22
587.223	29992.84
587.42	29949.84
587.618	29853.58
587.815	29851.53
588.012	29661.07
588.21	29427.6
588.407	29792.14
588.604	29372.31
588.801	29069.21
588.999	29349.78
589.196	29054.87
589.393	29108.12
589.59	29161.37
589.787	28845.98
589.984	28501.92
590.182	28589.99
590.379	28790.69
590.576	28762.01
590.773	28235.69
590.97	28729.25
591.167	28452.77
591.364	28229.54
591.561	28237.73
591.758	28039.08
591.955	28293.03
592.152	28268.45
592.349	27682.73
592.546	28104.62
592.743	27824.04
592.94	27312.05
593.137	27662.26
593.334	27772.85
593.531	27121.59
593.727	27465.65
593.924	27449.27
594.121	27246.52
594.318	27400.12
594.515	26972.09
594.712	27211.7
594.908	26867.64
595.105	26939.32
595.302	26666.94
595.499	26890.17
595.696	26486.72
595.892	26148.81
596.089	26148.81
596.286	26517.44
596.482	26200.01
596.679	26159.05
596.876	26337.22
597.072	25911.24
597.269	26171.33
597.466	25343.95
597.662	25774.03
597.859	25626.57
598.055	26013.64
598.252	25647.05
598.448	25661.39
598.645	25546.7
598.841	25157.59
599.038	25335.76
599.234	25229.27
599.431	25212.88
599.627	25094.1
599.824	24989.66
600.02	24797.15
600.217	24827.87
600.413	24678.36
600.609	24305.63
600.806	24530.91
601.002	24707.04
601.198	24289.25
601.395	24563.68
601.591	24109.03
601.787	24453.09
601.984	24098.79
602.18	24346.59
602.376	24086.5
602.572	23875.56
602.769	24260.58
602.965	23525.36
603.161	23975.91
603.357	23850.99
603.553	23635.95
603.75	23633.9
603.946	23670.76
604.142	23580.65
604.338	23164.92
604.534	23238.64
604.73	23001.08
604.926	23126
605.122	23283.7
605.318	22947.83
605.514	22730.75
605.71	22691.84
605.906	22827
606.102	22720.51
606.298	22919.16
606.494	22487.04
606.69	22683.64
606.886	22480.89
607.082	22130.69
607.278	22632.44
607.474	22147.08
607.67	22585.34
607.866	22077.44
608.062	22261.76
608.257	22161.41
608.453	21794.82
608.649	22075.4
608.845	22059.01
609.041	22030.34
609.236	22026.25
609.432	21665.8
609.628	21747.72
609.824	21418
610.019	21571.6
610.215	21561.36
610.411	21616.65
610.606	21487.63
610.802	21684.23
610.998	21418
611.193	21499.92
611.389	21286.93
611.584	21170.19
611.78	21106.71
611.976	21162
612.171	21071.89
612.367	20930.58
612.562	20705.31
612.758	20596.76
612.953	20834.33
613.149	21063.7
613.344	20561.95
613.539	21053.46
613.735	20451.36
613.93	20813.85
614.126	20564
614.321	20674.59
614.517	20699.16
614.712	20576.28
614.907	20264.99
615.103	20582.43
615.298	20271.14
615.493	20457.5
615.688	20103.2
615.884	20441.12
616.079	20029.48
616.274	20602.91
616.47	20049.96
616.665	20088.87
616.86	19992.61
617.055	19963.94
617.25	19937.32
617.445	20092.96
617.641	19634.22
617.836	19808.3
618.031	19736.62
618.226	19898.41
618.421	19529.77
618.616	19544.11
618.811	19210.29
619.006	19580.97
619.201	19030.07
619.396	19454
619.591	18903.09
619.786	19150.9
619.981	18944.05
620.176	19085.36
620.371	18800.69
620.566	18597.95
620.761	18757.69
620.956	18534.46
621.151	18382.91
621.346	18380.86
621.541	18245.69
621.735	18425.92
621.93	18020.42
622.125	18137.15
622.32	17717.32
622.515	17965.12
622.709	17745.99
622.904	17719.37
623.099	17516.62
623.294	17627.21
623.488	17475.66
623.683	17176.66
623.878	17098.83
624.072	17094.74
624.267	16969.81
624.462	16998.48
624.656	16957.52
624.851	16918.61
625.046	16713.81
625.24	16623.7
625.435	16556.12
625.629	16609.37
625.824	16353.37
626.018	16363.61
626.213	15816.8
626.407	16156.77
626.602	15730.79
626.796	16021.6
626.991	16158.81
627.185	15738.98
627.38	15698.02
627.574	15587.43
627.768	15595.62
627.963	15530.09
628.157	15202.41
628.352	15325.29
628.546	15061.1
628.74	15288.43
628.935	14866.55
629.129	14874.74
629.323	14559.35
629.517	14758
629.712	14346.36
629.906	14542.97
630.1	14342.27
630.294	14297.21
630.489	14225.53
630.683	14174.33
630.877	14059.65
631.071	13858.95
631.265	14149.76
631.459	13979.78
631.653	13879.43
631.848	13920.38
632.042	13594.76
632.236	13824.13
632.43	13701.25
632.624	13691.01
632.818	13453.45
633.012	13068.43
633.206	13453.45
633.4	13346.95
633.594	12871.82
633.788	13142.16
633.982	13105.29
634.176	13019.28
634.369	12697.75
634.563	12775.57
634.757	12839.06
634.951	12705.94
635.145	12777.62
635.339	12601.49
635.533	12505.24
635.726	12511.38
635.92	12292.25
636.114	12470.42
636.308	12251.29
636.501	12159.13
636.695	12325.02
636.889	12144.8
637.083	12036.25
637.276	11956.38
637.47	11983.01
637.664	11767.97
637.857	11890.85
638.051	11890.85
638.244	11610.28
638.438	11704.48
638.632	11434.15
638.825	11487.4
639.019	11208.87
639.212	11313.32
639.406	11274.41
639.599	11151.53
639.793	11196.59
639.986	11088.04
640.18	11116.72
640.373	10946.73
640.567	10907.82
640.76	10772.66
640.954	10606.77
641.147	10647.73
641.34	10668.21
641.534	10463.41
641.727	10547.38
641.92	10500.28
642.114	10332.34
642.307	10268.86
642.5	10303.67
642.694	10066.11
642.887	10152.12
643.08	10029.24
643.273	10012.86
643.467	10117.31
643.66	9949.37
643.853	9791.68
644.046	9879.74
644.239	9830.59
644.432	9873.6
644.626	9644.23
644.819	9668.8
645.012	9431.24
645.205	9537.73
645.398	9650.37
645.591	9443.53
645.784	9441.48
645.977	9197.77
646.17	9257.16
646.363	9124.04
646.556	9001.16
646.749	9056.46
646.942	9078.99
647.135	8941.77
647.328	8792.27
647.521	8935.63
647.714	8886.48
647.907	8923.34
648.099	8872.14
648.292	8710.35
648.485	8591.57
648.678	8501.46
648.871	8530.13
649.064	8380.63
649.256	8503.51
649.449	8376.53
649.642	8270.04
649.835	8157.4
650.027	8227.03
650.22	8306.9
650.413	8122.59
650.605	8104.15
650.798	8059.1
650.991	7942.36
651.183	7815.39
651.376	7772.38
651.568	7882.97
651.761	7637.22
651.954	7549.15
652.146	7680.22
652.339	7608.55
652.531	7612.64
652.724	7596.26
652.916	7448.8
653.109	7481.57
653.301	7684.32
653.494	7506.15
653.686	7325.93
653.879	7399.65
654.071	7389.41
654.263	7416.04
654.456	7219.43
654.648	7278.82
654.84	7153.9
655.033	7018.73
655.225	7008.49
655.417	6975.72
655.61	7067.88
655.802	7076.07
655.994	6856.94
656.186	7031.02
656.379	6830.32
656.571	6738.16
656.763	6635.76
656.955	6596.85
657.148	6609.14
657.34	6637.81
657.532	6539.51
657.724	6445.3
657.916	6426.87
658.108	6394.1
658.3	6533.36
658.492	6465.78
658.684	6287.61
658.876	6109.43
659.068	6238.45
659.26	6244.6
659.452	6238.45
659.644	6045.95
659.836	5966.07
660.028	6009.08
660.22	5923.07
660.412	5966.07
660.604	5966.07
660.796	5957.88
660.988	5867.77
661.18	5804.28
661.372	5916.92
661.563	5892.35
661.755	5763.33
661.947	5794.04
662.139	5716.22
662.331	5736.7
662.522	5562.62
662.714	5601.54
662.906	5546.24
663.097	5595.39
663.289	5466.37
663.481	5329.16
663.673	5429.51
663.864	5288.2
664.056	5228.81
664.247	5312.77
664.439	5036.3
664.631	5329.16
664.822	5228.81
665.014	5157.13
665.205	5009.67
665.397	5009.67
665.588	4950.28
665.78	4899.08
665.971	4913.42
666.163	5085.45
666.354	4964.62
666.546	4901.13
666.737	4753.68
666.929	4819.21
667.12	4903.18
667.311	4876.55
667.503	4729.1
667.694	4651.28
667.885	4649.23
668.077	4630.8
668.268	4641.04
668.459	4614.41
668.651	4438.29
668.842	4528.4
669.033	4528.4
669.224	4385.04
669.416	4491.54
669.607	4526.35
669.798	4296.98
669.989	4540.69
670.18	4434.19
670.371	4188.44
670.563	4182.29
670.754	4407.57
670.945	4155.67
671.136	4344.08
671.327	4147.48
671.518	4202.77
671.709	4237.59
671.9	4014.36
672.091	4110.61
672.282	4106.52
672.473	4057.37
672.664	4215.06
672.855	4020.5
673.046	4135.19
673.237	3975.45
673.428	3975.45
673.619	4040.98
673.809	3946.78
674	3858.71
674.191	3952.92
674.382	3887.39
674.573	4006.17
674.764	3885.34
674.954	4020.5
675.145	3805.47
675.336	3787.04
675.527	3875.1
675.717	3868.95
675.908	3891.48
676.099	3840.28
676.289	3780.89
676.48	3729.69
676.671	3612.96
676.861	3737.88
677.052	3754.27
677.243	3678.49
677.433	3625.25
677.624	3645.73
677.814	3717.4
678.005	3649.82
678.195	3557.66
678.386	3594.53
678.576	3686.69
678.767	3600.67
678.957	3615.01
679.148	3504.42
679.338	3512.61
679.529	3477.79
679.719	3518.75
679.909	3399.97
680.1	3418.4
680.29	3408.16
680.481	3447.07
680.671	3555.62
680.861	3451.17
681.052	3524.9
681.242	3424.55
681.432	3524.9
681.622	3393.83
681.813	3328.29
682.003	3436.83
682.193	3293.48
682.383	3350.82
682.573	3363.11
682.764	3340.58
682.954	3340.58
683.144	3289.38
683.334	3418.4
683.524	3322.15
683.714	3268.9
683.904	3299.62
684.094	3275.04
684.284	3488.03
684.474	3270.95
684.664	3152.17
684.854	3393.83
685.044	3287.33
685.234	3307.81
685.424	3295.52
685.614	3246.37
685.804	3270.95
685.994	3170.6
686.184	3240.23
686.374	3170.6
686.564	3164.45
686.753	3172.64
686.943	3234.08
687.133	3154.21
687.323	3174.69
687.513	3152.17
687.702	3172.64
687.892	3076.39
688.082	3264.8
688.272	3152.17
688.461	3055.91
688.651	3115.3
688.841	3002.66
689.03	3039.53
689.22	2894.12
689.41	3029.29
689.599	2853.16
689.789	3045.67
689.979	3008.81
690.168	2959.66
690.358	2877.74
690.547	2969.9
690.737	2904.36
690.926	3062.05
691.116	2879.79
691.305	2988.33
691.495	2855.21
691.684	2871.59
691.874	3012.9
692.063	3062.05
692.252	2978.09
692.442	2885.93
692.631	2844.97
692.82	2863.4
693.01	2879.79
693.199	2926.89
693.388	2816.3
693.578	2783.53
693.767	2863.4
693.956	2926.89
694.146	2840.87
694.335	2771.24
694.524	2793.77
694.713	2707.76
694.902	2666.8
695.092	2771.24
695.281	2830.63
695.47	2847.02
695.659	2763.05
695.848	2674.99
696.037	2662.7
696.226	2820.39
696.415	2773.29
696.604	2744.62
696.793	2834.73
696.982	2758.96
697.171	2674.99
697.36	2701.61
697.549	2636.08
697.738	2582.83
697.927	2591.02
698.116	2726.19
698.305	2654.51
698.494	2683.18
698.683	2656.56
698.872	2718
699.061	2578.73
699.25	2679.08
699.438	2738.48
699.627	2634.03
699.816	2648.36
700.005	2507.06
700.193	2539.82
700.382	2550.06
700.571	2591.02
700.76	2582.83
700.948	2613.55
701.137	2543.92
701.326	2584.88
701.514	2500.91
701.703	2570.54
701.892	2541.87
702.08	2642.22
702.269	2627.89
702.457	2433.33
702.646	2603.31
702.834	2611.5
703.023	2535.73
703.212	2429.23
703.4	2519.34
703.589	2410.8
703.777	2459.95
703.965	2455.86
704.154	2464.05
704.342	2328.88
704.531	2492.72
704.719	2394.42
704.907	2554.16
705.096	2535.73
705.284	2339.12
705.472	2423.09
705.661	2525.49
705.849	2539.82
706.037	2414.9
706.226	2314.55
706.414	2394.42
706.602	2427.18
706.79	2474.29
706.979	2509.1
707.167	2347.31
707.355	2357.55
707.543	2271.54
707.731	2404.66
707.919	2365.75
708.107	2353.46
708.296	2236.72
708.484	2289.97
708.672	2369.84
708.86	2283.83
709.048	2228.53
709.236	2273.59
709.424	2304.31
709.612	2394.42
709.8	2163
709.988	2281.78
710.176	2365.75
710.364	2263.35
710.551	2310.45
710.739	2365.75
710.927	2292.02
711.115	2261.3
711.303	2236.72
711.491	2271.54
711.679	2167.09
711.866	2249.01
712.054	2193.72
712.242	2138.42
712.43	2165.04
712.617	2158.9
712.805	2201.91
712.993	2240.82
713.181	2128.18
713.368	2128.18
713.556	2142.52
713.744	2066.74
713.931	2156.85
714.119	2054.45
714.306	2134.32
714.494	2169.14
714.682	2128.18
714.869	2038.07
715.057	2216.24
715.244	2058.55
715.432	2138.42
715.619	2177.33
715.807	2013.49
715.994	2148.66
716.182	2062.65
716.369	2156.85
716.556	2148.66
716.744	2009.4
716.931	2115.89
717.119	2152.76
717.306	1986.87
717.493	2001.21
717.681	1927.48
717.868	2005.3
718.055	1956.15
718.242	1902.9
718.43	2085.17
718.617	2050.36
718.804	1993.01
718.991	2044.21
719.179	2083.13
719.366	2066.74
719.553	2101.56
719.74	1960.25
719.927	1974.58
720.114	2023.73
720.301	1984.82
720.488	1988.92
720.676	1898.81
720.863	2009.4
721.05	2013.49
721.237	1898.81
721.424	1972.54
721.611	1995.06
721.798	1954.1
721.985	2001.21
722.172	1878.33
722.358	1874.23
722.545	1907
722.732	1730.87
722.919	1870.14
723.106	1829.18
723.293	1878.33
723.48	1839.42
723.667	1853.75
723.853	1907
724.04	1812.79
724.227	1902.9
724.414	1833.27
724.6	1913.14
724.787	1788.22
724.974	1904.95
725.161	1861.94
725.347	1730.87
725.534	1960.25
725.72	1857.85
725.907	1806.65
726.094	1667.39
726.28	1808.7
726.467	1894.71
726.653	1798.46
726.84	1837.37
727.027	1870.14
727.213	1771.83
727.4	1896.76
727.586	1784.12
727.773	1763.64
727.959	1677.63
728.145	1751.35
728.332	1657.15
728.518	1667.39
728.705	1706.3
728.891	1773.88
729.077	1724.73
729.264	1681.72
729.45	1644.86
729.636	1718.59
729.823	1679.68
730.009	1689.92
730.195	1732.92
730.382	1638.72
730.568	1714.49
730.754	1681.72
730.94	1730.87
731.126	1601.85
731.313	1734.97
731.499	1685.82
731.685	1696.06
731.871	1696.06
732.057	1651
732.243	1569.09
732.429	1653.05
732.615	1669.44
732.801	1739.07
732.987	1624.38
733.173	1710.4
733.359	1702.2
733.545	1575.23
733.731	1608
733.917	1599.8
734.103	1659.2
734.289	1610.04
734.475	1677.63
734.661	1722.68
734.847	1583.42
735.033	1511.74
735.219	1597.76
735.404	1499.45
735.59	1579.33
735.776	1675.58
735.962	1642.81
736.148	1595.71
736.333	1579.33
736.519	1489.21
736.705	1487.17
736.89	1444.16
737.076	1554.75
737.262	1476.93
737.447	1497.41
737.633	1562.94
737.819	1513.79
738.004	1509.69
738.19	1358.14
738.375	1599.8
738.561	1521.98
738.747	1421.63
738.932	1411.39
739.118	1499.45
739.303	1485.12
739.489	1507.65
739.674	1542.46
739.859	1460.54
740.045	1407.3
740.23	1397.06
740.416	1427.78
740.601	1585.47
740.786	1521.98
740.972	1456.45
741.157	1476.93
741.342	1431.87
741.528	1419.58
741.713	1517.89
741.898	1427.78
742.084	1407.3
742.269	1397.06
742.454	1431.87
742.639	1315.14
742.824	1354.05
743.01	1337.66
743.195	1423.68
743.38	1272.13
743.565	1335.62
743.75	1321.28
743.935	1284.42
744.12	1397.06
744.305	1427.78
744.49	1245.51
744.675	1386.82
744.86	1294.66
745.045	1268.03
745.23	1349.95
745.415	1259.84
745.6	1317.19
745.785	1304.9
745.97	1317.19
746.155	1225.03
746.34	1304.9
746.525	1284.42
746.71	1349.95
746.895	1308.99
747.079	1190.21
747.264	1104.2
747.449	1190.21
747.634	1231.17
747.819	1177.92
748.003	1141.06
748.188	1186.12
748.373	1216.83
748.557	1157.44
748.742	1186.12
748.927	1165.64
749.111	1093.96
749.296	1120.58
749.481	1198.4
749.665	1130.82
749.85	1157.44
750.034	1136.96
750.219	1083.72
750.404	1083.72
750.588	1081.67
750.773	1159.49
750.957	1100.1
751.141	946.5
751.326	1102.15
751.51	1026.37
751.695	1065.29
751.879	1018.18
752.064	1038.66
752.248	1024.33
752.432	1042.76
752.617	979.27
752.801	1005.89
752.985	1026.37
753.17	960.84
753.354	966.98
753.538	1036.61
753.722	1020.23
753.907	997.7
754.091	921.93
754.275	1042.76
754.459	936.26
754.643	887.11
754.828	913.74
755.012	954.69
755.196	889.16
755.38	907.59
755.564	864.58
755.748	954.69
755.932	899.4
756.116	842.06
756.3	1024.33
756.484	854.34
756.668	930.12
756.852	821.58
757.036	846.15
757.22	880.97
757.404	837.96
757.588	850.25
757.772	805.19
757.956	878.92
758.14	878.92
758.323	788.81
758.507	844.1
758.691	862.54
758.875	825.67
759.059	821.58
759.242	731.47
759.426	743.75
759.61	831.82
759.794	794.95
759.977	749.9
760.161	782.67
760.345	805.19
760.528	854.34
760.712	758.09
760.895	700.75
761.079	762.19
761.263	782.67
761.446	710.99
761.63	762.19
761.813	702.79
761.997	776.52
762.18	794.95
762.364	778.57
762.547	725.32
762.731	741.71
762.914	733.51
763.098	797
763.281	723.27
763.464	764.23
763.648	710.99
763.831	772.43
764.015	641.36
764.198	715.08
764.381	657.74
764.564	770.38
764.748	674.12
764.931	694.6
765.114	678.22
765.297	743.75
765.481	627.02
765.664	670.03
765.847	610.64
766.03	747.85
766.213	602.44
766.397	723.27
766.58	567.63
766.763	686.41
766.946	575.82
767.129	665.93
767.312	534.86
767.495	645.45
767.678	584.01
767.861	553.29
768.044	557.39
768.227	579.92
768.41	629.07
768.593	690.51
768.776	616.78
768.959	641.36
769.142	665.93
769.324	594.25
769.507	641.36
769.69	674.12
769.873	616.78
770.056	670.03
770.239	561.48
770.421	717.13
770.604	694.6
770.787	561.48
770.97	551.24
771.152	596.3
771.335	592.2
771.518	493.9
771.7	657.74
771.883	682.31
772.066	584.01
772.248	567.63
772.431	549.2
772.613	538.96
772.796	604.49
772.978	577.87
773.161	596.3
773.343	612.68
773.526	536.91
773.708	526.67
773.891	545.1
774.073	512.33
774.256	516.43
774.438	592.2
774.621	545.1
774.803	575.82
774.985	469.33
775.168	518.48
775.35	493.9
775.532	530.77
775.715	477.52
775.897	534.86
776.079	555.34
776.261	487.76
776.444	489.81
776.626	477.52
776.808	430.41
776.99	389.46
777.173	518.48
777.355	454.99
777.537	498
777.719	452.94
777.901	485.71
778.083	491.85
778.265	448.85
778.447	411.98
778.629	420.17
778.811	454.99
778.993	395.6
779.175	493.9
779.357	551.24
779.539	414.03
779.721	428.37
779.903	428.37
780.085	379.22
780.267	399.7
780.449	471.37
780.631	397.65
780.812	436.56
780.994	436.56
781.176	426.32
781.358	399.7
781.54	430.41
781.721	373.07
781.903	371.02
782.085	414.03
782.267	432.46
782.448	332.11
782.63	323.92
782.812	383.31
782.993	368.98
783.175	381.26
783.357	383.31
783.538	389.46
783.72	428.37
783.901	414.03
784.083	401.74
784.264	362.83
784.446	305.49
784.627	315.73
784.809	336.21
784.99	280.91
785.172	350.54
785.353	362.83
785.535	383.31
785.716	395.6
785.897	274.77
786.079	362.83
786.26	239.95
786.441	405.84
786.623	235.86
786.804	364.88
786.985	313.68
787.167	285.01
787.348	321.87
787.529	313.68
787.71	371.02
787.891	307.54
788.073	362.83
788.254	303.44
788.435	289.1
788.616	338.26
788.797	305.49
788.978	248.15
789.159	295.25
789.34	366.93
789.522	264.53
789.703	231.76
789.884	254.29
790.065	315.73
790.246	321.87
790.427	256.34
790.607	289.1
790.788	299.34
790.969	268.63
791.15	332.11
791.331	256.34
791.512	248.15
791.693	186.71
791.874	215.38
792.054	323.92
792.235	217.43
792.416	194.9
792.597	219.47
792.778	305.49
792.958	289.1
793.139	227.67
793.32	223.57
793.5	131.41
793.681	221.52
793.862	225.62
794.042	141.65
794.223	233.81
794.404	252.24
794.584	225.62
794.765	203.09
794.945	184.66
795.126	242
795.306	221.52
795.487	201.04
795.667	162.13
795.848	272.72
796.028	133.46
796.209	174.42
796.389	213.33
796.57	162.13
796.75	291.15
796.93	246.1
797.111	143.7
797.291	231.76
797.471	254.29
797.652	141.65
797.832	201.04
798.012	149.84
798.192	223.57
798.373	108.88
798.553	209.23
798.733	121.17
798.913	186.71
799.093	135.51
799.274	227.67
799.454	182.61
799.634	176.47
799.814	194.9
799.994	250.19
800.174	266.58
800.354	158.03
800.534	166.23
800.714	244.05
800.894	178.51
801.074	166.23
801.254	211.28
801.434	149.84
801.614	233.81
801.794	160.08
801.974	807.24
802.154	186.71
802.334	166.23
802.514	162.13
802.693	205.14
802.873	141.65
803.053	256.34
803.233	166.23
803.413	121.17
803.592	207.19
803.772	166.23
803.952	166.23
804.131	137.56
804.311	180.56
804.491	203.09
804.67	104.79
804.85	133.46
805.03	196.95
805.209	244.05
805.389	96.6
805.568	145.75
805.748	166.23
805.928	151.89
806.107	141.65
806.287	164.18
806.466	190.8
806.646	98.64
806.825	147.8
807.004	88.4
807.184	151.89
807.363	76.12
807.543	176.47
807.722	96.6
807.901	139.6
808.081	92.5
808.26	117.08
808.439	96.6
808.619	119.12
808.798	98.64
808.977	100.69
809.156	231.76
809.336	112.98
809.515	190.8
809.694	100.69
809.873	186.71
810.052	127.32
810.231	92.5
810.411	59.73
810.59	170.32
810.769	135.51
810.948	127.32
811.127	53.59
811.306	121.17
811.485	178.51
811.664	225.62
811.843	143.7
812.022	160.08
812.201	88.4
812.38	170.32
812.559	147.8
812.737	137.56
812.916	90.45
813.095	129.36
813.274	141.65
813.453	86.36
813.632	102.74
813.811	135.51
813.989	67.92
814.168	92.5
814.347	45.4
814.526	147.8
814.704	186.71
814.883	102.74
815.062	117.08
815.24	170.32
815.419	92.5
815.598	133.46
815.776	76.12
815.955	119.12
816.133	24.92
816.312	182.61
816.49	78.16
816.669	84.31
816.847	119.12
817.026	88.4
817.204	108.88
817.383	90.45
817.561	26.96
817.74	94.55
817.918	100.69
818.097	100.69
818.275	55.64
818.453	88.4
818.632	96.6
818.81	55.64
818.988	110.93
819.167	88.4
819.345	112.98
819.523	149.84
819.701	98.64
819.879	153.94
820.058	80.21
820.236	125.27
820.414	51.54
820.592	84.31
820.77	37.2
820.948	55.64
821.127	121.17
821.305	92.5
821.483	102.74
821.661	94.55
821.839	119.12
822.017	67.92
822.195	117.08
822.373	184.66
822.551	135.51
822.729	12.63
822.907	65.88
823.085	61.78
823.262	78.16
823.44	45.4
823.618	47.44
823.796	129.36
823.974	117.08
824.152	78.16
824.329	57.68
824.507	45.4
824.685	125.27
824.863	39.25
825.04	43.35
825.218	94.55
825.396	102.74
825.574	100.69
825.751	74.07
825.929	110.93
826.107	4.44
826.284	151.89
826.462	94.55
826.639	84.31
826.817	61.78
826.994	108.88
827.172	100.69
827.349	149.84
827.527	92.5
827.704	65.88
827.882	88.4
828.059	31.06
828.237	53.59
828.414	153.94
828.591	47.44
828.769	69.97
828.946	49.49
829.124	110.93
829.301	84.31
829.478	84.31
829.655	82.26
829.833	29.01
830.01	51.54
830.187	86.36
830.364	104.79
830.542	61.78
830.719	61.78
830.896	45.4
831.073	94.55
831.25	18.77
831.427	72.02
831.604	43.35
831.782	53.59
831.959	117.08
832.136	10.58
832.313	43.35
832.49	59.73
832.667	96.6
832.844	59.73
833.021	121.17
833.198	-34.47
833.374	86.36
833.551	67.92
833.728	29.01
833.905	55.64
834.082	2.39
834.259	26.96
834.436	69.97
834.612	39.25
834.789	82.26
834.966	82.26
835.143	141.65
835.319	2.39
835.496	94.55
835.673	82.26
835.85	67.92
836.026	55.64
836.203	-13.99
836.38	90.45
836.556	76.12
836.733	96.6
836.909	92.5
837.086	78.16
837.262	10.58
837.439	45.4
837.616	2.39
837.792	55.64
837.968	78.16
838.145	-7.85
838.321	43.35
838.498	16.73
838.674	8.53
838.851	80.21
839.027	106.84
839.203	43.35
839.38	117.08
839.556	2.39
839.732	102.74
839.909	20.82
840.085	31.06
840.261	-30.38
840.437	63.83
840.614	-67.24
840.79	145.75
840.966	76.12
841.142	22.87
841.318	33.11
841.494	78.16
841.671	33.11
841.847	22.87
842.023	45.4
842.199	18.77
842.375	31.06
842.551	-20.14
842.727	-52.91
842.903	76.12
843.079	39.25
843.255	117.08
843.431	26.96
843.607	49.49
843.783	-24.23
843.959	43.35
844.134	63.83
844.31	59.73
844.486	-32.43
844.662	-7.85
844.838	51.54
845.013	-13.99
845.189	-1.71
845.365	2.39
845.541	29.01
845.716	-26.28
845.892	84.31
846.068	-30.38
846.244	78.16
846.419	-30.38
846.595	45.4
846.77	6.49
846.946	63.83
847.122	8.53
847.297	92.5
847.473	61.78
847.648	47.44
847.824	10.58
847.999	26.96
848.175	51.54
848.35	-20.14
848.526	76.12
848.701	12.63
848.876	14.68
849.052	14.68
849.227	35.16
849.403	26.96
849.578	72.02
849.753	37.2
849.929	72.02
850.104	22.87
850.279	31.06
850.454	-34.47
850.63	-69.29
850.805	33.11
850.98	84.31
851.155	24.92
851.33	35.16
851.505	39.25
851.681	117.08
851.856	18.77
852.031	51.54
852.206	-3.75
852.381	67.92
852.556	-26.28
852.731	10.58
852.906	51.54
853.081	12.63
853.256	112.98
853.431	-26.28
853.606	-44.71
853.781	14.68
853.956	-34.47
854.131	10.58
854.305	-50.86
854.48	57.68
854.655	-7.85
854.83	-28.33
855.005	76.12
855.18	35.16
855.354	-3.75
855.529	78.16
855.704	35.16
855.879	47.44
856.053	-11.95
856.228	55.64
856.403	-75.43
856.577	-46.76
856.752	59.73
856.926	51.54
857.101	4.44
857.276	35.16
857.45	43.35
857.625	72.02
857.799	63.83
857.974	-5.8
858.148	43.35
858.323	26.96
858.497	20.82
858.672	12.63
858.846	12.63
859.02	-3.75
859.195	10.58
859.369	12.63
859.543	29.01
859.718	67.92
859.892	39.25
860.066	0.34
860.241	-16.04
860.415	35.16
860.589	14.68
860.763	4.44
860.938	4.44
861.112	10.58
861.286	2.39
861.46	100.69
861.634	76.12
861.808	80.21
861.982	-9.9
862.157	8.53
862.331	-3.75
862.505	22.87
862.679	-69.29
862.853	37.2
863.027	29.01
863.201	20.82
863.375	74.07
863.549	14.68
863.722	74.07
863.896	-9.9
864.07	-18.09
864.244	0.34
864.418	31.06
864.592	-18.09
864.766	31.06
864.939	69.97
865.113	14.68
865.287	14.68
865.461	67.92
865.634	-18.09
865.808	26.96
865.982	22.87
866.156	-18.09
866.329	-26.28
866.503	43.35
866.676	45.4
866.85	26.96
867.024	10.58
867.197	10.58
867.371	-38.57
867.544	65.88
867.718	43.35
867.891	78.16
868.065	4.44
868.238	26.96
868.412	31.06
868.585	2.39
868.759	43.35
868.932	-40.62
869.105	-32.43
869.279	18.77
869.452	18.77
869.625	72.02
869.799	20.82
869.972	-77.48
870.145	35.16
870.319	2.39
870.492	-11.95
870.665	33.11
870.838	-13.99
871.011	10.58
871.185	12.63
871.358	-57
871.531	-28.33
871.704	20.82
871.877	-3.75
872.05	26.96
872.223	14.68
872.396	74.07
872.569	6.49
872.742	-3.75
872.915	65.88
873.088	18.77
873.261	-42.67
873.434	112.98
873.607	-24.23
873.78	-7.85
873.953	-18.09
874.126	18.77
874.299	55.64
874.471	51.54
874.644	37.2
874.817	26.96
874.99	80.21
875.163	-5.8
875.335	67.92
875.508	-69.29
875.681	59.73
875.853	35.16
876.026	26.96
876.199	35.16
876.371	90.45
876.544	-63.15
876.717	2.39
876.889	31.06
877.062	-20.14
877.234	-24.23
877.407	10.58
877.579	-22.19
877.752	-26.28
877.924	29.01
878.097	22.87
878.269	-34.47
878.442	39.25
878.614	26.96
878.786	-5.8
878.959	-26.28
879.131	-63.15
879.303	-65.19
879.476	-34.47
879.648	35.16
879.82	2.39
879.993	39.25
880.165	53.59
880.337	-85.67
880.509	39.25
880.681	-42.67
880.854	39.25
881.026	26.96
881.198	65.88
881.37	20.82
881.542	57.68
881.714	-13.99
881.886	2.39
882.058	-9.9
882.23	-38.57
882.402	37.2
882.574	12.63
882.746	-42.67
882.918	43.35
883.09	0.34
883.262	-32.43
883.434	2.39
883.606	8.53
883.778	8.53
883.95	51.54
884.122	55.64
884.293	-13.99
884.465	-63.15
884.637	37.2
884.809	-44.71
884.98	14.68
885.152	43.35
885.324	20.82
885.496	-22.19
885.667	-54.95
885.839	18.77
886.011	26.96
886.182	22.87
886.354	-9.9
886.525	18.77
886.697	12.63
886.869	-13.99
887.04	-32.43
887.212	-20.14
887.383	33.11
887.555	-22.19
887.726	-7.85
887.897	-20.14
888.069	59.73
888.24	-16.04
888.412	-22.19
888.583	-5.8
888.754	31.06
888.926	-18.09
889.097	59.73
889.268	-42.67
889.44	72.02
889.611	4.44
889.782	-95.91
889.953	-34.47
890.125	45.4
890.296	-26.28
890.467	31.06
890.638	-36.52
890.809	-26.28
890.98	-63.15
891.151	49.49
891.323	10.58
891.494	14.68
891.665	76.12
891.836	88.4
892.007	-22.19
892.178	-77.48
892.349	-5.8
892.52	-42.67
892.691	67.92
892.862	26.96
893.032	-24.23
893.203	74.07
893.374	37.2
893.545	-71.34
893.716	-38.57
893.887	59.73
894.057	-22.19
894.228	-30.38
894.399	-46.76
894.57	49.49
894.74	72.02
894.911	-38.57
895.082	14.68
895.253	-42.67
895.423	-13.99
895.594	18.77
895.764	-9.9
895.935	24.92
896.106	-40.62
896.276	2.39
896.447	6.49
896.617	51.54
896.788	2.39
896.958	4.44
897.129	-34.47
897.299	-34.47
897.47	-79.53
897.64	31.06
897.81	-26.28
897.981	14.68
898.151	-38.57
898.322	20.82
898.492	78.16
898.662	-46.76
898.832	-65.19
899.003	35.16
899.173	-16.04
899.343	-11.95
899.513	-34.47
