Data from USB4F104151__167__14-44-55-035.txt Node

Date: Thu Mar 13 14:44:55 EDT 2025
User: louis
Spectrometer: USB4F10415
Trigger mode: 4
Integration Time (sec): 2.000000E-2
Scans to average: 1
Electric dark correction enabled: true
Nonlinearity correction enabled: false
Boxcar width: 0
XAxis mode: Wavelengths
Number of Pixels in Spectrum: 3648
>>>>>Begin Spectral Data<<<<<
178.204	-139.43
178.424	-139.43
178.644	-139.43
178.864	-123.05
179.084	-90.28
179.304	-28.84
179.524	57.17
179.744	36.69
179.964	3.93
180.184	-71.85
180.404	36.69
180.624	-88.23
180.844	32.6
181.064	-57.51
181.283	20.31
181.503	32.6
181.723	26.45
181.943	-24.75
182.163	65.36
182.383	24.4
182.602	59.22
182.822	8.02
183.042	110.42
183.262	-57.51
183.482	44.88
183.701	65.36
183.921	63.32
184.141	16.21
184.361	1.88
184.58	12.12
184.8	28.5
185.02	75.6
185.239	135
185.459	36.69
185.679	114.52
185.898	65.36
186.118	122.71
186.338	34.64
186.557	108.37
186.777	36.69
186.997	34.64
187.216	10.07
187.436	98.13
187.655	85.84
187.875	-20.65
188.095	130.9
188.314	53.08
188.534	108.37
188.753	18.26
188.973	26.45
189.192	81.75
189.412	36.69
189.631	91.99
189.851	-0.17
190.07	59.22
190.29	24.4
190.509	20.31
190.729	10.07
190.948	98.13
191.168	94.04
191.387	91.99
191.607	34.64
191.826	12.12
192.045	16.21
192.265	8.02
192.484	30.55
192.704	67.41
192.923	-16.55
193.142	71.51
193.362	18.26
193.581	75.6
193.8	24.4
194.02	141.14
194.239	18.26
194.458	18.26
194.678	34.64
194.897	48.98
195.116	-0.17
195.335	81.75
195.555	89.94
195.774	30.55
195.993	98.13
196.212	24.4
196.432	-0.17
196.651	40.79
196.87	57.17
197.089	135
197.308	26.45
197.528	106.32
197.747	48.98
197.966	55.12
198.185	57.17
198.404	32.6
198.623	55.12
198.842	81.75
199.062	53.08
199.281	61.27
199.5	75.6
199.719	51.03
199.938	36.69
200.157	89.94
200.376	69.46
200.595	100.18
200.814	-8.36
201.033	61.27
201.252	91.99
201.471	40.79
201.69	30.55
201.909	75.6
202.128	65.36
202.347	40.79
202.566	85.84
202.785	-30.89
203.004	-8.36
203.223	83.8
203.442	26.45
203.661	32.6
203.879	44.88
204.098	141.14
204.317	-49.32
204.536	96.08
204.755	53.08
204.974	14.17
205.193	34.64
205.411	89.94
205.63	8.02
205.849	87.89
206.068	59.22
206.287	57.17
206.505	85.84
206.724	-28.84
206.943	32.6
207.162	89.94
207.381	53.08
207.599	42.84
207.818	102.23
208.037	38.74
208.255	8.02
208.474	34.64
208.693	81.75
208.911	51.03
209.13	100.18
209.349	48.98
209.567	24.4
209.786	59.22
210.005	34.64
210.223	96.08
210.442	22.36
210.661	81.75
210.879	3.93
211.098	-10.41
211.316	14.17
211.535	53.08
211.753	48.98
211.972	28.5
212.191	8.02
212.409	110.42
212.628	77.65
212.846	5.97
213.065	10.07
213.283	120.66
213.502	34.64
213.72	100.18
213.938	32.6
214.157	30.55
214.375	16.21
214.594	-14.51
214.812	53.08
215.031	-6.31
215.249	26.45
215.467	75.6
215.686	139.09
215.904	65.36
216.122	89.94
216.341	53.08
216.559	34.64
216.778	40.79
216.996	26.45
217.214	34.64
217.432	12.12
217.651	-24.75
217.869	-8.36
218.087	24.4
218.306	16.21
218.524	46.93
218.742	-32.94
218.96	16.21
219.179	-45.23
219.397	55.12
219.615	94.04
219.833	57.17
220.051	-30.89
220.27	18.26
220.488	110.42
220.706	32.6
220.924	32.6
221.142	38.74
221.36	114.52
221.578	40.79
221.796	53.08
222.015	30.55
222.233	24.4
222.451	73.56
222.669	36.69
222.887	42.84
223.105	-12.46
223.323	81.75
223.541	3.93
223.759	69.46
223.977	55.12
224.195	124.76
224.413	8.02
224.631	53.08
224.849	18.26
225.067	126.8
225.285	-37.03
225.503	38.74
225.721	-28.84
225.939	42.84
226.157	22.36
226.375	46.93
226.592	18.26
226.81	67.41
227.028	87.89
227.246	141.14
227.464	81.75
227.682	83.8
227.9	100.18
228.117	75.6
228.335	-24.75
228.553	44.88
228.771	61.27
228.989	65.36
229.206	-0.17
229.424	100.18
229.642	48.98
229.86	81.75
230.077	143.19
230.295	135
230.513	157.52
230.731	106.32
230.948	-22.7
231.166	141.14
231.384	3.93
231.601	73.56
231.819	14.17
232.037	20.31
232.254	22.36
232.472	40.79
232.689	67.41
232.907	124.76
233.125	3.93
233.342	20.31
233.56	42.84
233.777	32.6
233.995	55.12
234.213	32.6
234.43	30.55
234.648	1.88
234.865	-12.46
235.083	48.98
235.3	61.27
235.518	24.4
235.735	40.79
235.953	44.88
236.17	24.4
236.388	98.13
236.605	32.6
236.822	57.17
237.04	48.98
237.257	48.98
237.475	-39.08
237.692	28.5
237.909	65.36
238.127	38.74
238.344	114.52
238.562	73.56
238.779	3.93
238.996	-28.84
239.214	3.93
239.431	32.6
239.648	51.03
239.865	104.28
240.083	20.31
240.3	114.52
240.517	3.93
240.735	-30.89
240.952	67.41
241.169	96.08
241.386	65.36
241.603	26.45
241.821	28.5
242.038	108.37
242.255	40.79
242.472	-37.03
242.689	44.88
242.907	59.22
243.124	79.7
243.341	3.93
243.558	-8.36
243.775	-28.84
243.992	38.74
244.209	65.36
244.426	98.13
244.643	-0.17
244.86	151.38
245.078	36.69
245.295	34.64
245.512	83.8
245.729	20.31
245.946	42.84
246.163	42.84
246.38	42.84
246.597	-14.51
246.814	36.69
247.031	-10.41
247.248	106.32
247.464	63.32
247.681	34.64
247.898	75.6
248.115	-4.27
248.332	5.97
248.549	108.37
248.766	10.07
248.983	151.38
249.2	20.31
249.417	73.56
249.633	32.6
249.85	147.28
250.067	65.36
250.284	73.56
250.501	32.6
250.717	159.57
250.934	46.93
251.151	124.76
251.368	28.5
251.585	75.6
251.801	10.07
252.018	57.17
252.235	59.22
252.451	-8.36
252.668	-14.51
252.885	81.75
253.102	14.17
253.318	57.17
253.535	30.55
253.752	32.6
253.968	89.94
254.185	10.07
254.401	36.69
254.618	20.31
254.835	14.17
255.051	94.04
255.268	110.42
255.484	65.36
255.701	46.93
255.917	102.23
256.134	-22.7
256.351	34.64
256.567	79.7
256.784	36.69
257	8.02
257.217	73.56
257.433	40.79
257.65	32.6
257.866	124.76
258.082	40.79
258.299	-34.99
258.515	59.22
258.732	8.02
258.948	-8.36
259.165	20.31
259.381	8.02
259.597	59.22
259.814	28.5
260.03	36.69
260.246	57.17
260.463	89.94
260.679	114.52
260.895	26.45
261.112	53.08
261.328	1.88
261.544	36.69
261.761	48.98
261.977	48.98
262.193	-61.61
262.409	65.36
262.626	57.17
262.842	59.22
263.058	-0.17
263.274	75.6
263.49	48.98
263.707	73.56
263.923	-20.65
264.139	-47.27
264.355	10.07
264.571	102.23
264.787	112.47
265.004	53.08
265.22	16.21
265.436	81.75
265.652	20.31
265.868	114.52
266.084	-24.75
266.3	51.03
266.516	98.13
266.732	98.13
266.948	53.08
267.164	-47.27
267.38	57.17
267.596	32.6
267.812	96.08
268.028	20.31
268.244	5.97
268.46	48.98
268.676	69.46
268.892	98.13
269.108	69.46
269.324	20.31
269.54	130.9
269.756	53.08
269.972	65.36
270.188	24.4
270.403	8.02
270.619	63.32
270.835	16.21
271.051	98.13
271.267	8.02
271.483	143.19
271.698	-16.55
271.914	98.13
272.13	55.12
272.346	71.51
272.562	61.27
272.777	106.32
272.993	-16.55
273.209	67.41
273.425	65.36
273.64	8.02
273.856	114.52
274.072	32.6
274.287	42.84
274.503	57.17
274.719	112.47
274.934	40.79
275.15	83.8
275.366	32.6
275.581	-22.7
275.797	24.4
276.012	-20.65
276.228	42.84
276.444	81.75
276.659	114.52
276.875	-24.75
277.09	40.79
277.306	-24.75
277.521	73.56
277.737	40.79
277.952	67.41
278.168	108.37
278.383	57.17
278.599	20.31
278.814	5.97
279.03	-10.41
279.245	61.27
279.461	-6.31
279.676	40.79
279.892	34.64
280.107	28.5
280.322	-10.41
280.538	73.56
280.753	34.64
280.969	155.47
281.184	1.88
281.399	147.28
281.615	28.5
281.83	122.71
282.045	-6.31
282.26	48.98
282.476	34.64
282.691	75.6
282.906	122.71
283.122	42.84
283.337	69.46
283.552	26.45
283.767	10.07
283.983	94.04
284.198	16.21
284.413	73.56
284.628	-8.36
284.843	44.88
285.058	28.5
285.274	51.03
285.489	67.41
285.704	40.79
285.919	-73.9
286.134	106.32
286.349	10.07
286.564	87.89
286.779	116.56
286.995	81.75
287.21	8.02
287.425	-4.27
287.64	48.98
287.855	-39.08
288.07	-26.79
288.285	114.52
288.5	32.6
288.715	53.08
288.93	14.17
289.145	-6.31
289.36	165.71
289.575	-16.55
289.79	36.69
290.004	26.45
290.219	18.26
290.434	59.22
290.649	32.6
290.864	16.21
291.079	34.64
291.294	48.98
291.509	69.46
291.724	40.79
291.938	73.56
292.153	32.6
292.368	73.56
292.583	57.17
292.798	73.56
293.012	77.65
293.227	-22.7
293.442	42.84
293.657	22.36
293.871	89.94
294.086	28.5
294.301	98.13
294.516	73.56
294.73	83.8
294.945	48.98
295.16	20.31
295.374	8.02
295.589	65.36
295.804	-30.89
296.018	26.45
296.233	48.98
296.447	-0.17
296.662	22.36
296.877	104.28
297.091	71.51
297.306	40.79
297.52	96.08
297.735	34.64
297.949	38.74
298.164	-0.17
298.378	46.93
298.593	42.84
298.807	12.12
299.022	147.28
299.236	85.84
299.451	114.52
299.665	24.4
299.88	36.69
300.094	48.98
300.309	53.08
300.523	85.84
300.737	65.36
300.952	28.5
301.166	100.18
301.381	81.75
301.595	20.31
301.809	28.5
302.024	24.4
302.238	-4.27
302.452	8.02
302.667	69.46
302.881	94.04
303.095	102.23
303.309	24.4
303.524	-24.75
303.738	-0.17
303.952	44.88
304.166	24.4
304.381	-41.13
304.595	67.41
304.809	108.37
305.023	32.6
305.237	40.79
305.452	61.27
305.666	8.02
305.88	126.8
306.094	65.36
306.308	69.46
306.522	85.84
306.736	28.5
306.95	69.46
307.164	5.97
307.379	48.98
307.593	42.84
307.807	57.17
308.021	51.03
308.235	57.17
308.449	40.79
308.663	85.84
308.877	67.41
309.091	65.36
309.305	40.79
309.519	3.93
309.733	42.84
309.947	24.4
310.161	8.02
310.374	-6.31
310.588	139.09
310.802	89.94
311.016	-34.99
311.23	34.64
311.444	81.75
311.658	114.52
311.872	67.41
312.085	104.28
312.299	122.71
312.513	77.65
312.727	91.99
312.941	51.03
313.154	110.42
313.368	-0.17
313.582	18.26
313.796	81.75
314.009	36.69
314.223	81.75
314.437	55.12
314.651	110.42
314.864	32.6
315.078	48.98
315.292	20.31
315.505	5.97
315.719	34.64
315.933	102.23
316.146	-8.36
316.36	30.55
316.573	83.8
316.787	61.27
317.001	114.52
317.214	-26.79
317.428	32.6
317.641	32.6
317.855	34.64
318.068	51.03
318.282	69.46
318.495	73.56
318.709	143.19
318.922	14.17
319.136	63.32
319.349	83.8
319.563	-26.79
319.776	-24.75
319.99	24.4
320.203	8.02
320.417	-0.17
320.63	77.65
320.843	141.14
321.057	98.13
321.27	42.84
321.483	20.31
321.697	91.99
321.91	22.36
322.124	71.51
322.337	28.5
322.55	108.37
322.763	51.03
322.977	65.36
323.19	-6.31
323.403	40.79
323.617	20.31
323.83	116.56
324.043	20.31
324.256	61.27
324.469	3.93
324.683	75.6
324.896	73.56
325.109	36.69
325.322	46.93
325.535	132.95
325.748	71.51
325.962	102.23
326.175	57.17
326.388	59.22
326.601	71.51
326.814	32.6
327.027	34.64
327.24	149.33
327.453	-45.23
327.666	73.56
327.879	40.79
328.092	114.52
328.305	69.46
328.518	116.56
328.731	106.32
328.944	26.45
329.157	24.4
329.37	51.03
329.583	16.21
329.796	130.9
330.009	32.6
330.222	69.46
330.435	8.02
330.648	-6.31
330.861	48.98
331.073	65.36
331.286	63.32
331.499	83.8
331.712	20.31
331.925	3.93
332.138	20.31
332.35	100.18
332.563	-6.31
332.776	85.84
332.989	100.18
333.202	81.75
333.414	18.26
333.627	44.88
333.84	53.08
334.053	61.27
334.265	24.4
334.478	26.45
334.691	26.45
334.903	57.17
335.116	69.46
335.329	53.08
335.541	81.75
335.754	26.45
335.966	51.03
336.179	8.02
336.392	42.84
336.604	30.55
336.817	-0.17
337.029	94.04
337.242	26.45
337.454	44.88
337.667	73.56
337.88	48.98
338.092	57.17
338.305	89.94
338.517	3.93
338.729	-10.41
338.942	44.88
339.154	75.6
339.367	65.36
339.579	48.98
339.792	30.55
340.004	87.89
340.217	61.27
340.429	98.13
340.641	42.84
340.854	48.98
341.066	57.17
341.278	124.76
341.491	63.32
341.703	53.08
341.915	-32.94
342.128	51.03
342.34	42.84
342.552	38.74
342.764	28.5
342.977	-16.55
343.189	28.5
343.401	26.45
343.613	-41.13
343.826	46.93
344.038	-16.55
344.25	65.36
344.462	14.17
344.674	-0.17
344.886	48.98
345.099	110.42
345.311	-8.36
345.523	122.71
345.735	-2.22
345.947	89.94
346.159	89.94
346.371	48.98
346.583	38.74
346.795	118.61
347.007	24.4
347.219	53.08
347.431	61.27
347.643	51.03
347.855	59.22
348.067	24.4
348.279	40.79
348.491	48.98
348.703	57.17
348.915	87.89
349.127	65.36
349.339	44.88
349.551	28.5
349.763	40.79
349.975	75.6
350.187	16.21
350.399	67.41
350.61	120.66
350.822	48.98
351.034	161.62
351.246	98.13
351.458	188.24
351.669	53.08
351.881	57.17
352.093	139.09
352.305	57.17
352.517	83.8
352.728	53.08
352.94	20.31
353.152	67.41
353.363	42.84
353.575	20.31
353.787	53.08
353.999	40.79
354.21	44.88
354.422	67.41
354.633	44.88
354.845	12.12
355.057	48.98
355.268	16.21
355.48	102.23
355.692	36.69
355.903	67.41
356.115	10.07
356.326	-41.13
356.538	20.31
356.749	44.88
356.961	116.56
357.172	32.6
357.384	114.52
357.595	159.57
357.807	114.52
358.018	-51.37
358.23	48.98
358.441	132.95
358.653	61.27
358.864	163.67
359.075	55.12
359.287	65.36
359.498	51.03
359.709	100.18
359.921	40.79
360.132	73.56
360.344	42.84
360.555	34.64
360.766	81.75
360.977	3.93
361.189	81.75
361.4	24.4
361.611	44.88
361.823	20.31
362.034	16.21
362.245	69.46
362.456	63.32
362.667	100.18
362.879	83.8
363.09	87.89
363.301	42.84
363.512	67.41
363.723	28.5
363.935	65.36
364.146	112.47
364.357	79.7
364.568	83.8
364.779	91.99
364.99	89.94
365.201	65.36
365.412	124.76
365.623	139.09
365.834	8.02
366.045	116.56
366.256	57.17
366.467	83.8
366.678	48.98
366.889	77.65
367.1	12.12
367.311	98.13
367.522	65.36
367.733	87.89
367.944	122.71
368.155	44.88
368.366	77.65
368.577	-26.79
368.788	83.8
368.999	20.31
369.209	32.6
369.42	75.6
369.631	165.71
369.842	57.17
370.053	42.84
370.264	8.02
370.474	34.64
370.685	24.4
370.896	110.42
371.107	143.19
371.317	81.75
371.528	108.37
371.739	32.6
371.95	44.88
372.16	94.04
372.371	65.36
372.582	94.04
372.792	-0.17
373.003	149.33
373.214	130.9
373.424	89.94
373.635	8.02
373.846	67.41
374.056	32.6
374.267	106.32
374.477	44.88
374.688	61.27
374.898	48.98
375.109	122.71
375.319	81.75
375.53	98.13
375.74	102.23
375.951	71.51
376.161	73.56
376.372	149.33
376.582	57.17
376.793	130.9
377.003	24.4
377.214	67.41
377.424	57.17
377.635	36.69
377.845	59.22
378.055	59.22
378.266	-8.36
378.476	118.61
378.686	30.55
378.897	106.32
379.107	32.6
379.317	59.22
379.528	69.46
379.738	89.94
379.948	-32.94
380.158	96.08
380.369	83.8
380.579	163.67
380.789	30.55
380.999	65.36
381.21	98.13
381.42	196.43
381.63	16.21
381.84	116.56
382.05	87.89
382.261	42.84
382.471	51.03
382.681	85.84
382.891	85.84
383.101	108.37
383.311	69.46
383.521	137.04
383.731	81.75
383.941	106.32
384.151	26.45
384.361	40.79
384.571	26.45
384.781	104.28
384.991	118.61
385.201	151.38
385.411	102.23
385.621	16.21
385.831	55.12
386.041	73.56
386.251	40.79
386.461	98.13
386.671	73.56
386.881	73.56
387.091	67.41
387.301	46.93
387.511	75.6
387.72	-30.89
387.93	-12.46
388.14	32.6
388.35	48.98
388.56	130.9
388.769	98.13
388.979	157.52
389.189	114.52
389.399	89.94
389.609	106.32
389.818	32.6
390.028	40.79
390.238	75.6
390.447	83.8
390.657	65.36
390.867	20.31
391.076	26.45
391.286	1.88
391.496	51.03
391.705	118.61
391.915	100.18
392.125	59.22
392.334	83.8
392.544	98.13
392.753	63.32
392.963	51.03
393.172	132.95
393.382	12.12
393.591	77.65
393.801	94.04
394.01	91.99
394.22	24.4
394.429	81.75
394.639	143.19
394.848	139.09
395.058	132.95
395.267	81.75
395.477	124.76
395.686	106.32
395.895	108.37
396.105	143.19
396.314	48.98
396.524	100.18
396.733	24.4
396.942	98.13
397.152	98.13
397.361	130.9
397.57	122.71
397.78	81.75
397.989	114.52
398.198	135
398.407	100.18
398.617	135
398.826	85.84
399.035	114.52
399.244	130.9
399.453	69.46
399.663	65.36
399.872	67.41
400.081	83.8
400.29	135
400.499	98.13
400.708	161.62
400.917	83.8
401.127	143.19
401.336	139.09
401.545	204.63
401.754	149.33
401.963	163.67
402.172	145.24
402.381	81.75
402.59	53.08
402.799	137.04
403.008	153.43
403.217	163.67
403.426	139.09
403.635	81.75
403.844	118.61
404.053	147.28
404.262	75.6
404.471	180.05
404.68	114.52
404.888	182.1
405.097	116.56
405.306	173.91
405.515	173.91
405.724	165.71
405.933	167.76
406.142	141.14
406.35	188.24
406.559	198.48
406.768	239.44
406.977	278.35
407.185	202.58
407.394	173.91
407.603	186.19
407.812	221.01
408.02	141.14
408.229	26.45
408.438	147.28
408.646	167.76
408.855	229.2
409.064	212.82
409.272	307.02
409.481	261.97
409.69	231.25
409.898	313.17
410.107	278.35
410.315	311.12
410.524	343.89
410.733	268.11
410.941	329.55
411.15	302.93
411.358	356.18
411.567	434
411.775	370.51
411.984	454.48
412.192	356.18
412.401	501.58
412.609	450.38
412.818	540.49
413.026	526.16
413.234	427.85
413.443	380.75
413.651	501.58
413.86	571.21
414.068	577.36
414.276	614.22
414.485	573.26
414.693	712.52
414.901	655.18
415.11	649.04
415.318	694.09
415.526	700.23
415.734	694.09
415.943	632.65
416.151	794.44
416.359	782.15
416.567	798.54
416.776	921.42
416.984	896.84
417.192	956.23
417.4	857.93
417.608	884.55
417.817	874.31
418.025	966.47
418.233	1072.96
418.441	1081.16
418.649	1118.02
418.857	1244.99
419.065	1177.41
419.273	1113.92
419.481	1167.17
419.689	1281.86
419.897	1367.87
420.105	1345.34
420.313	1425.22
420.521	1449.79
420.729	1462.08
420.937	1564.48
421.145	1597.24
421.353	1746.75
421.561	1625.92
421.769	1730.36
421.977	1910.58
422.185	1875.77
422.393	1894.2
422.601	2015.03
422.809	1941.3
423.017	2002.74
423.224	2064.18
423.432	2187.06
423.64	2148.15
423.848	2543.41
424.056	2326.32
424.263	2623.28
424.471	2608.94
424.679	2471.73
424.887	2654
425.094	2772.78
425.302	2887.47
425.51	2967.34
425.718	3092.26
425.925	3135.27
426.133	3147.56
426.341	3235.62
426.548	3575.58
426.756	3450.66
426.964	3503.9
427.171	3671.84
427.379	3809.05
427.586	3899.16
427.794	3929.88
428.001	4169.49
428.209	4351.76
428.417	4187.93
428.624	4638.48
428.832	4624.14
429.039	4597.52
429.247	4624.14
429.454	4914.95
429.662	5428.99
429.869	5056.26
430.076	5521.15
430.284	5033.74
430.491	5256.97
430.699	5758.72
430.906	5828.35
431.114	5809.92
431.321	5910.27
431.528	6102.78
431.736	6237.94
431.943	6715.12
432.15	6674.16
432.358	6807.28
432.565	7003.88
432.772	7096.04
432.979	7429.86
433.187	7339.75
433.394	7667.42
433.601	8052.44
433.808	7966.43
434.016	7878.37
434.223	8277.72
434.43	8888.01
434.637	8543.95
434.844	9010.89
435.052	9473.73
435.259	9168.59
435.466	9404.1
435.673	9232.07
435.88	9762.5
436.087	10428.09
436.294	10464.95
436.501	10010.3
436.708	10223.29
436.915	10700.47
437.122	11194.03
437.329	11368.1
437.537	11419.3
437.743	11517.61
437.95	11591.33
438.157	12254.87
438.364	12715.67
438.571	12412.57
438.778	12592.79
438.985	13889.15
439.192	13098.64
439.399	13536.9
439.606	13276.81
439.813	13934.21
440.02	15033.97
440.227	14466.68
440.433	14454.39
440.64	14876.27
440.847	15167.09
441.054	15599.21
441.261	16246.37
441.467	16131.68
441.674	16488.03
441.881	16987.73
442.088	16883.28
442.294	16752.21
442.501	17309.26
442.708	17512.01
442.914	18011.71
443.121	18810.42
443.328	18404.92
443.534	19936.81
443.741	19336.75
443.948	19134
444.154	20516.38
444.361	20311.58
444.568	20452.89
444.774	20420.13
444.981	20461.09
445.187	21118.48
445.394	22183.43
445.6	21659.15
445.807	23758.31
446.013	22435.33
446.22	23107.06
446.426	24442.34
446.633	24288.74
446.839	25505.23
447.046	23940.58
447.252	25644.49
447.459	25581.01
447.665	25243.09
447.871	26549.7
448.078	27375.03
448.284	26291.65
448.491	27311.54
448.697	28317.09
448.903	28493.22
449.11	28519.84
449.316	28321.19
449.522	28769.69
449.728	29681.04
449.935	29670.8
450.141	29781.39
450.347	30391.69
450.553	29562.26
450.76	29984.14
450.966	30987.64
451.172	30442.88
451.378	31292.79
451.584	30926.21
451.791	31632.75
451.997	31546.74
452.203	31743.34
452.409	31960.43
452.615	31901.04
452.821	30563.71
453.027	30125.45
453.233	31874.41
453.44	30766.46
453.646	31155.58
453.852	31212.92
454.058	31499.64
454.264	30592.39
454.47	31444.34
454.676	30346.63
454.882	31862.13
455.088	28884.38
455.294	29457.81
455.5	30125.45
455.705	30137.74
455.911	28976.54
456.117	28704.16
456.323	28439.97
456.529	26721.73
456.735	27907.5
456.941	27018.68
457.147	26688.96
457.352	26017.22
457.558	25681.36
457.764	25794
457.97	25316.82
458.176	24892.89
458.381	24872.41
458.587	23574
458.793	23772.65
458.999	22320.64
459.204	24018.41
459.41	23199.22
459.616	21626.38
459.821	22062.6
460.027	21607.95
460.233	21374.48
460.438	20364.83
460.644	20700.7
460.85	19605.03
461.055	18800.18
461.261	19412.53
461.466	17686.09
461.672	17151.57
461.878	18601.53
462.083	17393.23
462.289	16961.11
462.494	16635.48
462.7	15943.27
462.905	15515.24
463.111	16199.26
463.316	16078.43
463.522	15912.55
463.727	15844.96
463.932	15871.59
464.138	15640.17
464.343	15941.22
464.549	15269.48
464.754	15814.24
464.959	15584.87
465.165	15236.72
465.37	15095.41
465.575	14292.6
465.781	15154.8
465.986	15119.98
466.191	14575.22
466.397	14364.28
466.602	13395.59
466.807	14059.13
467.012	14059.13
467.218	13784.71
467.423	13733.51
467.628	13813.38
467.833	14511.74
468.038	14098.05
468.244	13682.31
468.449	14263.93
468.654	13500.04
468.859	13289.1
469.064	13469.32
469.269	12813.97
469.474	12971.66
469.679	13219.47
469.885	12811.92
470.09	13256.33
470.295	13319.82
470.5	12773.01
470.705	12848.79
470.91	12418.71
471.115	12338.84
471.32	12756.63
471.525	12330.65
471.73	12254.87
471.935	12183.2
472.139	11574.95
472.344	11773.6
472.549	11767.46
472.754	11914.91
472.959	11509.41
473.164	11265.71
473.369	11136.68
473.574	11638.44
473.778	11353.77
473.983	11679.4
474.188	11337.38
474.393	10833.58
474.598	10876.59
474.802	10622.64
475.007	10391.22
475.212	10620.6
475.417	10249.91
475.621	10348.22
475.826	10450.61
476.031	9879.23
476.235	9961.15
476.44	10022.59
476.645	9776.83
476.849	9793.22
477.054	9541.32
477.259	9481.92
477.463	9651.91
477.668	9264.84
477.872	9457.35
478.077	9174.73
478.282	9037.52
478.486	8896.21
478.691	8965.84
478.895	9014.99
479.1	9105.1
479.304	8816.33
479.509	8681.17
479.713	8879.82
479.918	8484.56
480.122	8392.41
480.326	8636.11
480.531	8515.28
480.735	8371.93
480.94	8431.32
481.144	8687.31
481.348	8085.21
481.553	8298.2
481.757	8134.36
481.961	8273.62
482.166	8298.2
482.37	8117.98
482.574	8160.98
482.778	8158.94
482.983	8359.64
483.187	8052.44
483.391	8441.56
483.595	8021.72
483.8	8050.39
484.004	8029.91
484.208	8195.8
484.412	8345.3
484.616	8132.31
484.821	8167.13
485.025	8206.04
485.229	8199.9
485.433	8126.17
485.637	8201.94
485.841	7962.33
486.045	8128.22
486.249	8199.9
486.453	8124.12
486.657	8138.46
486.861	8316.63
487.065	8042.2
487.269	8128.22
487.473	8040.15
487.677	8154.84
487.881	8208.09
488.085	7982.81
488.289	8134.36
488.493	7991
488.697	8345.3
488.901	8136.41
489.105	8085.21
489.309	8326.87
489.512	8421.08
489.716	8171.22
489.92	8134.36
490.124	8242.9
490.328	8416.98
490.531	8406.74
490.735	8472.28
490.939	8433.36
491.143	8240.86
491.346	8343.25
491.55	8533.72
491.754	8470.23
491.958	8531.67
492.161	8535.76
492.365	8685.26
492.569	8640.21
492.772	8429.27
492.976	8625.87
493.18	8660.69
493.383	8933.07
493.587	8740.56
493.79	8959.69
493.994	8816.33
494.197	9070.28
494.401	8984.27
494.605	9225.93
494.808	9461.44
495.012	9154.25
495.215	9250.5
495.419	9311.94
495.622	9150.15
495.825	9412.29
496.029	9236.17
496.232	9578.18
496.436	9494.21
496.639	9819.84
496.843	9903.81
497.046	9932.48
497.249	10014.4
497.453	10108.6
497.656	10167.99
497.859	10112.7
498.063	10432.18
498.266	10589.88
498.469	10249.91
498.673	10325.69
498.876	10645.17
499.079	10837.68
499.282	10895.02
499.485	11103.92
499.689	11069.1
499.892	11101.87
500.095	11271.85
500.298	11400.87
500.501	11396.78
500.705	11669.16
500.908	11675.3
501.111	12041.89
501.314	12031.65
501.517	12207.77
501.72	12494.49
501.923	12306.07
502.126	12492.44
502.329	12877.46
502.532	12750.48
502.735	13319.82
502.938	13221.52
503.141	13123.21
503.344	13565.57
503.547	13598.34
503.75	13692.55
503.953	13989.5
504.156	14079.61
504.359	14253.69
504.562	14401.15
504.765	14507.64
504.968	14458.49
505.17	14616.18
505.373	14349.95
505.576	14972.53
505.779	15171.18
505.982	15355.5
506.185	15539.82
506.387	15670.89
506.59	15785.57
506.793	16025.18
506.996	16035.42
507.198	16576.09
507.401	16359
507.604	16723.54
507.807	16975.44
508.009	16973.39
508.212	17210.96
508.415	17344.08
508.617	17409.61
508.82	17899.08
509.022	17487.43
509.225	18228.8
509.428	18130.5
509.63	18632.25
509.833	18327.1
510.035	18990.64
510.238	18705.98
510.44	19220.02
510.643	19246.64
510.845	19455.53
511.048	19291.69
511.25	19740.2
511.453	20125.22
511.655	20561.44
511.858	20323.87
512.06	20575.77
512.262	20561.44
512.465	20778.52
512.667	21028.37
512.87	21304.85
513.072	21351.95
513.274	21460.49
513.477	21906.95
513.679	22195.71
513.881	22373.89
514.084	22439.42
514.286	22681.08
514.488	22906.36
514.69	23494.13
514.893	23336.43
515.095	23447.02
515.297	23555.57
515.499	23825.9
515.701	24045.03
515.904	24212.96
516.106	24665.56
516.308	24606.17
516.51	24821.21
516.712	24896.99
516.914	25441.75
517.116	25509.33
517.318	25963.98
517.52	26142.15
517.722	26166.73
517.925	26660.29
518.127	26928.57
518.329	26916.28
518.531	26637.76
518.733	27452.85
518.935	27696.56
519.136	27647.41
519.338	27985.32
519.54	27792.81
519.742	28005.8
519.944	28249.51
520.146	28814.75
520.348	28837.28
520.55	28792.22
520.752	29031.83
520.954	29693.33
521.155	29922.7
521.357	29715.86
521.559	30035.34
521.761	30363.01
521.963	30522.76
522.164	30539.14
522.366	30729.6
522.568	30958.97
522.77	30975.36
522.971	31485.3
523.173	31257.98
523.375	32011.63
523.576	31616.37
523.778	31925.61
523.98	32105.84
524.181	32478.57
524.383	32318.82
524.584	32623.97
524.786	33111.39
524.988	33074.52
525.189	33441.11
525.391	33338.71
525.592	33666.39
525.794	33488.21
525.995	33328.47
526.197	34198.86
526.398	33867.09
526.6	33977.68
526.801	34106.7
527.003	34794.82
527.204	34309.45
527.406	34391.37
527.607	34643.27
527.808	35171.64
528.01	34362.7
528.211	34919.74
528.412	35714.36
528.614	35245.37
528.815	35192.12
529.016	35624.25
529.218	35345.72
529.419	35697.97
529.62	35589.43
529.822	35095.87
530.023	35806.51
530.224	35810.61
530.425	35433.78
530.626	35185.98
530.828	35544.37
531.029	36570.41
531.23	35822.9
531.431	35794.23
531.632	36185.39
531.833	36107.57
532.035	36201.77
532.236	35890.48
532.437	36250.92
532.638	35894.58
532.839	36597.03
533.04	36648.23
533.241	35812.66
533.442	36908.32
533.643	36171.05
533.844	36371.75
534.045	36459.82
534.246	36107.57
534.447	36271.4
534.648	36341.03
534.849	36343.08
535.05	36169.01
535.251	36478.25
535.451	36388.14
535.652	36572.46
535.853	36554.02
536.054	36437.29
536.255	36705.57
536.456	35949.87
536.657	36924.71
536.857	36410.67
537.058	36365.61
537.259	36506.92
537.46	36719.91
537.66	35958.06
537.861	36390.19
538.062	36476.2
538.263	36840.74
538.463	36316.46
538.664	36267.31
538.865	36629.8
539.065	36556.07
539.266	36058.42
539.466	36758.82
539.667	36150.57
539.868	36713.77
540.068	36183.34
540.269	36304.17
540.469	36457.77
540.67	36134.19
540.87	36324.65
541.071	36009.26
541.271	36764.96
541.472	36609.32
541.672	36306.22
541.873	36093.23
542.073	35478.84
542.274	36179.25
542.474	36222.25
542.675	35810.61
542.875	36195.63
543.075	36140.33
543.276	36070.7
543.476	36392.23
543.676	36060.46
543.877	36220.2
544.077	36414.76
544.277	35861.81
544.478	36164.91
544.678	36166.96
544.878	36130.09
545.078	35812.66
545.279	35777.84
545.479	35884.34
545.679	36093.23
545.879	35988.78
546.079	35487.03
546.28	36130.09
546.48	35677.49
546.68	35865.91
546.88	36240.68
547.08	35908.91
547.28	35583.29
547.48	35652.92
547.68	35781.94
547.88	35487.03
548.081	36066.61
548.281	35544.37
548.481	35843.38
548.681	36171.05
548.881	35814.71
549.081	35851.57
549.28	35575.09
549.48	36050.22
549.68	35544.37
549.88	36050.22
550.08	35358.01
550.28	35853.62
550.48	35448.12
550.68	35956.02
550.88	35673.4
551.08	35628.34
551.279	35605.81
551.479	35343.67
551.679	35499.32
551.879	35474.74
552.079	35921.2
552.278	35474.74
552.478	35493.18
552.678	35722.55
552.878	35968.3
553.077	35364.15
553.277	35157.31
553.477	35718.45
553.676	35192.12
553.876	35319.1
554.076	35472.7
554.275	35353.91
554.475	34899.26
554.674	35497.27
554.874	35290.43
555.074	34800.96
555.273	35353.91
555.473	35566.9
555.672	34846.02
555.872	34886.98
556.071	35323.19
556.271	35392.83
556.47	34843.97
556.67	34747.72
556.869	34665.8
557.068	34827.59
557.268	34516.29
557.467	34624.84
557.667	35001.66
557.866	34755.91
558.065	34764.1
558.265	34766.15
558.464	34217.29
558.663	34645.32
558.863	34092.37
559.062	35122.49
559.261	34127.18
559.461	34397.51
559.66	34225.48
559.859	34264.39
560.058	33846.61
560.258	33965.39
560.457	34049.36
560.656	34598.21
560.855	34112.84
561.054	33940.82
561.253	33772.88
561.453	34211.15
561.652	33901.9
561.851	33531.22
562.05	33723.73
562.249	33535.32
562.448	33647.96
562.647	33908.05
562.846	33713.49
563.045	33852.75
563.244	33367.38
563.443	33721.68
563.642	33174.88
563.841	33260.89
564.04	33144.16
564.239	33381.72
564.438	32972.13
564.637	33080.67
564.836	33142.11
565.035	32781.67
565.234	32929.12
565.432	32787.81
565.631	32767.33
565.83	32769.38
566.029	32566.63
566.228	32464.23
566.427	32546.15
566.625	32386.41
566.824	31855.98
567.023	32275.82
567.222	32171.37
567.42	32402.79
567.619	32095.6
567.818	32253.29
568.016	32085.36
568.215	32095.6
568.414	31872.37
568.612	32497
568.811	31632.75
569.01	31559.03
569.208	31731.06
569.407	31567.22
569.605	31493.49
569.804	31645.04
570.002	31159.67
570.201	31796.59
570.4	30958.97
570.598	30803.33
570.797	31030.65
570.995	30809.47
571.193	30408.07
571.392	30877.05
571.59	30496.13
571.789	30727.55
571.987	30295.43
572.186	30686.59
572.384	30483.84
572.582	30623.11
572.781	30864.77
572.979	30180.74
573.177	30705.02
573.376	30537.09
573.574	30201.22
573.772	30070.15
573.971	29914.51
574.169	29797.77
574.367	29900.17
574.565	29717.9
574.763	29762.96
574.962	29541.78
575.16	29353.37
575.358	29410.71
575.556	29017.5
575.754	29967.76
575.952	29293.97
576.151	29320.6
576.349	28951.96
576.547	28781.98
576.745	29123.99
576.943	29089.18
577.141	28954.01
577.339	28966.3
577.537	28708.26
577.735	28808.61
577.933	28059.05
578.131	28898.72
578.329	28214.69
578.527	28456.36
578.725	28476.83
578.923	28179.88
579.121	28095.91
579.319	28411.3
579.516	28306.85
579.714	28306.85
579.912	27727.28
580.11	28067.24
580.308	27770.29
580.506	27766.19
580.704	27084.22
580.901	27379.12
581.099	27712.94
581.297	27329.97
581.495	27739.57
581.692	27385.27
581.89	26893.75
582.088	27362.74
582.285	27018.68
582.483	27180.47
582.681	27149.75
582.878	27248.05
583.076	26766.78
583.274	26908.09
583.471	26428.87
583.669	27096.5
583.866	26551.74
584.064	26658.24
584.262	26314.18
584.459	26576.32
584.657	26181.06
584.854	26303.94
585.052	25855.43
585.249	26232.26
585.447	26207.69
585.644	26082.76
585.841	25794
586.039	25892.3
586.236	25621.97
586.434	25636.3
586.631	25310.68
586.828	25542.1
587.026	25556.43
587.223	25611.73
587.42	25322.96
587.618	25357.78
587.815	25165.27
588.012	25026.01
588.21	25044.44
588.407	25222.61
588.604	25017.82
588.801	24661.47
588.999	24935.9
589.196	24892.89
589.393	24700.38
589.59	24401.38
589.787	24550.88
589.984	24514.02
590.182	24417.76
590.379	24440.29
590.576	23909.86
590.773	24114.66
590.97	23735.79
591.167	24305.12
591.364	23932.39
591.561	24042.98
591.758	23692.78
591.955	23678.44
592.152	23815.66
592.349	23561.71
592.546	23770.6
592.743	23487.98
592.94	23381.49
593.137	23502.32
593.334	23453.17
593.531	23166.45
593.727	23029.24
593.924	23326.19
594.121	23092.72
594.318	22760.95
594.515	22765.05
594.712	23053.81
594.908	22672.89
595.105	22773.24
595.302	22515.2
595.499	22607.36
595.696	22527.49
595.892	22165
596.089	22377.98
596.286	22601.21
596.482	22242.82
596.679	22052.36
596.876	22283.78
597.072	21990.92
597.269	22027.78
597.466	21865.99
597.662	21853.7
597.859	21771.79
598.055	21769.74
598.252	21593.61
598.448	21634.57
598.645	21462.54
598.841	21235.22
599.038	21376.53
599.234	21474.83
599.431	21425.68
599.627	21257.74
599.824	21433.87
600.02	20968.98
600.217	21052.95
600.413	20794.9
600.609	21001.75
600.806	20706.84
601.002	20985.37
601.198	20586.01
601.395	20686.36
601.591	20481.56
601.787	20606.49
601.984	20487.71
602.18	20413.98
602.376	20524.57
602.572	20303.39
602.769	20508.19
602.965	20227.62
603.161	20080.16
603.357	20020.77
603.553	20094.5
603.75	20033.06
603.946	19797.54
604.142	19848.74
604.338	19766.82
604.534	19609.13
604.73	19336.75
604.926	19451.44
605.122	19461.68
605.318	19492.4
605.514	19320.37
605.71	19340.85
605.906	19234.35
606.102	19271.22
606.298	19371.57
606.494	19093.04
606.69	18931.25
606.886	19369.52
607.082	18904.63
607.278	18839.09
607.474	18800.18
607.67	19060.27
607.866	18683.45
608.062	18890.29
608.257	19015.22
608.453	18783.8
608.649	18753.08
608.845	18378.3
609.041	18316.86
609.236	18587.19
609.432	18759.22
609.628	18511.42
609.824	18591.29
610.019	18503.23
610.215	18333.25
610.411	18609.72
610.606	18056.77
610.802	18177.6
610.998	18085.44
611.193	18116.16
611.389	17905.22
611.584	17983.04
611.78	18107.97
611.976	17954.37
612.171	17931.84
612.367	17923.65
612.562	17739.33
612.758	17573.45
612.953	17757.77
613.149	17839.69
613.344	17430.09
613.539	17776.2
613.735	17532.49
613.93	17636.94
614.126	17512.01
614.321	17878.6
614.517	17604.17
614.712	17501.77
614.907	17251.92
615.103	17671.75
615.298	17673.8
615.493	17546.83
615.688	17112.66
615.884	17587.78
616.079	17137.23
616.274	17364.56
616.47	17055.31
616.665	17350.22
616.86	16881.24
617.055	17004.11
617.25	16901.72
617.445	17139.28
617.641	16760.41
617.836	16813.65
618.031	16537.18
618.226	16924.24
618.421	16604.76
618.616	16905.81
618.811	16615
619.006	17022.55
619.201	16348.76
619.396	16440.92
619.591	16111.2
619.786	16268.89
619.981	16287.32
620.176	16510.55
620.371	15994.47
620.566	15902.31
620.761	16064.1
620.956	15937.12
621.151	15695.46
621.346	15933.03
621.541	15842.92
621.735	16086.62
621.93	15443.56
622.125	15337.07
622.32	15275.63
622.515	15402.6
622.709	15359.59
622.904	15246.96
623.099	14976.62
623.294	15017.58
623.488	15255.15
623.683	15105.65
623.878	14646.9
624.072	14704.24
624.267	14671.48
624.462	14507.64
624.656	14519.93
624.851	14577.27
625.046	14687.86
625.24	14401.15
625.435	14108.29
625.629	14198.4
625.824	14069.37
626.018	13952.64
626.213	13682.31
626.407	13903.49
626.602	13667.97
626.796	13647.49
626.991	13831.81
627.185	13584.01
627.38	13385.35
627.574	13358.73
627.768	13354.63
627.963	13227.66
628.157	13029.01
628.352	13143.69
628.546	12975.76
628.74	13131.4
628.935	12852.88
629.129	13049.49
629.323	12652.18
629.517	12623.51
629.712	12615.32
629.906	12730
630.1	12433.05
630.294	12394.14
630.489	12377.75
630.683	12312.22
630.877	12138.14
631.071	12181.15
631.265	12172.96
631.459	11927.2
631.653	12035.74
631.848	11832.99
632.042	11863.71
632.236	11988.64
632.43	11581.09
632.624	11914.91
632.818	11527.85
633.012	11488.93
633.206	11501.22
633.4	11388.58
633.594	11554.47
633.788	11380.39
633.982	11529.89
634.176	11122.35
634.369	11165.35
634.563	11062.96
634.757	11013.81
634.951	11132.59
635.145	11060.91
635.339	10958.51
635.533	10780.34
635.726	10905.26
635.92	10706.61
636.114	10735.28
636.308	10731.19
636.501	10489.53
636.695	10473.14
636.889	10358.46
637.083	10417.85
637.276	10301.11
637.47	10211
637.664	10415.8
637.857	10135.23
638.051	10120.89
638.244	10127.03
638.438	10110.65
638.632	10014.4
638.825	10034.88
639.019	9674.43
639.212	9782.98
639.406	9756.35
639.599	9674.43
639.793	9711.3
639.986	9606.85
640.18	9830.08
640.373	9453.25
640.567	9408.2
640.76	9535.17
640.954	9182.92
641.147	9391.81
641.34	9246.41
641.534	9201.35
641.727	9109.19
641.92	9348.81
642.114	9070.28
642.307	9043.66
642.5	8902.35
642.694	8888.01
642.887	9008.84
643.08	8822.48
643.273	8842.96
643.467	8683.22
643.66	8761.04
643.853	8541.91
644.046	8548.05
644.239	8462.04
644.432	8396.5
644.626	8546
644.819	8437.46
645.012	8300.25
645.205	8564.43
645.398	8347.35
645.591	8101.59
645.784	8005.34
645.977	7937.76
646.17	8085.21
646.363	8111.83
646.556	8103.64
646.749	7925.47
646.942	8097.5
647.135	7984.86
647.328	7882.46
647.521	7904.99
647.714	7751.39
647.907	7671.52
648.099	7642.85
648.292	7646.94
648.485	7552.74
648.678	7540.45
648.871	7446.24
649.064	7554.79
649.256	7409.38
649.449	7358.18
649.642	7380.71
649.835	7177.96
650.027	7137
650.22	7331.56
650.413	7241.45
650.605	7266.02
650.798	7241.45
650.991	7128.81
651.183	7157.48
651.376	6866.67
651.568	7057.13
651.761	7007.98
651.954	6883.05
652.146	6911.72
652.339	6905.58
652.531	6838
652.724	6790.89
652.916	6545.14
653.109	6774.51
653.301	6833.9
653.494	6643.44
653.686	6579.95
653.879	6751.98
654.071	6528.75
654.263	6358.77
654.456	6487.79
654.648	6520.56
654.84	6483.7
655.033	6397.68
655.225	6416.12
655.417	6383.35
655.61	6356.72
655.802	6297.33
655.994	6147.83
656.186	6221.56
656.379	6053.62
656.571	6182.65
656.763	6037.24
656.955	5934.84
657.148	5949.18
657.34	6049.53
657.532	5768.96
657.724	5883.64
657.916	6061.82
658.108	5918.46
658.3	5742.33
658.492	5916.41
658.684	5684.99
658.876	5771.01
659.068	5625.6
659.26	5578.5
659.452	5574.4
659.644	5633.79
659.836	5498.63
660.028	5482.24
660.22	5439.23
660.412	5447.43
660.604	5482.24
660.796	5478.15
660.988	5359.36
661.18	5312.26
661.372	5259.01
661.563	5416.71
661.755	5371.65
661.947	5347.08
662.139	5347.08
662.331	5259.01
662.522	5234.44
662.714	5269.25
662.906	5021.45
663.097	5209.86
663.289	4960.01
663.481	4982.54
663.673	4982.54
663.864	5097.22
664.056	4968.2
664.247	4964.11
664.439	4939.53
664.631	5046.02
664.822	4955.91
665.014	4882.19
665.205	4771.6
665.397	4800.27
665.588	4759.31
665.78	4742.92
665.971	4742.92
666.163	4802.32
666.354	4636.43
666.546	4689.68
666.737	4636.43
666.929	4507.41
667.12	4601.62
667.311	4546.32
667.503	4540.18
667.694	4534.03
667.885	4658.96
668.077	4497.17
668.268	4523.79
668.459	4579.09
668.651	4474.64
668.842	4439.83
669.033	4409.11
669.224	4423.44
669.416	4335.38
669.607	4392.72
669.798	4439.83
669.989	4421.39
670.18	4167.45
670.371	4194.07
670.563	4249.36
670.754	4120.34
670.945	4146.97
671.136	4220.69
671.327	4196.12
671.518	4204.31
671.709	4294.42
671.9	4185.88
672.091	4097.81
672.282	4052.76
672.473	4106.01
672.664	4097.81
672.855	4128.53
673.046	3919.64
673.237	3997.46
673.428	4081.43
673.619	3968.79
673.809	3981.08
674	3841.82
674.191	3890.97
674.382	3913.5
674.573	4015.9
674.764	3845.91
674.954	3792.67
675.145	3768.09
675.336	3813.15
675.527	3827.48
675.717	3833.63
675.908	3735.32
676.099	3915.55
676.289	3788.57
676.48	3698.46
676.671	3827.48
676.861	3710.75
677.052	3643.17
677.243	3643.17
677.433	3657.5
677.624	3809.05
677.814	3696.41
678.005	3604.25
678.195	3645.21
678.386	3680.03
678.576	3489.57
678.767	3604.25
678.957	3546.91
679.148	3677.98
679.338	3628.83
679.529	3575.58
679.719	3407.65
679.909	3594.01
680.1	3651.36
680.29	3555.1
680.481	3561.25
680.671	3462.94
680.861	3399.46
681.052	3493.66
681.242	3426.08
681.432	3518.24
681.622	3493.66
681.813	3489.57
682.003	3481.38
682.193	3434.27
682.383	3424.03
682.573	3333.92
682.764	3358.5
682.954	3460.9
683.144	3319.59
683.334	3338.02
683.524	3260.2
683.714	3415.84
683.904	3387.17
684.094	3374.88
684.284	3190.56
684.474	3329.83
684.664	3419.94
684.854	3317.54
685.044	3307.3
685.234	3252
685.424	3262.24
685.614	3235.62
685.804	3202.85
685.994	3370.79
686.184	3200.8
686.374	3223.33
686.564	3147.56
686.753	3096.36
686.943	3145.51
687.133	3305.25
687.323	3114.79
687.513	3102.5
687.702	3133.22
687.892	3184.42
688.082	3028.78
688.272	3112.74
688.461	3112.74
688.651	3051.3
688.841	3082.02
689.03	3067.69
689.22	2889.51
689.41	3041.06
689.599	2830.12
689.789	3063.59
689.979	2940.71
690.168	2971.43
690.358	2860.84
690.547	2895.66
690.737	2889.51
690.926	2920.23
691.116	2967.34
691.305	2862.89
691.495	2809.64
691.684	2856.75
691.874	2770.73
692.063	2795.31
692.252	2787.11
692.442	2858.79
692.631	2719.53
692.82	2785.07
693.01	2721.58
693.199	2647.85
693.388	2686.76
693.578	2635.57
693.767	2637.61
693.956	2623.28
694.146	2623.28
694.335	2498.35
694.524	2621.23
694.713	2627.37
694.902	2621.23
695.092	2561.84
695.281	2510.64
695.47	2572.08
695.659	2473.78
695.848	2533.17
696.037	2555.69
696.226	2557.74
696.415	2539.31
696.604	2580.27
696.793	2402.1
696.982	2500.4
697.171	2469.68
697.36	2457.39
697.549	2498.35
697.738	2504.5
697.927	2512.69
698.116	2432.82
698.305	2469.68
698.494	2467.63
698.683	2572.08
698.872	2404.14
699.061	2408.24
699.25	2436.91
699.438	2416.43
699.627	2367.28
699.816	2502.45
700.005	2311.99
700.193	2387.76
700.382	2447.15
700.571	2318.13
700.76	2354.99
700.948	2379.57
701.137	2350.9
701.326	2305.84
701.514	2361.14
701.703	2322.23
701.892	2377.52
702.08	2418.48
702.269	2367.28
702.457	2381.62
702.646	2326.32
702.834	2236.21
703.023	2342.71
703.212	2342.71
703.4	2248.5
703.589	2311.99
703.777	2406.19
703.965	2369.33
704.154	2428.72
704.342	2172.72
704.531	2344.75
704.719	2297.65
704.907	2338.61
705.096	2223.92
705.284	2367.28
705.472	2277.17
705.661	2240.31
705.849	2361.14
706.037	2295.6
706.226	2277.17
706.414	2301.75
706.602	2238.26
706.79	2271.03
706.979	2148.15
707.167	2215.73
707.355	2320.18
707.543	2277.17
707.731	2240.31
707.919	2271.03
708.107	2107.19
708.296	2205.49
708.484	2266.93
708.672	2191.16
708.86	2203.44
709.048	2277.17
709.236	2213.68
709.424	2361.14
709.612	2293.55
709.8	2154.29
709.988	2268.98
710.176	2424.62
710.364	2133.81
710.551	2262.83
710.739	2174.77
710.927	2318.13
711.115	2154.29
711.303	2228.02
711.491	2121.52
711.679	2142
711.866	2252.59
712.054	2293.55
712.242	2170.68
712.43	2303.79
712.617	2258.74
712.805	2170.68
712.993	2105.14
713.181	2127.67
713.368	2264.88
713.556	2303.79
713.744	2195.25
713.931	2350.9
714.119	2307.89
714.306	2299.7
714.494	2170.68
714.682	2182.96
714.869	2211.64
715.057	2238.26
715.244	2256.69
715.432	2236.21
715.619	2262.83
715.807	2264.88
715.994	2248.5
716.182	2346.8
716.369	2185.01
716.556	2219.83
716.744	2189.11
716.931	2228.02
717.119	2309.94
717.306	2182.96
717.493	2213.68
717.681	2301.75
717.868	2162.48
718.055	2135.86
718.242	2195.25
718.43	2213.68
718.617	2154.29
718.804	2193.2
718.991	2232.12
719.179	2211.64
719.366	2238.26
719.553	2305.84
719.74	2080.57
719.927	2172.72
720.114	2189.11
720.301	2223.92
720.488	2107.19
720.676	2215.73
720.863	2301.75
721.05	2205.49
721.237	2279.22
721.424	2219.83
721.611	2234.16
721.798	2262.83
721.985	2180.92
722.172	2139.96
722.358	2092.85
722.545	2244.4
722.732	2070.33
722.919	2322.23
723.106	2189.11
723.293	2258.74
723.48	2285.36
723.667	2107.19
723.853	2264.88
724.04	2123.57
724.227	2211.64
724.414	2187.06
724.6	2099
724.787	2221.88
724.974	2156.34
725.161	2262.83
725.347	2162.48
725.534	2228.02
725.72	2211.64
725.907	2201.4
726.094	2185.01
726.28	2207.54
726.467	2311.99
726.653	2268.98
726.84	2295.6
727.027	2219.83
727.213	2213.68
727.4	2127.67
727.586	2164.53
727.773	2211.64
727.959	2299.7
728.145	2291.51
728.332	2271.03
728.518	2205.49
728.705	2228.02
728.891	2170.68
729.077	2238.26
729.264	2268.98
729.45	2195.25
729.636	2176.82
729.823	2223.92
730.009	2195.25
730.195	2248.5
730.382	2168.63
730.568	2271.03
730.754	2178.87
730.94	2271.03
731.126	2293.55
731.313	2219.83
731.499	2195.25
731.685	2219.83
731.871	2060.09
732.057	2359.09
732.243	2193.2
732.429	2158.39
732.615	2219.83
732.801	2279.22
732.987	2268.98
733.173	2277.17
733.359	2264.88
733.545	2246.45
733.731	2103.09
733.917	2328.37
734.103	2178.87
734.289	2246.45
734.475	2199.35
734.661	2309.94
734.847	2236.21
735.033	2158.39
735.219	2262.83
735.404	2123.57
735.59	2113.33
735.776	2096.95
735.962	2262.83
736.148	2172.72
736.333	2244.4
736.519	2197.3
736.705	2260.79
736.89	2109.24
737.076	2174.77
737.262	2123.57
737.447	2342.71
737.633	2172.72
737.819	2254.64
738.004	2109.24
738.19	2277.17
738.375	2221.88
738.561	2244.4
738.747	2244.4
738.932	2066.23
739.118	2170.68
739.303	2137.91
739.489	2148.15
739.674	2031.41
739.859	2154.29
740.045	2115.38
740.23	2139.96
740.416	2049.85
740.601	2101.05
740.786	2125.62
740.972	2027.32
741.157	2055.99
741.342	1998.65
741.528	2023.22
741.713	2064.18
741.898	2055.99
742.084	2039.61
742.269	2113.33
742.454	1998.65
742.639	2094.9
742.824	1883.96
743.01	2066.23
743.195	2146.1
743.38	1908.54
743.565	2015.03
743.75	1990.45
743.935	1900.34
744.12	2006.84
744.305	2064.18
744.49	2060.09
744.675	1926.97
744.86	1857.34
745.045	1941.3
745.23	2055.99
745.415	1943.35
745.6	1875.77
745.785	1963.83
745.97	1941.3
746.155	1902.39
746.34	1871.67
746.525	1867.58
746.71	1916.73
746.895	1756.99
747.079	1949.5
747.264	1902.39
747.449	1797.95
747.634	1761.08
747.819	1861.43
748.003	1843
748.188	1695.55
748.373	1752.89
748.557	1791.8
748.742	1877.82
748.927	1769.27
749.111	1695.55
749.296	1787.71
749.481	1734.46
749.665	1730.36
749.85	1605.44
750.034	1779.51
750.219	1648.44
750.404	1670.97
750.588	1738.55
750.773	1511.23
750.957	1580.86
751.141	1597.24
751.326	1556.29
751.51	1576.77
751.695	1599.29
751.879	1634.11
752.064	1484.61
752.248	1652.54
752.432	1650.49
752.617	1572.67
752.801	1515.33
752.985	1580.86
753.17	1511.23
753.354	1556.29
753.538	1560.38
753.722	1423.17
753.907	1484.61
754.091	1437.5
754.275	1548.09
754.459	1392.45
754.643	1470.27
754.828	1470.27
755.012	1392.45
755.196	1427.26
755.38	1410.88
755.564	1316.67
755.748	1367.87
755.932	1435.46
756.116	1408.83
756.3	1288
756.484	1331.01
756.668	1419.07
756.852	1310.53
757.036	1331.01
757.22	1326.91
757.404	1339.2
757.588	1290.05
757.772	1279.81
757.956	1265.47
758.14	1335.1
758.323	1240.9
758.507	1236.8
758.691	1240.9
758.875	1232.71
759.059	1318.72
759.242	1247.04
759.426	1201.99
759.61	1195.84
759.794	1312.58
759.977	1175.36
760.161	1265.47
760.345	1261.38
760.528	1173.32
760.712	1193.8
760.895	1144.64
761.079	1154.88
761.263	1101.64
761.446	1081.16
761.63	1113.92
761.813	1099.59
761.997	1189.7
762.18	1070.92
762.364	1140.55
762.547	1036.1
762.731	1236.8
762.914	1204.03
763.098	1105.73
763.281	1109.83
763.464	1077.06
763.648	1050.44
763.831	993.09
764.015	1134.4
764.198	1056.58
764.381	1060.68
764.564	1132.36
764.748	1040.2
764.931	1023.81
765.114	976.71
765.297	978.76
765.481	1060.68
765.664	1015.62
765.847	966.47
766.03	1040.2
766.213	1019.72
766.397	941.89
766.58	984.9
766.763	1019.72
766.946	886.6
767.129	986.95
767.312	941.89
767.495	982.85
767.678	970.57
767.861	1019.72
768.044	999.24
768.227	1021.77
768.41	966.47
768.593	933.7
768.776	972.61
768.959	958.28
769.142	941.89
769.324	884.55
769.507	974.66
769.69	857.93
769.873	802.63
770.056	909.13
770.239	855.88
770.421	964.42
770.604	976.71
770.787	941.89
770.97	882.5
771.152	970.57
771.335	862.02
771.518	892.74
771.7	896.84
771.883	925.51
772.066	851.78
772.248	864.07
772.431	900.94
772.613	872.26
772.796	730.95
772.978	894.79
773.161	835.4
773.343	827.21
773.526	835.4
773.708	829.26
773.891	812.87
774.073	868.17
774.256	794.44
774.438	855.88
774.621	745.29
774.803	868.17
774.985	780.11
775.168	845.64
775.35	689.99
775.532	788.3
775.715	790.35
775.897	749.39
776.079	704.33
776.261	706.38
776.444	728.91
776.626	741.19
776.808	724.81
776.99	739.15
777.173	747.34
777.355	689.99
777.537	712.52
777.719	741.19
777.901	630.6
778.083	724.81
778.265	606.03
778.447	628.56
778.629	597.84
778.811	669.52
778.993	706.38
779.175	659.28
779.357	634.7
779.539	712.52
779.721	677.71
779.903	640.84
780.085	485.2
780.267	618.32
780.449	726.86
780.631	558.92
780.812	653.13
780.994	634.7
781.176	563.02
781.358	599.88
781.54	622.41
781.721	657.23
781.903	632.65
782.085	651.08
782.267	630.6
782.448	542.54
782.63	517.97
782.812	524.11
782.993	536.4
783.175	640.84
783.357	542.54
783.538	507.73
783.72	565.07
783.901	515.92
784.083	483.15
784.264	544.59
784.446	556.88
784.627	507.73
784.809	536.4
784.99	511.82
785.172	524.11
785.353	542.54
785.535	458.57
785.716	477.01
785.897	456.53
786.079	563.02
786.26	462.67
786.441	442.19
786.623	442.19
786.804	446.29
786.985	417.61
787.167	520.01
787.348	466.77
787.529	479.05
787.71	524.11
787.891	434
788.073	450.38
788.254	388.94
788.435	485.2
788.616	415.57
788.797	413.52
788.978	448.33
789.159	434
789.34	483.15
789.522	368.46
789.703	470.86
789.884	442.19
790.065	487.25
790.246	479.05
790.427	438.09
790.607	409.42
790.788	421.71
790.969	419.66
791.15	442.19
791.331	395.09
791.512	407.38
791.693	395.09
791.874	360.27
792.054	458.57
792.235	307.02
792.416	364.37
792.597	425.81
792.778	431.95
792.958	384.85
793.139	278.35
793.32	411.47
793.5	329.55
793.681	370.51
793.862	278.35
794.042	354.13
794.223	286.54
794.404	352.08
794.584	284.5
794.765	360.27
794.945	372.56
795.126	313.17
795.306	325.46
795.487	325.46
795.667	290.64
795.848	384.85
796.028	368.46
796.209	360.27
796.389	343.89
796.57	327.5
796.75	307.02
796.93	343.89
797.111	261.97
797.291	327.5
797.471	386.9
797.652	360.27
797.832	225.11
798.012	302.93
798.192	282.45
798.373	294.74
798.553	218.96
798.733	288.59
798.913	249.68
799.093	343.89
799.274	337.74
799.454	290.64
799.634	354.13
799.814	372.56
799.994	315.22
800.174	288.59
800.354	261.97
800.534	261.97
800.714	274.26
800.894	264.02
801.074	337.74
801.254	286.54
801.434	261.97
801.614	214.87
801.794	171.86
801.974	886.6
802.154	225.11
802.334	304.98
802.514	167.76
802.693	253.78
802.873	298.83
803.053	280.4
803.233	196.43
803.413	229.2
803.592	206.67
803.772	214.87
803.952	257.87
804.131	229.2
804.311	280.4
804.491	247.63
804.67	249.68
804.85	196.43
805.03	223.06
805.209	286.54
805.389	167.76
805.568	216.91
805.748	196.43
805.928	216.91
806.107	165.71
806.287	247.63
806.466	249.68
806.646	206.67
806.825	261.97
807.004	241.49
807.184	247.63
807.363	216.91
807.543	290.64
807.722	159.57
807.901	237.39
808.081	225.11
808.26	202.58
808.439	227.15
808.619	192.34
808.798	149.33
808.977	202.58
809.156	264.02
809.336	206.67
809.515	239.44
809.694	171.86
809.873	237.39
810.052	204.63
810.231	204.63
810.411	196.43
810.59	196.43
810.769	202.58
810.948	159.57
811.127	34.64
811.306	122.71
811.485	139.09
811.664	225.11
811.843	100.18
812.022	157.52
812.201	149.33
812.38	167.76
812.559	208.72
812.737	190.29
812.916	196.43
813.095	233.3
813.274	143.19
813.453	253.78
813.632	202.58
813.811	225.11
813.989	98.13
814.168	233.3
814.347	180.05
814.526	182.1
814.704	130.9
814.883	208.72
815.062	184.15
815.24	200.53
815.419	122.71
815.598	165.71
815.776	73.56
815.955	98.13
816.133	122.71
816.312	143.19
816.49	171.86
816.669	200.53
816.847	132.95
817.026	155.47
817.204	100.18
817.383	198.48
817.561	122.71
817.74	194.39
817.918	165.71
818.097	163.67
818.275	147.28
818.453	124.76
818.632	124.76
818.81	173.91
818.988	122.71
819.167	161.62
819.345	116.56
819.523	106.32
819.701	73.56
819.879	241.49
820.058	122.71
820.236	124.76
820.414	91.99
820.592	198.48
820.77	51.03
820.948	147.28
821.127	94.04
821.305	124.76
821.483	89.94
821.661	216.91
821.839	155.47
822.017	155.47
822.195	141.14
822.373	100.18
822.551	98.13
822.729	83.8
822.907	102.23
823.085	212.82
823.262	173.91
823.44	67.41
823.618	149.33
823.796	182.1
823.974	147.28
824.152	114.52
824.329	53.08
824.507	180.05
824.685	163.67
824.863	151.38
825.04	73.56
825.218	143.19
825.396	94.04
825.574	139.09
825.751	171.86
825.929	108.37
826.107	75.6
826.284	65.36
826.462	83.8
826.639	85.84
826.817	130.9
826.994	61.27
827.172	75.6
827.349	75.6
827.527	102.23
827.704	151.38
827.882	173.91
828.059	110.42
828.237	91.99
828.414	165.71
828.591	89.94
828.769	114.52
828.946	67.41
829.124	137.04
829.301	87.89
829.478	116.56
829.655	-12.46
829.833	108.37
830.01	20.31
830.187	36.69
830.364	57.17
830.542	65.36
830.719	98.13
830.896	114.52
831.073	65.36
831.25	153.43
831.427	167.76
831.604	112.47
831.782	130.9
831.959	143.19
832.136	-22.7
832.313	61.27
832.49	89.94
832.667	132.95
832.844	36.69
833.021	196.43
833.198	102.23
833.374	51.03
833.551	94.04
833.728	98.13
833.905	190.29
834.082	48.98
834.259	77.65
834.436	126.8
834.612	73.56
834.789	122.71
834.966	16.21
835.143	65.36
835.319	108.37
835.496	26.45
835.673	89.94
835.85	79.7
836.026	106.32
836.203	83.8
836.38	75.6
836.556	163.67
836.733	61.27
836.909	96.08
837.086	-14.51
837.262	69.46
837.439	96.08
837.616	36.69
837.792	100.18
837.968	48.98
838.145	42.84
838.321	106.32
838.498	77.65
838.674	46.93
838.851	79.7
839.027	139.09
839.203	20.31
839.38	116.56
839.556	96.08
839.732	73.56
839.909	18.26
840.085	32.6
840.261	57.17
840.437	100.18
840.614	34.64
840.79	108.37
840.966	59.22
841.142	141.14
841.318	77.65
841.494	8.02
841.671	106.32
841.847	61.27
842.023	73.56
842.199	126.8
842.375	89.94
842.551	51.03
842.727	38.74
842.903	155.47
843.079	48.98
843.255	128.85
843.431	85.84
843.607	126.8
843.783	44.88
843.959	40.79
844.134	-4.27
844.31	135
844.486	89.94
844.662	26.45
844.838	-4.27
845.013	114.52
845.189	24.4
845.365	112.47
845.541	132.95
845.716	65.36
845.892	79.7
846.068	145.24
846.244	61.27
846.419	71.51
846.595	36.69
846.77	26.45
846.946	40.79
847.122	61.27
847.297	10.07
847.473	110.42
847.648	55.12
847.824	104.28
847.999	139.09
848.175	147.28
848.35	151.38
848.526	147.28
848.701	44.88
848.876	124.76
849.052	77.65
849.227	79.7
849.403	106.32
849.578	114.52
849.753	65.36
849.929	75.6
850.104	61.27
850.279	24.4
850.454	-0.17
850.63	85.84
850.805	112.47
850.98	75.6
851.155	1.88
851.33	108.37
851.505	94.04
851.681	122.71
851.856	57.17
852.031	26.45
852.206	53.08
852.381	71.51
852.556	98.13
852.731	24.4
852.906	12.12
853.081	36.69
853.256	100.18
853.431	98.13
853.606	44.88
853.781	34.64
853.956	-32.94
854.131	8.02
854.305	34.64
854.48	48.98
854.655	24.4
854.83	48.98
855.005	55.12
855.18	143.19
855.354	79.7
855.529	98.13
855.704	53.08
855.879	16.21
856.053	24.4
856.228	1.88
856.403	24.4
856.577	8.02
856.752	3.93
856.926	-8.36
857.101	57.17
857.276	-16.55
857.45	89.94
857.625	40.79
857.799	53.08
857.974	-14.51
858.148	24.4
858.323	63.32
858.497	16.21
858.672	18.26
858.846	28.5
859.02	59.22
859.195	-10.41
859.369	57.17
859.543	1.88
859.718	59.22
859.892	48.98
860.066	85.84
860.241	114.52
860.415	-14.51
860.589	59.22
860.763	81.75
860.938	65.36
861.112	48.98
861.286	40.79
861.46	-51.37
861.634	59.22
861.808	65.36
861.982	28.5
862.157	34.64
862.331	34.64
862.505	3.93
862.679	34.64
862.853	36.69
863.027	108.37
863.201	55.12
863.375	12.12
863.549	75.6
863.722	59.22
863.896	51.03
864.07	28.5
864.244	24.4
864.418	106.32
864.592	91.99
864.766	75.6
864.939	8.02
865.113	32.6
865.287	57.17
865.461	-65.71
865.634	67.41
865.808	-8.36
865.982	57.17
866.156	-14.51
866.329	32.6
866.503	24.4
866.676	116.56
866.85	-28.84
867.024	55.12
867.197	20.31
867.371	110.42
867.544	42.84
867.718	26.45
867.891	-4.27
868.065	32.6
868.238	20.31
868.412	65.36
868.585	3.93
868.759	32.6
868.932	32.6
869.105	30.55
869.279	14.17
869.452	16.21
869.625	110.42
869.799	-0.17
869.972	-30.89
870.145	32.6
870.319	85.84
870.492	28.5
870.665	-6.31
870.838	24.4
871.011	-47.27
871.185	12.12
871.358	16.21
871.531	63.32
871.704	-16.55
871.877	51.03
872.05	28.5
872.223	-65.71
872.396	-47.27
872.569	8.02
872.742	-61.61
872.915	96.08
873.088	-20.65
873.261	40.79
873.434	98.13
873.607	-2.22
873.78	51.03
873.953	1.88
874.126	1.88
874.299	16.21
874.471	-8.36
874.644	-22.7
874.817	-32.94
874.99	89.94
875.163	28.5
875.335	59.22
875.508	57.17
875.681	46.93
875.853	-22.7
876.026	-28.84
876.199	59.22
876.371	-0.17
876.544	-6.31
876.717	26.45
876.889	59.22
877.062	69.46
877.234	16.21
877.407	42.84
877.579	59.22
877.752	34.64
877.924	75.6
878.097	59.22
878.269	-14.51
878.442	69.46
878.614	128.85
878.786	1.88
878.959	53.08
879.131	81.75
879.303	-80.04
879.476	28.5
879.648	91.99
879.82	10.07
879.993	42.84
880.165	3.93
880.337	53.08
880.509	1.88
880.681	-4.27
880.854	40.79
881.026	75.6
881.198	16.21
881.37	-6.31
881.542	53.08
881.714	57.17
881.886	3.93
882.058	24.4
882.23	24.4
882.402	-18.6
882.574	-30.89
882.746	46.93
882.918	71.51
883.09	73.56
883.262	22.36
883.434	5.97
883.606	-0.17
883.778	-20.65
883.95	53.08
884.122	-24.75
884.293	8.02
884.465	-0.17
884.637	44.88
884.809	-59.56
884.98	28.5
885.152	61.27
885.324	67.41
885.496	-63.66
885.667	-24.75
885.839	18.26
886.011	114.52
886.182	24.4
886.354	12.12
886.525	1.88
886.697	-0.17
886.869	22.36
887.04	24.4
887.212	132.95
887.383	114.52
887.555	69.46
887.726	16.21
887.897	81.75
888.069	81.75
888.24	44.88
888.412	75.6
888.583	3.93
888.754	3.93
888.926	32.6
889.097	55.12
889.268	-18.6
889.44	18.26
889.611	55.12
889.782	32.6
889.953	-55.47
890.125	18.26
890.296	1.88
890.467	38.74
890.638	85.84
890.809	24.4
890.98	-4.27
891.151	59.22
891.323	77.65
891.494	20.31
891.665	8.02
891.836	20.31
892.007	-12.46
892.178	10.07
892.349	-32.94
892.52	69.46
892.691	20.31
892.862	85.84
893.032	-6.31
893.203	-2.22
893.374	81.75
893.545	91.99
893.716	-43.18
893.887	61.27
894.057	18.26
894.228	-4.27
894.399	16.21
894.57	100.18
894.74	22.36
894.911	40.79
895.082	24.4
895.253	42.84
895.423	67.41
895.594	130.9
895.764	-4.27
895.935	46.93
896.106	44.88
896.276	44.88
896.447	87.89
896.617	24.4
896.788	20.31
896.958	16.21
897.129	18.26
897.299	18.26
897.47	85.84
897.64	20.31
897.81	24.4
897.981	-4.27
898.151	48.98
898.322	24.4
898.492	32.6
898.662	34.64
898.832	69.46
899.003	-16.55
899.173	-20.65
899.343	48.98
899.513	-61.61
