Data from USB4F104151__209__14-45-24-628.txt Node

Date: Thu Mar 13 14:45:24 EDT 2025
User: louis
Spectrometer: USB4F10415
Trigger mode: 4
Integration Time (sec): 2.000000E-2
Scans to average: 1
Electric dark correction enabled: true
Nonlinearity correction enabled: false
Boxcar width: 0
XAxis mode: Wavelengths
Number of Pixels in Spectrum: 3648
>>>>>Begin Spectral Data<<<<<
178.204	-192
178.424	-192
178.644	-192
178.864	-183.81
179.084	-77.31
179.304	12.8
179.524	-7.68
179.744	8.7
179.964	0.51
180.184	-5.63
180.404	74.24
180.624	2.56
180.844	-34.3
181.064	-36.35
181.283	4.61
181.503	-5.63
181.723	-13.82
181.943	-13.82
182.163	51.71
182.383	0.51
182.602	20.99
182.822	0.51
183.042	80.38
183.262	49.66
183.482	18.94
183.701	66.05
183.921	82.43
184.141	-17.92
184.361	125.44
184.58	49.66
184.8	16.9
185.02	-32.26
185.239	0.51
185.459	-46.59
185.679	57.86
185.898	-32.26
186.118	37.38
186.338	31.23
186.557	49.66
186.777	-7.68
186.997	12.8
187.216	-19.97
187.436	55.81
187.655	16.9
187.875	37.38
188.095	45.57
188.314	66.05
188.534	59.9
188.753	-30.21
188.973	-5.63
189.192	43.52
189.412	70.14
189.631	33.28
189.851	-3.58
190.07	61.95
190.29	-30.21
190.509	-48.64
190.729	2.56
190.948	68.09
191.168	133.63
191.387	25.09
191.607	41.47
191.826	74.24
192.045	29.18
192.265	33.28
192.484	74.24
192.704	16.9
192.923	18.94
193.142	35.33
193.362	59.9
193.581	115.2
193.8	6.66
194.02	49.66
194.239	45.57
194.458	33.28
194.678	-3.58
194.897	43.52
195.116	14.85
195.335	109.05
195.555	51.71
195.774	90.62
195.993	18.94
196.212	35.33
196.432	-22.02
196.651	29.18
196.87	59.9
197.089	107.01
197.308	74.24
197.528	25.09
197.747	37.38
197.966	-13.82
198.185	119.29
198.404	49.66
198.623	25.09
198.842	25.09
199.062	-13.82
199.281	16.9
199.5	20.99
199.719	51.71
199.938	43.52
200.157	43.52
200.376	41.47
200.595	94.72
200.814	41.47
201.033	35.33
201.252	33.28
201.471	23.04
201.69	10.75
201.909	25.09
202.128	35.33
202.347	82.43
202.566	-36.35
202.785	16.9
203.004	25.09
203.223	16.9
203.442	-7.68
203.661	0.51
203.879	35.33
204.098	-7.68
204.317	-50.69
204.536	-15.87
204.755	-19.97
204.974	0.51
205.193	-13.82
205.411	113.15
205.63	12.8
205.849	6.66
206.068	39.42
206.287	-5.63
206.505	31.23
206.724	35.33
206.943	-11.78
207.162	45.57
207.381	49.66
207.599	92.67
207.818	70.14
208.037	-26.11
208.255	0.51
208.474	25.09
208.693	8.7
208.911	23.04
209.13	-50.69
209.349	90.62
209.567	51.71
209.786	61.95
210.005	37.38
210.223	33.28
210.442	-7.68
210.661	27.14
210.879	20.99
211.098	16.9
211.316	88.57
211.535	35.33
211.753	37.38
211.972	51.71
212.191	18.94
212.409	18.94
212.628	41.47
212.846	0.51
213.065	90.62
213.283	61.95
213.502	47.62
213.72	4.61
213.938	45.57
214.157	-40.45
214.375	-32.26
214.594	49.66
214.812	-52.74
215.031	-7.68
215.249	-71.17
215.467	0.51
215.686	53.76
215.904	-40.45
216.122	37.38
216.341	90.62
216.559	86.53
216.778	49.66
216.996	66.05
217.214	18.94
217.432	25.09
217.651	49.66
217.869	57.86
218.087	29.18
218.306	-19.97
218.524	-30.21
218.742	-46.59
218.96	72.19
219.179	25.09
219.397	16.9
219.615	68.09
219.833	25.09
220.051	25.09
220.27	86.53
220.488	23.04
220.706	6.66
220.924	41.47
221.142	57.86
221.36	-24.06
221.578	49.66
221.796	-32.26
222.015	35.33
222.233	20.99
222.451	109.05
222.669	-62.98
222.887	90.62
223.105	-32.26
223.323	31.23
223.541	10.75
223.759	102.91
223.977	55.81
224.195	70.14
224.413	92.67
224.631	27.14
224.849	-22.02
225.067	98.81
225.285	16.9
225.503	-5.63
225.721	-46.59
225.939	16.9
226.157	80.38
226.375	115.2
226.592	29.18
226.81	-1.54
227.028	18.94
227.246	82.43
227.464	61.95
227.682	66.05
227.9	-34.3
228.117	31.23
228.335	31.23
228.553	35.33
228.771	51.71
228.989	86.53
229.206	25.09
229.424	68.09
229.642	33.28
229.86	8.7
230.077	90.62
230.295	64
230.513	41.47
230.731	78.33
230.948	12.8
231.166	4.61
231.384	-46.59
231.601	49.66
231.819	16.9
232.037	-1.54
232.254	49.66
232.472	10.75
232.689	33.28
232.907	86.53
233.125	51.71
233.342	-13.82
233.56	-22.02
233.777	20.99
233.995	10.75
234.213	117.25
234.43	-40.45
234.648	31.23
234.865	41.47
235.083	25.09
235.3	18.94
235.518	-48.64
235.735	59.9
235.953	-5.63
236.17	82.43
236.388	107.01
236.605	12.8
236.822	59.9
237.04	25.09
237.257	98.81
237.475	92.67
237.692	8.7
237.909	8.7
238.127	41.47
238.344	115.2
238.562	49.66
238.779	4.61
238.996	88.57
239.214	27.14
239.431	29.18
239.648	-28.16
239.865	51.71
240.083	115.2
240.3	57.86
240.517	16.9
240.735	68.09
240.952	16.9
241.169	29.18
241.386	61.95
241.603	66.05
241.821	20.99
242.038	12.8
242.255	53.76
242.472	-30.21
242.689	45.57
242.907	29.18
243.124	-32.26
243.341	-48.64
243.558	4.61
243.775	70.14
243.992	-34.3
244.209	64
244.426	27.14
244.643	-22.02
244.86	25.09
245.078	35.33
245.295	20.99
245.512	66.05
245.729	0.51
245.946	33.28
246.163	-48.64
246.38	66.05
246.597	29.18
246.814	12.8
247.031	51.71
247.248	27.14
247.464	-1.54
247.681	82.43
247.898	-30.21
248.115	55.81
248.332	25.09
248.549	49.66
248.766	33.28
248.983	20.99
249.2	-36.35
249.417	49.66
249.633	-7.68
249.85	61.95
250.067	18.94
250.284	25.09
250.501	49.66
250.717	35.33
250.934	0.51
251.151	0.51
251.368	51.71
251.585	33.28
251.801	25.09
252.018	-62.98
252.235	70.14
252.451	51.71
252.668	-65.02
252.885	8.7
253.102	-32.26
253.318	51.71
253.535	-5.63
253.752	37.38
253.968	20.99
254.185	-3.58
254.401	82.43
254.618	96.77
254.835	66.05
255.051	8.7
255.268	8.7
255.484	68.09
255.701	27.14
255.917	39.42
256.134	0.51
256.351	49.66
256.567	35.33
256.784	33.28
257	-56.83
257.217	31.23
257.433	94.72
257.65	-11.78
257.866	35.33
258.082	64
258.299	55.81
258.515	64
258.732	-15.87
258.948	49.66
259.165	39.42
259.381	8.7
259.597	8.7
259.814	76.29
260.03	-7.68
260.246	-5.63
260.463	31.23
260.679	33.28
260.895	57.86
261.112	10.75
261.328	25.09
261.544	-32.26
261.761	111.1
261.977	16.9
262.193	29.18
262.409	74.24
262.626	18.94
262.842	2.56
263.058	57.86
263.274	-40.45
263.49	119.29
263.707	115.2
263.923	18.94
264.139	12.8
264.355	107.01
264.571	35.33
264.787	84.48
265.004	33.28
265.22	-5.63
265.436	10.75
265.652	35.33
265.868	14.85
266.084	0.51
266.3	82.43
266.516	31.23
266.732	-1.54
266.948	82.43
267.164	39.42
267.38	-7.68
267.596	57.86
267.812	119.29
268.028	51.71
268.244	-19.97
268.46	16.9
268.676	12.8
268.892	-81.41
269.108	27.14
269.324	53.76
269.54	-48.64
269.756	127.49
269.972	0.51
270.188	57.86
270.403	39.42
270.619	49.66
270.835	-7.68
271.051	43.52
271.267	33.28
271.483	115.2
271.698	-9.73
271.914	51.71
272.13	25.09
272.346	84.48
272.562	25.09
272.777	41.47
272.993	2.56
273.209	0.51
273.425	61.95
273.64	-32.26
273.856	25.09
274.072	57.86
274.287	-11.78
274.503	37.38
274.719	57.86
274.934	72.19
275.15	-28.16
275.366	-3.58
275.581	-7.68
275.797	98.81
276.012	41.47
276.228	-7.68
276.444	18.94
276.659	45.57
276.875	-38.4
277.09	-7.68
277.306	37.38
277.521	41.47
277.737	49.66
277.952	27.14
278.168	-46.59
278.383	2.56
278.599	-5.63
278.814	86.53
279.03	-3.58
279.245	90.62
279.461	72.19
279.676	-11.78
279.892	37.38
280.107	-3.58
280.322	25.09
280.538	2.56
280.753	-50.69
280.969	-5.63
281.184	-15.87
281.399	100.86
281.615	33.28
281.83	41.47
282.045	-36.35
282.26	6.66
282.476	25.09
282.691	4.61
282.906	25.09
283.122	-9.73
283.337	29.18
283.552	-5.63
283.767	-32.26
283.983	74.24
284.198	-24.06
284.413	37.38
284.628	0.51
284.843	45.57
285.058	57.86
285.274	57.86
285.489	27.14
285.704	41.47
285.919	80.38
286.134	2.56
286.349	37.38
286.564	90.62
286.779	76.29
286.995	10.75
287.21	-11.78
287.425	37.38
287.64	20.99
287.855	37.38
288.07	68.09
288.285	8.7
288.5	115.2
288.715	141.82
288.93	43.52
289.145	70.14
289.36	47.62
289.575	43.52
289.79	16.9
290.004	70.14
290.219	76.29
290.434	31.23
290.649	18.94
290.864	18.94
291.079	70.14
291.294	33.28
291.509	6.66
291.724	45.57
291.938	35.33
292.153	18.94
292.368	-56.83
292.583	74.24
292.798	74.24
293.012	68.09
293.227	35.33
293.442	16.9
293.657	66.05
293.871	74.24
294.086	16.9
294.301	66.05
294.516	57.86
294.73	8.7
294.945	82.43
295.16	72.19
295.374	86.53
295.589	59.9
295.804	-15.87
296.018	-24.06
296.233	107.01
296.447	35.33
296.662	41.47
296.877	90.62
297.091	53.76
297.306	41.47
297.52	-30.21
297.735	35.33
297.949	25.09
298.164	107.01
298.378	66.05
298.593	61.95
298.807	-15.87
299.022	-46.59
299.236	59.9
299.451	78.33
299.665	0.51
299.88	20.99
300.094	74.24
300.309	53.76
300.523	84.48
300.737	51.71
300.952	20.99
301.166	14.85
301.381	94.72
301.595	18.94
301.809	61.95
302.024	25.09
302.238	20.99
302.452	115.2
302.667	18.94
302.881	78.33
303.095	76.29
303.309	25.09
303.524	-13.82
303.738	0.51
303.952	16.9
304.166	-9.73
304.381	-17.92
304.595	37.38
304.809	41.47
305.023	8.7
305.237	-54.78
305.452	59.9
305.666	117.25
305.88	51.71
306.094	45.57
306.308	16.9
306.522	43.52
306.736	57.86
306.95	74.24
307.164	27.14
307.379	70.14
307.593	16.9
307.807	68.09
308.021	80.38
308.235	16.9
308.449	-7.68
308.663	8.7
308.877	100.86
309.091	41.47
309.305	107.01
309.519	33.28
309.733	109.05
309.947	0.51
310.161	76.29
310.374	82.43
310.588	57.86
310.802	66.05
311.016	14.85
311.23	25.09
311.444	-3.58
311.658	43.52
311.872	59.9
312.085	-5.63
312.299	39.42
312.513	51.71
312.727	66.05
312.941	-13.82
313.154	31.23
313.368	23.04
313.582	49.66
313.796	82.43
314.009	33.28
314.223	0.51
314.437	35.33
314.651	10.75
314.864	0.51
315.078	47.62
315.292	74.24
315.505	-3.58
315.719	-9.73
315.933	-7.68
316.146	27.14
316.36	35.33
316.573	41.47
316.787	92.67
317.001	-11.78
317.214	-24.06
317.428	4.61
317.641	4.61
317.855	70.14
318.068	90.62
318.282	4.61
318.495	109.05
318.709	25.09
318.922	12.8
319.136	78.33
319.349	-11.78
319.563	-7.68
319.776	45.57
319.99	10.75
320.203	45.57
320.417	10.75
320.63	18.94
320.843	104.96
321.057	16.9
321.27	35.33
321.483	57.86
321.697	98.81
321.91	8.7
322.124	74.24
322.337	55.81
322.55	80.38
322.763	39.42
322.977	-11.78
323.19	8.7
323.403	57.86
323.617	55.81
323.83	61.95
324.043	86.53
324.256	49.66
324.469	-13.82
324.683	66.05
324.896	-54.78
325.109	68.09
325.322	18.94
325.535	49.66
325.748	23.04
325.962	70.14
326.175	29.18
326.388	16.9
326.601	104.96
326.814	33.28
327.027	20.99
327.24	27.14
327.453	41.47
327.666	41.47
327.879	119.29
328.092	68.09
328.305	-3.58
328.518	16.9
328.731	55.81
328.944	41.47
329.157	16.9
329.37	18.94
329.583	2.56
329.796	57.86
330.009	45.57
330.222	25.09
330.435	20.99
330.648	49.66
330.861	-7.68
331.073	33.28
331.286	-5.63
331.499	-1.54
331.712	-40.45
331.925	-7.68
332.138	53.76
332.35	27.14
332.563	43.52
332.776	55.81
332.989	20.99
333.202	25.09
333.414	31.23
333.627	-22.02
333.84	8.7
334.053	16.9
334.265	74.24
334.478	82.43
334.691	-13.82
334.903	33.28
335.116	16.9
335.329	-38.4
335.541	-28.16
335.754	45.57
335.966	86.53
336.179	35.33
336.392	0.51
336.604	25.09
336.817	-7.68
337.029	94.72
337.242	-22.02
337.454	109.05
337.667	-22.02
337.88	80.38
338.092	0.51
338.305	59.9
338.517	31.23
338.729	20.99
338.942	-60.93
339.154	23.04
339.367	35.33
339.579	31.23
339.792	20.99
340.004	23.04
340.217	-36.35
340.429	86.53
340.641	-32.26
340.854	18.94
341.066	115.2
341.278	92.67
341.491	98.81
341.703	-22.02
341.915	-79.36
342.128	80.38
342.34	41.47
342.552	-93.69
342.764	0.51
342.977	14.85
343.189	20.99
343.401	107.01
343.613	12.8
343.826	-11.78
344.038	39.42
344.25	33.28
344.462	-28.16
344.674	43.52
344.886	111.1
345.099	18.94
345.311	47.62
345.523	66.05
345.735	-56.83
345.947	70.14
346.159	49.66
346.371	8.7
346.583	16.9
346.795	102.91
347.007	49.66
347.219	94.72
347.431	25.09
347.643	74.24
347.855	8.7
348.067	104.96
348.279	8.7
348.491	49.66
348.703	-15.87
348.915	55.81
349.127	33.28
349.339	18.94
349.551	41.47
349.763	45.57
349.975	10.75
350.187	49.66
350.399	111.1
350.61	35.33
350.822	8.7
351.034	-11.78
351.246	41.47
351.458	41.47
351.669	27.14
351.881	43.52
352.093	61.95
352.305	51.71
352.517	23.04
352.728	123.39
352.94	68.09
353.152	43.52
353.363	-28.16
353.575	10.75
353.787	64
353.999	115.2
354.21	109.05
354.422	33.28
354.633	10.75
354.845	20.99
355.057	0.51
355.268	51.71
355.48	23.04
355.692	51.71
355.903	4.61
356.115	78.33
356.326	-7.68
356.538	29.18
356.749	94.72
356.961	49.66
357.172	-40.45
357.384	51.71
357.595	33.28
357.807	-7.68
358.018	33.28
358.23	76.29
358.441	-32.26
358.653	43.52
358.864	-65.02
359.075	-7.68
359.287	27.14
359.498	51.71
359.709	82.43
359.921	70.14
360.132	16.9
360.344	51.71
360.555	49.66
360.766	35.33
360.977	33.28
361.189	45.57
361.4	4.61
361.611	131.58
361.823	66.05
362.034	107.01
362.245	14.85
362.456	41.47
362.667	59.9
362.879	-46.59
363.09	41.47
363.301	-7.68
363.512	16.9
363.723	43.52
363.935	94.72
364.146	41.47
364.357	76.29
364.568	90.62
364.779	4.61
364.99	139.77
365.201	78.33
365.412	33.28
365.623	4.61
365.834	117.25
366.045	41.47
366.256	49.66
366.467	33.28
366.678	78.33
366.889	35.33
367.1	20.99
367.311	-7.68
367.522	-15.87
367.733	41.47
367.944	57.86
368.155	-32.26
368.366	-13.82
368.577	43.52
368.788	57.86
368.999	10.75
369.209	35.33
369.42	82.43
369.631	98.81
369.842	41.47
370.053	59.9
370.264	25.09
370.474	49.66
370.685	-7.68
370.896	57.86
371.107	84.48
371.317	66.05
371.528	61.95
371.739	82.43
371.95	37.38
372.16	107.01
372.371	53.76
372.582	33.28
372.792	66.05
373.003	8.7
373.214	109.05
373.424	27.14
373.635	88.57
373.846	100.86
374.056	76.29
374.267	27.14
374.477	16.9
374.688	16.9
374.898	88.57
375.109	16.9
375.319	74.24
375.53	152.06
375.74	57.86
375.951	16.9
376.161	49.66
376.372	100.86
376.582	-5.63
376.793	35.33
377.003	53.76
377.214	76.29
377.424	2.56
377.635	25.09
377.845	-3.58
378.055	8.7
378.266	49.66
378.476	61.95
378.686	92.67
378.897	20.99
379.107	25.09
379.317	68.09
379.528	16.9
379.738	33.28
379.948	70.14
380.158	94.72
380.369	74.24
380.579	51.71
380.789	41.47
380.999	57.86
381.21	70.14
381.42	74.24
381.63	104.96
381.84	57.86
382.05	55.81
382.261	20.99
382.471	125.44
382.681	104.96
382.891	33.28
383.101	35.33
383.311	49.66
383.521	76.29
383.731	43.52
383.941	98.81
384.151	115.2
384.361	8.7
384.571	51.71
384.781	49.66
384.991	41.47
385.201	135.68
385.411	41.47
385.621	86.53
385.831	35.33
386.041	10.75
386.251	31.23
386.461	131.58
386.671	74.24
386.881	25.09
387.091	35.33
387.301	43.52
387.511	35.33
387.72	25.09
387.93	53.76
388.14	29.18
388.35	82.43
388.56	25.09
388.769	0.51
388.979	47.62
389.189	41.47
389.399	82.43
389.609	80.38
389.818	35.33
390.028	92.67
390.238	51.71
390.447	8.7
390.657	117.25
390.867	53.76
391.076	53.76
391.286	51.71
391.496	78.33
391.705	66.05
391.915	72.19
392.125	18.94
392.334	35.33
392.544	16.9
392.753	47.62
392.963	0.51
393.172	8.7
393.382	25.09
393.591	86.53
393.801	59.9
394.01	115.2
394.22	86.53
394.429	90.62
394.639	135.68
394.848	53.76
395.058	51.71
395.267	145.92
395.477	94.72
395.686	100.86
395.895	111.1
396.105	121.34
396.314	117.25
396.524	-24.06
396.733	82.43
396.942	115.2
397.152	18.94
397.361	107.01
397.57	25.09
397.78	12.8
397.989	94.72
398.198	111.1
398.407	-5.63
398.617	47.62
398.826	49.66
399.035	49.66
399.244	66.05
399.453	127.49
399.663	18.94
399.872	94.72
400.081	20.99
400.29	90.62
400.499	41.47
400.708	117.25
400.917	78.33
401.127	61.95
401.336	98.81
401.545	188.93
401.754	109.05
401.963	109.05
402.172	29.18
402.381	18.94
402.59	78.33
402.799	129.53
403.008	98.81
403.217	109.05
403.426	164.35
403.635	98.81
403.844	74.24
404.053	82.43
404.262	82.43
404.471	139.77
404.68	129.53
404.888	70.14
405.097	39.42
405.306	147.97
405.515	66.05
405.724	123.39
405.933	186.88
406.142	160.25
406.35	88.57
406.559	129.53
406.768	242.17
406.977	229.88
407.185	180.73
407.394	160.25
407.603	104.96
407.812	229.88
408.02	221.69
408.229	264.7
408.438	156.16
408.646	123.39
408.855	229.88
409.064	229.88
409.272	225.79
409.481	262.65
409.69	180.73
409.898	199.16
410.107	229.88
410.315	252.41
410.524	262.65
410.733	254.46
410.941	256.51
411.15	313.85
411.358	299.52
411.567	397.82
411.775	305.66
411.984	352.76
412.192	340.47
412.401	367.1
412.609	406.01
412.818	373.24
413.026	510.46
413.234	442.87
413.443	410.11
413.651	471.54
413.86	408.06
414.068	498.17
414.276	494.07
414.485	543.22
414.693	522.74
414.901	629.24
415.11	547.32
415.318	559.61
415.526	594.42
415.734	643.57
415.943	651.77
416.151	668.15
416.359	655.86
416.567	696.82
416.776	707.06
416.984	729.59
417.192	723.44
417.4	758.26
417.608	786.93
417.817	821.75
418.025	838.13
418.233	967.15
418.441	850.42
418.649	979.44
418.857	1032.69
419.065	1038.83
419.273	1108.46
419.481	1114.61
419.689	1075.7
419.897	1178.09
420.105	1159.66
420.313	1307.12
420.521	1319.4
420.729	1403.37
420.937	1376.75
421.145	1434.09
421.353	1546.73
421.561	1454.57
421.769	1528.3
421.977	1653.22
422.185	1720.81
422.393	1737.19
422.601	1800.68
422.809	1782.24
423.017	1812.96
423.224	1896.93
423.432	2048.48
423.64	1894.88
423.848	2200.03
424.056	2138.59
424.263	2327
424.471	2269.66
424.679	2402.78
424.887	2460.12
425.094	2511.32
425.302	2433.5
425.51	2705.88
425.718	2736.6
425.925	2630.1
426.133	2836.95
426.341	2988.5
426.548	3090.9
426.756	3029.46
426.964	3107.28
427.171	3346.89
427.379	3336.65
427.586	3572.17
427.794	3711.43
428.001	3752.39
428.209	3965.38
428.417	3768.77
428.624	3932.61
428.832	4078.02
429.039	3998.15
429.247	4075.97
429.454	4417.98
429.662	4698.55
429.869	4442.56
430.076	4796.85
430.284	4508.09
430.491	4923.83
430.699	5145.01
430.906	5308.85
431.114	5106.1
431.321	5538.22
431.528	5452.2
431.736	5818.79
431.943	6013.35
432.15	5939.62
432.358	6005.16
432.565	6295.97
432.772	6181.28
432.979	6504.86
433.187	6664.6
433.394	6660.51
433.601	7266.71
433.808	7356.82
434.016	7115.16
434.223	7369.1
434.43	7651.72
434.637	7829.9
434.844	8362.37
435.052	8460.67
435.259	8290.69
435.466	8245.63
435.673	8440.19
435.88	8923.51
436.087	9181.56
436.294	9326.96
436.501	9003.38
436.708	9257.33
436.915	9527.66
437.122	10166.63
437.329	9896.3
437.537	10205.54
437.743	10348.9
437.95	10414.43
438.157	10932.57
438.364	11293.01
438.571	11282.77
438.778	11120.98
438.985	12224.84
439.192	11878.73
439.399	12171.59
439.606	11983.18
439.813	12626.24
440.02	13171
440.227	13123.9
440.433	13101.37
440.64	13601.07
440.847	13281.59
441.054	13828.4
441.261	14616.86
441.467	14324.01
441.674	14598.43
441.881	15233.3
442.088	15165.72
442.294	14858.53
442.501	15530.26
442.708	15706.38
442.914	16488.71
443.121	16851.2
443.328	16519.43
443.534	17660.15
443.741	17195.26
443.948	16967.93
444.154	18391.27
444.361	18428.13
444.568	18309.35
444.774	18141.42
444.981	18745.57
445.187	19108.06
445.394	19927.25
445.6	19402.97
445.807	21592.25
446.013	20316.36
446.22	20728
446.426	21590.2
446.633	21952.69
446.839	22952.1
447.046	21780.66
447.252	22886.56
447.459	22823.08
447.665	22814.88
447.871	23861.4
448.078	24944.77
448.284	23472.28
448.491	24381.58
448.697	25311.36
448.903	25845.88
449.11	25942.13
449.316	25321.6
449.522	25897.08
449.728	26378.35
449.935	26792.04
450.141	26699.88
450.347	27365.47
450.553	26353.77
450.76	26845.29
450.966	27742.3
451.172	27590.75
451.378	28446.8
451.584	27732.06
451.791	28305.49
451.997	28317.78
452.203	28661.83
452.409	28661.83
452.615	28727.37
452.821	27789.4
453.027	27162.72
453.233	28987.46
453.44	27701.34
453.646	27983.96
453.852	28100.69
454.058	28686.41
454.264	27682.91
454.47	28610.64
454.676	27697.24
454.882	28545.1
455.088	26048.63
455.294	26544.23
455.5	26855.53
455.705	27230.3
455.911	26153.07
456.117	25753.72
456.323	25192.58
456.529	24318.09
456.735	25448.57
456.941	24531.08
457.147	24072.34
457.352	23603.35
457.558	23287.96
457.764	23212.19
457.97	22900.9
458.176	22059.18
458.381	22159.53
458.587	21215.42
458.793	21231.8
458.999	20183.24
459.204	21604.53
459.41	21080.25
459.616	19638.48
459.821	19681.49
460.027	19632.34
460.233	19302.62
460.438	18299.11
460.644	18233.58
460.85	17619.19
461.055	17389.81
461.261	17367.29
461.466	16132.36
461.672	15718.67
461.878	16574.72
462.083	15591.7
462.289	15479.06
462.494	15167.77
462.7	14569.76
462.905	13801.77
463.111	14776.61
463.316	14514.47
463.522	14270.76
463.727	14104.87
463.932	14211.37
464.138	14088.49
464.343	14237.99
464.549	13732.14
464.754	14072.11
464.959	14297.38
465.165	13818.16
465.37	13525.3
465.575	12962.11
465.781	13758.77
465.986	13588.78
466.191	13203.77
466.397	12710.21
466.602	12304.71
466.807	12632.38
467.012	12613.95
467.218	12544.32
467.423	12353.86
467.628	12548.42
467.833	13058.36
468.038	12562.75
468.244	12253.51
468.449	12812.6
468.654	12370.24
468.859	12147.01
469.064	12323.14
469.269	11788.62
469.474	11594.06
469.679	12194.12
469.885	11673.93
470.09	11704.65
470.295	11741.52
470.5	11405.65
470.705	11471.18
470.91	11233.62
471.115	11329.88
471.32	11374.93
471.525	11481.42
471.73	11155.8
471.935	10807.64
472.139	10570.08
472.344	10873.18
472.549	10852.7
472.754	10549.6
472.959	10367.33
473.164	10234.21
473.369	9957.74
473.574	10318.18
473.778	10309.99
473.983	10033.51
474.188	10084.71
474.393	9449.84
474.598	9757.04
474.802	9464.18
475.007	9597.29
475.212	9544.05
475.417	9183.6
475.621	9326.96
475.826	9048.44
476.031	9087.35
476.235	8851.83
476.44	9019.77
476.645	8950.14
476.849	8817.02
477.054	8767.87
477.259	8659.32
477.463	8542.59
477.668	8511.87
477.872	8540.54
478.077	8352.13
478.282	8143.24
478.486	8393.09
478.691	7858.57
478.895	7958.92
479.1	8173.96
479.304	7936.39
479.509	7715.21
479.713	7960.97
479.918	7833.99
480.122	7686.54
480.326	7899.53
480.531	7651.72
480.735	7618.96
480.94	7440.78
481.144	7645.58
481.348	7446.93
481.553	7573.9
481.757	7352.72
481.961	7561.61
482.166	7635.34
482.37	7436.69
482.574	7250.32
482.778	7512.46
482.983	7729.55
483.187	7381.39
483.391	7618.96
483.595	7496.08
483.8	7256.47
484.004	7508.37
484.208	7481.74
484.412	7328.14
484.616	7430.54
484.821	7397.78
485.025	7164.31
485.229	7592.33
485.433	7276.94
485.637	7471.5
485.841	7389.58
486.045	7272.85
486.249	7512.46
486.453	7418.25
486.657	7365.01
486.861	7324.05
487.065	7201.17
487.269	7371.15
487.473	7274.9
487.677	7381.39
487.881	7375.25
488.085	7270.8
488.289	7453.07
488.493	7244.18
488.697	7526.8
488.901	7545.23
489.105	7309.71
489.309	7442.83
489.512	7426.45
489.716	7674.25
489.92	7383.44
490.124	7471.5
490.328	7442.83
490.531	7553.42
490.735	7682.44
490.939	7569.8
491.143	7530.89
491.346	7659.92
491.55	7612.81
491.754	7700.87
491.958	7760.27
492.161	7866.76
492.365	7604.62
492.569	7840.14
492.772	7633.29
492.976	7922.06
493.18	7897.48
493.383	8024.45
493.587	8042.89
493.79	8313.22
493.994	8024.45
494.197	8143.24
494.401	8165.76
494.605	8202.63
494.808	8348.03
495.012	8266.11
495.215	8350.08
495.419	8538.49
495.622	8309.12
495.825	8688
496.029	8513.92
496.232	8771.96
496.436	8655.23
496.639	8937.85
496.843	8821.11
497.046	8989.05
497.249	9128.31
497.453	9187.7
497.656	9372.02
497.859	9398.64
498.063	9206.13
498.266	9660.78
498.469	9453.94
498.673	9679.21
498.876	9720.17
499.079	9757.04
499.282	9998.7
499.485	10191.2
499.689	10320.23
499.892	10361.19
500.095	10461.54
500.298	10492.26
500.501	10455.39
500.705	10725.72
500.908	11016.54
501.111	10985.82
501.314	10985.82
501.517	11069.78
501.72	11356.5
501.923	11149.65
502.126	11624.78
502.329	11718.99
502.532	11714.89
502.735	12052.81
502.938	12063.05
503.141	12155.21
503.344	12503.36
503.547	12364.1
503.75	12609.86
503.953	12525.89
504.156	12898.62
504.359	12779.84
504.562	12886.33
504.765	13310.26
504.968	13531.44
505.17	13568.3
505.373	13492.53
505.576	13549.87
505.779	13803.82
505.982	14197.03
506.185	14332.2
506.387	14381.35
506.59	14420.26
506.793	14694.69
506.996	14831.9
507.198	15114.52
507.401	15026.46
507.604	15221.02
507.807	15755.54
508.009	15624.47
508.212	15778.06
508.415	15847.69
508.617	15950.09
508.82	16177.42
509.022	16279.82
509.225	16953.6
509.428	16802.05
509.63	16875.77
509.833	16998.65
510.035	17549.56
510.238	17178.87
510.44	17453.3
510.643	17584.37
510.845	17879.28
511.048	18008.3
511.25	18149.61
511.453	18163.95
511.655	18884.83
511.858	18618.6
512.06	18630.88
512.262	19130.59
512.465	18862.3
512.667	19427.54
512.87	19714.26
513.072	19644.63
513.274	20005.07
513.477	20070.61
513.679	20113.61
513.881	20469.96
514.084	20756.68
514.286	20773.06
514.488	21084.35
514.69	21539
514.893	21358.78
515.095	21797.04
515.297	22010.03
515.499	22210.73
515.701	22466.73
515.904	22220.97
516.106	22628.52
516.308	22956.19
516.51	23036.06
516.712	23060.64
516.914	23308.44
517.116	23771.29
517.318	23720.09
517.52	24039.57
517.722	24076.43
517.925	24053.9
518.127	24674.44
518.329	24760.45
518.531	24408.2
518.733	25094.27
518.935	25378.94
519.136	25501.82
519.338	26011.76
519.54	25880.69
519.742	26146.93
519.944	26194.03
520.146	26691.69
520.348	26962.02
520.55	27052.13
520.752	26628.2
520.954	27736.15
521.155	27539.55
521.357	27904.09
521.559	28000.34
521.761	28489.81
521.963	28188.75
522.164	28420.17
522.366	28579.92
522.568	28749.9
522.77	28899.4
522.971	29388.86
523.173	29153.35
523.375	29487.17
523.576	29468.73
523.778	29608
523.98	30126.13
524.181	30132.28
524.383	30171.19
524.584	30599.21
524.786	30492.72
524.988	30648.36
525.189	30775.34
525.391	31109.16
525.592	31162.4
525.794	31430.69
525.995	31692.83
526.197	31465.5
526.398	31709.21
526.6	31901.72
526.801	31846.43
527.003	31895.58
527.204	32180.24
527.406	32382.99
527.607	32436.24
527.808	32981
528.01	32092.18
528.211	32489.49
528.412	33376.26
528.614	32862.22
528.815	33370.11
529.016	32974.86
529.218	32686.09
529.419	33042.44
529.62	33398.79
529.822	33105.93
530.023	33548.29
530.224	33312.77
530.425	33452.03
530.626	33568.77
530.828	33124.36
531.029	33781.76
531.23	33501.18
531.431	33490.94
531.632	33509.38
531.833	33759.23
532.035	33765.37
532.236	33935.35
532.437	33634.3
532.638	33546.24
532.839	33794.04
533.04	34060.28
533.241	33740.8
533.442	34303.99
533.643	33951.74
533.844	33982.46
534.045	33859.58
534.246	34054.14
534.447	34375.67
534.648	33921.02
534.849	33939.45
535.05	33656.83
535.251	34076.66
535.451	33996.79
535.652	33970.17
535.853	34099.19
536.054	33966.07
536.255	34422.77
536.456	33732.61
536.657	34549.74
536.857	33925.11
537.058	34150.39
537.259	34340.85
537.46	34355.19
537.66	34279.41
537.861	34199.54
538.062	34009.08
538.263	34349.04
538.463	34394.1
538.664	34287.6
538.865	34312.18
539.065	34066.42
539.266	33824.76
539.466	34439.15
539.667	33794.04
539.868	34439.15
540.068	33890.3
540.269	34002.94
540.469	34103.29
540.67	34310.13
540.87	34236.41
541.071	33933.31
541.271	34236.41
541.472	34488.31
541.672	33955.83
541.873	33767.42
542.073	33443.84
542.274	34211.83
542.474	33945.59
542.675	33812.48
542.875	34009.08
543.075	34074.62
543.276	33787.9
543.476	33935.35
543.676	34017.27
543.877	33966.07
544.077	33767.42
544.277	33925.11
544.478	33787.9
544.678	33984.51
544.878	33701.89
545.078	34127.86
545.279	33404.93
545.479	33484.8
545.679	34093.05
545.879	33886.2
546.079	33771.52
546.28	33421.31
546.48	33052.68
546.68	33916.92
546.88	33730.56
547.08	33742.85
547.28	33814.52
547.48	33359.87
547.68	33841.15
547.88	33597.44
548.081	33728.51
548.281	33716.22
548.481	33341.44
548.681	34050.04
548.881	33642.49
549.081	33570.82
549.28	33241.09
549.48	33519.62
549.68	33198.09
549.88	33986.55
550.08	33314.82
550.28	33703.93
550.48	33511.42
550.68	33511.42
550.88	33390.59
551.08	33021.96
551.279	33353.73
551.479	32847.88
551.679	33361.92
551.879	33308.68
552.079	33292.29
552.278	33312.77
552.478	33687.55
552.678	33181.7
552.878	33316.87
553.077	33214.47
553.277	32962.57
553.477	33411.07
553.676	32845.83
553.876	33341.44
554.076	33085.45
554.275	32890.89
554.475	32985.1
554.674	33255.43
554.874	33060.87
555.074	32905.23
555.273	32860.17
555.473	33486.85
555.672	32403.47
555.872	32835.59
556.071	32894.99
556.271	33196.04
556.47	32755.72
556.67	32430.1
556.869	32901.13
557.068	33028.1
557.268	32518.16
557.467	32933.9
557.667	32884.75
557.866	32448.53
558.065	32372.75
558.265	32227.35
558.464	32245.78
558.663	32448.53
558.863	32167.96
559.062	32557.07
559.261	31821.85
559.461	32628.75
559.66	32180.24
559.859	32059.41
560.058	31952.92
560.258	31959.06
560.457	32129.05
560.656	32135.19
560.855	31760.41
561.054	31967.26
561.253	31672.35
561.453	31574.05
561.652	31750.17
561.851	32049.17
562.05	31864.86
562.249	31330.34
562.448	31911.96
562.647	30943.27
562.846	31342.63
563.045	31430.69
563.244	31248.42
563.443	31393.82
563.642	31027.24
563.841	31412.26
564.04	31137.83
564.239	31318.05
564.438	31006.76
564.637	31039.53
564.836	31381.54
565.035	31094.82
565.234	30711.85
565.432	30396.46
565.631	30799.91
565.83	30750.76
566.029	30523.44
566.228	30519.34
566.427	30767.15
566.625	30208.05
566.824	30132.28
567.023	30277.68
567.222	29685.82
567.42	30410.8
567.619	30253.11
567.818	30214.19
568.016	30003.25
568.215	30167.09
568.414	29546.56
568.612	30498.86
568.811	29755.45
569.01	29773.88
569.208	29407.3
569.407	29741.11
569.605	29069.38
569.804	29827.13
570.002	29308.99
570.201	29483.07
570.4	29333.57
570.598	29319.23
570.797	29245.51
570.995	29194.31
571.193	28819.53
571.392	28915.78
571.59	28592.2
571.789	28598.35
571.987	28868.68
572.186	28842.06
572.384	28430.41
572.582	28520.52
572.781	28504.14
572.979	28209.23
573.177	28231.76
573.376	28354.64
573.574	27801.69
573.772	28268.62
573.971	28155.99
574.169	27691.1
574.367	27740.25
574.565	28254.29
574.763	27854.93
574.962	27603.03
575.16	27226.21
575.358	27535.45
575.556	27306.08
575.754	27670.62
575.952	27185.25
576.151	27334.75
576.349	27189.35
576.547	26857.57
576.745	27029.6
576.943	26992.74
577.141	26896.49
577.339	26884.2
577.537	26577
577.735	26886.25
577.933	26507.37
578.131	26669.16
578.329	26665.07
578.527	26474.6
578.725	26169.46
578.923	26400.88
579.121	26368.11
579.319	26044.53
579.516	26321.01
579.714	26230.9
579.912	26028.15
580.11	26110.07
580.308	26251.38
580.506	25880.69
580.704	25313.41
580.901	25464.96
581.099	26034.29
581.297	25571.45
581.495	25561.21
581.692	25514.11
581.89	25342.08
582.088	25653.37
582.285	25249.92
582.483	25360.51
582.681	25061.51
582.878	25020.55
583.076	24944.77
583.274	24932.48
583.471	24819.85
583.669	24830.09
583.866	24512.65
584.064	24676.49
584.262	24586.38
584.459	24795.27
584.657	24690.82
584.854	24658.06
585.052	24295.57
585.249	24555.66
585.447	24729.73
585.644	23959.7
585.841	24111.25
586.039	24379.53
586.236	23818.39
586.434	23765.14
586.631	23951.51
586.828	23703.7
587.026	23799.96
587.223	23851.16
587.42	23640.22
587.618	23609.5
587.815	23079.07
588.012	23314.59
588.21	23275.68
588.407	23529.62
588.604	23113.89
588.801	23038.11
588.999	23064.74
589.196	23179.42
589.393	23013.54
589.59	22878.37
589.787	22757.54
589.984	22661.29
590.182	22479.02
590.379	22726.82
590.576	22329.52
590.773	22556.84
590.97	22395.05
591.167	22159.53
591.364	22134.96
591.561	22046.9
591.758	22102.19
591.955	22030.51
592.152	22091.95
592.349	21848.24
592.546	22087.85
592.743	21897.39
592.94	21622.97
593.137	21883.06
593.334	21960.88
593.531	21364.92
593.727	21526.71
593.924	21848.24
594.121	21559.48
594.318	21723.32
594.515	21301.43
594.712	21467.32
594.908	21094.59
595.105	21137.6
595.302	20897.99
595.499	20875.46
595.696	20977.86
595.892	20732.1
596.089	20840.64
596.286	21002.43
596.482	20820.16
596.679	20588.74
596.876	20766.92
597.072	20531.4
597.269	20512.97
597.466	20390.09
597.662	20019.41
597.859	20342.99
598.055	20512.97
598.252	20029.65
598.448	20033.74
598.645	20078.8
598.841	20107.47
599.038	19847.38
599.234	19759.31
599.431	19579.09
599.627	19425.5
599.824	19667.16
600.02	19572.95
600.217	19433.69
600.413	19575
600.609	19255.51
600.806	19531.99
601.002	19544.28
601.198	19226.84
601.395	19327.19
601.591	19101.92
601.787	18997.47
601.984	19007.71
602.18	19138.78
602.376	18784.48
602.572	18784.48
602.769	18919.65
602.965	19005.66
603.161	18823.39
603.357	18768.1
603.553	18620.64
603.75	18415.85
603.946	18499.81
604.142	18356.46
604.338	18280.68
604.534	18428.13
604.73	18102.51
604.926	18071.79
605.122	18223.34
605.318	18065.64
605.514	17752.31
605.71	17785.07
605.906	17975.53
606.102	17834.22
606.298	17762.54
606.494	17565.94
606.69	17905.9
606.886	17916.14
607.082	17500.4
607.278	17787.12
607.474	17332.47
607.67	17748.21
607.866	17252.6
608.062	17586.42
608.257	17271.03
608.453	17383.67
608.649	17344.76
608.845	17133.82
609.041	17490.17
609.236	17133.82
609.432	17139.96
609.628	17168.63
609.824	17281.27
610.019	17015.04
610.215	16992.51
610.411	16949.5
610.606	16800
610.802	17056
610.998	16914.69
611.193	16869.63
611.389	16609.54
611.584	16687.36
611.78	16691.46
611.976	16619.78
612.171	16673.03
612.367	16683.27
612.562	16312.58
612.758	16341.25
612.953	16195.85
613.149	16724.22
613.344	16359.69
613.539	16220.42
613.735	16212.23
613.93	16369.93
614.126	16167.18
614.321	16392.45
614.517	16345.35
614.712	16277.77
614.907	16124.17
615.103	16144.65
615.298	16138.51
615.493	16400.65
615.688	15737.1
615.884	16089.35
616.079	15974.67
616.274	15837.45
616.47	15941.9
616.665	15796.49
616.86	15816.97
617.055	15851.79
617.25	15622.42
617.445	15651.09
617.641	15489.3
617.836	15808.78
618.031	15296.79
618.226	15587.6
618.421	15479.06
618.616	15597.84
618.811	15388.95
619.006	15456.53
619.201	15352.09
619.396	15300.89
619.591	15096.09
619.786	15239.45
619.981	14938.4
620.176	15335.7
620.371	14618.91
620.566	14850.33
620.761	14846.24
620.956	14743.84
621.151	14612.77
621.346	14836
621.541	14369.06
621.735	14215.46
621.93	14278.95
622.125	14457.12
622.32	14262.57
622.515	14127.4
622.709	14233.89
622.904	14031.15
623.099	14098.73
623.294	14235.94
623.488	13912.36
623.683	13963.56
623.878	13670.7
624.072	13750.57
624.267	13746.48
624.462	13478.19
624.656	13377.84
624.851	13240.63
625.046	13379.89
625.24	12984.63
625.435	13166.9
625.629	12851.52
625.824	13154.62
626.018	13105.46
626.213	12618.05
626.407	12796.22
626.602	12542.27
626.796	12575.04
626.991	12624.19
627.185	12734.78
627.38	12351.81
627.574	12210.5
627.768	12196.17
627.963	12257.6
628.157	12153.16
628.352	12249.41
628.546	11729.23
628.74	12106.06
628.935	11757.9
629.129	11891.02
629.323	11667.79
629.517	11649.36
629.712	11682.13
629.906	11485.52
630.1	11530.58
630.294	11567.44
630.489	11387.22
630.683	11542.86
630.877	11344.21
631.071	11288.92
631.265	11000.15
631.459	11024.73
631.653	10983.77
631.848	11086.17
632.042	10973.53
632.236	10752.35
632.43	10617.18
632.624	10754.4
632.818	10719.58
633.012	10805.6
633.206	10586.46
633.4	10594.65
633.594	10404.19
633.788	10412.39
633.982	10531.17
634.176	10393.95
634.369	10342.75
634.563	10242.4
634.757	10137.96
634.951	10160.48
635.145	10209.64
635.339	9998.7
635.533	9906.54
635.726	10039.65
635.92	9900.39
636.114	9822.57
636.308	9695.6
636.501	9722.22
636.695	9537.9
636.889	9791.85
637.083	9519.47
637.276	9468.27
637.47	9439.6
637.664	9525.61
637.857	9441.65
638.051	9476.46
638.244	9257.33
638.438	9177.46
638.632	9228.66
638.825	9210.23
639.019	9169.27
639.212	9036.15
639.406	8874.36
639.599	8966.52
639.793	8987
639.986	8905.08
640.18	8874.36
640.373	8634.75
640.567	8571.26
640.76	8669.56
640.954	8503.68
641.147	8483.2
641.34	8520.06
641.534	8477.05
641.727	8427.9
641.92	8370.56
642.114	8313.22
642.307	8315.27
642.5	8268.16
642.694	8083.84
642.887	8087.94
643.08	8098.18
643.273	7897.48
643.467	7989.64
643.66	8024.45
643.853	7872.9
644.046	7809.42
644.239	7850.38
644.432	7948.68
644.626	7836.04
644.819	7674.25
645.012	7623.05
645.205	7692.68
645.398	7647.63
645.591	7504.27
645.784	7725.45
645.977	7469.45
646.17	7381.39
646.363	7340.43
646.556	7299.47
646.749	7242.13
646.942	7307.66
647.135	7211.41
647.328	7285.14
647.521	7094.68
647.714	7104.92
647.907	7061.91
648.099	7039.38
648.292	6988.18
648.485	7061.91
648.678	6861.21
648.871	6881.69
649.064	7000.47
649.256	6916.5
649.449	6826.39
649.642	6783.38
649.835	6752.66
650.027	6824.34
650.22	6824.34
650.413	6586.78
650.605	6588.83
650.798	6443.42
650.991	6492.57
651.183	6564.25
651.376	6420.89
651.568	6629.79
651.761	6402.46
651.954	6400.41
652.146	6312.35
652.339	6095.27
652.531	6341.02
652.724	6250.91
652.916	6033.83
653.109	6097.31
653.301	6181.28
653.494	6119.84
653.686	6025.64
653.879	6160.8
654.071	5972.39
654.263	5839.27
654.456	5999.01
654.648	5951.91
654.84	5861.8
655.033	5589.42
655.225	6023.59
655.417	5669.29
655.61	5843.37
655.802	5546.41
655.994	5497.26
656.186	5700.01
656.379	5489.07
656.571	5505.45
656.763	5667.24
656.955	5433.77
657.148	5689.77
657.34	5476.78
657.532	5392.81
657.724	5452.2
657.916	5441.96
658.108	5300.66
658.3	5478.83
658.492	5362.09
658.684	5235.12
658.876	5317.04
659.068	5239.22
659.26	5132.72
659.452	5030.32
659.644	5269.94
659.836	5310.89
660.028	5046.71
660.22	4876.73
660.412	5063.09
660.604	4919.73
660.796	5048.75
660.988	4942.26
661.18	5065.14
661.372	4854.2
661.563	4813.24
661.755	4911.54
661.947	4706.74
662.139	4782.52
662.331	4647.35
662.522	4735.42
662.714	4770.23
662.906	4807.09
663.097	4653.5
663.289	4645.31
663.481	4575.67
663.673	4491.71
663.864	4555.19
664.056	4491.71
664.247	4491.71
664.439	4493.76
664.631	4460.99
664.822	4532.67
665.014	4479.42
665.205	4430.27
665.397	4448.7
665.588	4547
665.78	4194.75
665.971	4383.17
666.163	4297.15
666.354	4196.8
666.546	4268.48
666.737	4178.37
666.929	4266.43
667.12	4198.85
667.311	4237.76
667.503	4211.14
667.694	4094.4
667.885	4059.59
668.077	4075.97
668.268	3885.51
668.459	3973.57
668.651	4055.49
668.842	4137.41
669.033	4032.96
669.224	4039.11
669.416	4035.01
669.607	3908.04
669.798	4030.91
669.989	3850.69
670.18	3989.96
670.371	3748.29
670.563	3711.43
670.754	3873.22
670.945	3908.04
671.136	3805.64
671.327	3738.05
671.518	3824.07
671.709	3766.73
671.9	3703.24
672.091	3670.47
672.282	3670.47
672.473	3684.81
672.664	3813.83
672.855	3592.65
673.046	3662.28
673.237	3645.9
673.428	3596.75
673.619	3693
673.809	3604.94
674	3518.92
674.191	3600.84
674.382	3652.04
674.573	3570.12
674.764	3527.11
674.954	3512.78
675.145	3512.78
675.336	3531.21
675.527	3494.35
675.717	3506.63
675.908	3322.32
676.099	3350.99
676.289	3541.45
676.48	3334.61
676.671	3297.74
676.861	3369.42
677.052	3346.89
677.243	3310.03
677.433	3400.14
677.624	3297.74
677.814	3363.28
678.005	3285.45
678.195	3211.73
678.386	3322.32
678.576	3355.08
678.767	3303.89
678.957	3264.97
679.148	3264.97
679.338	3293.65
679.529	3117.52
679.719	3258.83
679.909	3279.31
680.1	3350.99
680.29	3215.82
680.481	3267.02
680.671	3359.18
680.861	3178.96
681.052	3224.01
681.242	3008.98
681.432	3176.91
681.622	3197.39
681.813	3178.96
682.003	3115.47
682.193	3148.24
682.383	3158.48
682.573	3140.05
682.764	3029.46
682.954	3082.7
683.144	3152.34
683.334	3023.31
683.524	2968.02
683.714	3072.47
683.904	3056.08
684.094	2998.74
684.284	3101.14
684.474	3023.31
684.664	3088.85
684.854	3056.08
685.044	2933.2
685.234	3047.89
685.424	2984.4
685.614	2925.01
685.804	2941.4
685.994	2918.87
686.184	2908.63
686.374	2912.72
686.564	2941.4
686.753	2992.59
686.943	2759.13
687.133	2871.76
687.323	2746.84
687.513	2918.87
687.702	2777.56
687.892	2908.63
688.082	2773.46
688.272	2830.8
688.461	2744.79
688.651	2738.65
688.841	2791.89
689.03	2712.02
689.22	2654.68
689.41	2642.39
689.599	2607.58
689.789	2646.49
689.979	2640.34
690.168	2605.53
690.358	2654.68
690.547	2644.44
690.737	2634.2
690.926	2804.18
691.116	2642.39
691.305	2638.3
691.495	2609.62
691.684	2564.57
691.874	2476.51
692.063	2574.81
692.252	2519.51
692.442	2490.84
692.631	2324.96
692.82	2552.28
693.01	2494.94
693.199	2443.74
693.388	2488.79
693.578	2363.87
693.767	2449.88
693.956	2449.88
694.146	2279.9
694.335	2333.15
694.524	2302.43
694.713	2458.07
694.902	2281.95
695.092	2427.35
695.281	2429.4
695.47	2329.05
695.659	2316.76
695.848	2279.9
696.037	2277.85
696.226	2322.91
696.415	2281.95
696.604	2367.96
696.793	2320.86
696.982	2306.52
697.171	2337.24
697.36	2206.17
697.549	2232.8
697.738	2284
697.927	2200.03
698.116	2175.45
698.305	2130.4
698.494	2318.81
698.683	2216.41
698.872	2261.47
699.061	2316.76
699.25	2152.93
699.438	2195.93
699.627	2132.45
699.816	2253.28
700.005	2200.03
700.193	2183.65
700.382	2187.74
700.571	2208.22
700.76	2130.4
700.948	2175.45
701.137	2148.83
701.326	2216.41
701.514	2032.1
701.703	2208.22
701.892	2140.64
702.08	2216.41
702.269	2240.99
702.457	2009.57
702.646	2146.78
702.834	2138.59
703.023	2050.53
703.212	2138.59
703.4	2136.54
703.589	2056.67
703.777	2081.25
703.965	2140.64
704.154	2134.5
704.342	2058.72
704.531	2130.4
704.719	2056.67
704.907	2083.3
705.096	2169.31
705.284	2142.69
705.472	2171.36
705.661	2165.21
705.849	2116.06
706.037	1993.19
706.226	2138.59
706.414	2032.1
706.602	2025.95
706.79	2058.72
706.979	2032.1
707.167	2015.71
707.355	1941.99
707.543	2105.82
707.731	2142.69
707.919	2097.63
708.107	2118.11
708.296	2122.21
708.484	2093.54
708.672	2036.19
708.86	2023.91
709.048	2138.59
709.236	2146.78
709.424	2124.26
709.612	2126.3
709.8	2019.81
709.988	2050.53
710.176	2066.91
710.364	2001.38
710.551	2050.53
710.739	2101.73
710.927	2009.57
711.115	2116.06
711.303	2068.96
711.491	2138.59
711.679	1923.55
711.866	2085.34
712.054	2097.63
712.242	2109.92
712.43	1909.22
712.617	1982.95
712.805	2007.52
712.993	1999.33
713.181	1974.75
713.368	2015.71
713.556	1980.9
713.744	2060.77
713.931	2109.92
714.119	2124.26
714.306	2105.82
714.494	2042.34
714.682	2005.47
714.869	1950.18
715.057	2050.53
715.244	1933.79
715.432	2103.78
715.619	2114.02
715.807	2028
715.994	2075.1
716.182	2042.34
716.369	2066.91
716.556	2048.48
716.744	1929.7
716.931	2046.43
717.119	2001.38
717.306	2013.67
717.493	2122.21
717.681	2089.44
717.868	1997.28
718.055	2050.53
718.242	2095.58
718.43	1982.95
718.617	2050.53
718.804	2015.71
718.991	1925.6
719.179	2081.25
719.366	1956.32
719.553	2077.15
719.74	1999.33
719.927	2015.71
720.114	2042.34
720.301	1970.66
720.488	1925.6
720.676	1939.94
720.863	2032.1
721.05	2050.53
721.237	2097.63
721.424	2208.22
721.611	1991.14
721.798	2046.43
721.985	1984.99
722.172	1925.6
722.358	2011.62
722.545	2091.49
722.732	2093.54
722.919	2187.74
723.106	2075.1
723.293	1974.75
723.48	2060.77
723.667	2009.57
723.853	2075.1
724.04	1999.33
724.227	2019.81
724.414	2011.62
724.6	1991.14
724.787	2081.25
724.974	1974.75
725.161	2023.91
725.347	2034.14
725.534	2025.95
725.72	1966.56
725.907	2101.73
726.094	2023.91
726.28	1984.99
726.467	2028
726.653	2062.82
726.84	2040.29
727.027	2085.34
727.213	1925.6
727.4	2056.67
727.586	1982.95
727.773	1976.8
727.959	2044.38
728.145	2040.29
728.332	2128.35
728.518	1970.66
728.705	2130.4
728.891	2134.5
729.077	1931.75
729.264	1991.14
729.45	2052.58
729.636	2073.06
729.823	2138.59
730.009	2040.29
730.195	2161.12
730.382	2015.71
730.568	2091.49
730.754	2101.73
730.94	2032.1
731.126	2124.26
731.313	2050.53
731.499	1974.75
731.685	2071.01
731.871	2048.48
732.057	2013.67
732.243	2019.81
732.429	2163.17
732.615	2040.29
732.801	1950.18
732.987	1997.28
733.173	2046.43
733.359	2048.48
733.545	2034.14
733.731	2007.52
733.917	1950.18
734.103	2140.64
734.289	1941.99
734.475	2154.98
734.661	2167.26
734.847	2011.62
735.033	2001.38
735.219	2005.47
735.404	1999.33
735.59	1991.14
735.776	2034.14
735.962	2073.06
736.148	1982.95
736.333	2050.53
736.519	1937.89
736.705	1993.19
736.89	1944.03
737.076	1987.04
737.262	2034.14
737.447	2093.54
737.633	2025.95
737.819	2040.29
738.004	1952.23
738.19	1952.23
738.375	1982.95
738.561	1917.41
738.747	1933.79
738.932	1872.36
739.118	1968.61
739.303	1976.8
739.489	1935.84
739.674	1896.93
739.859	2034.14
740.045	1845.73
740.23	1997.28
740.416	1946.08
740.601	1903.07
740.786	1866.21
740.972	1882.6
741.157	1774.05
741.342	1935.84
741.528	1948.13
741.713	1827.3
741.898	1987.04
742.084	1944.03
742.269	1946.08
742.454	1948.13
742.639	1974.75
742.824	1835.49
743.01	1919.46
743.195	1827.3
743.38	1819.11
743.565	1853.92
743.75	1737.19
743.935	1774.05
744.12	1769.96
744.305	1772
744.49	1671.65
744.675	1782.24
744.86	1782.24
745.045	1872.36
745.23	1712.61
745.415	1790.44
745.6	1769.96
745.785	1757.67
745.97	1741.29
746.155	1780.2
746.34	1751.53
746.525	1778.15
746.71	1782.24
746.895	1630.7
747.079	1737.19
747.264	1651.17
747.449	1651.17
747.634	1622.5
747.819	1597.93
748.003	1608.17
748.188	1632.74
748.373	1614.31
748.557	1685.99
748.742	1559.02
748.927	1610.22
749.111	1606.12
749.296	1679.85
749.481	1581.54
749.665	1550.82
749.85	1573.35
750.034	1589.74
750.219	1581.54
750.404	1366.51
750.588	1444.33
750.773	1491.43
750.957	1503.72
751.141	1456.62
751.326	1526.25
751.51	1491.43
751.695	1319.4
751.879	1536.49
752.064	1559.02
752.248	1442.28
752.432	1475.05
752.617	1401.32
752.801	1458.67
752.985	1362.41
753.17	1495.53
753.354	1415.66
753.538	1450.47
753.722	1296.88
753.907	1393.13
754.091	1307.12
754.275	1364.46
754.459	1249.77
754.643	1223.15
754.828	1171.95
755.012	1247.72
755.196	1202.67
755.38	1329.64
755.564	1303.02
755.748	1231.34
755.932	1294.83
756.116	1249.77
756.3	1184.24
756.484	1262.06
756.668	1151.47
756.852	1206.77
757.036	1188.33
757.22	1165.81
757.404	1208.81
757.588	1257.96
757.772	1262.06
757.956	1247.72
758.14	1221.1
758.323	1149.42
758.507	1174
758.691	1049.07
758.875	1147.37
759.059	1143.28
759.242	1157.61
759.426	1141.23
759.61	1116.65
759.794	1065.46
759.977	1096.18
760.161	1143.28
760.345	1157.61
760.528	1098.22
760.712	1149.42
760.895	1147.37
761.079	1069.55
761.263	1034.74
761.446	1067.5
761.63	1081.84
761.813	991.73
761.997	1081.84
762.18	948.72
762.364	991.73
762.547	926.19
762.731	983.54
762.914	940.53
763.098	975.35
763.281	944.63
763.464	1020.4
763.648	948.72
763.831	958.96
764.015	938.48
764.198	1053.17
764.381	928.24
764.564	1010.16
764.748	971.25
764.931	1042.93
765.114	948.72
765.297	958.96
765.481	913.91
765.664	963.06
765.847	1004.02
766.03	969.2
766.213	852.47
766.397	815.6
766.58	944.63
766.763	920.05
766.946	934.39
767.129	838.13
767.312	846.32
767.495	877.04
767.678	934.39
767.861	817.65
768.044	889.33
768.227	788.98
768.41	819.7
768.593	854.51
768.776	856.56
768.959	766.45
769.142	920.05
769.324	813.56
769.507	942.58
769.69	836.08
769.873	881.14
770.056	901.62
770.239	793.08
770.421	852.47
770.604	829.94
770.787	836.08
770.97	786.93
771.152	815.6
771.335	811.51
771.518	831.99
771.7	885.23
771.883	848.37
772.066	692.73
772.248	795.12
772.431	895.47
772.613	879.09
772.796	735.73
772.978	723.44
773.161	813.56
773.343	719.35
773.526	684.53
773.708	739.83
773.891	662.01
774.073	813.56
774.256	725.49
774.438	754.16
774.621	768.5
774.803	778.74
774.985	692.73
775.168	756.21
775.35	743.92
775.532	756.21
775.715	698.87
775.897	606.71
776.079	672.25
776.261	721.4
776.444	678.39
776.626	723.44
776.808	754.16
776.99	739.83
777.173	680.44
777.355	637.43
777.537	641.53
777.719	653.81
777.901	659.96
778.083	610.81
778.265	532.98
778.447	612.85
778.629	590.33
778.811	700.92
778.993	629.24
779.175	631.29
779.357	625.14
779.539	573.94
779.721	590.33
779.903	692.73
780.085	623.09
780.267	586.23
780.449	582.14
780.631	631.29
780.812	596.47
780.994	606.71
781.176	489.98
781.358	487.93
781.54	422.39
781.721	600.57
781.903	500.22
782.085	545.27
782.267	653.81
782.448	498.17
782.63	526.84
782.812	532.98
782.993	557.56
783.175	459.26
783.357	512.5
783.538	430.59
783.72	477.69
783.901	467.45
784.083	403.96
784.264	516.6
784.446	426.49
784.627	420.35
784.809	469.5
784.99	461.3
785.172	487.93
785.353	508.41
785.535	541.18
785.716	363
785.897	377.34
786.079	526.84
786.26	426.49
786.441	469.5
786.623	416.25
786.804	492.02
786.985	393.72
787.167	385.53
787.348	465.4
787.529	395.77
787.71	393.72
787.891	320
788.073	377.34
788.254	418.3
788.435	391.67
788.616	434.68
788.797	287.23
788.978	371.19
789.159	471.54
789.34	451.07
789.522	371.19
789.703	344.57
789.884	287.23
790.065	412.15
790.246	381.43
790.427	418.3
790.607	418.3
790.788	320
790.969	330.23
791.15	422.39
791.331	344.57
791.512	328.19
791.693	270.84
791.874	324.09
792.054	373.24
792.235	352.76
792.416	322.04
792.597	379.39
792.778	242.17
792.958	428.54
793.139	387.58
793.32	346.62
793.5	266.75
793.681	313.85
793.862	303.61
794.042	272.89
794.223	289.28
794.404	313.85
794.584	322.04
794.765	365.05
794.945	297.47
795.126	363
795.306	393.72
795.487	221.69
795.667	250.36
795.848	289.28
796.028	340.47
796.209	262.65
796.389	246.27
796.57	289.28
796.75	336.38
796.93	272.89
797.111	266.75
797.291	297.47
797.471	279.04
797.652	248.32
797.832	238.08
798.012	264.7
798.192	256.51
798.373	295.42
798.553	209.4
798.733	248.32
798.913	279.04
799.093	322.04
799.274	213.5
799.454	250.36
799.634	242.17
799.814	238.08
799.994	262.65
800.174	279.04
800.354	154.11
800.534	195.07
800.714	262.65
800.894	188.93
801.074	199.16
801.254	258.56
801.434	303.61
801.614	276.99
801.794	184.83
801.974	844.28
802.154	221.69
802.334	250.36
802.514	195.07
802.693	256.51
802.873	215.55
803.053	256.51
803.233	141.82
803.413	207.36
803.592	168.45
803.772	154.11
803.952	215.55
804.131	174.59
804.311	197.12
804.491	221.69
804.67	156.16
804.85	145.92
805.03	270.84
805.209	233.98
805.389	248.32
805.568	141.82
805.748	141.82
805.928	209.4
806.107	199.16
806.287	147.97
806.466	174.59
806.646	238.08
806.825	182.78
807.004	147.97
807.184	193.02
807.363	107.01
807.543	207.36
807.722	131.58
807.901	229.88
808.081	240.12
808.26	125.44
808.439	156.16
808.619	240.12
808.798	143.87
808.977	84.48
809.156	190.97
809.336	164.35
809.515	193.02
809.694	92.67
809.873	119.29
810.052	201.21
810.231	176.64
810.411	150.01
810.59	150.01
810.769	180.73
810.948	180.73
811.127	147.97
811.306	131.58
811.485	156.16
811.664	170.49
811.843	147.97
812.022	150.01
812.201	184.83
812.38	164.35
812.559	174.59
812.737	168.45
812.916	229.88
813.095	139.77
813.274	156.16
813.453	107.01
813.632	109.05
813.811	143.87
813.989	158.21
814.168	123.39
814.347	107.01
814.526	113.15
814.704	223.74
814.883	127.49
815.062	43.52
815.24	121.34
815.419	139.77
815.598	150.01
815.776	147.97
815.955	131.58
816.133	129.53
816.312	150.01
816.49	92.67
816.669	125.44
816.847	66.05
817.026	156.16
817.204	72.19
817.383	135.68
817.561	131.58
817.74	166.4
817.918	131.58
818.097	139.77
818.275	119.29
818.453	162.3
818.632	145.92
818.81	150.01
818.988	100.86
819.167	160.25
819.345	221.69
819.523	102.91
819.701	94.72
819.879	111.1
820.058	76.29
820.236	59.9
820.414	197.12
820.592	86.53
820.77	104.96
820.948	90.62
821.127	94.72
821.305	59.9
821.483	102.91
821.661	176.64
821.839	100.86
822.017	16.9
822.195	109.05
822.373	143.87
822.551	123.39
822.729	158.21
822.907	131.58
823.085	139.77
823.262	150.01
823.44	2.56
823.618	82.43
823.796	107.01
823.974	61.95
824.152	90.62
824.329	66.05
824.507	59.9
824.685	57.86
824.863	107.01
825.04	141.82
825.218	190.97
825.396	57.86
825.574	76.29
825.751	45.57
825.929	66.05
826.107	100.86
826.284	76.29
826.462	143.87
826.639	115.2
826.817	150.01
826.994	61.95
827.172	72.19
827.349	172.54
827.527	70.14
827.704	205.31
827.882	84.48
828.059	66.05
828.237	90.62
828.414	41.47
828.591	90.62
828.769	139.77
828.946	86.53
829.124	96.77
829.301	119.29
829.478	29.18
829.655	68.09
829.833	135.68
830.01	20.99
830.187	115.2
830.364	86.53
830.542	102.91
830.719	117.25
830.896	66.05
831.073	37.38
831.25	133.63
831.427	82.43
831.604	152.06
831.782	70.14
831.959	53.76
832.136	66.05
832.313	150.01
832.49	90.62
832.667	78.33
832.844	41.47
833.021	121.34
833.198	125.44
833.374	57.86
833.551	90.62
833.728	139.77
833.905	35.33
834.082	27.14
834.259	43.52
834.436	78.33
834.612	86.53
834.789	90.62
834.966	61.95
835.143	64
835.319	66.05
835.496	49.66
835.673	35.33
835.85	172.54
836.026	53.76
836.203	90.62
836.38	70.14
836.556	98.81
836.733	68.09
836.909	125.44
837.086	29.18
837.262	33.28
837.439	49.66
837.616	90.62
837.792	90.62
837.968	111.1
838.145	-5.63
838.321	84.48
838.498	0.51
838.674	53.76
838.851	35.33
839.027	78.33
839.203	57.86
839.38	-7.68
839.556	18.94
839.732	82.43
839.909	90.62
840.085	78.33
840.261	70.14
840.437	8.7
840.614	6.66
840.79	25.09
840.966	74.24
841.142	41.47
841.318	10.75
841.494	70.14
841.671	115.2
841.847	117.25
842.023	20.99
842.199	57.86
842.375	74.24
842.551	16.9
842.727	-15.87
842.903	100.86
843.079	-22.02
843.255	2.56
843.431	90.62
843.607	84.48
843.783	41.47
843.959	107.01
844.134	25.09
844.31	141.82
844.486	35.33
844.662	45.57
844.838	41.47
845.013	66.05
845.189	92.67
845.365	111.1
845.541	123.39
845.716	33.28
845.892	49.66
846.068	29.18
846.244	33.28
846.419	53.76
846.595	82.43
846.77	8.7
846.946	41.47
847.122	61.95
847.297	82.43
847.473	43.52
847.648	45.57
847.824	35.33
847.999	45.57
848.175	57.86
848.35	66.05
848.526	8.7
848.701	74.24
848.876	45.57
849.052	8.7
849.227	-19.97
849.403	55.81
849.578	66.05
849.753	64
849.929	90.62
850.104	8.7
850.279	78.33
850.454	72.19
850.63	57.86
850.805	57.86
850.98	18.94
851.155	43.52
851.33	37.38
851.505	10.75
851.681	125.44
851.856	25.09
852.031	16.9
852.206	61.95
852.381	33.28
852.556	-5.63
852.731	76.29
852.906	102.91
853.081	51.71
853.256	84.48
853.431	88.57
853.606	-46.59
853.781	41.47
853.956	4.61
854.131	78.33
854.305	29.18
854.48	113.15
854.655	33.28
854.83	-65.02
855.005	0.51
855.18	82.43
855.354	107.01
855.529	55.81
855.704	16.9
855.879	76.29
856.053	-28.16
856.228	-24.06
856.403	-9.73
856.577	33.28
856.752	12.8
856.926	107.01
857.101	107.01
857.276	-36.35
857.45	74.24
857.625	33.28
857.799	57.86
857.974	51.71
858.148	33.28
858.323	20.99
858.497	82.43
858.672	25.09
858.846	-7.68
859.02	27.14
859.195	35.33
859.369	33.28
859.543	12.8
859.718	-11.78
859.892	45.57
860.066	37.38
860.241	-7.68
860.415	10.75
860.589	-44.54
860.763	41.47
860.938	61.95
861.112	51.71
861.286	16.9
861.46	57.86
861.634	-22.02
861.808	2.56
861.982	-9.73
862.157	18.94
862.331	-19.97
862.505	-36.35
862.679	-5.63
862.853	78.33
863.027	0.51
863.201	6.66
863.375	18.94
863.549	45.57
863.722	47.62
863.896	-3.58
864.07	12.8
864.244	-69.12
864.418	25.09
864.592	70.14
864.766	16.9
864.939	-9.73
865.113	-15.87
865.287	86.53
865.461	-7.68
865.634	55.81
865.808	10.75
865.982	55.81
866.156	18.94
866.329	4.61
866.503	49.66
866.676	51.71
866.85	0.51
867.024	-22.02
867.197	27.14
867.371	94.72
867.544	0.51
867.718	51.71
867.891	-30.21
868.065	-7.68
868.238	51.71
868.412	49.66
868.585	82.43
868.759	57.86
868.932	70.14
869.105	-15.87
869.279	53.76
869.452	4.61
869.625	57.86
869.799	18.94
869.972	49.66
870.145	31.23
870.319	-26.11
870.492	2.56
870.665	-73.21
870.838	29.18
871.011	33.28
871.185	-40.45
871.358	-36.35
871.531	-5.63
871.704	27.14
871.877	16.9
872.05	98.81
872.223	-32.26
872.396	-15.87
872.569	37.38
872.742	8.7
872.915	55.81
873.088	-5.63
873.261	-32.26
873.434	10.75
873.607	76.29
873.78	8.7
873.953	-65.02
874.126	-3.58
874.299	2.56
874.471	27.14
874.644	-56.83
874.817	-1.54
874.99	12.8
875.163	-5.63
875.335	16.9
875.508	-36.35
875.681	49.66
875.853	-7.68
876.026	18.94
876.199	-11.78
876.371	4.61
876.544	-46.59
876.717	68.09
876.889	8.7
877.062	35.33
877.234	29.18
877.407	-9.73
877.579	12.8
877.752	35.33
877.924	53.76
878.097	59.9
878.269	49.66
878.442	-7.68
878.614	-7.68
878.786	37.38
878.959	41.47
879.131	37.38
879.303	-73.21
879.476	102.91
879.648	4.61
879.82	57.86
879.993	-15.87
880.165	-11.78
880.337	-38.4
880.509	-9.73
880.681	-7.68
880.854	-32.26
881.026	25.09
881.198	98.81
881.37	-5.63
881.542	74.24
881.714	-7.68
881.886	-24.06
882.058	78.33
882.23	-32.26
882.402	27.14
882.574	37.38
882.746	25.09
882.918	123.39
883.09	25.09
883.262	-54.78
883.434	23.04
883.606	-3.58
883.778	-22.02
883.95	115.2
884.122	-3.58
884.293	57.86
884.465	20.99
884.637	37.38
884.809	25.09
884.98	45.57
885.152	2.56
885.324	27.14
885.496	-38.4
885.667	16.9
885.839	-40.45
886.011	82.43
886.182	35.33
886.354	98.81
886.525	-5.63
886.697	-7.68
886.869	-15.87
887.04	109.05
887.212	-15.87
887.383	66.05
887.555	0.51
887.726	2.56
887.897	2.56
888.069	10.75
888.24	51.71
888.412	53.76
888.583	8.7
888.754	-3.58
888.926	-36.35
889.097	-97.79
889.268	-60.93
889.44	0.51
889.611	-15.87
889.782	-15.87
889.953	0.51
890.125	33.28
890.296	-42.5
890.467	-85.5
890.638	10.75
890.809	4.61
890.98	-5.63
891.151	18.94
891.323	29.18
891.494	-73.21
891.665	41.47
891.836	57.86
892.007	16.9
892.178	-13.82
892.349	-15.87
892.52	2.56
892.691	98.81
892.862	-15.87
893.032	-56.83
893.203	-24.06
893.374	-28.16
893.545	23.04
893.716	33.28
893.887	66.05
894.057	25.09
894.228	-13.82
894.399	35.33
894.57	29.18
894.74	57.86
894.911	70.14
895.082	2.56
895.253	66.05
895.423	-9.73
895.594	94.72
895.764	37.38
895.935	-22.02
896.106	45.57
896.276	-24.06
896.447	0.51
896.617	-15.87
896.788	41.47
896.958	-71.17
897.129	-30.21
897.299	33.28
897.47	84.48
897.64	41.47
897.81	10.75
897.981	-5.63
898.151	0.51
898.322	39.42
898.492	18.94
898.662	-11.78
898.832	55.81
899.003	-17.92
899.173	-7.68
899.343	-32.26
899.513	-9.73
