Data from USB4F104151__293__14-46-29-273.txt Node

Date: Thu Mar 13 14:46:29 EDT 2025
User: louis
Spectrometer: USB4F10415
Trigger mode: 4
Integration Time (sec): 2.000000E-2
Scans to average: 1
Electric dark correction enabled: true
Nonlinearity correction enabled: false
Boxcar width: 0
XAxis mode: Wavelengths
Number of Pixels in Spectrum: 3648
>>>>>Begin Spectral Data<<<<<
178.204	-133.63
178.424	-133.63
178.644	-133.63
178.864	-125.44
179.084	-72.19
179.304	3.58
179.524	1.54
179.744	-0.51
179.964	32.26
180.184	-27.14
180.404	-20.99
180.624	-2.56
180.844	3.58
181.064	-12.8
181.283	11.78
181.503	-12.8
181.723	24.06
181.943	-35.33
182.163	65.02
182.383	-20.99
182.602	40.45
182.822	44.54
183.042	-10.75
183.262	50.69
183.482	-27.14
183.701	1.54
183.921	-25.09
184.141	-4.61
184.361	24.06
184.58	-12.8
184.8	19.97
185.02	-2.56
185.239	42.5
185.459	54.78
185.679	85.5
185.898	-29.18
186.118	44.54
186.338	13.82
186.557	87.55
186.777	-35.33
186.997	3.58
187.216	46.59
187.436	5.63
187.655	56.83
187.875	196.09
188.095	-4.61
188.314	52.74
188.534	-12.8
188.753	3.58
188.973	60.93
189.192	56.83
189.412	40.45
189.631	-0.51
189.851	79.36
190.07	126.46
190.29	7.68
190.509	15.87
190.729	-4.61
190.948	30.21
191.168	124.41
191.387	85.5
191.607	1.54
191.826	-51.71
192.045	-23.04
192.265	46.59
192.484	65.02
192.704	120.32
192.923	-35.33
193.142	50.69
193.362	54.78
193.581	69.12
193.8	60.93
194.02	62.98
194.239	5.63
194.458	36.35
194.678	-86.53
194.897	15.87
195.116	60.93
195.335	62.98
195.555	24.06
195.774	83.45
195.993	36.35
196.212	-8.7
196.432	46.59
196.651	-0.51
196.87	60.93
197.089	81.41
197.308	9.73
197.528	19.97
197.747	9.73
197.966	73.21
198.185	62.98
198.404	-4.61
198.623	19.97
198.842	19.97
199.062	36.35
199.281	60.93
199.5	44.54
199.719	13.82
199.938	11.78
200.157	52.74
200.376	85.5
200.595	5.63
200.814	73.21
201.033	-37.38
201.252	71.17
201.471	19.97
201.69	36.35
201.909	-16.9
202.128	22.02
202.347	97.79
202.566	-25.09
202.785	11.78
203.004	-6.66
203.223	62.98
203.442	52.74
203.661	-12.8
203.879	-14.85
204.098	9.73
204.317	52.74
204.536	52.74
204.755	28.16
204.974	101.89
205.193	40.45
205.411	24.06
205.63	52.74
205.849	52.74
206.068	32.26
206.287	5.63
206.505	28.16
206.724	38.4
206.943	19.97
207.162	69.12
207.381	48.64
207.599	13.82
207.818	34.3
208.037	56.83
208.255	11.78
208.474	3.58
208.693	-12.8
208.911	5.63
209.13	91.65
209.349	52.74
209.567	-18.94
209.786	58.88
210.005	-10.75
210.223	32.26
210.442	11.78
210.661	15.87
210.879	-20.99
211.098	36.35
211.316	52.74
211.535	-12.8
211.753	91.65
211.972	40.45
212.191	28.16
212.409	-4.61
212.628	19.97
212.846	11.78
213.065	-20.99
213.283	22.02
213.502	11.78
213.72	130.56
213.938	24.06
214.157	15.87
214.375	-18.94
214.594	13.82
214.812	69.12
215.031	32.26
215.249	-10.75
215.467	54.78
215.686	46.59
215.904	73.21
216.122	46.59
216.341	56.83
216.559	-0.51
216.778	-18.94
216.996	54.78
217.214	52.74
217.432	44.54
217.651	19.97
217.869	-12.8
218.087	28.16
218.306	60.93
218.524	11.78
218.742	30.21
218.96	44.54
219.179	-25.09
219.397	42.5
219.615	30.21
219.833	52.74
220.051	-16.9
220.27	138.75
220.488	-0.51
220.706	5.63
220.924	13.82
221.142	36.35
221.36	-33.28
221.578	71.17
221.796	56.83
222.015	95.74
222.233	65.02
222.451	87.55
222.669	75.26
222.887	48.64
223.105	48.64
223.323	-27.14
223.541	60.93
223.759	30.21
223.977	-4.61
224.195	19.97
224.413	-16.9
224.631	30.21
224.849	75.26
225.067	28.16
225.285	28.16
225.503	7.68
225.721	-37.38
225.939	-29.18
226.157	62.98
226.375	110.08
226.592	-39.42
226.81	40.45
227.028	19.97
227.246	151.04
227.464	69.12
227.682	58.88
227.9	24.06
228.117	-37.38
228.335	11.78
228.553	-14.85
228.771	73.21
228.989	38.4
229.206	9.73
229.424	-14.85
229.642	38.4
229.86	-6.66
230.077	52.74
230.295	46.59
230.513	36.35
230.731	38.4
230.948	30.21
231.166	48.64
231.384	22.02
231.601	26.11
231.819	89.6
232.037	-4.61
232.254	69.12
232.472	85.5
232.689	38.4
232.907	52.74
233.125	77.31
233.342	3.58
233.56	22.02
233.777	50.69
233.995	-76.29
234.213	69.12
234.43	122.37
234.648	32.26
234.865	50.69
235.083	15.87
235.3	-43.52
235.518	15.87
235.735	95.74
235.953	69.12
236.17	62.98
236.388	46.59
236.605	7.68
236.822	56.83
237.04	67.07
237.257	81.41
237.475	-12.8
237.692	77.31
237.909	13.82
238.127	-27.14
238.344	-4.61
238.562	-4.61
238.779	3.58
238.996	36.35
239.214	40.45
239.431	101.89
239.648	5.63
239.865	-14.85
240.083	24.06
240.3	46.59
240.517	28.16
240.735	17.92
240.952	93.69
241.169	28.16
241.386	52.74
241.603	-12.8
241.821	36.35
242.038	69.12
242.255	13.82
242.472	13.82
242.689	48.64
242.907	126.46
243.124	30.21
243.341	-23.04
243.558	-2.56
243.775	32.26
243.992	-12.8
244.209	71.17
244.426	91.65
244.643	87.55
244.86	-55.81
245.078	69.12
245.295	-53.76
245.512	34.3
245.729	-20.99
245.946	9.73
246.163	69.12
246.38	30.21
246.597	83.45
246.814	36.35
247.031	77.31
247.248	112.13
247.464	7.68
247.681	69.12
247.898	89.6
248.115	30.21
248.332	69.12
248.549	32.26
248.766	99.84
248.983	22.02
249.2	9.73
249.417	-20.99
249.633	28.16
249.85	-14.85
250.067	-27.14
250.284	48.64
250.501	-12.8
250.717	30.21
250.934	44.54
251.151	105.98
251.368	34.3
251.585	40.45
251.801	30.21
252.018	15.87
252.235	-10.75
252.451	-70.14
252.668	11.78
252.885	-25.09
253.102	83.45
253.318	-8.7
253.535	13.82
253.752	54.78
253.968	3.58
254.185	3.58
254.401	93.69
254.618	62.98
254.835	54.78
255.051	73.21
255.268	15.87
255.484	-37.38
255.701	34.3
255.917	65.02
256.134	15.87
256.351	-10.75
256.567	38.4
256.784	83.45
257	-49.66
257.217	11.78
257.433	56.83
257.65	30.21
257.866	40.45
258.082	-0.51
258.299	-4.61
258.515	36.35
258.732	-45.57
258.948	-41.47
259.165	-16.9
259.381	-23.04
259.597	52.74
259.814	24.06
260.03	-33.28
260.246	17.92
260.463	46.59
260.679	103.93
260.895	17.92
261.112	44.54
261.328	52.74
261.544	28.16
261.761	69.12
261.977	22.02
262.193	3.58
262.409	60.93
262.626	-4.61
262.842	-45.57
263.058	5.63
263.274	73.21
263.49	44.54
263.707	56.83
263.923	-12.8
264.139	-35.33
264.355	30.21
264.571	83.45
264.787	54.78
265.004	42.5
265.22	34.3
265.436	71.17
265.652	103.93
265.868	13.82
266.084	11.78
266.3	1.54
266.516	-25.09
266.732	81.41
266.948	19.97
267.164	110.08
267.38	40.45
267.596	85.5
267.812	134.65
268.028	7.68
268.244	36.35
268.46	75.26
268.676	26.11
268.892	11.78
269.108	-20.99
269.324	-92.67
269.54	38.4
269.756	75.26
269.972	44.54
270.188	-6.66
270.403	40.45
270.619	54.78
270.835	28.16
271.051	89.6
271.267	30.21
271.483	56.83
271.698	38.4
271.914	48.64
272.13	7.68
272.346	60.93
272.562	-12.8
272.777	52.74
272.993	-12.8
273.209	69.12
273.425	40.45
273.64	30.21
273.856	101.89
274.072	28.16
274.287	87.55
274.503	36.35
274.719	75.26
274.934	77.31
275.15	-29.18
275.366	54.78
275.581	-14.85
275.797	38.4
276.012	38.4
276.228	19.97
276.444	11.78
276.659	34.3
276.875	-45.57
277.09	73.21
277.306	1.54
277.521	9.73
277.737	3.58
277.952	44.54
278.168	42.5
278.383	73.21
278.599	60.93
278.814	-27.14
279.03	-14.85
279.245	56.83
279.461	38.4
279.676	62.98
279.892	5.63
280.107	24.06
280.322	-41.47
280.538	24.06
280.753	-43.52
280.969	75.26
281.184	28.16
281.399	71.17
281.615	19.97
281.83	3.58
282.045	-25.09
282.26	77.31
282.476	-12.8
282.691	65.02
282.906	40.45
283.122	19.97
283.337	-66.05
283.552	97.79
283.767	36.35
283.983	103.93
284.198	42.5
284.413	60.93
284.628	-8.7
284.843	19.97
285.058	-4.61
285.274	87.55
285.489	52.74
285.704	81.41
285.919	56.83
286.134	28.16
286.349	-4.61
286.564	50.69
286.779	60.93
286.995	32.26
287.21	48.64
287.425	-16.9
287.64	128.51
287.855	13.82
288.07	-82.43
288.285	11.78
288.5	3.58
288.715	60.93
288.93	-25.09
289.145	36.35
289.36	40.45
289.575	85.5
289.79	54.78
290.004	60.93
290.219	44.54
290.434	44.54
290.649	-76.29
290.864	38.4
291.079	71.17
291.294	48.64
291.509	48.64
291.724	50.69
291.938	-18.94
292.153	38.4
292.368	19.97
292.583	77.31
292.798	-43.52
293.012	42.5
293.227	48.64
293.442	19.97
293.657	79.36
293.871	54.78
294.086	52.74
294.301	97.79
294.516	118.27
294.73	36.35
294.945	-25.09
295.16	28.16
295.374	-8.7
295.589	11.78
295.804	13.82
296.018	24.06
296.233	-29.18
296.447	19.97
296.662	-16.9
296.877	44.54
297.091	22.02
297.306	67.07
297.52	73.21
297.735	15.87
297.949	48.64
298.164	-10.75
298.378	24.06
298.593	15.87
298.807	-0.51
299.022	19.97
299.236	81.41
299.451	-0.51
299.665	-49.66
299.88	11.78
300.094	46.59
300.309	5.63
300.523	52.74
300.737	85.5
300.952	22.02
301.166	19.97
301.381	24.06
301.595	11.78
301.809	-4.61
302.024	48.64
302.238	19.97
302.452	110.08
302.667	38.4
302.881	46.59
303.095	56.83
303.309	36.35
303.524	-29.18
303.738	48.64
303.952	-6.66
304.166	7.68
304.381	-49.66
304.595	110.08
304.809	9.73
305.023	93.69
305.237	15.87
305.452	-66.05
305.666	28.16
305.88	36.35
306.094	-12.8
306.308	75.26
306.522	28.16
306.736	134.65
306.95	22.02
307.164	44.54
307.379	-66.05
307.593	54.78
307.807	32.26
308.021	-43.52
308.235	60.93
308.449	1.54
308.663	46.59
308.877	91.65
309.091	48.64
309.305	44.54
309.519	-37.38
309.733	56.83
309.947	-0.51
310.161	54.78
310.374	-0.51
310.588	48.64
310.802	-27.14
311.016	65.02
311.23	9.73
311.444	-16.9
311.658	48.64
311.872	93.69
312.085	126.46
312.299	85.5
312.513	-8.7
312.727	38.4
312.941	5.63
313.154	-12.8
313.368	13.82
313.582	36.35
313.796	32.26
314.009	52.74
314.223	-39.42
314.437	58.88
314.651	-4.61
314.864	-49.66
315.078	13.82
315.292	46.59
315.505	7.68
315.719	77.31
315.933	15.87
316.146	-10.75
316.36	28.16
316.573	60.93
316.787	30.21
317.001	58.88
317.214	-61.95
317.428	65.02
317.641	79.36
317.855	32.26
318.068	-35.33
318.282	83.45
318.495	22.02
318.709	11.78
318.922	42.5
319.136	60.93
319.349	73.21
319.563	5.63
319.776	11.78
319.99	-2.56
320.203	42.5
320.417	5.63
320.63	26.11
320.843	69.12
321.057	60.93
321.27	52.74
321.483	19.97
321.697	11.78
321.91	32.26
322.124	65.02
322.337	44.54
322.55	-12.8
322.763	65.02
322.977	-33.28
323.19	17.92
323.403	73.21
323.617	46.59
323.83	62.98
324.043	13.82
324.256	40.45
324.469	-53.76
324.683	34.3
324.896	-8.7
325.109	-8.7
325.322	3.58
325.535	42.5
325.748	48.64
325.962	9.73
326.175	24.06
326.388	69.12
326.601	120.32
326.814	28.16
327.027	17.92
327.24	71.17
327.453	-25.09
327.666	65.02
327.879	28.16
328.092	85.5
328.305	-14.85
328.518	22.02
328.731	69.12
328.944	46.59
329.157	118.27
329.37	19.97
329.583	85.5
329.796	42.5
330.009	19.97
330.222	44.54
330.435	34.3
330.648	85.5
330.861	42.5
331.073	-12.8
331.286	62.98
331.499	48.64
331.712	3.58
331.925	60.93
332.138	44.54
332.35	19.97
332.563	-37.38
332.776	103.93
332.989	-41.47
333.202	75.26
333.414	69.12
333.627	71.17
333.84	3.58
334.053	28.16
334.265	3.58
334.478	67.07
334.691	65.02
334.903	79.36
335.116	-33.28
335.329	5.63
335.541	77.31
335.754	69.12
335.966	36.35
336.179	83.45
336.392	-12.8
336.604	24.06
336.817	87.55
337.029	-4.61
337.242	65.02
337.454	85.5
337.667	34.3
337.88	128.51
338.092	3.58
338.305	28.16
338.517	-27.14
338.729	77.31
338.942	77.31
339.154	-20.99
339.367	62.98
339.579	19.97
339.792	-10.75
340.004	101.89
340.217	36.35
340.429	40.45
340.641	54.78
340.854	15.87
341.066	38.4
341.278	52.74
341.491	60.93
341.703	9.73
341.915	28.16
342.128	120.32
342.34	85.5
342.552	5.63
342.764	38.4
342.977	-4.61
343.189	36.35
343.401	11.78
343.613	-2.56
343.826	44.54
344.038	13.82
344.25	81.41
344.462	24.06
344.674	54.78
344.886	38.4
345.099	105.98
345.311	87.55
345.523	-2.56
345.735	-2.56
345.947	122.37
346.159	-12.8
346.371	52.74
346.583	-10.75
346.795	19.97
347.007	69.12
347.219	-18.94
347.431	-8.7
347.643	9.73
347.855	30.21
348.067	52.74
348.279	-27.14
348.491	-18.94
348.703	28.16
348.915	36.35
349.127	48.64
349.339	17.92
349.551	1.54
349.763	15.87
349.975	32.26
350.187	97.79
350.399	89.6
350.61	118.27
350.822	60.93
351.034	28.16
351.246	22.02
351.458	48.64
351.669	-35.33
351.881	19.97
352.093	13.82
352.305	67.07
352.517	77.31
352.728	73.21
352.94	30.21
353.152	69.12
353.363	19.97
353.575	77.31
353.787	87.55
353.999	-35.33
354.21	71.17
354.422	42.5
354.633	36.35
354.845	11.78
355.057	28.16
355.268	54.78
355.48	46.59
355.692	1.54
355.903	-18.94
356.115	7.68
356.326	-33.28
356.538	50.69
356.749	40.45
356.961	44.54
357.172	85.5
357.384	24.06
357.595	175.61
357.807	-10.75
358.018	60.93
358.23	-12.8
358.441	79.36
358.653	48.64
358.864	-18.94
359.075	3.58
359.287	15.87
359.498	11.78
359.709	75.26
359.921	-29.18
360.132	67.07
360.344	69.12
360.555	60.93
360.766	-8.7
360.977	-0.51
361.189	30.21
361.4	36.35
361.611	28.16
361.823	-20.99
362.034	32.26
362.245	-92.67
362.456	3.58
362.667	65.02
362.879	79.36
363.09	36.35
363.301	22.02
363.512	-16.9
363.723	-59.9
363.935	-49.66
364.146	71.17
364.357	7.68
364.568	79.36
364.779	75.26
364.99	122.37
365.201	5.63
365.412	75.26
365.623	36.35
365.834	163.33
366.045	38.4
366.256	153.09
366.467	93.69
366.678	-14.85
366.889	19.97
367.1	3.58
367.311	-20.99
367.522	40.45
367.733	85.5
367.944	60.93
368.155	26.11
368.366	22.02
368.577	77.31
368.788	30.21
368.999	5.63
369.209	54.78
369.42	75.26
369.631	97.79
369.842	101.89
370.053	112.13
370.264	19.97
370.474	120.32
370.685	32.26
370.896	-29.18
371.107	144.89
371.317	52.74
371.528	48.64
371.739	52.74
371.95	32.26
372.16	101.89
372.371	-29.18
372.582	87.55
372.792	71.17
373.003	77.31
373.214	3.58
373.424	77.31
373.635	19.97
373.846	122.37
374.056	-4.61
374.267	44.54
374.477	65.02
374.688	38.4
374.898	7.68
375.109	132.61
375.319	11.78
375.53	3.58
375.74	38.4
375.951	1.54
376.161	7.68
376.372	126.46
376.582	19.97
376.793	89.6
377.003	52.74
377.214	40.45
377.424	11.78
377.635	15.87
377.845	48.64
378.055	128.51
378.266	13.82
378.476	-8.7
378.686	44.54
378.897	11.78
379.107	36.35
379.317	79.36
379.528	44.54
379.738	71.17
379.948	32.26
380.158	85.5
380.369	73.21
380.579	93.69
380.789	13.82
380.999	60.93
381.21	48.64
381.42	44.54
381.63	77.31
381.84	50.69
382.05	7.68
382.261	56.83
382.471	-25.09
382.681	-37.38
382.891	120.32
383.101	52.74
383.311	-4.61
383.521	3.58
383.731	69.12
383.941	142.85
384.151	5.63
384.361	101.89
384.571	83.45
384.781	60.93
384.991	91.65
385.201	138.75
385.411	110.08
385.621	48.64
385.831	77.31
386.041	85.5
386.251	-59.9
386.461	46.59
386.671	75.26
386.881	69.12
387.091	50.69
387.301	19.97
387.511	62.98
387.72	40.45
387.93	32.26
388.14	46.59
388.35	73.21
388.56	-4.61
388.769	42.5
388.979	77.31
389.189	3.58
389.399	36.35
389.609	60.93
389.818	36.35
390.028	28.16
390.238	44.54
390.447	22.02
390.657	114.17
390.867	-35.33
391.076	118.27
391.286	85.5
391.496	44.54
391.705	38.4
391.915	93.69
392.125	69.12
392.334	112.13
392.544	69.12
392.753	73.21
392.963	13.82
393.172	19.97
393.382	-59.9
393.591	77.31
393.801	73.21
394.01	44.54
394.22	28.16
394.429	52.74
394.639	-4.61
394.848	44.54
395.058	38.4
395.267	56.83
395.477	101.89
395.686	42.5
395.895	144.89
396.105	54.78
396.314	118.27
396.524	87.55
396.733	11.78
396.942	93.69
397.152	3.58
397.361	77.31
397.57	95.74
397.78	56.83
397.989	40.45
398.198	22.02
398.407	60.93
398.617	38.4
398.826	67.07
399.035	118.27
399.244	124.41
399.453	48.64
399.663	101.89
399.872	118.27
400.081	36.35
400.29	13.82
400.499	40.45
400.708	103.93
400.917	79.36
401.127	-2.56
401.336	-10.75
401.545	206.33
401.754	130.56
401.963	89.6
402.172	56.83
402.381	71.17
402.59	32.26
402.799	97.79
403.008	1.54
403.217	112.13
403.426	60.93
403.635	-16.9
403.844	54.78
404.053	103.93
404.262	24.06
404.471	103.93
404.68	126.46
404.888	69.12
405.097	65.02
405.306	87.55
405.515	52.74
405.724	112.13
405.933	103.93
406.142	120.32
406.35	103.93
406.559	67.07
406.768	148.99
406.977	151.04
407.185	183.81
407.394	132.61
407.603	124.41
407.812	62.98
408.02	177.66
408.229	192
408.438	99.84
408.646	101.89
408.855	177.66
409.064	192
409.272	146.94
409.481	136.7
409.69	101.89
409.898	192
410.107	140.8
410.315	175.61
410.524	116.22
410.733	194.05
410.941	245.24
411.15	204.28
411.358	239.1
411.567	218.62
411.775	275.96
411.984	245.24
412.192	200.19
412.401	196.09
412.609	306.68
412.818	282.11
413.026	325.12
413.234	249.34
413.443	282.11
413.651	269.82
413.86	249.34
414.068	339.45
414.276	351.74
414.485	343.55
414.693	308.73
414.901	409.08
415.11	306.68
415.318	417.27
415.526	388.6
415.734	505.34
415.943	531.96
416.151	411.13
416.359	374.27
416.567	409.08
416.776	478.71
416.984	513.53
417.192	493.05
417.4	470.52
417.608	472.57
417.817	429.56
418.025	599.54
418.233	634.36
418.441	601.59
418.649	527.86
418.857	642.55
419.065	773.62
419.273	613.88
419.481	601.59
419.689	740.85
419.897	699.89
420.105	798.2
420.313	833.01
420.521	726.52
420.729	814.58
420.937	933.36
421.145	835.06
421.353	923.12
421.561	996.85
421.769	996.85
421.977	933.36
422.185	1080.82
422.393	1117.68
422.601	1172.97
422.809	1101.3
423.017	1168.88
423.224	1267.18
423.432	1316.33
423.64	1242.61
423.848	1390.06
424.056	1283.56
424.263	1367.53
424.471	1471.98
424.679	1410.54
424.887	1482.22
425.094	1506.79
425.302	1486.31
425.51	1723.88
425.718	1578.47
425.925	1756.65
426.133	1830.37
426.341	1809.89
426.548	1842.66
426.756	1902.05
426.964	2037.22
427.171	2029.03
427.379	2151.9
427.586	2135.52
427.794	2276.83
428.001	2276.83
428.209	2440.67
428.417	2330.08
428.624	2471.39
428.832	2567.64
429.039	2545.11
429.247	2545.11
429.454	2764.25
429.662	3053.01
429.869	2854.36
430.076	2958.8
430.284	2971.09
430.491	2919.89
430.699	3358.16
430.906	3126.74
431.114	3222.99
431.321	3423.69
431.528	3356.11
431.736	3677.64
431.943	3788.23
432.15	3648.97
432.358	3784.13
432.565	3986.88
432.772	3882.44
432.979	4087.23
433.187	4191.68
433.394	4171.2
433.601	4457.92
433.808	4470.2
434.016	4517.31
434.223	4765.11
434.43	4861.37
434.637	4748.73
434.844	5117.36
435.052	5096.88
435.259	5139.89
435.466	5213.62
435.673	5248.43
435.88	5447.08
436.087	5762.47
436.294	5690.79
436.501	5445.04
436.708	5754.28
436.915	5977.51
437.122	6282.66
437.329	6108.58
437.537	6413.73
437.743	6372.77
437.95	6686.11
438.157	6778.26
438.364	7036.31
438.571	7044.5
438.778	6921.62
438.985	7832.97
439.192	7277.97
439.399	7431.57
439.606	7556.49
439.813	7798.15
440.02	8387.97
440.227	8351.1
440.433	8269.19
440.64	8347.01
440.847	8506.75
441.054	8416.64
441.261	9260.4
441.467	8863.1
441.674	9082.23
441.881	9491.82
442.088	9305.46
442.294	9252.21
442.501	9502.06
442.708	9899.37
442.914	10136.93
443.121	10360.16
443.328	10433.89
443.534	11060.57
443.741	10458.46
443.948	10515.81
444.154	11363.67
444.361	11269.46
444.568	11136.34
444.774	11464.02
444.981	11236.69
445.187	11773.26
445.394	12119.37
445.6	12201.29
445.807	13161.78
446.013	12897.6
446.22	13110.58
446.426	13565.23
446.633	13403.44
446.839	13923.63
447.046	13464.88
447.252	14261.54
447.459	14298.41
447.665	14052.65
447.871	14771.49
448.078	15293.72
448.284	14789.92
448.491	15072.54
448.697	15408.4
448.903	16196.87
449.11	16207.11
449.316	15854.86
449.522	16325.89
449.728	16571.65
449.935	16669.95
450.141	16569.6
450.347	17077.5
450.553	16239.88
450.76	16733.44
450.966	17491.19
451.172	16911.61
451.378	17431.8
451.584	17085.69
451.791	17407.22
451.997	17644.79
452.203	17798.38
452.409	18021.61
452.615	17593.59
452.821	17212.67
453.027	16940.29
453.233	18042.09
453.44	17161.47
453.646	17313.02
453.852	17485.05
454.058	17695.99
454.264	17104.12
454.47	17609.97
454.676	17255.67
454.882	17732.85
455.088	16141.58
455.294	16493.83
455.5	16987.39
455.705	16962.81
455.911	16112.91
456.117	16123.15
456.323	16170.25
456.529	15113.5
456.735	15664.4
456.941	15273.24
457.147	15019.29
457.352	14615.84
457.558	14370.08
457.764	14488.87
457.97	14234.92
458.176	13968.68
458.381	13890.86
458.587	13268.28
458.793	13237.56
458.999	12817.72
459.204	13475.12
459.41	13255.99
459.616	12217.67
459.821	12340.55
460.027	12254.53
460.233	12000.58
460.438	11433.3
460.644	11527.5
460.85	11062.62
461.055	10788.19
461.261	10722.65
461.466	9999.72
461.672	9725.29
461.878	10530.14
462.083	10001.77
462.289	9614.7
462.494	9385.33
462.7	9022.84
462.905	8893.82
463.111	9155.96
463.316	9194.87
463.522	9057.65
463.727	8916.34
463.932	8879.48
464.138	9018.74
464.343	8758.65
464.549	8594.81
464.754	8883.58
464.959	8887.67
465.165	8621.44
465.37	8408.45
465.575	8377.73
465.781	8652.16
465.986	8641.92
466.191	8162.69
466.397	8166.79
466.602	7624.08
466.807	8023.43
467.012	7857.54
467.218	7742.86
467.423	7818.63
467.628	7826.82
467.833	8193.41
468.038	7732.62
468.244	7753.1
468.449	8007.05
468.654	7699.85
468.859	7538.06
469.064	7603.6
469.269	7247.25
469.474	7439.76
469.679	7490.96
469.885	7343.5
470.09	7384.46
470.295	7437.71
470.5	7345.55
470.705	7359.89
470.91	7269.78
471.115	6913.43
471.32	7130.52
471.525	7114.13
471.73	7024.02
471.935	6966.68
472.139	6718.87
472.344	6749.59
472.549	6804.89
472.754	6559.13
472.959	6575.52
473.164	6475.17
473.369	6360.48
473.574	6524.32
473.778	6565.28
473.983	6372.77
474.188	6333.86
474.393	6210.98
474.598	6067.62
474.802	6030.76
475.007	6092.2
475.212	6020.52
475.417	5713.32
475.621	5897.64
475.826	6026.66
476.031	5698.99
476.235	5737.9
476.44	5572.01
476.645	5565.87
476.849	5612.97
477.054	5385.65
477.259	5371.31
477.463	5461.42
477.668	5344.69
477.872	5389.74
478.077	5287.34
478.282	5107.12
478.486	5107.12
478.691	5035.44
478.895	5148.08
479.1	5021.11
479.304	5057.97
479.509	4937.14
479.713	5033.4
479.918	4873.65
480.122	4812.21
480.326	4750.78
480.531	4801.97
480.735	4724.15
480.94	4695.48
481.144	4806.07
481.348	4681.14
481.553	4773.3
481.757	4636.09
481.961	4765.11
482.166	4806.07
482.37	4693.43
482.574	4617.66
482.778	4593.08
482.983	4810.17
483.187	4713.91
483.391	4787.64
483.595	4699.58
483.8	4543.93
484.004	4896.18
484.208	4734.39
484.412	4720.06
484.616	4656.57
484.821	4668.86
485.025	4593.08
485.229	4701.62
485.433	4664.76
485.637	4611.51
485.841	4730.3
486.045	4664.76
486.249	4726.2
486.453	4535.74
486.657	4631.99
486.861	4591.03
487.065	4380.09
487.269	4607.42
487.473	4650.43
487.677	4625.85
487.881	4693.43
488.085	4552.12
488.289	4660.66
488.493	4576.7
488.697	4681.14
488.901	4791.73
489.105	4697.53
489.309	4746.68
489.512	4701.62
489.716	4814.26
489.92	4593.08
490.124	4650.43
490.328	4722.1
490.531	4687.29
490.735	4797.88
490.939	4816.31
491.143	4894.13
491.346	4754.87
491.55	4931
491.754	5008.82
491.958	4894.13
492.161	4935.09
492.365	4894.13
492.569	4984.24
492.772	4959.67
492.976	4926.9
493.18	5004.72
493.383	5123.51
493.587	5127.6
493.79	5152.18
493.994	5141.94
494.197	5246.38
494.401	5225.9
494.605	5236.14
494.808	5305.78
495.012	5168.56
495.215	5311.92
495.419	5365.17
495.622	5426.61
495.825	5524.91
496.029	5486
496.232	5516.72
496.436	5557.68
496.639	5492.14
496.843	5555.63
497.046	5639.59
497.249	5737.9
497.453	5850.53
497.656	5930.41
497.859	5893.54
498.063	5905.83
498.266	6165.92
498.469	6131.11
498.673	6030.76
498.876	6217.12
499.079	6253.98
499.282	6253.98
499.485	6649.24
499.689	6532.51
499.892	6526.36
500.095	6630.81
500.298	6634.91
500.501	6667.67
500.705	6876.57
500.908	6999.45
501.111	7046.55
501.314	7198.1
501.517	7275.92
501.72	7286.16
501.923	7185.81
502.126	7288.21
502.329	7427.47
502.532	7527.82
502.735	7550.35
502.938	7689.61
503.141	7900.55
503.344	7902.6
503.547	7972.23
503.75	8023.43
503.953	8226.18
504.156	8252.8
504.359	8209.79
504.562	8295.81
504.765	8629.63
504.968	8424.83
505.17	8848.76
505.373	8842.62
505.576	9098.61
505.779	8918.39
505.982	8973.69
506.185	9377.14
506.387	9194.87
506.59	9405.81
506.793	9366.9
506.996	9579.89
507.198	9645.42
507.401	9678.19
507.604	9645.42
507.807	10112.36
508.009	10222.95
508.212	10173.8
508.415	10212.71
508.617	10440.03
508.82	10409.31
509.022	10468.7
509.225	10665.31
509.428	10837.34
509.63	10988.89
509.833	11107.67
510.035	11365.71
510.238	11224.4
510.44	11652.43
510.643	11582.8
510.845	11781.45
511.048	11535.7
511.25	11943.24
511.453	11894.09
511.655	12389.7
511.858	11980.11
512.06	12442.95
512.262	12430.66
512.465	12533.06
512.667	12709.18
512.87	12895.55
513.072	13159.74
513.274	13151.54
513.477	13382.96
513.679	13385.01
513.881	13604.14
514.084	13724.97
514.286	13550.9
514.488	13894.96
514.69	14253.35
514.893	14107.94
515.095	14175.53
515.297	14609.7
515.499	14552.35
515.701	14552.35
515.904	14972.19
516.106	15129.88
516.308	15144.22
516.51	15570.19
516.712	15373.59
516.914	15619.35
517.116	15719.7
517.318	15834.38
517.52	15871.25
517.722	16112.91
517.925	16424.2
518.127	16395.53
518.329	16774.4
518.531	16612.61
518.733	16721.15
518.935	17138.94
519.136	17126.65
519.338	17710.32
519.54	17640.69
519.742	17806.58
519.944	17763.57
520.146	18105.58
520.348	18230.51
520.55	18164.97
520.752	18418.92
520.954	18748.64
521.155	18363.62
521.357	18869.47
521.559	19111.13
521.761	19350.74
521.963	19365.08
522.164	19320.03
522.366	19715.28
522.568	19877.07
522.77	19799.25
522.971	19979.47
523.173	20221.13
523.375	20323.53
523.576	20362.44
523.778	20331.72
523.98	20663.49
524.181	20679.88
524.383	20944.06
524.584	21155.01
524.786	21073.09
524.988	20974.78
525.189	21619.89
525.391	21423.29
525.592	21882.03
525.794	21746.87
525.995	21982.38
526.197	21970.1
526.398	22000.82
526.6	22105.26
526.801	22222
527.003	22400.17
527.204	22457.51
527.406	22693.03
527.607	22709.41
527.808	22832.29
528.01	22459.56
528.211	22723.75
528.412	23039.14
528.614	23125.15
528.815	23198.88
529.016	23235.74
529.218	23143.58
529.419	23135.39
529.62	23323.8
529.822	23151.77
530.023	23383.2
530.224	23442.59
530.425	23501.98
530.626	23561.37
530.828	23424.15
531.029	24337.55
531.23	23305.37
531.431	23747.73
531.632	24026.26
531.833	23837.84
532.035	23645.34
532.236	24091.79
532.437	24300.69
532.638	24040.59
532.839	24120.46
533.04	24048.79
533.241	24085.65
533.442	24315.02
533.643	24108.18
533.844	23985.3
534.045	24388.75
534.246	24390.8
534.447	24335.5
534.648	24032.4
534.849	24290.45
535.05	24269.97
535.251	24360.08
535.451	24312.97
535.652	24349.84
535.853	24528.01
536.054	24411.28
536.255	24120.46
536.456	24247.44
536.657	24519.82
536.857	24566.92
537.058	24026.26
537.259	24345.74
537.46	24190.09
537.66	24149.14
537.861	24290.45
538.062	24261.77
538.263	24513.67
538.463	24196.24
538.664	24372.36
538.865	24470.67
539.065	24435.85
539.266	24374.41
539.466	24577.16
539.667	24050.83
539.868	24489.1
540.068	24317.07
540.269	24093.84
540.469	24546.44
540.67	24458.38
540.87	24286.35
541.071	24253.58
541.271	24278.16
541.472	24374.41
541.672	24341.64
541.873	24323.21
542.073	23925.91
542.274	24589.45
542.474	24464.52
542.675	24165.52
542.875	24474.76
543.075	24298.64
543.276	23835.8
543.476	24458.38
543.676	24353.93
543.877	24396.94
544.077	24245.39
544.277	24216.72
544.478	24210.57
544.678	24454.28
544.878	24480.91
545.078	24337.55
545.279	24177.81
545.479	24040.59
545.679	24439.95
545.879	24151.18
546.079	24329.36
546.28	24138.9
546.48	24089.74
546.68	24370.32
546.88	24507.53
547.08	24140.94
547.28	24206.48
547.48	24183.95
547.68	24364.17
547.88	24116.37
548.081	24151.18
548.281	23995.54
548.481	24386.7
548.681	24138.9
548.881	24194.19
549.081	24116.37
549.28	24114.32
549.48	24276.11
549.68	23942.29
549.88	24255.63
550.08	24192.14
550.28	23946.39
550.48	24251.53
550.68	24466.57
550.88	23733.4
551.08	24151.18
551.279	24065.17
551.479	23817.36
551.679	24243.34
551.879	23930
552.079	24188.05
552.278	24083.6
552.478	24282.25
552.678	24108.18
552.878	24224.91
553.077	23819.41
553.277	24134.8
553.477	24095.89
553.676	24106.13
553.876	23831.7
554.076	23678.1
554.275	23741.59
554.475	23598.23
554.674	23778.45
554.874	23760.02
555.074	23755.93
555.273	23934.1
555.473	24167.57
555.672	23956.63
555.872	23618.71
556.071	23936.15
556.271	23766.17
556.47	23872.66
556.67	23563.42
556.869	23489.69
557.068	23391.39
557.268	23540.89
557.467	23368.86
557.667	23667.86
557.866	23504.03
558.065	23551.13
558.265	23401.63
558.464	23202.97
558.663	23442.59
558.863	23233.69
559.062	23119.01
559.261	23428.25
559.461	23309.47
559.66	23174.3
559.859	23264.41
560.058	23026.85
560.258	23184.54
560.457	22989.99
560.656	23348.38
560.855	22996.13
561.054	22899.87
561.253	22774.95
561.453	23104.67
561.652	22979.75
561.851	22473.9
562.05	22781.09
562.249	22863.01
562.448	22912.16
562.647	22619.3
562.846	22736.04
563.045	22494.38
563.244	22226.09
563.443	22742.18
563.642	22267.05
563.841	22236.33
564.04	22416.55
564.239	22348.97
564.438	21875.89
564.637	22312.11
564.836	22170.8
565.035	21861.55
565.234	22002.86
565.432	21957.81
565.631	21951.67
565.83	21705.91
566.029	21859.51
566.228	21617.85
566.427	21783.73
566.625	21695.67
566.824	21421.24
567.023	21525.69
567.222	21316.79
567.42	21535.93
567.619	21292.22
567.818	21263.55
568.016	21320.89
568.215	21419.19
568.414	21204.16
568.612	21267.64
568.811	21261.5
569.01	20929.73
569.208	20939.97
569.407	20978.88
569.605	20829.38
569.804	20991.17
570.002	20507.85
570.201	20796.61
570.4	20671.68
570.598	20557
570.797	20262.09
570.995	20417.74
571.193	20354.25
571.392	20374.73
571.59	20284.62
571.789	20354.25
571.987	20178.12
572.186	20081.87
572.384	19909.84
572.582	19989.71
572.781	20040.91
572.979	19780.82
573.177	20016.33
573.376	20251.85
573.574	19588.31
573.772	19737.81
573.971	19668.18
574.169	19012.83
574.367	19201.24
574.565	19502.29
574.763	19336.41
574.962	19348.7
575.16	19215.58
575.358	19166.43
575.556	19025.12
575.754	19268.83
575.952	18916.58
576.151	19125.47
576.349	18871.52
576.547	18732.26
576.745	18603.24
576.943	18765.03
577.141	18881.76
577.339	18586.85
577.537	18447.59
577.735	18502.89
577.933	18492.65
578.131	18453.73
578.329	18627.81
578.527	18439.4
578.725	18371.82
578.923	17923.31
579.121	18054.38
579.319	18130.16
579.516	18128.11
579.714	18083.05
579.912	17747.19
580.11	17943.79
580.308	17769.71
580.506	18027.76
580.704	17614.07
580.901	17976.56
581.099	18019.57
581.297	17542.39
581.495	17638.64
581.692	17310.97
581.89	17362.17
582.088	17695.99
582.285	17239.29
582.483	17528.05
582.681	17362.17
582.878	17353.98
583.076	17376.5
583.274	17177.85
583.471	17085.69
583.669	16954.62
583.866	16903.42
584.064	17276.15
584.262	16735.49
584.459	16862.46
584.657	16628.99
584.854	16784.64
585.052	16440.58
585.249	16344.33
585.447	16774.4
585.644	16362.76
585.841	16528.64
586.039	16549.12
586.236	16160.01
586.434	16192.78
586.631	16293.13
586.828	16299.27
587.026	16239.88
587.223	16004.36
587.42	16018.7
587.618	16338.18
587.815	16078.09
588.012	15971.6
588.21	15877.39
588.407	16098.57
588.604	15762.7
588.801	15791.38
588.999	15545.62
589.196	15529.24
589.393	15746.32
589.59	15590.67
589.787	15273.24
589.984	15394.07
590.182	15510.8
590.379	15588.63
590.576	15074.59
590.773	15144.22
590.97	15002.91
591.167	15056.15
591.364	15156.5
591.561	15074.59
591.758	14849.31
591.955	14966.04
592.152	15064.35
592.349	14648.61
592.546	15064.35
592.743	14621.98
592.94	14882.08
593.137	14800.16
593.334	14873.89
593.531	14370.08
593.727	14650.66
593.924	14552.35
594.121	14376.23
594.318	14583.07
594.515	14249.25
594.712	14318.89
594.908	14290.21
595.105	14251.3
595.302	14409
595.499	14337.32
595.696	14247.21
595.892	13942.06
596.089	14071.08
596.286	13911.34
596.482	14142.76
596.679	13856.04
596.876	13790.51
597.072	13813.04
597.269	13677.87
597.466	13833.52
597.662	13882.67
597.859	13647.15
598.055	13757.74
598.252	13589.81
598.448	13587.76
598.645	13548.85
598.841	13421.88
599.038	13227.32
599.234	13479.22
599.431	13276.47
599.627	13356.34
599.824	13276.47
600.02	12881.21
600.217	13102.39
600.413	13069.62
600.609	13192.5
600.806	13053.24
601.002	13317.43
601.198	12905.79
601.395	12795.2
601.591	12827.96
601.787	12916.03
601.984	12979.51
602.18	12784.96
602.376	12774.72
602.572	12637.5
602.769	12875.07
602.965	12528.96
603.161	12506.43
603.357	12457.28
603.553	12442.95
603.75	12606.78
603.946	12588.35
604.142	12365.12
604.338	12514.63
604.534	12479.81
604.73	12127.56
604.926	12232.01
605.122	12303.68
605.318	12168.52
605.514	12004.68
605.71	11947.34
605.906	12115.27
606.102	11969.87
606.298	11808.08
606.494	12086.6
606.69	11857.23
606.886	11646.29
607.082	12016.97
607.278	11859.28
607.474	11539.79
607.67	11644.24
607.866	11597.14
608.062	11881.8
608.257	11879.75
608.453	11554.13
608.649	11791.69
608.845	11433.3
609.041	11410.77
609.236	11707.73
609.432	11416.91
609.628	11595.09
609.824	11507.02
610.019	11459.92
610.215	11160.92
610.411	11468.11
610.606	11429.2
610.802	11216.21
610.998	11386.19
611.193	11242.84
611.389	11253.08
611.584	11283.8
611.78	11138.39
611.976	11136.34
612.171	11132.25
612.367	10974.55
612.562	11122.01
612.758	10898.78
612.953	10933.59
613.149	11187.54
613.344	10792.28
613.539	11214.16
613.735	10833.24
613.93	11189.59
614.126	11011.42
614.321	10909.02
614.517	10898.78
614.712	10689.88
614.907	10622.3
615.103	10681.69
615.298	10827.1
615.493	10851.67
615.688	10530.14
615.884	10714.46
616.079	10704.22
616.274	10792.28
616.47	10761.56
616.665	10562.91
616.86	10581.34
617.055	10444.13
617.25	10198.37
617.445	10538.34
617.641	10272.1
617.836	10528.1
618.031	10194.28
618.226	10411.36
618.421	10208.61
618.616	10194.28
618.811	10302.82
619.006	10231.14
619.201	9964.9
619.396	10333.54
619.591	9930.09
619.786	10055.01
619.981	9805.16
620.176	9792.87
620.371	9817.45
620.566	9856.36
620.761	9819.5
620.956	9856.36
621.151	9530.73
621.346	9639.28
621.541	9768.3
621.735	9833.83
621.93	9387.38
622.125	9450.86
622.32	9340.27
622.515	9565.55
622.709	9489.78
622.904	9219.44
623.099	9201.01
623.294	9190.77
623.488	8963.45
623.683	8977.78
623.878	8934.78
624.072	9137.52
624.267	9020.79
624.462	9004.41
624.656	8813.95
624.851	8842.62
625.046	8781.18
625.24	8637.82
625.435	8629.63
625.629	8594.81
625.824	8686.97
626.018	8588.67
626.213	8492.41
626.407	8478.08
626.602	8525.18
626.796	8357.25
626.991	8320.39
627.185	8193.41
627.38	8230.27
627.574	8064.39
627.768	8183.17
627.963	8138.12
628.157	7935.37
628.352	7982.47
628.546	7769.48
628.74	7699.85
628.935	7929.22
629.129	7730.57
629.323	7697.8
629.517	7712.14
629.712	7497.1
629.906	7589.26
630.1	7501.2
630.294	7687.56
630.489	7591.31
630.683	7454.09
630.877	7474.57
631.071	7427.47
631.265	7343.5
631.459	7249.3
631.653	7384.46
631.848	7314.83
632.042	7112.08
632.236	7153.04
632.43	7212.43
632.624	7150.99
632.818	6983.06
633.012	6974.87
633.206	7001.49
633.4	6903.19
633.594	6911.38
633.788	7030.16
633.982	6794.65
634.176	6933.91
634.369	6661.53
634.563	6794.65
634.757	6651.29
634.951	6774.17
635.145	6647.19
635.339	6516.12
635.533	6610.33
635.726	6540.7
635.92	6528.41
636.114	6505.88
636.308	6432.16
636.501	6557.08
636.695	6423.97
636.889	6415.77
637.083	6401.44
637.276	6147.49
637.47	6356.38
637.664	6155.68
637.857	6102.43
638.051	6131.11
638.244	6041
638.438	6065.57
638.632	5954.98
638.825	5770.66
639.019	5877.16
639.212	5877.16
639.406	5977.51
639.599	5858.73
639.793	5860.77
639.986	5805.48
640.18	5756.33
640.373	5690.79
640.567	5533.1
640.76	5674.41
640.954	5690.79
641.147	5582.25
641.34	5574.06
641.534	5535.15
641.727	5582.25
641.92	5483.95
642.114	5399.98
642.307	5330.35
642.5	5502.38
642.694	5342.64
642.887	5367.21
643.08	5344.69
643.273	5311.92
643.467	5262.77
643.66	5152.18
643.853	5273.01
644.046	5111.22
644.239	5135.79
644.432	5029.3
644.626	4894.13
644.819	5125.55
645.012	5060.02
645.205	4998.58
645.398	4855.22
645.591	4861.37
645.784	4974
645.977	4900.28
646.17	5017.01
646.363	4718.01
646.556	4615.61
646.749	4720.06
646.942	4771.26
647.135	4847.03
647.328	4519.36
647.521	4591.03
647.714	4556.22
647.907	4619.71
648.099	4677.05
648.292	4517.31
648.485	4527.55
648.678	4425.15
648.871	4427.2
649.064	4445.63
649.256	4328.89
649.449	4324.8
649.642	4445.63
649.835	4308.41
650.027	4273.6
650.22	4320.7
650.413	4185.54
650.605	4302.27
650.798	4355.52
650.991	4175.3
651.183	4332.99
651.376	4099.52
651.568	4038.08
651.761	4050.37
651.954	4107.71
652.146	4083.14
652.339	4115.91
652.531	4124.1
652.724	4007.36
652.916	3767.75
653.109	3853.77
653.301	3986.88
653.494	4007.36
653.686	3876.29
653.879	3943.88
654.071	3904.96
654.263	3909.06
654.456	3919.3
654.648	3788.23
654.84	3659.21
655.033	3763.65
655.225	3796.42
655.417	3669.45
655.61	3747.27
655.802	3706.31
655.994	3704.26
656.186	3622.34
656.379	3608.01
656.571	3724.74
656.763	3632.58
656.955	3636.68
657.148	3526.09
657.34	3509.71
657.532	3397.07
657.724	3456.46
657.916	3530.19
658.108	3521.99
658.3	3360.2
658.492	3454.41
658.684	3421.64
658.876	3329.49
659.068	3347.92
659.26	3339.73
659.452	3339.73
659.644	3311.05
659.836	3192.27
660.028	3216.85
660.22	3190.22
660.412	3341.77
660.604	3198.42
660.796	3206.61
660.988	3239.37
661.18	3112.4
661.372	3173.84
661.563	3184.08
661.755	3075.54
661.947	3046.87
662.139	3182.03
662.331	2985.43
662.522	3145.17
662.714	2823.64
662.906	2969.04
663.097	3036.63
663.289	2954.71
663.481	2989.52
663.673	2901.46
663.864	2928.08
664.056	2956.75
664.247	2784.73
664.439	2917.84
664.631	2823.64
664.822	2868.69
665.014	2878.93
665.205	2866.64
665.397	2829.78
665.588	2665.94
665.78	2706.9
665.971	2780.63
666.163	2760.15
666.354	2788.82
666.546	2651.61
666.737	2727.38
666.929	2708.95
667.12	2649.56
667.311	2661.85
667.503	2620.89
667.694	2758.1
667.885	2657.75
668.077	2649.56
668.268	2569.69
668.459	2641.37
668.651	2522.59
668.842	2637.27
669.033	2504.15
669.224	2504.15
669.416	2545.11
669.607	2526.68
669.798	2477.53
669.989	2614.74
670.18	2534.87
670.371	2467.29
670.563	2440.67
670.754	2528.73
670.945	2442.71
671.136	2502.11
671.327	2448.86
671.518	2387.42
671.709	2471.39
671.9	2416.09
672.091	2405.85
672.282	2364.89
672.473	2348.51
672.664	2330.08
672.855	2461.15
673.046	2262.49
673.237	2432.47
673.428	2289.12
673.619	2315.74
673.809	2276.83
674	2354.65
674.191	2344.41
674.382	2254.3
674.573	2280.93
674.764	2276.83
674.954	2196.96
675.145	2356.7
675.336	2233.82
675.527	2244.06
675.717	2223.58
675.908	2133.47
676.099	2256.35
676.289	2291.17
676.48	2194.91
676.671	2145.76
676.861	2141.66
677.052	2117.09
677.243	2086.37
677.433	2321.88
677.624	2248.16
677.814	2239.97
678.005	2225.63
678.195	2153.95
678.386	2100.7
678.576	2115.04
678.767	2018.79
678.957	2190.81
679.148	2141.66
679.338	2325.98
679.529	2121.18
679.719	2143.71
679.909	2174.43
680.1	2178.53
680.29	2141.66
680.481	2094.56
680.671	2104.8
680.861	2217.44
681.052	2104.8
681.242	2059.74
681.432	2086.37
681.622	2129.38
681.813	1969.63
682.003	2092.51
682.193	2055.65
682.383	2176.48
682.573	2088.42
682.764	2078.18
682.954	2067.94
683.144	2153.95
683.334	2133.47
683.524	1979.87
683.714	2176.48
683.904	2035.17
684.094	2139.62
684.284	2059.74
684.474	2082.27
684.664	1977.83
684.854	1979.87
685.044	2076.13
685.234	2039.26
685.424	2102.75
685.614	2051.55
685.804	2061.79
685.994	1922.53
686.184	1957.35
686.374	2029.03
686.564	2053.6
686.753	2096.61
686.943	1912.29
687.133	1943.01
687.323	1977.83
687.513	1957.35
687.702	1975.78
687.892	1932.77
688.082	1883.62
688.272	1947.11
688.461	1963.49
688.651	1955.3
688.841	1973.73
689.03	1996.26
689.22	1875.43
689.41	1889.76
689.599	1906.15
689.789	1822.18
689.979	1947.11
690.168	1895.91
690.358	1916.39
690.547	1854.95
690.737	1879.52
690.926	1740.26
691.116	1750.5
691.305	1875.43
691.495	1775.08
691.684	1711.59
691.874	1873.38
692.063	1910.24
692.252	1719.78
692.442	1766.89
692.631	1768.93
692.82	1848.8
693.01	1756.65
693.199	1699.3
693.388	1803.75
693.578	1713.64
693.767	1678.82
693.956	1709.54
694.146	1633.77
694.335	1744.36
694.524	1674.73
694.713	1816.04
694.902	1666.53
695.092	1619.43
695.281	1695.21
695.47	1756.65
695.659	1619.43
695.848	1758.69
696.037	1644.01
696.226	1756.65
696.415	1736.17
696.604	1670.63
696.793	1721.83
696.982	1723.88
697.171	1695.21
697.36	1660.39
697.549	1734.12
697.738	1781.22
697.927	1750.5
698.116	1639.91
698.305	1740.26
698.494	1766.89
698.683	1613.29
698.872	1680.87
699.061	1670.63
699.25	1590.76
699.438	1684.97
699.627	1691.11
699.816	1666.53
700.005	1633.77
700.193	1732.07
700.382	1871.33
700.571	1744.36
700.76	1684.97
700.948	1670.63
701.137	1740.26
701.326	1754.6
701.514	1707.49
701.703	1629.67
701.892	1648.1
702.08	1717.73
702.269	1674.73
702.457	1740.26
702.646	1691.11
702.834	1687.01
703.023	1689.06
703.212	1758.69
703.4	1586.66
703.589	1664.49
703.777	1666.53
703.965	1592.81
704.154	1695.21
704.342	1652.2
704.531	1639.91
704.719	1596.9
704.907	1781.22
705.096	1594.86
705.284	1783.27
705.472	1668.58
705.661	1644.01
705.849	1658.34
706.037	1725.93
706.226	1758.69
706.414	1736.17
706.602	1662.44
706.79	1670.63
706.979	1783.27
707.167	1674.73
707.355	1650.15
707.543	1650.15
707.731	1752.55
707.919	1717.73
708.107	1781.22
708.296	1660.39
708.484	1687.01
708.672	1691.11
708.86	1594.86
709.048	1670.63
709.236	1699.3
709.424	1740.26
709.612	1693.16
709.8	1609.19
709.988	1732.07
710.176	1754.6
710.364	1738.21
710.551	1758.69
710.739	1717.73
710.927	1752.55
711.115	1621.48
711.303	1695.21
711.491	1723.88
711.679	1654.25
711.866	1824.23
712.054	1723.88
712.242	1674.73
712.43	1682.92
712.617	1691.11
712.805	1652.2
712.993	1674.73
713.181	1596.9
713.368	1719.78
713.556	1740.26
713.744	1695.21
713.931	1672.68
714.119	1674.73
714.306	1752.55
714.494	1740.26
714.682	1672.68
714.869	1652.2
715.057	1654.25
715.244	1721.83
715.432	1723.88
715.619	1717.73
715.807	1652.2
715.994	1691.11
716.182	1650.15
716.369	1709.54
716.556	1637.86
716.744	1695.21
716.931	1654.25
717.119	1818.08
717.306	1732.07
717.493	1670.63
717.681	1723.88
717.868	1701.35
718.055	1732.07
718.242	1654.25
718.43	1732.07
718.617	1750.5
718.804	1799.65
718.991	1633.77
719.179	1727.97
719.366	1736.17
719.553	1625.58
719.74	1701.35
719.927	1617.38
720.114	1676.77
720.301	1707.49
720.488	1699.3
720.676	1736.17
720.863	1789.41
721.05	1613.29
721.237	1635.82
721.424	1744.36
721.611	1691.11
721.798	1693.16
721.985	1777.12
722.172	1682.92
722.358	1711.59
722.545	1678.82
722.732	1627.62
722.919	1752.55
723.106	1644.01
723.293	1723.88
723.48	1764.84
723.667	1693.16
723.853	1713.64
724.04	1785.32
724.227	1654.25
724.414	1666.53
724.6	1752.55
724.787	1674.73
724.974	1799.65
725.161	1609.19
725.347	1641.96
725.534	1574.38
725.72	1652.2
725.907	1658.34
726.094	1699.3
726.28	1650.15
726.467	1674.73
726.653	1824.23
726.84	1783.27
727.027	1711.59
727.213	1625.58
727.4	1627.62
727.586	1764.84
727.773	1654.25
727.959	1633.77
728.145	1693.16
728.332	1625.58
728.518	1807.84
728.705	1682.92
728.891	1730.02
729.077	1723.88
729.264	1691.11
729.45	1654.25
729.636	1713.64
729.823	1750.5
730.009	1674.73
730.195	1764.84
730.382	1748.45
730.568	1766.89
730.754	1715.69
730.94	1609.19
731.126	1598.95
731.313	1666.53
731.499	1682.92
731.685	1695.21
731.871	1637.86
732.057	1697.25
732.243	1627.62
732.429	1676.77
732.615	1674.73
732.801	1670.63
732.987	1736.17
733.173	1644.01
733.359	1738.21
733.545	1701.35
733.731	1641.96
733.917	1723.88
734.103	1674.73
734.289	1674.73
734.475	1727.97
734.661	1680.87
734.847	1699.3
735.033	1709.54
735.219	1644.01
735.404	1635.82
735.59	1551.85
735.776	1576.42
735.962	1666.53
736.148	1713.64
736.333	1668.58
736.519	1625.58
736.705	1601
736.89	1562.09
737.076	1654.25
737.262	1654.25
737.447	1588.71
737.633	1656.29
737.819	1736.17
738.004	1658.34
738.19	1625.58
738.375	1560.04
738.561	1555.94
738.747	1547.75
738.932	1646.05
739.118	1637.86
739.303	1613.29
739.489	1535.46
739.674	1582.57
739.859	1576.42
740.045	1560.04
740.23	1471.98
740.416	1441.26
740.601	1531.37
740.786	1543.66
740.972	1510.89
741.157	1553.9
741.342	1545.7
741.528	1471.98
741.713	1617.38
741.898	1461.74
742.084	1545.7
742.269	1535.46
742.454	1471.98
742.639	1572.33
742.824	1519.08
743.01	1463.79
743.195	1476.07
743.38	1490.41
743.565	1426.92
743.75	1463.79
743.935	1476.07
744.12	1424.87
744.305	1508.84
744.49	1455.59
744.675	1445.35
744.86	1459.69
745.045	1369.58
745.23	1469.93
745.415	1461.74
745.6	1414.63
745.785	1412.59
745.97	1482.22
746.155	1412.59
746.34	1326.57
746.525	1445.35
746.71	1521.13
746.895	1388.01
747.079	1314.28
747.264	1433.07
747.449	1420.78
747.634	1250.8
747.819	1324.52
748.003	1338.86
748.188	1359.34
748.373	1293.8
748.557	1310.19
748.742	1330.67
748.927	1299.95
749.111	1295.85
749.296	1234.41
749.481	1195.5
749.665	1265.13
749.85	1144.3
750.034	1218.03
750.219	1328.62
750.404	1160.69
750.588	1287.66
750.773	1199.6
750.957	1152.49
751.141	1105.39
751.326	1170.93
751.51	1152.49
751.695	1242.61
751.879	1060.34
752.064	1199.6
752.248	1211.89
752.432	1224.17
752.617	1140.21
752.801	1199.6
752.985	1129.97
753.17	1129.97
753.354	1166.83
753.538	1117.68
753.722	1095.15
753.907	1086.96
754.091	996.85
754.275	1117.68
754.459	1019.38
754.643	955.89
754.828	1062.38
755.012	1019.38
755.196	998.9
755.38	937.46
755.564	992.75
755.748	1013.23
755.932	1015.28
756.116	980.47
756.3	906.74
756.484	1011.18
756.668	972.27
756.852	931.31
757.036	863.73
757.22	972.27
757.404	962.03
757.588	855.54
757.772	880.11
757.956	962.03
758.14	951.79
758.323	955.89
758.507	914.93
758.691	986.61
758.875	994.8
759.059	978.42
759.242	806.39
759.426	896.5
759.61	888.31
759.794	857.59
759.977	826.87
760.161	847.35
760.345	937.46
760.528	833.01
760.712	873.97
760.895	863.73
761.079	779.76
761.263	863.73
761.446	843.25
761.63	847.35
761.813	837.11
761.997	773.62
762.18	716.28
762.364	814.58
762.547	747
762.731	830.96
762.914	761.33
763.098	658.93
763.281	736.76
763.464	732.66
763.648	771.57
763.831	761.33
764.015	691.7
764.198	802.29
764.381	691.7
764.564	716.28
764.748	744.95
764.931	814.58
765.114	695.8
765.297	675.32
765.481	699.89
765.664	800.24
765.847	749.04
766.03	814.58
766.213	771.57
766.397	675.32
766.58	650.74
766.763	728.56
766.946	663.03
767.129	667.13
767.312	638.45
767.495	718.33
767.678	699.89
767.861	675.32
768.044	630.26
768.227	660.98
768.41	703.99
768.593	652.79
768.776	757.24
768.959	675.32
769.142	658.93
769.324	562.68
769.507	642.55
769.69	579.06
769.873	646.65
770.056	794.1
770.239	675.32
770.421	691.7
770.604	720.37
770.787	648.69
770.97	620.02
771.152	646.65
771.335	675.32
771.518	595.45
771.7	634.36
771.883	671.22
772.066	646.65
772.248	638.45
772.431	644.6
772.613	593.4
772.796	581.11
772.978	613.88
773.161	769.52
773.343	624.12
773.526	554.49
773.708	634.36
773.891	568.82
774.073	634.36
774.256	527.86
774.438	634.36
774.621	486.9
774.803	595.45
774.985	589.3
775.168	667.13
775.35	570.87
775.532	601.59
775.715	515.58
775.897	538.1
776.079	486.9
776.261	574.97
776.444	577.02
776.626	515.58
776.808	491
776.99	495.1
777.173	593.4
777.355	531.96
777.537	564.73
777.719	536.06
777.901	503.29
778.083	503.29
778.265	527.86
778.447	503.29
778.629	499.19
778.811	450.04
778.993	462.33
779.175	499.19
779.357	513.53
779.539	476.66
779.721	431.61
779.903	538.1
780.085	495.1
780.267	466.42
780.449	425.47
780.631	486.9
780.812	433.66
780.994	433.66
781.176	493.05
781.358	470.52
781.54	445.95
781.721	364.03
781.903	474.62
782.085	400.89
782.267	470.52
782.448	388.6
782.63	423.42
782.812	413.18
782.993	417.27
783.175	421.37
783.357	478.71
783.538	392.7
783.72	394.75
783.901	415.23
784.083	407.03
784.264	396.79
784.446	349.69
784.627	280.06
784.809	402.94
784.99	462.33
785.172	312.83
785.353	413.18
785.535	325.12
785.716	318.97
785.897	355.83
786.079	333.31
786.26	335.35
786.441	267.77
786.623	249.34
786.804	278.01
786.985	323.07
787.167	398.84
787.348	413.18
787.529	329.21
787.71	331.26
787.891	292.35
788.073	265.72
788.254	232.96
788.435	380.41
788.616	372.22
788.797	323.07
788.978	290.3
789.159	300.54
789.34	314.88
789.522	304.64
789.703	275.96
789.884	341.5
790.065	306.68
790.246	310.78
790.427	298.49
790.607	282.11
790.788	321.02
790.969	222.72
791.15	337.4
791.331	216.57
791.512	323.07
791.693	183.81
791.874	273.92
792.054	218.62
792.235	257.53
792.416	278.01
792.597	241.15
792.778	267.77
792.958	359.93
793.139	290.3
793.32	257.53
793.5	224.76
793.681	226.81
793.862	265.72
794.042	183.81
794.223	259.58
794.404	243.2
794.584	183.81
794.765	275.96
794.945	282.11
795.126	183.81
795.306	251.39
795.487	273.92
795.667	198.14
795.848	275.96
796.028	273.92
796.209	187.9
796.389	245.24
796.57	148.99
796.75	155.13
796.93	251.39
797.111	230.91
797.291	296.44
797.471	183.81
797.652	216.57
797.832	192
798.012	165.37
798.192	212.48
798.373	204.28
798.553	302.59
798.733	241.15
798.913	253.44
799.093	155.13
799.274	228.86
799.454	192
799.634	253.44
799.814	157.18
799.994	247.29
800.174	339.45
800.354	155.13
800.534	142.85
800.714	220.67
800.894	177.66
801.074	175.61
801.254	163.33
801.434	134.65
801.614	177.66
801.794	136.7
801.974	736.76
802.154	202.24
802.334	282.11
802.514	144.89
802.693	210.43
802.873	169.47
803.053	177.66
803.233	200.19
803.413	120.32
803.592	177.66
803.772	194.05
803.952	122.37
804.131	142.85
804.311	181.76
804.491	228.86
804.67	126.46
804.85	126.46
805.03	175.61
805.209	298.49
805.389	118.27
805.568	167.42
805.748	175.61
805.928	142.85
806.107	161.28
806.287	128.51
806.466	79.36
806.646	210.43
806.825	228.86
807.004	85.5
807.184	87.55
807.363	177.66
807.543	142.85
807.722	175.61
807.901	183.81
808.081	273.92
808.26	118.27
808.439	224.76
808.619	153.09
808.798	81.41
808.977	101.89
809.156	118.27
809.336	118.27
809.515	179.71
809.694	97.79
809.873	214.52
810.052	163.33
810.231	232.96
810.411	93.69
810.59	216.57
810.769	52.74
810.948	114.17
811.127	114.17
811.306	192
811.485	196.09
811.664	169.47
811.843	85.5
812.022	206.33
812.201	105.98
812.38	187.9
812.559	77.31
812.737	157.18
812.916	87.55
813.095	183.81
813.274	159.23
813.453	151.04
813.632	71.17
813.811	69.12
813.989	128.51
814.168	120.32
814.347	65.02
814.526	120.32
814.704	77.31
814.883	208.38
815.062	52.74
815.24	105.98
815.419	110.08
815.598	38.4
815.776	93.69
815.955	101.89
816.133	105.98
816.312	60.93
816.49	69.12
816.669	116.22
816.847	136.7
817.026	101.89
817.204	87.55
817.383	93.69
817.561	62.98
817.74	73.21
817.918	118.27
818.097	95.74
818.275	50.69
818.453	65.02
818.632	77.31
818.81	112.13
818.988	42.5
819.167	116.22
819.345	87.55
819.523	146.94
819.701	128.51
819.879	151.04
820.058	65.02
820.236	136.7
820.414	142.85
820.592	118.27
820.77	153.09
820.948	85.5
821.127	52.74
821.305	169.47
821.483	87.55
821.661	52.74
821.839	128.51
822.017	48.64
822.195	81.41
822.373	118.27
822.551	62.98
822.729	118.27
822.907	105.98
823.085	87.55
823.262	69.12
823.44	126.46
823.618	118.27
823.796	46.59
823.974	120.32
824.152	71.17
824.329	124.41
824.507	97.79
824.685	73.21
824.863	81.41
825.04	95.74
825.218	77.31
825.396	44.54
825.574	144.89
825.751	85.5
825.929	108.03
826.107	93.69
826.284	93.69
826.462	99.84
826.639	110.08
826.817	110.08
826.994	58.88
827.172	11.78
827.349	163.33
827.527	77.31
827.704	110.08
827.882	52.74
828.059	93.69
828.237	77.31
828.414	118.27
828.591	42.5
828.769	120.32
828.946	-0.51
829.124	69.12
829.301	83.45
829.478	110.08
829.655	44.54
829.833	15.87
830.01	77.31
830.187	60.93
830.364	22.02
830.542	19.97
830.719	52.74
830.896	120.32
831.073	44.54
831.25	69.12
831.427	28.16
831.604	69.12
831.782	52.74
831.959	28.16
832.136	69.12
832.313	73.21
832.49	60.93
832.667	56.83
832.844	62.98
833.021	75.26
833.198	69.12
833.374	89.6
833.551	7.68
833.728	-2.56
833.905	161.28
834.082	32.26
834.259	101.89
834.436	89.6
834.612	28.16
834.789	60.93
834.966	13.82
835.143	65.02
835.319	38.4
835.496	103.93
835.673	44.54
835.85	95.74
836.026	32.26
836.203	140.8
836.38	22.02
836.556	60.93
836.733	32.26
836.909	87.55
837.086	-31.23
837.262	54.78
837.439	-10.75
837.616	67.07
837.792	69.12
837.968	81.41
838.145	36.35
838.321	48.64
838.498	36.35
838.674	101.89
838.851	22.02
839.027	34.3
839.203	69.12
839.38	89.6
839.556	-29.18
839.732	79.36
839.909	22.02
840.085	56.83
840.261	54.78
840.437	44.54
840.614	36.35
840.79	85.5
840.966	28.16
841.142	56.83
841.318	11.78
841.494	32.26
841.671	93.69
841.847	1.54
842.023	-25.09
842.199	58.88
842.375	48.64
842.551	-4.61
842.727	-72.19
842.903	65.02
843.079	-49.66
843.255	153.09
843.431	-12.8
843.607	15.87
843.783	7.68
843.959	85.5
844.134	28.16
844.31	54.78
844.486	5.63
844.662	-18.94
844.838	42.5
845.013	28.16
845.189	15.87
845.365	52.74
845.541	65.02
845.716	85.5
845.892	95.74
846.068	3.58
846.244	110.08
846.419	60.93
846.595	38.4
846.77	-33.28
846.946	60.93
847.122	126.46
847.297	52.74
847.473	65.02
847.648	22.02
847.824	9.73
847.999	-20.99
848.175	99.84
848.35	28.16
848.526	97.79
848.701	101.89
848.876	60.93
849.052	50.69
849.227	-4.61
849.403	42.5
849.578	36.35
849.753	17.92
849.929	60.93
850.104	69.12
850.279	-16.9
850.454	105.98
850.63	40.45
850.805	122.37
850.98	5.63
851.155	22.02
851.33	52.74
851.505	11.78
851.681	-25.09
851.856	44.54
852.031	38.4
852.206	52.74
852.381	-43.52
852.556	17.92
852.731	22.02
852.906	11.78
853.081	73.21
853.256	-2.56
853.431	-8.7
853.606	-6.66
853.781	-53.76
853.956	28.16
854.131	11.78
854.305	62.98
854.48	15.87
854.655	46.59
854.83	15.87
855.005	-14.85
855.18	34.3
855.354	-12.8
855.529	-4.61
855.704	5.63
855.879	140.8
856.053	75.26
856.228	69.12
856.403	22.02
856.577	60.93
856.752	19.97
856.926	15.87
857.101	13.82
857.276	60.93
857.45	65.02
857.625	15.87
857.799	52.74
857.974	62.98
858.148	22.02
858.323	22.02
858.497	24.06
858.672	-0.51
858.846	-14.85
859.02	22.02
859.195	-23.04
859.369	56.83
859.543	11.78
859.718	24.06
859.892	101.89
860.066	65.02
860.241	11.78
860.415	62.98
860.589	24.06
860.763	-20.99
860.938	36.35
861.112	91.65
861.286	13.82
861.46	38.4
861.634	-43.52
861.808	24.06
861.982	13.82
862.157	52.74
862.331	-8.7
862.505	19.97
862.679	38.4
862.853	24.06
863.027	-14.85
863.201	69.12
863.375	56.83
863.549	62.98
863.722	93.69
863.896	22.02
864.07	-4.61
864.244	-53.76
864.418	89.6
864.592	22.02
864.766	-70.14
864.939	11.78
865.113	52.74
865.287	60.93
865.461	34.3
865.634	-18.94
865.808	-2.56
865.982	-88.57
866.156	-37.38
866.329	-29.18
866.503	-12.8
866.676	-37.38
866.85	15.87
867.024	11.78
867.197	3.58
867.371	22.02
867.544	81.41
867.718	-10.75
867.891	36.35
868.065	13.82
868.238	52.74
868.412	71.17
868.585	62.98
868.759	67.07
868.932	19.97
869.105	-0.51
869.279	3.58
869.452	19.97
869.625	36.35
869.799	69.12
869.972	26.11
870.145	-37.38
870.319	32.26
870.492	28.16
870.665	-25.09
870.838	36.35
871.011	-0.51
871.185	28.16
871.358	30.21
871.531	81.41
871.704	-12.8
871.877	71.17
872.05	-45.57
872.223	-4.61
872.396	52.74
872.569	69.12
872.742	-4.61
872.915	60.93
873.088	-20.99
873.261	1.54
873.434	-25.09
873.607	-27.14
873.78	15.87
873.953	11.78
874.126	-18.94
874.299	5.63
874.471	22.02
874.644	5.63
874.817	5.63
874.99	71.17
875.163	44.54
875.335	44.54
875.508	36.35
875.681	71.17
875.853	-4.61
876.026	28.16
876.199	65.02
876.371	-31.23
876.544	126.46
876.717	52.74
876.889	-2.56
877.062	-29.18
877.234	-10.75
877.407	-18.94
877.579	19.97
877.752	19.97
877.924	-49.66
878.097	-12.8
878.269	22.02
878.442	44.54
878.614	-8.7
878.786	36.35
878.959	48.64
879.131	99.84
879.303	3.58
879.476	-39.42
879.648	26.11
879.82	44.54
879.993	11.78
880.165	30.21
880.337	-0.51
880.509	-37.38
880.681	-49.66
880.854	24.06
881.026	-29.18
881.198	103.93
881.37	52.74
881.542	44.54
881.714	3.58
881.886	-12.8
882.058	-27.14
882.23	13.82
882.402	7.68
882.574	15.87
882.746	46.59
882.918	5.63
883.09	15.87
883.262	-33.28
883.434	26.11
883.606	15.87
883.778	-35.33
883.95	15.87
884.122	40.45
884.293	122.37
884.465	-20.99
884.637	24.06
884.809	-59.9
884.98	93.69
885.152	-27.14
885.324	34.3
885.496	40.45
885.667	19.97
885.839	28.16
886.011	44.54
886.182	11.78
886.354	13.82
886.525	52.74
886.697	-45.57
886.869	-8.7
887.04	-4.61
887.212	52.74
887.383	30.21
887.555	48.64
887.726	-10.75
887.897	-12.8
888.069	77.31
888.24	19.97
888.412	-47.62
888.583	-18.94
888.754	-29.18
888.926	-49.66
889.097	-20.99
889.268	-119.29
889.44	13.82
889.611	-74.24
889.782	-49.66
889.953	28.16
890.125	11.78
890.296	11.78
890.467	22.02
890.638	42.5
890.809	-29.18
890.98	-53.76
891.151	19.97
891.323	34.3
891.494	9.73
891.665	11.78
891.836	-16.9
892.007	79.36
892.178	5.63
892.349	13.82
892.52	-25.09
892.691	11.78
892.862	77.31
893.032	-27.14
893.203	-12.8
893.374	7.68
893.545	28.16
893.716	-8.7
893.887	-20.99
894.057	-57.86
894.228	-29.18
894.399	3.58
894.57	42.5
894.74	-25.09
894.911	60.93
895.082	-31.23
895.253	7.68
895.423	11.78
895.594	93.69
895.764	62.98
895.935	-14.85
896.106	-16.9
896.276	-16.9
896.447	-8.7
896.617	-12.8
896.788	11.78
896.958	11.78
897.129	-31.23
897.299	46.59
897.47	46.59
897.64	3.58
897.81	19.97
897.981	48.64
898.151	-20.99
898.322	85.5
898.492	9.73
898.662	30.21
898.832	38.4
899.003	-8.7
899.173	48.64
899.343	-43.52
899.513	-2.56
