Data from USB4F104151__231__14-45-38-925.txt Node

Date: Thu Mar 13 14:45:38 EDT 2025
User: louis
Spectrometer: USB4F10415
Trigger mode: 4
Integration Time (sec): 2.000000E-2
Scans to average: 1
Electric dark correction enabled: true
Nonlinearity correction enabled: false
Boxcar width: 0
XAxis mode: Wavelengths
Number of Pixels in Spectrum: 3648
>>>>>Begin Spectral Data<<<<<
178.204	-113.32
178.424	-113.32
178.644	-113.32
178.864	-107.18
179.084	-101.03
179.304	42.32
179.524	-17.07
179.744	-27.31
179.964	21.85
180.184	-33.45
180.404	21.85
180.624	32.08
180.844	-2.73
181.064	-39.59
181.283	-8.87
181.503	-0.68
181.723	11.61
181.943	-43.69
182.163	122.2
182.383	-17.07
182.602	27.99
182.822	15.7
183.042	25.94
183.262	38.23
183.482	73.04
183.701	30.04
183.921	7.51
184.141	-33.45
184.361	50.52
184.58	9.56
184.8	-23.21
185.02	42.32
185.239	40.28
185.459	13.65
185.679	109.91
185.898	-43.69
186.118	99.67
186.338	32.08
186.557	75.09
186.777	-19.11
186.997	54.61
187.216	30.04
187.436	89.43
187.655	64.85
187.875	87.38
188.095	-6.83
188.314	-8.87
188.534	87.38
188.753	107.86
188.973	46.42
189.192	99.67
189.412	1.37
189.631	58.71
189.851	30.04
190.07	105.81
190.29	25.94
190.509	5.46
190.729	-8.87
190.948	46.42
191.168	81.24
191.387	120.15
191.607	-47.79
191.826	-33.45
192.045	81.24
192.265	62.8
192.484	48.47
192.704	38.23
192.923	-15.02
193.142	157.01
193.362	27.99
193.581	27.99
193.8	13.65
194.02	42.32
194.239	27.99
194.458	21.85
194.678	-17.07
194.897	71
195.116	83.28
195.335	40.28
195.555	60.76
195.774	13.65
195.993	-51.88
196.212	-6.83
196.432	48.47
196.651	-19.11
196.87	-0.68
197.089	128.34
197.308	27.99
197.528	54.61
197.747	13.65
197.966	46.42
198.185	152.92
198.404	-15.02
198.623	36.18
198.842	75.09
199.062	62.8
199.281	44.37
199.5	1.37
199.719	79.19
199.938	48.47
200.157	42.32
200.376	36.18
200.595	152.92
200.814	44.37
201.033	46.42
201.252	66.9
201.471	-10.92
201.69	79.19
201.909	17.75
202.128	-25.26
202.347	87.38
202.566	-21.16
202.785	1.37
203.004	5.46
203.223	187.73
203.442	87.38
203.661	-2.73
203.879	5.46
204.098	111.96
204.317	83.28
204.536	27.99
204.755	46.42
204.974	95.57
205.193	5.46
205.411	42.32
205.63	79.19
205.849	5.46
206.068	103.76
206.287	87.38
206.505	25.94
206.724	52.56
206.943	30.04
207.162	42.32
207.381	-6.83
207.599	9.56
207.818	34.13
208.037	-23.21
208.255	81.24
208.474	68.95
208.693	46.42
208.911	-27.31
209.13	17.75
209.349	42.32
209.567	46.42
209.786	71
210.005	130.39
210.223	-10.92
210.442	-2.73
210.661	27.99
210.879	99.67
211.098	-2.73
211.316	15.7
211.535	77.14
211.753	-19.11
211.972	58.71
212.191	-21.16
212.409	-2.73
212.628	71
212.846	7.51
213.065	73.04
213.283	124.24
213.502	89.43
213.72	9.56
213.938	15.7
214.157	17.75
214.375	23.89
214.594	-37.55
214.812	-0.68
215.031	-51.88
215.249	11.61
215.467	13.65
215.686	17.75
215.904	46.42
216.122	5.46
216.341	27.99
216.559	62.8
216.778	32.08
216.996	50.52
217.214	64.85
217.432	66.9
217.651	-33.45
217.869	21.85
218.087	32.08
218.306	-39.59
218.524	46.42
218.742	-0.68
218.96	30.04
219.179	58.71
219.397	38.23
219.615	95.57
219.833	54.61
220.051	42.32
220.27	83.28
220.488	56.66
220.706	79.19
220.924	66.9
221.142	7.51
221.36	50.52
221.578	25.94
221.796	-31.4
222.015	89.43
222.233	15.7
222.451	75.09
222.669	-2.73
222.887	21.85
223.105	9.56
223.323	40.28
223.541	11.61
223.759	62.8
223.977	42.32
224.195	60.76
224.413	-51.88
224.631	-2.73
224.849	32.08
225.067	120.15
225.285	27.99
225.503	62.8
225.721	-84.65
225.939	32.08
226.157	89.43
226.375	152.92
226.592	-2.73
226.81	120.15
227.028	38.23
227.246	97.62
227.464	36.18
227.682	21.85
227.9	7.51
228.117	79.19
228.335	-17.07
228.553	15.7
228.771	46.42
228.989	95.57
229.206	5.46
229.424	7.51
229.642	-2.73
229.86	17.75
230.077	40.28
230.295	54.61
230.513	44.37
230.731	87.38
230.948	83.28
231.166	114
231.384	1.37
231.601	-62.12
231.819	87.38
232.037	79.19
232.254	15.7
232.472	58.71
232.689	-49.83
232.907	46.42
233.125	34.13
233.342	50.52
233.56	52.56
233.777	5.46
233.995	25.94
234.213	13.65
234.43	-6.83
234.648	-10.92
234.865	23.89
235.083	66.9
235.3	21.85
235.518	13.65
235.735	97.62
235.953	111.96
236.17	62.8
236.388	54.61
236.605	-23.21
236.822	-15.02
237.04	34.13
237.257	56.66
237.475	1.37
237.692	13.65
237.909	73.04
238.127	13.65
238.344	30.04
238.562	64.85
238.779	-15.02
238.996	-10.92
239.214	-4.78
239.431	40.28
239.648	-0.68
239.865	34.13
240.083	56.66
240.3	-35.5
240.517	-25.26
240.735	32.08
240.952	79.19
241.169	73.04
241.386	17.75
241.603	-15.02
241.821	9.56
242.038	120.15
242.255	62.8
242.472	13.65
242.689	64.85
242.907	44.37
243.124	7.51
243.341	23.89
243.558	-6.83
243.775	38.23
243.992	19.8
244.209	38.23
244.426	66.9
244.643	32.08
244.86	60.76
245.078	-0.68
245.295	21.85
245.512	7.51
245.729	9.56
245.946	71
246.163	17.75
246.38	13.65
246.597	5.46
246.814	36.18
247.031	-33.45
247.248	50.52
247.464	-10.92
247.681	38.23
247.898	56.66
248.115	21.85
248.332	34.13
248.549	38.23
248.766	71
248.983	-0.68
249.2	79.19
249.417	75.09
249.633	32.08
249.85	62.8
250.067	-2.73
250.284	25.94
250.501	21.85
250.717	107.86
250.934	11.61
251.151	-33.45
251.368	9.56
251.585	23.89
251.801	30.04
252.018	-43.69
252.235	54.61
252.451	38.23
252.668	23.89
252.885	15.7
253.102	27.99
253.318	60.76
253.535	13.65
253.752	5.46
253.968	81.24
254.185	-2.73
254.401	-8.87
254.618	54.61
254.835	25.94
255.051	136.53
255.268	-6.83
255.484	64.85
255.701	21.85
255.917	40.28
256.134	-55.98
256.351	25.94
256.567	-2.73
256.784	7.51
257	-0.68
257.217	64.85
257.433	46.42
257.65	83.28
257.866	21.85
258.082	-51.88
258.299	5.46
258.515	54.61
258.732	-23.21
258.948	-19.11
259.165	36.18
259.381	38.23
259.597	50.52
259.814	42.32
260.03	54.61
260.246	42.32
260.463	36.18
260.679	32.08
260.895	21.85
261.112	44.37
261.328	-15.02
261.544	-2.73
261.761	68.95
261.977	3.41
262.193	21.85
262.409	87.38
262.626	54.61
262.842	56.66
263.058	-8.87
263.274	30.04
263.49	79.19
263.707	48.47
263.923	5.46
264.139	-19.11
264.355	17.75
264.571	73.04
264.787	-15.02
265.004	58.71
265.22	111.96
265.436	58.71
265.652	15.7
265.868	-17.07
266.084	58.71
266.3	30.04
266.516	9.56
266.732	71
266.948	19.8
267.164	19.8
267.38	15.7
267.596	17.75
267.812	30.04
268.028	89.43
268.244	58.71
268.46	7.51
268.676	38.23
268.892	40.28
269.108	21.85
269.324	40.28
269.54	34.13
269.756	83.28
269.972	11.61
270.188	54.61
270.403	58.71
270.619	58.71
270.835	25.94
271.051	21.85
271.267	-6.83
271.483	-58.03
271.698	62.8
271.914	38.23
272.13	13.65
272.346	-66.22
272.562	15.7
272.777	103.76
272.993	13.65
273.209	46.42
273.425	95.57
273.64	-27.31
273.856	25.94
274.072	38.23
274.287	68.95
274.503	21.85
274.719	13.65
274.934	-101.03
275.15	-27.31
275.366	107.86
275.581	38.23
275.797	50.52
276.012	25.94
276.228	111.96
276.444	15.7
276.659	93.52
276.875	48.47
277.09	93.52
277.306	-15.02
277.521	13.65
277.737	75.09
277.952	95.57
278.168	-6.83
278.383	3.41
278.599	-2.73
278.814	17.75
279.03	34.13
279.245	7.51
279.461	111.96
279.676	75.09
279.892	1.37
280.107	-31.4
280.322	-31.4
280.538	9.56
280.753	-49.83
280.969	52.56
281.184	36.18
281.399	64.85
281.615	40.28
281.83	40.28
282.045	-23.21
282.26	-17.07
282.476	42.32
282.691	71
282.906	71
283.122	71
283.337	13.65
283.552	56.66
283.767	46.42
283.983	46.42
284.198	38.23
284.413	15.7
284.628	17.75
284.843	81.24
285.058	46.42
285.274	50.52
285.489	-6.83
285.704	81.24
285.919	23.89
286.134	97.62
286.349	1.37
286.564	-8.87
286.779	23.89
286.995	36.18
287.21	-29.35
287.425	32.08
287.64	23.89
287.855	36.18
288.07	-31.4
288.285	-35.5
288.5	32.08
288.715	19.8
288.93	52.56
289.145	13.65
289.36	81.24
289.575	7.51
289.79	-10.92
290.004	38.23
290.219	120.15
290.434	42.32
290.649	17.75
290.864	-33.45
291.079	-2.73
291.294	1.37
291.509	21.85
291.724	68.95
291.938	13.65
292.153	-33.45
292.368	23.89
292.583	21.85
292.798	19.8
293.012	95.57
293.227	21.85
293.442	87.38
293.657	91.48
293.871	21.85
294.086	-2.73
294.301	-0.68
294.516	-2.73
294.73	-2.73
294.945	-33.45
295.16	46.42
295.374	30.04
295.589	64.85
295.804	56.66
296.018	9.56
296.233	95.57
296.447	130.39
296.662	-25.26
296.877	25.94
297.091	23.89
297.306	38.23
297.52	32.08
297.735	71
297.949	75.09
298.164	-10.92
298.378	71
298.593	5.46
298.807	46.42
299.022	-58.03
299.236	38.23
299.451	75.09
299.665	46.42
299.88	9.56
300.094	13.65
300.309	-19.11
300.523	38.23
300.737	15.7
300.952	79.19
301.166	58.71
301.381	25.94
301.595	73.04
301.809	30.04
302.024	38.23
302.238	15.7
302.452	30.04
302.667	27.99
302.881	97.62
303.095	87.38
303.309	-43.69
303.524	21.85
303.738	-35.5
303.952	-2.73
304.166	5.46
304.381	-39.59
304.595	52.56
304.809	32.08
305.023	17.75
305.237	50.52
305.452	42.32
305.666	71
305.88	58.71
306.094	34.13
306.308	13.65
306.522	52.56
306.736	32.08
306.95	30.04
307.164	54.61
307.379	50.52
307.593	97.62
307.807	46.42
308.021	17.75
308.235	81.24
308.449	-10.92
308.663	38.23
308.877	52.56
309.091	7.51
309.305	34.13
309.519	-33.45
309.733	38.23
309.947	-39.59
310.161	48.47
310.374	-4.78
310.588	157.01
310.802	21.85
311.016	58.71
311.23	66.9
311.444	9.56
311.658	-0.68
311.872	46.42
312.085	-19.11
312.299	87.38
312.513	58.71
312.727	66.9
312.941	-23.21
313.154	87.38
313.368	17.75
313.582	42.32
313.796	-0.68
314.009	91.48
314.223	89.43
314.437	7.51
314.651	-0.68
314.864	-25.26
315.078	136.53
315.292	13.65
315.505	46.42
315.719	32.08
315.933	-55.98
316.146	-6.83
316.36	-0.68
316.573	34.13
316.787	36.18
317.001	68.95
317.214	-60.07
317.428	34.13
317.641	23.89
317.855	64.85
318.068	79.19
318.282	99.67
318.495	48.47
318.709	99.67
318.922	111.96
319.136	79.19
319.349	62.8
319.563	19.8
319.776	66.9
319.99	5.46
320.203	48.47
320.417	-0.68
320.63	30.04
320.843	120.15
321.057	71
321.27	46.42
321.483	99.67
321.697	118.1
321.91	13.65
322.124	19.8
322.337	58.71
322.55	62.8
322.763	9.56
322.977	66.9
323.19	85.33
323.403	15.7
323.617	30.04
323.83	15.7
324.043	75.09
324.256	-10.92
324.469	38.23
324.683	130.39
324.896	-10.92
325.109	38.23
325.322	21.85
325.535	46.42
325.748	30.04
325.962	-4.78
326.175	75.09
326.388	13.65
326.601	23.89
326.814	1.37
327.027	54.61
327.24	79.19
327.453	-66.22
327.666	-15.02
327.879	99.67
328.092	3.41
328.305	38.23
328.518	62.8
328.731	34.13
328.944	64.85
329.157	42.32
329.37	30.04
329.583	124.24
329.796	56.66
330.009	-51.88
330.222	64.85
330.435	105.81
330.648	60.76
330.861	40.28
331.073	54.61
331.286	50.52
331.499	5.46
331.712	71
331.925	7.51
332.138	46.42
332.35	81.24
332.563	-15.02
332.776	46.42
332.989	1.37
333.202	40.28
333.414	23.89
333.627	-6.83
333.84	21.85
334.053	52.56
334.265	25.94
334.478	-43.69
334.691	56.66
334.903	54.61
335.116	-25.26
335.329	-8.87
335.541	54.61
335.754	64.85
335.966	71
336.179	5.46
336.392	68.95
336.604	142.68
336.817	46.42
337.029	38.23
337.242	32.08
337.454	101.72
337.667	7.51
337.88	130.39
338.092	71
338.305	77.14
338.517	42.32
338.729	140.63
338.942	-27.31
339.154	38.23
339.367	-41.64
339.579	5.46
339.792	48.47
340.004	81.24
340.217	75.09
340.429	30.04
340.641	9.56
340.854	17.75
341.066	79.19
341.278	89.43
341.491	83.28
341.703	36.18
341.915	30.04
342.128	87.38
342.34	40.28
342.552	38.23
342.764	32.08
342.977	38.23
343.189	21.85
343.401	30.04
343.613	-33.45
343.826	50.52
344.038	-23.21
344.25	62.8
344.462	38.23
344.674	32.08
344.886	52.56
345.099	83.28
345.311	89.43
345.523	1.37
345.735	-2.73
345.947	58.71
346.159	66.9
346.371	79.19
346.583	34.13
346.795	-15.02
347.007	25.94
347.219	40.28
347.431	7.51
347.643	116.05
347.855	-2.73
348.067	79.19
348.279	15.7
348.491	62.8
348.703	34.13
348.915	42.32
349.127	44.37
349.339	30.04
349.551	13.65
349.763	54.61
349.975	81.24
350.187	56.66
350.399	50.52
350.61	-25.26
350.822	-10.92
351.034	21.85
351.246	103.76
351.458	77.14
351.669	71
351.881	7.51
352.093	9.56
352.305	46.42
352.517	-8.87
352.728	68.95
352.94	73.04
353.152	95.57
353.363	21.85
353.575	42.32
353.787	50.52
353.999	34.13
354.21	101.72
354.422	11.61
354.633	32.08
354.845	77.14
355.057	54.61
355.268	7.51
355.48	87.38
355.692	-6.83
355.903	-4.78
356.115	-2.73
356.326	-12.97
356.538	122.2
356.749	103.76
356.961	46.42
357.172	79.19
357.384	58.71
357.595	91.48
357.807	146.77
358.018	21.85
358.23	34.13
358.441	95.57
358.653	30.04
358.864	27.99
359.075	60.76
359.287	34.13
359.498	46.42
359.709	56.66
359.921	25.94
360.132	11.61
360.344	95.57
360.555	-2.73
360.766	58.71
360.977	9.56
361.189	50.52
361.4	-23.21
361.611	42.32
361.823	146.77
362.034	-10.92
362.245	-25.26
362.456	15.7
362.667	30.04
362.879	23.89
363.09	7.51
363.301	142.68
363.512	103.76
363.723	11.61
363.935	64.85
364.146	73.04
364.357	50.52
364.568	71
364.779	54.61
364.99	30.04
365.201	81.24
365.412	91.48
365.623	19.8
365.834	79.19
366.045	44.37
366.256	38.23
366.467	23.89
366.678	71
366.889	30.04
367.1	54.61
367.311	111.96
367.522	103.76
367.733	-2.73
367.944	64.85
368.155	13.65
368.366	83.28
368.577	58.71
368.788	9.56
368.999	30.04
369.209	34.13
369.42	71
369.631	109.91
369.842	42.32
370.053	38.23
370.264	77.14
370.474	19.8
370.685	83.28
370.896	83.28
371.107	50.52
371.317	66.9
371.528	95.57
371.739	87.38
371.95	46.42
372.16	118.1
372.371	-35.5
372.582	32.08
372.792	66.9
373.003	71
373.214	50.52
373.424	85.33
373.635	-17.07
373.846	87.38
374.056	54.61
374.267	128.34
374.477	48.47
374.688	7.51
374.898	25.94
375.109	66.9
375.319	56.66
375.53	114
375.74	30.04
375.951	30.04
376.161	68.95
376.372	83.28
376.582	21.85
376.793	30.04
377.003	75.09
377.214	-6.83
377.424	81.24
377.635	32.08
377.845	30.04
378.055	62.8
378.266	64.85
378.476	64.85
378.686	81.24
378.897	-8.87
379.107	52.56
379.317	38.23
379.528	81.24
379.738	50.52
379.948	118.1
380.158	128.34
380.369	71
380.579	77.14
380.789	50.52
380.999	79.19
381.21	75.09
381.42	138.58
381.63	50.52
381.84	54.61
382.05	36.18
382.261	97.62
382.471	56.66
382.681	64.85
382.891	87.38
383.101	116.05
383.311	73.04
383.521	103.76
383.731	66.9
383.941	97.62
384.151	111.96
384.361	-15.02
384.571	38.23
384.781	75.09
384.991	138.58
385.201	73.04
385.411	107.86
385.621	122.2
385.831	46.42
386.041	38.23
386.251	-15.02
386.461	81.24
386.671	81.24
386.881	89.43
387.091	56.66
387.301	75.09
387.511	75.09
387.72	56.66
387.93	60.76
388.14	97.62
388.35	64.85
388.56	46.42
388.769	-17.07
388.979	58.71
389.189	46.42
389.399	83.28
389.609	87.38
389.818	103.76
390.028	1.37
390.238	34.13
390.447	95.57
390.657	136.53
390.867	27.99
391.076	44.37
391.286	89.43
391.496	71
391.705	-62.12
391.915	64.85
392.125	89.43
392.334	130.39
392.544	93.52
392.753	152.92
392.963	81.24
393.172	91.48
393.382	58.71
393.591	99.67
393.801	48.47
394.01	111.96
394.22	56.66
394.429	89.43
394.639	40.28
394.848	54.61
395.058	34.13
395.267	44.37
395.477	91.48
395.686	32.08
395.895	71
396.105	79.19
396.314	89.43
396.524	87.38
396.733	101.72
396.942	79.19
397.152	64.85
397.361	136.53
397.57	30.04
397.78	38.23
397.989	34.13
398.198	75.09
398.407	73.04
398.617	71
398.826	75.09
399.035	93.52
399.244	75.09
399.453	64.85
399.663	62.8
399.872	132.44
400.081	66.9
400.29	103.76
400.499	38.23
400.708	81.24
400.917	150.87
401.127	46.42
401.336	34.13
401.545	48.47
401.754	140.63
401.963	124.24
402.172	111.96
402.381	48.47
402.59	111.96
402.799	114
403.008	93.52
403.217	193.87
403.426	48.47
403.635	132.44
403.844	234.83
404.053	144.72
404.262	169.3
404.471	111.96
404.68	103.76
404.888	148.82
405.097	163.15
405.306	165.2
405.515	157.01
405.724	144.72
405.933	138.58
406.142	193.87
406.35	177.49
406.559	103.76
406.768	79.19
406.977	171.35
407.185	161.11
407.394	163.15
407.603	146.77
407.812	171.35
408.02	138.58
408.229	105.81
408.438	234.83
408.646	216.4
408.855	251.22
409.064	253.27
409.272	216.4
409.481	261.46
409.69	277.84
409.898	146.77
410.107	236.88
410.315	245.07
410.524	191.83
410.733	308.56
410.941	283.99
411.15	333.14
411.358	349.52
411.567	361.81
411.775	357.71
411.984	359.76
412.192	349.52
412.401	374.1
412.609	398.67
412.818	439.63
413.026	464.21
413.234	456.01
413.443	433.49
413.651	386.38
413.86	490.83
414.068	464.21
414.276	558.41
414.485	554.32
414.693	484.69
414.901	580.94
415.11	488.78
415.318	539.98
415.526	628.04
415.734	634.19
415.943	648.52
416.151	660.81
416.359	703.82
416.567	742.73
416.776	720.2
416.984	752.97
417.192	769.35
417.4	832.84
417.608	783.69
417.817	826.7
418.025	941.38
418.233	881.99
418.441	830.79
418.649	980.29
418.857	1088.84
419.065	1070.41
419.273	1076.55
419.481	1070.41
419.689	1213.76
419.897	1269.06
420.105	1181
420.313	1275.2
420.521	1332.55
420.729	1340.74
420.937	1357.12
421.145	1455.42
421.353	1578.3
421.561	1619.26
421.769	1516.86
421.977	1672.51
422.185	1631.55
422.393	1750.33
422.601	1672.51
422.809	1856.82
423.017	1858.87
423.224	1946.94
423.432	1996.09
423.64	1987.89
423.848	2276.66
424.056	2121.01
424.263	2284.85
424.471	2299.19
424.679	2311.47
424.887	2393.39
425.094	2508.08
425.302	2594.09
425.51	2551.09
425.718	2676.01
425.925	2745.64
426.133	2809.13
426.341	3034.41
426.548	3001.64
426.756	3046.69
426.964	3245.35
427.171	3472.67
427.379	3398.95
427.586	3523.87
427.794	3530.02
428.001	3822.88
428.209	3917.08
428.417	3851.55
428.624	4150.55
428.832	4252.95
429.039	4128.02
429.247	4011.29
429.454	4533.52
429.662	4793.61
429.869	4535.57
430.076	4668.69
430.284	4635.92
430.491	4914.44
430.699	5276.93
430.906	5109
431.114	5168.39
431.321	5405.95
431.528	5436.67
431.736	5897.47
431.943	6175.99
432.15	5922.04
432.358	6124.79
432.565	6388.98
432.772	6268.15
432.979	6606.06
433.187	6874.35
433.394	6819.05
433.601	7326.95
433.808	7255.27
434.016	7234.79
434.223	7462.12
434.43	7902.43
434.637	7900.38
434.844	8346.84
435.052	8301.78
435.259	8295.64
435.466	8467.67
435.673	8377.56
435.88	9043.15
436.087	9534.66
436.294	9387.21
436.501	9084.11
436.708	9340.1
436.915	9733.31
437.122	10196.15
437.329	9923.77
437.537	10390.71
437.743	10622.13
437.95	10599.6
438.157	10919.09
438.364	11525.29
438.571	11439.27
438.778	11605.16
438.985	12498.07
439.192	12133.53
439.399	12242.07
439.606	11875.49
439.813	12842.13
440.02	13694.08
440.227	13128.84
440.433	13030.54
440.64	13534.34
440.847	13380.75
441.054	13913.22
441.261	14972.02
441.467	14605.43
441.674	15045.74
441.881	15610.98
442.088	15303.79
442.294	15328.36
442.501	15518.82
442.708	15752.29
442.914	16718.93
443.121	17472.59
443.328	16731.22
443.534	18179.14
443.741	17220.69
443.948	17304.65
444.154	18684.98
444.361	18390.08
444.568	18590.78
444.774	18617.4
444.981	18641.98
445.187	19162.16
445.394	20089.89
445.6	19733.54
445.807	21945.35
446.013	21068.82
446.22	21154.83
446.426	22303.74
446.633	22328.32
446.839	23008.25
447.046	22146.05
447.252	23483.38
447.459	23530.48
447.665	23389.17
447.871	24275.94
448.078	25420.75
448.284	24085.48
448.491	25109.46
448.697	25564.11
448.903	26090.44
449.11	26536.9
449.316	25570.26
449.522	26407.87
449.728	27280.31
449.935	27462.58
450.141	27313.08
450.347	27937.71
450.553	27413.43
450.76	27558.83
450.966	28644.26
451.172	28398.5
451.378	29262.74
451.584	28502.95
451.791	29250.46
451.997	29293.46
452.203	29938.57
452.409	29485.97
452.615	29295.51
452.821	28119.98
453.027	28373.92
453.233	29672.34
453.44	28504.99
453.646	29111.19
453.852	28996.51
454.058	29608.85
454.264	28636.06
454.47	29518.74
454.676	28595.1
454.882	29578.13
455.088	26700.73
455.294	27411.38
455.5	28119.98
455.705	28134.31
455.911	26833.85
456.117	26567.62
456.323	26129.35
456.529	25007.06
456.735	26029
456.941	25498.58
457.147	25400.27
457.352	24089.57
457.558	23866.35
457.764	23981.03
457.97	23530.48
458.176	23063.54
458.381	22928.38
458.587	22289.41
458.793	22027.27
458.999	20839.45
459.204	22508.54
459.41	21840.9
459.616	20741.14
459.821	20431.9
460.027	20489.24
460.233	19770.41
460.438	19098.67
460.644	19272.75
460.85	18183.23
461.055	18021.44
461.261	17910.85
461.466	16630.87
461.672	16159.84
461.878	17306.7
462.083	16372.83
462.289	15823.97
462.494	15821.92
462.7	15506.54
462.905	14533.75
463.111	15187.05
463.316	15111.28
463.522	14836.85
463.727	14865.52
463.932	14865.52
464.138	14888.05
464.343	14759.03
464.549	14226.56
464.754	14828.66
464.959	14558.33
465.165	14273.66
465.37	13968.51
465.575	13653.12
465.781	14113.92
465.986	14199.93
466.191	13638.79
466.397	13501.58
466.602	12891.28
466.807	13098.13
467.012	13311.11
467.218	13192.33
467.423	12969.1
467.628	12895.38
467.833	13560.97
468.038	13143.18
468.244	12727.44
468.449	13227.15
468.654	12893.33
468.859	12844.18
469.064	12766.35
469.269	12129.44
469.474	12530.84
469.679	12579.99
469.885	11969.69
470.09	12278.94
470.295	12334.23
470.5	12016.8
470.705	12141.72
470.91	11752.61
471.115	11719.84
471.32	11971.74
471.525	11787.43
471.73	11539.62
471.935	11676.84
472.139	11054.25
472.344	11232.43
472.549	11019.44
472.754	10951.85
472.959	11177.13
473.164	10656.95
473.369	10556.6
473.574	10720.43
473.778	10792.11
473.983	10710.19
474.188	10568.88
474.393	10278.07
474.598	10212.54
474.802	10321.08
475.007	9872.57
475.212	9913.53
475.417	9696.45
475.621	9655.49
475.826	9649.35
476.031	9385.16
476.235	9348.29
476.44	9452.74
476.645	9217.22
476.849	9340.1
477.054	9077.96
477.259	9082.06
477.463	9264.33
477.668	8918.22
477.872	8828.11
478.077	8852.69
478.282	8477.91
478.486	8539.35
478.691	8410.32
478.895	8563.92
479.1	8355.03
479.304	8428.76
479.509	8123.61
479.713	8316.12
479.918	8164.57
480.122	7836.89
480.326	8199.38
480.531	8017.11
480.735	8109.27
480.94	7890.14
481.144	8285.4
481.348	7898.33
481.553	7890.14
481.757	7734.5
481.961	7818.46
482.166	7972.06
482.37	7910.62
482.574	7759.07
482.778	7797.98
482.983	7836.89
483.187	7800.03
483.391	7740.64
483.595	7726.3
483.8	7617.76
484.004	7726.3
484.208	7853.28
484.412	7832.8
484.616	7918.81
484.821	7789.79
485.025	7757.02
485.229	7791.84
485.433	7722.21
485.637	7771.36
485.841	7808.22
486.045	7832.8
486.249	7828.7
486.453	7779.55
486.657	7986.4
486.861	7802.08
487.065	7439.59
487.269	7732.45
487.473	7630.05
487.677	7881.95
487.881	7886.05
488.085	7703.78
488.289	7892.19
488.493	7820.51
488.697	7828.7
488.901	7793.89
489.105	7974.11
489.309	7916.76
489.512	8006.88
489.716	7773.41
489.92	7797.98
490.124	7836.89
490.328	8000.73
490.531	7894.24
490.735	7967.96
490.939	7984.35
491.143	8148.18
491.346	7945.44
491.55	8201.43
491.754	8328.41
491.958	8152.28
492.161	8193.24
492.365	8279.25
492.569	8156.38
492.772	8121.56
492.976	8314.07
493.18	8322.26
493.383	8658.13
493.587	8631.51
493.79	8604.88
493.994	8482
494.197	8588.5
494.401	8709.33
494.605	8680.66
494.808	9041.1
495.012	8604.88
495.215	8934.6
495.419	8858.83
495.622	8981.71
495.825	8979.66
496.029	8953.04
496.232	9159.88
496.436	9299.14
496.639	9456.84
496.843	9290.95
497.046	9508.04
497.249	9721.02
497.453	9739.46
497.656	9884.86
497.859	9747.65
498.063	9942.21
498.266	10187.96
498.469	9899.2
498.673	10171.58
498.876	10247.35
499.079	10433.72
499.282	10638.51
499.485	10867.89
499.689	10828.98
499.892	11130.03
500.095	11019.44
500.298	11396.26
500.501	11213.99
500.705	11564.2
500.908	11570.34
501.111	11707.55
501.314	11869.34
501.517	12090.52
501.72	12158.11
501.923	12002.46
502.126	12270.75
502.329	12639.38
502.532	12784.79
502.735	12813.46
502.938	13268.11
503.141	13145.23
503.344	13153.42
503.547	13130.89
503.75	13571.21
503.953	13644.93
504.156	13964.42
504.359	14134.4
504.562	14064.77
504.765	14423.16
504.968	14500.98
505.17	14636.15
505.373	14593.14
505.576	14761.08
505.779	15023.22
505.982	15092.85
506.185	15256.68
506.387	15504.49
506.59	15746.15
506.793	15983.71
506.996	15789.16
507.198	16311.39
507.401	16413.79
507.604	16940.11
507.807	16833.62
508.009	16958.55
508.212	17155.15
508.415	17474.63
508.617	17548.36
508.82	17708.1
509.022	17482.83
509.225	18019.39
509.428	18234.43
509.63	18320.45
509.833	18379.84
510.035	19301.42
510.238	18799.67
510.44	19131.44
510.643	19567.66
510.845	19792.94
511.048	19383.34
511.25	19899.43
511.453	20042.79
511.655	20694.04
511.858	20718.62
512.06	20749.34
512.262	20911.13
512.465	20665.37
512.667	21595.15
512.87	21845
513.072	21662.73
513.274	22236.16
513.477	22500.35
513.679	22574.08
513.881	22696.96
514.084	23262.19
514.286	23204.85
514.488	22979.57
514.69	23477.23
514.893	23575.53
515.095	23852.01
515.297	24187.88
515.499	24241.12
515.701	24660.96
515.904	24812.51
516.106	25068.5
516.308	25330.64
516.51	25695.18
516.712	25734.09
516.914	25818.06
517.116	26624.96
517.318	26409.92
517.52	26667.97
517.722	26633.15
517.925	27378.61
518.127	26901.43
518.329	27532.21
518.531	27481.01
518.733	28150.7
518.935	28197.8
519.136	28324.77
519.338	28834.72
519.54	28570.53
519.742	29248.41
519.944	29115.29
520.146	29569.94
520.348	29645.71
520.55	29846.41
520.752	30274.44
520.954	30833.53
521.155	30358.41
521.357	31134.59
521.559	31079.29
521.761	31888.24
521.963	31703.92
522.164	31796.08
522.366	32002.93
522.568	32185.19
522.77	32586.6
522.971	32826.21
523.173	32441.19
523.375	33016.67
523.576	33076.06
523.778	32918.37
523.98	33530.71
524.181	33729.36
524.383	33874.77
524.584	34141
524.786	34138.96
524.988	34007.89
525.189	34677.57
525.391	34636.61
525.592	35070.78
525.794	35089.21
525.995	35406.65
526.197	35263.29
526.398	35267.39
526.6	35662.65
526.801	35701.56
527.003	35644.21
527.204	36141.87
527.406	36408.11
527.607	36594.47
527.808	36596.52
528.01	35732.28
528.211	36070.19
528.412	37010.21
528.614	36930.34
528.815	37012.26
529.016	37387.03
529.218	37061.41
529.419	37511.96
529.62	37384.99
529.822	37184.29
530.023	37174.05
530.224	37600.02
530.425	37290.78
530.626	37321.5
530.828	37038.88
531.029	37995.28
531.23	37206.81
531.431	37503.77
531.632	37618.46
531.833	37800.72
532.035	37544.73
532.236	38112.02
532.437	37974.8
532.638	37647.13
532.839	37946.13
533.04	38193.93
533.241	37702.42
533.442	38425.36
533.643	38329.1
533.844	38255.37
534.045	38384.4
534.246	37427.99
534.447	38169.36
534.648	38265.61
534.849	38279.95
535.05	37696.28
535.251	38273.81
535.451	38181.65
535.652	38468.36
535.853	38208.27
536.054	38357.77
536.255	38357.77
536.456	38388.49
536.657	38828.8
536.857	38423.31
537.058	38019.86
537.259	38738.69
537.46	38576.9
537.66	38224.65
537.861	38413.07
538.062	38535.95
538.263	38470.41
538.463	38019.86
538.664	38490.89
538.865	38175.5
539.065	38155.02
539.266	38179.6
539.466	38781.7
539.667	38288.14
539.868	38609.67
540.068	38353.68
540.269	38159.12
540.469	38697.73
540.67	38030.1
540.87	38318.86
541.071	38601.48
541.271	38134.54
541.472	38052.62
541.672	38601.48
541.873	38177.55
542.073	37514.01
542.274	38255.37
542.474	38202.13
542.675	37522.2
542.875	38472.46
543.075	38558.47
543.276	37829.4
543.476	38245.13
543.676	38279.95
543.877	38316.81
544.077	38279.95
544.277	38101.78
544.478	37882.64
544.678	38257.42
544.878	37917.46
545.078	38357.77
545.279	38089.49
545.479	37813.01
545.679	38218.51
545.879	38175.5
546.079	37997.33
546.28	38329.1
546.48	37618.46
546.68	37915.41
546.88	38198.03
547.08	37882.64
547.28	37856.02
547.48	37753.62
547.68	37894.93
547.88	37460.76
548.081	37950.23
548.281	37755.67
548.481	37837.59
548.681	38126.35
548.881	38066.96
549.081	37939.99
549.28	37890.84
549.48	38388.49
549.68	38152.98
549.88	38300.43
550.08	37546.78
550.28	38015.76
550.48	37829.4
550.68	37743.38
550.88	37870.36
551.08	37649.17
551.279	37894.93
551.479	37417.75
551.679	37796.63
551.879	37391.13
552.079	38009.62
552.278	37790.48
552.478	37823.25
552.678	37823.25
552.878	38032.14
553.077	37772.05
553.277	37366.56
553.477	38015.76
553.676	37419.8
553.876	37419.8
554.076	36956.96
554.275	37208.86
554.475	37249.82
554.674	37618.46
554.874	37630.74
555.074	37475.1
555.273	37489.43
555.473	36956.96
555.672	37327.64
555.872	37286.68
556.071	37327.64
556.271	37221.15
556.47	37421.85
556.67	36694.82
556.869	36981.54
557.068	37063.46
557.268	37024.54
557.467	36959.01
557.667	36739.88
557.866	37210.91
558.065	36635.43
558.265	36664.1
558.464	36764.45
558.663	36868.9
558.863	36576.04
559.062	37038.88
559.261	36469.54
559.461	36786.98
559.66	36037.42
559.859	36950.82
560.058	35988.27
560.258	36629.29
560.457	36041.52
560.656	36404.01
560.855	36258.6
561.054	36299.56
561.253	36283.18
561.453	36463.4
561.652	36096.81
561.851	36496.17
562.05	36014.9
562.249	35588.92
562.448	36037.42
562.647	35816.24
562.846	36029.23
563.045	35906.35
563.244	35195.71
563.443	35926.83
563.642	35144.51
563.841	35334.97
564.04	35224.38
564.239	35642.17
564.438	35074.88
564.637	35500.86
564.836	35527.48
565.035	34786.11
565.234	35197.76
565.432	35074.88
565.631	34863.94
565.83	35005.25
566.029	34890.56
566.228	34786.11
566.427	34820.93
566.625	34739.01
566.824	34319.18
567.023	34589.51
567.222	33997.65
567.42	34997.06
567.619	34540.36
567.818	34190.16
568.016	34186.06
568.215	34429.77
568.414	34331.47
568.612	34397
568.811	34016.08
569.01	34143.05
569.208	33383.26
569.407	34005.84
569.605	32955.23
569.804	33983.31
570.002	33327.96
570.201	33389.4
570.4	33063.77
570.598	32985.95
570.797	33243.99
570.995	33348.44
571.193	32975.71
571.392	32922.46
571.59	32846.69
571.789	32795.49
571.987	32867.17
572.186	32574.31
572.384	32234.35
572.582	32983.9
572.781	32805.73
572.979	32099.18
573.177	32650.08
573.376	32414.57
573.574	31918.96
573.772	32185.19
573.971	32187.24
574.169	31945.58
574.367	32052.08
574.565	32271.21
574.763	31863.66
574.962	31867.76
575.16	31382.39
575.358	31466.36
575.556	31228.79
575.754	31568.76
575.952	30931.84
576.151	31464.31
576.349	31062.91
576.547	30995.32
576.745	31079.29
576.943	31357.81
577.141	30854.01
577.339	30780.29
577.537	30544.77
577.735	30724.99
577.933	30153.61
578.131	30550.92
578.329	30174.09
578.527	29866.89
578.725	30284.68
578.923	30417.8
579.121	30247.82
579.319	29909.9
579.516	30323.59
579.714	29737.87
579.912	29764.5
580.11	29799.31
580.308	29649.81
580.506	29608.85
580.704	29059.99
580.901	29739.92
581.099	29557.65
581.297	29219.74
581.495	29105.05
581.692	29344.66
581.89	28838.81
582.088	29299.61
582.285	28668.83
582.483	28877.72
582.681	28595.1
582.878	28627.87
583.076	28439.46
583.274	28552.1
583.471	28361.64
583.669	28289.96
583.866	28056.49
584.064	28195.75
584.262	27898.8
584.459	28461.99
584.657	27622.32
584.854	28337.06
585.052	27759.53
585.249	27612.08
585.447	27542.45
585.644	27460.53
585.841	27397.04
586.039	27757.49
586.236	27503.54
586.434	27448.24
586.631	27255.73
586.828	27413.43
587.026	27225.01
587.223	26815.42
587.42	27114.42
587.618	27292.6
587.815	26794.94
588.012	26874.81
588.21	26442.69
588.407	26942.39
588.604	26543.04
588.801	26467.27
588.999	26399.68
589.196	26338.24
589.393	25932.75
589.59	26213.32
589.787	26049.48
589.984	26047.43
590.182	25654.22
590.379	25963.47
590.576	25662.41
590.773	25586.64
590.97	25783.24
591.167	25492.43
591.364	25191.38
591.561	25537.49
591.758	25220.05
591.955	25250.77
592.152	25539.54
592.349	25314.26
592.546	25283.54
592.743	24927.19
592.94	24734.68
593.137	24865.75
593.334	24722.4
593.531	24603.61
593.727	24507.36
593.924	24611.81
594.121	24720.35
594.318	24415.2
594.515	24091.62
594.712	24755.16
594.908	24280.03
595.105	24480.74
595.302	23813.1
595.499	24310.75
595.696	24110.05
595.892	23393.26
596.089	24040.42
596.286	23905.26
596.482	23899.11
596.679	23520.24
596.876	23559.15
597.072	23630.83
597.269	23436.27
597.466	23227.38
597.662	23233.52
597.859	23270.39
598.055	23018.49
598.252	23139.32
598.448	23182.32
598.645	22686.72
598.841	22488.06
599.038	22793.21
599.234	22733.82
599.431	22406.14
599.627	22281.22
599.824	22629.37
600.02	22356.99
600.217	22561.79
600.413	22166.53
600.609	22164.48
600.806	22162.44
601.002	22137.86
601.198	22244.35
601.395	22072.32
601.591	22125.57
601.787	21775.37
601.984	21439.5
602.18	22346.75
602.376	21466.13
602.572	21591.05
602.769	21578.76
602.965	21070.87
603.161	21539.85
603.357	21177.36
603.553	21066.77
603.75	21216.27
603.946	20909.08
604.142	21320.72
604.338	20358.17
604.534	21040.15
604.73	20689.95
604.926	20909.08
605.122	20618.27
605.318	20653.08
605.514	20591.64
605.71	20601.88
605.906	20446.24
606.102	20259.87
606.298	20573.21
606.494	20466.72
606.69	20315.17
606.886	20470.81
607.082	20186.15
607.278	20171.81
607.474	19786.79
607.67	20241.44
607.866	20030.5
608.062	19850.28
608.257	19778.6
608.453	19887.14
608.649	19788.84
608.845	19719.21
609.041	19559.47
609.236	19754.02
609.432	19690.54
609.628	19563.56
609.824	19434.54
610.019	19493.93
610.215	19344.43
610.411	19336.24
610.606	19379.25
610.802	19225.65
610.998	19211.31
611.193	19209.26
611.389	19065.91
611.584	18777.14
611.78	19057.71
611.976	18846.77
612.171	18850.87
612.367	18973.75
612.562	18857.01
612.758	18646.07
612.953	18764.85
613.149	19053.62
613.344	18424.89
613.539	18824.25
613.735	18736.18
613.93	18682.94
614.126	18566.2
614.321	18494.52
614.517	18519.1
614.712	18414.65
614.907	18287.68
615.103	18289.73
615.298	18359.36
615.493	18469.95
615.688	18322.49
615.884	18670.65
616.079	18035.78
616.274	18246.72
616.47	17802.31
616.665	18070.59
616.86	18183.23
617.055	18027.59
617.25	18054.21
617.445	17974.34
617.641	17398.86
617.836	17761.35
618.031	17790.02
618.226	17751.11
618.421	17523.79
618.616	17626.18
618.811	17261.65
619.006	17437.77
619.201	17110.1
619.396	17169.49
619.591	17060.94
619.786	17110.1
619.981	17038.42
620.176	17235.02
620.371	16933.97
620.566	16792.66
620.761	16647.26
620.956	16852.05
621.151	16749.65
621.346	16735.32
621.541	16280.67
621.735	16460.89
621.93	16391.26
622.125	16510.04
622.32	15944.8
622.515	15967.33
622.709	15897.7
622.904	16084.06
623.099	15750.25
623.294	15676.52
623.488	15717.48
623.683	15811.68
623.878	15475.82
624.072	15625.32
624.267	15524.97
624.462	15066.22
624.656	14982.26
624.851	15033.46
625.046	14896.24
625.24	15166.57
625.435	14937.2
625.629	14875.76
625.824	14697.59
626.018	14564.47
626.213	14367.87
626.407	14443.64
626.602	14226.56
626.796	14441.59
626.991	14384.25
627.185	13876.35
627.38	14050.43
627.574	13948.03
627.768	13862.02
627.963	13864.07
628.157	13702.28
628.352	13733
628.546	13356.17
628.74	13702.28
628.935	13597.83
629.129	13548.68
629.323	13212.81
629.517	13356.17
629.712	13216.91
629.906	12913.81
630.1	12936.34
630.294	12917.9
630.489	12938.38
630.683	12962.96
630.877	12663.96
631.071	12620.95
631.265	12682.39
631.459	12645.52
631.653	12506.26
631.848	12518.55
632.042	12332.19
632.236	12391.58
632.43	12145.82
632.624	12285.08
632.818	12315.8
633.012	11994.27
633.206	11943.07
633.4	12002.46
633.594	11777.19
633.788	12012.7
633.982	11973.79
634.176	11852.96
634.369	11492.52
634.563	11562.15
634.757	11556
634.951	11556
635.145	11416.74
635.339	11281.58
635.533	11201.71
635.726	11146.41
635.92	10867.89
636.114	11185.32
636.308	11105.45
636.501	10988.72
636.695	10984.62
636.889	10855.6
637.083	10945.71
637.276	10869.94
637.47	10921.13
637.664	10597.56
637.857	10507.44
638.051	10671.28
638.244	10499.25
638.438	10472.63
638.632	10400.95
638.825	10161.34
639.019	10206.39
639.212	10319.03
639.406	10276.02
639.599	9901.25
639.793	10050.75
639.986	9948.35
640.18	9936.06
640.373	9845.95
640.567	9766.08
640.76	9659.59
640.954	9839.81
641.147	9585.86
641.34	9524.42
641.534	9598.15
641.727	9456.84
641.92	9440.45
642.114	9401.54
642.307	9368.77
642.5	9329.86
642.694	9041.1
642.887	9233.61
643.08	9018.57
643.273	9174.22
643.467	9018.57
643.66	8971.47
643.853	8944.84
644.046	8701.14
644.239	8864.97
644.432	8729.81
644.626	8656.08
644.819	8758.48
645.012	8750.29
645.205	8639.7
645.398	8658.13
645.591	8420.56
645.784	8553.68
645.977	8381.65
646.17	8432.85
646.363	8336.6
646.556	8176.86
646.749	8221.91
646.942	7980.25
647.135	8197.34
647.328	7939.29
647.521	8019.16
647.714	7904.48
647.907	7976.16
648.099	7724.26
648.292	7988.44
648.485	7820.51
648.678	7619.81
648.871	7732.45
649.064	7630.05
649.256	7640.29
649.449	7488.74
649.642	7609.57
649.835	7462.12
650.027	7494.88
650.22	7445.73
650.413	7464.16
650.605	7408.87
650.798	7206.12
650.991	7279.85
651.183	7292.13
651.376	7349.48
651.568	7105.77
651.761	6984.94
651.954	7101.67
652.146	7105.77
652.339	6886.64
652.531	6984.94
652.724	7062.76
652.916	6821.1
653.109	6905.07
653.301	6833.39
653.494	6753.52
653.686	6714.61
653.879	6657.26
654.071	6511.86
654.263	6604.02
654.456	6436.08
654.648	6575.34
654.84	6593.78
655.033	6460.66
655.225	6509.81
655.417	6305.01
655.61	6290.68
655.802	6540.53
655.994	6321.4
656.186	6270.2
656.379	6274.29
656.571	6059.26
656.763	6083.83
656.955	6030.59
657.148	6210.81
657.34	6149.37
657.532	6071.54
657.724	5977.34
657.916	6044.92
658.108	5823.74
658.3	5788.93
658.492	5719.29
658.684	5864.7
658.876	5778.69
659.068	5668.09
659.26	5618.94
659.452	5668.09
659.644	5561.6
659.836	5569.79
660.028	5555.46
660.22	5612.8
660.412	5563.65
660.604	5569.79
660.796	5514.5
660.988	5461.25
661.18	5293.32
661.372	5387.52
661.563	5311.75
661.755	5281.03
661.947	5338.37
662.139	5164.29
662.331	5190.92
662.522	5109
662.714	5256.45
662.906	5154.05
663.097	4971.79
663.289	4945.16
663.481	5008.65
663.673	5053.7
663.864	5045.51
664.056	4822.28
664.247	4924.68
664.439	4963.59
664.631	4920.59
664.822	5000.46
665.014	4945.16
665.205	4824.33
665.397	4680.97
665.588	4666.64
665.78	4695.31
665.971	4701.45
666.163	4640.01
666.354	4527.38
666.546	4449.55
666.737	4414.74
666.929	4547.86
667.12	4519.18
667.311	4486.42
667.503	4334.87
667.694	4492.56
667.885	4457.75
668.077	4320.53
668.268	4322.58
668.459	4390.16
668.651	4242.71
668.842	4199.7
669.033	4302.1
669.224	4154.65
669.416	4224.28
669.607	4171.03
669.798	4236.56
669.989	4379.92
670.18	4289.81
670.371	4220.18
670.563	3951.9
670.754	4044.06
670.945	4111.64
671.136	4101.4
671.327	3915.03
671.518	3941.66
671.709	4087.06
671.9	4044.06
672.091	4044.06
672.282	3996.95
672.473	3781.92
672.664	3935.51
672.855	3745.05
673.046	3872.03
673.237	3904.79
673.428	3921.18
673.619	3743
673.809	3755.29
674	3716.38
674.191	4048.15
674.382	3743
674.573	3714.33
674.764	3708.19
674.954	3677.47
675.145	3781.92
675.336	3683.61
675.527	3589.41
675.717	3732.76
675.908	3638.56
676.099	3601.69
676.289	3630.37
676.48	3661.09
676.671	3558.69
676.861	3579.17
677.052	3609.89
677.243	3519.78
677.433	3446.05
677.624	3659.04
677.814	3484.96
678.005	3562.78
678.195	3556.64
678.386	3357.99
678.576	3509.54
678.767	3491.1
678.957	3427.62
679.148	3487.01
679.338	3351.84
679.529	3558.69
679.719	3323.17
679.909	3339.55
680.1	3392.8
680.29	3474.72
680.481	3284.26
680.671	3267.88
680.861	3349.79
681.052	3319.07
681.242	3407.14
681.432	3317.03
681.622	3286.31
681.813	3183.91
682.003	3357.99
682.193	3314.98
682.383	3288.36
682.573	3294.5
682.764	3241.25
682.954	3323.17
683.144	3280.16
683.334	3194.15
683.524	3226.92
683.714	3177.76
683.904	3226.92
684.094	3052.84
684.284	3134.76
684.474	3192.1
684.664	3175.72
684.854	3079.46
685.044	3042.6
685.234	3095.85
685.424	3228.96
685.614	3030.31
685.804	3079.46
685.994	3153.19
686.184	3089.7
686.374	3071.27
686.564	3079.46
686.753	3081.51
686.943	2972.97
687.133	2960.68
687.323	2864.43
687.513	3071.27
687.702	2940.2
687.892	2932.01
688.082	3013.93
688.272	2954.54
688.461	2958.63
688.651	2970.92
688.841	2819.37
689.03	2798.89
689.22	2893.1
689.41	2825.51
689.599	2843.95
689.789	2737.45
689.979	2831.66
690.168	2815.27
690.358	2774.31
690.547	2798.89
690.737	2852.14
690.926	2893.1
691.116	2757.93
691.305	2657.58
691.495	2768.17
691.684	2745.64
691.874	2686.25
692.063	2608.43
692.252	2708.78
692.442	2598.19
692.631	2680.11
692.82	2678.06
693.01	2696.49
693.199	2676.01
693.388	2610.48
693.578	2737.45
693.767	2538.8
693.956	2643.24
694.146	2651.44
694.335	2637.1
694.524	2610.48
694.713	2727.21
694.902	2561.33
695.092	2618.67
695.281	2565.42
695.47	2598.19
695.659	2528.56
695.848	2596.14
696.037	2452.78
696.226	2618.67
696.415	2493.74
696.604	2546.99
696.793	2483.5
696.982	2512.18
697.171	2471.22
697.36	2512.18
697.549	2450.74
697.738	2321.71
697.927	2286.9
698.116	2506.03
698.305	2485.55
698.494	2350.39
698.683	2422.06
698.872	2528.56
699.061	2481.46
699.25	2383.15
699.438	2397.49
699.627	2372.91
699.816	2579.76
700.005	2329.91
700.193	2364.72
700.382	2508.08
700.571	2274.61
700.76	2348.34
700.948	2448.69
701.137	2417.97
701.326	2315.57
701.514	2309.43
701.703	2368.82
701.892	2397.49
702.08	2426.16
702.269	2241.84
702.457	2385.2
702.646	2356.53
702.834	2372.91
703.023	2309.43
703.212	2290.99
703.4	2307.38
703.589	2280.75
703.777	2350.39
703.965	2327.86
704.154	2168.12
704.342	2258.23
704.531	2260.27
704.719	2254.13
704.907	2315.57
705.096	2260.27
705.284	2334
705.472	2299.19
705.661	2161.97
705.849	2280.75
706.037	2397.49
706.226	2340.15
706.414	2344.24
706.602	2168.12
706.79	2245.94
706.979	2135.35
707.167	2225.46
707.355	2227.51
707.543	2266.42
707.731	2325.81
707.919	2227.51
708.107	2282.8
708.296	2223.41
708.484	2194.74
708.672	2217.27
708.86	2159.92
709.048	2190.64
709.236	2139.44
709.424	2290.99
709.612	2336.05
709.8	2176.31
709.988	2233.65
710.176	2168.12
710.364	2235.7
710.551	2143.54
710.739	2202.93
710.927	2149.68
711.115	2143.54
711.303	2188.6
711.491	2176.31
711.679	2213.17
711.866	2178.36
712.054	2209.08
712.242	2116.92
712.43	2088.25
712.617	2209.08
712.805	2194.74
712.993	2151.73
713.181	2123.06
713.368	2233.65
713.556	2092.34
713.744	2094.39
713.931	2192.69
714.119	2145.59
714.306	2055.48
714.494	2102.58
714.682	2180.4
714.869	2073.91
715.057	2159.92
715.244	2030.9
715.432	2184.5
715.619	2151.73
715.807	2127.16
715.994	2071.86
716.182	2047.29
716.369	2147.64
716.556	2037.05
716.744	2057.53
716.931	2051.38
717.119	2127.16
717.306	2213.17
717.493	2094.39
717.681	2104.63
717.868	2073.91
718.055	2047.29
718.242	2041.14
718.43	2094.39
718.617	2071.86
718.804	2100.53
718.991	2127.16
719.179	2129.2
719.366	2037.05
719.553	2098.49
719.74	2086.2
719.927	2022.71
720.114	2063.67
720.301	2086.2
720.488	2063.67
720.676	2055.48
720.863	2039.09
721.05	2073.91
721.237	2073.91
721.424	2035
721.611	2008.37
721.798	2000.18
721.985	1973.56
722.172	2026.81
722.358	1996.09
722.545	2067.77
722.732	2045.24
722.919	2020.66
723.106	2000.18
723.293	1967.42
723.48	2053.43
723.667	2041.14
723.853	1998.13
724.04	2049.33
724.227	2020.66
724.414	2037.05
724.6	2008.37
724.787	2008.37
724.974	2053.43
725.161	1957.18
725.347	2014.52
725.534	1869.11
725.72	1955.13
725.907	1940.79
726.094	2059.57
726.28	1836.35
726.467	1979.7
726.653	1951.03
726.84	1948.98
727.027	2069.81
727.213	2059.57
727.4	2078.01
727.586	2045.24
727.773	1963.32
727.959	1879.35
728.145	1946.94
728.332	1905.98
728.518	1822.01
728.705	1908.02
728.891	1914.17
729.077	2065.72
729.264	1850.68
729.45	1887.54
729.636	1965.37
729.823	2028.85
730.009	2020.66
730.195	1891.64
730.382	1971.51
730.568	2039.09
730.754	1899.83
730.94	1951.03
731.126	1951.03
731.313	1879.35
731.499	1936.7
731.685	2020.66
731.871	1875.26
732.057	1996.09
732.243	1983.8
732.429	1889.59
732.615	1897.78
732.801	1891.64
732.987	1848.63
733.173	1885.5
733.359	1903.93
733.545	1916.22
733.731	1889.59
733.917	1934.65
734.103	1766.71
734.289	1948.98
734.475	1838.39
734.661	1932.6
734.847	1914.17
735.033	1875.26
735.219	1846.59
735.404	1783.1
735.59	1817.91
735.776	1877.3
735.962	1867.06
736.148	2037.05
736.333	1805.63
736.519	1797.43
736.705	1905.98
736.89	1801.53
737.076	1840.44
737.262	1842.49
737.447	1840.44
737.633	1754.43
737.819	1957.18
738.004	1781.05
738.19	1854.78
738.375	1719.61
738.561	1832.25
738.747	1746.23
738.932	1813.82
739.118	1881.4
739.303	1774.91
739.489	1852.73
739.674	1791.29
739.859	1750.33
740.045	1785.15
740.23	1809.72
740.416	1758.52
740.601	1813.82
740.786	1611.07
740.972	1762.62
741.157	1752.38
741.342	1666.36
741.528	1643.84
741.713	1664.32
741.898	1758.52
742.084	1711.42
742.269	1674.56
742.454	1623.36
742.639	1733.95
742.824	1680.7
743.01	1758.52
743.195	1725.76
743.38	1668.41
743.565	1643.84
743.75	1586.49
743.935	1664.32
744.12	1637.69
744.305	1611.07
744.49	1568.06
744.675	1529.15
744.86	1723.71
745.045	1586.49
745.23	1647.93
745.415	1527.1
745.6	1504.57
745.785	1535.29
745.97	1639.74
746.155	1480
746.34	1561.92
746.525	1488.19
746.71	1529.15
746.895	1398.08
747.079	1473.85
747.264	1477.95
747.449	1629.5
747.634	1471.81
747.819	1488.19
748.003	1422.66
748.188	1379.65
748.373	1559.87
748.557	1496.38
748.742	1393.98
748.927	1393.98
749.111	1267.01
749.296	1287.49
749.481	1410.37
749.665	1422.66
749.85	1367.36
750.034	1416.51
750.219	1348.93
750.404	1353.02
750.588	1316.16
750.773	1324.35
750.957	1336.64
751.141	1275.2
751.326	1316.16
751.51	1318.21
751.695	1348.93
751.879	1350.98
752.064	1365.31
752.248	1262.91
752.432	1242.43
752.617	1303.87
752.801	1267.01
752.985	1234.24
753.17	1226.05
753.354	1246.53
753.538	1189.19
753.722	1236.29
753.907	1135.94
754.091	1144.13
754.275	1131.84
754.459	1195.33
754.643	1064.26
754.828	1219.91
755.012	1193.28
755.196	1176.9
755.38	1135.94
755.564	1195.33
755.748	1262.91
755.932	1156.42
756.116	1088.84
756.3	1115.46
756.484	1045.83
756.668	1090.88
756.852	1041.73
757.036	1074.5
757.22	1111.36
757.404	1066.31
757.588	1066.31
757.772	1086.79
757.956	922.95
758.14	1078.6
758.323	992.58
758.507	1051.97
758.691	1021.25
758.875	1054.02
759.059	1062.21
759.242	1013.06
759.426	941.38
759.61	1015.11
759.794	1021.25
759.977	965.96
760.161	1006.92
760.345	902.47
760.528	943.43
760.712	1047.88
760.895	1027.4
761.079	925
761.263	886.09
761.446	947.53
761.63	949.57
761.813	922.95
761.997	881.99
762.18	933.19
762.364	884.04
762.547	828.74
762.731	824.65
762.914	898.38
763.098	892.23
763.281	859.46
763.464	908.62
763.648	916.81
763.831	881.99
764.015	865.61
764.198	988.49
764.381	730.44
764.564	914.76
764.748	802.12
764.931	849.22
765.114	857.42
765.297	744.78
765.481	802.12
765.664	808.26
765.847	810.31
766.03	791.88
766.213	830.79
766.397	865.61
766.58	767.31
766.763	857.42
766.946	828.74
767.129	814.41
767.312	879.94
767.495	730.44
767.678	722.25
767.861	808.26
768.044	791.88
768.227	810.31
768.41	800.07
768.593	812.36
768.776	783.69
768.959	791.88
769.142	742.73
769.324	775.5
769.507	685.39
769.69	771.4
769.873	744.78
770.056	767.31
770.239	763.21
770.421	707.91
770.604	771.4
770.787	718.15
770.97	759.11
771.152	728.39
771.335	714.06
771.518	687.43
771.7	699.72
771.883	779.59
772.066	652.62
772.248	771.4
772.431	693.58
772.613	720.2
772.796	759.11
772.978	718.15
773.161	722.25
773.343	660.81
773.526	693.58
773.708	648.52
773.891	613.71
774.073	638.28
774.256	539.98
774.438	683.34
774.621	640.33
774.803	603.47
774.985	671.05
775.168	699.72
775.35	556.36
775.532	750.92
775.715	644.43
775.897	646.48
776.079	644.43
776.261	648.52
776.444	611.66
776.626	603.47
776.808	611.66
776.99	628.04
777.173	599.37
777.355	605.52
777.537	580.94
777.719	724.3
777.901	603.47
778.083	619.85
778.265	599.37
778.447	621.9
778.629	593.23
778.811	484.69
778.993	525.65
779.175	623.95
779.357	554.32
779.539	562.51
779.721	558.41
779.903	597.32
780.085	484.69
780.267	468.3
780.449	474.45
780.631	496.97
780.812	578.89
780.994	533.84
781.176	550.22
781.358	456.01
781.54	449.87
781.721	480.59
781.903	466.25
782.085	521.55
782.267	558.41
782.448	507.21
782.63	488.78
782.812	505.17
782.993	525.65
783.175	507.21
783.357	513.36
783.538	537.93
783.72	431.44
783.901	427.34
784.083	441.68
784.264	505.17
784.446	441.68
784.627	406.86
784.809	472.4
784.99	386.38
785.172	415.06
785.353	406.86
785.535	376.14
785.716	345.42
785.897	365.9
786.079	394.58
786.26	374.1
786.441	419.15
786.623	275.79
786.804	382.29
786.985	423.25
787.167	408.91
787.348	394.58
787.529	335.18
787.71	410.96
787.891	406.86
788.073	337.23
788.254	384.34
788.435	408.91
788.616	408.91
788.797	324.94
788.978	283.99
789.159	345.42
789.34	386.38
789.522	343.38
789.703	326.99
789.884	361.81
790.065	283.99
790.246	314.7
790.427	343.38
790.607	345.42
790.788	392.53
790.969	359.76
791.15	404.82
791.331	308.56
791.512	234.83
791.693	316.75
791.874	275.79
792.054	316.75
792.235	365.9
792.416	300.37
792.597	273.75
792.778	345.42
792.958	316.75
793.139	298.32
793.32	234.83
793.5	277.84
793.681	292.18
793.862	374.1
794.042	220.5
794.223	245.07
794.404	273.75
794.584	204.11
794.765	275.79
794.945	345.42
795.126	331.09
795.306	335.18
795.487	193.87
795.667	251.22
795.848	292.18
796.028	271.7
796.209	304.46
796.389	341.33
796.57	214.35
796.75	238.93
796.93	376.14
797.111	304.46
797.291	259.41
797.471	349.52
797.652	234.83
797.832	183.63
798.012	269.65
798.192	193.87
798.373	247.12
798.553	240.98
798.733	286.03
798.913	210.26
799.093	200.02
799.274	251.22
799.454	269.65
799.634	234.83
799.814	163.15
799.994	333.14
800.174	304.46
800.354	173.39
800.534	136.53
800.714	228.69
800.894	130.39
801.074	214.35
801.254	226.64
801.434	271.7
801.614	236.88
801.794	210.26
801.974	859.46
802.154	206.16
802.334	259.41
802.514	173.39
802.693	220.5
802.873	204.11
803.053	267.6
803.233	255.31
803.413	114
803.592	171.35
803.772	148.82
803.952	263.51
804.131	212.31
804.311	259.41
804.491	202.07
804.67	179.54
804.85	185.68
805.03	169.3
805.209	222.55
805.389	138.58
805.568	177.49
805.748	114
805.928	191.83
806.107	197.97
806.287	202.07
806.466	152.92
806.646	144.72
806.825	279.89
807.004	132.44
807.184	122.2
807.363	218.45
807.543	154.96
807.722	105.81
807.901	189.78
808.081	130.39
808.26	120.15
808.439	222.55
808.619	140.63
808.798	210.26
808.977	179.54
809.156	175.44
809.336	187.73
809.515	159.06
809.694	103.76
809.873	99.67
810.052	128.34
810.231	210.26
810.411	228.69
810.59	169.3
810.769	71
810.948	128.34
811.127	107.86
811.306	138.58
811.485	146.77
811.664	193.87
811.843	81.24
812.022	152.92
812.201	144.72
812.38	185.68
812.559	95.57
812.737	107.86
812.916	161.11
813.095	79.19
813.274	114
813.453	189.78
813.632	87.38
813.811	165.2
813.989	134.48
814.168	134.48
814.347	71
814.526	136.53
814.704	132.44
814.883	202.07
815.062	132.44
815.24	179.54
815.419	120.15
815.598	161.11
815.776	140.63
815.955	161.11
816.133	66.9
816.312	154.96
816.49	144.72
816.669	210.26
816.847	66.9
817.026	163.15
817.204	58.71
817.383	126.29
817.561	50.52
817.74	181.59
817.918	77.14
818.097	124.24
818.275	107.86
818.453	97.62
818.632	128.34
818.81	144.72
818.988	34.13
819.167	130.39
819.345	109.91
819.523	144.72
819.701	103.76
819.879	95.57
820.058	1.37
820.236	99.67
820.414	120.15
820.592	189.78
820.77	142.68
820.948	124.24
821.127	128.34
821.305	111.96
821.483	169.3
821.661	140.63
821.839	79.19
822.017	91.48
822.195	34.13
822.373	95.57
822.551	95.57
822.729	105.81
822.907	5.46
823.085	103.76
823.262	136.53
823.44	50.52
823.618	132.44
823.796	95.57
823.974	66.9
824.152	161.11
824.329	101.72
824.507	193.87
824.685	111.96
824.863	163.15
825.04	60.76
825.218	114
825.396	99.67
825.574	56.66
825.751	130.39
825.929	144.72
826.107	187.73
826.284	144.72
826.462	124.24
826.639	48.47
826.817	89.43
826.994	91.48
827.172	64.85
827.349	144.72
827.527	128.34
827.704	136.53
827.882	120.15
828.059	73.04
828.237	25.94
828.414	111.96
828.591	9.56
828.769	58.71
828.946	66.9
829.124	140.63
829.301	138.58
829.478	120.15
829.655	111.96
829.833	79.19
830.01	71
830.187	91.48
830.364	87.38
830.542	62.8
830.719	75.09
830.896	54.61
831.073	120.15
831.25	161.11
831.427	34.13
831.604	50.52
831.782	87.38
831.959	95.57
832.136	83.28
832.313	21.85
832.49	146.77
832.667	124.24
832.844	30.04
833.021	97.62
833.198	75.09
833.374	105.81
833.551	107.86
833.728	54.61
833.905	30.04
834.082	15.7
834.259	46.42
834.436	111.96
834.612	58.71
834.789	105.81
834.966	97.62
835.143	64.85
835.319	-8.87
835.496	91.48
835.673	128.34
835.85	71
836.026	146.77
836.203	116.05
836.38	23.89
836.556	27.99
836.733	42.32
836.909	111.96
837.086	-0.68
837.262	75.09
837.439	48.47
837.616	73.04
837.792	71
837.968	130.39
838.145	15.7
838.321	75.09
838.498	21.85
838.674	91.48
838.851	64.85
839.027	46.42
839.203	71
839.38	95.57
839.556	19.8
839.732	62.8
839.909	124.24
840.085	97.62
840.261	17.75
840.437	130.39
840.614	75.09
840.79	62.8
840.966	62.8
841.142	87.38
841.318	-51.88
841.494	83.28
841.671	32.08
841.847	79.19
842.023	-37.55
842.199	75.09
842.375	17.75
842.551	52.56
842.727	38.23
842.903	42.32
843.079	40.28
843.255	-15.02
843.431	-2.73
843.607	34.13
843.783	-8.87
843.959	77.14
844.134	83.28
844.31	122.2
844.486	30.04
844.662	81.24
844.838	30.04
845.013	64.85
845.189	19.8
845.365	71
845.541	23.89
845.716	17.75
845.892	27.99
846.068	64.85
846.244	89.43
846.419	62.8
846.595	-23.21
846.77	40.28
846.946	23.89
847.122	58.71
847.297	7.51
847.473	111.96
847.648	46.42
847.824	64.85
847.999	5.46
848.175	48.47
848.35	73.04
848.526	23.89
848.701	50.52
848.876	105.81
849.052	32.08
849.227	91.48
849.403	46.42
849.578	25.94
849.753	15.7
849.929	38.23
850.104	34.13
850.279	-6.83
850.454	9.56
850.63	66.9
850.805	25.94
850.98	15.7
851.155	38.23
851.33	23.89
851.505	-15.02
851.681	116.05
851.856	54.61
852.031	32.08
852.206	40.28
852.381	-6.83
852.556	48.47
852.731	68.95
852.906	62.8
853.081	173.39
853.256	58.71
853.431	-10.92
853.606	40.28
853.781	81.24
853.956	-51.88
854.131	15.7
854.305	-6.83
854.48	21.85
854.655	5.46
854.83	-31.4
855.005	-15.02
855.18	52.56
855.354	7.51
855.529	1.37
855.704	5.46
855.879	83.28
856.053	27.99
856.228	-10.92
856.403	23.89
856.577	95.57
856.752	71
856.926	73.04
857.101	97.62
857.276	-2.73
857.45	-6.83
857.625	103.76
857.799	44.37
857.974	11.61
858.148	-39.59
858.323	30.04
858.497	-10.92
858.672	95.57
858.846	1.37
859.02	58.71
859.195	-10.92
859.369	-135.85
859.543	34.13
859.718	13.65
859.892	-17.07
860.066	79.19
860.241	30.04
860.415	-33.45
860.589	32.08
860.763	30.04
860.938	-49.83
861.112	103.76
861.286	-12.97
861.46	56.66
861.634	50.52
861.808	89.43
861.982	58.71
862.157	19.8
862.331	15.7
862.505	-10.92
862.679	-78.51
862.853	21.85
863.027	17.75
863.201	30.04
863.375	1.37
863.549	64.85
863.722	50.52
863.896	-2.73
864.07	13.65
864.244	46.42
864.418	11.61
864.592	54.61
864.766	-51.88
864.939	13.65
865.113	-58.03
865.287	46.42
865.461	1.37
865.634	30.04
865.808	-6.83
865.982	-23.21
866.156	95.57
866.329	3.41
866.503	36.18
866.676	54.61
866.85	50.52
867.024	-15.02
867.197	89.43
867.371	13.65
867.544	62.8
867.718	13.65
867.891	56.66
868.065	58.71
868.238	-4.78
868.412	48.47
868.585	15.7
868.759	-8.87
868.932	25.94
869.105	21.85
869.279	17.75
869.452	11.61
869.625	46.42
869.799	-60.07
869.972	3.41
870.145	30.04
870.319	75.09
870.492	-10.92
870.665	-0.68
870.838	50.52
871.011	9.56
871.185	5.46
871.358	-17.07
871.531	-19.11
871.704	-55.98
871.877	95.57
872.05	30.04
872.223	93.52
872.396	101.72
872.569	-12.97
872.742	30.04
872.915	46.42
873.088	-27.31
873.261	71
873.434	15.7
873.607	15.7
873.78	54.61
873.953	-10.92
874.126	44.37
874.299	38.23
874.471	46.42
874.644	-4.78
874.817	46.42
874.99	64.85
875.163	27.99
875.335	87.38
875.508	44.37
875.681	77.14
875.853	-37.55
876.026	-58.03
876.199	54.61
876.371	15.7
876.544	58.71
876.717	58.71
876.889	46.42
877.062	-10.92
877.234	-27.31
877.407	-2.73
877.579	-74.41
877.752	71
877.924	54.61
878.097	66.9
878.269	23.89
878.442	66.9
878.614	-31.4
878.786	32.08
878.959	62.8
879.131	-41.64
879.303	-37.55
879.476	71
879.648	7.51
879.82	13.65
879.993	13.65
880.165	50.52
880.337	-2.73
880.509	-6.83
880.681	-60.07
880.854	36.18
881.026	1.37
881.198	75.09
881.37	-39.59
881.542	-35.5
881.714	17.75
881.886	-23.21
882.058	-27.31
882.23	75.09
882.402	13.65
882.574	-23.21
882.746	54.61
882.918	21.85
883.09	1.37
883.262	-15.02
883.434	91.48
883.606	-43.69
883.778	-2.73
883.95	97.62
884.122	21.85
884.293	54.61
884.465	-60.07
884.637	-6.83
884.809	-19.11
884.98	54.61
885.152	87.38
885.324	64.85
885.496	-2.73
885.667	19.8
885.839	-29.35
886.011	81.24
886.182	15.7
886.354	79.19
886.525	-10.92
886.697	42.32
886.869	15.7
887.04	73.04
887.212	120.15
887.383	46.42
887.555	-19.11
887.726	-19.11
887.897	1.37
888.069	17.75
888.24	13.65
888.412	13.65
888.583	5.46
888.754	62.8
888.926	11.61
889.097	21.85
889.268	5.46
889.44	17.75
889.611	-8.87
889.782	48.47
889.953	-49.83
890.125	5.46
890.296	-10.92
890.467	66.9
890.638	25.94
890.809	-74.41
890.98	-41.64
891.151	42.32
891.323	75.09
891.494	-27.31
891.665	-4.78
891.836	7.51
892.007	40.28
892.178	68.95
892.349	-8.87
892.52	-19.11
892.691	46.42
892.862	71
893.032	-0.68
893.203	-8.87
893.374	48.47
893.545	17.75
893.716	56.66
893.887	13.65
894.057	5.46
894.228	15.7
894.399	13.65
894.57	75.09
894.74	-10.92
894.911	-10.92
895.082	5.46
895.253	5.46
895.423	-49.83
895.594	27.99
895.764	62.8
895.935	-37.55
896.106	1.37
896.276	-10.92
896.447	5.46
896.617	-76.46
896.788	-31.4
896.958	-4.78
897.129	-10.92
897.299	-4.78
897.47	9.56
897.64	54.61
897.81	-10.92
897.981	44.37
898.151	-98.99
898.322	15.7
898.492	23.89
898.662	13.65
898.832	-8.87
899.003	30.04
899.173	54.61
899.343	5.46
899.513	66.9
