Data from USB4F104151__93__14-43-34-934.txt Node

Date: Thu Mar 13 14:43:34 EDT 2025
User: louis
Spectrometer: USB4F10415
Trigger mode: 4
Integration Time (sec): 2.000000E-2
Scans to average: 1
Electric dark correction enabled: true
Nonlinearity correction enabled: false
Boxcar width: 0
XAxis mode: Wavelengths
Number of Pixels in Spectrum: 3648
>>>>>Begin Spectral Data<<<<<
178.204	-74.75
178.424	-74.75
178.644	-74.75
178.864	-115.71
179.084	-109.57
179.304	72.7
179.524	-56.32
179.744	-21.5
179.964	5.12
180.184	-23.55
180.404	46.08
180.624	-15.36
180.844	13.31
181.064	-64.51
181.283	41.98
181.503	-27.65
181.723	29.7
181.943	13.31
182.163	41.98
182.383	66.56
182.602	99.33
182.822	62.46
183.042	5.12
183.262	21.5
183.482	33.79
183.701	-72.7
183.921	52.22
184.141	-54.27
184.361	-1.02
184.58	54.27
184.8	-46.08
185.02	44.03
185.239	68.61
185.459	44.03
185.679	58.37
185.898	-39.94
186.118	-35.84
186.338	91.13
186.557	60.42
186.777	60.42
186.997	11.26
187.216	17.41
187.436	13.31
187.655	27.65
187.875	-15.36
188.095	-7.17
188.314	41.98
188.534	78.85
188.753	29.7
188.973	-70.65
189.192	58.37
189.412	33.79
189.631	35.84
189.851	58.37
190.07	13.31
190.29	48.13
190.509	33.79
190.729	21.5
190.948	111.61
191.168	84.99
191.387	-15.36
191.607	-31.74
191.826	46.08
192.045	-35.84
192.265	37.89
192.484	33.79
192.704	134.14
192.923	3.07
193.142	117.76
193.362	21.5
193.581	52.22
193.8	39.94
194.02	17.41
194.239	-64.51
194.458	62.46
194.678	17.41
194.897	-11.26
195.116	-31.74
195.335	50.18
195.555	-27.65
195.774	39.94
195.993	21.5
196.212	25.6
196.432	37.89
196.651	25.6
196.87	23.55
197.089	76.8
197.308	1.02
197.528	91.13
197.747	-1.02
197.966	46.08
198.185	91.13
198.404	-27.65
198.623	56.32
198.842	134.14
199.062	29.7
199.281	95.23
199.5	1.02
199.719	84.99
199.938	19.46
200.157	19.46
200.376	66.56
200.595	64.51
200.814	58.37
201.033	33.79
201.252	5.12
201.471	52.22
201.69	-11.26
201.909	-15.36
202.128	56.32
202.347	64.51
202.566	37.89
202.785	-39.94
203.004	-70.65
203.223	60.42
203.442	103.42
203.661	9.22
203.879	62.46
204.098	-21.5
204.317	5.12
204.536	76.8
204.755	84.99
204.974	-48.13
205.193	15.36
205.411	66.56
205.63	68.61
205.849	-9.22
206.068	-54.27
206.287	-44.03
206.505	66.56
206.724	17.41
206.943	3.07
207.162	76.8
207.381	9.22
207.599	-35.84
207.818	78.85
208.037	13.31
208.255	-11.26
208.474	-15.36
208.693	37.89
208.911	-3.07
209.13	103.42
209.349	60.42
209.567	95.23
209.786	-15.36
210.005	5.12
210.223	101.37
210.442	-80.89
210.661	68.61
210.879	50.18
211.098	27.65
211.316	17.41
211.535	-3.07
211.753	-13.31
211.972	11.26
212.191	-39.94
212.409	87.04
212.628	-46.08
212.846	31.74
213.065	1.02
213.283	144.38
213.502	134.14
213.72	-23.55
213.938	25.6
214.157	41.98
214.375	66.56
214.594	35.84
214.812	93.18
215.031	17.41
215.249	-56.32
215.467	11.26
215.686	87.04
215.904	136.19
216.122	25.6
216.341	44.03
216.559	44.03
216.778	15.36
216.996	62.46
217.214	3.07
217.432	68.61
217.651	-35.84
217.869	-23.55
218.087	19.46
218.306	-3.07
218.524	58.37
218.742	-46.08
218.96	68.61
219.179	52.22
219.397	25.6
219.615	84.99
219.833	80.89
220.051	21.5
220.27	91.13
220.488	70.65
220.706	74.75
220.924	58.37
221.142	-29.7
221.36	-27.65
221.578	1.02
221.796	25.6
222.015	62.46
222.233	13.31
222.451	74.75
222.669	52.22
222.887	-35.84
223.105	1.02
223.323	-44.03
223.541	-3.07
223.759	82.94
223.977	-13.31
224.195	74.75
224.413	74.75
224.631	87.04
224.849	-29.7
225.067	93.18
225.285	11.26
225.503	25.6
225.721	-25.6
225.939	-3.07
226.157	17.41
226.375	46.08
226.592	-15.36
226.81	3.07
227.028	5.12
227.246	136.19
227.464	3.07
227.682	25.6
227.9	101.37
228.117	23.55
228.335	13.31
228.553	-3.07
228.771	31.74
228.989	17.41
229.206	1.02
229.424	9.22
229.642	5.12
229.86	50.18
230.077	11.26
230.295	41.98
230.513	33.79
230.731	23.55
230.948	99.33
231.166	25.6
231.384	-105.47
231.601	74.75
231.819	50.18
232.037	66.56
232.254	-27.65
232.472	9.22
232.689	-13.31
232.907	35.84
233.125	5.12
233.342	-5.12
233.56	27.65
233.777	31.74
233.995	44.03
234.213	44.03
234.43	-21.5
234.648	-13.31
234.865	17.41
235.083	44.03
235.3	9.22
235.518	52.22
235.735	-54.27
235.953	1.02
236.17	-23.55
236.388	-70.65
236.605	-7.17
236.822	50.18
237.04	21.5
237.257	-9.22
237.475	-31.74
237.692	-9.22
237.909	52.22
238.127	-17.41
238.344	66.56
238.562	17.41
238.779	17.41
238.996	50.18
239.214	1.02
239.431	111.61
239.648	33.79
239.865	132.09
240.083	68.61
240.3	29.7
240.517	17.41
240.735	52.22
240.952	52.22
241.169	41.98
241.386	66.56
241.603	15.36
241.821	9.22
242.038	132.09
242.255	58.37
242.472	27.65
242.689	3.07
242.907	27.65
243.124	19.46
243.341	54.27
243.558	54.27
243.775	19.46
243.992	-39.94
244.209	82.94
244.426	115.71
244.643	84.99
244.86	17.41
245.078	37.89
245.295	-7.17
245.512	13.31
245.729	-41.98
245.946	27.65
246.163	41.98
246.38	62.46
246.597	33.79
246.814	3.07
247.031	15.36
247.248	46.08
247.464	-15.36
247.681	15.36
247.898	68.61
248.115	-19.46
248.332	17.41
248.549	109.57
248.766	-3.07
248.983	66.56
249.2	-23.55
249.417	84.99
249.633	-56.32
249.85	58.37
250.067	-21.5
250.284	-1.02
250.501	11.26
250.717	9.22
250.934	17.41
251.151	29.7
251.368	68.61
251.585	11.26
251.801	1.02
252.018	17.41
252.235	74.75
252.451	13.31
252.668	33.79
252.885	56.32
253.102	132.09
253.318	66.56
253.535	13.31
253.752	1.02
253.968	-5.12
254.185	9.22
254.401	19.46
254.618	35.84
254.835	44.03
255.051	39.94
255.268	37.89
255.484	-13.31
255.701	-23.55
255.917	41.98
256.134	9.22
256.351	33.79
256.567	-31.74
256.784	27.65
257	-95.23
257.217	31.74
257.433	132.09
257.65	-13.31
257.866	50.18
258.082	-13.31
258.299	-35.84
258.515	128
258.732	37.89
258.948	-31.74
259.165	-31.74
259.381	19.46
259.597	54.27
259.814	60.42
260.03	29.7
260.246	-60.42
260.463	9.22
260.679	13.31
260.895	27.65
261.112	95.23
261.328	-3.07
261.544	-39.94
261.761	113.66
261.977	58.37
262.193	-87.04
262.409	3.07
262.626	44.03
262.842	50.18
263.058	1.02
263.274	46.08
263.49	41.98
263.707	41.98
263.923	11.26
264.139	91.13
264.355	-19.46
264.571	44.03
264.787	68.61
265.004	50.18
265.22	99.33
265.436	-11.26
265.652	-3.07
265.868	41.98
266.084	58.37
266.3	-56.32
266.516	9.22
266.732	33.79
266.948	48.13
267.164	25.6
267.38	101.37
267.596	29.7
267.812	93.18
268.028	87.04
268.244	-37.89
268.46	58.37
268.676	31.74
268.892	29.7
269.108	-21.5
269.324	25.6
269.54	1.02
269.756	-21.5
269.972	-39.94
270.188	50.18
270.403	-29.7
270.619	68.61
270.835	82.94
271.051	64.51
271.267	52.22
271.483	66.56
271.698	62.46
271.914	-7.17
272.13	7.17
272.346	52.22
272.562	-11.26
272.777	60.42
272.993	21.5
273.209	68.61
273.425	37.89
273.64	33.79
273.856	70.65
274.072	46.08
274.287	80.89
274.503	50.18
274.719	44.03
274.934	95.23
275.15	15.36
275.366	-7.17
275.581	46.08
275.797	58.37
276.012	3.07
276.228	54.27
276.444	52.22
276.659	25.6
276.875	25.6
277.09	46.08
277.306	5.12
277.521	48.13
277.737	74.75
277.952	70.65
278.168	33.79
278.383	15.36
278.599	19.46
278.814	54.27
279.03	9.22
279.245	17.41
279.461	66.56
279.676	50.18
279.892	82.94
280.107	29.7
280.322	-7.17
280.538	89.09
280.753	-19.46
280.969	58.37
281.184	-7.17
281.399	89.09
281.615	84.99
281.83	44.03
282.045	29.7
282.26	1.02
282.476	3.07
282.691	41.98
282.906	21.5
283.122	70.65
283.337	-11.26
283.552	64.51
283.767	-21.5
283.983	82.94
284.198	5.12
284.413	-25.6
284.628	9.22
284.843	50.18
285.058	-5.12
285.274	33.79
285.489	3.07
285.704	50.18
285.919	3.07
286.134	3.07
286.349	-19.46
286.564	27.65
286.779	25.6
286.995	44.03
287.21	52.22
287.425	115.71
287.64	15.36
287.855	-5.12
288.07	41.98
288.285	78.85
288.5	50.18
288.715	9.22
288.93	33.79
289.145	-5.12
289.36	60.42
289.575	27.65
289.79	33.79
290.004	58.37
290.219	-15.36
290.434	1.02
290.649	52.22
290.864	41.98
291.079	29.7
291.294	99.33
291.509	91.13
291.724	-9.22
291.938	-31.74
292.153	-1.02
292.368	29.7
292.583	-9.22
292.798	70.65
293.012	13.31
293.227	21.5
293.442	91.13
293.657	-80.89
293.871	5.12
294.086	80.89
294.301	17.41
294.516	9.22
294.73	-15.36
294.945	52.22
295.16	27.65
295.374	25.6
295.589	50.18
295.804	58.37
296.018	27.65
296.233	93.18
296.447	17.41
296.662	19.46
296.877	50.18
297.091	25.6
297.306	21.5
297.52	41.98
297.735	27.65
297.949	37.89
298.164	-7.17
298.378	-5.12
298.593	-1.02
298.807	1.02
299.022	3.07
299.236	-27.65
299.451	66.56
299.665	31.74
299.88	25.6
300.094	115.71
300.309	70.65
300.523	84.99
300.737	-17.41
300.952	9.22
301.166	-1.02
301.381	9.22
301.595	19.46
301.809	74.75
302.024	-37.89
302.238	-54.27
302.452	50.18
302.667	-19.46
302.881	119.81
303.095	66.56
303.309	3.07
303.524	17.41
303.738	48.13
303.952	7.17
304.166	39.94
304.381	-15.36
304.595	123.9
304.809	37.89
305.023	52.22
305.237	50.18
305.452	1.02
305.666	25.6
305.88	-15.36
306.094	23.55
306.308	103.42
306.522	-9.22
306.736	29.7
306.95	13.31
307.164	-23.55
307.379	66.56
307.593	68.61
307.807	84.99
308.021	62.46
308.235	52.22
308.449	37.89
308.663	-37.89
308.877	60.42
309.091	50.18
309.305	99.33
309.519	48.13
309.733	66.56
309.947	46.08
310.161	58.37
310.374	33.79
310.588	89.09
310.802	-27.65
311.016	19.46
311.23	46.08
311.444	62.46
311.658	-3.07
311.872	58.37
312.085	66.56
312.299	7.17
312.513	97.28
312.727	39.94
312.941	1.02
313.154	50.18
313.368	3.07
313.582	-3.07
313.796	11.26
314.009	33.79
314.223	87.04
314.437	21.5
314.651	13.31
314.864	-33.79
315.078	-64.51
315.292	25.6
315.505	60.42
315.719	25.6
315.933	41.98
316.146	68.61
316.36	-7.17
316.573	25.6
316.787	-5.12
317.001	33.79
317.214	37.89
317.428	-35.84
317.641	25.6
317.855	70.65
318.068	54.27
318.282	54.27
318.495	37.89
318.709	-5.12
318.922	-7.17
319.136	82.94
319.349	-3.07
319.563	64.51
319.776	33.79
319.99	3.07
320.203	-5.12
320.417	66.56
320.63	25.6
320.843	54.27
321.057	29.7
321.27	70.65
321.483	-29.7
321.697	21.5
321.91	60.42
322.124	25.6
322.337	76.8
322.55	58.37
322.763	-5.12
322.977	46.08
323.19	9.22
323.403	74.75
323.617	17.41
323.83	31.74
324.043	-37.89
324.256	25.6
324.469	-72.7
324.683	74.75
324.896	-11.26
325.109	19.46
325.322	-54.27
325.535	99.33
325.748	17.41
325.962	46.08
326.175	11.26
326.388	93.18
326.601	27.65
326.814	25.6
327.027	1.02
327.24	134.14
327.453	31.74
327.666	37.89
327.879	-3.07
328.092	29.7
328.305	21.5
328.518	93.18
328.731	5.12
328.944	70.65
329.157	-1.02
329.37	3.07
329.583	93.18
329.796	46.08
330.009	7.17
330.222	35.84
330.435	76.8
330.648	11.26
330.861	-33.79
331.073	91.13
331.286	99.33
331.499	44.03
331.712	19.46
331.925	46.08
332.138	99.33
332.35	27.65
332.563	41.98
332.776	95.23
332.989	7.17
333.202	-52.22
333.414	99.33
333.627	52.22
333.84	37.89
334.053	121.85
334.265	-46.08
334.478	-56.32
334.691	72.7
334.903	74.75
335.116	50.18
335.329	80.89
335.541	74.75
335.754	19.46
335.966	1.02
336.179	25.6
336.392	3.07
336.604	27.65
336.817	41.98
337.029	54.27
337.242	74.75
337.454	56.32
337.667	68.61
337.88	93.18
338.092	58.37
338.305	58.37
338.517	35.84
338.729	17.41
338.942	113.66
339.154	33.79
339.367	-29.7
339.579	82.94
339.792	-44.03
340.004	68.61
340.217	66.56
340.429	-33.79
340.641	-3.07
340.854	44.03
341.066	35.84
341.278	-7.17
341.491	44.03
341.703	-15.36
341.915	41.98
342.128	62.46
342.34	31.74
342.552	62.46
342.764	58.37
342.977	80.89
343.189	-21.5
343.401	-35.84
343.613	5.12
343.826	13.31
344.038	25.6
344.25	66.56
344.462	41.98
344.674	33.79
344.886	91.13
345.099	103.42
345.311	33.79
345.523	27.65
345.735	46.08
345.947	33.79
346.159	11.26
346.371	74.75
346.583	-3.07
346.795	117.76
347.007	17.41
347.219	74.75
347.431	164.86
347.643	78.85
347.855	13.31
348.067	66.56
348.279	95.23
348.491	46.08
348.703	50.18
348.915	-7.17
349.127	29.7
349.339	41.98
349.551	-31.74
349.763	132.09
349.975	-19.46
350.187	111.61
350.399	52.22
350.61	54.27
350.822	17.41
351.034	70.65
351.246	60.42
351.458	70.65
351.669	66.56
351.881	23.55
352.093	60.42
352.305	87.04
352.517	113.66
352.728	37.89
352.94	66.56
353.152	58.37
353.363	15.36
353.575	70.65
353.787	60.42
353.999	41.98
354.21	76.8
354.422	13.31
354.633	-5.12
354.845	31.74
355.057	93.18
355.268	66.56
355.48	21.5
355.692	-37.89
355.903	-7.17
356.115	37.89
356.326	-15.36
356.538	58.37
356.749	107.52
356.961	87.04
357.172	-7.17
357.384	-50.18
357.595	66.56
357.807	54.27
358.018	11.26
358.23	25.6
358.441	19.46
358.653	93.18
358.864	33.79
359.075	-7.17
359.287	87.04
359.498	84.99
359.709	1.02
359.921	54.27
360.132	84.99
360.344	115.71
360.555	62.46
360.766	29.7
360.977	123.9
361.189	84.99
361.4	121.85
361.611	44.03
361.823	91.13
362.034	84.99
362.245	-68.61
362.456	93.18
362.667	25.6
362.879	82.94
363.09	87.04
363.301	33.79
363.512	33.79
363.723	-3.07
363.935	9.22
364.146	54.27
364.357	39.94
364.568	3.07
364.779	56.32
364.99	68.61
365.201	-21.5
365.412	-19.46
365.623	76.8
365.834	76.8
366.045	87.04
366.256	13.31
366.467	-15.36
366.678	19.46
366.889	76.8
367.1	21.5
367.311	58.37
367.522	54.27
367.733	50.18
367.944	46.08
368.155	9.22
368.366	101.37
368.577	103.42
368.788	56.32
368.999	9.22
369.209	78.85
369.42	46.08
369.631	66.56
369.842	-3.07
370.053	37.89
370.264	33.79
370.474	-15.36
370.685	-11.26
370.896	41.98
371.107	95.23
371.317	101.37
371.528	17.41
371.739	80.89
371.95	68.61
372.16	35.84
372.371	25.6
372.582	19.46
372.792	99.33
373.003	-11.26
373.214	52.22
373.424	115.71
373.635	37.89
373.846	87.04
374.056	41.98
374.267	1.02
374.477	27.65
374.688	13.31
374.898	58.37
375.109	117.76
375.319	9.22
375.53	21.5
375.74	91.13
375.951	44.03
376.161	95.23
376.372	80.89
376.582	27.65
376.793	1.02
377.003	11.26
377.214	3.07
377.424	35.84
377.635	50.18
377.845	9.22
378.055	128
378.266	-27.65
378.476	93.18
378.686	52.22
378.897	23.55
379.107	91.13
379.317	9.22
379.528	41.98
379.738	68.61
379.948	-50.18
380.158	15.36
380.369	74.75
380.579	99.33
380.789	33.79
380.999	35.84
381.21	17.41
381.42	125.95
381.63	9.22
381.84	-15.36
382.05	103.42
382.261	103.42
382.471	99.33
382.681	50.18
382.891	76.8
383.101	76.8
383.311	27.65
383.521	7.17
383.731	91.13
383.941	62.46
384.151	60.42
384.361	11.26
384.571	82.94
384.781	27.65
384.991	115.71
385.201	46.08
385.411	78.85
385.621	31.74
385.831	-25.6
386.041	46.08
386.251	130.05
386.461	48.13
386.671	-23.55
386.881	-35.84
387.091	87.04
387.301	173.05
387.511	62.46
387.72	91.13
387.93	128
388.14	-39.94
388.35	50.18
388.56	136.19
388.769	74.75
388.979	103.42
389.189	5.12
389.399	64.51
389.609	74.75
389.818	17.41
390.028	93.18
390.238	66.56
390.447	44.03
390.657	115.71
390.867	1.02
391.076	35.84
391.286	25.6
391.496	95.23
391.705	54.27
391.915	123.9
392.125	46.08
392.334	3.07
392.544	78.85
392.753	121.85
392.963	31.74
393.172	123.9
393.382	-13.31
393.591	136.19
393.801	66.56
394.01	84.99
394.22	82.94
394.429	80.89
394.639	103.42
394.848	66.56
395.058	103.42
395.267	89.09
395.477	29.7
395.686	123.9
395.895	148.48
396.105	101.37
396.314	68.61
396.524	50.18
396.733	11.26
396.942	33.79
397.152	144.38
397.361	58.37
397.57	84.99
397.78	101.37
397.989	25.6
398.198	68.61
398.407	117.76
398.617	154.62
398.826	41.98
399.035	33.79
399.244	107.52
399.453	93.18
399.663	97.28
399.872	142.33
400.081	74.75
400.29	166.91
400.499	68.61
400.708	89.09
400.917	74.75
401.127	78.85
401.336	33.79
401.545	173.05
401.754	111.61
401.963	107.52
402.172	84.99
402.381	111.61
402.59	87.04
402.799	152.57
403.008	154.62
403.217	117.76
403.426	142.33
403.635	89.09
403.844	87.04
404.053	107.52
404.262	119.81
404.471	173.05
404.68	148.48
404.888	123.9
405.097	74.75
405.306	205.82
405.515	113.66
405.724	128
405.933	103.42
406.142	128
406.35	175.1
406.559	150.53
406.768	193.53
406.977	185.34
407.185	224.25
407.394	236.54
407.603	175.1
407.812	181.25
408.02	162.81
408.229	232.44
408.438	242.68
408.646	199.68
408.855	230.4
409.064	263.16
409.272	297.98
409.481	287.74
409.69	234.49
409.898	218.11
410.107	300.03
410.315	216.06
410.524	304.12
410.733	254.97
410.941	259.07
411.15	279.55
411.358	369.66
411.567	406.52
411.775	412.67
411.984	386.04
412.192	353.27
412.401	388.09
412.609	418.81
412.818	412.67
413.026	476.15
413.234	453.63
413.443	404.47
413.651	476.15
413.86	439.29
414.068	533.5
414.276	482.3
414.485	500.73
414.693	609.27
414.901	566.26
415.11	662.52
415.318	560.12
415.526	631.8
415.734	707.57
415.943	781.3
416.151	779.25
416.359	787.44
416.567	691.19
416.776	746.48
416.984	809.97
417.192	873.46
417.4	842.74
417.608	840.69
417.817	832.5
418.025	951.28
418.233	1061.87
418.441	865.27
418.649	1025.01
418.857	1147.89
419.065	1158.13
419.273	1070.06
419.481	1123.31
419.689	1295.34
419.897	1297.39
420.105	1385.45
420.313	1338.35
420.521	1434.6
420.729	1389.55
420.937	1381.35
421.145	1465.32
421.353	1584.1
421.561	1672.17
421.769	1770.47
421.977	1696.74
422.185	1741.8
422.393	1876.96
422.601	1991.65
422.809	2003.94
423.017	1971.17
423.224	1942.5
423.432	2048.99
423.64	2210.78
423.848	2206.69
424.056	2225.12
424.263	2468.83
424.471	2423.77
424.679	2556.89
424.887	2606.04
425.094	2722.77
425.302	2659.29
425.51	2761.69
425.718	2915.28
425.925	2819.03
426.133	3025.87
426.341	3171.28
426.548	3285.97
426.756	3419.08
426.964	3236.81
427.171	3468.24
427.379	3675.08
427.586	3675.08
427.794	3879.88
428.001	4082.63
428.209	4305.85
428.417	4203.46
428.624	4256.7
428.832	4465.6
429.039	4438.97
429.247	4465.6
429.454	4856.76
429.662	5252.02
429.869	4903.86
430.076	5108.66
430.284	4932.53
430.491	5186.48
430.699	5465
430.906	5483.44
431.114	5491.63
431.321	5657.51
431.528	5893.03
431.736	6226.85
431.943	6474.65
432.15	6216.61
432.358	6382.49
432.565	6794.14
432.772	6669.21
432.979	7070.61
433.187	7095.19
433.394	7297.94
433.601	7865.22
433.808	7752.59
434.016	7838.6
434.223	7967.62
434.43	8659.84
434.637	8395.65
434.844	8811.39
435.052	8942.46
435.259	8895.35
435.466	9024.37
435.673	8944.5
435.88	9474.93
436.087	9909.1
436.294	10136.42
436.501	9653.1
436.708	9855.85
436.915	10333.03
437.122	10797.92
437.329	10709.85
437.537	11291.48
437.743	11354.96
437.95	11443.03
438.157	11961.16
438.364	12266.31
438.571	11987.79
438.778	12272.45
438.985	13321.01
439.192	12944.19
439.399	13245.24
439.606	12888.89
439.813	13476.66
440.02	14383.91
440.227	14048.04
440.433	14318.37
440.64	14447.4
440.847	14385.96
441.054	14824.22
441.261	15725.33
441.467	15549.2
441.674	15772.43
441.881	16620.29
442.088	16474.88
442.294	16202.5
442.501	16810.75
442.708	17072.89
442.914	17578.74
443.121	18227.95
443.328	17922.8
443.534	19282.65
443.741	18383.59
443.948	18178.79
444.154	19942.1
444.361	19686.1
444.568	19516.12
444.774	19524.31
444.981	19907.28
445.187	20724.42
445.394	21289.66
445.6	21107.39
445.807	23128.74
446.013	21951.15
446.22	22551.21
446.426	23538.33
446.633	23577.24
446.839	24435.34
447.046	23437.98
447.252	24879.75
447.459	24840.84
447.665	24474.25
447.871	25674.36
448.078	26661.48
448.284	25344.64
448.491	26210.93
448.697	27030.12
448.903	27710.04
449.11	27802.2
449.316	27452
449.522	28101.2
449.728	28584.52
449.935	29010.5
450.141	28586.57
450.347	29753.91
450.553	28211.79
450.76	29465.15
450.966	30124.6
451.172	29758.01
451.378	30597.68
451.584	29809.21
451.791	30624.3
451.997	30476.85
452.203	30911.02
452.409	30849.58
452.615	31287.84
452.821	29561.4
453.027	29563.45
453.233	31302.18
453.44	29829.69
453.646	30478.89
453.852	30349.87
454.058	30802.47
454.264	29882.94
454.47	30515.76
454.676	29884.98
454.882	30798.38
455.088	28246.61
455.294	28799.56
455.5	29340.22
455.705	29352.51
455.911	27951.7
456.117	27716.19
456.323	27462.24
456.529	25873.01
456.735	27353.69
456.941	26327.66
457.147	26124.91
457.352	25617.02
457.558	25084.55
457.764	25074.31
457.97	24834.69
458.176	24480.39
458.381	24300.17
458.587	23157.41
458.793	23085.73
458.999	22106.8
459.204	23444.12
459.41	22708.9
459.616	21359.29
459.821	21275.32
460.027	21336.76
460.233	20783.81
460.438	19786.45
460.644	20060.88
460.85	18975.45
461.055	18715.36
461.261	18651.88
461.466	17314.55
461.672	16747.26
461.878	18240.23
462.083	16685.83
462.289	16511.75
462.494	16347.91
462.7	15827.73
462.905	15260.44
463.111	15829.77
463.316	15551.25
463.522	15600.4
463.727	15268.63
463.932	15377.17
464.138	15213.34
464.343	15330.07
464.549	14795.55
464.754	15584.02
464.959	15362.84
465.165	15020.83
465.37	14381.86
465.575	14074.67
465.781	14549.79
465.986	14703.39
466.191	14127.91
466.397	13970.22
466.602	13241.14
466.807	13902.64
467.012	13640.5
467.218	13531.95
467.423	13554.48
467.628	13830.96
467.833	14248.74
468.038	13503.28
468.244	13255.48
468.449	13916.97
468.654	13275.96
468.859	13140.79
469.064	13308.72
469.269	12593.98
469.474	12665.66
469.679	13052.73
469.885	12469.06
470.09	12837.69
470.295	12714.81
470.5	12346.18
470.705	12510.02
470.91	12247.88
471.115	12151.62
471.32	12419.91
471.525	12206.92
471.73	11846.48
471.935	11807.56
472.139	11494.22
472.344	11567.95
472.549	11739.98
472.754	11428.69
472.959	11359.06
473.164	11092.82
473.369	10746.72
473.574	11340.63
473.778	11031.38
473.983	11039.58
474.188	10820.44
474.393	10593.12
474.598	10404.71
474.802	10586.97
475.007	10290.02
475.212	10265.44
475.417	9995.11
475.621	10021.74
475.826	9974.63
476.031	9892.71
476.235	9681.77
476.44	9735.02
476.645	9618.29
476.849	9517.93
477.054	9560.94
477.259	9413.49
477.463	9472.88
477.668	9112.44
477.872	9315.19
478.077	8905.59
478.282	8940.41
478.486	8799.1
478.691	8792.95
478.895	8719.23
479.1	8690.56
479.304	8608.64
479.509	8430.46
479.713	8649.6
479.918	8369.02
480.122	8061.83
480.326	8287.11
480.531	8240
480.735	8414.08
480.94	8176.52
481.144	8389.5
481.348	7906.18
481.553	8199.04
481.757	7961.48
481.961	8037.25
482.166	8209.28
482.37	7981.96
482.574	7979.91
482.778	8057.73
482.983	8147.84
483.187	8070.02
483.391	8051.59
483.595	8070.02
483.8	7938.95
484.004	8022.92
484.208	8102.79
484.412	8098.69
484.616	7883.66
484.821	7916.42
485.025	7883.66
485.229	8031.11
485.433	8086.4
485.637	7912.33
485.841	7912.33
486.045	8014.73
486.249	8151.94
486.453	7918.47
486.657	7951.24
486.861	7943.05
487.065	8035.21
487.269	7803.78
487.473	7664.52
487.677	8029.06
487.881	7975.81
488.085	7842.7
488.289	7934.85
488.493	8004.49
488.697	7988.1
488.901	8147.84
489.105	8022.92
489.309	7969.67
489.512	8199.04
489.716	8070.02
489.92	8061.83
490.124	8057.73
490.328	8295.3
490.531	7914.38
490.735	8020.87
490.939	8176.52
491.143	8139.65
491.346	8229.76
491.55	8246.15
491.754	8244.1
491.958	8237.95
492.161	8334.21
492.365	8422.27
492.569	8448.9
492.772	8344.45
492.976	8514.43
493.18	8481.66
493.383	8506.24
493.587	8549.25
493.79	8676.22
493.994	8637.31
494.197	8483.71
494.401	8883.06
494.605	8833.91
494.808	8967.03
495.012	8883.06
495.215	9032.57
495.419	9096.05
495.622	9098.1
495.825	9053.05
496.029	9057.14
496.232	9261.94
496.436	9341.81
496.639	9491.31
496.843	9761.64
497.046	9708.4
497.249	9835.37
497.453	9896.81
497.656	9927.53
497.859	10015.59
498.063	10308.45
498.266	10173.28
498.469	10113.89
498.673	10494.82
498.876	10629.98
499.079	10621.79
499.282	10613.6
499.485	10857.31
499.689	10969.94
499.892	11273.04
500.095	11025.24
500.298	11330.39
500.501	11291.48
500.705	11502.42
500.908	11510.61
501.111	11707.21
501.314	11793.23
501.517	11987.79
501.72	12053.32
501.923	12159.81
502.126	12401.47
502.329	12610.37
502.532	12649.28
502.735	12829.5
502.938	13003.58
503.141	13085.5
503.344	13251.38
503.547	13218.61
503.75	13470.51
503.953	13654.83
504.156	13861.68
504.359	13777.71
504.562	13837.1
504.765	14228.26
504.968	14347.05
505.17	14445.35
505.373	14662.43
505.576	14770.97
505.779	14801.69
505.982	14940.96
506.185	15567.63
506.387	15397.65
506.59	15569.68
506.793	16026.38
506.996	15887.12
507.198	16198.41
507.401	16141.07
507.604	16069.39
507.807	16657.15
508.009	16544.52
508.212	16745.22
508.415	17001.21
508.617	17195.77
508.82	17439.48
509.022	17265.4
509.225	17779.44
509.428	17961.71
509.63	18105.07
509.833	18041.58
510.035	18588.39
510.238	18377.45
510.44	18557.67
510.643	18971.36
510.845	19153.63
511.048	19124.96
511.25	19432.15
511.453	19497.69
511.655	20351.69
511.858	19804.88
512.06	20120.27
512.262	20300.49
512.465	20314.83
512.667	20843.2
512.87	20953.79
513.072	20734.66
513.274	21392.06
513.477	21420.73
513.679	21815.99
513.881	22014.64
514.084	21988.02
514.286	22278.83
514.488	22274.73
514.69	23214.75
514.893	22805.16
515.095	23071.39
515.297	23456.41
515.499	23210.65
515.701	23517.85
515.904	23560.86
516.106	24195.73
516.308	24152.72
516.51	24674.95
516.712	24601.22
516.914	24920.71
517.116	25387.64
517.318	25361.02
517.52	25490.04
517.722	25746.04
517.925	25782.9
518.127	26456.68
518.329	26178.16
518.531	26595.95
518.733	26604.14
518.935	26794.6
519.136	26987.11
519.338	27255.39
519.54	27400.8
519.742	28017.24
519.944	27611.74
520.146	28430.93
520.348	28449.36
520.55	28508.75
520.752	28799.56
520.954	29280.83
521.155	28721.74
521.357	29637.18
521.559	30095.92
521.761	30331.44
521.963	29608.51
522.164	29899.32
522.366	30263.86
522.568	30800.43
522.77	30923.3
522.971	30827.05
523.173	31066.66
523.375	31177.25
523.576	31242.79
523.778	31447.58
523.98	31834.65
524.181	31785.5
524.383	32012.82
524.584	32334.35
524.786	32313.87
524.988	32123.41
525.189	32750.09
525.391	32657.93
525.592	33067.53
525.794	33079.82
525.995	33047.05
526.197	33135.11
526.398	33567.23
526.6	33825.28
526.801	33649.15
527.003	33776.12
527.204	33765.88
527.406	33899
527.607	34148.85
527.808	34634.22
528.01	33755.64
528.211	34462.19
528.412	34898.41
528.614	34675.18
528.815	34468.34
529.016	35135.98
529.218	34650.61
529.419	34427.38
529.62	35174.89
529.822	34656.75
530.023	34943.47
530.224	34992.62
530.425	34972.14
530.626	34957.8
530.828	34798.06
531.029	35846.62
531.23	34873.84
531.431	35492.32
531.632	35430.88
531.833	35613.15
532.035	35434.98
532.236	35344.87
532.437	35617.25
532.638	35310.05
532.839	35799.52
533.04	35719.65
533.241	35170.79
533.442	36276.69
533.643	35686.88
533.844	35844.57
534.045	36205.02
534.246	35764.7
534.447	35420.64
534.648	35625.44
534.849	35795.42
535.05	35590.62
535.251	35645.92
535.451	35928.54
535.652	36055.51
535.853	35873.24
536.054	35721.69
536.255	35949.02
536.456	35455.46
536.657	35789.28
536.857	35750.37
537.058	35361.25
537.259	35742.17
537.46	35828.19
537.66	35357.16
537.861	35733.98
538.062	35379.68
538.263	35826.14
538.463	35764.7
538.664	35748.32
538.865	35705.31
539.065	35879.39
539.266	35480.03
539.466	36262.36
539.667	35365.35
539.868	35858.91
540.068	35914.2
540.269	35547.62
540.469	36010.46
540.67	35535.33
540.87	35510.75
541.071	35592.67
541.271	35832.29
541.472	35344.87
541.672	35674.59
541.873	35537.38
542.073	34937.32
542.274	36094.43
542.474	35369.44
542.675	35027.43
542.875	35600.86
543.075	35592.67
543.276	35121.64
543.476	35502.56
543.676	35000.81
543.877	35275.24
544.077	35168.74
544.277	35533.28
544.478	35238.37
544.678	35394.02
544.878	35463.65
545.078	35482.08
545.279	35482.08
545.479	35097.06
545.679	35865.05
545.879	35217.89
546.079	35467.75
546.28	35310.05
546.48	35133.93
546.68	35248.61
546.88	35514.85
547.08	34965.99
547.28	35334.63
547.48	34961.9
547.68	35293.67
547.88	35193.32
548.081	35174.89
548.281	35453.41
548.481	35080.68
548.681	35707.36
548.881	35396.07
549.081	35389.92
549.28	35328.48
549.48	35221.99
549.68	35109.35
549.88	35488.23
550.08	34884.08
550.28	35082.73
550.48	34914.8
550.68	35230.18
550.88	34476.53
551.08	35185.13
551.279	34882.03
551.479	34976.23
551.679	35293.67
551.879	34830.83
552.079	35011.05
552.278	34755.05
552.478	35019.24
552.678	34957.8
552.878	34994.67
553.077	34691.57
553.277	34439.67
553.477	35078.63
553.676	34529.78
553.876	34492.91
554.076	34992.62
554.275	34527.73
554.475	34206.2
554.674	34877.93
554.874	34904.56
555.074	34677.23
555.273	34367.99
555.473	34595.31
555.672	34159.09
555.872	34314.74
556.071	34712.05
556.271	34542.06
556.47	34353.65
556.67	33864.19
556.869	34081.27
557.068	34560.5
557.268	34050.55
557.467	34374.13
557.667	34509.3
557.866	34396.66
558.065	33950.2
558.265	33858.04
558.464	33903.1
558.663	34456.05
558.863	33802.75
559.062	34382.32
559.261	33853.95
559.461	34025.98
559.66	33511.94
559.859	33851.9
560.058	33434.11
560.258	33669.63
560.457	33249.8
560.656	34030.07
560.855	33096.2
561.054	33659.39
561.253	33378.82
561.453	33610.24
561.652	33352.2
561.851	33245.7
562.05	33380.87
562.249	33024.52
562.448	33479.17
562.647	33303.04
562.846	33090.06
563.045	33389.06
563.244	32733.71
563.443	33462.79
563.642	32307.73
563.841	33118.73
564.04	32696.85
564.239	33182.21
564.438	32250.39
564.637	32844.3
564.836	32674.32
565.035	32231.96
565.234	32436.75
565.432	32461.33
565.631	32195.09
565.83	32440.85
566.029	32412.18
566.228	32498.19
566.427	32555.54
566.625	32043.54
566.824	31738.4
567.023	32209.43
567.222	31672.86
567.42	32184.85
567.619	31814.17
567.818	31808.03
568.016	31805.98
568.215	31887.9
568.414	31423.01
568.612	31619.61
568.811	31689.24
569.01	31492.64
569.208	31015.46
569.407	31480.35
569.605	30943.78
569.804	31396.38
570.002	30636.59
570.201	31275.55
570.4	30970.41
570.598	30558.77
570.797	30499.37
570.995	30716.46
571.193	30495.28
571.392	30820.91
571.59	30353.97
571.789	30646.83
571.987	30487.09
572.186	30231.09
572.384	30304.82
572.582	30419.5
572.781	30145.08
572.979	29749.82
573.177	30112.31
573.376	30042.68
573.574	30046.77
573.772	29985.33
573.971	29723.19
574.169	29260.35
574.367	29483.58
574.565	29624.89
574.763	29651.52
574.962	29102.66
575.16	29278.79
575.358	29370.94
575.556	29000.26
575.754	29504.06
575.952	28830.28
576.151	29076.04
576.349	28693.07
576.547	28531.28
576.745	28613.2
576.943	28656.2
577.141	28746.31
577.339	28518.99
577.537	28432.97
577.735	28688.97
577.933	28183.12
578.131	28250.7
578.329	28150.35
578.527	27992.66
578.725	28191.31
578.923	28084.82
579.121	27949.65
579.319	27816.54
579.516	28115.54
579.714	28136.02
579.912	27611.74
580.11	27355.74
580.308	27734.62
580.506	27720.28
580.704	27060.84
580.901	27595.35
581.099	27417.18
581.297	27091.55
581.495	26899.05
581.692	27132.51
581.89	26593.9
582.088	27437.66
582.285	26929.77
582.483	26892.9
582.681	26761.83
582.878	26620.52
583.076	26780.26
583.274	26978.92
583.471	26337.9
583.669	26501.74
583.866	26129.01
584.064	26616.43
584.262	26030.71
584.459	26577.51
584.657	26024.56
584.854	26237.55
585.052	25580.15
585.249	25979.51
585.447	25870.97
585.644	25371.26
585.841	25647.74
586.039	25676.41
586.236	25293.44
586.434	25406.08
586.631	25318.01
586.828	25684.6
587.026	25430.65
587.223	25264.77
587.42	25033.35
587.618	25342.59
587.815	24951.43
588.012	25117.31
588.21	24705.67
588.407	25449.08
588.604	24933
588.801	24609.42
588.999	24754.82
589.196	24492.68
589.393	24545.93
589.59	24527.5
589.787	24488.59
589.984	24185.49
590.182	24040.08
590.379	24117.9
590.576	23915.16
590.773	24138.38
590.97	24134.29
591.167	24220.3
591.364	23741.08
591.561	23401.11
591.758	23657.11
591.955	23898.77
592.152	23786.13
592.349	23542.42
592.546	23747.22
592.743	23483.03
592.94	22934.18
593.137	23368.35
593.334	23161.5
593.531	22940.32
593.727	23401.11
593.924	22977.19
594.121	22676.13
594.318	23026.34
594.515	22774.44
594.712	22835.88
594.908	22569.64
595.105	22565.54
595.302	22137.52
595.499	22495.91
595.696	22645.41
595.892	22094.51
596.089	22276.78
596.286	22311.6
596.482	22164.14
596.679	22041.26
596.876	21867.19
597.072	21848.75
597.269	21830.32
597.466	21910.19
597.662	21656.25
597.859	21664.44
598.055	21668.53
598.252	21854.9
598.448	21621.43
598.645	21244.6
598.841	21172.92
599.038	21336.76
599.234	21013.18
599.431	21037.76
599.627	20953.79
599.824	20927.17
600.02	21183.16
600.217	20980.42
600.413	21023.42
600.609	20775.62
600.806	20775.62
601.002	20724.42
601.198	20599.49
601.395	20615.88
601.591	20427.46
601.787	20179.66
601.984	20320.97
602.18	20437.7
602.376	20001.49
602.572	20320.97
602.769	20120.27
602.965	20007.63
603.161	20402.89
603.357	20067.02
603.553	19952.34
603.75	19976.91
603.946	19972.82
604.142	19587.8
604.338	19401.43
604.534	19577.56
604.73	19452.63
604.926	19622.61
605.122	19565.27
605.318	19350.23
605.514	19495.64
605.71	19251.93
605.906	19251.93
606.102	19405.53
606.298	19391.19
606.494	19256.03
606.69	19088.09
606.886	18991.84
607.082	18948.83
607.278	18918.11
607.474	18565.86
607.67	18891.49
607.866	18514.66
608.062	18721.51
608.257	18592.48
608.453	18680.55
608.649	18578.15
608.845	18447.08
609.041	18610.92
609.236	18399.98
609.432	18531.05
609.628	18434.79
609.824	18436.84
610.019	18256.62
610.215	18070.25
610.411	18492.13
610.606	17978.09
610.802	17941.23
610.998	18436.84
611.193	18049.77
611.389	18115.31
611.584	17928.94
611.78	17709.81
611.976	17898.22
612.171	18041.58
612.367	17908.46
612.562	17799.92
612.758	17468.15
612.953	17511.16
613.149	17736.43
613.344	17705.71
613.539	17863.41
613.735	17746.67
613.93	17398.52
614.126	17599.22
614.321	17648.37
614.517	17406.71
614.712	17548.02
614.907	17414.9
615.103	17654.51
615.298	17341.18
615.493	17152.76
615.688	17287.93
615.884	17849.07
616.079	16874.24
616.274	17318.65
616.47	16964.35
616.665	17208.06
616.86	16898.81
617.055	17072.89
617.25	16808.7
617.445	16962.3
617.641	16679.68
617.836	17148.67
618.031	16401.16
618.226	16794.37
618.421	16558.85
618.616	16722.69
618.811	16163.59
619.006	16812.8
619.201	16472.84
619.396	16341.77
619.591	16157.45
619.786	16499.46
619.981	16114.44
620.176	16200.46
620.371	15977.23
620.566	16048.91
620.761	16042.76
620.956	16276.23
621.151	15954.7
621.346	15674.13
621.541	15663.89
621.735	15911.69
621.93	15639.31
622.125	15448.85
622.32	15278.87
622.515	15368.98
622.709	15422.23
622.904	15168.28
623.099	15012.63
623.294	14977.82
623.488	14926.62
623.683	14865.18
623.878	14646.05
624.072	14816.03
624.267	14615.33
624.462	14494.5
624.656	14707.49
624.851	14375.72
625.046	14287.65
625.24	14390.05
625.435	14076.71
625.629	14189.35
625.824	13884.2
626.018	13988.65
626.213	13570.86
626.407	14027.56
626.602	13591.34
626.796	13677.36
626.991	13790
627.185	13579.06
627.38	13443.89
627.574	13194.04
627.768	13337.4
627.963	13069.11
628.157	13009.72
628.352	13050.68
628.546	13015.87
628.74	13337.4
628.935	13005.63
629.129	13056.82
629.323	12694.33
629.517	12901.18
629.712	12692.29
629.906	12690.24
630.1	12374.85
630.294	12598.08
630.489	12301.12
630.683	12299.08
630.877	12125
631.071	12192.58
631.265	12282.69
631.459	12237.64
631.653	12192.58
631.848	11963.21
632.042	11723.6
632.236	11842.38
632.43	11633.49
632.624	11690.83
632.818	11830.09
633.012	11496.27
633.206	11508.56
633.4	11230.04
633.594	11381.59
633.788	11299.67
633.982	11391.83
634.176	11180.89
634.369	11019.1
634.563	10845.02
634.757	11096.92
634.951	10779.48
635.145	10781.53
635.339	10845.02
635.533	10793.82
635.726	10621.79
635.92	10560.35
636.114	10496.86
636.308	10785.63
636.501	10560.35
636.695	10341.22
636.889	10234.72
637.083	10408.8
637.276	10357.6
637.47	10183.52
637.664	10308.45
637.857	10072.93
638.051	10060.65
638.244	9921.38
638.438	10052.45
638.632	9986.92
638.825	9921.38
639.019	9792.36
639.212	9724.78
639.406	9601.9
639.599	9700.2
639.793	9694.06
639.986	9397.1
640.18	9517.93
640.373	9612.14
640.567	9433.97
640.76	9501.55
640.954	9429.87
641.147	9245.55
641.34	9192.31
641.534	9372.53
641.727	9094.01
641.92	9077.62
642.114	9030.52
642.307	9020.28
642.5	8852.34
642.694	8698.75
642.887	8719.23
643.08	8911.74
643.273	8682.36
643.467	8969.08
643.66	8553.34
643.853	8616.83
644.046	8473.47
644.239	8571.77
644.432	8536.96
644.626	8381.31
644.819	8356.74
645.012	8426.37
645.205	8479.61
645.398	8205.19
645.591	8192.9
645.784	8250.24
645.977	7916.42
646.17	8039.3
646.363	7926.66
646.556	7963.53
646.749	8037.25
646.942	7965.57
647.135	7822.22
647.328	7668.62
647.521	7818.12
647.714	7691.15
647.907	7713.67
648.099	7723.91
648.292	7869.32
648.485	7457.68
648.678	7711.63
648.871	7455.63
649.064	7373.71
649.256	7312.27
649.449	7373.71
649.642	7287.7
649.835	7134.1
650.027	7252.88
650.22	7267.22
650.413	7228.31
650.605	7144.34
650.798	7064.47
650.991	7033.75
651.183	7142.29
651.376	6988.69
651.568	7043.99
651.761	6933.4
651.954	6867.86
652.146	6923.16
652.339	6851.48
652.531	6681.5
652.724	6751.13
652.916	6665.11
653.109	6611.87
653.301	6628.25
653.494	6691.74
653.686	6452.13
653.879	6615.96
654.071	6458.27
654.263	6509.47
654.456	6384.54
654.648	6431.65
654.84	6458.27
655.033	6374.3
655.225	6341.54
655.417	6218.66
655.61	6316.96
655.802	6206.37
655.994	6177.7
656.186	6108.07
656.379	6142.88
656.571	5905.32
656.763	5989.28
656.955	6110.11
657.148	6142.88
657.34	6087.59
657.532	6136.74
657.724	5784.49
657.916	5792.68
658.108	5802.92
658.3	5776.3
658.492	5850.02
658.684	5800.87
658.876	5721
659.068	5591.98
659.26	5675.95
659.452	5596.07
659.644	5544.88
659.836	5565.36
660.028	5620.65
660.22	5600.17
660.412	5579.69
660.604	5342.13
660.796	5462.96
660.988	5415.85
661.18	5448.62
661.372	5313.45
661.563	5325.74
661.755	5280.69
661.947	5245.87
662.139	5071.79
662.331	5067.7
662.522	5100.47
662.714	5133.23
662.906	5139.38
663.097	5075.89
663.289	5071.79
663.481	4950.96
663.673	5096.37
663.864	5026.74
664.056	4754.36
664.247	4793.27
664.439	4670.39
664.631	4983.73
664.822	4854.71
665.014	4641.72
665.205	4850.61
665.397	4682.68
665.588	4735.93
665.78	4684.73
665.971	4686.78
666.163	4744.12
666.354	4680.63
666.546	4590.52
666.737	4543.42
666.929	4547.51
667.12	4678.58
667.311	4412.35
667.503	4615.1
667.694	4418.49
667.885	4412.35
668.077	4338.62
668.268	4322.24
668.459	4252.61
668.651	4352.96
668.842	4369.34
669.033	4432.83
669.224	4357.05
669.416	4340.67
669.607	4162.5
669.798	4277.18
669.989	4084.67
670.18	4301.76
670.371	4174.78
670.563	4129.73
670.754	4328.38
670.945	4107.2
671.136	3974.08
671.327	4115.39
671.518	3965.89
671.709	4072.39
671.9	3949.51
672.091	4064.19
672.282	3869.64
672.473	3965.89
672.664	3937.22
672.855	3929.03
673.046	3974.08
673.237	3951.56
673.428	3900.36
673.619	3918.79
673.809	3752.9
674	3892.16
674.191	3769.29
674.382	3728.33
674.573	3759.05
674.764	3896.26
674.954	3865.54
675.145	3836.87
675.336	3732.42
675.527	3826.63
675.717	3763.14
675.908	3695.56
676.099	3720.14
676.289	3720.14
676.48	3566.54
676.671	3580.87
676.861	3687.37
677.052	3599.31
677.243	3492.81
677.433	3630.02
677.624	3621.83
677.814	3576.78
678.005	3593.16
678.195	3597.26
678.386	3523.53
678.576	3527.63
678.767	3505.1
678.957	3470.28
679.148	3539.91
679.338	3580.87
679.529	3390.41
679.719	3498.95
679.909	3371.98
680.1	3302.35
680.29	3345.36
680.481	3414.99
680.671	3392.46
680.861	3410.89
681.052	3306.45
681.242	3326.93
681.432	3273.68
681.622	3304.4
681.813	3271.63
682.003	3359.69
682.193	3230.67
682.383	3134.42
682.573	3249.1
682.764	3167.18
682.954	3296.21
683.144	3195.86
683.334	3230.67
683.524	3222.48
683.714	3179.47
683.904	3234.77
684.094	3195.86
684.284	3036.11
684.474	3179.47
684.664	3099.6
684.854	3101.65
685.044	2982.87
685.234	3089.36
685.424	3032.02
685.614	2943.96
685.804	3077.07
685.994	3093.46
686.184	3048.4
686.374	3007.44
686.564	2903
686.753	2978.77
686.943	2726.87
687.133	2997.2
687.323	2937.81
687.513	2872.28
687.702	2925.52
687.892	3017.68
688.082	2927.57
688.272	2802.65
688.461	2862.04
688.651	2925.52
688.841	2909.14
689.03	2794.45
689.22	2907.09
689.41	2933.72
689.599	2868.18
689.789	2839.51
689.979	2833.36
690.168	2884.56
690.358	2819.03
690.547	2737.11
690.737	2657.24
690.926	2823.12
691.116	2649.05
691.305	2821.08
691.495	2747.35
691.684	2663.38
691.874	2640.86
692.063	2681.82
692.252	2669.53
692.442	2599.9
692.631	2491.35
692.82	2753.49
693.01	2505.69
693.199	2520.03
693.388	2495.45
693.578	2505.69
693.767	2599.9
693.956	2517.98
694.146	2536.41
694.335	2444.25
694.524	2434.01
694.713	2474.97
694.902	2395.1
695.092	2417.63
695.281	2458.59
695.47	2544.6
695.659	2444.25
695.848	2393.05
696.037	2468.83
696.226	2458.59
696.415	2378.72
696.604	2507.74
696.793	2395.1
696.982	2341.85
697.171	2343.9
697.36	2548.7
697.549	2337.76
697.738	2298.84
697.927	2327.52
698.116	2421.72
698.305	2264.03
698.494	2288.61
698.683	2261.98
698.872	2425.82
699.061	2368.48
699.25	2270.17
699.438	2286.56
699.627	2229.21
699.816	2380.76
700.005	2261.98
700.193	2241.5
700.382	2272.22
700.571	2313.18
700.76	2315.23
700.948	2274.27
701.137	2343.9
701.326	2278.37
701.514	2247.65
701.703	2319.32
701.892	2180.06
702.08	2253.79
702.269	2245.6
702.457	2151.39
702.646	2198.49
702.834	2239.45
703.023	2210.78
703.212	2288.61
703.4	2175.97
703.589	2218.97
703.777	2223.07
703.965	2147.3
704.154	2139.1
704.342	2169.82
704.531	2130.91
704.719	2100.19
704.907	2155.49
705.096	1987.55
705.284	2130.91
705.472	2231.26
705.661	2155.49
705.849	2132.96
706.037	2075.62
706.226	2122.72
706.414	2214.88
706.602	2126.82
706.79	2128.86
706.979	2085.86
707.167	2141.15
707.355	2124.77
707.543	2130.91
707.731	2302.94
707.919	2059.23
708.107	2001.89
708.296	2094.05
708.484	2192.35
708.672	2108.38
708.86	2067.42
709.048	2048.99
709.236	1981.41
709.424	2278.37
709.612	2026.47
709.8	2001.89
709.988	2057.18
710.176	2065.38
710.364	2106.34
710.551	2165.73
710.739	2130.91
710.927	2145.25
711.115	1997.79
711.303	2163.68
711.491	2122.72
711.679	2032.61
711.866	2110.43
712.054	2001.89
712.242	2018.27
712.43	2118.62
712.617	2073.57
712.805	2063.33
712.993	2171.87
713.181	2075.62
713.368	2087.9
713.556	2120.67
713.744	2018.27
713.931	2063.33
714.119	2110.43
714.306	2020.32
714.494	2089.95
714.682	2057.18
714.869	2059.23
715.057	2053.09
715.244	2008.03
715.432	2073.57
715.619	2073.57
715.807	2003.94
715.994	1962.98
716.182	2098.14
716.369	2008.03
716.556	1991.65
716.744	2065.38
716.931	2026.47
717.119	2141.15
717.306	2108.38
717.493	2114.53
717.681	1956.83
717.868	2135.01
718.055	2030.56
718.242	2065.38
718.43	2167.77
718.617	2026.47
718.804	1969.12
718.991	1995.75
719.179	2051.04
719.366	2124.77
719.553	2065.38
719.74	1938.4
719.927	2065.38
720.114	2116.58
720.301	2010.08
720.488	1995.75
720.676	2106.34
720.863	2089.95
721.05	2057.18
721.237	2139.1
721.424	2122.72
721.611	2026.47
721.798	2163.68
721.985	2067.42
722.172	2032.61
722.358	1983.46
722.545	1962.98
722.732	2024.42
722.919	1950.69
723.106	1975.27
723.293	2024.42
723.48	2026.47
723.667	2057.18
723.853	2061.28
724.04	2061.28
724.227	2055.14
724.414	1989.6
724.6	2024.42
724.787	1887.2
724.974	2180.06
725.161	1942.5
725.347	2018.27
725.534	2098.14
725.72	1934.31
725.907	1981.41
726.094	2116.58
726.28	2003.94
726.467	2085.86
726.653	2012.13
726.84	2010.08
727.027	2135.01
727.213	1983.46
727.4	2024.42
727.586	2001.89
727.773	2092
727.959	2116.58
728.145	2266.08
728.332	2098.14
728.518	2001.89
728.705	1981.41
728.891	2046.94
729.077	2032.61
729.264	1960.93
729.45	2040.8
729.636	2135.01
729.823	2057.18
730.009	2118.62
730.195	2126.82
730.382	2081.76
730.568	2042.85
730.754	2100.19
730.94	2085.86
731.126	1977.31
731.313	2067.42
731.499	1995.75
731.685	2024.42
731.871	2048.99
732.057	2081.76
732.243	2089.95
732.429	2065.38
732.615	2165.73
732.801	2055.14
732.987	2102.24
733.173	2024.42
733.359	1981.41
733.545	1987.55
733.731	2032.61
733.917	2044.9
734.103	2098.14
734.289	2061.28
734.475	2040.8
734.661	2034.66
734.847	2067.42
735.033	2057.18
735.219	2081.76
735.404	1993.7
735.59	2067.42
735.776	1946.59
735.962	2028.51
736.148	2042.85
736.333	2046.94
736.519	1975.27
736.705	1958.88
736.89	1934.31
737.076	2065.38
737.262	1958.88
737.447	1907.68
737.633	2024.42
737.819	1952.74
738.004	1944.55
738.19	1922.02
738.375	2008.03
738.561	2051.04
738.747	1803.24
738.932	2022.37
739.118	2044.9
739.303	1971.17
739.489	1952.74
739.674	1938.4
739.859	1944.55
740.045	1999.84
740.23	2034.66
740.416	1889.25
740.601	1950.69
740.786	1934.31
740.972	1854.44
741.157	1924.07
741.342	1905.63
741.528	1903.59
741.713	1975.27
741.898	1803.24
742.084	1944.55
742.269	1944.55
742.454	1971.17
742.639	1881.06
742.824	1901.54
743.01	1965.03
743.195	1876.96
743.38	1915.87
743.565	1799.14
743.75	1825.76
743.935	1866.72
744.12	1795.04
744.305	1760.23
744.49	1747.94
744.675	1836
744.86	1723.37
745.045	1870.82
745.23	1854.44
745.415	1819.62
745.6	1874.92
745.785	1649.64
745.97	1778.66
746.155	1754.09
746.34	1747.94
746.525	1762.28
746.71	1770.47
746.895	1584.1
747.079	1770.47
747.264	1706.98
747.449	1729.51
747.634	1713.13
747.819	1643.49
748.003	1680.36
748.188	1606.63
748.373	1704.93
748.557	1655.78
748.742	1635.3
748.927	1639.4
749.111	1590.25
749.296	1639.4
749.481	1549.29
749.665	1588.2
749.85	1510.38
750.034	1590.25
750.219	1524.71
750.404	1532.9
750.588	1688.55
750.773	1520.62
750.957	1491.95
751.141	1516.52
751.326	1487.85
751.51	1401.83
751.695	1582.06
751.879	1369.07
752.064	1602.54
752.248	1313.77
752.432	1401.83
752.617	1442.79
752.801	1457.13
752.985	1319.92
753.17	1428.46
753.354	1461.23
753.538	1364.97
753.722	1319.92
753.907	1369.07
754.091	1438.7
754.275	1459.18
754.459	1340.4
754.643	1307.63
754.828	1444.84
755.012	1364.97
755.196	1332.2
755.38	1246.19
755.564	1281
755.748	1281
755.932	1344.49
756.116	1209.33
756.3	1352.68
756.484	1303.53
756.668	1270.76
756.852	1229.81
757.036	1233.9
757.22	1199.09
757.404	1211.37
757.588	1117.17
757.772	1168.37
757.956	1221.61
758.14	1178.61
758.323	1166.32
758.507	1106.93
758.691	1096.69
758.875	1139.69
759.059	1293.29
759.242	1141.74
759.426	1111.02
759.61	1166.32
759.794	1172.46
759.977	1188.85
760.161	1170.41
760.345	1096.69
760.528	1074.16
760.712	1131.5
760.895	1133.55
761.079	1070.06
761.263	1020.91
761.446	1018.86
761.63	1074.16
761.813	1131.5
761.997	1102.83
762.18	1025.01
762.364	1065.97
762.547	1035.25
762.731	961.52
762.914	1027.06
763.098	1016.82
763.281	971.76
763.464	1014.77
763.648	994.29
763.831	1000.43
764.015	998.38
764.198	930.8
764.381	1006.58
764.564	971.76
764.748	893.94
764.931	945.14
765.114	904.18
765.297	977.91
765.481	918.51
765.664	914.42
765.847	971.76
766.03	953.33
766.213	857.07
766.397	928.75
766.58	918.51
766.763	971.76
766.946	943.09
767.129	959.47
767.312	852.98
767.495	969.71
767.678	766.96
767.861	918.51
768.044	852.98
768.227	977.91
768.41	898.03
768.593	910.32
768.776	863.22
768.959	879.6
769.142	816.12
769.324	877.55
769.507	902.13
769.69	914.42
769.873	912.37
770.056	877.55
770.239	855.03
770.421	830.45
770.604	807.92
770.787	799.73
770.97	857.07
771.152	943.09
771.335	830.45
771.518	836.6
771.7	881.65
771.883	922.61
772.066	726
772.248	881.65
772.431	861.17
772.613	836.6
772.796	779.25
772.978	785.4
773.161	861.17
773.343	738.29
773.526	844.79
773.708	752.63
773.891	719.86
774.073	689.14
774.256	766.96
774.438	707.57
774.621	730.1
774.803	762.87
774.985	734.2
775.168	715.77
775.35	764.92
775.532	697.33
775.715	680.95
775.897	713.72
776.079	599.03
776.261	642.04
776.444	717.81
776.626	672.76
776.808	607.22
776.99	623.61
777.173	680.95
777.355	691.19
777.537	701.43
777.719	648.18
777.901	594.93
778.083	564.22
778.265	613.37
778.447	726
778.629	660.47
778.811	588.79
778.993	650.23
779.175	629.75
779.357	576.5
779.539	601.08
779.721	580.6
779.903	615.41
780.085	625.65
780.267	513.02
780.449	463.86
780.631	586.74
780.812	619.51
780.994	582.65
781.176	639.99
781.358	551.93
781.54	599.03
781.721	513.02
781.903	574.46
782.085	461.82
782.267	592.89
782.448	572.41
782.63	576.5
782.812	601.08
782.993	570.36
783.175	549.88
783.357	504.82
783.538	558.07
783.72	492.54
783.901	500.73
784.083	494.58
784.264	502.78
784.446	447.48
784.627	484.34
784.809	529.4
784.99	445.43
785.172	459.77
785.353	398.33
785.535	461.82
785.716	476.15
785.897	443.39
786.079	453.63
786.26	451.58
786.441	549.88
786.623	363.51
786.804	418.81
786.985	332.79
787.167	404.47
787.348	394.23
787.529	504.82
787.71	404.47
787.891	410.62
788.073	330.75
788.254	412.67
788.435	480.25
788.616	396.28
788.797	310.27
788.978	455.67
789.159	377.85
789.34	418.81
789.522	424.95
789.703	394.23
789.884	439.29
790.065	353.27
790.246	361.47
790.427	293.88
790.607	420.86
790.788	388.09
790.969	328.7
791.15	345.08
791.331	347.13
791.512	379.9
791.693	259.07
791.874	316.41
792.054	394.23
792.235	343.03
792.416	316.41
792.597	265.21
792.778	402.43
792.958	349.18
793.139	334.84
793.32	193.53
793.5	273.4
793.681	369.66
793.862	312.32
794.042	283.64
794.223	314.36
794.404	340.99
794.584	238.59
794.765	238.59
794.945	347.13
795.126	312.32
795.306	332.79
795.487	287.74
795.667	263.16
795.848	216.06
796.028	271.36
796.209	267.26
796.389	293.88
796.57	234.49
796.75	373.75
796.93	281.6
797.111	304.12
797.291	230.4
797.471	343.03
797.652	300.03
797.832	265.21
798.012	406.52
798.192	242.68
798.373	287.74
798.553	271.36
798.733	218.11
798.913	304.12
799.093	224.25
799.274	269.31
799.454	261.12
799.634	240.64
799.814	306.17
799.994	238.59
800.174	152.57
800.354	259.07
800.534	230.4
800.714	295.93
800.894	142.33
801.074	246.78
801.254	211.96
801.434	281.6
801.614	187.39
801.794	232.44
801.974	844.79
802.154	209.92
802.334	242.68
802.514	175.1
802.693	205.82
802.873	240.64
803.053	320.51
803.233	199.68
803.413	181.25
803.592	152.57
803.772	166.91
803.952	197.63
804.131	185.34
804.311	234.49
804.491	232.44
804.67	173.05
804.85	207.87
805.03	209.92
805.209	312.32
805.389	238.59
805.568	197.63
805.748	162.81
805.928	197.63
806.107	123.9
806.287	236.54
806.466	267.26
806.646	164.86
806.825	199.68
807.004	164.86
807.184	74.75
807.363	199.68
807.543	205.82
807.722	224.25
807.901	197.63
808.081	224.25
808.26	144.38
808.439	183.29
808.619	193.53
808.798	207.87
808.977	181.25
809.156	187.39
809.336	181.25
809.515	191.49
809.694	177.15
809.873	216.06
810.052	240.64
810.231	218.11
810.411	181.25
810.59	181.25
810.769	173.05
810.948	224.25
811.127	101.37
811.306	183.29
811.485	119.81
811.664	224.25
811.843	230.4
812.022	119.81
812.201	142.33
812.38	97.28
812.559	132.09
812.737	214.01
812.916	117.76
813.095	140.29
813.274	134.14
813.453	173.05
813.632	177.15
813.811	191.49
813.989	78.85
814.168	152.57
814.347	140.29
814.526	183.29
814.704	197.63
814.883	238.59
815.062	119.81
815.24	150.53
815.419	41.98
815.598	117.76
815.776	117.76
815.955	117.76
816.133	76.8
816.312	89.09
816.49	107.52
816.669	113.66
816.847	164.86
817.026	82.94
817.204	125.95
817.383	132.09
817.561	125.95
817.74	158.72
817.918	187.39
818.097	99.33
818.275	123.9
818.453	205.82
818.632	115.71
818.81	125.95
818.988	97.28
819.167	80.89
819.345	140.29
819.523	62.46
819.701	101.37
819.879	87.04
820.058	103.42
820.236	103.42
820.414	37.89
820.592	117.76
820.77	119.81
820.948	164.86
821.127	82.94
821.305	111.61
821.483	97.28
821.661	166.91
821.839	99.33
822.017	60.42
822.195	107.52
822.373	148.48
822.551	166.91
822.729	175.1
822.907	109.57
823.085	93.18
823.262	113.66
823.44	132.09
823.618	46.08
823.796	132.09
823.974	78.85
824.152	107.52
824.329	95.23
824.507	123.9
824.685	78.85
824.863	33.79
825.04	82.94
825.218	82.94
825.396	82.94
825.574	128
825.751	132.09
825.929	107.52
826.107	48.13
826.284	91.13
826.462	142.33
826.639	78.85
826.817	66.56
826.994	82.94
827.172	101.37
827.349	166.91
827.527	95.23
827.704	107.52
827.882	107.52
828.059	152.57
828.237	99.33
828.414	107.52
828.591	29.7
828.769	132.09
828.946	64.51
829.124	107.52
829.301	93.18
829.478	60.42
829.655	132.09
829.833	52.22
830.01	17.41
830.187	123.9
830.364	113.66
830.542	54.27
830.719	101.37
830.896	111.61
831.073	93.18
831.25	107.52
831.427	44.03
831.604	27.65
831.782	17.41
831.959	52.22
832.136	123.9
832.313	132.09
832.49	89.09
832.667	101.37
832.844	74.75
833.021	76.8
833.198	95.23
833.374	76.8
833.551	123.9
833.728	99.33
833.905	93.18
834.082	78.85
834.259	87.04
834.436	121.85
834.612	-15.36
834.789	80.89
834.966	107.52
835.143	82.94
835.319	35.84
835.496	82.94
835.673	74.75
835.85	27.65
836.026	33.79
836.203	70.65
836.38	-23.55
836.556	-7.17
836.733	35.84
836.909	99.33
837.086	52.22
837.262	64.51
837.439	95.23
837.616	107.52
837.792	11.26
837.968	115.71
838.145	52.22
838.321	1.02
838.498	89.09
838.674	31.74
838.851	-3.07
839.027	11.26
839.203	48.13
839.38	84.99
839.556	1.02
839.732	76.8
839.909	95.23
840.085	9.22
840.261	107.52
840.437	19.46
840.614	44.03
840.79	66.56
840.966	93.18
841.142	154.62
841.318	-15.36
841.494	52.22
841.671	115.71
841.847	-15.36
842.023	-27.65
842.199	84.99
842.375	91.13
842.551	58.37
842.727	50.18
842.903	91.13
843.079	1.02
843.255	68.61
843.431	66.56
843.607	50.18
843.783	91.13
843.959	35.84
844.134	93.18
844.31	125.95
844.486	72.7
844.662	27.65
844.838	17.41
845.013	117.76
845.189	84.99
845.365	-23.55
845.541	25.6
845.716	-33.79
845.892	66.56
846.068	89.09
846.244	31.74
846.419	50.18
846.595	101.37
846.77	11.26
846.946	60.42
847.122	62.46
847.297	50.18
847.473	95.23
847.648	-62.46
847.824	130.05
847.999	-3.07
848.175	27.65
848.35	76.8
848.526	119.81
848.701	11.26
848.876	72.7
849.052	35.84
849.227	44.03
849.403	11.26
849.578	68.61
849.753	72.7
849.929	-7.17
850.104	68.61
850.279	27.65
850.454	44.03
850.63	84.99
850.805	46.08
850.98	99.33
851.155	3.07
851.33	9.22
851.505	-66.56
851.681	19.46
851.856	-7.17
852.031	19.46
852.206	50.18
852.381	-5.12
852.556	9.22
852.731	41.98
852.906	25.6
853.081	68.61
853.256	66.56
853.431	91.13
853.606	37.89
853.781	19.46
853.956	-21.5
854.131	17.41
854.305	-11.26
854.48	15.36
854.655	27.65
854.83	35.84
855.005	-11.26
855.18	105.47
855.354	44.03
855.529	76.8
855.704	-13.31
855.879	44.03
856.053	-13.31
856.228	33.79
856.403	-23.55
856.577	93.18
856.752	-19.46
856.926	58.37
857.101	21.5
857.276	33.79
857.45	41.98
857.625	58.37
857.799	-29.7
857.974	13.31
858.148	3.07
858.323	-25.6
858.497	60.42
858.672	74.75
858.846	44.03
859.02	93.18
859.195	29.7
859.369	9.22
859.543	58.37
859.718	33.79
859.892	-3.07
860.066	9.22
860.241	76.8
860.415	3.07
860.589	33.79
860.763	80.89
860.938	37.89
861.112	25.6
861.286	19.46
861.46	-31.74
861.634	95.23
861.808	54.27
861.982	23.55
862.157	-3.07
862.331	31.74
862.505	-3.07
862.679	-9.22
862.853	7.17
863.027	3.07
863.201	103.42
863.375	-19.46
863.549	78.85
863.722	9.22
863.896	50.18
864.07	41.98
864.244	68.61
864.418	-15.36
864.592	58.37
864.766	9.22
864.939	68.61
865.113	25.6
865.287	62.46
865.461	27.65
865.634	17.41
865.808	-97.28
865.982	41.98
866.156	-5.12
866.329	-54.27
866.503	-11.26
866.676	50.18
866.85	19.46
867.024	3.07
867.197	17.41
867.371	25.6
867.544	78.85
867.718	-23.55
867.891	115.71
868.065	35.84
868.238	21.5
868.412	54.27
868.585	52.22
868.759	27.65
868.932	-29.7
869.105	35.84
869.279	-62.46
869.452	-3.07
869.625	-11.26
869.799	-23.55
869.972	-15.36
870.145	-15.36
870.319	5.12
870.492	-5.12
870.665	74.75
870.838	-11.26
871.011	-44.03
871.185	101.37
871.358	-23.55
871.531	1.02
871.704	-15.36
871.877	-54.27
872.05	-39.94
872.223	-46.08
872.396	68.61
872.569	48.13
872.742	107.52
872.915	23.55
873.088	19.46
873.261	13.31
873.434	1.02
873.607	-56.32
873.78	33.79
873.953	11.26
874.126	19.46
874.299	60.42
874.471	9.22
874.644	-56.32
874.817	13.31
874.99	62.46
875.163	-33.79
875.335	13.31
875.508	-23.55
875.681	-31.74
875.853	-7.17
876.026	1.02
876.199	68.61
876.371	-13.31
876.544	74.75
876.717	41.98
876.889	17.41
877.062	50.18
877.234	1.02
877.407	50.18
877.579	35.84
877.752	-15.36
877.924	17.41
878.097	41.98
878.269	-19.46
878.442	-7.17
878.614	-17.41
878.786	3.07
878.959	41.98
879.131	-23.55
879.303	-23.55
879.476	-15.36
879.648	-9.22
879.82	31.74
879.993	-29.7
880.165	-11.26
880.337	-37.89
880.509	-31.74
880.681	-11.26
880.854	-39.94
881.026	-35.84
881.198	136.19
881.37	93.18
881.542	-9.22
881.714	-23.55
881.886	13.31
882.058	52.22
882.23	35.84
882.402	-19.46
882.574	58.37
882.746	11.26
882.918	99.33
883.09	-5.12
883.262	50.18
883.434	33.79
883.606	-72.7
883.778	3.07
883.95	58.37
884.122	70.65
884.293	-7.17
884.465	17.41
884.637	52.22
884.809	-52.22
884.98	-3.07
885.152	74.75
885.324	-15.36
885.496	-11.26
885.667	-5.12
885.839	-3.07
886.011	50.18
886.182	1.02
886.354	107.52
886.525	5.12
886.697	54.27
886.869	-21.5
887.04	27.65
887.212	11.26
887.383	19.46
887.555	9.22
887.726	1.02
887.897	-13.31
888.069	41.98
888.24	41.98
888.412	-23.55
888.583	-31.74
888.754	-15.36
888.926	-52.22
889.097	93.18
889.268	-46.08
889.44	-23.55
889.611	-72.7
889.782	-13.31
889.953	-44.03
890.125	60.42
890.296	-35.84
890.467	25.6
890.638	7.17
890.809	27.65
890.98	-39.94
891.151	41.98
891.323	17.41
891.494	44.03
891.665	1.02
891.836	17.41
892.007	1.02
892.178	15.36
892.349	27.65
892.52	-44.03
892.691	25.6
892.862	-13.31
893.032	-13.31
893.203	-46.08
893.374	76.8
893.545	97.28
893.716	19.46
893.887	54.27
894.057	1.02
894.228	17.41
894.399	-11.26
894.57	74.75
894.74	29.7
894.911	29.7
895.082	54.27
895.253	-54.27
895.423	29.7
895.594	23.55
895.764	27.65
895.935	-19.46
896.106	107.52
896.276	-48.13
896.447	7.17
896.617	1.02
896.788	-31.74
896.958	-46.08
897.129	-29.7
897.299	-7.17
897.47	41.98
897.64	15.36
897.81	-33.79
897.981	5.12
898.151	25.6
898.322	-19.46
898.492	48.13
898.662	-3.07
898.832	33.79
899.003	-15.36
899.173	58.37
899.343	-31.74
899.513	-15.36
