Data from USB4F104151__58__14-43-11-280.txt Node

Date: Thu Mar 13 14:43:11 EDT 2025
User: louis
Spectrometer: USB4F10415
Trigger mode: 4
Integration Time (sec): 2.000000E-2
Scans to average: 1
Electric dark correction enabled: true
Nonlinearity correction enabled: false
Boxcar width: 0
XAxis mode: Wavelengths
Number of Pixels in Spectrum: 3648
>>>>>Begin Spectral Data<<<<<
178.204	-69.63
178.424	-69.63
178.644	-69.63
178.864	-178.17
179.084	-92.16
179.304	-38.91
179.524	8.19
179.744	-45.06
179.964	69.63
180.184	-28.67
180.404	20.48
180.624	-6.14
180.844	47.1
181.064	-47.1
181.283	-18.43
181.503	-32.77
181.723	71.68
181.943	-63.49
182.163	81.92
182.383	0
182.602	6.14
182.822	73.73
183.042	49.15
183.262	-12.29
183.482	4.1
183.701	45.06
183.921	-16.38
184.141	-8.19
184.361	57.34
184.58	-4.1
184.8	45.06
185.02	36.86
185.239	86.01
185.459	-36.86
185.679	49.15
185.898	-20.48
186.118	24.58
186.338	36.86
186.557	0
186.777	-6.14
186.997	63.49
187.216	26.62
187.436	59.39
187.655	28.67
187.875	22.53
188.095	14.34
188.314	94.21
188.534	30.72
188.753	-16.38
188.973	69.63
189.192	90.11
189.412	69.63
189.631	16.38
189.851	30.72
190.07	49.15
190.29	-55.3
190.509	-34.82
190.729	55.3
190.948	88.06
191.168	106.49
191.387	147.45
191.607	61.44
191.826	71.68
192.045	-51.2
192.265	30.72
192.484	53.25
192.704	90.11
192.923	26.62
193.142	120.83
193.362	-73.73
193.581	63.49
193.8	8.19
194.02	98.3
194.239	49.15
194.458	94.21
194.678	57.34
194.897	69.63
195.116	69.63
195.335	14.34
195.555	-24.58
195.774	20.48
195.993	69.63
196.212	18.43
196.432	-45.06
196.651	-28.67
196.87	-18.43
197.089	61.44
197.308	112.64
197.528	38.91
197.747	45.06
197.966	0
198.185	139.26
198.404	83.97
198.623	49.15
198.842	86.01
199.062	86.01
199.281	88.06
199.5	81.92
199.719	-38.91
199.938	49.15
200.157	65.54
200.376	26.62
200.595	16.38
200.814	28.67
201.033	-8.19
201.252	126.97
201.471	73.73
201.69	65.54
201.909	24.58
202.128	53.25
202.347	32.77
202.566	73.73
202.785	-4.1
203.004	-57.34
203.223	83.97
203.442	112.64
203.661	-20.48
203.879	53.25
204.098	124.93
204.317	-18.43
204.536	16.38
204.755	49.15
204.974	12.29
205.193	28.67
205.411	102.4
205.63	45.06
205.849	53.25
206.068	4.1
206.287	0
206.505	12.29
206.724	30.72
206.943	34.82
207.162	49.15
207.381	4.1
207.599	55.3
207.818	26.62
208.037	86.01
208.255	36.86
208.474	61.44
208.693	28.67
208.911	18.43
209.13	36.86
209.349	53.25
209.567	55.3
209.786	45.06
210.005	36.86
210.223	-8.19
210.442	-61.44
210.661	69.63
210.879	10.24
211.098	86.01
211.316	159.74
211.535	6.14
211.753	30.72
211.972	6.14
212.191	-40.96
212.409	40.96
212.628	45.06
212.846	38.91
213.065	69.63
213.283	118.78
213.502	124.93
213.72	-2.05
213.938	36.86
214.157	-45.06
214.375	45.06
214.594	0
214.812	-32.77
215.031	69.63
215.249	-2.05
215.467	61.44
215.686	-32.77
215.904	77.82
216.122	20.48
216.341	81.92
216.559	-4.1
216.778	98.3
216.996	145.41
217.214	6.14
217.432	22.53
217.651	73.73
217.869	55.3
218.087	22.53
218.306	63.49
218.524	-45.06
218.742	-32.77
218.96	81.92
219.179	28.67
219.397	57.34
219.615	77.82
219.833	92.16
220.051	69.63
220.27	83.97
220.488	63.49
220.706	-16.38
220.924	16.38
221.142	14.34
221.36	-20.48
221.578	69.63
221.796	-4.1
222.015	16.38
222.233	40.96
222.451	77.82
222.669	0
222.887	81.92
223.105	-106.49
223.323	55.3
223.541	12.29
223.759	88.06
223.977	49.15
224.195	53.25
224.413	63.49
224.631	57.34
224.849	36.86
225.067	151.55
225.285	-18.43
225.503	-26.62
225.721	20.48
225.939	20.48
226.157	12.29
226.375	143.36
226.592	14.34
226.81	26.62
227.028	69.63
227.246	86.01
227.464	-24.58
227.682	61.44
227.9	49.15
228.117	75.77
228.335	20.48
228.553	24.58
228.771	61.44
228.989	12.29
229.206	-4.1
229.424	0
229.642	51.2
229.86	40.96
230.077	61.44
230.295	-16.38
230.513	32.77
230.731	12.29
230.948	77.82
231.166	57.34
231.384	-22.53
231.601	61.44
231.819	14.34
232.037	-28.67
232.254	22.53
232.472	49.15
232.689	36.86
232.907	114.69
233.125	-22.53
233.342	49.15
233.56	67.58
233.777	61.44
233.995	24.58
234.213	94.21
234.43	49.15
234.648	153.6
234.865	71.68
235.083	38.91
235.3	77.82
235.518	86.01
235.735	-4.1
235.953	88.06
236.17	28.67
236.388	20.48
236.605	2.05
236.822	73.73
237.04	55.3
237.257	51.2
237.475	28.67
237.692	65.54
237.909	30.72
238.127	83.97
238.344	28.67
238.562	-81.92
238.779	-12.29
238.996	-24.58
239.214	-20.48
239.431	26.62
239.648	12.29
239.865	24.58
240.083	67.58
240.3	-73.73
240.517	45.06
240.735	-4.1
240.952	12.29
241.169	120.83
241.386	12.29
241.603	-4.1
241.821	-83.97
242.038	26.62
242.255	22.53
242.472	-4.1
242.689	114.69
242.907	139.26
243.124	40.96
243.341	6.14
243.558	77.82
243.775	8.19
243.992	8.19
244.209	22.53
244.426	65.54
244.643	18.43
244.86	73.73
245.078	49.15
245.295	43.01
245.512	16.38
245.729	40.96
245.946	40.96
246.163	45.06
246.38	-40.96
246.597	-2.05
246.814	153.6
247.031	-61.44
247.248	6.14
247.464	24.58
247.681	77.82
247.898	8.19
248.115	77.82
248.332	38.91
248.549	45.06
248.766	104.45
248.983	55.3
249.2	-8.19
249.417	53.25
249.633	-38.91
249.85	47.1
250.067	10.24
250.284	-6.14
250.501	26.62
250.717	94.21
250.934	57.34
251.151	16.38
251.368	36.86
251.585	94.21
251.801	-36.86
252.018	0
252.235	24.58
252.451	96.25
252.668	53.25
252.885	12.29
253.102	24.58
253.318	43.01
253.535	16.38
253.752	43.01
253.968	36.86
254.185	2.05
254.401	65.54
254.618	16.38
254.835	-16.38
255.051	69.63
255.268	104.45
255.484	32.77
255.701	79.87
255.917	47.1
256.134	-51.2
256.351	-8.19
256.567	67.58
256.784	-18.43
257	77.82
257.217	86.01
257.433	47.1
257.65	16.38
257.866	61.44
258.082	61.44
258.299	-20.48
258.515	49.15
258.732	6.14
258.948	-10.24
259.165	18.43
259.381	53.25
259.597	59.39
259.814	6.14
260.03	20.48
260.246	20.48
260.463	65.54
260.679	57.34
260.895	4.1
261.112	45.06
261.328	4.1
261.544	20.48
261.761	90.11
261.977	61.44
262.193	-12.29
262.409	6.14
262.626	67.58
262.842	20.48
263.058	-24.58
263.274	53.25
263.49	86.01
263.707	45.06
263.923	83.97
264.139	0
264.355	55.3
264.571	102.4
264.787	24.58
265.004	30.72
265.22	49.15
265.436	-2.05
265.652	-36.86
265.868	49.15
266.084	63.49
266.3	102.4
266.516	20.48
266.732	88.06
266.948	57.34
267.164	16.38
267.38	86.01
267.596	36.86
267.812	-4.1
268.028	75.77
268.244	-6.14
268.46	83.97
268.676	28.67
268.892	30.72
269.108	-2.05
269.324	90.11
269.54	26.62
269.756	59.39
269.972	-114.69
270.188	53.25
270.403	-83.97
270.619	20.48
270.835	-12.29
271.051	43.01
271.267	45.06
271.483	-53.25
271.698	63.49
271.914	79.87
272.13	-20.48
272.346	63.49
272.562	22.53
272.777	36.86
272.993	24.58
273.209	14.34
273.425	79.87
273.64	-18.43
273.856	61.44
274.072	38.91
274.287	-12.29
274.503	14.34
274.719	61.44
274.934	-28.67
275.15	-73.73
275.366	81.92
275.581	12.29
275.797	65.54
276.012	94.21
276.228	20.48
276.444	12.29
276.659	77.82
276.875	57.34
277.09	-2.05
277.306	53.25
277.521	71.68
277.737	32.77
277.952	63.49
278.168	14.34
278.383	61.44
278.599	18.43
278.814	-12.29
279.03	-14.34
279.245	63.49
279.461	12.29
279.676	86.01
279.892	-6.14
280.107	0
280.322	22.53
280.538	112.64
280.753	14.34
280.969	16.38
281.184	28.67
281.399	94.21
281.615	71.68
281.83	47.1
282.045	36.86
282.26	-28.67
282.476	-20.48
282.691	51.2
282.906	16.38
283.122	86.01
283.337	-40.96
283.552	36.86
283.767	-18.43
283.983	61.44
284.198	120.83
284.413	38.91
284.628	-4.1
284.843	73.73
285.058	49.15
285.274	36.86
285.489	36.86
285.704	32.77
285.919	57.34
286.134	20.48
286.349	-4.1
286.564	61.44
286.779	49.15
286.995	-4.1
287.21	55.3
287.425	65.54
287.64	-12.29
287.855	24.58
288.07	6.14
288.285	45.06
288.5	139.26
288.715	51.2
288.93	-4.1
289.145	6.14
289.36	-51.2
289.575	77.82
289.79	63.49
290.004	137.21
290.219	-30.72
290.434	20.48
290.649	-28.67
290.864	57.34
291.079	-12.29
291.294	69.63
291.509	51.2
291.724	36.86
291.938	65.54
292.153	55.3
292.368	32.77
292.583	55.3
292.798	47.1
293.012	104.45
293.227	94.21
293.442	-26.62
293.657	36.86
293.871	61.44
294.086	106.49
294.301	151.55
294.516	26.62
294.73	92.16
294.945	14.34
295.16	-2.05
295.374	20.48
295.589	88.06
295.804	-6.14
296.018	161.79
296.233	63.49
296.447	110.59
296.662	12.29
296.877	38.91
297.091	22.53
297.306	16.38
297.52	22.53
297.735	-8.19
297.949	8.19
298.164	8.19
298.378	-26.62
298.593	53.25
298.807	0
299.022	57.34
299.236	92.16
299.451	-32.77
299.665	-10.24
299.88	-4.1
300.094	20.48
300.309	77.82
300.523	83.97
300.737	24.58
300.952	16.38
301.166	47.1
301.381	45.06
301.595	55.3
301.809	61.44
302.024	20.48
302.238	28.67
302.452	38.91
302.667	-8.19
302.881	61.44
303.095	110.59
303.309	61.44
303.524	12.29
303.738	63.49
303.952	4.1
304.166	110.59
304.381	0
304.595	79.87
304.809	88.06
305.023	16.38
305.237	28.67
305.452	14.34
305.666	90.11
305.88	126.97
306.094	40.96
306.308	38.91
306.522	28.67
306.736	51.2
306.95	88.06
307.164	71.68
307.379	36.86
307.593	86.01
307.807	118.78
308.021	69.63
308.235	61.44
308.449	20.48
308.663	77.82
308.877	-12.29
309.091	-28.67
309.305	28.67
309.519	-12.29
309.733	69.63
309.947	4.1
310.161	40.96
310.374	-20.48
310.588	12.29
310.802	-18.43
311.016	24.58
311.23	12.29
311.444	-16.38
311.658	36.86
311.872	94.21
312.085	10.24
312.299	92.16
312.513	92.16
312.727	88.06
312.941	-24.58
313.154	-49.15
313.368	-12.29
313.582	77.82
313.796	88.06
314.009	63.49
314.223	4.1
314.437	49.15
314.651	-2.05
314.864	55.3
315.078	30.72
315.292	65.54
315.505	16.38
315.719	69.63
315.933	53.25
316.146	20.48
316.36	-4.1
316.573	47.1
316.787	79.87
317.001	36.86
317.214	49.15
317.428	40.96
317.641	-57.34
317.855	18.43
318.068	-20.48
318.282	102.4
318.495	53.25
318.709	63.49
318.922	38.91
319.136	73.73
319.349	90.11
319.563	16.38
319.776	6.14
319.99	38.91
320.203	94.21
320.417	38.91
320.63	-22.53
320.843	69.63
321.057	20.48
321.27	45.06
321.483	32.77
321.697	100.35
321.91	18.43
322.124	20.48
322.337	10.24
322.55	-36.86
322.763	53.25
322.977	36.86
323.19	22.53
323.403	28.67
323.617	63.49
323.83	79.87
324.043	94.21
324.256	12.29
324.469	-36.86
324.683	98.3
324.896	4.1
325.109	69.63
325.322	20.48
325.535	110.59
325.748	51.2
325.962	40.96
326.175	55.3
326.388	28.67
326.601	-8.19
326.814	40.96
327.027	36.86
327.24	77.82
327.453	-18.43
327.666	6.14
327.879	61.44
328.092	98.3
328.305	-12.29
328.518	14.34
328.731	-20.48
328.944	22.53
329.157	24.58
329.37	88.06
329.583	73.73
329.796	106.49
330.009	40.96
330.222	49.15
330.435	-2.05
330.648	100.35
330.861	61.44
331.073	40.96
331.286	53.25
331.499	57.34
331.712	20.48
331.925	79.87
332.138	8.19
332.35	14.34
332.563	-10.24
332.776	88.06
332.989	0
333.202	55.3
333.414	4.1
333.627	-12.29
333.84	36.86
334.053	36.86
334.265	53.25
334.478	57.34
334.691	55.3
334.903	36.86
335.116	12.29
335.329	-2.05
335.541	20.48
335.754	120.83
335.966	-4.1
336.179	86.01
336.392	16.38
336.604	69.63
336.817	28.67
337.029	28.67
337.242	-4.1
337.454	65.54
337.667	36.86
337.88	96.25
338.092	55.3
338.305	77.82
338.517	12.29
338.729	12.29
338.942	4.1
339.154	4.1
339.367	47.1
339.579	-12.29
339.792	77.82
340.004	-22.53
340.217	8.19
340.429	4.1
340.641	36.86
340.854	63.49
341.066	-6.14
341.278	77.82
341.491	55.3
341.703	57.34
341.915	18.43
342.128	12.29
342.34	55.3
342.552	12.29
342.764	49.15
342.977	18.43
343.189	38.91
343.401	131.07
343.613	10.24
343.826	20.48
344.038	57.34
344.25	8.19
344.462	45.06
344.674	28.67
344.886	55.3
345.099	-14.34
345.311	69.63
345.523	90.11
345.735	-43.01
345.947	55.3
346.159	12.29
346.371	24.58
346.583	8.19
346.795	77.82
347.007	12.29
347.219	45.06
347.431	-36.86
347.643	147.45
347.855	26.62
348.067	61.44
348.279	12.29
348.491	73.73
348.703	36.86
348.915	75.77
349.127	22.53
349.339	2.05
349.551	14.34
349.763	20.48
349.975	38.91
350.187	36.86
350.399	63.49
350.61	118.78
350.822	-8.19
351.034	88.06
351.246	90.11
351.458	94.21
351.669	53.25
351.881	104.45
352.093	67.58
352.305	-2.05
352.517	45.06
352.728	45.06
352.94	65.54
353.152	57.34
353.363	69.63
353.575	129.02
353.787	45.06
353.999	59.39
354.21	86.01
354.422	88.06
354.633	43.01
354.845	45.06
355.057	59.39
355.268	71.68
355.48	102.4
355.692	-24.58
355.903	32.77
356.115	14.34
356.326	81.92
356.538	102.4
356.749	110.59
356.961	53.25
357.172	55.3
357.384	51.2
357.595	131.07
357.807	88.06
358.018	22.53
358.23	114.69
358.441	79.87
358.653	69.63
358.864	6.14
359.075	2.05
359.287	86.01
359.498	77.82
359.709	32.77
359.921	-12.29
360.132	45.06
360.344	30.72
360.555	-4.1
360.766	-26.62
360.977	14.34
361.189	38.91
361.4	43.01
361.611	73.73
361.823	69.63
362.034	49.15
362.245	12.29
362.456	81.92
362.667	40.96
362.879	73.73
363.09	112.64
363.301	40.96
363.512	83.97
363.723	47.1
363.935	-28.67
364.146	96.25
364.357	-10.24
364.568	-26.62
364.779	-12.29
364.99	110.59
365.201	-57.34
365.412	14.34
365.623	12.29
365.834	47.1
366.045	79.87
366.256	12.29
366.467	20.48
366.678	65.54
366.889	28.67
367.1	16.38
367.311	77.82
367.522	26.62
367.733	30.72
367.944	14.34
368.155	16.38
368.366	63.49
368.577	81.92
368.788	135.17
368.999	-12.29
369.209	63.49
369.42	131.07
369.631	100.35
369.842	65.54
370.053	-32.77
370.264	86.01
370.474	45.06
370.685	106.49
370.896	6.14
371.107	4.1
371.317	-4.1
371.528	18.43
371.739	73.73
371.95	47.1
372.16	86.01
372.371	34.82
372.582	-2.05
372.792	122.88
373.003	88.06
373.214	45.06
373.424	40.96
373.635	16.38
373.846	139.26
374.056	75.77
374.267	81.92
374.477	32.77
374.688	69.63
374.898	96.25
375.109	143.36
375.319	6.14
375.53	69.63
375.74	30.72
375.951	36.86
376.161	88.06
376.372	118.78
376.582	-88.06
376.793	-16.38
377.003	6.14
377.214	14.34
377.424	102.4
377.635	28.67
377.845	0
378.055	86.01
378.266	38.91
378.476	36.86
378.686	98.3
378.897	110.59
379.107	71.68
379.317	77.82
379.528	81.92
379.738	32.77
379.948	49.15
380.158	22.53
380.369	-4.1
380.579	77.82
380.789	-20.48
380.999	77.82
381.21	63.49
381.42	86.01
381.63	112.64
381.84	217.08
382.05	126.97
382.261	120.83
382.471	36.86
382.681	53.25
382.891	116.73
383.101	69.63
383.311	57.34
383.521	4.1
383.731	61.44
383.941	69.63
384.151	61.44
384.361	32.77
384.571	110.59
384.781	26.62
384.991	133.12
385.201	102.4
385.411	102.4
385.621	63.49
385.831	96.25
386.041	120.83
386.251	30.72
386.461	18.43
386.671	14.34
386.881	67.58
387.091	63.49
387.301	135.17
387.511	12.29
387.72	63.49
387.93	47.1
388.14	63.49
388.35	83.97
388.56	120.83
388.769	77.82
388.979	53.25
389.189	16.38
389.399	16.38
389.609	20.48
389.818	63.49
390.028	69.63
390.238	22.53
390.447	18.43
390.657	-10.24
390.867	75.77
391.076	16.38
391.286	45.06
391.496	98.3
391.705	77.82
391.915	67.58
392.125	118.78
392.334	0
392.544	104.45
392.753	16.38
392.963	24.58
393.172	53.25
393.382	22.53
393.591	114.69
393.801	34.82
394.01	120.83
394.22	81.92
394.429	94.21
394.639	61.44
394.848	129.02
395.058	104.45
395.267	71.68
395.477	94.21
395.686	112.64
395.895	159.74
396.105	163.84
396.314	108.54
396.524	163.84
396.733	63.49
396.942	135.17
397.152	126.97
397.361	129.02
397.57	145.41
397.78	167.93
397.989	83.97
398.198	131.07
398.407	100.35
398.617	106.49
398.826	55.3
399.035	86.01
399.244	75.77
399.453	81.92
399.663	159.74
399.872	124.93
400.081	49.15
400.29	110.59
400.499	83.97
400.708	129.02
400.917	104.45
401.127	145.41
401.336	104.45
401.545	143.36
401.754	151.55
401.963	139.26
402.172	79.87
402.381	20.48
402.59	108.54
402.799	118.78
403.008	86.01
403.217	81.92
403.426	155.65
403.635	118.78
403.844	149.5
404.053	131.07
404.262	126.97
404.471	178.17
404.68	149.5
404.888	159.74
405.097	153.6
405.306	126.97
405.515	79.87
405.724	96.25
405.933	131.07
406.142	137.21
406.35	188.41
406.559	159.74
406.768	194.56
406.977	245.76
407.185	225.28
407.394	217.08
407.603	264.19
407.812	241.66
408.02	129.02
408.229	200.7
408.438	215.04
408.646	241.66
408.855	206.84
409.064	317.44
409.272	348.15
409.481	239.61
409.69	221.18
409.898	352.25
410.107	266.24
410.315	229.37
410.524	260.09
410.733	292.86
410.941	276.48
411.15	401.4
411.358	374.78
411.567	370.68
411.775	401.4
411.984	294.91
412.192	446.46
412.401	362.49
412.609	399.35
412.818	491.51
413.026	440.31
413.234	503.8
413.443	454.65
413.651	462.84
413.86	475.13
414.068	645.11
414.276	589.82
414.485	511.99
414.693	634.87
414.901	724.98
415.11	630.77
415.318	620.53
415.526	698.36
415.734	641.01
415.943	661.49
416.151	817.14
416.359	880.63
416.567	825.33
416.776	923.63
416.984	827.38
417.192	897.01
417.4	874.48
417.608	899.06
417.817	841.72
418.025	991.22
418.233	1120.24
418.441	1056.75
418.649	993.26
418.857	1267.69
419.065	1212.4
419.273	1167.34
419.481	1245.17
419.689	1384.43
419.897	1445.87
420.105	1464.3
420.313	1427.43
420.521	1507.31
420.729	1445.87
420.937	1589.22
421.145	1607.66
421.353	1660.9
421.561	1703.91
421.769	1736.68
421.977	1857.51
422.185	1796.07
422.393	1945.57
422.601	2093.02
422.809	1953.76
423.017	1966.05
423.224	2133.98
423.432	2250.72
423.64	2277.34
423.848	2416.6
424.056	2383.84
424.263	2521.05
424.471	2568.15
424.679	2584.54
424.887	2664.41
425.094	2922.45
425.302	2775
425.51	2965.46
425.718	3008.47
425.925	2959.31
426.133	3352.52
426.341	3315.66
426.548	3469.26
426.756	3553.23
426.964	3551.18
427.171	3643.34
427.379	3905.48
427.586	3966.92
427.794	4104.13
428.001	4186.05
428.209	4394.94
428.417	4327.36
428.624	4583.35
428.832	4708.28
429.039	4665.27
429.247	4749.24
429.454	5164.98
429.662	5332.91
429.869	4997.04
430.076	5445.55
430.284	5175.22
430.491	5492.65
430.699	5740.46
430.906	5730.22
431.114	5812.14
431.321	6059.94
431.528	6213.54
431.736	6576.03
431.943	6713.24
432.15	6623.13
432.358	6698.91
432.565	7253.91
432.772	7098.26
432.979	7262.1
433.187	7591.82
433.394	7759.75
433.601	8245.12
433.808	8341.38
434.016	8134.53
434.223	8306.56
434.43	8904.57
434.637	8830.84
434.844	9162.61
435.052	9406.32
435.259	9500.53
435.466	9574.25
435.673	9375.6
435.88	10071.91
436.087	10559.33
436.294	10628.96
436.501	10264.42
436.708	10669.92
436.915	10809.18
437.122	11423.57
437.329	11251.54
437.537	11675.47
437.743	12029.77
437.95	11734.86
438.157	12431.17
438.364	12728.13
438.571	12570.43
438.778	12836.67
438.985	13909.8
439.192	13627.18
439.399	13961
439.606	13764.4
439.813	14483.23
440.02	15333.14
440.227	14923.55
440.433	14767.9
440.64	15347.48
440.847	15200.02
441.054	15533.84
441.261	16496.39
441.467	16486.15
441.674	16631.55
441.881	17237.75
442.088	17094.4
442.294	17135.35
442.501	17501.94
442.708	17704.69
442.914	18702.05
443.121	19451.61
443.328	18964.19
443.534	20213.45
443.741	19547.86
443.948	19394.26
444.154	21067.45
444.361	20774.59
444.568	20821.7
444.774	20764.36
444.981	20819.65
445.187	21331.64
445.394	22367.91
445.6	22077.1
445.807	24284.81
446.013	23146.14
446.22	23457.43
446.426	24571.53
446.633	24778.37
446.839	25810.55
447.046	24565.39
447.252	26197.62
447.459	26099.31
447.665	25812.6
447.871	27166.31
448.078	28239.44
448.284	26984.04
448.491	27887.19
448.697	28751.43
448.903	29498.94
449.11	29460.03
449.316	28821.06
449.522	29312.58
449.728	30281.27
449.935	30527.02
450.141	30395.95
450.347	30983.72
450.553	30266.93
450.76	30375.47
450.966	31594.01
451.172	31252
451.378	32159.25
451.584	31720.99
451.791	32169.49
451.997	32331.28
452.203	32722.44
452.409	32648.72
452.615	32435.73
452.821	31524.38
453.027	30924.33
453.233	32531.98
453.44	31620.64
453.646	31921.69
453.852	31608.35
454.058	32493.07
454.264	31524.38
454.47	32263.7
454.676	31082.02
454.882	32394.77
455.088	29824.57
455.294	29996.6
455.5	30477.87
455.705	30967.34
455.911	29679.16
456.117	29275.71
456.323	28800.58
456.529	27237.98
456.735	28776.01
456.941	27983.44
457.147	27430.49
457.352	26351.21
457.558	26443.37
457.764	26259.06
457.97	26187.38
458.176	25118.34
458.381	25296.51
458.587	24043.15
458.793	24276.62
458.999	22728.36
459.204	24573.58
459.41	24104.59
459.616	22302.38
459.821	22345.39
460.027	22339.24
460.233	21735.09
460.438	20836.03
460.644	21200.57
460.85	19979.98
461.055	19830.48
461.261	19590.87
461.466	18310.89
461.672	17573.62
461.878	18929.38
462.083	17553.14
462.289	17417.97
462.494	17331.96
462.7	16449.28
462.905	15673.1
463.111	16537.35
463.316	16500.48
463.522	16224.01
463.727	16191.24
463.932	16056.07
464.138	15955.72
464.343	15955.72
464.549	15597.33
464.754	15941.39
464.959	15773.46
465.165	15552.27
465.37	15292.18
465.575	14507.81
465.781	15343.38
465.986	15488.79
466.191	14722.85
466.397	14518.05
466.602	13918
466.807	14538.53
467.012	14337.83
467.218	14266.15
467.423	14188.33
467.628	13903.66
467.833	15054.62
468.038	14300.97
468.244	13565.74
468.449	14391.08
468.654	14018.35
468.859	13965.1
469.064	13547.31
469.269	13242.17
469.474	13496.11
469.679	13684.53
469.885	13098.81
470.09	13334.32
470.295	13500.21
470.5	13000.51
470.705	13176.63
470.91	12783.42
471.115	12859.2
471.32	12986.17
471.525	12816.19
471.73	12660.54
471.935	12259.14
472.139	11827.02
472.344	12070.73
472.549	12003.14
472.754	12216.13
472.959	11915.08
473.164	11411.28
473.369	11378.51
473.574	11673.42
473.778	11593.55
473.983	11591.5
474.188	11544.4
474.393	10970.97
474.598	10999.64
474.802	10950.49
475.007	10717.02
475.212	10760.03
475.417	10526.56
475.621	10370.91
475.826	10757.98
476.031	10213.22
476.235	10035.05
476.44	10194.79
476.645	9969.51
476.849	10274.66
477.054	9942.89
477.259	9973.61
477.463	9656.17
477.668	9559.92
477.872	9734
478.077	9336.69
478.282	9236.34
478.486	9179
478.691	9131.89
478.895	9232.24
479.1	8949.62
479.304	8978.29
479.509	8890.23
479.713	9097.08
479.918	9002.87
480.122	8642.43
480.326	8718.2
480.531	8808.31
480.735	8755.07
480.94	8482.69
481.144	8744.83
481.348	8556.41
481.553	8521.6
481.757	8304.51
481.961	8454.01
482.166	8515.45
482.37	8476.54
482.574	8249.22
482.778	8228.74
482.983	8361.86
483.187	8335.23
483.391	8195.97
483.595	8505.21
483.8	8322.94
484.004	8449.92
484.208	8523.65
484.412	8314.75
484.616	8300.42
484.821	8234.88
485.025	8195.97
485.229	8343.42
485.433	8275.84
485.637	8439.68
485.841	8386.43
486.045	8384.38
486.249	8277.89
486.453	8265.6
486.657	8269.7
486.861	8398.72
487.065	8069
487.269	8374.14
487.473	8124.29
487.677	8429.44
487.881	8314.75
488.085	8443.78
488.289	8327.04
488.493	8253.31
488.697	8294.27
488.901	8464.25
489.105	8236.93
489.309	8322.94
489.512	8425.34
489.716	8411.01
489.92	8419.2
490.124	8308.61
490.328	8454.01
490.531	8421.25
490.735	8492.93
490.939	8619.9
491.143	8699.77
491.346	8492.93
491.55	8789.88
491.754	8630.14
491.958	8748.92
492.161	8638.33
492.365	8925.05
492.569	8679.29
492.772	8867.7
492.976	8888.18
493.18	8855.42
493.383	8927.1
493.587	9017.21
493.79	9164.66
493.994	9066.36
494.197	9113.46
494.401	9250.67
494.605	9115.51
494.808	9387.89
495.012	9404.27
495.215	9494.38
495.419	9518.96
495.622	9181.04
495.825	9676.65
496.029	9492.34
496.232	9879.4
496.436	9764.71
496.639	10043.24
496.843	9903.98
497.046	9998.18
497.249	10368.87
497.453	10282.85
497.656	10426.21
497.859	10405.73
498.063	10506.08
498.266	10932.06
498.469	10798.94
498.673	10862.43
498.876	10800.99
499.079	11239.25
499.282	10813.27
499.485	11439.95
499.689	11480.91
499.892	11597.65
500.095	11581.26
500.298	12056.39
500.501	11743.05
500.705	12185.41
500.908	12336.96
501.111	12222.28
501.314	12445.51
501.517	12562.24
501.72	12605.25
501.923	12865.34
502.126	12916.54
502.329	13053.75
502.532	13096.76
502.735	13203.25
502.938	13410.1
503.141	13496.11
503.344	13754.16
503.547	14114.6
503.75	14112.55
503.953	14270.25
504.156	14550.82
504.359	14364.45
504.562	14618.4
504.765	14980.89
504.968	14911.26
505.17	15066.91
505.373	15204.12
505.576	15523.6
505.779	15660.82
505.982	15814.41
506.185	16107.27
506.387	16084.75
506.59	16346.89
506.793	16563.97
506.996	16520.96
507.198	16865.02
507.401	16789.25
507.604	17141.5
507.807	17460.98
508.009	17518.32
508.212	17493.75
508.415	17895.15
508.617	18190.06
508.82	18224.87
509.022	18181.87
509.225	18487.01
509.428	18515.69
509.63	18757.35
509.833	19017.44
510.035	19535.57
510.238	19179.23
510.44	19447.51
510.643	20063.95
510.845	19988.17
511.048	20002.51
511.25	20362.95
511.453	20457.16
511.655	20993.73
511.858	20917.95
512.06	20852.42
512.262	21253.82
512.465	21221.05
512.667	21722.8
512.87	21894.83
513.072	22130.35
513.274	22363.82
513.477	22824.61
513.679	22628.01
513.881	23082.66
514.084	23096.99
514.286	22935.2
514.488	23219.87
514.69	24086.16
514.893	24057.49
515.095	24180.37
515.297	24426.12
515.499	24446.6
515.701	24610.44
515.904	25310.85
516.106	25667.19
516.308	25204.35
516.51	25777.78
516.712	25749.11
516.914	26414.7
517.116	26250.86
517.318	26291.82
517.52	26650.22
517.722	26711.66
517.925	27039.33
518.127	27063.91
518.329	27690.59
518.531	27561.56
518.733	28137.04
518.935	28474.96
519.136	28294.74
519.338	28718.67
519.54	28769.86
519.742	29158.98
519.944	29247.04
520.146	29556.28
520.348	29902.39
520.55	30250.55
520.752	29869.62
520.954	30645.8
521.155	30551.6
521.357	30924.33
521.559	31168.04
521.761	31174.18
521.963	31749.66
522.164	31501.86
522.366	31716.89
522.568	31944.22
522.77	32230.93
522.971	32628.24
523.173	32243.22
523.375	32718.35
523.576	32728.59
523.778	33027.59
523.98	33377.79
524.181	33328.64
524.383	33431.04
524.584	33783.29
524.786	33828.35
524.988	33777.15
525.189	34399.73
525.391	34170.36
525.592	34864.62
525.794	34543.09
525.995	34883.05
526.197	34891.24
526.398	34944.49
526.6	35225.06
526.801	35128.81
527.003	35339.75
527.204	35526.11
527.406	35880.41
527.607	35343.84
527.808	36154.84
528.01	35753.44
528.211	35864.03
528.412	36875.73
528.614	36494.8
528.815	36496.85
529.016	36627.92
529.218	36873.68
529.419	36750.8
529.62	36640.21
529.822	36627.92
530.023	36492.76
530.224	36443.6
530.425	37115.34
530.626	36994.51
530.828	36758.99
531.029	37465.54
531.23	37049.8
531.431	36752.85
531.632	37131.72
531.833	37283.27
532.035	37371.33
532.236	37680.58
532.437	37412.29
532.638	37127.63
532.839	37584.32
533.04	37604.8
533.241	37023.18
533.442	37830.08
533.643	37479.88
533.844	37733.82
534.045	37682.62
534.246	37455.3
534.447	37914.05
534.648	37768.64
534.849	37590.47
535.05	37653.95
535.251	37383.62
535.451	37572.03
535.652	37973.44
535.853	37694.91
536.054	37488.07
536.255	37668.29
536.456	37344.71
536.657	38477.24
536.857	37639.62
537.058	37215.69
537.259	38124.99
537.46	37789.12
537.66	37602.75
537.861	37838.27
538.062	37660.1
538.263	37873.09
538.463	37418.44
538.664	37604.8
538.865	37742.02
539.065	37809.6
539.266	37555.65
539.466	38131.13
539.667	37291.46
539.868	38249.91
540.068	37914.05
540.269	37600.71
540.469	37838.27
540.67	37539.27
540.87	37731.78
541.071	37623.23
541.271	37924.29
541.472	37414.34
541.672	37201.35
541.873	37592.51
542.073	37316.04
542.274	37766.59
542.474	37443.01
542.675	37084.62
542.875	37742.02
543.075	37510.6
543.276	36955.6
543.476	37905.85
543.676	37610.95
543.877	37432.77
544.077	37529.03
544.277	37559.75
544.478	37213.64
544.678	37377.48
544.878	37195.21
545.078	37473.73
545.279	36928.97
545.479	37361.09
545.679	37672.39
545.879	36885.97
546.079	37705.15
546.28	37379.53
546.48	37121.48
546.68	37223.88
546.88	37354.95
547.08	37420.49
547.28	37086.67
547.48	36816.33
547.68	36890.06
547.88	36890.06
548.081	37719.49
548.281	36906.44
548.481	37160.39
548.681	37307.85
548.881	37193.16
549.081	36961.74
549.28	36754.9
549.48	37062.09
549.68	36998.6
549.88	37518.79
550.08	37010.89
550.28	37012.94
550.48	36840.91
550.68	37313.99
550.88	36763.09
551.08	37230.02
551.279	37070.28
551.479	37262.79
551.679	36847.05
551.879	36560.34
552.079	37230.02
552.278	36777.42
552.478	37103.05
552.678	36765.13
552.878	37060.04
553.077	36986.32
553.277	36607.44
553.477	36953.55
553.676	36857.29
553.876	36781.52
554.076	36902.35
554.275	36408.79
554.475	36734.42
554.674	36695.5
554.874	36658.64
555.074	36423.12
555.273	36732.37
555.473	36662.74
555.672	35937.76
555.872	36603.35
556.071	36480.47
556.271	36605.39
556.47	36226.52
556.67	35771.87
556.869	35999.19
557.068	36263.38
557.268	35993.05
557.467	36476.37
557.667	36404.69
557.866	36210.14
558.065	36521.43
558.265	35923.42
558.464	36156.89
558.663	36455.89
558.863	35792.35
559.062	36558.29
559.261	35436
559.461	36142.55
559.66	35667.42
559.859	35489.25
560.058	35757.53
560.258	35724.77
560.457	34993.64
560.656	35710.43
560.855	34977.26
561.054	35667.42
561.253	35108.33
561.453	35378.66
561.652	35116.52
561.851	35495.39
562.05	34825.71
562.249	35003.88
562.448	35268.07
562.647	35429.86
562.846	34813.42
563.045	34973.16
563.244	34381.3
563.443	34872.81
563.642	34250.23
563.841	34469.36
564.04	34532.85
564.239	35081.7
564.438	34727.41
564.637	34569.71
564.836	34577.9
565.035	34174.45
565.234	34276.85
565.432	34223.61
565.631	34027
565.83	34266.61
566.029	33818.11
566.228	34123.26
566.427	33742.33
566.625	33867.26
566.824	33390.08
567.023	33723.9
567.222	33379.84
567.42	33947.13
567.619	33596.93
567.818	33531.39
568.016	33381.89
568.215	33285.64
568.414	33261.06
568.612	33725.95
568.811	33072.65
569.01	32966.15
569.208	32976.39
569.407	33142.28
569.605	32636.43
569.804	33412.61
570.002	32609.81
570.201	32837.13
570.4	32378.39
570.598	32316.95
570.797	32202.26
570.995	32411.15
571.193	32112.15
571.392	32341.52
571.59	31901.21
571.789	31858.2
571.987	32187.92
572.186	32189.97
572.384	31753.76
572.582	31514.14
572.781	31831.58
572.979	31473.18
573.177	31585.82
573.376	31471.14
573.574	31274.53
573.772	31458.85
573.971	31086.12
574.169	31311.39
574.367	30821.93
574.565	30991.91
574.763	31051.3
574.962	30750.25
575.16	30533.17
575.358	30701.1
575.556	30447.15
575.754	30836.27
575.952	30320.18
576.151	30768.68
576.349	30330.42
576.547	30295.6
576.745	30406.19
576.943	30043.7
577.141	29988.41
577.339	29980.21
577.537	30193.2
577.735	29615.68
577.933	29865.53
578.131	30060.09
578.329	29832.76
578.527	29736.51
578.725	29261.38
578.923	29683.26
579.121	29210.18
579.319	29480.51
579.516	29371.97
579.714	29095.49
579.912	29052.48
580.11	29154.88
580.308	28841.54
580.506	28839.5
580.704	28544.59
580.901	28980.81
581.099	28888.65
581.297	28423.76
581.495	28446.29
581.692	28384.85
581.89	27948.63
582.088	28622.41
582.285	28151.38
582.483	28503.63
582.681	28188.24
582.878	27924.05
583.076	27616.86
583.274	28309.07
583.471	27702.87
583.669	27983.44
583.866	27293.28
584.064	27577.95
584.262	27473.5
584.459	27745.88
584.657	27125.35
584.854	27397.73
585.052	26900.07
585.249	27367.01
585.447	27231.84
585.644	26873.45
585.841	26934.88
586.039	27338.33
586.236	26869.35
586.434	26244.72
586.631	26549.87
586.828	26574.44
587.026	26775.14
587.223	26424.94
587.42	26300.01
587.618	26558.06
587.815	25947.76
588.012	26011.25
588.21	25869.94
588.407	26156.66
588.604	26158.7
588.801	25763.45
588.999	25763.45
589.196	25831.03
589.393	26109.55
589.59	25724.54
589.787	25474.68
589.984	25687.67
590.182	25286.27
590.379	25472.64
590.576	25429.63
590.773	25095.81
590.97	24958.6
591.167	25368.19
591.364	24596.1
591.561	24979.07
591.758	24651.4
591.955	24575.62
592.152	24950.4
592.349	24737.41
592.546	24600.2
592.743	24688.26
592.94	24462.99
593.137	24422.03
593.334	24147.6
593.531	24147.6
593.727	24422.03
593.924	24297.1
594.121	23731.86
594.318	23991.95
594.515	23600.79
594.712	23912.08
594.908	23697.05
595.105	23414.43
595.302	23520.92
595.499	23565.98
595.696	23815.83
595.892	23539.35
596.089	23408.28
596.286	23305.88
596.482	23041.7
596.679	23199.39
596.876	22761.12
597.072	23043.74
597.269	23301.79
597.466	22857.38
597.662	22763.17
597.859	22734.5
598.055	22781.6
598.252	22525.61
598.448	22836.9
598.645	22529.7
598.841	21950.13
599.038	22288.04
599.234	22161.07
599.431	21886.64
599.627	22007.47
599.824	22152.88
600.02	21747.38
600.217	22161.07
600.413	21804.72
600.609	21800.63
600.806	21624.5
601.002	21868.21
601.198	21665.46
601.395	21726.9
601.591	21331.64
601.787	21438.14
601.984	21530.3
602.18	21677.75
602.376	21286.59
602.572	21296.83
602.769	21046.97
602.965	20598.47
603.161	21038.78
603.357	20821.7
603.553	20960.96
603.75	20827.84
603.946	20586.18
604.142	20684.48
604.338	20438.73
604.534	20614.85
604.73	20405.96
604.926	20027.09
605.122	20516.55
605.318	20412.1
605.514	20168.4
605.71	20248.27
605.906	20106.96
606.102	19838.67
606.298	20162.25
606.494	19928.78
606.69	19953.36
606.886	20281.03
607.082	19521.24
607.278	19752.66
607.474	19396.31
607.67	19850.96
607.866	19508.95
608.062	19715.8
608.257	19463.89
608.453	19590.87
608.649	19750.61
608.845	19295.96
609.041	19226.33
609.236	19472.09
609.432	19343.06
609.628	19130.08
609.824	19205.85
610.019	19148.51
610.215	19447.51
610.411	19001.05
610.606	18822.88
610.802	19160.8
610.998	18806.5
611.193	18919.14
611.389	18847.46
611.584	18720.48
611.78	18495.21
611.976	19042.01
612.171	18677.47
612.367	18628.32
612.562	18398.95
612.758	18335.46
612.953	18644.71
613.149	18679.52
613.344	18241.26
613.539	18609.89
613.735	18439.91
613.93	18161.39
614.126	18468.58
614.321	18659.04
614.517	18413.29
614.712	18177.77
614.907	18147.05
615.103	18433.77
615.298	18226.92
615.493	18151.15
615.688	17878.77
615.884	18523.88
616.079	18048.75
616.274	18001.65
616.47	17958.64
616.665	18052.84
616.86	17796.85
617.055	17829.62
617.25	17721.07
617.445	17948.4
617.641	17389.3
617.836	17792.75
618.031	17219.32
618.226	17590
618.421	17428.21
618.616	17815.28
618.811	17078.01
619.006	17526.52
619.201	17096.44
619.396	17139.45
619.591	16867.07
619.786	17166.07
619.981	16596.74
620.176	17262.33
620.371	16905.98
620.566	16969.47
620.761	16785.15
620.956	16719.62
621.151	16359.17
621.346	16725.76
621.541	16338.69
621.735	16578.31
621.93	16183.05
622.125	16244.49
622.32	15947.53
622.515	16123.66
622.709	15767.31
622.904	16252.68
623.099	15699.73
623.294	15951.63
623.488	15505.17
623.683	15834.89
623.878	15230.74
624.072	15361.81
624.267	15519.51
624.462	15306.52
624.656	14970.65
624.851	15204.12
625.046	15007.51
625.24	14677.79
625.435	14690.08
625.629	14761.76
625.824	14608.16
626.018	14786.33
626.213	14429.99
626.407	14536.48
626.602	14210.86
626.796	14360.36
626.991	14257.96
627.185	14055.21
627.38	13991.72
627.574	13793.07
627.768	13782.83
627.963	13846.32
628.157	13719.34
628.352	13766.45
628.546	13514.55
628.74	13588.27
628.935	13621.04
629.129	13557.55
629.323	13168.44
629.517	13438.77
629.712	13305.65
629.906	12857.15
630.1	12730.17
630.294	13084.47
630.489	12742.46
630.683	12887.87
630.877	12873.53
631.071	12803.9
631.265	12701.5
631.459	12597.06
631.653	12572.48
631.848	12519.23
632.042	12293.96
632.236	12361.54
632.43	12269.38
632.624	12545.86
632.818	12128.07
633.012	11908.94
633.206	12017.48
633.4	11829.07
633.594	11745.1
633.788	12083.02
633.982	11718.48
634.176	11722.57
634.369	11683.66
634.563	11605.84
634.757	11579.22
634.951	11458.39
635.145	11392.85
635.339	11343.7
635.533	11235.16
635.726	11106.13
635.92	11151.19
636.114	11054.94
636.308	10932.06
636.501	10981.21
636.695	11030.36
636.889	11063.13
637.083	10774.36
637.276	10751.84
637.47	10747.74
637.664	10557.28
637.857	10753.88
638.051	10573.66
638.244	10274.66
638.438	10508.13
638.632	10192.74
638.825	10202.98
639.019	10252.13
639.212	10157.92
639.406	10309.47
639.599	10049.38
639.793	9891.69
639.986	9887.59
640.18	9772.91
640.373	9961.32
640.567	9764.71
640.76	9709.42
640.954	9717.61
641.147	9627.5
641.34	9590.64
641.534	9592.69
641.727	9451.38
641.92	9320.31
642.114	9314.16
642.307	9297.78
642.5	9394.03
642.694	9230.2
642.887	9256.82
643.08	9113.46
643.273	9119.6
643.467	9115.51
643.66	9017.21
643.853	9058.17
644.046	8763.26
644.239	8908.66
644.432	8970.1
644.626	8750.97
644.819	8822.65
645.012	8656.76
645.205	8662.91
645.398	8703.87
645.591	8458.11
645.784	8519.55
645.977	8337.28
646.17	8589.18
646.363	8435.58
646.556	8425.34
646.749	8306.56
646.942	8069
647.135	8132.48
647.328	8200.07
647.521	8081.28
647.714	7913.35
647.907	8038.28
648.099	8060.8
648.292	7942.02
648.485	8017.8
648.678	7755.66
648.871	7706.51
649.064	7718.79
649.256	7782.28
649.449	7573.39
649.642	7720.84
649.835	7659.4
650.027	7597.96
650.22	7524.24
650.413	7438.22
650.605	7536.53
650.798	7434.13
650.991	7327.63
651.183	7401.36
651.376	7075.73
651.568	7153.55
651.761	7155.6
651.954	7141.27
652.146	7184.27
652.339	7126.93
652.531	7188.37
652.724	6961.05
652.916	7065.49
653.109	6881.18
653.301	7075.73
653.494	7008.15
653.686	6690.71
653.879	6791.06
654.071	6709.15
654.263	6737.82
654.456	6633.37
654.648	6690.71
654.84	6688.67
655.033	6639.51
655.225	6510.49
655.417	6549.4
655.61	6487.97
655.802	6576.03
655.994	6309.79
656.186	6395.81
656.379	6287.26
656.571	6442.91
656.763	6258.59
656.955	6297.5
657.148	6264.74
657.34	6158.24
657.532	6170.53
657.724	6053.8
657.916	6035.36
658.108	6074.28
658.3	5799.85
658.492	5881.77
658.684	5967.78
658.876	5894.05
659.068	5732.26
659.26	5963.69
659.452	5756.84
659.644	5812.14
659.836	5824.42
660.028	5636.01
660.22	5754.79
660.412	5652.39
660.604	5674.92
660.796	5578.67
660.988	5668.78
661.18	5427.12
661.372	5453.74
661.563	5392.3
661.755	5404.59
661.947	5511.08
662.139	5222.32
662.331	5283.76
662.522	5361.58
662.714	5255.09
662.906	5214.13
663.097	5232.56
663.289	5224.37
663.481	5255.09
663.673	5148.59
663.864	5097.39
664.056	5193.65
664.247	5066.67
664.439	5044.15
664.631	4972.47
664.822	5099.44
665.014	4755.38
665.205	4904.89
665.397	4966.32
665.588	4888.5
665.78	4888.5
665.971	4734.9
666.163	4972.47
666.354	4786.1
666.546	4773.82
666.737	4833.21
666.929	4708.28
667.12	4839.35
667.311	4640.7
667.503	4759.48
667.694	4677.56
667.885	4726.71
668.077	4661.18
668.268	4534.2
668.459	4542.39
668.651	4394.94
668.842	4526.01
669.033	4437.95
669.224	4405.18
669.416	4556.73
669.607	4274.11
669.798	4325.31
669.989	4415.42
670.18	4388.8
670.371	4353.98
670.563	4280.25
670.754	4372.41
670.945	4218.82
671.136	4272.06
671.327	4134.85
671.518	4231.1
671.709	4239.3
671.9	4247.49
672.091	4224.96
672.282	4014.02
672.473	3950.53
672.664	4102.08
672.855	4075.46
673.046	4026.31
673.237	3948.48
673.428	3960.77
673.619	4042.69
673.809	3887.04
674	4067.27
674.191	3856.33
674.382	3835.85
674.573	3837.89
674.764	3715.02
674.954	3829.7
675.145	3858.37
675.336	3882.95
675.527	3690.44
675.717	3760.07
675.908	3694.54
676.099	3790.79
676.289	3751.88
676.48	3907.52
676.671	3567.56
676.861	3790.79
677.052	3618.76
677.243	3731.4
677.433	3659.72
677.624	3747.78
677.814	3618.76
678.005	3694.54
678.195	3698.63
678.386	3592.14
678.576	3608.52
678.767	3461.07
678.957	3499.98
679.148	3559.37
679.338	3532.75
679.529	3575.75
679.719	3510.22
679.909	3518.41
680.1	3518.41
680.29	3231.69
680.481	3239.89
680.671	3360.72
680.861	3383.24
681.052	3495.88
681.242	3383.24
681.432	3278.8
681.622	3307.47
681.813	3203.02
682.003	3332.05
682.193	3233.74
682.383	3336.14
682.573	3162.06
682.764	3203.02
682.954	3246.03
683.144	3196.88
683.334	3262.41
683.524	3231.69
683.714	3162.06
683.904	3231.69
684.094	3125.2
684.284	3078.1
684.474	3153.87
684.664	3211.22
684.854	3143.63
685.044	3153.87
685.234	3084.24
685.424	3110.86
685.614	3129.3
685.804	3039.19
685.994	3133.39
686.184	3008.47
686.374	3063.76
686.564	2949.08
686.753	3010.51
686.943	3002.32
687.133	3030.99
687.323	2979.79
687.513	3063.76
687.702	2998.23
687.892	2838.48
688.082	2914.26
688.272	2930.64
688.461	2944.98
688.651	3028.95
688.841	2920.4
689.03	2850.77
689.22	2848.72
689.41	2791.38
689.599	2871.25
689.789	2822.1
689.979	2674.65
690.168	2850.77
690.358	2803.67
690.547	2777.05
690.737	2654.17
690.926	2729.94
691.116	2592.73
691.305	2858.96
691.495	2731.99
691.684	2639.83
691.874	2674.65
692.063	2541.53
692.252	2682.84
692.442	2674.65
692.631	2578.39
692.82	2566.1
693.01	2478.04
693.199	2586.58
693.388	2635.74
693.578	2527.19
693.767	2609.11
693.956	2533.34
694.146	2588.63
694.335	2527.19
694.524	2580.44
694.713	2441.18
694.902	2568.15
695.092	2545.63
695.281	2414.56
695.47	2435.03
695.659	2357.21
695.848	2422.75
696.037	2465.75
696.226	2445.27
696.415	2349.02
696.604	2494.43
696.793	2484.19
696.982	2478.04
697.171	2437.08
697.36	2453.47
697.549	2379.74
697.738	2367.45
697.927	2367.45
698.116	2293.73
698.305	2437.08
698.494	2338.78
698.683	2461.66
698.872	2349.02
699.061	2340.83
699.25	2369.5
699.438	2226.14
699.627	2267.1
699.816	2250.72
700.005	2349.02
700.193	2299.87
700.382	2349.02
700.571	2209.76
700.76	2275.29
700.948	2252.77
701.137	2334.68
701.326	2435.03
701.514	2232.29
701.703	2301.92
701.892	2289.63
702.08	2232.29
702.269	2285.53
702.457	2144.22
702.646	2203.61
702.834	2222.05
703.023	2213.85
703.212	2410.46
703.4	2277.34
703.589	2215.9
703.777	2193.37
703.965	2289.63
704.154	2150.37
704.342	2176.99
704.531	2201.57
704.719	2185.18
704.907	2201.57
705.096	2076.64
705.284	2168.8
705.472	2306.01
705.661	2263.01
705.849	2224.09
706.037	2265.05
706.226	2136.03
706.414	2293.73
706.602	2158.56
706.79	2293.73
706.979	2062.3
707.167	2203.61
707.355	2232.29
707.543	2080.74
707.731	2158.56
707.919	2258.91
708.107	2103.26
708.296	2193.37
708.484	2170.85
708.672	2248.67
708.86	2136.03
709.048	2201.57
709.236	2228.19
709.424	2123.74
709.612	2101.22
709.8	2084.83
709.988	2062.3
710.176	2269.15
710.364	2179.04
710.551	2301.92
710.739	2179.04
710.927	2215.9
711.115	2158.56
711.303	2201.57
711.491	2150.37
711.679	2035.68
711.866	2101.22
712.054	2068.45
712.242	2070.5
712.43	2222.05
712.617	2146.27
712.805	2146.27
712.993	2183.13
713.181	2115.55
713.368	2158.56
713.556	2144.22
713.744	2176.99
713.931	2224.09
714.119	2174.94
714.306	2109.41
714.494	2011.11
714.682	2133.98
714.869	1990.63
715.057	2168.8
715.244	2220
715.432	2168.8
715.619	1914.85
715.807	2117.6
715.994	2080.74
716.182	2043.87
716.369	1996.77
716.556	2179.04
716.744	2031.59
716.931	2189.28
717.119	2084.83
717.306	2007.01
717.493	2199.52
717.681	1988.58
717.868	2086.88
718.055	1970.15
718.242	2019.3
718.43	2127.84
718.617	1996.77
718.804	2084.83
718.991	2029.54
719.179	2060.26
719.366	1986.53
719.553	2138.08
719.74	2043.87
719.927	2007.01
720.114	1955.81
720.301	2029.54
720.488	2080.74
720.676	2052.06
720.863	2064.35
721.05	2136.03
721.237	2011.11
721.424	2002.91
721.611	1982.43
721.798	2025.44
721.985	1986.53
722.172	2176.99
722.358	2013.15
722.545	2078.69
722.732	1988.58
722.919	2109.41
723.106	2039.78
723.293	2084.83
723.48	2025.44
723.667	2023.39
723.853	1949.67
724.04	2035.68
724.227	2043.87
724.414	2052.06
724.6	1953.76
724.787	2011.11
724.974	2064.35
725.161	2043.87
725.347	1890.28
725.534	2037.73
725.72	1961.95
725.907	1966.05
726.094	1929.19
726.28	1994.72
726.467	2052.06
726.653	2011.11
726.84	2082.78
727.027	2035.68
727.213	2035.68
727.4	2029.54
727.586	2029.54
727.773	1970.15
727.959	2162.65
728.145	1980.39
728.332	1988.58
728.518	1966.05
728.705	2031.59
728.891	2031.59
729.077	2105.31
729.264	2072.54
729.45	1980.39
729.636	2152.42
729.823	1953.76
730.009	2027.49
730.195	2027.49
730.382	1986.53
730.568	1953.76
730.754	1953.76
730.94	2101.22
731.126	1994.72
731.313	1970.15
731.499	2043.87
731.685	1947.62
731.871	1898.47
732.057	2062.3
732.243	1906.66
732.429	2021.35
732.615	1968.1
732.801	2021.35
732.987	1990.63
733.173	2023.39
733.359	2023.39
733.545	1955.81
733.731	2007.01
733.917	1984.48
734.103	1927.14
734.289	1923.04
734.475	1920.99
734.661	2056.16
734.847	2025.44
735.033	2007.01
735.219	2013.15
735.404	1908.71
735.59	1947.62
735.776	1916.9
735.962	1880.04
736.148	1974.24
736.333	1953.76
736.519	1990.63
736.705	1867.75
736.89	1880.04
737.076	1800.16
737.262	1851.36
737.447	1894.37
737.633	2035.68
737.819	2025.44
738.004	1871.84
738.19	1927.14
738.375	1814.5
738.561	1871.84
738.747	1972.19
738.932	1834.98
739.118	1808.36
739.303	1920.99
739.489	1814.5
739.674	1751.01
739.859	1855.46
740.045	1892.32
740.23	1871.84
740.416	1806.31
740.601	1826.79
740.786	1765.35
740.972	1787.88
741.157	1855.46
741.342	1720.29
741.528	1757.16
741.713	1824.74
741.898	1720.29
742.084	1777.64
742.269	1810.4
742.454	1757.16
742.639	1789.92
742.824	1765.35
743.01	1744.87
743.195	1681.38
743.38	1734.63
743.565	1710.05
743.75	1765.35
743.935	1730.53
744.12	1732.58
744.305	1609.7
744.49	1677.29
744.675	1695.72
744.86	1624.04
745.045	1708.01
745.23	1642.47
745.415	1609.7
745.6	1677.29
745.785	1744.87
745.97	1572.84
746.155	1660.9
746.34	1705.96
746.525	1589.22
746.71	1759.21
746.895	1597.42
747.079	1621.99
747.264	1595.37
747.449	1701.86
747.634	1589.22
747.819	1550.31
748.003	1546.22
748.188	1550.31
748.373	1492.97
748.557	1558.5
748.742	1564.65
748.927	1523.69
749.111	1552.36
749.296	1597.42
749.481	1423.34
749.665	1511.4
749.85	1562.6
750.034	1515.5
750.219	1454.06
750.404	1454.06
750.588	1415.15
750.773	1380.33
750.957	1456.11
751.141	1376.24
751.326	1355.76
751.51	1376.24
751.695	1429.48
751.879	1380.33
752.064	1421.29
752.248	1396.71
752.432	1398.76
752.617	1382.38
752.801	1437.67
752.985	1263.6
753.17	1267.69
753.354	1257.45
753.538	1351.66
753.722	1261.55
753.907	1259.5
754.091	1216.49
754.275	1322.99
754.459	1218.54
754.643	1179.63
754.828	1136.62
755.012	1282.03
755.196	1257.45
755.38	1208.3
755.564	1159.15
755.748	1216.49
755.932	1187.82
756.116	1273.84
756.3	1161.2
756.484	1155.05
756.668	1163.25
756.852	1173.49
757.036	1191.92
757.22	1224.69
757.404	1165.29
757.588	1175.53
757.772	1150.96
757.956	1144.81
758.14	1103.86
758.323	1183.73
758.507	1161.2
758.691	1044.46
758.875	1124.33
759.059	1060.85
759.242	1136.62
759.426	1118.19
759.61	997.36
759.794	1056.75
759.977	1064.94
760.161	1105.9
760.345	1069.04
760.528	929.78
760.712	915.44
760.895	1112.05
761.079	1138.67
761.263	1021.94
761.446	978.93
761.63	962.55
761.813	983.03
761.997	997.36
762.18	966.64
762.364	950.26
762.547	907.25
762.731	978.93
762.914	923.63
763.098	958.45
763.281	976.88
763.464	991.22
763.648	978.93
763.831	974.83
764.015	892.91
764.198	907.25
764.381	890.87
764.564	888.82
764.748	940.02
764.931	931.83
765.114	872.43
765.297	956.4
765.481	907.25
765.664	931.83
765.847	956.4
766.03	880.63
766.213	823.28
766.397	815.09
766.58	897.01
766.763	921.59
766.946	913.39
767.129	897.01
767.312	798.71
767.495	765.94
767.678	825.33
767.861	819.19
768.044	892.91
768.227	851.96
768.41	767.99
768.593	722.93
768.776	798.71
768.959	817.14
769.142	876.53
769.324	780.28
769.507	792.56
769.69	784.37
769.873	811
770.056	933.87
770.239	833.52
770.421	808.95
770.604	921.59
770.787	782.32
770.97	798.71
771.152	733.17
771.335	737.27
771.518	798.71
771.7	831.48
771.883	767.99
772.066	765.94
772.248	817.14
772.431	782.32
772.613	741.36
772.796	841.72
772.978	751.6
773.161	659.45
773.343	708.6
773.526	694.26
773.708	694.26
773.891	751.6
774.073	696.31
774.256	753.65
774.438	741.36
774.621	759.8
774.803	733.17
774.985	694.26
775.168	753.65
775.35	696.31
775.532	692.21
775.715	653.3
775.897	667.64
776.079	657.4
776.261	634.87
776.444	700.41
776.626	716.79
776.808	712.69
776.99	604.15
777.173	616.44
777.355	598.01
777.537	626.68
777.719	626.68
777.901	724.98
778.083	638.97
778.265	620.53
778.447	643.06
778.629	671.73
778.811	626.68
778.993	657.4
779.175	663.54
779.357	503.8
779.539	483.32
779.721	550.9
779.903	602.1
780.085	573.43
780.267	585.72
780.449	610.29
780.631	626.68
780.812	585.72
780.994	579.58
781.176	468.98
781.358	555
781.54	536.57
781.721	571.38
781.903	462.84
782.085	471.03
782.267	561.14
782.448	497.66
782.63	489.46
782.812	522.23
782.993	495.61
783.175	454.65
783.357	499.7
783.538	489.46
783.72	442.36
783.901	497.66
784.083	501.75
784.264	421.88
784.446	397.31
784.627	368.63
784.809	464.89
784.99	399.35
785.172	487.42
785.353	399.35
785.535	454.65
785.716	434.17
785.897	380.92
786.079	342.01
786.26	483.32
786.441	393.21
786.623	374.78
786.804	407.55
786.985	425.98
787.167	450.55
787.348	421.88
787.529	487.42
787.71	475.13
787.891	321.53
788.073	356.35
788.254	413.69
788.435	464.89
788.616	389.11
788.797	344.06
788.978	366.59
789.159	391.16
789.34	315.39
789.522	319.48
789.703	411.64
789.884	409.59
790.065	385.02
790.246	397.31
790.427	346.11
790.607	382.97
790.788	323.58
790.969	315.39
791.15	354.3
791.331	350.2
791.512	307.2
791.693	303.1
791.874	358.39
792.054	325.63
792.235	258.04
792.416	323.58
792.597	342.01
792.778	282.62
792.958	356.35
793.139	270.33
793.32	323.58
793.5	350.2
793.681	333.82
793.862	327.68
794.042	284.67
794.223	299
794.404	348.15
794.584	294.91
794.765	290.81
794.945	325.63
795.126	376.83
795.306	331.77
795.487	309.24
795.667	331.77
795.848	286.72
796.028	272.38
796.209	292.86
796.389	262.14
796.57	227.32
796.75	217.08
796.93	339.96
797.111	217.08
797.291	278.52
797.471	307.2
797.652	194.56
797.832	290.81
798.012	249.85
798.192	260.09
798.373	251.9
798.553	258.04
798.733	327.68
798.913	219.13
799.093	274.43
799.274	233.47
799.454	266.24
799.634	294.91
799.814	249.85
799.994	229.37
800.174	268.28
800.354	233.47
800.534	223.23
800.714	258.04
800.894	167.93
801.074	131.07
801.254	229.37
801.434	172.03
801.614	227.32
801.794	210.94
801.974	813.04
802.154	237.56
802.334	225.28
802.514	176.13
802.693	253.95
802.873	229.37
803.053	325.63
803.233	210.94
803.413	200.7
803.592	159.74
803.772	237.56
803.952	135.17
804.131	208.89
804.311	210.94
804.491	174.08
804.67	225.28
804.85	161.79
805.03	202.75
805.209	241.66
805.389	208.89
805.568	221.18
805.748	190.46
805.928	102.4
806.107	161.79
806.287	237.56
806.466	208.89
806.646	163.84
806.825	112.64
807.004	208.89
807.184	272.38
807.363	225.28
807.543	227.32
807.722	174.08
807.901	196.61
808.081	151.55
808.26	182.27
808.439	208.89
808.619	147.45
808.798	225.28
808.977	217.08
809.156	200.7
809.336	114.69
809.515	233.47
809.694	178.17
809.873	184.32
810.052	163.84
810.231	208.89
810.411	192.51
810.59	165.89
810.769	161.79
810.948	143.36
811.127	225.28
811.306	153.6
811.485	223.23
811.664	126.97
811.843	186.37
812.022	167.93
812.201	165.89
812.38	169.98
812.559	167.93
812.737	167.93
812.916	79.87
813.095	137.21
813.274	90.11
813.453	112.64
813.632	184.32
813.811	206.84
813.989	88.06
814.168	153.6
814.347	217.08
814.526	124.93
814.704	176.13
814.883	176.13
815.062	79.87
815.24	167.93
815.419	22.53
815.598	184.32
815.776	145.41
815.955	163.84
816.133	49.15
816.312	200.7
816.49	200.7
816.669	88.06
816.847	186.37
817.026	180.22
817.204	118.78
817.383	124.93
817.561	40.96
817.74	135.17
817.918	174.08
818.097	116.73
818.275	104.45
818.453	94.21
818.632	90.11
818.81	184.32
818.988	106.49
819.167	176.13
819.345	81.92
819.523	110.59
819.701	165.89
819.879	161.79
820.058	94.21
820.236	40.96
820.414	180.22
820.592	67.58
820.77	94.21
820.948	143.36
821.127	94.21
821.305	77.82
821.483	77.82
821.661	122.88
821.839	176.13
822.017	102.4
822.195	102.4
822.373	151.55
822.551	55.3
822.729	143.36
822.907	120.83
823.085	92.16
823.262	98.3
823.44	143.36
823.618	151.55
823.796	59.39
823.974	71.68
824.152	4.1
824.329	77.82
824.507	38.91
824.685	147.45
824.863	131.07
825.04	141.31
825.218	120.83
825.396	63.49
825.574	47.1
825.751	126.97
825.929	126.97
826.107	98.3
826.284	116.73
826.462	90.11
826.639	53.25
826.817	94.21
826.994	129.02
827.172	71.68
827.349	110.59
827.527	104.45
827.704	126.97
827.882	47.1
828.059	96.25
828.237	86.01
828.414	57.34
828.591	77.82
828.769	26.62
828.946	45.06
829.124	139.26
829.301	83.97
829.478	145.41
829.655	153.6
829.833	163.84
830.01	53.25
830.187	104.45
830.364	40.96
830.542	36.86
830.719	126.97
830.896	92.16
831.073	69.63
831.25	104.45
831.427	86.01
831.604	92.16
831.782	20.48
831.959	94.21
832.136	36.86
832.313	53.25
832.49	94.21
832.667	71.68
832.844	79.87
833.021	71.68
833.198	108.54
833.374	65.54
833.551	112.64
833.728	77.82
833.905	30.72
834.082	55.3
834.259	83.97
834.436	83.97
834.612	20.48
834.789	100.35
834.966	104.45
835.143	36.86
835.319	135.17
835.496	135.17
835.673	12.29
835.85	167.93
836.026	94.21
836.203	143.36
836.38	6.14
836.556	63.49
836.733	65.54
836.909	73.73
837.086	30.72
837.262	-10.24
837.439	24.58
837.616	20.48
837.792	40.96
837.968	94.21
838.145	55.3
838.321	79.87
838.498	126.97
838.674	55.3
838.851	57.34
839.027	98.3
839.203	65.54
839.38	-32.77
839.556	36.86
839.732	36.86
839.909	94.21
840.085	96.25
840.261	20.48
840.437	47.1
840.614	49.15
840.79	96.25
840.966	98.3
841.142	53.25
841.318	114.69
841.494	55.3
841.671	45.06
841.847	102.4
842.023	77.82
842.199	4.1
842.375	47.1
842.551	-4.1
842.727	63.49
842.903	184.32
843.079	-8.19
843.255	53.25
843.431	45.06
843.607	61.44
843.783	14.34
843.959	24.58
844.134	12.29
844.31	61.44
844.486	6.14
844.662	71.68
844.838	129.02
845.013	118.78
845.189	8.19
845.365	126.97
845.541	28.67
845.716	36.86
845.892	55.3
846.068	20.48
846.244	57.34
846.419	69.63
846.595	18.43
846.77	24.58
846.946	-34.82
847.122	43.01
847.297	61.44
847.473	94.21
847.648	24.58
847.824	94.21
847.999	38.91
848.175	12.29
848.35	126.97
848.526	69.63
848.701	36.86
848.876	36.86
849.052	8.19
849.227	16.38
849.403	36.86
849.578	-43.01
849.753	79.87
849.929	94.21
850.104	47.1
850.279	63.49
850.454	45.06
850.63	110.59
850.805	-32.77
850.98	79.87
851.155	47.1
851.33	14.34
851.505	59.39
851.681	86.01
851.856	-24.58
852.031	-43.01
852.206	57.34
852.381	67.58
852.556	69.63
852.731	36.86
852.906	69.63
853.081	-45.06
853.256	61.44
853.431	75.77
853.606	-22.53
853.781	38.91
853.956	-14.34
854.131	106.49
854.305	12.29
854.48	-34.82
854.655	28.67
854.83	-77.82
855.005	34.82
855.18	30.72
855.354	28.67
855.529	53.25
855.704	-14.34
855.879	61.44
856.053	36.86
856.228	28.67
856.403	36.86
856.577	30.72
856.752	6.14
856.926	88.06
857.101	57.34
857.276	-10.24
857.45	28.67
857.625	4.1
857.799	40.96
857.974	61.44
858.148	12.29
858.323	67.58
858.497	12.29
858.672	10.24
858.846	-8.19
859.02	40.96
859.195	-8.19
859.369	-20.48
859.543	-51.2
859.718	22.53
859.892	20.48
860.066	4.1
860.241	77.82
860.415	-24.58
860.589	22.53
860.763	-4.1
860.938	12.29
861.112	-34.82
861.286	8.19
861.46	43.01
861.634	30.72
861.808	53.25
861.982	34.82
862.157	-12.29
862.331	18.43
862.505	-36.86
862.679	0
862.853	20.48
863.027	32.77
863.201	24.58
863.375	-12.29
863.549	71.68
863.722	45.06
863.896	32.77
864.07	-12.29
864.244	40.96
864.418	49.15
864.592	4.1
864.766	55.3
864.939	16.38
865.113	0
865.287	20.48
865.461	-12.29
865.634	36.86
865.808	20.48
865.982	79.87
866.156	-4.1
866.329	-10.24
866.503	10.24
866.676	69.63
866.85	22.53
867.024	36.86
867.197	47.1
867.371	14.34
867.544	0
867.718	53.25
867.891	49.15
868.065	-36.86
868.238	-12.29
868.412	-10.24
868.585	51.2
868.759	71.68
868.932	-8.19
869.105	-12.29
869.279	32.77
869.452	4.1
869.625	135.17
869.799	-2.05
869.972	26.62
870.145	4.1
870.319	65.54
870.492	-43.01
870.665	-61.44
870.838	40.96
871.011	0
871.185	-32.77
871.358	71.68
871.531	61.44
871.704	6.14
871.877	32.77
872.05	-20.48
872.223	-20.48
872.396	57.34
872.569	24.58
872.742	-2.05
872.915	47.1
873.088	61.44
873.261	-20.48
873.434	61.44
873.607	98.3
873.78	67.58
873.953	-4.1
874.126	-16.38
874.299	86.01
874.471	-10.24
874.644	20.48
874.817	-28.67
874.99	53.25
875.163	4.1
875.335	53.25
875.508	-24.58
875.681	133.12
875.853	-34.82
876.026	88.06
876.199	49.15
876.371	12.29
876.544	-16.38
876.717	18.43
876.889	92.16
877.062	28.67
877.234	-116.73
877.407	-12.29
877.579	26.62
877.752	34.82
877.924	-65.53
878.097	61.44
878.269	-4.1
878.442	55.3
878.614	-2.05
878.786	-10.24
878.959	-28.67
879.131	14.34
879.303	-10.24
879.476	-28.67
879.648	49.15
879.82	69.63
879.993	57.34
880.165	28.67
880.337	36.86
880.509	-4.1
880.681	20.48
880.854	-6.14
881.026	24.58
881.198	24.58
881.37	8.19
881.542	32.77
881.714	-53.25
881.886	8.19
882.058	26.62
882.23	12.29
882.402	6.14
882.574	14.34
882.746	61.44
882.918	51.2
883.09	-45.06
883.262	-4.1
883.434	2.05
883.606	4.1
883.778	0
883.95	8.19
884.122	4.1
884.293	51.2
884.465	-51.2
884.637	28.67
884.809	43.01
884.98	4.1
885.152	-32.77
885.324	45.06
885.496	-18.43
885.667	-51.2
885.839	47.1
886.011	16.38
886.182	135.17
886.354	18.43
886.525	14.34
886.697	28.67
886.869	75.77
887.04	16.38
887.212	-40.96
887.383	100.35
887.555	4.1
887.726	-12.29
887.897	12.29
888.069	-49.15
888.24	4.1
888.412	-49.15
888.583	32.77
888.754	49.15
888.926	-16.38
889.097	-57.34
889.268	-4.1
889.44	-18.43
889.611	-26.62
889.782	-38.91
889.953	-69.63
890.125	49.15
890.296	-40.96
890.467	55.3
890.638	-77.82
890.809	4.1
890.98	-26.62
891.151	-8.19
891.323	6.14
891.494	32.77
891.665	12.29
891.836	-10.24
892.007	-18.43
892.178	45.06
892.349	-43.01
892.52	36.86
892.691	28.67
892.862	24.58
893.032	-40.96
893.203	22.53
893.374	6.14
893.545	38.91
893.716	24.58
893.887	45.06
894.057	-20.48
894.228	16.38
894.399	30.72
894.57	16.38
894.74	65.54
894.911	30.72
895.082	14.34
895.253	8.19
895.423	-73.73
895.594	77.82
895.764	4.1
895.935	-22.53
896.106	30.72
896.276	-26.62
896.447	43.01
896.617	40.96
896.788	-14.34
896.958	-61.44
897.129	-4.1
897.299	-53.25
897.47	32.77
897.64	94.21
897.81	-8.19
897.981	24.58
898.151	12.29
898.322	-32.77
898.492	-20.48
898.662	53.25
898.832	-57.34
899.003	18.43
899.173	55.3
899.343	-16.38
899.513	4.1
