Data from USB4F104151__19__14-42-41-748.txt Node

Date: Thu Mar 13 14:42:41 EDT 2025
User: louis
Spectrometer: USB4F10415
Trigger mode: 4
Integration Time (sec): 2.000000E-2
Scans to average: 1
Electric dark correction enabled: true
Nonlinearity correction enabled: false
Boxcar width: 0
XAxis mode: Wavelengths
Number of Pixels in Spectrum: 3648
>>>>>Begin Spectral Data<<<<<
178.204	-136.87
178.424	-136.87
178.644	-136.87
178.864	-110.25
179.084	-97.96
179.304	-22.19
179.524	8.53
179.744	37.2
179.964	61.78
180.184	0.34
180.404	0.34
180.624	-61.1
180.844	-7.85
181.064	-9.9
181.283	45.4
181.503	-61.1
181.723	8.53
181.943	-46.76
182.163	-36.52
182.383	0.34
182.602	12.63
182.822	43.35
183.042	49.49
183.262	29.01
183.482	20.82
183.701	-28.33
183.921	65.88
184.141	8.53
184.361	35.16
184.58	69.97
184.8	-5.8
185.02	29.01
185.239	69.97
185.459	6.49
185.679	74.07
185.898	24.92
186.118	141.65
186.338	82.26
186.557	98.64
186.777	-5.8
186.997	-30.38
187.216	67.92
187.436	139.6
187.655	53.59
187.875	78.16
188.095	4.44
188.314	57.68
188.534	10.58
188.753	16.73
188.973	-16.04
189.192	49.49
189.412	2.39
189.631	108.88
189.851	41.3
190.07	16.73
190.29	-7.85
190.509	2.39
190.729	-22.19
190.948	18.77
191.168	90.45
191.387	41.3
191.607	0.34
191.826	65.88
192.045	65.88
192.265	67.92
192.484	20.82
192.704	-20.14
192.923	-9.9
193.142	59.73
193.362	63.83
193.581	22.87
193.8	43.35
194.02	12.63
194.239	4.44
194.458	20.82
194.678	-28.33
194.897	94.55
195.116	16.73
195.335	-7.85
195.555	57.68
195.774	-40.62
195.993	33.11
196.212	24.92
196.432	24.92
196.651	24.92
196.87	-71.34
197.089	108.88
197.308	69.97
197.528	43.35
197.747	35.16
197.966	10.58
198.185	65.88
198.404	-36.52
198.623	57.68
198.842	67.92
199.062	86.36
199.281	78.16
199.5	-7.85
199.719	41.3
199.938	51.54
200.157	76.12
200.376	24.92
200.595	88.4
200.814	74.07
201.033	12.63
201.252	90.45
201.471	49.49
201.69	72.02
201.909	49.49
202.128	8.53
202.347	43.35
202.566	-5.8
202.785	123.22
203.004	12.63
203.223	90.45
203.442	26.96
203.661	-3.75
203.879	41.3
204.098	98.64
204.317	-24.23
204.536	106.84
204.755	69.97
204.974	51.54
205.193	-24.23
205.411	141.65
205.63	37.2
205.849	14.68
206.068	-16.04
206.287	20.82
206.505	-11.95
206.724	-5.8
206.943	37.2
207.162	41.3
207.381	63.83
207.599	53.59
207.818	37.2
208.037	-3.75
208.255	53.59
208.474	4.44
208.693	55.64
208.911	35.16
209.13	49.49
209.349	-18.09
209.567	20.82
209.786	65.88
210.005	20.82
210.223	74.07
210.442	2.39
210.661	49.49
210.879	123.22
211.098	88.4
211.316	0.34
211.535	31.06
211.753	41.3
211.972	35.16
212.191	-71.34
212.409	24.92
212.628	86.36
212.846	33.11
213.065	26.96
213.283	61.78
213.502	18.77
213.72	-24.23
213.938	59.73
214.157	72.02
214.375	18.77
214.594	35.16
214.812	53.59
215.031	41.3
215.249	8.53
215.467	41.3
215.686	2.39
215.904	49.49
216.122	33.11
216.341	57.68
216.559	53.59
216.778	22.87
216.996	72.02
217.214	18.77
217.432	69.97
217.651	26.96
217.869	-13.99
218.087	57.68
218.306	35.16
218.524	84.31
218.742	20.82
218.96	20.82
219.179	0.34
219.397	37.2
219.615	100.69
219.833	-5.8
220.051	-48.81
220.27	82.26
220.488	90.45
220.706	43.35
220.924	-36.52
221.142	8.53
221.36	-26.28
221.578	49.49
221.796	16.73
222.015	41.3
222.233	49.49
222.451	98.64
222.669	33.11
222.887	51.54
223.105	8.53
223.323	24.92
223.541	-5.8
223.759	61.78
223.977	-32.43
224.195	-3.75
224.413	86.36
224.631	41.3
224.849	55.64
225.067	108.88
225.285	53.59
225.503	16.73
225.721	-48.81
225.939	2.39
226.157	33.11
226.375	92.5
226.592	-52.91
226.81	82.26
227.028	33.11
227.246	51.54
227.464	31.06
227.682	29.01
227.9	8.53
228.117	37.2
228.335	67.92
228.553	0.34
228.771	33.11
228.989	37.2
229.206	57.68
229.424	16.73
229.642	67.92
229.86	57.68
230.077	59.73
230.295	90.45
230.513	39.25
230.731	108.88
230.948	0.34
231.166	43.35
231.384	29.01
231.601	20.82
231.819	16.73
232.037	53.59
232.254	65.88
232.472	14.68
232.689	12.63
232.907	57.68
233.125	20.82
233.342	-7.85
233.56	16.73
233.777	8.53
233.995	-7.85
234.213	106.84
234.43	74.07
234.648	98.64
234.865	-26.28
235.083	-13.99
235.3	10.58
235.518	61.78
235.735	127.32
235.953	49.49
236.17	90.45
236.388	16.73
236.605	18.77
236.822	59.73
237.04	106.84
237.257	41.3
237.475	2.39
237.692	20.82
237.909	-20.14
238.127	10.58
238.344	8.53
238.562	49.49
238.779	-7.85
238.996	-40.62
239.214	-48.81
239.431	35.16
239.648	10.58
239.865	59.73
240.083	90.45
240.3	-7.85
240.517	90.45
240.735	65.88
240.952	59.73
241.169	69.97
241.386	26.96
241.603	41.3
241.821	14.68
242.038	67.92
242.255	29.01
242.472	-57
242.689	65.88
242.907	57.68
243.124	33.11
243.341	18.77
243.558	10.58
243.775	24.92
243.992	-28.33
244.209	10.58
244.426	117.08
244.643	16.73
244.86	33.11
245.078	41.3
245.295	22.87
245.512	26.96
245.729	16.73
245.946	41.3
246.163	37.2
246.38	20.82
246.597	24.92
246.814	96.6
247.031	4.44
247.248	86.36
247.464	14.68
247.681	41.3
247.898	35.16
248.115	-61.1
248.332	53.59
248.549	115.03
248.766	8.53
248.983	49.49
249.2	65.88
249.417	-24.23
249.633	57.68
249.85	-11.95
250.067	-28.33
250.284	74.07
250.501	41.3
250.717	-7.85
250.934	8.53
251.151	67.92
251.368	20.82
251.585	82.26
251.801	26.96
252.018	-52.91
252.235	102.74
252.451	-73.39
252.668	37.2
252.885	74.07
253.102	-38.57
253.318	102.74
253.535	-5.8
253.752	0.34
253.968	65.88
254.185	4.44
254.401	43.35
254.618	33.11
254.835	143.7
255.051	26.96
255.268	4.44
255.484	49.49
255.701	65.88
255.917	78.16
256.134	78.16
256.351	53.59
256.567	-26.28
256.784	43.35
257	-18.09
257.217	41.3
257.433	86.36
257.65	-7.85
257.866	59.73
258.082	-5.8
258.299	-32.43
258.515	16.73
258.732	84.31
258.948	-57
259.165	69.97
259.381	16.73
259.597	94.55
259.814	51.54
260.03	106.84
260.246	57.68
260.463	80.21
260.679	104.79
260.895	24.92
261.112	51.54
261.328	41.3
261.544	41.3
261.761	115.03
261.977	-18.09
262.193	-11.95
262.409	20.82
262.626	82.26
262.842	-24.23
263.058	49.49
263.274	90.45
263.49	4.44
263.707	90.45
263.923	86.36
264.139	-77.48
264.355	41.3
264.571	-20.14
264.787	43.35
265.004	61.78
265.22	37.2
265.436	45.4
265.652	10.58
265.868	65.88
266.084	35.16
266.3	82.26
266.516	-59.05
266.732	67.92
266.948	24.92
267.164	37.2
267.38	82.26
267.596	92.5
267.812	90.45
268.028	90.45
268.244	-3.75
268.46	0.34
268.676	49.49
268.892	33.11
269.108	-40.62
269.324	-7.85
269.54	6.49
269.756	106.84
269.972	10.58
270.188	24.92
270.403	8.53
270.619	24.92
270.835	108.88
271.051	22.87
271.267	26.96
271.483	2.39
271.698	65.88
271.914	41.3
272.13	90.45
272.346	20.82
272.562	57.68
272.777	123.22
272.993	20.82
273.209	0.34
273.425	16.73
273.64	20.82
273.856	41.3
274.072	39.25
274.287	8.53
274.503	4.44
274.719	41.3
274.934	-61.1
275.15	-7.85
275.366	-11.95
275.581	16.73
275.797	80.21
276.012	100.69
276.228	82.26
276.444	-11.95
276.659	57.68
276.875	8.53
277.09	69.97
277.306	24.92
277.521	16.73
277.737	47.44
277.952	69.97
278.168	-54.95
278.383	57.68
278.599	45.4
278.814	106.84
279.03	-20.14
279.245	119.12
279.461	8.53
279.676	33.11
279.892	-11.95
280.107	-38.57
280.322	35.16
280.538	49.49
280.753	86.36
280.969	2.39
281.184	51.54
281.399	24.92
281.615	-46.76
281.83	65.88
282.045	-5.8
282.26	47.44
282.476	-57
282.691	74.07
282.906	65.88
283.122	2.39
283.337	12.63
283.552	106.84
283.767	18.77
283.983	102.74
284.198	49.49
284.413	41.3
284.628	22.87
284.843	16.73
285.058	41.3
285.274	12.63
285.489	-5.8
285.704	35.16
285.919	-69.29
286.134	-9.9
286.349	35.16
286.564	-7.85
286.779	80.21
286.995	41.3
287.21	4.44
287.425	141.65
287.64	-5.8
287.855	59.73
288.07	31.06
288.285	74.07
288.5	33.11
288.715	-3.75
288.93	33.11
289.145	-40.62
289.36	-5.8
289.575	-3.75
289.79	69.97
290.004	16.73
290.219	29.01
290.434	29.01
290.649	76.12
290.864	90.45
291.079	16.73
291.294	72.02
291.509	76.12
291.724	59.73
291.938	-13.99
292.153	6.49
292.368	33.11
292.583	-3.75
292.798	94.55
293.012	74.07
293.227	82.26
293.442	115.03
293.657	117.08
293.871	74.07
294.086	-32.43
294.301	43.35
294.516	29.01
294.73	-5.8
294.945	-50.86
295.16	33.11
295.374	18.77
295.589	35.16
295.804	-30.38
296.018	100.69
296.233	98.64
296.447	106.84
296.662	110.93
296.877	57.68
297.091	-38.57
297.306	24.92
297.52	-11.95
297.735	141.65
297.949	49.49
298.164	31.06
298.378	33.11
298.593	26.96
298.807	22.87
299.022	57.68
299.236	119.12
299.451	78.16
299.665	37.2
299.88	-24.23
300.094	26.96
300.309	41.3
300.523	16.73
300.737	86.36
300.952	-11.95
301.166	10.58
301.381	20.82
301.595	16.73
301.809	37.2
302.024	33.11
302.238	16.73
302.452	72.02
302.667	29.01
302.881	74.07
303.095	61.78
303.309	143.7
303.524	10.58
303.738	110.93
303.952	10.58
304.166	24.92
304.381	82.26
304.595	117.08
304.809	33.11
305.023	82.26
305.237	-28.33
305.452	-5.8
305.666	39.25
305.88	22.87
306.094	65.88
306.308	24.92
306.522	94.55
306.736	22.87
306.95	65.88
307.164	-16.04
307.379	-24.23
307.593	82.26
307.807	10.58
308.021	100.69
308.235	24.92
308.449	41.3
308.663	33.11
308.877	74.07
309.091	20.82
309.305	45.4
309.519	-22.19
309.733	35.16
309.947	12.63
310.161	47.44
310.374	-7.85
310.588	61.78
310.802	49.49
311.016	18.77
311.23	22.87
311.444	8.53
311.658	78.16
311.872	33.11
312.085	51.54
312.299	59.73
312.513	119.12
312.727	131.41
312.941	6.49
313.154	92.5
313.368	35.16
313.582	29.01
313.796	106.84
314.009	-13.99
314.223	20.82
314.437	106.84
314.651	76.12
314.864	55.64
315.078	57.68
315.292	49.49
315.505	2.39
315.719	119.12
315.933	4.44
316.146	-11.95
316.36	57.68
316.573	53.59
316.787	57.68
317.001	90.45
317.214	24.92
317.428	26.96
317.641	-11.95
317.855	16.73
318.068	74.07
318.282	-11.95
318.495	74.07
318.709	45.4
318.922	33.11
319.136	41.3
319.349	74.07
319.563	4.44
319.776	67.92
319.99	-16.04
320.203	-11.95
320.417	57.68
320.63	117.08
320.843	115.03
321.057	33.11
321.27	10.58
321.483	45.4
321.697	57.68
321.91	53.59
322.124	-5.8
322.337	18.77
322.55	-46.76
322.763	18.77
322.977	16.73
323.19	-24.23
323.403	41.3
323.617	2.39
323.83	49.49
324.043	61.78
324.256	29.01
324.469	-22.19
324.683	149.84
324.896	22.87
325.109	14.68
325.322	69.97
325.535	74.07
325.748	8.53
325.962	57.68
326.175	102.74
326.388	24.92
326.601	74.07
326.814	-1.71
327.027	-13.99
327.24	76.12
327.453	43.35
327.666	106.84
327.879	-5.8
328.092	76.12
328.305	57.68
328.518	59.73
328.731	-7.85
328.944	92.5
329.157	4.44
329.37	-22.19
329.583	90.45
329.796	176.47
330.009	57.68
330.222	102.74
330.435	33.11
330.648	26.96
330.861	18.77
331.073	65.88
331.286	69.97
331.499	57.68
331.712	-24.23
331.925	41.3
332.138	82.26
332.35	61.78
332.563	-57
332.776	98.64
332.989	6.49
333.202	20.82
333.414	18.77
333.627	65.88
333.84	24.92
334.053	49.49
334.265	0.34
334.478	35.16
334.691	100.69
334.903	0.34
335.116	8.53
335.329	35.16
335.541	37.2
335.754	92.5
335.966	43.35
336.179	69.97
336.392	108.88
336.604	43.35
336.817	10.58
337.029	82.26
337.242	0.34
337.454	59.73
337.667	12.63
337.88	88.4
338.092	65.88
338.305	86.36
338.517	10.58
338.729	16.73
338.942	39.25
339.154	-40.62
339.367	-26.28
339.579	33.11
339.792	8.53
340.004	98.64
340.217	37.2
340.429	69.97
340.641	41.3
340.854	90.45
341.066	16.73
341.278	45.4
341.491	106.84
341.703	4.44
341.915	8.53
342.128	-13.99
342.34	112.98
342.552	78.16
342.764	24.92
342.977	84.31
343.189	16.73
343.401	8.53
343.613	-26.28
343.826	69.97
344.038	31.06
344.25	33.11
344.462	16.73
344.674	33.11
344.886	74.07
345.099	37.2
345.311	22.87
345.523	80.21
345.735	8.53
345.947	31.06
346.159	51.54
346.371	74.07
346.583	43.35
346.795	18.77
347.007	29.01
347.219	35.16
347.431	115.03
347.643	8.53
347.855	-5.8
348.067	90.45
348.279	20.82
348.491	72.02
348.703	94.55
348.915	-16.04
349.127	43.35
349.339	8.53
349.551	6.49
349.763	29.01
349.975	14.68
350.187	147.8
350.399	33.11
350.61	26.96
350.822	-36.52
351.034	2.39
351.246	76.12
351.458	12.63
351.669	49.49
351.881	10.58
352.093	106.84
352.305	-32.43
352.517	18.77
352.728	106.84
352.94	-7.85
353.152	57.68
353.363	26.96
353.575	53.59
353.787	37.2
353.999	90.45
354.21	63.83
354.422	37.2
354.633	-22.19
354.845	86.36
355.057	6.49
355.268	2.39
355.48	8.53
355.692	-16.04
355.903	49.49
356.115	35.16
356.326	-28.33
356.538	12.63
356.749	141.65
356.961	106.84
357.172	57.68
357.384	37.2
357.595	74.07
357.807	-26.28
358.018	-3.75
358.23	33.11
358.441	94.55
358.653	90.45
358.864	35.16
359.075	35.16
359.287	41.3
359.498	-7.85
359.709	106.84
359.921	65.88
360.132	47.44
360.344	4.44
360.555	59.73
360.766	49.49
360.977	39.25
361.189	24.92
361.4	43.35
361.611	65.88
361.823	18.77
362.034	74.07
362.245	4.44
362.456	41.3
362.667	59.73
362.879	43.35
363.09	139.6
363.301	49.49
363.512	2.39
363.723	-1.71
363.935	33.11
364.146	26.96
364.357	-28.33
364.568	0.34
364.779	8.53
364.99	10.58
365.201	-5.8
365.412	119.12
365.623	-11.95
365.834	8.53
366.045	14.68
366.256	76.12
366.467	-5.8
366.678	57.68
366.889	43.35
367.1	45.4
367.311	26.96
367.522	61.78
367.733	18.77
367.944	72.02
368.155	90.45
368.366	59.73
368.577	20.82
368.788	33.11
368.999	-36.52
369.209	-7.85
369.42	100.69
369.631	86.36
369.842	74.07
370.053	90.45
370.264	33.11
370.474	2.39
370.685	133.46
370.896	33.11
371.107	49.49
371.317	106.84
371.528	-16.04
371.739	37.2
371.95	37.2
372.16	57.68
372.371	20.82
372.582	61.78
372.792	18.77
373.003	33.11
373.214	51.54
373.424	24.92
373.635	37.2
373.846	106.84
374.056	43.35
374.267	49.49
374.477	53.59
374.688	-5.8
374.898	67.92
375.109	139.6
375.319	-24.23
375.53	10.58
375.74	16.73
375.951	20.82
376.161	24.92
376.372	92.5
376.582	2.39
376.793	92.5
377.003	37.2
377.214	51.54
377.424	80.21
377.635	84.31
377.845	-48.81
378.055	20.82
378.266	51.54
378.476	65.88
378.686	-16.04
378.897	78.16
379.107	49.49
379.317	65.88
379.528	63.83
379.738	43.35
379.948	-28.33
380.158	141.65
380.369	53.59
380.579	37.2
380.789	53.59
380.999	131.41
381.21	20.82
381.42	39.25
381.63	-7.85
381.84	53.59
382.05	33.11
382.261	22.87
382.471	35.16
382.681	45.4
382.891	98.64
383.101	82.26
383.311	94.55
383.521	57.68
383.731	-3.75
383.941	63.83
384.151	14.68
384.361	72.02
384.571	16.73
384.781	106.84
384.991	63.83
385.201	82.26
385.411	74.07
385.621	65.88
385.831	63.83
386.041	4.44
386.251	82.26
386.461	123.22
386.671	90.45
386.881	0.34
387.091	61.78
387.301	61.78
387.511	33.11
387.72	155.99
387.93	45.4
388.14	74.07
388.35	78.16
388.56	53.59
388.769	43.35
388.979	129.36
389.189	-13.99
389.399	18.77
389.609	106.84
389.818	102.74
390.028	24.92
390.238	90.45
390.447	51.54
390.657	51.54
390.867	-87.72
391.076	18.77
391.286	57.68
391.496	57.68
391.705	31.06
391.915	55.64
392.125	119.12
392.334	92.5
392.544	49.49
392.753	-11.95
392.963	2.39
393.172	33.11
393.382	-26.28
393.591	98.64
393.801	119.12
394.01	41.3
394.22	49.49
394.429	67.92
394.639	29.01
394.848	57.68
395.058	37.2
395.267	63.83
395.477	84.31
395.686	24.92
395.895	137.56
396.105	115.03
396.314	65.88
396.524	14.68
396.733	51.54
396.942	123.22
397.152	106.84
397.361	127.32
397.57	22.87
397.78	43.35
397.989	51.54
398.198	108.88
398.407	29.01
398.617	72.02
398.826	108.88
399.035	49.49
399.244	94.55
399.453	90.45
399.663	16.73
399.872	61.78
400.081	78.16
400.29	100.69
400.499	6.49
400.708	59.73
400.917	74.07
401.127	-42.67
401.336	86.36
401.545	110.93
401.754	127.32
401.963	69.97
402.172	74.07
402.381	57.68
402.59	57.68
402.799	98.64
403.008	115.03
403.217	59.73
403.426	98.64
403.635	86.36
403.844	125.27
404.053	57.68
404.262	76.12
404.471	123.22
404.68	90.45
404.888	82.26
405.097	98.64
405.306	131.41
405.515	164.18
405.724	147.8
405.933	98.64
406.142	158.03
406.35	164.18
406.559	127.32
406.768	112.98
406.977	143.7
407.185	86.36
407.394	231.76
407.603	61.78
407.812	198.99
408.02	164.18
408.229	143.7
408.438	186.71
408.646	108.88
408.855	180.56
409.064	196.95
409.272	90.45
409.481	239.95
409.69	139.6
409.898	115.03
410.107	196.95
410.315	108.88
410.524	112.98
410.733	198.99
410.941	229.71
411.15	229.71
411.358	282.96
411.567	264.53
411.775	151.89
411.984	258.39
412.192	256.34
412.401	256.34
412.609	328.02
412.818	305.49
413.026	354.64
413.234	303.44
413.443	272.72
413.651	371.02
413.86	418.13
414.068	360.78
414.276	422.22
414.485	426.32
414.693	448.85
414.901	508.24
415.11	444.75
415.318	471.37
415.526	461.13
415.734	463.18
415.943	504.14
416.151	475.47
416.359	483.66
416.567	551.24
416.776	549.2
416.984	592.2
417.192	581.96
417.4	524.62
417.608	549.2
417.817	622.92
418.025	659.79
418.233	723.27
418.441	637.26
418.649	731.47
418.857	813.38
419.065	829.77
419.273	743.75
419.481	809.29
419.689	790.86
419.897	831.82
420.105	899.4
420.313	870.73
420.521	1016.13
420.729	1077.57
420.937	919.88
421.145	1036.61
421.353	1157.44
421.561	1081.67
421.769	1159.49
421.977	1210.69
422.185	1280.32
422.393	1343.81
422.601	1425.73
422.809	1270.08
423.017	1343.81
423.224	1491.26
423.432	1450.3
423.64	1438.02
423.848	1593.66
424.056	1556.8
424.263	1673.53
424.471	1737.02
424.679	1683.77
424.887	1788.22
425.094	1919.29
425.302	1839.42
425.51	1950.01
425.718	2117.94
425.925	1988.92
426.133	2124.08
426.341	2212.15
426.548	2400.56
426.756	2302.26
426.964	2433.33
427.171	2507.06
427.379	2535.73
427.586	2476.34
427.794	2705.71
428.001	2828.59
428.209	2922.79
428.417	2834.73
428.624	3162.41
428.832	3041.57
429.039	2871.59
429.247	3025.19
429.454	3344.67
429.662	3490.08
429.869	3344.67
430.076	3539.23
430.284	3467.55
430.491	3647.77
430.699	3834.14
430.906	3768.6
431.114	3825.95
431.321	4008.22
431.528	4180.25
431.736	4333.84
431.943	4557.07
432.15	4366.61
432.358	4458.77
432.565	4608.27
432.772	4649.23
432.979	4800.78
433.187	4882.7
433.394	5132.55
433.601	5245.19
433.808	5470.47
434.016	5368.07
434.223	5566.72
434.43	5857.53
434.637	5656.83
434.844	6035.71
435.052	6154.49
435.259	6164.73
435.466	6355.19
435.673	6236.41
435.88	6707.44
436.087	7043.31
436.294	7059.69
436.501	6928.62
436.708	6922.48
436.915	7164.14
437.122	7348.45
437.329	7356.65
437.537	7667.94
437.743	7694.56
437.95	7653.6
438.157	8274.14
438.364	8487.12
438.571	8564.95
438.778	8356.05
438.985	9095.37
439.192	8822.99
439.399	9181.39
439.606	8939.72
439.813	9586.88
440.02	9976
440.227	9961.66
440.433	9701.57
440.64	10086.59
440.847	9937.09
441.054	10410.17
441.261	10993.84
441.467	10969.26
441.674	10911.92
441.881	11514.02
442.088	11219.11
442.294	11258.03
442.501	11632.8
442.708	11761.83
442.914	12257.43
443.121	12963.98
443.328	12617.88
443.534	13330.57
443.741	13039.76
443.948	12800.15
444.154	13762.69
444.361	13697.16
444.568	13854.85
444.774	13867.14
444.981	13860.99
445.187	14428.28
445.394	14776.44
445.6	14817.4
445.807	16468.06
446.013	15470.7
446.22	15863.91
446.426	16371.8
446.633	16734.29
446.839	17188.94
447.046	16451.67
447.252	17623.11
447.459	17526.86
447.665	17471.56
447.871	18266.17
448.078	19363.89
448.284	18106.43
448.491	18784.31
448.697	19345.45
448.903	19882.02
449.11	19697.7
449.316	19507.24
449.522	19740.71
449.728	20561.95
449.935	20523.04
450.141	20549.66
450.347	21280.78
450.553	20408.35
450.76	20875.29
450.966	21522.44
451.172	21131.28
451.378	21884.94
451.584	21407.76
451.791	21960.71
451.997	21946.37
452.203	22274.05
452.409	22444.03
452.615	22202.37
452.821	21295.12
453.027	21129.23
453.233	22554.62
453.44	21432.33
453.646	21686.28
453.852	22063.11
454.058	22038.53
454.264	21614.6
454.47	22239.23
454.676	21413.9
454.882	22001.67
455.088	20099.11
455.294	20652.06
455.5	20946.97
455.705	21166.1
455.911	20443.17
456.117	19916.84
456.323	19634.22
456.529	18778.17
456.735	19509.29
456.941	18845.75
457.147	18726.97
457.352	18135.1
457.558	17999.94
457.764	18196.54
457.97	17756.23
458.176	17371.21
458.381	17332.3
458.587	16511.07
458.793	16797.78
458.999	15558.76
459.204	16767.06
459.41	16310.36
459.616	15360.11
459.821	15323.24
460.027	15263.85
460.233	14979.18
460.438	14545.02
460.644	14327.93
460.85	13783.17
461.055	13525.13
461.261	13525.13
461.466	12556.44
461.672	12220.57
461.878	13183.12
462.083	12286.11
462.289	11813.03
462.494	12001.44
462.7	11276.46
462.905	11077.8
463.111	11491.49
463.316	11493.54
463.522	10936.49
463.727	11430.05
463.932	11227.31
464.138	11206.83
464.343	11405.48
464.549	10811.57
464.754	11264.17
464.959	11110.57
465.165	11139.24
465.37	10584.24
465.575	10174.65
465.781	10842.29
465.986	10762.42
466.191	10442.93
466.397	10285.24
466.602	9726.14
466.807	10031.29
467.012	10209.47
467.218	10010.81
467.423	9851.07
467.628	10102.97
467.833	10424.5
468.038	9957.57
468.244	9793.73
468.449	10102.97
468.654	9722.05
468.859	9867.45
469.064	9631.94
469.269	9361.61
469.474	9554.12
469.679	9511.11
469.885	9406.66
470.09	9554.12
470.295	9302.22
470.5	9390.28
470.705	9160.91
470.91	9031.88
471.115	9105.61
471.32	9099.47
471.525	8986.83
471.73	8958.16
471.935	8636.63
472.139	8542.42
472.344	8843.47
472.549	8616.15
472.754	8419.54
472.959	8157.4
473.164	8120.54
473.369	7930.08
473.574	8200.41
473.778	8368.34
473.983	8055
474.188	8040.67
474.393	7717.09
474.598	7833.82
474.802	7608.55
475.007	7794.91
475.212	7794.91
475.417	7479.52
475.621	7397.6
475.826	7461.09
476.031	7231.72
476.235	7244.01
476.44	7413.99
476.645	7221.48
476.849	7233.77
477.054	7153.9
477.259	6815.98
477.463	7020.78
477.668	6664.43
477.872	7039.21
478.077	6779.12
478.282	6654.19
478.486	6496.5
478.691	6676.72
478.895	6572.27
479.1	6572.27
479.304	6516.98
479.509	6166.78
479.713	6234.36
479.918	6287.61
480.122	6068.47
480.326	6369.52
480.531	6154.49
480.735	6103.29
480.94	6076.66
481.144	6269.17
481.348	6031.61
481.553	6199.54
481.757	5951.74
481.961	6039.8
482.166	6170.87
482.37	6099.19
482.574	5974.27
482.778	6017.27
482.983	6068.47
483.187	5949.69
483.391	5972.22
483.595	6004.99
483.8	5878.01
484.004	6215.93
484.208	5939.45
484.412	6056.18
484.616	6025.47
484.821	5886.2
485.025	5941.5
485.229	5996.79
485.433	5910.78
485.637	5992.7
485.841	5898.49
486.045	5939.45
486.249	6136.06
486.453	5970.17
486.657	6009.08
486.861	6025.47
487.065	5822.72
487.269	5966.07
487.473	5835
487.677	5943.55
487.881	6197.49
488.085	5974.27
488.289	6062.33
488.493	6093.05
488.697	6160.63
488.901	6164.73
489.105	5986.55
489.309	6183.16
489.512	6099.19
489.716	6154.49
489.92	6170.87
490.124	6168.82
490.328	6187.25
490.531	6125.82
490.735	6340.85
490.939	6281.46
491.143	6285.56
491.346	6275.32
491.55	6488.31
491.754	6242.55
491.958	6473.97
492.161	6377.72
492.365	6412.53
492.569	6310.13
492.772	6447.35
492.976	6508.79
493.18	6611.18
493.383	6582.51
493.587	6701.3
493.79	6701.3
493.994	6660.34
494.197	6648.05
494.401	6928.62
494.605	6811.89
494.808	7151.85
495.012	7022.83
495.215	6947.05
495.419	7022.83
495.622	7088.36
495.825	7131.37
496.029	7313.64
496.232	7370.98
496.436	7373.03
496.639	7569.63
496.843	7651.55
497.046	7803.1
497.249	7741.66
497.453	7833.82
497.656	7917.79
497.859	8229.08
498.063	8055
498.266	8253.66
498.469	8208.6
498.673	8351.96
498.876	8532.18
499.079	8536.28
499.282	8466.64
499.485	8642.77
499.689	8919.25
499.892	8839.37
500.095	9035.98
500.298	9173.19
500.501	9019.6
500.705	9289.93
500.908	9330.89
501.111	9670.85
501.314	9330.89
501.517	9633.99
501.72	9939.13
501.923	9896.13
502.126	10090.68
502.329	10211.51
502.532	10346.68
502.735	10313.91
502.938	10596.53
503.141	10727.6
503.344	10883.25
503.547	10731.7
503.75	11065.52
503.953	11362.47
504.156	11395.24
504.359	11462.82
504.562	11593.89
504.765	11579.56
504.968	12101.79
505.17	11995.29
505.373	12226.71
505.576	12398.74
505.779	12390.55
505.982	12566.68
506.185	12798.1
506.387	13058.19
506.59	12933.26
506.793	13154.44
506.996	13205.64
507.198	13625.48
507.401	13600.9
507.604	13731.97
507.807	14280.83
508.009	14377.08
508.212	14196.86
508.415	14467.19
508.617	14473.34
508.82	14690.42
509.022	14618.74
509.225	15294.57
509.428	15122.54
509.63	15388.78
509.833	15376.49
510.035	16068.7
510.238	15843.43
510.44	15827.04
510.643	16480.35
510.845	16400.48
511.048	16406.62
511.25	17070.16
511.453	16834.64
511.655	17598.54
511.858	17336.4
512.06	17651.78
512.262	17707.08
512.465	17956.93
512.667	18006.08
512.87	18362.43
513.072	18538.55
513.274	19111.99
513.477	19009.59
513.679	19181.62
513.881	19318.83
514.084	19611.69
514.286	19666.99
514.488	19779.62
514.69	20322.34
514.893	20391.97
515.095	20365.34
515.297	20533.28
515.499	20951.06
515.701	21047.32
515.904	21225.49
516.106	21557.26
516.308	21651.47
516.51	21907.46
516.712	22005.77
516.914	22192.13
517.116	22831.1
517.318	22681.6
517.52	22618.11
517.722	22910.97
517.925	23169.01
518.127	23873.51
518.329	23867.37
518.531	23652.33
518.733	24485.86
518.935	24461.28
519.136	24825.82
519.338	24954.84
519.54	24870.87
519.742	25126.87
519.944	25464.78
520.146	25821.13
520.348	25927.63
520.55	26038.22
520.752	26240.96
520.954	26699.71
521.155	26357.7
521.357	26972.09
521.559	26959.8
521.761	27783.09
521.963	27627.44
522.164	27781.04
522.366	27858.86
522.568	27795.37
522.77	28043.18
522.971	28956.57
523.173	28481.44
523.375	28716.96
523.576	29093.79
523.778	28780.45
523.98	29577.11
524.181	29099.93
524.383	29245.34
524.584	29931.4
524.786	29747.09
524.988	29767.57
525.189	30410.63
525.391	30205.83
525.592	30674.82
525.794	30384.01
525.995	30480.26
526.197	30760.83
526.398	31002.49
526.6	31197.05
526.801	31557.49
527.003	31403.89
527.204	31315.83
527.406	31852.4
527.607	31733.62
527.808	32180.07
528.01	31287.16
528.211	32016.24
528.412	32462.69
528.614	32309.1
528.815	32419.69
529.016	32599.91
529.218	32229.23
529.419	32403.3
529.62	32714.59
529.822	32821.09
530.023	33089.37
530.224	33085.28
530.425	32464.74
530.626	32763.75
530.828	32913.25
531.029	33206.11
531.23	33093.47
531.431	33068.89
531.632	33075.04
531.833	33101.66
532.035	33380.18
532.236	33142.62
532.437	33439.58
532.638	33105.76
532.839	33273.69
533.04	33257.31
533.241	33183.58
533.442	33498.97
533.643	33873.74
533.844	33376.09
534.045	33943.38
534.246	33484.63
534.447	34094.93
534.648	33599.32
534.849	33918.8
535.05	33431.38
535.251	33806.16
535.451	33415
535.652	33480.53
535.853	33658.71
536.054	33711.95
536.255	34082.64
536.456	33320.79
536.657	34064.21
536.857	33523.54
537.058	33716.05
537.259	33892.18
537.46	34361.16
537.66	33642.32
537.861	33656.66
538.062	33933.14
538.263	33904.46
538.463	33736.53
538.664	33681.24
538.865	33785.68
539.065	33945.42
539.266	33589.08
539.466	34305.87
539.667	33206.11
539.868	34176.84
540.068	33703.76
540.269	33791.83
540.469	33920.85
540.67	33548.12
540.87	33865.55
541.071	33558.36
541.271	34053.97
541.472	33824.59
541.672	33744.72
541.873	33519.45
542.073	33439.58
542.274	34176.84
542.474	33613.65
542.675	33525.59
542.875	33978.19
543.075	34015.05
543.276	33494.87
543.476	33822.55
543.676	33566.55
543.877	33808.21
544.077	33707.86
544.277	33783.63
544.478	33974.09
544.678	33625.94
544.878	33822.55
545.078	33816.4
545.279	33441.62
545.479	33480.53
545.679	33568.6
545.879	33804.11
546.079	33656.66
546.28	33513.3
546.48	33281.88
546.68	33853.26
546.88	33593.17
547.08	33826.64
547.28	33591.12
547.48	33232.73
547.68	33920.85
547.88	33376.09
548.081	33791.83
548.281	33617.75
548.481	33474.39
548.681	33660.76
548.881	33838.93
549.081	33566.55
549.28	33646.42
549.48	33699.67
549.68	33744.72
549.88	33730.39
550.08	33343.32
550.28	33232.73
550.48	33415
550.68	33646.42
550.88	33531.73
551.08	33445.72
551.279	33326.94
551.479	33312.6
551.679	33752.91
551.879	33476.44
552.079	33775.44
552.278	33306.46
552.478	33447.77
552.678	33324.89
552.878	33355.61
553.077	33408.86
553.277	33034.08
553.477	33519.45
553.676	33224.54
553.876	32989.02
554.076	33103.71
554.275	33302.36
554.475	32976.73
554.674	33492.82
554.874	33183.58
555.074	32976.73
555.273	32952.16
555.473	33396.57
555.672	32829.28
555.872	33091.42
556.071	32730.98
556.271	33079.13
556.47	32876.38
556.67	32495.46
556.869	32718.69
557.068	32833.38
557.268	32935.77
557.467	32690.02
557.667	33001.31
557.866	33304.41
558.065	32612.2
558.265	32704.35
558.464	32413.54
558.663	32833.38
558.863	32124.78
559.062	32823.14
559.261	32565.09
559.461	32978.78
559.66	32206.7
559.859	32515.94
560.058	32122.73
560.258	32102.25
560.457	31948.65
560.656	32489.32
560.855	31922.03
561.054	32319.34
561.253	31985.52
561.453	32128.88
561.652	32241.51
561.851	32067.44
562.05	31754.1
562.249	31641.46
562.448	31768.43
562.647	31971.18
562.846	31776.62
563.045	31629.17
563.244	31362.93
563.443	32055.15
563.642	31383.41
563.841	31620.98
564.04	31045.5
564.239	31645.55
564.438	31111.03
564.637	31362.93
564.836	31364.98
565.035	30617.47
565.234	31223.67
565.432	31053.69
565.631	30896
565.83	30840.7
566.029	30797.7
566.228	30494.6
566.427	30531.46
566.625	30738.3
566.824	30455.68
567.023	30502.79
567.222	30320.52
567.42	31018.88
567.619	30392.2
567.818	30523.27
568.016	30099.34
568.215	30576.51
568.414	30300.04
568.612	30664.58
568.811	30056.33
569.01	29869.97
569.208	29466.52
569.407	30019.47
569.605	29792.14
569.804	30297.99
570.002	29652.88
570.201	29611.92
570.4	29663.12
570.598	29607.83
570.797	29196.18
570.995	29468.56
571.193	29187.99
571.392	29749.14
571.59	28985.24
571.789	29005.72
571.987	28852.13
572.186	28784.54
572.384	28657.57
572.582	28862.36
572.781	29054.87
572.979	28172.2
573.177	28708.77
573.376	28530.59
573.574	28514.21
573.772	28125.1
573.971	28329.89
574.169	28174.25
574.367	27920.3
574.565	28290.98
574.763	28190.63
574.962	27971.5
575.16	27731.89
575.358	27930.54
575.556	27635.63
575.754	28106.66
575.952	27080.63
576.151	27852.72
576.349	27504.56
576.547	27400.12
576.745	27299.76
576.943	27344.82
577.141	27342.77
577.339	27398.07
577.537	26798.01
577.735	26757.05
577.933	26611.65
578.131	26871.74
578.329	26750.91
578.527	26384.32
578.725	26990.52
578.923	26904.51
579.121	26351.56
579.319	26445.76
579.516	26372.03
579.714	26412.99
579.912	26279.88
580.11	26159.05
580.308	26042.31
580.506	25980.87
580.704	25786.32
580.901	25862.09
581.099	26378.18
581.297	25505.74
581.495	25558.99
581.692	25794.51
581.89	25483.22
582.088	25685.97
582.285	25417.68
582.483	25378.77
582.681	25407.44
582.878	25405.39
583.076	25188.31
583.274	25208.79
583.471	24983.51
583.669	24887.26
583.866	25161.69
584.064	25010.14
584.262	24737.76
584.459	24938.46
584.657	24661.98
584.854	24856.54
585.052	24129.51
585.249	24590.3
585.447	24422.37
585.644	23959.53
585.841	24043.49
586.039	24223.72
586.236	24037.35
586.434	24088.55
586.631	23928.81
586.828	23918.57
587.026	23695.34
587.223	23642.09
587.42	23799.79
587.618	23597.04
587.815	23556.08
588.012	23560.17
588.21	23439.34
588.407	23642.09
588.604	23212.02
588.801	23326.71
588.999	23345.14
589.196	23007.22
589.393	22728.7
589.59	23015.41
589.787	22671.36
589.984	22757.37
590.182	22386.69
590.379	22794.23
590.576	22505.47
590.773	22818.81
590.97	22358.02
591.167	22394.88
591.364	22263.81
591.561	22505.47
591.758	22126.6
591.955	22079.49
592.152	22401.02
592.349	22009.86
592.546	21870.6
592.743	22083.59
592.94	21745.67
593.137	21848.07
593.334	21796.87
593.531	21391.37
593.727	21628.94
593.924	21766.15
594.121	21297.17
594.318	21555.21
594.515	21301.26
594.712	21463.05
594.908	21258.26
595.105	21194.77
595.302	21069.84
595.499	21174.29
595.696	21188.63
595.892	20901.91
596.089	21149.71
596.286	20949.01
596.482	20832.28
596.679	20781.08
596.876	20715.55
597.072	20652.06
597.269	20744.22
597.466	20174.88
597.662	20221.98
597.859	20578.33
598.055	20246.56
598.252	20101.15
598.448	20205.6
598.645	20076.58
598.841	19976.23
599.038	19910.69
599.234	19957.8
599.431	19849.25
599.627	19898.41
599.824	19890.21
600.02	19818.53
600.217	19769.38
600.413	19451.95
600.609	19249.2
600.806	19177.52
601.002	19425.32
601.198	19335.21
601.395	19066.93
601.591	18849.85
601.787	19163.18
601.984	19234.86
602.18	19337.26
602.376	18892.85
602.572	18890.81
602.769	18956.34
602.965	18718.78
603.161	18645.05
603.357	18571.32
603.553	18726.97
603.75	18653.24
603.946	18468.92
604.142	18548.79
604.338	18210.88
604.534	18581.56
604.73	18344
604.926	18284.61
605.122	18198.59
605.318	17979.46
605.514	17731.65
605.71	17817.67
605.906	17834.05
606.102	17991.75
606.298	17875.01
606.494	17762.37
606.69	17717.32
606.886	17692.74
607.082	17674.31
607.278	17860.68
607.474	17457.23
607.67	17745.99
607.866	17166.42
608.062	17633.35
608.257	17283.15
608.453	17430.6
608.649	17406.03
608.845	17223.76
609.041	17211.47
609.236	17205.33
609.432	17223.76
609.628	17223.76
609.824	17023.06
610.019	16836.69
610.215	16670.81
610.411	16832.6
610.606	16918.61
610.802	16730.2
610.998	16896.08
611.193	16668.76
611.389	16584.79
611.584	16707.67
611.78	16726.1
611.976	16416.86
612.171	16642.14
612.367	16578.65
612.562	16236.64
612.758	16175.2
612.953	16314.46
613.149	16392.28
613.344	16310.36
613.539	16533.59
613.735	16156.77
613.93	16148.57
614.126	16017.5
614.321	16269.41
614.517	16230.49
614.712	15982.69
614.907	15796.32
615.103	16130.14
615.298	15898.72
615.493	16146.53
615.688	15765.6
615.884	16048.22
616.079	15894.63
616.274	15532.14
616.47	15485.03
616.665	15685.73
616.86	15671.4
617.055	15650.92
617.25	15618.15
617.445	15511.66
617.641	15263.85
617.836	15341.68
618.031	15251.56
618.226	15569
618.421	15274.09
618.616	15444.07
618.811	14844.02
619.006	15356.01
619.201	14827.64
619.396	14954.61
619.591	14651.51
619.786	14913.65
619.981	14893.17
620.176	14733.43
620.371	14704.76
620.566	14708.85
620.761	14684.28
620.956	14610.55
621.151	14590.07
621.346	14352.51
621.541	13977.73
621.735	14409.85
621.93	14049.41
622.125	14082.17
622.32	13695.11
622.515	14114.94
622.709	13832.32
622.904	13762.69
623.099	13992.06
623.294	13779.08
623.488	13451.4
623.683	13375.63
623.878	13402.25
624.072	13467.78
624.267	13455.5
624.462	13308.04
624.656	13318.28
624.851	13101.2
625.046	13111.44
625.24	12849.3
625.435	12892.3
625.629	12763.28
625.824	12408.98
626.018	12691.6
626.213	12683.41
626.407	12673.17
626.602	12404.89
626.796	12382.36
626.991	12454.04
627.185	12310.68
627.38	12177.56
627.574	12292.25
627.768	11944.1
627.963	11935.9
628.157	11980.96
628.352	11823.26
628.546	12062.88
628.74	11665.57
628.935	11626.66
629.129	11667.62
629.323	11681.96
629.517	11436.2
629.712	11436.2
629.906	11382.95
630.1	11311.27
630.294	11243.69
630.489	11274.41
630.683	11374.76
630.877	10993.84
631.071	10733.75
631.265	11075.76
631.459	10920.11
631.653	10774.7
631.848	10834.1
632.042	10813.62
632.236	10485.94
632.43	10578.1
632.624	10518.71
632.818	10463.41
633.012	10440.89
633.206	10332.34
633.4	10387.64
633.594	10324.15
633.788	10305.72
633.982	10346.68
634.176	10264.76
634.369	10109.12
634.563	10043.58
634.757	9957.57
634.951	9898.17
635.145	9863.36
635.339	9844.93
635.533	9949.37
635.726	9863.36
635.92	9582.79
636.114	9511.11
636.308	9543.88
636.501	9711.81
636.695	9601.22
636.889	9332.93
637.083	9242.82
637.276	9429.19
637.47	9283.78
637.664	9388.23
637.857	9289.93
638.051	9160.91
638.244	9107.66
638.438	9226.44
638.632	8970.44
638.825	8999.12
639.019	9021.64
639.212	8831.18
639.406	8753.36
639.599	8642.77
639.793	8724.69
639.986	8538.32
640.18	8757.46
640.373	8358.1
640.567	8413.4
640.76	8511.7
640.954	8442.07
641.147	8325.33
641.34	8282.33
641.534	8227.03
641.727	8306.9
641.92	8243.42
642.114	8272.09
642.307	7938.27
642.5	8003.8
642.694	7942.36
642.887	7891.16
643.08	7983.32
643.273	7848.16
643.467	7710.94
643.66	7581.92
643.853	7885.02
644.046	7577.83
644.239	7610.59
644.432	7532.77
644.626	7491.81
644.819	7473.38
645.012	7598.31
645.205	7227.62
645.398	7387.36
645.591	7268.58
645.784	7174.38
645.977	7168.23
646.17	7123.18
646.363	7258.34
646.556	6893.8
646.749	7119.08
646.942	7045.35
647.135	7026.92
647.328	6846.7
647.521	6838.51
647.714	7004.39
647.907	6799.6
648.099	6791.41
648.292	6793.45
648.485	6586.61
648.678	6465.78
648.871	6586.61
649.064	6594.8
649.256	6471.92
649.449	6308.09
649.642	6590.7
649.835	6271.22
650.027	6412.53
650.22	6365.43
650.413	6267.13
650.605	6318.32
650.798	6414.58
650.991	6187.25
651.183	6316.28
651.376	6131.96
651.568	6025.47
651.761	6070.52
651.954	5966.07
652.146	5957.88
652.339	6047.99
652.531	5988.6
652.724	5941.5
652.916	5699.84
653.109	5849.34
653.301	5880.06
653.494	5734.65
653.686	5595.39
653.879	5781.76
654.071	5802.24
654.263	5632.26
654.456	5591.3
654.648	5611.78
654.84	5513.47
655.033	5531.9
655.225	5554.43
655.417	5335.3
655.61	5263.62
655.802	5456.13
655.994	5458.18
656.186	5396.74
656.379	5333.25
656.571	5310.72
656.763	5173.51
656.955	5148.93
657.148	5079.3
657.34	5189.89
657.532	5026.06
657.724	4956.43
657.916	5056.78
658.108	5024.01
658.3	4972.81
658.492	4974.86
658.684	5040.39
658.876	4780.3
659.068	4802.83
659.26	4892.94
659.452	4972.81
659.644	4673.81
659.836	4860.17
660.028	4616.46
660.22	4628.75
660.412	4761.87
660.604	4622.61
660.796	4763.92
660.988	4563.22
661.18	4546.83
661.372	4477.2
661.563	4604.18
661.755	4284.69
661.947	4319.51
662.139	4335.89
662.331	4329.75
662.522	4382.99
662.714	4276.5
662.906	4075.8
663.097	4196.63
663.289	4268.31
663.481	4145.43
663.673	4202.77
663.864	4006.17
664.056	4004.12
664.247	4088.09
664.439	4016.41
664.631	4008.22
664.822	4071.7
665.014	4020.5
665.205	4008.22
665.397	3844.38
665.588	3940.63
665.78	3784.99
665.971	3883.29
666.163	4000.02
666.354	3893.53
666.546	3883.29
666.737	3655.97
666.929	3789.08
667.12	3645.73
667.311	3752.22
667.503	3617.05
667.694	3713.31
667.885	3526.94
668.077	3715.36
668.268	3572
668.459	3590.43
668.651	3512.61
668.842	3539.23
669.033	3428.64
669.224	3561.76
669.416	3576.09
669.607	3406.11
669.798	3434.78
669.989	3465.5
670.18	3342.63
670.371	3383.59
670.563	3447.07
670.754	3359.01
670.945	3293.48
671.136	3240.23
671.327	3275.04
671.518	3234.08
671.709	3293.48
671.9	3168.55
672.091	3268.9
672.282	3305.76
672.473	3115.3
672.664	3283.24
672.855	3133.73
673.046	3182.88
673.237	3146.02
673.428	3150.12
673.619	3172.64
673.809	3182.88
674	3064.1
674.191	3111.21
674.382	3098.92
674.573	3047.72
674.764	2988.33
674.954	3096.87
675.145	2992.42
675.336	2959.66
675.527	3014.95
675.717	2943.27
675.908	3105.06
676.099	2892.07
676.289	2855.21
676.48	2834.73
676.671	2986.28
676.861	2814.25
677.052	2930.98
677.243	2879.79
677.433	2933.03
677.624	2943.27
677.814	2867.5
678.005	2859.31
678.195	2902.31
678.386	2826.54
678.576	2822.44
678.767	2703.66
678.957	2789.67
679.148	2867.5
679.338	2924.84
679.529	2822.44
679.719	2826.54
679.909	2980.14
680.1	2810.15
680.29	2810.15
680.481	2689.32
680.671	2902.31
680.861	2801.96
681.052	2763.05
681.242	2703.66
681.432	2904.36
681.622	2640.17
681.813	2820.39
682.003	2728.24
682.193	2797.87
682.383	2738.48
682.573	2681.13
682.764	2720.04
682.954	2777.39
683.144	2867.5
683.334	2625.84
683.524	2758.96
683.714	2724.14
683.904	2718
684.094	2744.62
684.284	2748.72
684.474	2746.67
684.664	2871.59
684.854	2691.37
685.044	2740.52
685.234	2631.98
685.424	2629.93
685.614	2562.35
685.804	2646.32
685.994	2744.62
686.184	2572.59
686.374	2654.51
686.564	2695.47
686.753	2591.02
686.943	2650.41
687.133	2548.01
687.323	2654.51
687.513	2646.32
687.702	2521.39
687.892	2507.06
688.082	2543.92
688.272	2474.29
688.461	2625.84
688.651	2537.77
688.841	2556.21
689.03	2537.77
689.22	2449.71
689.41	2507.06
689.599	2515.25
689.789	2416.94
689.979	2543.92
690.168	2523.44
690.358	2367.79
690.547	2468.14
690.737	2605.36
690.926	2484.53
691.116	2511.15
691.305	2404.66
691.495	2347.31
691.684	2449.71
691.874	2380.08
692.063	2500.91
692.252	2525.49
692.442	2548.01
692.631	2386.22
692.82	2416.94
693.01	2375.99
693.199	2435.38
693.388	2339.12
693.578	2396.46
693.767	2375.99
693.956	2394.42
694.146	2343.22
694.335	2314.55
694.524	2294.07
694.713	2380.08
694.902	2343.22
695.092	2445.62
695.281	2343.22
695.47	2361.65
695.659	2441.52
695.848	2359.6
696.037	2302.26
696.226	2285.87
696.415	2289.97
696.604	2328.88
696.793	2314.55
696.982	2447.66
697.171	2251.06
697.36	2249.01
697.549	2257.2
697.738	2275.63
697.927	2187.57
698.116	2228.53
698.305	2261.3
698.494	2316.59
698.683	2132.28
698.872	2238.77
699.061	2257.2
699.25	2236.72
699.438	2136.37
699.627	2218.29
699.816	2212.15
700.005	2144.56
700.193	2240.82
700.382	2343.22
700.571	2287.92
700.76	2173.24
700.948	2244.92
701.137	2083.13
701.326	2189.62
701.514	2206
701.703	2228.53
701.892	2201.91
702.08	2302.26
702.269	2201.91
702.457	2181.43
702.646	2187.57
702.834	2199.86
703.023	2126.13
703.212	2122.04
703.4	2163
703.589	2152.76
703.777	2132.28
703.965	2103.61
704.154	2068.79
704.342	2140.47
704.531	2072.89
704.719	2163
704.907	2195.76
705.096	2163
705.284	2068.79
705.472	2068.79
705.661	2101.56
705.849	2189.62
706.037	2023.73
706.226	2146.61
706.414	2089.27
706.602	2134.32
706.79	2218.29
706.979	2171.19
707.167	1958.2
707.355	2105.65
707.543	2171.19
707.731	2152.76
707.919	2074.93
708.107	2048.31
708.296	1974.58
708.484	1997.11
708.672	2087.22
708.86	2093.37
709.048	2076.98
709.236	1941.82
709.424	2038.07
709.612	1999.16
709.8	1974.58
709.988	1995.06
710.176	2072.89
710.364	1935.67
710.551	1960.25
710.739	1995.06
710.927	2007.35
711.115	1966.39
711.303	1851.71
711.491	2081.08
711.679	2031.93
711.866	2015.54
712.054	1970.49
712.242	1935.67
712.43	2109.75
712.617	1943.86
712.805	1843.51
712.993	1837.37
713.181	1837.37
713.368	1982.78
713.556	1937.72
713.744	1863.99
713.931	1950.01
714.119	1878.33
714.306	1837.37
714.494	1890.62
714.682	1810.75
714.869	1970.49
715.057	1900.86
715.244	1907
715.432	1900.86
715.619	1884.47
715.807	1943.86
715.994	1892.66
716.182	1941.82
716.369	1958.2
716.556	1835.32
716.744	1900.86
716.931	1847.61
717.119	1829.18
717.306	1810.75
717.493	1882.42
717.681	1917.24
717.868	1929.53
718.055	1956.15
718.242	1837.37
718.43	1861.94
718.617	1904.95
718.804	1790.27
718.991	1810.75
719.179	1818.94
719.366	1829.18
719.553	1861.94
719.74	1806.65
719.927	1839.42
720.114	1798.46
720.301	1745.21
720.488	1790.27
720.676	1741.11
720.863	1773.88
721.05	1751.35
721.237	1829.18
721.424	1720.64
721.611	1751.35
721.798	1737.02
721.985	1687.87
722.172	1739.07
722.358	1737.02
722.545	1753.4
722.732	1747.26
722.919	1747.26
723.106	1810.75
723.293	1724.73
723.48	1818.94
723.667	1691.96
723.853	1812.79
724.04	1743.16
724.227	1798.46
724.414	1728.83
724.6	1743.16
724.787	1734.97
724.974	1792.31
725.161	1771.83
725.347	1784.12
725.534	1640.76
725.72	1737.02
725.907	1706.3
726.094	1708.35
726.28	1737.02
726.467	1595.71
726.653	1691.96
726.84	1794.36
727.027	1810.75
727.213	1796.41
727.4	1782.07
727.586	1743.16
727.773	1741.11
727.959	1663.29
728.145	1640.76
728.332	1741.11
728.518	1700.16
728.705	1655.1
728.891	1679.68
729.077	1550.65
729.264	1548.61
729.45	1724.73
729.636	1777.98
729.823	1761.59
730.009	1712.44
730.195	1646.91
730.382	1732.92
730.568	1720.64
730.754	1632.57
730.94	1706.3
731.126	1784.12
731.313	1622.33
731.499	1689.92
731.685	1700.16
731.871	1753.4
732.057	1696.06
732.243	1669.44
732.429	1651
732.615	1757.5
732.801	1630.52
732.987	1636.67
733.173	1577.28
733.359	1620.28
733.545	1655.1
733.731	1538.37
733.917	1646.91
734.103	1589.57
734.289	1698.11
734.475	1651
734.661	1591.61
734.847	1644.86
735.033	1550.65
735.219	1599.8
735.404	1622.33
735.59	1591.61
735.776	1499.45
735.962	1720.64
736.148	1515.84
736.333	1698.11
736.519	1640.76
736.705	1564.99
736.89	1505.6
737.076	1577.28
737.262	1556.8
737.447	1485.12
737.633	1532.22
737.819	1462.59
738.004	1515.84
738.19	1427.78
738.375	1526.08
738.561	1511.74
738.747	1507.65
738.932	1573.18
739.118	1470.78
739.303	1470.78
739.489	1483.07
739.674	1515.84
739.859	1493.31
740.045	1515.84
740.23	1526.08
740.416	1413.44
740.601	1585.47
740.786	1382.72
740.972	1370.43
741.157	1550.65
741.342	1356.1
741.528	1466.69
741.713	1376.58
741.898	1460.54
742.084	1354.05
742.269	1429.82
742.454	1403.2
742.639	1442.11
742.824	1444.16
743.01	1356.1
743.195	1384.77
743.38	1265.99
743.565	1388.86
743.75	1392.96
743.935	1417.54
744.12	1384.77
744.305	1347.9
744.49	1378.62
744.675	1241.41
744.86	1327.43
745.045	1384.77
745.23	1311.04
745.415	1247.55
745.6	1335.62
745.785	1343.81
745.97	1331.52
746.155	1362.24
746.34	1319.23
746.525	1268.03
746.71	1290.56
746.895	1311.04
747.079	1253.7
747.264	1270.08
747.449	1372.48
747.634	1296.71
747.819	1130.82
748.003	1245.51
748.188	1188.16
748.373	1261.89
748.557	1245.51
748.742	1261.89
748.927	1153.35
749.111	1151.3
749.296	1098.05
749.481	1182.02
749.665	1147.2
749.85	1173.83
750.034	1165.64
750.219	1159.49
750.404	1139.01
750.588	1155.4
750.773	1177.92
750.957	1106.24
751.141	1100.1
751.326	1157.44
751.51	1032.52
751.695	1053
751.879	1063.24
752.064	1159.49
752.248	1085.76
752.432	1067.33
752.617	954.69
752.801	1130.82
752.985	1003.85
753.17	1024.33
753.354	1042.76
753.538	1044.81
753.722	954.69
753.907	1053
754.091	901.45
754.275	958.79
754.459	928.07
754.643	952.65
754.828	1067.33
755.012	971.08
755.196	977.22
755.38	1016.13
755.564	966.98
755.748	827.72
755.932	917.83
756.116	897.35
756.3	934.22
756.484	868.68
756.668	852.3
756.852	860.49
757.036	899.4
757.22	952.65
757.404	876.87
757.588	907.59
757.772	889.16
757.956	868.68
758.14	870.73
758.323	797
758.507	905.54
758.691	840.01
758.875	880.97
759.059	835.91
759.242	764.23
759.426	829.77
759.61	698.7
759.794	840.01
759.977	813.38
760.161	880.97
760.345	809.29
760.528	850.25
760.712	803.15
760.895	758.09
761.079	682.31
761.263	741.71
761.446	819.53
761.63	756.04
761.813	731.47
761.997	745.8
762.18	797
762.364	756.04
762.547	651.6
762.731	696.65
762.914	723.27
763.098	713.03
763.281	717.13
763.464	729.42
763.648	672.08
763.831	739.66
764.015	758.09
764.198	821.58
764.381	766.28
764.564	811.34
764.748	663.88
764.931	704.84
765.114	733.51
765.297	729.42
765.481	647.5
765.664	749.9
765.847	643.4
766.03	745.8
766.213	690.51
766.397	657.74
766.58	590.16
766.763	739.66
766.946	657.74
767.129	672.08
767.312	594.25
767.495	670.03
767.678	708.94
767.861	667.98
768.044	624.97
768.227	731.47
768.41	733.51
768.593	610.64
768.776	708.94
768.959	684.36
769.142	676.17
769.324	655.69
769.507	604.49
769.69	598.35
769.873	667.98
770.056	608.59
770.239	659.79
770.421	633.16
770.604	604.49
770.787	639.31
770.97	719.18
771.152	567.63
771.335	672.08
771.518	655.69
771.7	553.29
771.883	686.41
772.066	639.31
772.248	584.01
772.431	637.26
772.613	659.79
772.796	565.58
772.978	606.54
773.161	561.48
773.343	534.86
773.526	502.09
773.708	493.9
773.891	477.52
774.073	500.05
774.256	459.09
774.438	682.31
774.621	594.25
774.803	543.05
774.985	508.24
775.168	541.01
775.35	594.25
775.532	532.81
775.715	493.9
775.897	536.91
776.079	588.11
776.261	532.81
776.444	534.86
776.626	487.76
776.808	479.57
776.99	442.7
777.173	461.13
777.355	485.71
777.537	461.13
777.719	461.13
777.901	438.61
778.083	452.94
778.265	487.76
778.447	547.15
778.629	504.14
778.811	524.62
778.993	469.33
779.175	532.81
779.357	444.75
779.539	457.04
779.721	381.26
779.903	387.41
780.085	450.89
780.267	473.42
780.449	459.09
780.631	444.75
780.812	467.28
780.994	381.26
781.176	403.79
781.358	348.5
781.54	330.06
781.721	532.81
781.903	442.7
782.085	471.37
782.267	407.89
782.448	416.08
782.63	346.45
782.812	377.17
782.993	348.5
783.175	467.28
783.357	389.46
783.538	368.98
783.72	418.13
783.901	403.79
784.083	434.51
784.264	268.63
784.446	334.16
784.627	344.4
784.809	307.54
784.99	366.93
785.172	393.55
785.353	432.46
785.535	383.31
785.716	323.92
785.897	328.02
786.079	287.06
786.26	350.54
786.441	373.07
786.623	350.54
786.804	328.02
786.985	319.82
787.167	303.44
787.348	315.73
787.529	393.55
787.71	407.89
787.891	305.49
788.073	274.77
788.254	295.25
788.435	340.3
788.616	395.6
788.797	278.87
788.978	350.54
789.159	254.29
789.34	319.82
789.522	278.87
789.703	332.11
789.884	338.26
790.065	262.48
790.246	311.63
790.427	256.34
790.607	315.73
790.788	352.59
790.969	190.8
791.15	264.53
791.331	223.57
791.512	223.57
791.693	205.14
791.874	262.48
792.054	264.53
792.235	319.82
792.416	229.71
792.597	231.76
792.778	272.72
792.958	266.58
793.139	246.1
793.32	311.63
793.5	262.48
793.681	328.02
793.862	205.14
794.042	303.44
794.223	274.77
794.404	264.53
794.584	196.95
794.765	221.52
794.945	227.67
795.126	239.95
795.306	262.48
795.487	340.3
795.667	225.62
795.848	289.1
796.028	205.14
796.209	239.95
796.389	246.1
796.57	207.19
796.75	180.56
796.93	209.23
797.111	106.84
797.291	313.68
797.471	250.19
797.652	237.91
797.832	213.33
798.012	190.8
798.192	264.53
798.373	194.9
798.553	209.23
798.733	205.14
798.913	180.56
799.093	155.99
799.274	233.81
799.454	147.8
799.634	242
799.814	289.1
799.994	229.71
800.174	207.19
800.354	231.76
800.534	198.99
800.714	102.74
800.894	196.95
801.074	160.08
801.254	248.15
801.434	239.95
801.614	246.1
801.794	174.42
801.974	760.14
802.154	198.99
802.334	229.71
802.514	176.47
802.693	139.6
802.873	174.42
803.053	155.99
803.233	143.7
803.413	256.34
803.592	100.69
803.772	145.75
803.952	117.08
804.131	102.74
804.311	78.16
804.491	289.1
804.67	123.22
804.85	74.07
805.03	168.27
805.209	164.18
805.389	176.47
805.568	184.66
805.748	80.21
805.928	133.46
806.107	135.51
806.287	155.99
806.466	186.71
806.646	174.42
806.825	86.36
807.004	176.47
807.184	221.52
807.363	115.03
807.543	135.51
807.722	129.36
807.901	162.13
808.081	164.18
808.26	117.08
808.439	270.67
808.619	153.94
808.798	112.98
808.977	217.43
809.156	164.18
809.336	182.61
809.515	147.8
809.694	86.36
809.873	131.41
810.052	174.42
810.231	186.71
810.411	141.65
810.59	92.5
810.769	123.22
810.948	117.08
811.127	51.54
811.306	49.49
811.485	106.84
811.664	205.14
811.843	127.32
812.022	119.12
812.201	155.99
812.38	166.23
812.559	135.51
812.737	115.03
812.916	110.93
813.095	69.97
813.274	209.23
813.453	135.51
813.632	43.35
813.811	125.27
813.989	65.88
814.168	106.84
814.347	96.6
814.526	141.65
814.704	100.69
814.883	188.75
815.062	47.44
815.24	98.64
815.419	82.26
815.598	90.45
815.776	102.74
815.955	119.12
816.133	65.88
816.312	78.16
816.49	149.84
816.669	133.46
816.847	39.25
817.026	123.22
817.204	29.01
817.383	139.6
817.561	2.39
817.74	108.88
817.918	115.03
818.097	57.68
818.275	108.88
818.453	106.84
818.632	164.18
818.81	131.41
818.988	112.98
819.167	139.6
819.345	168.27
819.523	61.78
819.701	57.68
819.879	149.84
820.058	112.98
820.236	151.89
820.414	82.26
820.592	139.6
820.77	49.49
820.948	41.3
821.127	-7.85
821.305	65.88
821.483	92.5
821.661	211.28
821.839	172.37
822.017	55.64
822.195	69.97
822.373	108.88
822.551	76.12
822.729	37.2
822.907	98.64
823.085	192.85
823.262	59.73
823.44	65.88
823.618	49.49
823.796	147.8
823.974	31.06
824.152	115.03
824.329	90.45
824.507	63.83
824.685	92.5
824.863	88.4
825.04	74.07
825.218	100.69
825.396	47.44
825.574	98.64
825.751	86.36
825.929	108.88
826.107	14.68
826.284	176.47
826.462	110.93
826.639	67.92
826.817	0.34
826.994	106.84
827.172	16.73
827.349	90.45
827.527	2.39
827.704	92.5
827.882	74.07
828.059	43.35
828.237	78.16
828.414	92.5
828.591	-5.8
828.769	147.8
828.946	41.3
829.124	108.88
829.301	49.49
829.478	35.16
829.655	94.55
829.833	98.64
830.01	43.35
830.187	67.92
830.364	86.36
830.542	102.74
830.719	149.84
830.896	94.55
831.073	76.12
831.25	51.54
831.427	49.49
831.604	67.92
831.782	69.97
831.959	104.79
832.136	84.31
832.313	88.4
832.49	31.06
832.667	127.32
832.844	-20.14
833.021	67.92
833.198	65.88
833.374	139.6
833.551	29.01
833.728	65.88
833.905	92.5
834.082	29.01
834.259	135.51
834.436	76.12
834.612	-71.34
834.789	53.59
834.966	10.58
835.143	96.6
835.319	29.01
835.496	92.5
835.673	108.88
835.85	84.31
836.026	119.12
836.203	115.03
836.38	65.88
836.556	-18.09
836.733	74.07
836.909	74.07
837.086	0.34
837.262	41.3
837.439	41.3
837.616	67.92
837.792	84.31
837.968	84.31
838.145	24.92
838.321	35.16
838.498	41.3
838.674	29.01
838.851	37.2
839.027	90.45
839.203	24.92
839.38	65.88
839.556	45.4
839.732	57.68
839.909	59.73
840.085	98.64
840.261	84.31
840.437	-5.8
840.614	-3.75
840.79	45.4
840.966	41.3
841.142	43.35
841.318	24.92
841.494	76.12
841.671	92.5
841.847	84.31
842.023	12.63
842.199	82.26
842.375	92.5
842.551	0.34
842.727	35.16
842.903	151.89
843.079	16.73
843.255	123.22
843.431	31.06
843.607	59.73
843.783	-28.33
843.959	43.35
844.134	74.07
844.31	57.68
844.486	39.25
844.662	24.92
844.838	33.11
845.013	98.64
845.189	119.12
845.365	31.06
845.541	78.16
845.716	69.97
845.892	10.58
846.068	98.64
846.244	67.92
846.419	59.73
846.595	18.77
846.77	106.84
846.946	-32.43
847.122	26.96
847.297	-32.43
847.473	121.17
847.648	6.49
847.824	37.2
847.999	-7.85
848.175	-11.95
848.35	-16.04
848.526	41.3
848.701	90.45
848.876	61.78
849.052	53.59
849.227	18.77
849.403	8.53
849.578	47.44
849.753	41.3
849.929	55.64
850.104	-7.85
850.279	10.58
850.454	92.5
850.63	26.96
850.805	82.26
850.98	26.96
851.155	45.4
851.33	100.69
851.505	98.64
851.681	90.45
851.856	65.88
852.031	102.74
852.206	53.59
852.381	65.88
852.556	-26.28
852.731	29.01
852.906	18.77
853.081	65.88
853.256	69.97
853.431	-32.43
853.606	-24.23
853.781	24.92
853.956	-7.85
854.131	4.44
854.305	-38.57
854.48	76.12
854.655	51.54
854.83	16.73
855.005	65.88
855.18	76.12
855.354	-30.38
855.529	-46.76
855.704	45.4
855.879	43.35
856.053	26.96
856.228	22.87
856.403	-28.33
856.577	96.6
856.752	-24.23
856.926	-5.8
857.101	69.97
857.276	29.01
857.45	20.82
857.625	33.11
857.799	59.73
857.974	41.3
858.148	35.16
858.323	84.31
858.497	45.4
858.672	6.49
858.846	16.73
859.02	41.3
859.195	-5.8
859.369	24.92
859.543	74.07
859.718	26.96
859.892	12.63
860.066	24.92
860.241	35.16
860.415	-59.05
860.589	16.73
860.763	0.34
860.938	-11.95
861.112	59.73
861.286	55.64
861.46	131.41
861.634	37.2
861.808	33.11
861.982	22.87
862.157	33.11
862.331	-26.28
862.505	26.96
862.679	0.34
862.853	24.92
863.027	78.16
863.201	84.31
863.375	24.92
863.549	-7.85
863.722	10.58
863.896	20.82
864.07	-3.75
864.244	37.2
864.418	67.92
864.592	57.68
864.766	51.54
864.939	92.5
865.113	53.59
865.287	26.96
865.461	-46.76
865.634	18.77
865.808	18.77
865.982	43.35
866.156	12.63
866.329	-7.85
866.503	55.64
866.676	26.96
866.85	-11.95
867.024	-40.62
867.197	-5.8
867.371	18.77
867.544	16.73
867.718	10.58
867.891	57.68
868.065	0.34
868.238	33.11
868.412	98.64
868.585	-26.28
868.759	0.34
868.932	-20.14
869.105	-24.23
869.279	-24.23
869.452	-36.52
869.625	0.34
869.799	8.53
869.972	6.49
870.145	8.53
870.319	12.63
870.492	22.87
870.665	12.63
870.838	8.53
871.011	-48.81
871.185	18.77
871.358	61.78
871.531	-3.75
871.704	-11.95
871.877	49.49
872.05	35.16
872.223	-40.62
872.396	69.97
872.569	-24.23
872.742	-87.72
872.915	57.68
873.088	2.39
873.261	4.44
873.434	24.92
873.607	-5.8
873.78	78.16
873.953	24.92
874.126	8.53
874.299	-11.95
874.471	-24.23
874.644	8.53
874.817	49.49
874.99	8.53
875.163	0.34
875.335	12.63
875.508	59.73
875.681	63.83
875.853	4.44
876.026	43.35
876.199	65.88
876.371	10.58
876.544	2.39
876.717	29.01
876.889	-30.38
877.062	24.92
877.234	-16.04
877.407	0.34
877.579	24.92
877.752	92.5
877.924	33.11
878.097	24.92
878.269	-38.57
878.442	26.96
878.614	49.49
878.786	110.93
878.959	49.49
879.131	24.92
879.303	-30.38
879.476	16.73
879.648	94.55
879.82	24.92
879.993	43.35
880.165	-7.85
880.337	59.73
880.509	22.87
880.681	-11.95
880.854	-11.95
881.026	39.25
881.198	59.73
881.37	-16.04
881.542	57.68
881.714	24.92
881.886	8.53
882.058	100.69
882.23	57.68
882.402	24.92
882.574	67.92
882.746	8.53
882.918	106.84
883.09	51.54
883.262	-52.91
883.434	18.77
883.606	-73.39
883.778	49.49
883.95	51.54
884.122	12.63
884.293	-5.8
884.465	4.44
884.637	37.2
884.809	6.49
884.98	72.02
885.152	41.3
885.324	14.68
885.496	33.11
885.667	22.87
885.839	22.87
886.011	100.69
886.182	33.11
886.354	31.06
886.525	-16.04
886.697	57.68
886.869	53.59
887.04	78.16
887.212	18.77
887.383	125.27
887.555	43.35
887.726	-11.95
887.897	-28.33
888.069	-13.99
888.24	45.4
888.412	-40.62
888.583	-11.95
888.754	12.63
888.926	35.16
889.097	33.11
889.268	-50.86
889.44	37.2
889.611	-65.19
889.782	26.96
889.953	18.77
890.125	35.16
890.296	82.26
890.467	-16.04
890.638	41.3
890.809	-5.8
890.98	0.34
891.151	8.53
891.323	8.53
891.494	-16.04
891.665	41.3
891.836	0.34
892.007	-28.33
892.178	22.87
892.349	35.16
892.52	-42.67
892.691	-28.33
892.862	-9.9
893.032	20.82
893.203	-18.09
893.374	45.4
893.545	74.07
893.716	-5.8
893.887	43.35
894.057	-22.19
894.228	4.44
894.399	33.11
894.57	49.49
894.74	-20.14
894.911	0.34
895.082	-18.09
895.253	14.68
895.423	26.96
895.594	-3.75
895.764	20.82
895.935	-32.43
896.106	33.11
896.276	57.68
896.447	-32.43
896.617	0.34
896.788	-28.33
896.958	39.25
897.129	0.34
897.299	-65.19
897.47	2.39
897.64	4.44
897.81	45.4
897.981	-1.71
898.151	14.68
898.322	92.5
898.492	8.53
898.662	0.34
898.832	59.73
899.003	-20.14
899.173	53.59
899.343	16.73
899.513	31.06
