Data from USB4F104151__256__14-45-58-201.txt Node

Date: Thu Mar 13 14:45:58 EDT 2025
User: louis
Spectrometer: USB4F10415
Trigger mode: 4
Integration Time (sec): 2.000000E-2
Scans to average: 1
Electric dark correction enabled: true
Nonlinearity correction enabled: false
Boxcar width: 0
XAxis mode: Wavelengths
Number of Pixels in Spectrum: 3648
>>>>>Begin Spectral Data<<<<<
178.204	-119.64
178.424	-119.64
178.644	-119.64
178.864	-80.72
179.084	-154.45
179.304	-80.72
179.524	-15.19
179.744	9.39
179.964	17.58
180.184	17.58
180.404	-15.19
180.624	-9.05
180.844	42.15
181.064	62.63
181.283	-45.91
181.503	-47.96
181.723	64.68
181.943	-39.76
182.163	111.78
182.383	17.58
182.602	56.49
182.822	76.97
183.042	15.53
183.262	-7
183.482	-4.95
183.701	-7
183.921	-7
184.141	72.87
184.361	93.35
184.58	-29.52
184.8	-25.43
185.02	-19.29
185.239	58.54
185.459	66.73
185.679	91.31
185.898	-31.57
186.118	-0.85
186.338	5.29
186.557	93.35
186.777	1.19
186.997	36.01
187.216	5.29
187.436	76.97
187.655	21.67
187.875	83.11
188.095	-31.57
188.314	50.35
188.534	11.43
188.753	60.59
188.973	42.15
189.192	23.72
189.412	54.44
189.631	50.35
189.851	3.24
190.07	83.11
190.29	-45.91
190.509	58.54
190.729	17.58
190.948	74.92
191.168	119.98
191.387	9.39
191.607	42.15
191.826	5.29
192.045	21.67
192.265	9.39
192.484	1.19
192.704	85.16
192.923	1.19
193.142	89.26
193.362	3.24
193.581	36.01
193.8	83.11
194.02	29.87
194.239	-45.91
194.458	42.15
194.678	-11.09
194.897	58.54
195.116	42.15
195.335	46.25
195.555	85.16
195.774	60.59
195.993	62.63
196.212	93.35
196.432	27.82
196.651	-21.33
196.87	29.87
197.089	40.11
197.308	1.19
197.528	-23.38
197.747	17.58
197.966	48.3
198.185	74.92
198.404	-29.52
198.623	1.19
198.842	-54.1
199.062	9.39
199.281	46.25
199.5	42.15
199.719	68.78
199.938	46.25
200.157	19.63
200.376	74.92
200.595	76.97
200.814	29.87
201.033	29.87
201.252	-4.95
201.471	-31.57
201.69	60.59
201.909	25.77
202.128	46.25
202.347	66.73
202.566	17.58
202.785	7.34
203.004	3.24
203.223	66.73
203.442	1.19
203.661	33.96
203.879	25.77
204.098	79.02
204.317	17.58
204.536	95.4
204.755	74.92
204.974	79.02
205.193	3.24
205.411	27.82
205.63	7.34
205.849	60.59
206.068	27.82
206.287	11.43
206.505	46.25
206.724	-11.09
206.943	-43.86
207.162	-4.95
207.381	-11.09
207.599	29.87
207.818	-27.48
208.037	9.39
208.255	-13.14
208.474	83.11
208.693	9.39
208.911	46.25
209.13	-0.85
209.349	58.54
209.567	19.63
209.786	126.12
210.005	5.29
210.223	46.25
210.442	-2.9
210.661	76.97
210.879	-15.19
211.098	44.2
211.316	38.06
211.535	62.63
211.753	13.48
211.972	79.02
212.191	93.35
212.409	33.96
212.628	83.11
212.846	89.26
213.065	-23.38
213.283	33.96
213.502	19.63
213.72	3.24
213.938	19.63
214.157	42.15
214.375	7.34
214.594	46.25
214.812	42.15
215.031	-31.57
215.249	-11.09
215.467	15.53
215.686	29.87
215.904	87.21
216.122	-78.68
216.341	-11.09
216.559	-19.29
216.778	54.44
216.996	79.02
217.214	1.19
217.432	5.29
217.651	21.67
217.869	-7
218.087	-29.52
218.306	1.19
218.524	91.31
218.742	11.43
218.96	31.91
219.179	-47.96
219.397	23.72
219.615	89.26
219.833	17.58
220.051	74.92
220.27	76.97
220.488	-9.05
220.706	-17.24
220.924	-17.24
221.142	17.58
221.36	17.58
221.578	17.58
221.796	-41.81
222.015	17.58
222.233	101.55
222.451	126.12
222.669	-47.96
222.887	115.88
223.105	-23.38
223.323	1.19
223.541	-72.53
223.759	42.15
223.977	17.58
224.195	54.44
224.413	66.73
224.631	36.01
224.849	29.87
225.067	76.97
225.285	25.77
225.503	-13.14
225.721	-7
225.939	42.15
226.157	85.16
226.375	132.26
226.592	-37.72
226.81	58.54
227.028	9.39
227.246	111.78
227.464	-47.96
227.682	68.78
227.9	5.29
228.117	79.02
228.335	66.73
228.553	-7
228.771	17.58
228.989	33.96
229.206	46.25
229.424	76.97
229.642	11.43
229.86	33.96
230.077	76.97
230.295	66.73
230.513	52.39
230.731	68.78
230.948	-13.14
231.166	25.77
231.384	-33.62
231.601	-41.81
231.819	38.06
232.037	-47.96
232.254	17.58
232.472	17.58
232.689	-21.33
232.907	25.77
233.125	38.06
233.342	107.69
233.56	5.29
233.777	-80.72
233.995	-15.19
234.213	107.69
234.43	87.21
234.648	44.2
234.865	17.58
235.083	42.15
235.3	-11.09
235.518	17.58
235.735	66.73
235.953	-7
236.17	1.19
236.388	-31.57
236.605	11.43
236.822	56.49
237.04	99.5
237.257	62.63
237.475	19.63
237.692	7.34
237.909	83.11
238.127	-25.43
238.344	21.67
238.562	3.24
238.779	-39.76
238.996	-13.14
239.214	79.02
239.431	60.59
239.648	56.49
239.865	76.97
240.083	60.59
240.3	-11.09
240.517	-11.09
240.735	85.16
240.952	19.63
241.169	44.2
241.386	70.83
241.603	25.77
241.821	-31.57
242.038	68.78
242.255	44.2
242.472	25.77
242.689	62.63
242.907	107.69
243.124	17.58
243.341	-25.43
243.558	48.3
243.775	-0.85
243.992	-7
244.209	9.39
244.426	91.31
244.643	85.16
244.86	-13.14
245.078	42.15
245.295	27.82
245.512	95.4
245.729	13.48
245.946	31.91
246.163	33.96
246.38	46.25
246.597	5.29
246.814	48.3
247.031	101.55
247.248	60.59
247.464	3.24
247.681	1.19
247.898	-35.67
248.115	36.01
248.332	-11.09
248.549	15.53
248.766	9.39
248.983	27.82
249.2	33.96
249.417	-7
249.633	-2.9
249.85	21.67
250.067	-17.24
250.284	23.72
250.501	54.44
250.717	-11.09
250.934	44.2
251.151	-4.95
251.368	79.02
251.585	38.06
251.801	134.31
252.018	38.06
252.235	31.91
252.451	-47.96
252.668	11.43
252.885	31.91
253.102	9.39
253.318	42.15
253.535	-15.19
253.752	83.11
253.968	-15.19
254.185	-31.57
254.401	68.78
254.618	107.69
254.835	-56.15
255.051	3.24
255.268	95.4
255.484	29.87
255.701	23.72
255.917	79.02
256.134	101.55
256.351	-39.76
256.567	-27.48
256.784	-2.9
257	46.25
257.217	50.35
257.433	-2.9
257.65	-13.14
257.866	115.88
258.082	33.96
258.299	25.77
258.515	36.01
258.732	1.19
258.948	-11.09
259.165	3.24
259.381	25.77
259.597	-23.38
259.814	33.96
260.03	83.11
260.246	27.82
260.463	9.39
260.679	5.29
260.895	27.82
261.112	42.15
261.328	7.34
261.544	27.82
261.761	89.26
261.977	-4.95
262.193	68.78
262.409	11.43
262.626	36.01
262.842	-37.72
263.058	52.39
263.274	19.63
263.49	46.25
263.707	103.59
263.923	19.63
264.139	89.26
264.355	40.11
264.571	74.92
264.787	-0.85
265.004	33.96
265.22	-33.62
265.436	91.31
265.652	-7
265.868	-93.01
266.084	-13.14
266.3	60.59
266.516	-15.19
266.732	38.06
266.948	52.39
267.164	25.77
267.38	29.87
267.596	-9.05
267.812	134.31
268.028	3.24
268.244	85.16
268.46	5.29
268.676	81.07
268.892	93.35
269.108	21.67
269.324	-4.95
269.54	-37.72
269.756	54.44
269.972	-39.76
270.188	19.63
270.403	-7
270.619	17.58
270.835	17.58
271.051	58.54
271.267	-17.24
271.483	-15.19
271.698	42.15
271.914	115.88
272.13	62.63
272.346	19.63
272.562	36.01
272.777	54.44
272.993	3.24
273.209	-17.24
273.425	117.93
273.64	33.96
273.856	-21.33
274.072	17.58
274.287	66.73
274.503	74.92
274.719	85.16
274.934	33.96
275.15	-47.96
275.366	54.44
275.581	-60.24
275.797	38.06
276.012	5.29
276.228	48.3
276.444	29.87
276.659	27.82
276.875	95.4
277.09	50.35
277.306	46.25
277.521	17.58
277.737	13.48
277.952	42.15
278.168	72.87
278.383	36.01
278.599	44.2
278.814	58.54
279.03	64.68
279.245	132.26
279.461	17.58
279.676	17.58
279.892	68.78
280.107	29.87
280.322	-4.95
280.538	42.15
280.753	17.58
280.969	17.58
281.184	13.48
281.399	70.83
281.615	50.35
281.83	83.11
282.045	-21.33
282.26	-47.96
282.476	19.63
282.691	11.43
282.906	36.01
283.122	58.54
283.337	25.77
283.552	44.2
283.767	9.39
283.983	60.59
284.198	81.07
284.413	58.54
284.628	-103.25
284.843	52.39
285.058	25.77
285.274	3.24
285.489	54.44
285.704	46.25
285.919	21.67
286.134	-15.19
286.349	76.97
286.564	56.49
286.779	91.31
286.995	17.58
287.21	-27.48
287.425	68.78
287.64	-13.14
287.855	42.15
288.07	-37.72
288.285	33.96
288.5	93.35
288.715	70.83
288.93	46.25
289.145	52.39
289.36	1.19
289.575	50.35
289.79	54.44
290.004	62.63
290.219	107.69
290.434	29.87
290.649	-4.95
290.864	-7
291.079	42.15
291.294	76.97
291.509	-39.76
291.724	56.49
291.938	-4.95
292.153	99.5
292.368	38.06
292.583	1.19
292.798	44.2
293.012	91.31
293.227	91.31
293.442	25.77
293.657	60.59
293.871	91.31
294.086	-23.38
294.301	99.5
294.516	58.54
294.73	54.44
294.945	70.83
295.16	-15.19
295.374	-27.48
295.589	5.29
295.804	-13.14
296.018	9.39
296.233	99.5
296.447	52.39
296.662	11.43
296.877	83.11
297.091	-2.9
297.306	79.02
297.52	38.06
297.735	83.11
297.949	-7
298.164	-15.19
298.378	21.67
298.593	-0.85
298.807	115.88
299.022	-23.38
299.236	79.02
299.451	17.58
299.665	62.63
299.88	-4.95
300.094	48.3
300.309	33.96
300.523	66.73
300.737	9.39
300.952	58.54
301.166	58.54
301.381	9.39
301.595	42.15
301.809	13.48
302.024	-25.43
302.238	9.39
302.452	64.68
302.667	-47.96
302.881	31.91
303.095	9.39
303.309	1.19
303.524	38.06
303.738	-31.57
303.952	29.87
304.166	7.34
304.381	-9.05
304.595	83.11
304.809	-7
305.023	52.39
305.237	44.2
305.452	40.11
305.666	58.54
305.88	50.35
306.094	72.87
306.308	-39.76
306.522	130.22
306.736	50.35
306.95	50.35
307.164	70.83
307.379	-35.67
307.593	42.15
307.807	99.5
308.021	1.19
308.235	46.25
308.449	-25.43
308.663	42.15
308.877	91.31
309.091	66.73
309.305	25.77
309.519	-52.05
309.733	27.82
309.947	-15.19
310.161	11.43
310.374	25.77
310.588	13.48
310.802	3.24
311.016	11.43
311.23	58.54
311.444	66.73
311.658	-64.34
311.872	111.78
312.085	-4.95
312.299	128.17
312.513	60.59
312.727	50.35
312.941	-45.91
313.154	44.2
313.368	50.35
313.582	17.58
313.796	5.29
314.009	50.35
314.223	58.54
314.437	50.35
314.651	36.01
314.864	-43.86
315.078	-21.33
315.292	17.58
315.505	9.39
315.719	58.54
315.933	19.63
316.146	21.67
316.36	-21.33
316.573	76.97
316.787	1.19
317.001	25.77
317.214	-15.19
317.428	5.29
317.641	-93.01
317.855	13.48
318.068	-39.76
318.282	23.72
318.495	76.97
318.709	87.21
318.922	1.19
319.136	76.97
319.349	1.19
319.563	27.82
319.776	-4.95
319.99	17.58
320.203	9.39
320.417	25.77
320.63	54.44
320.843	21.67
321.057	117.93
321.27	38.06
321.483	89.26
321.697	25.77
321.91	52.39
322.124	3.24
322.337	93.35
322.55	-7
322.763	-56.15
322.977	103.59
323.19	-0.85
323.403	48.3
323.617	48.3
323.83	62.63
324.043	13.48
324.256	9.39
324.469	27.82
324.683	76.97
324.896	-2.9
325.109	130.22
325.322	1.19
325.535	74.92
325.748	17.58
325.962	44.2
326.175	-15.19
326.388	48.3
326.601	44.2
326.814	1.19
327.027	-2.9
327.24	52.39
327.453	-43.86
327.666	101.55
327.879	81.07
328.092	54.44
328.305	-33.62
328.518	46.25
328.731	42.15
328.944	66.73
329.157	50.35
329.37	-39.76
329.583	46.25
329.796	70.83
330.009	-56.15
330.222	101.55
330.435	87.21
330.648	9.39
330.861	52.39
331.073	36.01
331.286	42.15
331.499	27.82
331.712	25.77
331.925	21.67
332.138	54.44
332.35	66.73
332.563	9.39
332.776	19.63
332.989	-19.29
333.202	33.96
333.414	-17.24
333.627	72.87
333.84	9.39
334.053	11.43
334.265	-7
334.478	29.87
334.691	42.15
334.903	52.39
335.116	-23.38
335.329	-2.9
335.541	64.68
335.754	76.97
335.966	-35.67
336.179	68.78
336.392	36.01
336.604	-15.19
336.817	-41.81
337.029	13.48
337.242	-37.72
337.454	162.98
337.667	1.19
337.88	66.73
338.092	7.34
338.305	115.88
338.517	25.77
338.729	58.54
338.942	83.11
339.154	76.97
339.367	-43.86
339.579	107.69
339.792	13.48
340.004	85.16
340.217	-13.14
340.429	74.92
340.641	52.39
340.854	13.48
341.066	3.24
341.278	58.54
341.491	54.44
341.703	33.96
341.915	-52.05
342.128	15.53
342.34	1.19
342.552	33.96
342.764	23.72
342.977	54.44
343.189	42.15
343.401	17.58
343.613	17.58
343.826	93.35
344.038	76.97
344.25	13.48
344.462	13.48
344.674	-64.34
344.886	42.15
345.099	115.88
345.311	62.63
345.523	66.73
345.735	-43.86
345.947	11.43
346.159	36.01
346.371	54.44
346.583	115.88
346.795	101.55
347.007	3.24
347.219	87.21
347.431	140.46
347.643	115.88
347.855	33.96
348.067	107.69
348.279	23.72
348.491	9.39
348.703	5.29
348.915	-52.05
349.127	-19.29
349.339	-13.14
349.551	13.48
349.763	-29.52
349.975	33.96
350.187	97.45
350.399	93.35
350.61	50.35
350.822	31.91
351.034	36.01
351.246	91.31
351.458	87.21
351.669	64.68
351.881	87.21
352.093	7.34
352.305	70.83
352.517	27.82
352.728	95.4
352.94	124.07
353.152	9.39
353.363	3.24
353.575	33.96
353.787	29.87
353.999	-0.85
354.21	81.07
354.422	36.01
354.633	42.15
354.845	33.96
355.057	42.15
355.268	36.01
355.48	54.44
355.692	44.2
355.903	36.01
356.115	-4.95
356.326	-64.34
356.538	83.11
356.749	52.39
356.961	109.74
357.172	50.35
357.384	11.43
357.595	72.87
357.807	52.39
358.018	33.96
358.23	60.59
358.441	76.97
358.653	107.69
358.864	-7
359.075	11.43
359.287	11.43
359.498	115.88
359.709	38.06
359.921	17.58
360.132	91.31
360.344	44.2
360.555	-15.19
360.766	68.78
360.977	31.91
361.189	19.63
361.4	38.06
361.611	38.06
361.823	142.5
362.034	54.44
362.245	-7
362.456	9.39
362.667	-7
362.879	15.53
363.09	58.54
363.301	62.63
363.512	15.53
363.723	21.67
363.935	3.24
364.146	56.49
364.357	44.2
364.568	83.11
364.779	-2.9
364.99	132.26
365.201	5.29
365.412	21.67
365.623	-13.14
365.834	87.21
366.045	-21.33
366.256	38.06
366.467	-31.57
366.678	74.92
366.889	42.15
367.1	-19.29
367.311	111.78
367.522	-43.86
367.733	21.67
367.944	150.7
368.155	72.87
368.366	-33.62
368.577	31.91
368.788	54.44
368.999	-17.24
369.209	11.43
369.42	54.44
369.631	46.25
369.842	50.35
370.053	38.06
370.264	97.45
370.474	-2.9
370.685	19.63
370.896	38.06
371.107	54.44
371.317	48.3
371.528	128.17
371.739	156.84
371.95	76.97
372.16	148.65
372.371	27.82
372.582	-19.29
372.792	50.35
373.003	31.91
373.214	17.58
373.424	54.44
373.635	76.97
373.846	93.35
374.056	-7
374.267	50.35
374.477	13.48
374.688	93.35
374.898	52.39
375.109	25.77
375.319	11.43
375.53	93.35
375.74	36.01
375.951	52.39
376.161	101.55
376.372	7.34
376.582	50.35
376.793	66.73
377.003	60.59
377.214	60.59
377.424	29.87
377.635	36.01
377.845	17.58
378.055	50.35
378.266	19.63
378.476	58.54
378.686	17.58
378.897	95.4
379.107	91.31
379.317	66.73
379.528	5.29
379.738	85.16
379.948	36.01
380.158	40.11
380.369	11.43
380.579	62.63
380.789	11.43
380.999	52.39
381.21	44.2
381.42	103.59
381.63	83.11
381.84	66.73
382.05	70.83
382.261	101.55
382.471	42.15
382.681	-23.38
382.891	17.58
383.101	11.43
383.311	36.01
383.521	42.15
383.731	74.92
383.941	68.78
384.151	91.31
384.361	79.02
384.571	25.77
384.781	60.59
384.991	42.15
385.201	74.92
385.411	52.39
385.621	85.16
385.831	95.4
386.041	62.63
386.251	70.83
386.461	50.35
386.671	68.78
386.881	33.96
387.091	-15.19
387.301	109.74
387.511	60.59
387.72	21.67
387.93	95.4
388.14	-56.15
388.35	36.01
388.56	13.48
388.769	87.21
388.979	40.11
389.189	27.82
389.399	29.87
389.609	38.06
389.818	103.59
390.028	48.3
390.238	60.59
390.447	-60.24
390.657	50.35
390.867	54.44
391.076	3.24
391.286	74.92
391.496	148.65
391.705	74.92
391.915	107.69
392.125	74.92
392.334	89.26
392.544	113.83
392.753	93.35
392.963	62.63
393.172	87.21
393.382	91.31
393.591	111.78
393.801	44.2
394.01	74.92
394.22	103.59
394.429	115.88
394.639	54.44
394.848	74.92
395.058	19.63
395.267	74.92
395.477	91.31
395.686	56.49
395.895	97.45
396.105	181.42
396.314	42.15
396.524	103.59
396.733	89.26
396.942	146.6
397.152	81.07
397.361	66.73
397.57	58.54
397.78	21.67
397.989	83.11
398.198	142.5
398.407	58.54
398.617	89.26
398.826	46.25
399.035	85.16
399.244	38.06
399.453	83.11
399.663	113.83
399.872	83.11
400.081	109.74
400.29	134.31
400.499	64.68
400.708	38.06
400.917	76.97
401.127	54.44
401.336	111.78
401.545	197.8
401.754	128.17
401.963	156.84
402.172	79.02
402.381	83.11
402.59	33.96
402.799	70.83
403.008	31.91
403.217	58.54
403.426	68.78
403.635	177.32
403.844	103.59
404.053	144.55
404.262	117.93
404.471	142.5
404.68	48.3
404.888	115.88
405.097	93.35
405.306	134.31
405.515	113.83
405.724	95.4
405.933	42.15
406.142	173.22
406.35	160.94
406.559	136.36
406.768	117.93
406.977	173.22
407.185	148.65
407.394	222.38
407.603	124.07
407.812	132.26
408.02	205.99
408.229	136.36
408.438	162.98
408.646	152.74
408.855	201.9
409.064	222.38
409.272	185.51
409.481	205.99
409.69	277.67
409.898	232.62
410.107	263.33
410.315	330.92
410.524	218.28
410.733	214.18
410.941	246.95
411.15	330.92
411.358	324.77
411.567	320.68
411.775	283.81
411.984	382.12
412.192	378.02
412.401	306.34
412.609	353.45
412.818	398.5
413.026	312.49
413.234	425.12
413.443	357.54
413.651	339.11
413.86	466.08
414.068	443.56
414.276	511.14
414.485	410.79
414.693	586.91
414.901	582.82
415.11	613.54
415.318	562.34
415.526	525.47
415.734	658.59
415.943	576.67
416.151	668.83
416.359	599.2
416.567	642.21
416.776	717.98
416.984	763.04
417.192	861.34
417.4	785.57
417.608	697.5
417.817	754.85
418.025	824.48
418.233	1000.6
418.441	859.29
418.649	902.3
418.857	969.88
419.065	1016.99
419.273	996.51
419.481	1070.23
419.689	1094.81
419.897	1201.3
420.105	1133.72
420.313	1049.75
420.521	1232.02
420.729	1207.45
420.937	1213.59
421.145	1408.15
421.353	1359
421.561	1483.92
421.769	1520.79
421.977	1598.61
422.185	1574.03
422.393	1641.62
422.601	1655.95
422.809	1797.26
423.017	1748.11
423.224	1813.65
423.432	1889.42
423.64	1909.9
423.848	1983.63
424.056	2026.64
424.263	2169.99
424.471	2163.85
424.679	2237.58
424.887	2237.58
425.094	2358.41
425.302	2313.35
425.51	2479.24
425.718	2567.3
425.925	2696.32
426.133	2636.93
426.341	2868.35
426.548	2929.79
426.756	2976.89
426.964	3054.72
427.171	3165.31
427.379	3142.78
427.586	3261.56
427.794	3335.29
428.001	3556.47
428.209	3626.1
428.417	3615.86
428.624	3869.81
428.832	3916.91
429.039	3908.72
429.247	3896.43
429.454	4238.44
429.662	4551.78
429.869	4353.13
430.076	4402.28
430.284	4430.95
430.491	4559.97
430.699	4955.23
430.906	4838.5
431.114	4828.26
431.321	5061.73
431.528	5338.2
431.736	5434.46
431.943	5702.74
432.15	5751.89
432.358	5768.27
432.565	5934.16
432.772	5823.57
432.979	6276.17
433.187	6270.03
433.394	6554.69
433.601	6925.38
433.808	6972.48
434.016	6753.35
434.223	7052.35
434.43	7545.91
434.637	7545.91
434.844	7947.31
435.052	7935.03
435.259	7898.16
435.466	7990.32
435.673	7773.24
435.88	8424.49
436.087	8660.01
436.294	8901.67
436.501	8717.35
436.708	8811.56
436.915	9184.29
437.122	9460.76
437.329	9477.15
437.537	9763.86
437.743	10136.59
437.95	10009.62
438.157	10460.17
438.364	10863.62
438.571	10714.12
438.778	10873.86
438.985	11760.63
439.192	11254.78
439.399	11762.68
439.606	11330.56
439.813	12110.83
440.02	12690.41
440.227	12612.59
440.433	12596.2
440.64	12733.42
440.847	12647.4
441.054	13147.11
441.261	14074.84
441.467	13626.33
441.674	14199.76
441.881	14648.27
442.088	14566.35
442.294	14355.41
442.501	14750.67
442.708	15102.92
442.914	15455.17
443.121	16270.26
443.328	15877.05
443.534	17042.34
443.741	16438.19
443.948	16255.92
444.154	17580.96
444.361	17376.16
444.568	17529.76
444.774	17515.42
444.981	17707.93
445.187	18336.66
445.394	19067.78
445.6	18791.31
445.807	20685.68
446.013	19753.85
446.22	20059
446.426	20714.35
446.633	21025.64
446.839	21873.5
447.046	20874.09
447.252	22143.83
447.459	22029.15
447.665	21965.66
447.871	23044.94
448.078	24027.96
448.284	23010.12
448.491	23675.71
448.697	24318.78
448.903	24714.03
449.11	25008.94
449.316	24742.71
449.522	24982.32
449.728	25852.7
449.935	25875.23
450.141	26063.64
450.347	26538.77
450.553	25682.72
450.76	26127.13
450.966	27450.12
451.172	26708.76
451.378	27548.42
451.584	26692.37
451.791	27480.84
451.997	27456.26
452.203	27757.32
452.409	27974.4
452.615	27898.62
452.821	26665.75
453.027	26237.72
453.233	28136.19
453.44	26991.37
453.646	27024.14
453.852	27423.5
454.058	27781.89
454.264	27110.16
454.47	27654.92
454.676	26825.49
454.882	27978.5
455.088	25426.73
455.294	25936.67
455.5	26190.62
455.705	26702.61
455.911	25533.22
456.117	25285.42
456.323	24855.34
456.529	23507.78
456.735	24597.3
456.941	23792.45
457.147	23694.15
457.352	23163.72
457.558	22776.66
457.764	22596.43
457.97	22385.49
458.176	21820.25
458.381	21629.79
458.587	20870
458.793	20892.52
458.999	19848.06
459.204	21263.21
459.41	20783.98
459.616	19344.26
459.821	19438.47
460.027	18998.15
460.233	19096.46
460.438	18152.34
460.644	18353.04
460.85	17202.08
461.055	16901.03
461.261	17157.03
461.466	15825.85
461.672	15557.57
461.878	16425.9
462.083	15229.89
462.289	14930.89
462.494	14726.09
462.7	14427.09
462.905	14029.78
463.111	14459.85
463.316	14414.8
463.522	14033.88
463.727	14058.45
463.932	14359.5
464.138	14058.45
464.343	14017.49
464.549	13384.67
464.754	14029.78
464.959	14066.64
465.165	13753.3
465.37	13018.08
465.575	12981.22
465.781	13386.72
465.986	13532.12
466.191	12739.56
466.397	12948.45
466.602	12035.06
466.807	12602.35
467.012	12520.43
467.218	12461.04
467.423	12424.17
467.628	12616.68
467.833	12960.74
468.038	12446.7
468.244	12252.14
468.449	12571.63
468.654	12252.14
468.859	12172.27
469.064	12231.66
469.269	11787.25
469.474	11787.25
469.679	12030.96
469.885	11637.75
470.09	11695.1
470.295	11850.74
470.5	11179.01
470.705	11484.16
470.91	11338.75
471.115	11326.46
471.32	11340.8
471.525	11158.53
471.73	11029.51
471.935	10974.21
472.139	10669.06
472.344	10777.61
472.549	10607.62
472.754	10638.34
472.959	10413.07
473.164	9964.56
473.369	10107.92
473.574	10417.16
473.778	10314.77
473.983	10101.78
474.188	10054.67
474.393	9645.08
474.598	9677.85
474.802	9589.78
475.007	9450.52
475.212	9548.82
475.417	9124.9
475.621	9079.84
475.826	9335.84
476.031	9016.35
476.235	8997.92
476.44	9012.26
476.645	8770.6
476.849	8725.54
477.054	8793.12
477.259	8594.47
477.463	8836.13
477.668	8418.35
477.872	8743.97
478.077	8434.73
478.282	8162.35
478.486	8131.63
478.691	8045.62
478.895	7975.98
479.1	8129.58
479.304	7932.98
479.509	7803.96
479.713	7853.11
479.918	7691.32
480.122	7783.48
480.326	7820.34
480.531	7717.94
480.735	7423.03
480.94	7545.91
481.144	7676.98
481.348	7482.42
481.553	7668.79
481.757	7441.47
481.961	7719.99
482.166	7554.1
482.37	7574.58
482.574	7220.28
482.778	7433.27
482.983	7719.99
483.187	7529.53
483.391	7418.94
483.595	7361.59
483.8	7410.75
484.004	7507
484.208	7498.81
484.412	7412.79
484.616	7539.77
484.821	7453.75
485.025	7517.24
485.229	7466.04
485.433	7222.33
485.637	7353.4
485.841	7341.11
486.045	7398.46
486.249	7447.61
486.453	7380.03
486.657	7498.81
486.861	7711.8
487.065	7167.04
487.269	7406.65
487.473	7423.03
487.677	7613.49
487.881	7685.17
488.085	7334.97
488.289	7623.73
488.493	7500.86
488.697	7656.5
488.901	7533.62
489.105	7496.76
489.309	7586.87
489.512	7726.13
489.716	7537.72
489.92	7498.81
490.124	7566.39
490.328	7816.24
490.531	7488.57
490.735	7787.57
490.939	7746.61
491.143	7595.06
491.346	7715.89
491.55	7924.79
491.754	7623.73
491.958	7851.06
492.161	7939.12
492.365	7988.27
492.569	7840.82
492.772	7824.44
492.976	8035.38
493.18	7851.06
493.383	8201.26
493.587	8121.39
493.79	8311.85
493.994	8145.97
494.197	8133.68
494.401	8246.32
494.605	8385.58
494.808	8496.17
495.012	8500.26
495.215	8643.62
495.419	8684.58
495.622	8694.82
495.825	8625.19
496.029	8758.31
496.232	9038.88
496.436	9036.83
496.639	9047.07
496.843	9077.79
497.046	9434.14
497.249	9442.33
497.453	9569.3
497.656	9485.34
497.859	9552.92
498.063	9602.07
498.266	9933.84
498.469	9767.96
498.673	10009.62
498.876	10150.93
499.079	10296.33
499.282	10195.98
499.485	10568.71
499.689	10488.84
499.892	10802.18
500.095	10785.8
500.298	10970.12
500.501	10947.59
500.705	11224.06
500.908	11338.75
501.111	11373.57
501.314	11531.26
501.517	11643.9
501.72	11834.36
501.923	11729.91
502.126	12190.7
502.329	12182.51
502.532	12356.59
502.735	12366.83
502.938	12436.46
503.141	12616.68
503.344	12690.41
503.547	12934.12
503.75	13149.15
503.953	13091.81
504.156	13489.12
504.359	13755.35
504.562	13724.63
504.765	14021.59
504.968	14140.37
505.17	14443.47
505.373	14271.44
505.576	14689.23
505.779	14808.01
505.982	14705.61
506.185	15180.74
506.387	15242.18
506.59	15311.81
506.793	15559.61
506.996	15528.89
507.198	15991.73
507.401	15936.44
507.604	16102.32
507.807	16432.05
508.009	16495.53
508.212	16706.48
508.415	16712.62
508.617	17175.46
508.82	17347.49
509.022	17167.27
509.225	17605.53
509.428	17800.09
509.63	18056.09
509.833	18015.13
510.035	18578.32
510.238	18541.46
510.44	18344.85
510.643	19084.17
510.845	19143.56
511.048	19055.5
511.25	19205
511.453	19700.61
511.655	20339.57
511.858	20224.89
512.06	20310.9
512.262	20638.58
512.465	20519.79
512.667	20661.1
512.87	20818.8
513.072	21166.95
513.274	21693.28
513.477	21597.03
513.679	21814.11
513.881	22010.71
514.084	22168.41
514.286	22498.13
514.488	22629.2
514.69	23094.09
514.893	23456.58
515.095	23370.57
515.297	23761.73
515.499	23659.33
515.701	23941.95
515.904	24261.43
516.106	24580.92
516.308	24767.28
516.51	25049.9
516.712	25056.04
516.914	25537.32
517.116	25477.93
517.318	25756.45
517.52	25891.62
517.722	26200.86
517.925	26313.5
518.127	26991.37
518.329	27224.84
518.531	26743.57
518.733	27177.74
518.935	27437.83
519.136	27417.35
519.338	27755.27
519.54	28119.81
519.742	28779.25
519.944	28486.39
520.146	28984.05
520.348	28951.28
520.55	29334.25
520.752	29233.9
520.954	29905.63
521.155	29827.81
521.357	30163.68
521.559	30274.27
521.761	30710.49
521.963	30767.83
522.164	30857.94
522.366	31048.4
522.568	31546.06
522.77	31509.19
522.971	31867.59
523.173	31615.69
523.375	32121.54
523.576	32076.48
523.778	32391.87
523.98	32848.57
524.181	33112.75
524.383	33094.32
524.584	33530.54
524.786	33397.42
524.988	33227.44
525.189	33686.18
525.391	33958.56
525.592	34024.1
525.794	33981.09
525.995	34339.49
526.197	34167.46
526.398	34214.56
526.6	34740.89
526.801	34529.95
527.003	35113.62
527.204	35048.08
527.406	35510.92
527.607	35326.61
527.808	35312.27
528.01	35136.15
528.211	35617.42
528.412	36186.75
528.614	36149.89
528.815	35945.09
529.016	35949.19
529.218	36000.39
529.419	35979.91
529.62	36579.96
529.822	36182.66
530.023	36428.41
530.224	36412.03
530.425	36135.56
530.626	36242.05
530.828	36225.67
531.029	37122.68
531.23	36346.5
531.431	36436.61
531.632	36838.01
531.833	37059.19
532.035	37055.09
532.236	37139.06
532.437	36819.58
532.638	36747.9
532.839	36870.78
533.04	37268.08
533.241	36688.51
533.442	37288.56
533.643	37167.73
533.844	37096.05
534.045	37128.82
534.246	36903.54
534.447	37053.05
534.648	37405.3
534.849	37393.01
535.05	36557.44
535.251	37155.44
535.451	37161.59
535.652	37614.19
535.853	37040.76
536.054	37042.81
536.255	37595.76
536.456	37010.04
536.657	37573.23
536.857	37210.74
537.058	37370.48
537.259	37188.21
537.46	37362.29
537.66	36993.65
537.861	37186.16
538.062	37268.08
538.263	37513.84
538.463	37069.43
538.664	37122.68
538.865	37384.82
539.065	37462.64
539.266	37046.9
539.466	37587.57
539.667	36956.79
539.868	37436.02
540.068	36926.07
540.269	36921.98
540.469	37540.46
540.67	37229.17
540.87	37059.19
541.071	36967.03
541.271	37311.09
541.472	37167.73
541.672	37016.18
541.873	36969.08
542.073	36577.92
542.274	37087.86
542.474	36977.27
542.675	36895.35
542.875	37360.24
543.075	37276.27
543.276	36866.68
543.476	37288.56
543.676	36758.14
543.877	37364.34
544.077	36897.4
544.277	37114.48
544.478	37079.67
544.678	37102.2
544.878	37294.71
545.078	37284.47
545.279	36848.25
545.479	36928.12
545.679	37139.06
545.879	36993.65
546.079	36811.38
546.28	37010.04
546.48	36999.8
546.68	37284.47
546.88	37204.59
547.08	37184.12
547.28	36713.08
547.48	36594.3
547.68	37087.86
547.88	36747.9
548.081	37194.36
548.281	36907.64
548.481	36592.25
548.681	36926.07
548.881	36962.93
549.081	36633.21
549.28	36547.2
549.48	37261.94
549.68	37040.76
549.88	37474.93
550.08	36418.17
550.28	36582.01
550.48	36723.32
550.68	37024.37
550.88	36418.17
551.08	36909.69
551.279	36838.01
551.479	36532.86
551.679	36792.95
551.879	36641.4
552.079	36993.65
552.278	36496
552.478	36522.62
552.678	36614.78
552.878	36532.86
553.077	36686.46
553.277	36145.8
553.477	36895.35
553.676	36579.96
553.876	36520.57
554.076	36319.87
554.275	36067.97
554.475	36106.88
554.674	36532.86
554.874	36305.54
555.074	36178.56
555.273	36344.45
555.473	36649.6
555.672	35926.66
555.872	36029.06
556.071	36289.15
556.271	36584.06
556.47	36100.74
556.67	35336.85
556.869	36024.96
557.068	36248.19
557.268	35764.87
557.467	36047.49
557.667	35777.16
557.866	36033.16
558.065	36041.35
558.265	35721.87
558.464	35775.11
558.663	36049.54
558.863	35353.23
559.062	36098.69
559.261	35523.21
559.461	35977.86
559.66	35181.2
559.859	35256.98
560.058	35078.8
560.258	35553.93
560.457	35177.11
560.656	35482.25
560.855	35437.2
561.054	35379.85
561.253	35046.04
561.453	35234.45
561.652	35304.08
561.851	35306.13
562.05	35132.05
562.249	35037.84
562.448	35068.56
562.647	34624.15
562.846	35011.22
563.045	35052.18
563.244	34519.71
563.443	34943.64
563.642	34173.6
563.841	34450.08
564.04	34050.72
564.239	34626.2
564.438	34208.42
564.637	34706.07
564.836	34402.97
565.035	34110.11
565.234	33835.69
565.432	34005.67
565.631	34183.84
565.83	34042.53
566.029	33645.23
566.228	33968.8
566.427	33733.29
566.625	33733.29
566.824	33192.62
567.023	33776.3
567.222	33131.19
567.42	33774.25
567.619	33950.37
567.818	33581.74
568.016	33311.41
568.215	33319.6
568.414	33163.95
568.612	33675.94
568.811	33049.27
569.01	33127.09
569.208	32940.72
569.407	33075.89
569.605	32649.91
569.804	33102.51
570.002	32666.3
570.201	32862.9
570.4	32406.2
570.598	32590.52
570.797	32258.75
570.995	32471.74
571.193	32150.21
571.392	32668.34
571.59	31922.88
571.789	31863.49
571.987	32445.12
572.186	31650.5
572.384	32004.8
572.582	31879.88
572.781	31632.07
572.979	31361.74
573.177	31369.93
573.376	31673.03
573.574	31582.92
573.772	31419.08
573.971	31036.11
574.169	30993.11
574.367	31005.39
574.565	31185.61
574.763	31148.75
574.962	31013.59
575.16	30517.98
575.358	30728.92
575.556	30534.36
575.754	30851.8
575.952	30640.86
576.151	30579.42
576.349	30108.38
576.547	30315.23
576.745	30456.54
576.943	30399.19
577.141	30065.38
577.339	30321.37
577.537	30292.7
577.735	29942.5
577.933	29532.9
578.131	29977.31
578.329	29725.41
578.527	29526.76
578.725	29817.57
578.923	29534.95
579.121	29129.45
579.319	29221.61
579.516	29453.03
579.714	29162.22
579.912	28740.34
580.11	29037.3
580.308	29162.22
580.506	29106.93
580.704	28525.3
580.901	28869.36
581.099	28812.02
581.297	28637.94
581.495	28695.28
581.692	28349.18
581.89	28179.2
582.088	28441.34
582.285	28369.66
582.483	28193.53
582.681	28265.21
582.878	28021.5
583.076	27861.76
583.274	28123.9
583.471	27781.89
583.669	27497.22
583.866	27312.91
584.064	27906.82
584.262	27192.08
584.459	27583.24
584.657	27470.6
584.854	27632.39
585.052	26997.52
585.249	27400.97
585.447	27181.84
585.644	26905.36
585.841	27245.32
586.039	27130.64
586.236	26704.66
586.434	26682.13
586.631	26716.95
586.828	26721.04
587.026	26616.6
587.223	26385.18
587.42	26227.48
587.618	26276.63
587.815	26329.88
588.012	26002.21
588.21	26137.37
588.407	26338.07
588.604	25764.64
588.801	25828.13
588.999	26127.13
589.196	25678.63
589.393	26129.18
589.59	25527.08
589.787	25367.34
589.984	25647.91
590.182	25262.89
590.379	25469.73
590.576	25303.85
590.773	25389.86
590.97	25281.32
591.167	25502.5
591.364	24855.34
591.561	25183.02
591.758	24738.61
591.955	24732.47
592.152	24927.02
592.349	24507.19
592.546	24640.31
592.743	24697.65
592.94	24068.92
593.137	24509.24
593.334	24539.96
593.531	24079.16
593.727	24374.07
593.924	24148.79
594.121	23946.05
594.318	23892.8
594.515	23634.75
594.712	23751.49
594.908	23831.36
595.105	23817.02
595.302	23290.7
595.499	23585.6
595.696	23618.37
595.892	23356.23
596.089	23241.54
596.286	23542.6
596.482	23327.56
596.679	23036.75
596.876	23096.14
597.072	23331.65
597.269	23003.98
597.466	23143.24
597.662	22741.84
597.859	22756.18
598.055	22811.47
598.252	22690.64
598.448	22565.71
598.645	22612.82
598.841	22307.67
599.038	22549.33
599.234	22504.28
599.431	22264.66
599.627	22119.26
599.824	22104.92
600.02	22080.35
600.217	22029.15
600.413	22113.11
600.609	22072.15
600.806	21562.21
601.002	21850.97
601.198	21433.19
601.395	21351.27
601.591	21605.22
601.787	21324.65
601.984	21480.29
602.18	21572.45
602.376	21181.29
602.572	21171.05
602.769	21330.79
602.965	20908.91
603.161	21082.98
603.357	20814.7
603.553	20878.19
603.75	20820.84
603.946	20517.75
604.142	20669.3
604.338	20802.41
604.534	20781.93
604.73	20505.46
604.926	20358
605.122	20153.21
605.318	20308.85
605.514	20306.8
605.71	19991.42
605.906	20302.71
606.102	20188.02
606.298	20247.41
606.494	19843.96
606.69	19975.03
606.886	19968.89
607.082	19755.9
607.278	19989.37
607.474	19622.78
607.67	19760
607.866	19329.92
608.062	19673.98
608.257	19415.94
608.453	19551.1
608.649	19712.89
608.845	19254.15
609.041	19219.33
609.236	19379.07
609.432	19090.31
609.628	19424.13
609.824	19252.1
610.019	19301.25
610.215	19215.24
610.411	18946.95
610.606	18844.56
610.802	19252.1
610.998	19313.54
611.193	18590.61
611.389	18686.86
611.584	18656.14
611.78	18424.72
611.976	18674.57
612.171	18416.53
612.367	18523.02
612.562	18512.78
612.758	18482.06
612.953	18318.23
613.149	18568.08
613.344	18283.41
613.539	18656.14
613.735	18490.26
613.93	18596.75
614.126	18355.09
614.321	18320.28
614.517	18367.38
614.712	18443.15
614.907	18129.81
615.103	18287.51
615.298	17884.06
615.493	18244.5
615.688	17685.4
615.884	18232.21
616.079	17574.81
616.274	18031.51
616.47	17769.37
616.665	17865.63
616.86	17736.6
617.055	17738.65
617.25	17566.62
617.445	17677.21
617.641	17253.28
617.836	17666.97
618.031	17310.63
618.226	17462.18
618.421	17339.3
618.616	17376.16
618.811	17175.46
619.006	17521.57
619.201	17107.88
619.396	17241
619.591	16927.66
619.786	17111.97
619.981	16829.35
620.176	16892.84
620.371	16606.13
620.566	16821.16
620.761	16636.84
620.956	16696.24
621.151	16647.08
621.346	16200.63
621.541	16114.61
621.735	16571.31
621.93	16016.31
622.125	16036.79
622.32	15942.58
622.515	15764.41
622.709	15723.45
622.904	15598.52
623.099	15715.26
623.294	15831.99
623.488	15561.66
623.683	15715.26
623.878	15113.16
624.072	15147.97
624.267	15276.99
624.462	15168.45
624.656	15049.67
624.851	15068.1
625.046	14771.15
625.24	14771.15
625.435	14484.43
625.629	14607.31
625.824	14453.71
626.018	14504.91
626.213	14140.37
626.407	14427.09
626.602	13931.48
626.796	14169.04
626.991	14140.37
627.185	14009.3
627.38	13753.3
627.574	13941.72
627.768	13755.35
627.963	13779.93
628.157	13581.28
628.352	13560.8
628.546	13269.98
628.74	13751.26
628.935	13200.35
629.129	13509.6
629.323	13169.63
629.517	13126.63
629.712	12962.79
629.906	12821.48
630.1	12764.14
630.294	13044.71
630.489	12717.03
630.683	12755.94
630.877	12446.7
631.071	12430.32
631.265	12663.79
631.459	12422.13
631.653	12352.49
631.848	12512.24
632.042	12014.58
632.236	12260.34
632.43	12168.18
632.624	12321.77
632.818	11967.48
633.012	11756.54
633.206	11908.08
633.4	12088.31
633.594	11568.12
633.788	11654.14
633.982	11883.51
634.176	11750.39
634.369	11471.87
634.563	11516.92
634.757	11478.01
634.951	11478.01
635.145	11162.62
635.339	11250.69
635.533	11174.91
635.726	11262.97
635.92	11064.32
636.114	10939.4
636.308	10945.54
636.501	10705.93
636.695	10957.83
636.889	10855.43
637.083	10679.3
637.276	10652.68
637.47	10591.24
637.664	10621.96
637.857	10486.79
638.051	10581
638.244	10282
638.438	10200.08
638.632	10308.62
638.825	9978.9
639.019	10167.31
639.212	10013.71
639.406	10005.52
639.599	9970.71
639.793	9858.07
639.986	9841.68
640.18	9751.57
640.373	9954.32
640.567	9608.22
640.76	9571.35
640.954	9542.68
641.147	9532.44
641.34	9421.85
641.534	9604.12
641.727	9499.67
641.92	9280.54
642.114	9149.47
642.307	9241.63
642.5	9219.1
642.694	9012.26
642.887	8885.28
643.08	9022.5
643.273	8866.85
643.467	9022.5
643.66	8979.49
643.853	8838.18
644.046	8799.27
644.239	8717.35
644.432	8774.69
644.626	8563.75
644.819	8668.2
645.012	8573.99
645.205	8621.1
645.398	8363.05
645.591	8324.14
645.784	8442.92
645.977	8242.22
646.17	8270.89
646.363	8250.41
646.556	8070.19
646.749	8082.48
646.942	8268.84
647.135	8111.15
647.328	7879.73
647.521	8037.42
647.714	7775.28
647.907	7996.46
648.099	7789.62
648.292	7638.07
648.485	7914.55
648.678	7482.42
648.871	7660.6
649.064	7498.81
649.256	7767.09
649.449	7531.58
649.642	7451.7
649.835	7636.02
650.027	7328.83
650.22	7259.2
650.413	7521.34
650.605	7605.3
650.798	7328.83
650.991	7195.71
651.183	7287.87
651.376	7205.95
651.568	7183.42
651.761	7117.89
651.954	6970.43
652.146	6988.86
652.339	6863.94
652.531	6802.5
652.724	6800.45
652.916	6804.55
653.109	6931.52
653.301	6751.3
653.494	6763.59
653.686	6577.22
653.879	6720.58
654.071	6646.85
654.263	6603.85
654.456	6442.06
654.648	6513.74
654.84	6360.14
655.033	6513.74
655.225	6243.4
655.417	6347.85
655.61	6294.6
655.802	6294.6
655.994	6366.28
656.186	6173.77
656.379	6317.13
656.571	6210.64
656.763	6087.76
656.955	5979.22
657.148	6038.61
657.34	5997.65
657.532	6050.89
657.724	5952.59
657.916	6048.85
658.108	5909.58
658.3	5829.71
658.492	5848.15
658.684	5696.6
658.876	5792.85
659.068	5629.01
659.26	5770.32
659.452	5649.49
659.644	5614.68
659.836	5579.86
660.028	5524.57
660.22	5420.12
660.412	5280.86
660.604	5368.92
660.796	5366.87
660.988	5243.99
661.18	5227.61
661.372	5139.55
661.563	5221.47
661.755	5157.98
661.947	5129.31
662.139	5231.71
662.331	5219.42
662.522	4990.05
662.714	5108.83
662.906	5061.73
663.097	4981.85
663.289	5084.25
663.481	4979.81
663.673	4883.55
663.864	5049.44
664.056	4973.66
664.247	4867.17
664.439	4744.29
664.631	4762.72
664.822	4764.77
665.014	4717.67
665.205	4531.3
665.397	4738.15
665.588	4656.23
665.78	4549.73
665.971	4723.81
666.163	4639.84
666.354	4539.49
666.546	4549.73
666.737	4408.42
666.929	4473.96
667.12	4428.9
667.311	4424.81
667.503	4381.8
667.694	4301.93
667.885	4486.25
668.077	4408.42
668.268	4222.06
668.459	4207.72
668.651	4312.17
668.842	4371.56
669.033	4228.2
669.224	4228.2
669.416	4287.59
669.607	4248.68
669.798	4019.31
669.989	4267.11
670.18	3978.35
670.371	4099.18
670.563	3953.77
670.754	4066.41
670.945	4033.65
671.136	3957.87
671.327	3955.82
671.518	3994.73
671.709	3966.06
671.9	3998.83
672.091	3896.43
672.282	4015.21
672.473	3974.25
672.664	3873.9
672.855	3734.64
673.046	3748.98
673.237	3853.42
673.428	3757.17
673.619	3857.52
673.809	3654.77
674	3646.58
674.191	3705.97
674.382	3748.98
674.573	3708.02
674.764	3572.85
674.954	3742.83
675.145	3753.07
675.336	3581.04
675.527	3654.77
675.717	3617.91
675.908	3638.39
676.099	3556.47
676.289	3613.81
676.48	3652.72
676.671	3624.05
676.861	3523.7
677.052	3384.44
677.243	3566.71
677.433	3474.55
677.624	3435.64
677.814	3406.97
678.005	3474.55
678.195	3452.02
678.386	3386.49
678.576	3384.44
678.767	3486.84
678.957	3474.55
679.148	3435.64
679.338	3366.01
679.529	3310.71
679.719	3343.48
679.909	3427.45
680.1	3411.06
680.29	3378.3
680.481	3294.33
680.671	3279.99
680.861	3378.3
681.052	3347.58
681.242	3230.84
681.432	3279.99
681.622	3316.86
681.813	3243.13
682.003	3167.35
682.193	3191.93
682.383	3255.42
682.573	3236.99
682.764	3265.66
682.954	3208.31
683.144	3228.79
683.334	3175.55
683.524	3220.6
683.714	3206.27
683.904	3157.11
684.094	3183.74
684.284	3103.87
684.474	3282.04
684.664	3122.3
684.854	3169.4
685.044	3163.26
685.234	2966.65
685.424	3052.67
685.614	3056.76
685.804	3011.71
685.994	3077.24
686.184	3130.49
686.374	3024
686.564	3064.96
686.753	3024
686.943	2911.36
687.133	2897.02
687.323	2940.03
687.513	2935.93
687.702	2860.16
687.892	2858.11
688.082	2989.18
688.272	2925.69
688.461	2845.82
688.651	2919.55
688.841	2954.37
689.03	2712.71
689.22	2794.62
689.41	2847.87
689.599	2843.78
689.789	2821.25
689.979	2774.14
690.168	2897.02
690.358	2843.78
690.547	2778.24
690.737	2708.61
690.926	2784.38
691.116	2733.18
691.305	2798.72
691.495	2655.36
691.684	2737.28
691.874	2737.28
692.063	2737.28
692.252	2792.58
692.442	2636.93
692.631	2692.23
692.82	2565.25
693.01	2643.07
693.199	2700.42
693.388	2538.63
693.578	2573.44
693.767	2614.4
693.956	2536.58
694.146	2679.94
694.335	2710.66
694.524	2473.09
694.713	2702.47
694.902	2450.57
695.092	2550.92
695.281	2509.96
695.47	2534.53
695.659	2499.72
695.848	2477.19
696.037	2528.39
696.226	2469
696.415	2471.04
696.604	2526.34
696.793	2417.8
696.982	2475.14
697.171	2512
697.36	2438.28
697.549	2540.68
697.738	2409.61
697.927	2425.99
698.116	2452.61
698.305	2335.88
698.494	2520.2
698.683	2344.07
698.872	2448.52
699.061	2378.89
699.25	2354.31
699.438	2469
699.627	2264.2
699.816	2399.37
700.005	2200.71
700.193	2360.45
700.382	2395.27
700.571	2368.65
700.76	2243.72
700.948	2391.17
701.137	2288.78
701.326	2262.15
701.514	2370.69
701.703	2368.65
701.892	2253.96
702.08	2372.74
702.269	2280.58
702.457	2405.51
702.646	2313.35
702.834	2360.45
703.023	2282.63
703.212	2249.86
703.4	2225.29
703.589	2223.24
703.777	2235.53
703.965	2305.16
704.154	2184.33
704.342	2200.71
704.531	2102.41
704.719	2139.27
704.907	2337.93
705.096	2215.05
705.284	2284.68
705.472	2180.23
705.661	2184.33
705.849	2243.72
706.037	2243.72
706.226	2317.45
706.414	2182.28
706.602	2122.89
706.79	2217.1
706.979	2073.74
707.167	2253.96
707.355	2065.55
707.543	2112.65
707.731	2221.19
707.919	2165.9
708.107	2106.51
708.296	2122.89
708.484	2055.31
708.672	2155.66
708.86	2120.84
709.048	2020.49
709.236	2147.47
709.424	2241.67
709.612	2167.95
709.8	2057.36
709.988	2114.7
710.176	2169.99
710.364	2073.74
710.551	2172.04
710.739	2069.64
710.927	2061.45
711.115	2116.75
711.303	2229.38
711.491	2094.22
711.679	2098.31
711.866	2065.55
712.054	2008.2
712.242	2040.97
712.43	1905.81
712.617	2090.12
712.805	2008.2
712.993	2135.18
713.181	2100.36
713.368	2059.4
713.556	2133.13
713.744	2165.9
713.931	2145.42
714.119	2122.89
714.306	1995.92
714.494	1973.39
714.682	2000.01
714.869	1944.72
715.057	2040.97
715.244	1879.18
715.432	1950.86
715.619	2012.3
715.807	1911.95
715.994	1977.48
716.182	2114.7
716.369	2124.94
716.556	1944.72
716.744	1975.44
716.931	2075.79
717.119	1942.67
717.306	1911.95
717.493	1985.68
717.681	2000.01
717.868	1954.96
718.055	1967.24
718.242	1961.1
718.43	2024.59
718.617	1985.68
718.804	2094.22
718.991	1969.29
719.179	1948.81
719.366	1889.42
719.553	1914
719.74	1914
719.927	1979.53
720.114	1942.67
720.301	1952.91
720.488	1938.57
720.676	1965.2
720.863	1918.09
721.05	1887.37
721.237	1950.86
721.424	2034.83
721.611	1930.38
721.798	1836.17
721.985	1967.24
722.172	1877.13
722.358	1891.47
722.545	1934.48
722.732	1973.39
722.919	1823.89
723.106	1836.17
723.293	1893.52
723.48	1883.28
723.667	1860.75
723.853	1936.53
724.04	1918.09
724.227	1844.37
724.414	1901.71
724.6	1899.66
724.787	1868.94
724.974	1901.71
725.161	1959.05
725.347	1895.57
725.534	1877.13
725.72	1918.09
725.907	1936.53
726.094	1868.94
726.28	1811.6
726.467	1866.89
726.653	1885.33
726.84	1916.05
727.027	1975.44
727.213	1809.55
727.4	1877.13
727.586	1911.95
727.773	2000.01
727.959	1903.76
728.145	1879.18
728.332	1856.65
728.518	1879.18
728.705	1817.74
728.891	1705.1
729.077	1735.82
729.264	1803.41
729.45	1844.37
729.636	1756.3
729.823	1856.65
730.009	1909.9
730.195	1864.85
730.382	1793.17
730.568	1754.26
730.754	1834.13
730.94	1778.83
731.126	1811.6
731.313	1807.5
731.499	1844.37
731.685	1862.8
731.871	1803.41
732.057	1858.7
732.243	1748.11
732.429	1819.79
732.615	1819.79
732.801	1883.28
732.987	1807.5
733.173	1832.08
733.359	1766.54
733.545	1741.97
733.731	1696.91
733.917	1789.07
734.103	1827.98
734.289	1807.5
734.475	1803.41
734.661	1864.85
734.847	1846.41
735.033	1713.3
735.219	1907.85
735.404	1844.37
735.59	1746.06
735.776	1698.96
735.962	1727.63
736.148	1762.45
736.333	1797.26
736.519	1707.15
736.705	1655.95
736.89	1674.39
737.076	1676.43
737.262	1690.77
737.447	1709.2
737.633	1746.06
737.819	1795.22
738.004	1524.88
738.19	1709.2
738.375	1772.69
738.561	1770.64
738.747	1737.87
738.932	1776.78
739.118	1707.15
739.303	1635.47
739.489	1725.58
739.674	1733.78
739.859	1717.39
740.045	1651.86
740.23	1664.15
740.416	1633.43
740.601	1698.96
740.786	1619.09
740.972	1500.31
741.157	1559.7
741.342	1545.36
741.528	1660.05
741.713	1565.84
741.898	1643.67
742.084	1647.76
742.269	1555.6
742.454	1660.05
742.639	1610.9
742.824	1617.04
743.01	1614.99
743.195	1557.65
743.38	1590.42
743.565	1434.77
743.75	1582.23
743.935	1406.1
744.12	1526.93
744.305	1391.77
744.49	1512.6
744.675	1461.4
744.86	1479.83
745.045	1479.83
745.23	1551.51
745.415	1434.77
745.6	1477.78
745.785	1541.27
745.97	1488.02
746.155	1426.58
746.34	1402.01
746.525	1373.33
746.71	1578.13
746.895	1422.48
747.079	1488.02
747.264	1393.81
747.449	1422.48
747.634	1393.81
747.819	1352.85
748.003	1500.31
748.188	1324.18
748.373	1293.46
748.557	1297.56
748.742	1381.53
748.927	1262.74
749.111	1344.66
749.296	1369.24
749.481	1229.98
749.665	1295.51
749.85	1295.51
750.034	1371.29
750.219	1352.85
750.404	1197.21
750.588	1238.17
750.773	1221.78
750.957	1221.78
751.141	1199.26
751.326	1264.79
751.51	1189.02
751.695	1256.6
751.879	1213.59
752.064	1287.32
752.248	1205.4
752.432	1262.74
752.617	1191.06
752.801	1258.65
752.985	1197.21
753.17	1252.5
753.354	1092.76
753.538	1156.25
753.722	1123.48
753.907	1066.14
754.091	1148.06
754.275	1164.44
754.459	1014.94
754.643	1164.44
754.828	1070.23
755.012	1139.87
755.196	1033.37
755.38	1000.6
755.564	1076.38
755.748	945.31
755.932	1041.56
756.116	1029.27
756.3	1109.15
756.484	992.41
756.668	1014.94
756.852	984.22
757.036	947.36
757.22	1029.27
757.404	953.5
757.588	1033.37
757.772	1053.85
757.956	1068.19
758.14	984.22
758.323	930.97
758.507	1035.42
758.691	951.45
758.875	910.49
759.059	930.97
759.242	865.44
759.426	920.73
759.61	928.92
759.794	898.2
759.977	947.36
760.161	1033.37
760.345	959.64
760.528	937.12
760.712	853.15
760.895	916.64
761.079	871.58
761.263	885.92
761.446	820.38
761.63	830.62
761.813	967.84
761.997	765.09
762.18	894.11
762.364	885.92
762.547	808.09
762.731	928.92
762.914	924.83
763.098	812.19
763.281	789.66
763.464	781.47
763.648	853.15
763.831	847.01
764.015	791.71
764.198	806.05
764.381	808.09
764.564	838.81
764.748	820.38
764.931	867.49
765.114	853.15
765.297	896.16
765.481	715.94
765.664	812.19
765.847	777.37
766.03	791.71
766.213	769.18
766.397	732.32
766.58	720.03
766.763	855.2
766.946	855.2
767.129	693.41
767.312	771.23
767.495	767.13
767.678	769.18
767.861	736.42
768.044	722.08
768.227	722.08
768.41	664.74
768.593	681.12
768.776	722.08
768.959	685.22
769.142	767.13
769.324	713.89
769.507	775.33
769.69	636.06
769.873	756.9
770.056	689.31
770.239	677.02
770.421	738.46
770.604	765.09
770.787	697.5
770.97	781.47
771.152	699.55
771.335	689.31
771.518	683.17
771.7	724.13
771.883	711.84
772.066	711.84
772.248	607.39
772.431	689.31
772.613	623.78
772.796	625.83
772.978	699.55
773.161	656.54
773.343	656.54
773.526	642.21
773.708	615.59
773.891	552.1
774.073	642.21
774.256	609.44
774.438	609.44
774.621	611.49
774.803	638.11
774.985	535.71
775.168	631.97
775.35	613.54
775.532	570.53
775.715	586.91
775.897	486.56
776.079	537.76
776.261	568.48
776.444	552.1
776.626	552.1
776.808	591.01
776.99	648.35
777.173	613.54
777.355	566.43
777.537	640.16
777.719	607.39
777.901	531.62
778.083	593.06
778.265	511.14
778.447	556.19
778.629	496.8
778.811	525.47
778.993	527.52
779.175	566.43
779.357	535.71
779.539	461.99
779.721	441.51
779.903	564.39
780.085	545.95
780.267	562.34
780.449	529.57
780.631	533.67
780.812	482.47
780.994	421.03
781.176	429.22
781.358	472.23
781.54	486.56
781.721	478.37
781.903	504.99
782.085	429.22
782.267	519.33
782.448	435.36
782.63	392.36
782.812	429.22
782.993	443.56
783.175	494.76
783.357	396.45
783.538	388.26
783.72	459.94
783.901	410.79
784.083	418.98
784.264	410.79
784.446	337.06
784.627	433.32
784.809	386.21
784.99	398.5
785.172	418.98
785.353	371.88
785.535	328.87
785.716	390.31
785.897	296.1
786.079	386.21
786.26	373.92
786.441	476.32
786.623	271.53
786.804	345.25
786.985	316.58
787.167	355.49
787.348	369.83
787.529	298.15
787.71	418.98
787.891	410.79
788.073	351.4
788.254	316.58
788.435	353.45
788.616	353.45
788.797	300.2
788.978	304.29
789.159	337.06
789.34	355.49
789.522	314.53
789.703	267.43
789.884	281.77
790.065	345.25
790.246	265.38
790.427	343.21
790.607	351.4
790.788	306.34
790.969	251.05
791.15	298.15
791.331	314.53
791.512	332.97
791.693	296.1
791.874	205.99
792.054	328.87
792.235	292.01
792.416	302.25
792.597	296.1
792.778	292.01
792.958	275.62
793.139	259.24
793.32	292.01
793.5	292.01
793.681	296.1
793.862	222.38
794.042	263.33
794.223	236.71
794.404	226.47
794.584	234.66
794.765	208.04
794.945	251.05
795.126	275.62
795.306	281.77
795.487	355.49
795.667	193.7
795.848	296.1
796.028	287.91
796.209	189.61
796.389	255.14
796.57	214.18
796.75	263.33
796.93	246.95
797.111	222.38
797.291	261.29
797.471	277.67
797.652	292.01
797.832	208.04
798.012	345.25
798.192	181.42
798.373	197.8
798.553	171.18
798.733	232.62
798.913	218.28
799.093	152.74
799.274	279.72
799.454	279.72
799.634	208.04
799.814	238.76
799.994	263.33
800.174	232.62
800.354	263.33
800.534	224.42
800.714	238.76
800.894	185.51
801.074	165.03
801.254	251.05
801.434	246.95
801.614	148.65
801.794	146.6
801.974	758.94
802.154	232.62
802.334	296.1
802.514	171.18
802.693	199.85
802.873	175.27
803.053	173.22
803.233	177.32
803.413	201.9
803.592	173.22
803.772	197.8
803.952	216.23
804.131	179.37
804.311	191.66
804.491	181.42
804.67	224.42
804.85	148.65
805.03	189.61
805.209	165.03
805.389	199.85
805.568	171.18
805.748	228.52
805.928	205.99
806.107	242.85
806.287	140.46
806.466	175.27
806.646	169.13
806.825	136.36
807.004	138.41
807.184	160.94
807.363	257.19
807.543	156.84
807.722	195.75
807.901	146.6
808.081	199.85
808.26	91.31
808.439	136.36
808.619	124.07
808.798	68.78
808.977	173.22
809.156	117.93
809.336	156.84
809.515	83.11
809.694	89.26
809.873	132.26
810.052	132.26
810.231	136.36
810.411	199.85
810.59	64.68
810.769	113.83
810.948	189.61
811.127	165.03
811.306	160.94
811.485	103.59
811.664	177.32
811.843	193.7
812.022	193.7
812.201	148.65
812.38	183.46
812.559	113.83
812.737	124.07
812.916	83.11
813.095	173.22
813.274	68.78
813.453	128.17
813.632	208.04
813.811	185.51
813.989	56.49
814.168	165.03
814.347	140.46
814.526	50.35
814.704	91.31
814.883	179.37
815.062	156.84
815.24	189.61
815.419	107.69
815.598	177.32
815.776	62.63
815.955	132.26
816.133	13.48
816.312	68.78
816.49	70.83
816.669	134.31
816.847	132.26
817.026	87.21
817.204	56.49
817.383	130.22
817.561	74.92
817.74	144.55
817.918	74.92
818.097	142.5
818.275	99.5
818.453	189.61
818.632	132.26
818.81	31.91
818.988	107.69
819.167	103.59
819.345	124.07
819.523	167.08
819.701	103.59
819.879	134.31
820.058	119.98
820.236	162.98
820.414	74.92
820.592	99.5
820.77	66.73
820.948	83.11
821.127	42.15
821.305	111.78
821.483	126.12
821.661	132.26
821.839	85.16
822.017	56.49
822.195	83.11
822.373	85.16
822.551	99.5
822.729	115.88
822.907	79.02
823.085	85.16
823.262	66.73
823.44	60.59
823.618	83.11
823.796	103.59
823.974	83.11
824.152	62.63
824.329	83.11
824.507	113.83
824.685	31.91
824.863	99.5
825.04	62.63
825.218	19.63
825.396	72.87
825.574	169.13
825.751	38.06
825.929	72.87
826.107	-7
826.284	179.37
826.462	54.44
826.639	-21.33
826.817	95.4
826.994	85.16
827.172	46.25
827.349	79.02
827.527	66.73
827.704	60.59
827.882	103.59
828.059	95.4
828.237	58.54
828.414	126.12
828.591	91.31
828.769	95.4
828.946	15.53
829.124	109.74
829.301	93.35
829.478	66.73
829.655	111.78
829.833	144.55
830.01	46.25
830.187	99.5
830.364	58.54
830.542	95.4
830.719	1.19
830.896	115.88
831.073	79.02
831.25	107.69
831.427	17.58
831.604	58.54
831.782	44.2
831.959	50.35
832.136	103.59
832.313	13.48
832.49	38.06
832.667	-7
832.844	15.53
833.021	33.96
833.198	83.11
833.374	115.88
833.551	9.39
833.728	74.92
833.905	142.5
834.082	-21.33
834.259	91.31
834.436	119.98
834.612	-37.72
834.789	128.17
834.966	38.06
835.143	85.16
835.319	13.48
835.496	-21.33
835.673	97.45
835.85	72.87
836.026	25.77
836.203	134.31
836.38	9.39
836.556	76.97
836.733	93.35
836.909	72.87
837.086	91.31
837.262	68.78
837.439	52.39
837.616	76.97
837.792	-9.05
837.968	105.64
838.145	-2.9
838.321	99.5
838.498	29.87
838.674	107.69
838.851	79.02
839.027	50.35
839.203	60.59
839.38	60.59
839.556	83.11
839.732	70.83
839.909	17.58
840.085	-15.19
840.261	38.06
840.437	81.07
840.614	62.63
840.79	76.97
840.966	33.96
841.142	74.92
841.318	132.26
841.494	56.49
841.671	33.96
841.847	17.58
842.023	-37.72
842.199	38.06
842.375	87.21
842.551	-2.9
842.727	42.15
842.903	119.98
843.079	29.87
843.255	91.31
843.431	46.25
843.607	-19.29
843.783	-39.76
843.959	42.15
844.134	17.58
844.31	27.82
844.486	124.07
844.662	19.63
844.838	33.96
845.013	42.15
845.189	27.82
845.365	-52.05
845.541	36.01
845.716	68.78
845.892	-4.95
846.068	79.02
846.244	5.29
846.419	107.69
846.595	42.15
846.77	81.07
846.946	17.58
847.122	99.5
847.297	33.96
847.473	132.26
847.648	-41.81
847.824	38.06
847.999	-2.9
848.175	50.35
848.35	27.82
848.526	68.78
848.701	54.44
848.876	134.31
849.052	105.64
849.227	50.35
849.403	7.34
849.578	62.63
849.753	50.35
849.929	99.5
850.104	50.35
850.279	-13.14
850.454	33.96
850.63	-7
850.805	19.63
850.98	107.69
851.155	46.25
851.33	-19.29
851.505	-15.19
851.681	85.16
851.856	-31.57
852.031	25.77
852.206	38.06
852.381	23.72
852.556	21.67
852.731	70.83
852.906	79.02
853.081	58.54
853.256	11.43
853.431	25.77
853.606	17.58
853.781	9.39
853.956	11.43
854.131	62.63
854.305	38.06
854.48	52.39
854.655	33.96
854.83	52.39
855.005	3.24
855.18	19.63
855.354	44.2
855.529	74.92
855.704	-29.52
855.879	21.67
856.053	85.16
856.228	109.74
856.403	-27.48
856.577	-23.38
856.752	-2.9
856.926	107.69
857.101	-7
857.276	52.39
857.45	-7
857.625	42.15
857.799	62.63
857.974	85.16
858.148	27.82
858.323	44.2
858.497	33.96
858.672	-4.95
858.846	83.11
859.02	-19.29
859.195	3.24
859.369	58.54
859.543	36.01
859.718	70.83
859.892	9.39
860.066	91.31
860.241	5.29
860.415	52.39
860.589	33.96
860.763	15.53
860.938	23.72
861.112	72.87
861.286	58.54
861.46	-4.95
861.634	21.67
861.808	89.26
861.982	-52.05
862.157	60.59
862.331	-64.34
862.505	-15.19
862.679	-31.57
862.853	5.29
863.027	-39.76
863.201	115.88
863.375	40.11
863.549	-15.19
863.722	70.83
863.896	-27.48
864.07	-2.9
864.244	3.24
864.418	38.06
864.592	99.5
864.766	-21.33
864.939	1.19
865.113	-68.44
865.287	9.39
865.461	5.29
865.634	-39.76
865.808	17.58
865.982	-2.9
866.156	1.19
866.329	-15.19
866.503	13.48
866.676	105.64
866.85	3.24
867.024	29.87
867.197	25.77
867.371	-21.33
867.544	1.19
867.718	29.87
867.891	66.73
868.065	-76.63
868.238	-52.05
868.412	95.4
868.585	-25.43
868.759	13.48
868.932	-39.76
869.105	17.58
869.279	107.69
869.452	5.29
869.625	17.58
869.799	-15.19
869.972	1.19
870.145	25.77
870.319	25.77
870.492	72.87
870.665	66.73
870.838	9.39
871.011	-56.15
871.185	-52.05
871.358	-31.57
871.531	36.01
871.704	-7
871.877	74.92
872.05	1.19
872.223	-7
872.396	19.63
872.569	74.92
872.742	17.58
872.915	36.01
873.088	13.48
873.261	9.39
873.434	-4.95
873.607	33.96
873.78	1.19
873.953	-43.86
874.126	-2.9
874.299	68.78
874.471	-2.9
874.644	-27.48
874.817	38.06
874.99	9.39
875.163	1.19
875.335	85.16
875.508	29.87
875.681	11.43
875.853	-52.05
876.026	25.77
876.199	44.2
876.371	76.97
876.544	-21.33
876.717	-4.95
876.889	-4.95
877.062	173.22
877.234	-2.9
877.407	-29.52
877.579	-23.38
877.752	85.16
877.924	46.25
878.097	25.77
878.269	-2.9
878.442	52.39
878.614	46.25
878.786	70.83
878.959	-11.09
879.131	93.35
879.303	-23.38
879.476	-27.48
879.648	44.2
879.82	-15.19
879.993	-4.95
880.165	21.67
880.337	-78.68
880.509	74.92
880.681	-19.29
880.854	-27.48
881.026	-2.9
881.198	66.73
881.37	33.96
881.542	-4.95
881.714	5.29
881.886	-19.29
882.058	11.43
882.23	9.39
882.402	-2.9
882.574	17.58
882.746	33.96
882.918	27.82
883.09	-15.19
883.262	19.63
883.434	-27.48
883.606	-23.38
883.778	5.29
883.95	101.55
884.122	-7
884.293	-47.96
884.465	-19.29
884.637	9.39
884.809	81.07
884.98	-37.72
885.152	50.35
885.324	44.2
885.496	36.01
885.667	9.39
885.839	1.19
886.011	66.73
886.182	17.58
886.354	40.11
886.525	-21.33
886.697	33.96
886.869	13.48
887.04	33.96
887.212	33.96
887.383	81.07
887.555	33.96
887.726	11.43
887.897	-27.48
888.069	33.96
888.24	66.73
888.412	-2.9
888.583	48.3
888.754	-37.72
888.926	-43.86
889.097	25.77
889.268	-11.09
889.44	68.78
889.611	-43.86
889.782	-7
889.953	-19.29
890.125	33.96
890.296	-4.95
890.467	3.24
890.638	-31.57
890.809	19.63
890.98	11.43
891.151	-7
891.323	-7
891.494	17.58
891.665	-7
891.836	-39.76
892.007	60.59
892.178	19.63
892.349	11.43
892.52	27.82
892.691	1.19
892.862	25.77
893.032	-35.67
893.203	40.11
893.374	89.26
893.545	68.78
893.716	11.43
893.887	31.91
894.057	-84.82
894.228	66.73
894.399	21.67
894.57	25.77
894.74	-39.76
894.911	-4.95
895.082	-4.95
895.253	-19.29
895.423	38.06
895.594	17.58
895.764	9.39
895.935	-72.53
896.106	33.96
896.276	3.24
896.447	-7
896.617	9.39
896.788	-31.57
896.958	-7
897.129	-15.19
897.299	-88.92
897.47	42.15
897.64	27.82
897.81	15.53
897.981	42.15
898.151	-97.11
898.322	-4.95
898.492	25.77
898.662	-21.33
898.832	-62.29
899.003	-54.1
899.173	38.06
899.343	5.29
899.513	-47.96
