Data from USB4F104151__178__14-45-04-233.txt Node

Date: Thu Mar 13 14:45:04 EDT 2025
User: louis
Spectrometer: USB4F10415
Trigger mode: 4
Integration Time (sec): 2.000000E-2
Scans to average: 1
Electric dark correction enabled: true
Nonlinearity correction enabled: false
Boxcar width: 0
XAxis mode: Wavelengths
Number of Pixels in Spectrum: 3648
>>>>>Begin Spectral Data<<<<<
178.204	-68.78
178.424	-68.78
178.644	-68.78
178.864	-115.88
179.084	-91.31
179.304	-44.2
179.524	9.05
179.744	25.43
179.964	82.77
180.184	-36.01
180.404	43.86
180.624	-54.44
180.844	43.86
181.064	-74.92
181.283	4.95
181.503	11.09
181.723	-11.43
181.943	17.24
182.163	107.35
182.383	9.05
182.602	74.58
182.822	13.14
183.042	35.67
183.262	70.48
183.482	-15.53
183.701	66.39
183.921	33.62
184.141	17.24
184.361	76.63
184.58	84.82
184.8	66.39
185.02	15.19
185.239	99.16
185.459	45.91
185.679	-15.53
185.898	-1.19
186.118	54.1
186.338	-38.06
186.557	101.2
186.777	-7.34
186.997	84.82
187.216	-5.29
187.436	66.39
187.655	62.29
187.875	140.12
188.095	17.24
188.314	27.48
188.534	45.91
188.753	99.16
188.973	-9.39
189.192	107.35
189.412	2.9
189.631	37.72
189.851	43.86
190.07	154.45
190.29	17.24
190.509	25.43
190.729	0.85
190.948	107.35
191.168	172.88
191.387	50
191.607	60.24
191.826	47.96
192.045	37.72
192.265	-11.43
192.484	-29.87
192.704	19.29
192.923	52.05
193.142	119.64
193.362	86.87
193.581	82.77
193.8	41.81
194.02	62.29
194.239	82.77
194.458	39.76
194.678	103.25
194.897	76.63
195.116	58.2
195.335	17.24
195.555	-36.01
195.774	37.72
195.993	74.58
196.212	76.63
196.432	54.1
196.651	19.29
196.87	41.81
197.089	68.44
197.308	25.43
197.528	99.16
197.747	-60.59
197.966	93.01
198.185	131.92
198.404	74.58
198.623	78.68
198.842	140.12
199.062	58.2
199.281	58.2
199.5	80.72
199.719	99.16
199.938	60.24
200.157	74.58
200.376	31.57
200.595	68.44
200.814	0.85
201.033	-42.15
201.252	35.67
201.471	107.35
201.69	39.76
201.909	45.91
202.128	-62.63
202.347	0.85
202.566	45.91
202.785	52.05
203.004	74.58
203.223	52.05
203.442	19.29
203.661	33.62
203.879	66.39
204.098	68.44
204.317	4.95
204.536	68.44
204.755	90.96
204.974	90.96
205.193	11.09
205.411	136.02
205.63	72.53
205.849	78.68
206.068	-46.25
206.287	37.72
206.505	84.82
206.724	68.44
206.943	25.43
207.162	52.05
207.381	66.39
207.599	58.2
207.818	17.24
208.037	29.52
208.255	68.44
208.474	4.95
208.693	56.15
208.911	-38.06
209.13	62.29
209.349	52.05
209.567	111.44
209.786	43.86
210.005	64.34
210.223	39.76
210.442	31.57
210.661	41.81
210.879	25.43
211.098	17.24
211.316	-9.39
211.535	160.59
211.753	56.15
211.972	72.53
212.191	-13.48
212.409	-15.53
212.628	52.05
212.846	0.85
213.065	52.05
213.283	144.21
213.502	19.29
213.72	-15.53
213.938	97.11
214.157	123.73
214.375	-11.43
214.594	29.52
214.812	33.62
215.031	66.39
215.249	19.29
215.467	27.48
215.686	33.62
215.904	-1.19
216.122	58.2
216.341	82.77
216.559	152.4
216.778	103.25
216.996	50
217.214	62.29
217.432	19.29
217.651	99.16
217.869	-29.87
218.087	17.24
218.306	70.48
218.524	50
218.742	35.67
218.96	129.88
219.179	-5.29
219.397	156.5
219.615	93.01
219.833	74.58
220.051	84.82
220.27	156.5
220.488	62.29
220.706	82.77
220.924	52.05
221.142	-7.34
221.36	-7.34
221.578	109.4
221.796	39.76
222.015	33.62
222.233	52.05
222.451	86.87
222.669	43.86
222.887	43.86
223.105	-38.06
223.323	13.14
223.541	21.33
223.759	78.68
223.977	37.72
224.195	90.96
224.413	-23.72
224.631	90.96
224.849	45.91
225.067	78.68
225.285	43.86
225.503	41.81
225.721	33.62
225.939	39.76
226.157	60.24
226.375	109.4
226.592	-19.63
226.81	-21.67
227.028	33.62
227.246	101.2
227.464	121.68
227.682	60.24
227.9	27.48
228.117	50
228.335	58.2
228.553	58.2
228.771	7
228.989	41.81
229.206	25.43
229.424	17.24
229.642	66.39
229.86	19.29
230.077	0.85
230.295	64.34
230.513	21.33
230.731	56.15
230.948	113.49
231.166	107.35
231.384	2.9
231.601	35.67
231.819	133.97
232.037	-21.67
232.254	37.72
232.472	-5.29
232.689	13.14
232.907	52.05
233.125	25.43
233.342	80.72
233.56	86.87
233.777	21.33
233.995	-31.91
234.213	123.73
234.43	123.73
234.648	-3.24
234.865	9.05
235.083	115.54
235.3	86.87
235.518	111.44
235.735	88.92
235.953	99.16
236.17	-27.82
236.388	66.39
236.605	4.95
236.822	70.48
237.04	58.2
237.257	-72.87
237.475	17.24
237.692	62.29
237.909	27.48
238.127	-17.58
238.344	74.58
238.562	62.29
238.779	54.1
238.996	-31.91
239.214	25.43
239.431	11.09
239.648	21.33
239.865	82.77
240.083	111.44
240.3	2.9
240.517	43.86
240.735	15.19
240.952	140.12
241.169	82.77
241.386	68.44
241.603	25.43
241.821	-21.67
242.038	127.83
242.255	84.82
242.472	-21.67
242.689	27.48
242.907	74.58
243.124	56.15
243.341	131.92
243.558	17.24
243.775	52.05
243.992	-29.87
244.209	140.12
244.426	37.72
244.643	41.81
244.86	-40.11
245.078	109.4
245.295	136.02
245.512	70.48
245.729	52.05
245.946	37.72
246.163	33.62
246.38	33.62
246.597	17.24
246.814	9.05
247.031	9.05
247.248	86.87
247.464	58.2
247.681	31.57
247.898	111.44
248.115	66.39
248.332	2.9
248.549	103.25
248.766	115.54
248.983	119.64
249.2	90.96
249.417	4.95
249.633	60.24
249.85	37.72
250.067	-72.87
250.284	-1.19
250.501	107.35
250.717	-11.43
250.934	58.2
251.151	76.63
251.368	68.44
251.585	27.48
251.801	21.33
252.018	15.19
252.235	66.39
252.451	39.76
252.668	33.62
252.885	74.58
253.102	82.77
253.318	9.05
253.535	50
253.752	99.16
253.968	41.81
254.185	11.09
254.401	19.29
254.618	43.86
254.835	37.72
255.051	68.44
255.268	66.39
255.484	60.24
255.701	52.05
255.917	160.59
256.134	52.05
256.351	4.95
256.567	17.24
256.784	37.72
257	56.15
257.217	43.86
257.433	136.02
257.65	125.78
257.866	41.81
258.082	56.15
258.299	-21.67
258.515	103.25
258.732	64.34
258.948	-23.72
259.165	50
259.381	56.15
259.597	68.44
259.814	50
260.03	52.05
260.246	0.85
260.463	54.1
260.679	93.01
260.895	27.48
261.112	-15.53
261.328	17.24
261.544	37.72
261.761	82.77
261.977	-15.53
262.193	33.62
262.409	95.06
262.626	37.72
262.842	99.16
263.058	60.24
263.274	-15.53
263.49	54.1
263.707	138.07
263.923	101.2
264.139	41.81
264.355	41.81
264.571	103.25
264.787	17.24
265.004	90.96
265.22	84.82
265.436	-21.67
265.652	86.87
265.868	29.52
266.084	-7.34
266.3	70.48
266.516	23.38
266.732	50
266.948	9.05
267.164	19.29
267.38	15.19
267.596	19.29
267.812	113.49
268.028	41.81
268.244	9.05
268.46	23.38
268.676	90.96
268.892	58.2
269.108	4.95
269.324	-13.48
269.54	-27.82
269.756	97.11
269.972	78.68
270.188	43.86
270.403	43.86
270.619	90.96
270.835	50
271.051	31.57
271.267	11.09
271.483	25.43
271.698	84.82
271.914	35.67
272.13	9.05
272.346	41.81
272.562	39.76
272.777	54.1
272.993	-56.49
273.209	80.72
273.425	68.44
273.64	82.77
273.856	45.91
274.072	33.62
274.287	-19.63
274.503	21.33
274.719	84.82
274.934	37.72
275.15	-64.68
275.366	78.68
275.581	58.2
275.797	142.16
276.012	25.43
276.228	-31.91
276.444	58.2
276.659	33.62
276.875	17.24
277.09	68.44
277.306	62.29
277.521	21.33
277.737	113.49
277.952	95.06
278.168	0.85
278.383	50
278.599	35.67
278.814	37.72
279.03	27.48
279.245	11.09
279.461	86.87
279.676	78.68
279.892	13.14
280.107	41.81
280.322	13.14
280.538	105.3
280.753	0.85
280.969	80.72
281.184	76.63
281.399	70.48
281.615	-11.43
281.83	37.72
282.045	-23.72
282.26	27.48
282.476	35.67
282.691	103.25
282.906	105.3
283.122	52.05
283.337	62.29
283.552	-9.39
283.767	60.24
283.983	66.39
284.198	66.39
284.413	29.52
284.628	21.33
284.843	58.2
285.058	95.06
285.274	33.62
285.489	-1.19
285.704	66.39
285.919	43.86
286.134	52.05
286.349	47.96
286.564	-11.43
286.779	25.43
286.995	54.1
287.21	29.52
287.425	41.81
287.64	4.95
287.855	27.48
288.07	43.86
288.285	52.05
288.5	156.5
288.715	136.02
288.93	21.33
289.145	68.44
289.36	76.63
289.575	9.05
289.79	90.96
290.004	37.72
290.219	119.64
290.434	56.15
290.649	11.09
290.864	62.29
291.079	-15.53
291.294	58.2
291.509	-21.67
291.724	60.24
291.938	45.91
292.153	35.67
292.368	25.43
292.583	45.91
292.798	119.64
293.012	-46.25
293.227	21.33
293.442	33.62
293.657	47.96
293.871	68.44
294.086	74.58
294.301	25.43
294.516	50
294.73	50
294.945	45.91
295.16	25.43
295.374	54.1
295.589	93.01
295.804	50
296.018	82.77
296.233	64.34
296.447	56.15
296.662	-11.43
296.877	125.78
297.091	78.68
297.306	97.11
297.52	68.44
297.735	90.96
297.949	-7.34
298.164	101.2
298.378	93.01
298.593	2.9
298.807	-13.48
299.022	-23.72
299.236	33.62
299.451	88.92
299.665	50
299.88	105.3
300.094	33.62
300.309	0.85
300.523	21.33
300.737	-21.67
300.952	60.24
301.166	25.43
301.381	41.81
301.595	33.62
301.809	107.35
302.024	2.9
302.238	27.48
302.452	27.48
302.667	84.82
302.881	82.77
303.095	82.77
303.309	64.34
303.524	9.05
303.738	37.72
303.952	41.81
304.166	90.96
304.381	-27.82
304.595	74.58
304.809	-15.53
305.023	66.39
305.237	41.81
305.452	45.91
305.666	50
305.88	93.01
306.094	43.86
306.308	84.82
306.522	41.81
306.736	76.63
306.95	70.48
307.164	-21.67
307.379	41.81
307.593	86.87
307.807	66.39
308.021	123.73
308.235	43.86
308.449	47.96
308.663	66.39
308.877	113.49
309.091	62.29
309.305	131.92
309.519	60.24
309.733	33.62
309.947	33.62
310.161	15.19
310.374	11.09
310.588	84.82
310.802	-23.72
311.016	43.86
311.23	23.38
311.444	41.81
311.658	13.14
311.872	74.58
312.085	52.05
312.299	107.35
312.513	82.77
312.727	33.62
312.941	29.52
313.154	60.24
313.368	33.62
313.582	76.63
313.796	50
314.009	13.14
314.223	88.92
314.437	60.24
314.651	37.72
314.864	117.59
315.078	41.81
315.292	0.85
315.505	76.63
315.719	82.77
315.933	35.67
316.146	25.43
316.36	7
316.573	27.48
316.787	31.57
317.001	58.2
317.214	17.24
317.428	58.2
317.641	70.48
317.855	66.39
318.068	54.1
318.282	0.85
318.495	74.58
318.709	111.44
318.922	90.96
319.136	103.25
319.349	64.34
319.563	-31.91
319.776	78.68
319.99	43.86
320.203	41.81
320.417	43.86
320.63	66.39
320.843	90.96
321.057	37.72
321.27	-29.87
321.483	39.76
321.697	31.57
321.91	37.72
322.124	4.95
322.337	21.33
322.55	-7.34
322.763	-23.72
322.977	17.24
323.19	68.44
323.403	11.09
323.617	56.15
323.83	62.29
324.043	60.24
324.256	43.86
324.469	-17.58
324.683	58.2
324.896	58.2
325.109	52.05
325.322	41.81
325.535	125.78
325.748	33.62
325.962	99.16
326.175	93.01
326.388	-15.53
326.601	31.57
326.814	-15.53
327.027	58.2
327.24	70.48
327.453	4.95
327.666	37.72
327.879	-13.48
328.092	123.73
328.305	37.72
328.518	45.91
328.731	-15.53
328.944	21.33
329.157	13.14
329.37	27.48
329.583	68.44
329.796	146.26
330.009	45.91
330.222	11.09
330.435	62.29
330.648	58.2
330.861	27.48
331.073	103.25
331.286	54.1
331.499	31.57
331.712	33.62
331.925	17.24
332.138	58.2
332.35	29.52
332.563	54.1
332.776	78.68
332.989	11.09
333.202	-7.34
333.414	43.86
333.627	9.05
333.84	50
334.053	82.77
334.265	35.67
334.478	0.85
334.691	13.14
334.903	27.48
335.116	62.29
335.329	19.29
335.541	50
335.754	41.81
335.966	9.05
336.179	17.24
336.392	19.29
336.604	82.77
336.817	35.67
337.029	74.58
337.242	-23.72
337.454	74.58
337.667	41.81
337.88	117.59
338.092	95.06
338.305	17.24
338.517	43.86
338.729	64.34
338.942	78.68
339.154	13.14
339.367	78.68
339.579	4.95
339.792	21.33
340.004	84.82
340.217	82.77
340.429	45.91
340.641	95.06
340.854	58.2
341.066	21.33
341.278	93.01
341.491	74.58
341.703	33.62
341.915	17.24
342.128	25.43
342.34	115.54
342.552	74.58
342.764	25.43
342.977	58.2
343.189	56.15
343.401	93.01
343.613	41.81
343.826	74.58
344.038	27.48
344.25	0.85
344.462	62.29
344.674	33.62
344.886	68.44
345.099	66.39
345.311	76.63
345.523	27.48
345.735	31.57
345.947	35.67
346.159	-36.01
346.371	62.29
346.583	-15.53
346.795	76.63
347.007	50
347.219	88.92
347.431	56.15
347.643	140.12
347.855	37.72
348.067	60.24
348.279	50
348.491	27.48
348.703	41.81
348.915	74.58
349.127	68.44
349.339	50
349.551	-50.35
349.763	52.05
349.975	-9.39
350.187	29.52
350.399	17.24
350.61	111.44
350.822	105.3
351.034	0.85
351.246	25.43
351.458	115.54
351.669	-19.63
351.881	82.77
352.093	33.62
352.305	4.95
352.517	-7.34
352.728	90.96
352.94	82.77
353.152	4.95
353.363	25.43
353.575	17.24
353.787	90.96
353.999	72.53
354.21	68.44
354.422	31.57
354.633	25.43
354.845	35.67
355.057	58.2
355.268	115.54
355.48	54.1
355.692	11.09
355.903	33.62
356.115	52.05
356.326	109.4
356.538	41.81
356.749	41.81
356.961	115.54
357.172	58.2
357.384	66.39
357.595	80.72
357.807	41.81
358.018	45.91
358.23	93.01
358.441	119.64
358.653	13.14
358.864	35.67
359.075	103.25
359.287	50
359.498	115.54
359.709	78.68
359.921	37.72
360.132	93.01
360.344	66.39
360.555	99.16
360.766	62.29
360.977	17.24
361.189	90.96
361.4	-19.63
361.611	37.72
361.823	66.39
362.034	84.82
362.245	-13.48
362.456	62.29
362.667	54.1
362.879	-3.24
363.09	68.44
363.301	11.09
363.512	13.14
363.723	25.43
363.935	33.62
364.146	103.25
364.357	7
364.568	115.54
364.779	93.01
364.99	119.64
365.201	64.34
365.412	113.49
365.623	2.9
365.834	115.54
366.045	21.33
366.256	58.2
366.467	56.15
366.678	41.81
366.889	37.72
367.1	84.82
367.311	86.87
367.522	25.43
367.733	58.2
367.944	82.77
368.155	27.48
368.366	21.33
368.577	129.88
368.788	54.1
368.999	25.43
369.209	78.68
369.42	54.1
369.631	123.73
369.842	84.82
370.053	13.14
370.264	131.92
370.474	21.33
370.685	64.34
370.896	0.85
371.107	66.39
371.317	103.25
371.528	58.2
371.739	90.96
371.95	41.81
372.16	37.72
372.371	68.44
372.582	95.06
372.792	68.44
373.003	90.96
373.214	21.33
373.424	84.82
373.635	-29.87
373.846	58.2
374.056	70.48
374.267	127.83
374.477	35.67
374.688	35.67
374.898	50
375.109	17.24
375.319	21.33
375.53	17.24
375.74	101.2
375.951	41.81
376.161	43.86
376.372	82.77
376.582	-15.53
376.793	58.2
377.003	-36.01
377.214	-21.67
377.424	131.92
377.635	41.81
377.845	58.2
378.055	115.54
378.266	17.24
378.476	50
378.686	54.1
378.897	-9.39
379.107	0.85
379.317	62.29
379.528	68.44
379.738	21.33
379.948	41.81
380.158	109.4
380.369	27.48
380.579	52.05
380.789	144.21
380.999	140.12
381.21	97.11
381.42	123.73
381.63	43.86
381.84	56.15
382.05	131.92
382.261	78.68
382.471	58.2
382.681	62.29
382.891	66.39
383.101	37.72
383.311	88.92
383.521	17.24
383.731	17.24
383.941	131.92
384.151	56.15
384.361	-5.29
384.571	82.77
384.781	21.33
384.991	142.16
385.201	158.55
385.411	74.58
385.621	66.39
385.831	21.33
386.041	50
386.251	93.01
386.461	56.15
386.671	50
386.881	39.76
387.091	54.1
387.301	66.39
387.511	109.4
387.72	52.05
387.93	56.15
388.14	35.67
388.35	111.44
388.56	140.12
388.769	115.54
388.979	76.63
389.189	58.2
389.399	68.44
389.609	11.09
389.818	68.44
390.028	68.44
390.238	150.36
390.447	-19.63
390.657	84.82
390.867	-9.39
391.076	-7.34
391.286	129.88
391.496	68.44
391.705	107.35
391.915	54.1
392.125	0.85
392.334	58.2
392.544	58.2
392.753	70.48
392.963	90.96
393.172	25.43
393.382	62.29
393.591	142.16
393.801	-15.53
394.01	86.87
394.22	107.35
394.429	66.39
394.639	56.15
394.848	62.29
395.058	82.77
395.267	123.73
395.477	107.35
395.686	101.2
395.895	131.92
396.105	164.69
396.314	166.74
396.524	60.24
396.733	86.87
396.942	45.91
397.152	109.4
397.361	70.48
397.57	117.59
397.78	60.24
397.989	90.96
398.198	117.59
398.407	74.58
398.617	-7.34
398.826	76.63
399.035	117.59
399.244	50
399.453	113.49
399.663	107.35
399.872	99.16
400.081	21.33
400.29	127.83
400.499	47.96
400.708	185.17
400.917	58.2
401.127	107.35
401.336	90.96
401.545	119.64
401.754	123.73
401.963	123.73
402.172	66.39
402.381	99.16
402.59	58.2
402.799	125.78
403.008	17.24
403.217	115.54
403.426	133.97
403.635	140.12
403.844	74.58
404.053	50
404.262	60.24
404.471	158.55
404.68	99.16
404.888	107.35
405.097	125.78
405.306	170.83
405.515	185.17
405.724	193.36
405.933	201.55
406.142	144.21
406.35	215.89
406.559	127.83
406.768	103.25
406.977	174.93
407.185	117.59
407.394	205.65
407.603	97.11
407.812	215.89
408.02	179.03
408.229	150.36
408.438	211.79
408.646	170.83
408.855	127.83
409.064	185.17
409.272	197.46
409.481	258.9
409.69	205.65
409.898	248.66
410.107	254.8
410.315	279.38
410.524	183.12
410.733	336.72
410.941	324.43
411.15	265.04
411.358	326.48
411.567	312.14
411.775	273.23
411.984	312.14
412.192	336.72
412.401	340.82
412.609	396.11
412.818	351.06
413.026	416.59
413.234	447.31
413.443	330.58
413.651	238.42
413.86	338.77
414.068	394.06
414.276	473.93
414.485	443.21
414.693	500.56
414.901	582.48
415.11	484.17
415.318	457.55
415.526	463.69
415.734	582.48
415.943	549.71
416.151	635.72
416.359	525.13
416.567	617.29
416.776	623.44
416.984	707.4
417.192	699.21
417.4	723.79
417.608	664.4
417.817	760.65
418.025	793.42
418.233	883.53
418.441	770.89
418.649	854.86
418.857	916.3
419.065	904.01
419.273	901.96
419.481	965.45
419.689	1000.26
419.897	1028.93
420.105	1035.08
420.313	1000.26
420.521	1147.72
420.729	1117
420.937	1184.58
421.145	1174.34
421.353	1241.92
421.561	1297.22
421.769	1391.42
421.977	1399.62
422.185	1338.18
422.393	1524.54
422.601	1540.93
422.809	1631.04
423.017	1657.66
423.224	1647.42
423.432	1678.14
423.64	1727.29
423.848	1917.75
424.056	1872.7
424.263	1930.04
424.471	2044.73
424.679	1958.71
424.887	2083.64
425.094	2149.17
425.302	2155.32
425.51	2124.6
425.718	2343.73
425.925	2390.83
426.133	2419.5
426.341	2581.29
426.548	2646.83
426.756	2667.31
426.964	2757.42
427.171	2798.38
427.379	3015.46
427.586	2956.07
427.794	3101.48
428.001	3255.08
428.209	3351.33
428.417	3300.13
428.624	3588.89
428.832	3539.74
429.039	3586.85
429.247	3523.36
429.454	3805.98
429.662	4066.07
429.869	3951.39
430.076	4000.54
430.284	4037.4
430.491	4209.43
430.699	4502.29
430.906	4360.98
431.114	4516.62
431.321	4592.4
431.528	4739.85
431.736	4893.45
431.943	5210.89
432.15	5055.24
432.358	5186.31
432.565	5432.07
432.772	5366.53
432.979	5593.86
433.187	5876.48
433.394	5835.52
433.601	6273.78
433.808	6273.78
434.016	6218.49
434.223	6427.38
434.43	6793.97
434.637	6693.62
434.844	7176.94
435.052	7191.27
435.259	7090.92
435.466	7162.6
435.673	7135.98
435.88	7600.87
436.087	7942.88
436.294	8090.33
436.501	7594.72
436.708	7946.97
436.915	8170.2
437.122	8622.8
437.329	8612.56
437.537	8766.16
437.743	9001.68
437.95	8901.33
438.157	9333.45
438.364	9454.28
438.571	9751.23
438.778	9642.69
438.985	10435.25
439.192	10142.39
439.399	10425.01
439.606	10150.59
439.813	10904.24
440.02	11356.84
440.227	11125.42
440.433	11109.04
440.64	11520.68
440.847	11354.79
441.054	11813.54
441.261	12554.9
441.467	12470.94
441.674	12544.66
441.881	13077.13
442.088	13025.93
442.294	12980.88
442.501	13216.4
442.708	13458.06
442.914	13970.05
443.121	14670.45
443.328	14465.66
443.534	15196.78
443.741	14500.47
443.948	14477.94
444.154	15673.96
444.361	15684.2
444.568	15698.53
444.774	15438.44
444.981	15719.01
445.187	16566.87
445.394	17001.04
445.6	16884.31
445.807	18453.05
446.013	17404.49
446.22	17744.45
446.426	18627.13
446.633	18496.06
446.839	19405.36
447.046	18389.56
447.252	19735.08
447.459	19632.68
447.665	19563.05
447.871	20351.52
448.078	21301.78
448.284	20273.7
448.491	20906.52
448.697	21445.13
448.903	21959.17
449.11	22057.48
449.316	21611.02
449.522	21922.31
449.728	22565.37
449.935	22843.9
450.141	22991.35
450.347	23454.19
450.553	22553.09
450.76	22835.7
450.966	23480.82
451.172	23323.12
451.378	24044.01
451.584	23296.5
451.791	24324.58
451.997	24150.5
452.203	24523.23
452.409	24328.67
452.615	24146.4
452.821	23284.21
453.027	23087.61
453.233	24310.24
453.44	23624.17
453.646	23878.12
453.852	24009.19
454.058	24277.47
454.264	23532.01
454.47	23968.23
454.676	23290.35
454.882	24275.43
455.088	22399.49
455.294	22639.1
455.5	22731.26
455.705	23155.19
455.911	22151.68
456.117	22055.43
456.323	21332.5
456.529	20511.26
456.735	21242.39
456.941	20675.1
457.147	20247.07
457.352	19931.69
457.558	19595.82
457.764	19497.52
457.97	19538.48
458.176	18821.69
458.381	18795.06
458.587	17881.67
458.793	18031.17
458.999	16984.66
459.204	18195.01
459.41	17674.82
459.616	16712.28
459.821	16517.72
460.027	16607.83
460.233	16220.77
460.438	15612.52
460.644	15571.56
460.85	14953.07
461.055	14586.49
461.261	14848.63
461.466	13542.02
461.672	13124.24
461.878	14054.01
462.083	13124.24
462.289	13079.18
462.494	12905.1
462.7	12354.2
462.905	11944.61
463.111	12264.09
463.316	12364.44
463.522	12014.24
463.727	11995.81
463.932	12153.5
464.138	11979.42
464.343	12102.3
464.549	11752.1
464.754	11872.93
464.959	11844.26
465.165	11874.98
465.37	11231.91
465.575	11141.8
465.781	11418.28
465.986	11580.07
466.191	11014.83
466.397	11016.88
466.602	10404.53
466.807	10910.38
467.012	10928.81
467.218	10695.35
467.423	10635.96
467.628	10662.58
467.833	11109.04
468.038	10719.92
468.244	10433.21
468.449	10738.35
468.654	10371.77
468.859	10193.59
469.064	10447.54
469.269	9722.56
469.474	9988.8
469.679	10222.27
469.885	9890.49
470.09	9999.04
470.295	10040
470.5	9677.51
470.705	9781.95
470.91	9536.2
471.115	9581.25
471.32	9765.57
471.525	9728.7
471.73	9388.74
471.935	9220.81
472.139	8895.18
472.344	8878.8
472.549	9056.97
472.754	9030.35
472.959	8788.69
473.164	8604.37
473.369	8518.36
473.574	8790.74
473.778	8747.73
473.983	8721.1
474.188	8481.49
474.393	8069.85
474.598	7998.17
474.802	8176.34
475.007	8043.23
475.212	8207.06
475.417	7682.78
475.621	7856.86
475.826	8022.75
476.031	7676.64
476.235	7496.42
476.44	7615.2
476.645	7455.46
476.849	7537.38
477.054	7293.67
477.259	7410.4
477.463	7252.71
477.668	7111.4
477.872	7230.18
478.077	7092.97
478.282	7000.81
478.486	6834.93
478.691	6843.12
478.895	6941.42
479.1	6781.68
479.304	6726.38
479.509	6548.21
479.713	6701.81
479.918	6720.24
480.122	6429.43
480.326	6599.41
480.531	6597.36
480.735	6386.42
480.94	6425.33
481.144	6646.51
481.348	6398.71
481.553	6423.28
481.757	6372.08
481.961	6335.22
482.166	6400.76
482.37	6398.71
482.574	6341.36
482.778	6353.65
482.983	6476.53
483.187	6324.98
483.391	6417.14
483.595	6451.95
483.8	6316.79
484.004	6191.86
484.208	6384.37
484.412	6292.21
484.616	6365.94
484.821	6355.7
485.025	6052.6
485.229	6353.65
485.433	6284.02
485.637	6247.16
485.841	6187.77
486.045	6114.04
486.249	6251.25
486.453	6195.96
486.657	6189.81
486.861	6335.22
487.065	6181.62
487.269	6226.68
487.473	6281.97
487.677	6179.58
487.881	6523.63
488.085	6327.03
488.289	6327.03
488.493	6353.65
488.697	6433.52
488.901	6439.67
489.105	6138.62
489.309	6415.09
489.512	6281.97
489.716	6384.37
489.92	6331.12
490.124	6507.25
490.328	6406.9
490.531	6337.27
490.735	6462.19
490.939	6570.74
491.143	6374.13
491.346	6378.23
491.55	6611.7
491.754	6548.21
491.958	6601.46
492.161	6578.93
492.365	6597.36
492.569	6605.55
492.772	6828.78
492.976	6699.76
493.18	6728.43
493.383	6693.62
493.587	6896.36
493.79	6869.74
493.994	6845.16
494.197	6953.71
494.401	7074.54
494.605	6882.03
494.808	7197.42
495.012	7090.92
495.215	7041.77
495.419	7242.47
495.622	7123.69
495.825	7236.33
496.029	7396.07
496.232	7439.08
496.436	7381.73
496.639	7580.39
496.843	7561.95
497.046	7688.93
497.249	7908.06
497.453	7733.98
497.656	7957.21
497.859	7776.99
498.063	7971.55
498.266	8159.96
498.469	8170.2
498.673	8334.04
498.876	8250.07
499.079	8422.1
499.282	8448.72
499.485	8956.62
499.689	8573.65
499.892	8813.26
500.095	8700.62
500.298	8862.41
500.501	8962.76
500.705	9067.21
500.908	9257.67
501.111	9345.73
501.314	9564.87
501.517	9528
501.72	9519.81
501.923	9667.27
502.126	9933.5
502.329	9939.65
502.532	10117.82
502.735	9972.41
502.938	10379.96
503.141	10396.34
503.344	10449.59
503.547	10390.2
503.75	10597.04
503.953	10764.98
504.156	10842.8
504.359	11088.56
504.562	11174.57
504.765	11420.33
504.968	11209.39
505.17	11842.21
505.373	11553.45
505.576	11704.99
505.779	12083.87
505.982	12069.53
506.185	12085.92
506.387	12126.88
506.59	12327.58
506.793	12571.29
506.996	12518.04
507.198	13070.99
507.401	12884.62
507.604	12962.45
507.807	13400.71
508.009	13273.74
508.212	13384.33
508.415	13564.55
508.617	13580.93
508.82	13816.45
509.022	13689.48
509.225	14154.37
509.428	14346.87
509.63	14428.79
509.833	14375.55
510.035	14760.56
510.238	14762.61
510.44	14901.87
510.643	14981.74
510.845	15278.7
511.048	15200.88
511.25	15514.22
511.453	15684.2
511.655	16093.79
511.858	16024.16
512.06	16099.94
512.262	16341.6
512.465	16247.39
512.667	16405.08
512.87	16763.48
513.072	16773.72
513.274	17062.48
513.477	17128.02
513.679	17396.3
513.881	17484.36
514.084	17576.52
514.286	17789.51
514.488	17828.42
514.69	18311.74
514.893	18203.2
515.095	18164.29
515.297	18577.98
515.499	18670.14
515.701	18901.56
515.904	19327.53
516.106	19243.57
516.308	19757.61
516.51	19681.83
516.712	19890.73
516.914	19860.01
517.116	20294.18
517.318	20294.18
517.52	20498.97
517.722	20453.92
517.925	20845.08
518.127	21039.64
518.329	21299.73
518.531	21144.08
518.733	21438.99
518.935	21385.74
519.136	21651.98
519.338	22080
519.54	22057.48
519.742	22387.2
519.944	22432.26
520.146	23034.36
520.348	23028.21
520.55	23089.65
520.752	23106.04
520.954	23390.7
521.155	23261.68
521.357	23917.03
521.559	23845.35
521.761	24068.58
521.963	24148.45
522.164	24050.15
522.366	24412.64
522.568	24519.14
522.77	24916.44
522.971	25160.15
523.173	25106.9
523.375	25260.5
523.576	24988.12
523.778	25631.18
523.98	26116.55
524.181	25539.02
524.383	25903.56
524.584	25846.22
524.786	26388.93
524.988	26235.33
525.189	26495.43
525.391	26573.25
525.592	26835.39
525.794	26800.57
525.995	27267.51
526.197	26816.96
526.398	26991.03
526.6	27173.3
526.801	27390.39
527.003	27140.54
527.204	27599.28
527.406	27728.3
527.607	27642.29
527.808	27886
528.01	27369.91
528.211	28047.79
528.412	28344.74
528.614	28107.18
528.815	28150.18
529.016	28586.4
529.218	28498.34
529.419	28393.89
529.62	28793.25
529.822	28397.99
530.023	28541.35
530.224	28545.44
530.425	28610.98
530.626	28367.27
530.828	28522.91
531.029	28995.99
531.23	28402.08
531.431	28613.02
531.632	28871.07
531.833	28924.32
532.035	28879.26
532.236	29075.87
532.437	29182.36
532.638	28717.47
532.839	29159.83
533.04	29143.45
533.241	28887.45
533.442	29583.76
533.643	29008.28
533.844	29186.46
534.045	29200.79
534.246	29002.14
534.447	29321.62
534.648	29229.46
534.849	29395.35
535.05	28922.27
535.251	29065.63
535.451	29129.11
535.652	29282.71
535.853	29204.89
536.054	29264.28
536.255	29419.92
536.456	29010.33
536.657	29610.39
536.857	29145.5
537.058	28944.8
537.259	29395.35
537.46	29202.84
537.66	29077.91
537.861	29481.36
538.062	29241.75
538.263	29534.61
538.463	29469.08
538.664	29034.91
538.865	29618.58
539.065	29460.88
539.266	29151.64
539.466	29227.42
539.667	28914.08
539.868	29362.58
540.068	29190.55
540.269	28983.71
540.469	29452.69
540.67	29401.49
540.87	29178.26
541.071	29213.08
541.271	29194.65
541.472	29317.53
541.672	28989.85
541.873	29311.38
542.073	29108.63
542.274	29505.94
542.474	28883.36
542.675	29204.89
542.875	29190.55
543.075	28791.2
543.276	28844.45
543.476	29178.26
543.676	29176.22
543.877	29299.09
544.077	29082.01
544.277	29075.87
544.478	29114.78
544.678	29116.83
544.878	29077.91
545.078	29325.72
545.279	28780.96
545.479	29059.48
545.679	29198.74
545.879	28940.7
546.079	29215.13
546.28	28864.92
546.48	28574.11
546.68	28793.25
546.88	29104.54
547.08	28809.63
547.28	28926.36
547.48	28465.57
547.68	28731.81
547.88	28481.95
548.081	29069.72
548.281	29004.19
548.481	28291.49
548.681	29147.54
548.881	28783.01
549.081	28828.06
549.28	28709.28
549.48	28891.55
549.68	28793.25
549.88	29184.41
550.08	28506.53
550.28	28989.85
550.48	29045.15
550.68	28948.89
550.88	28561.83
551.08	28508.58
551.279	28940.7
551.479	28871.07
551.679	28764.57
551.879	28567.97
552.079	28869.02
552.278	28512.67
552.478	28641.7
552.678	28762.53
552.878	28955.04
553.077	28776.86
553.277	28373.41
553.477	28596.64
553.676	28404.13
553.876	28502.43
554.076	28438.95
554.275	28232.1
554.475	28123.56
554.674	28520.87
554.874	28277.16
555.074	28385.7
555.273	28592.55
555.473	28330.41
555.672	28299.69
555.872	28330.41
556.071	28076.46
556.271	28205.48
556.47	28277.16
556.67	27881.9
556.869	28098.98
557.068	28510.63
557.268	28258.73
557.467	27806.13
557.667	28092.84
557.866	28223.91
558.065	28051.88
558.265	27894.19
558.464	27957.67
558.663	27957.67
558.863	27591.09
559.062	28012.97
559.261	27683.25
559.461	28066.22
559.66	27709.87
559.859	27638.19
560.058	27460.02
560.258	27519.41
560.457	27052.47
560.656	27736.49
560.855	27066.81
561.054	27820.46
561.253	27085.24
561.453	27593.14
561.652	27658.67
561.851	27683.25
562.05	27353.52
562.249	27093.43
562.448	27134.39
562.647	27195.83
562.846	26874.3
563.045	27165.11
563.244	26999.23
563.443	26956.22
563.642	26712.51
563.841	26714.56
564.04	26710.46
564.239	26972.6
564.438	26706.37
564.637	26655.17
564.836	26835.39
565.035	26446.27
565.234	26483.14
565.432	26538.43
565.631	26522.05
565.83	26278.34
566.029	26466.75
566.228	26153.41
566.427	26358.21
566.625	26001.86
566.824	25770.44
567.023	26204.61
567.222	25543.12
567.42	26069.45
567.619	25897.42
567.818	25602.51
568.016	25739.72
568.215	25835.98
568.414	25473.49
568.612	25948.62
568.811	25541.07
569.01	25614.8
569.208	25385.43
569.407	25215.44
569.605	25145.81
569.804	25348.56
570.002	25117.14
570.201	25024.98
570.4	25104.85
570.598	24965.59
570.797	24867.29
570.995	25092.57
571.193	24467.94
571.392	24998.36
571.59	24707.55
571.789	24705.5
571.987	24355.3
572.186	24603.1
572.384	24076.77
572.582	24492.51
572.781	24472.03
572.979	24099.3
573.177	24400.35
573.376	24168.93
573.574	24291.81
573.772	23855.59
573.971	23857.64
574.169	23540.21
574.367	23990.76
574.565	24146.4
574.763	23611.89
574.962	23839.21
575.16	23280.11
575.358	23304.69
575.556	23425.52
575.754	23509.49
575.952	23136.76
576.151	23509.49
576.349	23364.08
576.547	23177.72
576.745	23024.12
576.943	23089.65
577.141	23048.69
577.339	22964.73
577.537	23110.13
577.735	22802.94
577.933	22671.87
578.131	22761.98
578.329	22761.98
578.527	22426.11
578.725	22014.47
578.923	22657.53
579.121	22243.84
579.319	22542.85
579.516	22393.34
579.714	22622.72
579.912	22088.2
580.11	22372.86
580.308	21963.27
580.506	22159.88
580.704	21897.74
580.901	22069.76
581.099	22082.05
581.297	21611.02
581.495	21565.96
581.692	22045.19
581.89	21582.35
582.088	21856.78
582.285	21694.99
582.483	21484.05
582.681	21543.44
582.878	21447.18
583.076	21189.14
583.274	21520.91
583.471	21256.72
583.669	21363.22
583.866	21025.3
584.064	21092.88
584.262	20828.7
584.459	21264.91
584.657	21137.94
584.854	21209.62
585.052	20572.7
585.249	20406.81
585.447	20732.44
585.644	20615.71
585.841	20564.51
586.039	20652.57
586.236	20351.52
586.434	20335.14
586.631	20310.56
586.828	20187.68
587.026	20445.73
587.223	20161.06
587.42	19802.66
587.618	20038.18
587.815	19556.91
588.012	19915.3
588.21	19636.78
588.407	19919.4
588.604	19739.18
588.801	19722.79
588.999	19456.56
589.196	19647.02
589.393	19487.28
589.59	19751.46
589.787	19792.42
589.984	19313.2
590.182	19337.77
590.379	19483.18
590.576	19178.03
590.773	19343.92
590.97	19063.35
591.167	18864.69
591.364	19014.2
591.561	19108.4
591.758	19016.24
591.955	18700.86
592.152	19036.72
592.349	18688.57
592.546	18704.95
592.743	18809.4
592.94	18217.54
593.137	18629.18
593.334	18475.58
593.531	18235.97
593.727	18434.62
593.924	18465.34
594.121	18090.56
594.318	18338.37
594.515	18278.97
594.712	18039.36
594.908	18108.99
595.105	18154.05
595.302	17769.03
595.499	18313.79
595.696	17689.16
595.892	17736.26
596.089	17635.91
596.286	17539.66
596.482	17680.97
596.679	17611.34
596.876	17658.44
597.072	17336.91
597.269	17437.26
597.466	17187.41
597.662	17257.04
597.859	17494.6
598.055	17039.95
598.252	17338.96
598.448	16874.07
598.645	16896.6
598.841	16939.6
599.038	17113.68
599.234	16949.84
599.431	16730.71
599.627	16820.82
599.824	16738.9
600.02	16542.3
600.217	16597.59
600.413	16730.71
600.609	16452.19
600.806	16478.81
601.002	16607.83
601.198	16360.03
601.395	16099.94
601.591	16249.44
601.787	16339.55
601.984	16257.63
602.18	16267.87
602.376	16208.48
602.572	15893.09
602.769	16231.01
602.965	16001.63
603.161	15991.39
603.357	15864.42
603.553	15874.66
603.75	15641.19
603.946	15845.99
604.142	15721.06
604.338	15665.77
604.534	15772.26
604.73	15368.81
604.926	15485.55
605.122	15641.19
605.318	15434.35
605.514	15290.99
605.71	15235.69
605.906	15290.99
606.102	15297.13
606.298	15172.21
606.494	15362.67
606.69	15106.67
606.886	15071.86
607.082	14998.13
607.278	14807.67
607.474	14936.69
607.67	15047.28
607.866	14903.92
608.062	15022.7
608.257	14838.39
608.453	14809.72
608.649	14891.63
608.845	14701.17
609.041	14844.53
609.236	14676.6
609.432	14672.5
609.628	14549.62
609.824	14455.42
610.019	14459.51
610.215	14502.52
610.411	14447.22
610.606	14418.55
610.802	14512.76
610.998	14391.93
611.193	14453.37
611.389	14195.32
611.584	14307.96
611.78	14162.56
611.976	14127.74
612.171	14285.44
612.367	14146.17
612.562	14236.28
612.758	13929.09
612.953	14006.91
613.149	14162.56
613.344	13992.58
613.539	13996.67
613.735	14019.2
613.93	13728.39
614.126	13920.9
614.321	13980.29
614.517	13935.23
614.712	13808.26
614.907	13845.12
615.103	13718.15
615.298	13908.61
615.493	13533.83
615.688	13410.95
615.884	13871.75
616.079	13533.83
616.274	13521.54
616.47	13552.26
616.665	13546.12
616.86	13521.54
617.055	13363.85
617.25	13312.65
617.445	13546.12
617.641	13281.93
617.836	13433.48
618.031	13120.14
618.226	13400.71
618.421	13230.73
618.616	13296.27
618.811	13091.47
619.006	13298.31
619.201	12974.74
619.396	13085.33
619.591	12833.43
619.786	13091.47
619.981	12716.69
620.176	12624.53
620.371	12628.63
620.566	12671.64
620.761	12741.27
620.956	12714.64
621.151	12429.98
621.346	12550.81
621.541	12382.87
621.735	12546.71
621.93	12059.29
622.125	12429.98
622.32	11981.47
622.515	12006.05
622.709	12143.26
622.904	12200.6
623.099	12034.72
623.294	12012.19
623.488	11788.96
623.683	11860.64
623.878	11569.83
624.072	11696.8
624.267	11451.05
624.462	11545.25
624.656	11233.96
624.851	11338.41
625.046	11059.88
625.24	11229.87
625.435	11080.36
625.629	11178.67
625.824	11145.9
626.018	11186.86
626.213	10857.14
626.407	10752.69
626.602	10738.35
626.796	10990.25
626.991	10867.38
627.185	10797.74
627.38	10734.26
627.574	10590.9
627.768	10613.43
627.963	10601.14
628.157	10316.47
628.352	10496.69
628.546	10347.19
628.74	10289.85
628.935	10115.77
629.129	9992.89
629.323	10117.82
629.517	9890.49
629.712	9921.21
629.906	9962.17
630.1	9843.39
630.294	9960.13
630.489	9642.69
630.683	9736.9
630.877	9495.24
631.071	9628.35
631.265	9736.9
631.459	9595.59
631.653	9315.02
631.848	9464.52
632.042	9298.63
632.236	9487.04
632.43	9145.03
632.624	9390.79
632.818	9190.09
633.012	9065.16
633.206	8946.38
633.4	8979.15
633.594	9054.92
633.788	8956.62
633.982	9054.92
634.176	8958.67
634.369	8993.48
634.563	8753.87
634.757	8731.34
634.951	8665.81
635.145	8815.31
635.339	8760.02
635.533	8563.41
635.726	8626.9
635.92	8327.89
636.114	8389.33
636.308	8286.93
636.501	8385.24
636.695	8307.41
636.889	8254.17
637.083	8336.09
637.276	8178.39
637.47	8153.82
637.664	8133.34
637.857	8143.58
638.051	7873.25
638.244	7684.83
638.438	8000.22
638.632	7779.04
638.825	7736.03
639.019	7717.6
639.212	7660.26
639.406	7809.76
639.599	7639.78
639.793	7758.56
639.986	7375.59
640.18	7643.87
640.373	7365.35
640.567	7488.23
640.76	7377.64
640.954	7246.57
641.147	7455.46
641.34	7295.72
641.534	7391.97
641.727	7291.62
641.92	7135.98
642.114	7156.46
642.307	7314.15
642.5	7127.78
642.694	7084.78
642.887	6738.67
643.08	6972.14
643.273	7062.25
643.467	6949.61
643.66	6882.03
643.853	6787.82
644.046	6734.57
644.239	6628.08
644.432	6554.35
644.626	6632.18
644.819	6705.9
645.012	6730.48
645.205	6685.42
645.398	6527.73
645.591	6415.09
645.784	6421.24
645.977	6374.13
646.17	6513.39
646.363	6433.52
646.556	6308.6
646.749	6218.49
646.942	6507.25
647.135	6140.66
647.328	6288.12
647.521	6173.43
647.714	6044.41
647.907	6157.05
648.099	6013.69
648.292	6101.75
648.485	6105.85
648.678	5958.39
648.871	5882.62
649.064	5755.65
649.256	5923.58
649.449	5772.03
649.642	5698.3
649.835	5712.64
650.027	5710.59
650.22	5669.63
650.413	5731.07
650.605	5747.45
650.798	5636.86
650.991	5597.95
651.183	5495.55
651.376	5497.6
651.568	5337.86
651.761	5434.11
651.954	5432.07
652.146	5311.24
652.339	5393.16
652.531	5415.68
652.724	5395.2
652.916	5335.81
653.109	5262.09
653.301	5202.69
653.494	5237.51
653.686	5085.96
653.879	5333.76
654.071	5139.21
654.263	5301
654.456	5079.82
654.648	5141.25
654.84	5053.19
655.033	4981.51
655.225	5088.01
655.417	4918.03
655.61	5051.14
655.802	4975.37
655.994	4967.18
656.186	4817.68
656.379	4827.92
656.571	4803.34
656.763	4920.07
656.955	4743.95
657.148	4786.96
657.34	4743.95
657.532	4588.3
657.724	4518.67
657.916	4530.96
658.108	4748.04
658.3	4621.07
658.492	4483.86
658.684	4461.33
658.876	4473.62
659.068	4561.68
659.26	4465.43
659.452	4391.7
659.644	4483.86
659.836	4393.75
660.028	4246.29
660.22	4320.02
660.412	4326.16
660.604	4270.87
660.796	4283.16
660.988	4231.96
661.18	4256.53
661.372	4279.06
661.563	4102.93
661.755	4172.57
661.947	4213.53
662.139	4168.47
662.331	4174.61
662.522	4184.85
662.714	4094.74
662.906	4041.5
663.097	3844.89
663.289	4029.21
663.481	3814.17
663.673	3900.19
663.864	3965.72
664.056	3973.91
664.247	3922.71
664.439	3816.22
664.631	3769.12
664.822	3957.53
665.014	3857.18
665.205	3785.5
665.397	3711.77
665.588	3771.16
665.78	3795.74
665.971	3554.08
666.163	3810.08
666.354	3742.49
666.546	3679.01
666.737	3599.13
666.929	3558.18
667.12	3736.35
667.311	3556.13
667.503	3613.47
667.694	3592.99
667.885	3646.24
668.077	3580.7
668.268	3488.54
668.459	3543.84
668.651	3543.84
668.842	3535.65
669.033	3400.48
669.224	3384.1
669.416	3531.55
669.607	3392.29
669.798	3500.83
669.989	3322.66
670.18	3289.89
670.371	3298.08
670.563	3451.68
670.754	3318.56
670.945	3277.6
671.136	3130.15
671.327	3279.65
671.518	3228.45
671.709	3205.92
671.9	3367.71
672.091	3207.97
672.282	3158.82
672.473	3269.41
672.664	3097.38
672.855	3156.77
673.046	3179.3
673.237	3265.32
673.428	3183.4
673.619	3253.03
673.809	3160.87
674	2954.02
674.191	3117.86
674.382	3007.27
674.573	3156.77
674.764	3048.23
674.954	3183.4
675.145	3064.61
675.336	3064.61
675.527	3003.18
675.717	3019.56
675.908	3001.13
676.099	2974.5
676.289	3058.47
676.48	2966.31
676.671	2949.93
676.861	2927.4
677.052	2958.12
677.243	2925.35
677.433	2868.01
677.624	2958.12
677.814	2892.59
678.005	2919.21
678.195	2933.54
678.386	2851.63
678.576	2861.87
678.767	2908.97
678.957	2738.99
679.148	2943.78
679.338	2988.84
679.529	2970.41
679.719	2749.23
679.909	2835.24
680.1	2765.61
680.29	2798.38
680.481	2687.79
680.671	2747.18
680.861	2761.52
681.052	2827.05
681.242	2808.62
681.432	2857.77
681.622	2777.9
681.813	2788.14
682.003	2761.52
682.193	2577.2
682.383	2786.09
682.573	2695.98
682.764	2841.39
682.954	2689.84
683.144	2777.9
683.334	2769.71
683.524	2691.88
683.714	2792.23
683.904	2655.02
684.094	2605.87
684.284	2675.5
684.474	2577.2
684.664	2724.65
684.854	2687.79
685.044	2638.64
685.234	2612.01
685.424	2665.26
685.614	2591.53
685.804	2577.2
685.994	2595.63
686.184	2673.45
686.374	2573.1
686.564	2575.15
686.753	2503.47
686.943	2511.66
687.133	2558.77
687.323	2495.28
687.513	2478.9
687.702	2569.01
687.892	2503.47
688.082	2433.84
688.272	2433.84
688.461	2534.19
688.651	2493.23
688.841	2321.2
689.03	2405.17
689.22	2476.85
689.41	2499.38
689.599	2470.7
689.789	2392.88
689.979	2401.07
690.168	2298.67
690.358	2319.15
690.547	2229.04
690.737	2341.68
690.926	2319.15
691.116	2298.67
691.305	2282.29
691.495	2343.73
691.684	2198.32
691.874	2302.77
692.063	2231.09
692.252	2255.67
692.442	2308.91
692.631	2241.33
692.82	2270
693.01	2130.74
693.199	2163.51
693.388	2200.37
693.578	2222.9
693.767	2292.53
693.956	2083.64
694.146	2155.32
694.335	2204.47
694.524	2022.2
694.713	2233.14
694.902	2050.87
695.092	2169.65
695.281	2050.87
695.47	2095.93
695.659	2014.01
695.848	2044.73
696.037	2130.74
696.226	2206.52
696.415	2091.83
696.604	2122.55
696.793	2100.02
696.982	2100.02
697.171	2036.53
697.36	2069.3
697.549	2093.88
697.738	2079.54
697.927	2028.34
698.116	2003.77
698.305	2147.12
698.494	1989.43
698.683	1944.38
698.872	2069.3
699.061	1977.14
699.25	2024.25
699.438	1977.14
699.627	1999.67
699.816	2057.01
700.005	1854.27
700.193	1987.38
700.382	2044.73
700.571	1971
700.76	1975.1
700.948	1983.29
701.137	1954.62
701.326	1938.23
701.514	1864.5
701.703	1835.83
701.892	1991.48
702.08	1987.38
702.269	2052.92
702.457	1841.98
702.646	1813.31
702.834	1821.5
703.023	1858.36
703.212	1999.67
703.4	1872.7
703.589	2018.1
703.777	1901.37
703.965	1905.46
704.154	1874.74
704.342	1958.71
704.531	1858.36
704.719	1893.18
704.907	1923.9
705.096	1897.27
705.284	1860.41
705.472	1913.66
705.661	1817.4
705.849	1950.52
706.037	1987.38
706.226	1839.93
706.414	1917.75
706.602	1807.16
706.79	1944.38
706.979	1895.22
707.167	1807.16
707.355	1827.64
707.543	1876.79
707.731	1917.75
707.919	1919.8
708.107	1809.21
708.296	1819.45
708.484	1850.17
708.672	1872.7
708.86	1907.51
709.048	1839.93
709.236	1930.04
709.424	1901.37
709.612	1866.55
709.8	1868.6
709.988	1893.18
710.176	1919.8
710.364	1919.8
710.551	1860.41
710.739	2057.01
710.927	1878.84
711.115	1925.94
711.303	2020.15
711.491	1852.22
711.679	1930.04
711.866	1852.22
712.054	1895.22
712.242	1878.84
712.43	1868.6
712.617	1938.23
712.805	1846.07
712.993	1919.8
713.181	1762.11
713.368	1774.39
713.556	1878.84
713.744	1813.31
713.931	1940.28
714.119	1897.27
714.306	1854.27
714.494	1891.13
714.682	1860.41
714.869	1962.81
715.057	1909.56
715.244	1794.87
715.432	1901.37
715.619	1917.75
715.807	1944.38
715.994	1878.84
716.182	1811.26
716.369	1952.57
716.556	1862.46
716.744	1880.89
716.931	1778.49
717.119	2001.72
717.306	1870.65
717.493	1966.9
717.681	1880.89
717.868	1952.57
718.055	1844.03
718.242	1882.94
718.43	1901.37
718.617	1819.45
718.804	1954.62
718.991	1934.14
719.179	1854.27
719.366	1950.52
719.553	1868.6
719.74	1925.94
719.927	1901.37
720.114	1837.88
720.301	1893.18
720.488	1878.84
720.676	1852.22
720.863	1925.94
721.05	1932.09
721.237	1864.5
721.424	1860.41
721.611	1956.66
721.798	1715
721.985	1868.6
722.172	1884.98
722.358	1942.33
722.545	2042.68
722.732	1907.51
722.919	1821.5
723.106	1887.03
723.293	2016.05
723.48	1968.95
723.667	1831.74
723.853	1919.8
724.04	1835.83
724.227	1917.75
724.414	1884.98
724.6	1944.38
724.787	1983.29
724.974	1887.03
725.161	1977.14
725.347	1864.5
725.534	1911.61
725.72	1936.18
725.907	1944.38
726.094	2067.25
726.28	1876.79
726.467	1837.88
726.653	1985.34
726.84	2077.49
727.027	1999.67
727.213	1950.52
727.4	1993.53
727.586	1966.9
727.773	1938.23
727.959	1927.99
728.145	1993.53
728.332	1844.03
728.518	2048.82
728.705	1934.14
728.891	1989.43
729.077	1868.6
729.264	1991.48
729.45	1942.33
729.636	1987.38
729.823	1983.29
730.009	1905.46
730.195	1948.47
730.382	1999.67
730.568	2050.87
730.754	1944.38
730.94	1946.42
731.126	1958.71
731.313	1880.89
731.499	1995.57
731.685	2016.05
731.871	1958.71
732.057	1921.85
732.243	1991.48
732.429	1946.42
732.615	1925.94
732.801	1975.1
732.987	1991.48
733.173	1977.14
733.359	1962.81
733.545	1829.69
733.731	2001.72
733.917	1971
734.103	1903.42
734.289	1927.99
734.475	1925.94
734.661	2018.1
734.847	1979.19
735.033	1911.61
735.219	1946.42
735.404	2007.86
735.59	1876.79
735.776	1960.76
735.962	1971
736.148	1903.42
736.333	1854.27
736.519	1923.9
736.705	1909.56
736.89	1868.6
737.076	1942.33
737.262	1958.71
737.447	1903.42
737.633	1897.27
737.819	1968.95
738.004	1925.94
738.19	1889.08
738.375	1977.14
738.561	1919.8
738.747	1876.79
738.932	1915.7
739.118	2007.86
739.303	1901.37
739.489	1944.38
739.674	1860.41
739.859	1962.81
740.045	1983.29
740.23	1903.42
740.416	1823.55
740.601	1903.42
740.786	1884.98
740.972	1835.83
741.157	1864.5
741.342	1819.45
741.528	1819.45
741.713	1905.46
741.898	1917.75
742.084	1850.17
742.269	1893.18
742.454	1774.39
742.639	1835.83
742.824	1831.74
743.01	1925.94
743.195	1780.54
743.38	1827.64
743.565	1764.15
743.75	1864.5
743.935	1753.91
744.12	1878.84
744.305	1674.04
744.49	1815.35
744.675	1813.31
744.86	1747.77
745.045	1729.34
745.23	1747.77
745.415	1827.64
745.6	1706.81
745.785	1778.49
745.97	1741.63
746.155	1786.68
746.34	1712.96
746.525	1604.41
746.71	1682.24
746.895	1583.93
747.079	1631.04
747.264	1532.73
747.449	1657.66
747.634	1606.46
747.819	1542.97
748.003	1549.12
748.188	1528.64
748.373	1641.28
748.557	1655.61
748.742	1561.41
748.927	1530.69
749.111	1592.13
749.296	1540.93
749.481	1583.93
749.665	1557.31
749.85	1475.39
750.034	1542.97
750.219	1540.93
750.404	1428.29
750.588	1536.83
750.773	1358.66
750.957	1438.53
751.141	1463.1
751.326	1493.82
751.51	1538.88
751.695	1409.86
751.879	1459.01
752.064	1491.77
752.248	1456.96
752.432	1452.86
752.617	1416
752.801	1377.09
752.985	1352.51
753.17	1344.32
753.354	1436.48
753.538	1403.71
753.722	1377.09
753.907	1344.32
754.091	1368.9
754.275	1336.13
754.459	1299.27
754.643	1319.75
754.828	1332.03
755.012	1336.13
755.196	1295.17
755.38	1227.59
755.564	1266.5
755.748	1319.75
755.932	1344.32
756.116	1182.53
756.3	1139.52
756.484	1233.73
756.668	1254.21
756.852	1084.23
757.036	1155.91
757.22	1174.34
757.404	1147.72
757.588	1323.84
757.772	1200.96
757.956	1147.72
758.14	1114.95
758.323	1102.66
758.507	1076.04
758.691	1143.62
758.875	1231.68
759.059	1129.28
759.242	1114.95
759.426	1186.63
759.61	1241.92
759.794	1045.32
759.977	1176.39
760.161	1172.29
760.345	1051.46
760.528	1086.28
760.712	963.4
760.895	987.97
761.079	1073.99
761.263	1141.57
761.446	1051.46
761.63	1104.71
761.813	922.44
761.997	973.64
762.18	1057.61
762.364	1026.89
762.547	926.54
762.731	1004.36
762.914	969.54
763.098	934.73
763.281	961.35
763.464	1049.41
763.648	975.69
763.831	987.97
764.015	881.48
764.198	910.15
764.381	901.96
764.564	1043.27
764.748	932.68
764.931	918.34
765.114	926.54
765.297	1026.89
765.481	906.06
765.664	906.06
765.847	826.18
766.03	951.11
766.213	942.92
766.397	861
766.58	934.73
766.763	1028.93
766.946	861
767.129	926.54
767.312	906.06
767.495	930.63
767.678	969.54
767.861	889.67
768.044	910.15
768.227	848.71
768.41	901.96
768.593	889.67
768.776	846.66
768.959	783.18
769.142	918.34
769.324	852.81
769.507	858.95
769.69	795.47
769.873	781.13
770.056	863.05
770.239	754.51
770.421	863.05
770.604	910.15
770.787	895.82
770.97	901.96
771.152	805.71
771.335	846.66
771.518	723.79
771.7	744.27
771.883	840.52
772.066	809.8
772.248	805.71
772.431	774.99
772.613	787.27
772.796	725.83
772.978	820.04
773.161	766.79
773.343	779.08
773.526	672.59
773.708	723.79
773.891	738.12
774.073	748.36
774.256	774.99
774.438	770.89
774.621	693.07
774.803	734.03
774.985	856.9
775.168	803.66
775.35	697.16
775.532	688.97
775.715	590.67
775.897	652.11
776.079	746.31
776.261	705.35
776.444	662.35
776.626	680.78
776.808	660.3
776.99	621.39
777.173	672.59
777.355	631.63
777.537	729.93
777.719	709.45
777.901	684.87
778.083	627.53
778.265	631.63
778.447	510.8
778.629	680.78
778.811	664.4
778.993	586.57
779.175	607.05
779.357	611.15
779.539	557.9
779.721	580.43
779.903	592.72
780.085	592.72
780.267	527.18
780.449	600.91
780.631	619.34
780.812	623.44
780.994	557.9
781.176	502.61
781.358	559.95
781.54	486.22
781.721	594.76
781.903	617.29
782.085	508.75
782.267	551.76
782.448	518.99
782.63	568.14
782.812	492.37
782.993	494.41
783.175	541.52
783.357	484.17
783.538	576.33
783.72	467.79
783.901	508.75
784.083	457.55
784.264	480.08
784.446	498.51
784.627	504.65
784.809	455.5
784.99	480.08
785.172	445.26
785.353	461.65
785.535	539.47
785.716	467.79
785.897	377.68
786.079	488.27
786.26	480.08
786.441	447.31
786.623	406.35
786.804	437.07
786.985	385.87
787.167	459.6
787.348	365.39
787.529	465.74
787.71	451.41
787.891	394.06
788.073	488.27
788.254	383.82
788.435	478.03
788.616	404.3
788.797	392.02
788.978	312.14
789.159	404.3
789.34	420.69
789.522	453.45
789.703	357.2
789.884	447.31
790.065	389.97
790.246	392.02
790.427	291.66
790.607	418.64
790.788	320.34
790.969	363.34
791.15	340.82
791.331	336.72
791.512	377.68
791.693	336.72
791.874	344.91
792.054	435.02
792.235	353.1
792.416	338.77
792.597	295.76
792.778	373.58
792.958	320.34
793.139	297.81
793.32	355.15
793.5	273.23
793.681	355.15
793.862	301.9
794.042	306
794.223	353.1
794.404	279.38
794.584	258.9
794.765	269.14
794.945	269.14
795.126	260.95
795.306	385.87
795.487	312.14
795.667	297.81
795.848	287.57
796.028	295.76
796.209	320.34
796.389	320.34
796.57	215.89
796.75	301.9
796.93	271.19
797.111	283.47
797.291	357.2
797.471	342.86
797.652	291.66
797.832	236.37
798.012	250.71
798.192	246.61
798.373	183.12
798.553	226.13
798.733	289.62
798.913	271.19
799.093	250.71
799.274	303.95
799.454	279.38
799.634	277.33
799.814	250.71
799.994	213.84
800.174	289.62
800.354	226.13
800.534	250.71
800.714	228.18
800.894	240.47
801.074	271.19
801.254	234.32
801.434	367.44
801.614	226.13
801.794	267.09
801.974	840.52
802.154	262.99
802.334	185.17
802.514	228.18
802.693	215.89
802.873	244.56
803.053	250.71
803.233	240.47
803.413	234.32
803.592	148.31
803.772	222.03
803.952	246.61
804.131	232.27
804.311	234.32
804.491	207.7
804.67	191.31
804.85	205.65
805.03	201.55
805.209	191.31
805.389	213.84
805.568	158.55
805.748	174.93
805.928	189.27
806.107	222.03
806.287	271.19
806.466	238.42
806.646	262.99
806.825	181.07
807.004	123.73
807.184	232.27
807.363	222.03
807.543	160.59
807.722	107.35
807.901	213.84
808.081	242.51
808.26	181.07
808.439	262.99
808.619	172.88
808.798	238.42
808.977	199.51
809.156	217.94
809.336	232.27
809.515	133.97
809.694	156.5
809.873	144.21
810.052	232.27
810.231	271.19
810.411	201.55
810.59	250.71
810.769	111.44
810.948	181.07
811.127	103.25
811.306	154.45
811.485	129.88
811.664	254.8
811.843	74.58
812.022	78.68
812.201	176.98
812.38	152.4
812.559	166.74
812.737	191.31
812.916	164.69
813.095	199.51
813.274	205.65
813.453	93.01
813.632	166.74
813.811	185.17
813.989	207.7
814.168	176.98
814.347	66.39
814.526	181.07
814.704	158.55
814.883	107.35
815.062	50
815.24	191.31
815.419	119.64
815.598	136.02
815.776	185.17
815.955	172.88
816.133	172.88
816.312	148.31
816.49	150.36
816.669	170.83
816.847	68.44
817.026	201.55
817.204	174.93
817.383	123.73
817.561	164.69
817.74	197.46
817.918	125.78
818.097	101.2
818.275	62.29
818.453	189.27
818.632	176.98
818.81	170.83
818.988	131.92
819.167	84.82
819.345	115.54
819.523	158.55
819.701	148.31
819.879	201.55
820.058	131.92
820.236	199.51
820.414	107.35
820.592	146.26
820.77	60.24
820.948	93.01
821.127	142.16
821.305	185.17
821.483	156.5
821.661	181.07
821.839	174.93
822.017	66.39
822.195	33.62
822.373	191.31
822.551	172.88
822.729	185.17
822.907	119.64
823.085	195.41
823.262	113.49
823.44	150.36
823.618	115.54
823.796	111.44
823.974	138.07
824.152	121.68
824.329	148.31
824.507	156.5
824.685	119.64
824.863	90.96
825.04	154.45
825.218	97.11
825.396	111.44
825.574	82.77
825.751	115.54
825.929	226.13
826.107	74.58
826.284	50
826.462	181.07
826.639	99.16
826.817	76.63
826.994	88.92
827.172	68.44
827.349	131.92
827.527	111.44
827.704	99.16
827.882	76.63
828.059	74.58
828.237	103.25
828.414	115.54
828.591	101.2
828.769	74.58
828.946	90.96
829.124	117.59
829.301	74.58
829.478	45.91
829.655	43.86
829.833	58.2
830.01	93.01
830.187	82.77
830.364	72.53
830.542	27.48
830.719	150.36
830.896	101.2
831.073	95.06
831.25	152.4
831.427	99.16
831.604	82.77
831.782	82.77
831.959	76.63
832.136	58.2
832.313	78.68
832.49	111.44
832.667	168.79
832.844	35.67
833.021	158.55
833.198	138.07
833.374	66.39
833.551	74.58
833.728	99.16
833.905	144.21
834.082	121.68
834.259	107.35
834.436	117.59
834.612	82.77
834.789	119.64
834.966	76.63
835.143	93.01
835.319	82.77
835.496	76.63
835.673	64.34
835.85	131.92
836.026	82.77
836.203	136.02
836.38	82.77
836.556	123.73
836.733	43.86
836.909	93.01
837.086	78.68
837.262	86.87
837.439	-27.82
837.616	27.48
837.792	107.35
837.968	25.43
838.145	105.3
838.321	50
838.498	43.86
838.674	66.39
838.851	25.43
839.027	25.43
839.203	52.05
839.38	86.87
839.556	115.54
839.732	86.87
839.909	47.96
840.085	101.2
840.261	66.39
840.437	88.92
840.614	17.24
840.79	62.29
840.966	93.01
841.142	90.96
841.318	25.43
841.494	66.39
841.671	109.4
841.847	35.67
842.023	80.72
842.199	45.91
842.375	58.2
842.551	74.58
842.727	41.81
842.903	45.91
843.079	17.24
843.255	152.4
843.431	66.39
843.607	107.35
843.783	-31.91
843.959	115.54
844.134	-29.87
844.31	131.92
844.486	66.39
844.662	66.39
844.838	74.58
845.013	47.96
845.189	0.85
845.365	84.82
845.541	84.82
845.716	11.09
845.892	52.05
846.068	33.62
846.244	60.24
846.419	123.73
846.595	17.24
846.77	58.2
846.946	136.02
847.122	17.24
847.297	82.77
847.473	107.35
847.648	56.15
847.824	66.39
847.999	84.82
848.175	66.39
848.35	72.53
848.526	-19.63
848.701	25.43
848.876	107.35
849.052	33.62
849.227	60.24
849.403	41.81
849.578	90.96
849.753	43.86
849.929	66.39
850.104	29.52
850.279	76.63
850.454	11.09
850.63	176.98
850.805	21.33
850.98	62.29
851.155	0.85
851.33	47.96
851.505	-60.59
851.681	93.01
851.856	90.96
852.031	142.16
852.206	93.01
852.381	66.39
852.556	15.19
852.731	103.25
852.906	-1.19
853.081	41.81
853.256	131.92
853.431	56.15
853.606	70.48
853.781	17.24
853.956	-13.48
854.131	27.48
854.305	2.9
854.48	33.62
854.655	35.67
854.83	58.2
855.005	33.62
855.18	27.48
855.354	47.96
855.529	31.57
855.704	58.2
855.879	37.72
856.053	-29.87
856.228	84.82
856.403	66.39
856.577	95.06
856.752	68.44
856.926	33.62
857.101	66.39
857.276	4.95
857.45	27.48
857.625	101.2
857.799	52.05
857.974	107.35
858.148	-23.72
858.323	66.39
858.497	54.1
858.672	21.33
858.846	7
859.02	60.24
859.195	-31.91
859.369	23.38
859.543	11.09
859.718	39.76
859.892	78.68
860.066	62.29
860.241	103.25
860.415	64.34
860.589	-15.53
860.763	-7.34
860.938	50
861.112	25.43
861.286	-31.91
861.46	17.24
861.634	-25.77
861.808	-29.87
861.982	9.05
862.157	45.91
862.331	72.53
862.505	60.24
862.679	17.24
862.853	62.29
863.027	2.9
863.201	50
863.375	-33.96
863.549	21.33
863.722	50
863.896	107.35
864.07	37.72
864.244	-7.34
864.418	70.48
864.592	62.29
864.766	117.59
864.939	58.2
865.113	64.34
865.287	90.96
865.461	-52.39
865.634	50
865.808	0.85
865.982	-9.39
866.156	60.24
866.329	-19.63
866.503	76.63
866.676	58.2
866.85	-44.2
867.024	43.86
867.197	50
867.371	33.62
867.544	131.92
867.718	-21.67
867.891	76.63
868.065	60.24
868.238	74.58
868.412	19.29
868.585	29.52
868.759	52.05
868.932	-29.87
869.105	-21.67
869.279	68.44
869.452	58.2
869.625	-60.59
869.799	4.95
869.972	-15.53
870.145	80.72
870.319	11.09
870.492	74.58
870.665	33.62
870.838	0.85
871.011	-25.77
871.185	17.24
871.358	41.81
871.531	43.86
871.704	68.44
871.877	43.86
872.05	52.05
872.223	0.85
872.396	150.36
872.569	62.29
872.742	-56.49
872.915	50
873.088	21.33
873.261	50
873.434	37.72
873.607	-13.48
873.78	43.86
873.953	37.72
874.126	52.05
874.299	25.43
874.471	-27.82
874.644	60.24
874.817	35.67
874.99	123.73
875.163	-15.53
875.335	27.48
875.508	29.52
875.681	50
875.853	82.77
876.026	93.01
876.199	82.77
876.371	7
876.544	-31.91
876.717	25.43
876.889	-23.72
877.062	60.24
877.234	27.48
877.407	52.05
877.579	35.67
877.752	-7.34
877.924	43.86
878.097	17.24
878.269	19.29
878.442	9.05
878.614	54.1
878.786	99.16
878.959	82.77
879.131	54.1
879.303	-62.63
879.476	68.44
879.648	-23.72
879.82	121.68
879.993	52.05
880.165	-60.59
880.337	-7.34
880.509	-23.72
880.681	23.38
880.854	9.05
881.026	33.62
881.198	66.39
881.37	11.09
881.542	37.72
881.714	-9.39
881.886	74.58
882.058	66.39
882.23	41.81
882.402	-56.49
882.574	-9.39
882.746	80.72
882.918	41.81
883.09	-15.53
883.262	119.64
883.434	62.29
883.606	-5.29
883.778	-3.24
883.95	115.54
884.122	-5.29
884.293	41.81
884.465	66.39
884.637	27.48
884.809	31.57
884.98	0.85
885.152	82.77
885.324	-11.43
885.496	-23.72
885.667	-11.43
885.839	33.62
886.011	35.67
886.182	7
886.354	27.48
886.525	11.09
886.697	-9.39
886.869	-21.67
887.04	11.09
887.212	13.14
887.383	99.16
887.555	-3.24
887.726	27.48
887.897	9.05
888.069	113.49
888.24	52.05
888.412	0.85
888.583	54.1
888.754	-60.59
888.926	-33.96
889.097	62.29
889.268	2.9
889.44	0.85
889.611	-42.15
889.782	86.87
889.953	-72.87
890.125	41.81
890.296	-7.34
890.467	35.67
890.638	27.48
890.809	70.48
890.98	-29.87
891.151	25.43
891.323	56.15
891.494	4.95
891.665	29.52
891.836	66.39
892.007	62.29
892.178	7
892.349	45.91
892.52	25.43
892.691	19.29
892.862	52.05
893.032	-13.48
893.203	82.77
893.374	-7.34
893.545	-3.24
893.716	4.95
893.887	17.24
894.057	17.24
894.228	33.62
894.399	-23.72
894.57	13.14
894.74	19.29
894.911	33.62
895.082	-11.43
895.253	-1.19
895.423	84.82
895.594	74.58
895.764	60.24
895.935	-23.72
896.106	52.05
896.276	58.2
896.447	27.48
896.617	41.81
896.788	17.24
896.958	52.05
897.129	-13.48
897.299	37.72
897.47	29.52
897.64	-9.39
897.81	0.85
897.981	7
898.151	11.09
898.322	60.24
898.492	41.81
898.662	7
898.832	-44.2
899.003	-5.29
899.173	43.86
899.343	-85.16
899.513	4.95
