Data from USB4F104151__24__14-42-44-974.txt Node

Date: Thu Mar 13 14:42:44 EDT 2025
User: louis
Spectrometer: USB4F10415
Trigger mode: 4
Integration Time (sec): 2.000000E-2
Scans to average: 1
Electric dark correction enabled: true
Nonlinearity correction enabled: false
Boxcar width: 0
XAxis mode: Wavelengths
Number of Pixels in Spectrum: 3648
>>>>>Begin Spectral Data<<<<<
178.204	-132.09
178.424	-132.09
178.644	-132.09
178.864	-99.33
179.084	-146.43
179.304	-7.17
179.524	-27.65
179.744	-5.12
179.964	-3.07
180.184	-5.12
180.404	-35.84
180.624	3.07
180.844	58.37
181.064	-29.7
181.283	21.5
181.503	3.07
181.723	27.65
181.943	-17.41
182.163	37.89
182.383	-17.41
182.602	80.89
182.822	-11.26
183.042	-74.75
183.262	76.8
183.482	19.46
183.701	-21.5
183.921	-3.07
184.141	11.26
184.361	52.22
184.58	13.31
184.8	-5.12
185.02	-52.22
185.239	46.08
185.459	11.26
185.679	101.37
185.898	-76.8
186.118	76.8
186.338	-5.12
186.557	93.18
186.777	5.12
186.997	29.7
187.216	31.74
187.436	31.74
187.655	68.61
187.875	60.42
188.095	-11.26
188.314	41.98
188.534	-37.89
188.753	39.94
188.973	-19.46
189.192	84.99
189.412	44.03
189.631	35.84
189.851	23.55
190.07	29.7
190.29	-13.31
190.509	1.02
190.729	54.27
190.948	46.08
191.168	84.99
191.387	54.27
191.607	19.46
191.826	80.89
192.045	62.46
192.265	21.5
192.484	-93.18
192.704	23.55
192.923	-39.94
193.142	117.76
193.362	27.65
193.581	60.42
193.8	35.84
194.02	50.18
194.239	-19.46
194.458	17.41
194.678	-3.07
194.897	-21.5
195.116	13.31
195.335	-13.31
195.555	68.61
195.774	-3.07
195.993	-3.07
196.212	-1.02
196.432	37.89
196.651	-1.02
196.87	15.36
197.089	84.99
197.308	13.31
197.528	74.75
197.747	52.22
197.966	-5.12
198.185	82.94
198.404	68.61
198.623	87.04
198.842	105.47
199.062	44.03
199.281	101.37
199.5	84.99
199.719	25.6
199.938	52.22
200.157	70.65
200.376	97.28
200.595	70.65
200.814	33.79
201.033	41.98
201.252	103.42
201.471	52.22
201.69	48.13
201.909	54.27
202.128	46.08
202.347	-3.07
202.566	27.65
202.785	-3.07
203.004	-50.18
203.223	76.8
203.442	-5.12
203.661	-21.5
203.879	-25.6
204.098	15.36
204.317	13.31
204.536	41.98
204.755	56.32
204.974	52.22
205.193	46.08
205.411	95.23
205.63	80.89
205.849	37.89
206.068	11.26
206.287	95.23
206.505	44.03
206.724	-37.89
206.943	-17.41
207.162	52.22
207.381	70.65
207.599	46.08
207.818	29.7
208.037	5.12
208.255	-15.36
208.474	37.89
208.693	27.65
208.911	44.03
209.13	11.26
209.349	13.31
209.567	15.36
209.786	44.03
210.005	-29.7
210.223	27.65
210.442	-13.31
210.661	27.65
210.879	-3.07
211.098	31.74
211.316	52.22
211.535	-21.5
211.753	35.84
211.972	3.07
212.191	68.61
212.409	48.13
212.628	44.03
212.846	3.07
213.065	87.04
213.283	103.42
213.502	41.98
213.72	68.61
213.938	3.07
214.157	11.26
214.375	54.27
214.594	35.84
214.812	84.99
215.031	-13.31
215.249	46.08
215.467	-3.07
215.686	3.07
215.904	52.22
216.122	23.55
216.341	-5.12
216.559	-5.12
216.778	31.74
216.996	56.32
217.214	19.46
217.432	-1.02
217.651	39.94
217.869	35.84
218.087	13.31
218.306	-21.5
218.524	52.22
218.742	-11.26
218.96	-1.02
219.179	-21.5
219.397	3.07
219.615	48.13
219.833	60.42
220.051	11.26
220.27	76.8
220.488	95.23
220.706	68.61
220.924	33.79
221.142	3.07
221.36	84.99
221.578	74.75
221.796	-13.31
222.015	27.65
222.233	39.94
222.451	62.46
222.669	-25.6
222.887	19.46
223.105	-50.18
223.323	35.84
223.541	35.84
223.759	23.55
223.977	68.61
224.195	78.85
224.413	68.61
224.631	11.26
224.849	-1.02
225.067	162.81
225.285	-1.02
225.503	35.84
225.721	-9.22
225.939	60.42
226.157	37.89
226.375	31.74
226.592	35.84
226.81	-37.89
227.028	76.8
227.246	142.33
227.464	-62.46
227.682	46.08
227.9	68.61
228.117	87.04
228.335	-13.31
228.553	7.17
228.771	56.32
228.989	19.46
229.206	37.89
229.424	76.8
229.642	31.74
229.86	-37.89
230.077	5.12
230.295	19.46
230.513	80.89
230.731	33.79
230.948	-23.55
231.166	62.46
231.384	3.07
231.601	15.36
231.819	23.55
232.037	35.84
232.254	19.46
232.472	-5.12
232.689	33.79
232.907	68.61
233.125	-11.26
233.342	3.07
233.56	23.55
233.777	-1.02
233.995	-29.7
234.213	37.89
234.43	5.12
234.648	11.26
234.865	76.8
235.083	-3.07
235.3	29.7
235.518	66.56
235.735	37.89
235.953	101.37
236.17	-13.31
236.388	44.03
236.605	35.84
236.822	60.42
237.04	95.23
237.257	-27.65
237.475	-11.26
237.692	66.56
237.909	23.55
238.127	19.46
238.344	44.03
238.562	3.07
238.779	11.26
238.996	72.7
239.214	29.7
239.431	60.42
239.648	-13.31
239.865	76.8
240.083	68.61
240.3	93.18
240.517	52.22
240.735	17.41
240.952	78.85
241.169	44.03
241.386	7.17
241.603	35.84
241.821	68.61
242.038	-1.02
242.255	48.13
242.472	-13.31
242.689	-33.79
242.907	44.03
243.124	56.32
243.341	58.37
243.558	56.32
243.775	60.42
243.992	37.89
244.209	93.18
244.426	-3.07
244.643	-17.41
244.86	11.26
245.078	74.75
245.295	23.55
245.512	19.46
245.729	60.42
245.946	27.65
246.163	54.27
246.38	99.33
246.597	11.26
246.814	50.18
247.031	76.8
247.248	-5.12
247.464	46.08
247.681	-29.7
247.898	80.89
248.115	103.42
248.332	58.37
248.549	72.7
248.766	97.28
248.983	72.7
249.2	60.42
249.417	62.46
249.633	35.84
249.85	87.04
250.067	52.22
250.284	-9.22
250.501	46.08
250.717	31.74
250.934	46.08
251.151	-37.89
251.368	7.17
251.585	68.61
251.801	-3.07
252.018	35.84
252.235	21.5
252.451	56.32
252.668	44.03
252.885	80.89
253.102	60.42
253.318	-5.12
253.535	11.26
253.752	-23.55
253.968	27.65
254.185	95.23
254.401	31.74
254.618	11.26
254.835	3.07
255.051	134.14
255.268	97.28
255.484	35.84
255.701	52.22
255.917	78.85
256.134	-11.26
256.351	80.89
256.567	-29.7
256.784	-46.08
257	-48.13
257.217	84.99
257.433	93.18
257.65	80.89
257.866	25.6
258.082	31.74
258.299	-7.17
258.515	68.61
258.732	80.89
258.948	7.17
259.165	-37.89
259.381	-3.07
259.597	21.5
259.814	-13.31
260.03	84.99
260.246	3.07
260.463	9.22
260.679	15.36
260.895	-25.6
261.112	78.85
261.328	11.26
261.544	-3.07
261.761	87.04
261.977	-29.7
262.193	-58.37
262.409	35.84
262.626	72.7
262.842	21.5
263.058	27.65
263.274	-9.22
263.49	105.47
263.707	31.74
263.923	-46.08
264.139	-5.12
264.355	-11.26
264.571	82.94
264.787	48.13
265.004	76.8
265.22	93.18
265.436	29.7
265.652	-5.12
265.868	19.46
266.084	13.31
266.3	19.46
266.516	33.79
266.732	5.12
266.948	-7.17
267.164	33.79
267.38	17.41
267.596	29.7
267.812	119.81
268.028	5.12
268.244	68.61
268.46	23.55
268.676	39.94
268.892	93.18
269.108	-46.08
269.324	5.12
269.54	-46.08
269.756	52.22
269.972	3.07
270.188	3.07
270.403	5.12
270.619	5.12
270.835	-11.26
271.051	76.8
271.267	52.22
271.483	44.03
271.698	54.27
271.914	109.57
272.13	64.51
272.346	-33.79
272.562	70.65
272.777	87.04
272.993	31.74
273.209	93.18
273.425	56.32
273.64	70.65
273.856	27.65
274.072	-19.46
274.287	46.08
274.503	35.84
274.719	68.61
274.934	-3.07
275.15	9.22
275.366	74.75
275.581	7.17
275.797	29.7
276.012	15.36
276.228	21.5
276.444	52.22
276.659	97.28
276.875	-52.22
277.09	1.02
277.306	19.46
277.521	56.32
277.737	-11.26
277.952	91.13
278.168	27.65
278.383	76.8
278.599	76.8
278.814	35.84
279.03	-13.31
279.245	68.61
279.461	25.6
279.676	97.28
279.892	35.84
280.107	-19.46
280.322	37.89
280.538	11.26
280.753	-1.02
280.969	66.56
281.184	93.18
281.399	35.84
281.615	11.26
281.83	11.26
282.045	21.5
282.26	-21.5
282.476	62.46
282.691	31.74
282.906	7.17
283.122	60.42
283.337	-7.17
283.552	35.84
283.767	-37.89
283.983	39.94
284.198	-33.79
284.413	78.85
284.628	62.46
284.843	39.94
285.058	52.22
285.274	76.8
285.489	52.22
285.704	82.94
285.919	-13.31
286.134	-5.12
286.349	-13.31
286.564	-11.26
286.779	72.7
286.995	68.61
287.21	-3.07
287.425	84.99
287.64	-11.26
287.855	-5.12
288.07	-48.13
288.285	44.03
288.5	72.7
288.715	-1.02
288.93	1.02
289.145	3.07
289.36	3.07
289.575	25.6
289.79	125.95
290.004	11.26
290.219	39.94
290.434	5.12
290.649	15.36
290.864	-5.12
291.079	19.46
291.294	76.8
291.509	5.12
291.724	44.03
291.938	-3.07
292.153	62.46
292.368	9.22
292.583	15.36
292.798	48.13
293.012	27.65
293.227	60.42
293.442	19.46
293.657	50.18
293.871	68.61
294.086	46.08
294.301	-13.31
294.516	39.94
294.73	62.46
294.945	-19.46
295.16	93.18
295.374	44.03
295.589	35.84
295.804	39.94
296.018	46.08
296.233	-33.79
296.447	95.23
296.662	-21.5
296.877	82.94
297.091	5.12
297.306	80.89
297.52	-25.6
297.735	21.5
297.949	29.7
298.164	48.13
298.378	29.7
298.593	25.6
298.807	23.55
299.022	54.27
299.236	44.03
299.451	-3.07
299.665	-44.03
299.88	60.42
300.094	-25.6
300.309	29.7
300.523	134.14
300.737	27.65
300.952	41.98
301.166	64.51
301.381	-46.08
301.595	48.13
301.809	136.19
302.024	-5.12
302.238	-60.42
302.452	109.57
302.667	5.12
302.881	31.74
303.095	101.37
303.309	44.03
303.524	74.75
303.738	68.61
303.952	33.79
304.166	-5.12
304.381	-66.56
304.595	58.37
304.809	31.74
305.023	56.32
305.237	52.22
305.452	19.46
305.666	72.7
305.88	44.03
306.094	52.22
306.308	70.65
306.522	84.99
306.736	39.94
306.95	-11.26
307.164	-5.12
307.379	52.22
307.593	44.03
307.807	62.46
308.021	70.65
308.235	11.26
308.449	-19.46
308.663	101.37
308.877	52.22
309.091	56.32
309.305	44.03
309.519	-35.84
309.733	87.04
309.947	-50.18
310.161	44.03
310.374	84.99
310.588	91.13
310.802	-46.08
311.016	19.46
311.23	35.84
311.444	-17.41
311.658	17.41
311.872	70.65
312.085	44.03
312.299	84.99
312.513	70.65
312.727	-7.17
312.941	11.26
313.154	-46.08
313.368	72.7
313.582	-1.02
313.796	21.5
314.009	44.03
314.223	97.28
314.437	68.61
314.651	78.85
314.864	60.42
315.078	15.36
315.292	5.12
315.505	72.7
315.719	19.46
315.933	54.27
316.146	17.41
316.36	1.02
316.573	80.89
316.787	3.07
317.001	109.57
317.214	29.7
317.428	84.99
317.641	-1.02
317.855	-9.22
318.068	23.55
318.282	76.8
318.495	23.55
318.709	11.26
318.922	-33.79
319.136	113.66
319.349	46.08
319.563	-91.13
319.776	-21.5
319.99	-5.12
320.203	35.84
320.417	46.08
320.63	33.79
320.843	29.7
321.057	70.65
321.27	-29.7
321.483	5.12
321.697	70.65
321.91	39.94
322.124	-78.85
322.337	-21.5
322.55	-33.79
322.763	15.36
322.977	-19.46
323.19	35.84
323.403	19.46
323.617	60.42
323.83	23.55
324.043	54.27
324.256	68.61
324.469	-54.27
324.683	37.89
324.896	76.8
325.109	7.17
325.322	-3.07
325.535	84.99
325.748	68.61
325.962	46.08
326.175	54.27
326.388	54.27
326.601	27.65
326.814	15.36
327.027	-13.31
327.24	50.18
327.453	-31.74
327.666	70.65
327.879	111.61
328.092	52.22
328.305	113.66
328.518	82.94
328.731	44.03
328.944	15.36
329.157	11.26
329.37	37.89
329.583	44.03
329.796	33.79
330.009	5.12
330.222	70.65
330.435	44.03
330.648	64.51
330.861	56.32
331.073	-11.26
331.286	46.08
331.499	58.37
331.712	27.65
331.925	27.65
332.138	52.22
332.35	35.84
332.563	-33.79
332.776	119.81
332.989	1.02
333.202	11.26
333.414	5.12
333.627	52.22
333.84	23.55
334.053	35.84
334.265	31.74
334.478	-3.07
334.691	5.12
334.903	35.84
335.116	27.65
335.329	-70.65
335.541	60.42
335.754	109.57
335.966	5.12
336.179	-62.46
336.392	35.84
336.604	70.65
336.817	56.32
337.029	29.7
337.242	11.26
337.454	23.55
337.667	46.08
337.88	33.79
338.092	-17.41
338.305	76.8
338.517	-9.22
338.729	72.7
338.942	87.04
339.154	3.07
339.367	3.07
339.579	60.42
339.792	-39.94
340.004	64.51
340.217	3.07
340.429	46.08
340.641	13.31
340.854	-5.12
341.066	48.13
341.278	95.23
341.491	56.32
341.703	101.37
341.915	3.07
342.128	80.89
342.34	48.13
342.552	52.22
342.764	3.07
342.977	-7.17
343.189	50.18
343.401	48.13
343.613	-13.31
343.826	68.61
344.038	31.74
344.25	15.36
344.462	29.7
344.674	44.03
344.886	52.22
345.099	99.33
345.311	27.65
345.523	-29.7
345.735	5.12
345.947	87.04
346.159	7.17
346.371	48.13
346.583	11.26
346.795	58.37
347.007	46.08
347.219	31.74
347.431	-9.22
347.643	54.27
347.855	39.94
348.067	-41.98
348.279	-5.12
348.491	35.84
348.703	44.03
348.915	44.03
349.127	-29.7
349.339	7.17
349.551	35.84
349.763	15.36
349.975	44.03
350.187	89.09
350.399	-11.26
350.61	-3.07
350.822	9.22
351.034	21.5
351.246	27.65
351.458	19.46
351.669	-21.5
351.881	80.89
352.093	37.89
352.305	78.85
352.517	87.04
352.728	130.05
352.94	-9.22
353.152	103.42
353.363	-5.12
353.575	101.37
353.787	97.28
353.999	5.12
354.21	111.61
354.422	72.7
354.633	46.08
354.845	68.61
355.057	-5.12
355.268	5.12
355.48	11.26
355.692	-5.12
355.903	68.61
356.115	41.98
356.326	31.74
356.538	64.51
356.749	31.74
356.961	87.04
357.172	7.17
357.384	-13.31
357.595	64.51
357.807	35.84
358.018	33.79
358.23	78.85
358.441	134.14
358.653	84.99
358.864	46.08
359.075	44.03
359.287	-54.27
359.498	46.08
359.709	23.55
359.921	-13.31
360.132	11.26
360.344	21.5
360.555	27.65
360.766	35.84
360.977	89.09
361.189	103.42
361.4	19.46
361.611	105.47
361.823	101.37
362.034	13.31
362.245	11.26
362.456	89.09
362.667	64.51
362.879	-21.5
363.09	23.55
363.301	35.84
363.512	62.46
363.723	-17.41
363.935	35.84
364.146	29.7
364.357	13.31
364.568	44.03
364.779	21.5
364.99	121.85
365.201	15.36
365.412	103.42
365.623	3.07
365.834	78.85
366.045	-29.7
366.256	27.65
366.467	144.38
366.678	-21.5
366.889	17.41
367.1	33.79
367.311	54.27
367.522	9.22
367.733	84.99
367.944	48.13
368.155	35.84
368.366	19.46
368.577	37.89
368.788	80.89
368.999	44.03
369.209	78.85
369.42	3.07
369.631	121.85
369.842	123.9
370.053	21.5
370.264	33.79
370.474	56.32
370.685	35.84
370.896	11.26
371.107	72.7
371.317	39.94
371.528	-46.08
371.739	37.89
371.95	-1.02
372.16	41.98
372.371	-15.36
372.582	103.42
372.792	56.32
373.003	84.99
373.214	89.09
373.424	101.37
373.635	11.26
373.846	134.14
374.056	44.03
374.267	31.74
374.477	23.55
374.688	52.22
374.898	74.75
375.109	72.7
375.319	70.65
375.53	70.65
375.74	13.31
375.951	11.26
376.161	64.51
376.372	99.33
376.582	-3.07
376.793	138.24
377.003	138.24
377.214	33.79
377.424	87.04
377.635	91.13
377.845	21.5
378.055	99.33
378.266	-9.22
378.476	19.46
378.686	97.28
378.897	-13.31
379.107	46.08
379.317	103.42
379.528	-37.89
379.738	44.03
379.948	23.55
380.158	82.94
380.369	68.61
380.579	46.08
380.789	44.03
380.999	37.89
381.21	60.42
381.42	121.85
381.63	-23.55
381.84	7.17
382.05	101.37
382.261	54.27
382.471	56.32
382.681	44.03
382.891	84.99
383.101	84.99
383.311	31.74
383.521	5.12
383.731	58.37
383.941	121.85
384.151	70.65
384.361	56.32
384.571	11.26
384.781	54.27
384.991	54.27
385.201	-35.84
385.411	48.13
385.621	78.85
385.831	111.61
386.041	89.09
386.251	27.65
386.461	39.94
386.671	31.74
386.881	54.27
387.091	11.26
387.301	35.84
387.511	13.31
387.72	60.42
387.93	27.65
388.14	1.02
388.35	52.22
388.56	72.7
388.769	70.65
388.979	70.65
389.189	-7.17
389.399	37.89
389.609	37.89
389.818	44.03
390.028	37.89
390.238	58.37
390.447	58.37
390.657	21.5
390.867	-5.12
391.076	-13.31
391.286	97.28
391.496	52.22
391.705	-27.65
391.915	35.84
392.125	87.04
392.334	76.8
392.544	70.65
392.753	78.85
392.963	68.61
393.172	68.61
393.382	72.7
393.591	93.18
393.801	19.46
394.01	121.85
394.22	19.46
394.429	60.42
394.639	35.84
394.848	54.27
395.058	60.42
395.267	76.8
395.477	35.84
395.686	93.18
395.895	156.67
396.105	121.85
396.314	113.66
396.524	72.7
396.733	103.42
396.942	52.22
397.152	70.65
397.361	117.76
397.57	17.41
397.78	52.22
397.989	60.42
398.198	171.01
398.407	76.8
398.617	105.47
398.826	9.22
399.035	111.61
399.244	56.32
399.453	39.94
399.663	87.04
399.872	150.53
400.081	11.26
400.29	121.85
400.499	23.55
400.708	101.37
400.917	84.99
401.127	31.74
401.336	72.7
401.545	207.87
401.754	80.89
401.963	84.99
402.172	62.46
402.381	-5.12
402.59	105.47
402.799	76.8
403.008	82.94
403.217	179.2
403.426	109.57
403.635	27.65
403.844	105.47
404.053	80.89
404.262	101.37
404.471	228.35
404.68	171.01
404.888	109.57
405.097	64.51
405.306	150.53
405.515	183.29
405.724	87.04
405.933	76.8
406.142	146.43
406.35	123.9
406.559	109.57
406.768	95.23
406.977	142.33
407.185	187.39
407.394	220.16
407.603	99.33
407.812	183.29
408.02	257.02
408.229	183.29
408.438	68.61
408.646	162.81
408.855	173.05
409.064	162.81
409.272	203.77
409.481	199.68
409.69	175.1
409.898	199.68
410.107	175.1
410.315	195.58
410.524	228.35
410.733	207.87
410.941	289.79
411.15	228.35
411.358	261.12
411.567	318.46
411.775	207.87
411.984	338.94
412.192	285.69
412.401	283.64
412.609	359.42
412.818	359.42
413.026	363.51
413.234	379.9
413.443	357.37
413.651	396.28
413.86	445.43
414.068	431.1
414.276	470.01
414.485	422.91
414.693	459.77
414.901	488.44
415.11	502.78
415.318	476.15
415.526	478.2
415.734	455.67
415.943	470.01
416.151	617.46
416.359	537.59
416.567	588.79
416.776	609.27
416.984	658.42
417.192	709.62
417.4	674.81
417.608	644.09
417.817	699.38
418.025	846.84
418.233	846.84
418.441	701.43
418.649	797.68
418.857	879.6
419.065	922.61
419.273	846.84
419.481	928.75
419.689	986.1
419.897	1035.25
420.105	1043.44
420.313	1117.17
420.521	1168.37
420.729	1215.47
420.937	1186.8
421.145	1305.58
421.353	1309.68
421.561	1358.83
421.769	1457.13
421.977	1434.6
422.185	1457.13
422.393	1473.51
422.601	1557.48
422.809	1637.35
423.017	1686.5
423.224	1528.81
423.432	1801.19
423.64	1782.76
423.848	1854.44
424.056	1776.61
424.263	1944.55
424.471	2005.99
424.679	1948.64
424.887	2173.92
425.094	2307.04
425.302	2206.69
425.51	2304.99
425.718	2335.71
425.925	2343.9
426.133	2388.96
426.341	2552.79
426.548	2657.24
426.756	2724.82
426.964	2698.2
427.171	2892.76
427.379	2929.62
427.586	3052.5
427.794	3249.1
428.001	3197.9
428.209	3474.38
428.417	3492.81
428.624	3511.24
428.832	3505.1
429.039	3552.2
429.247	3582.92
429.454	3814.34
429.662	4086.72
429.869	3865.54
430.076	4260.8
430.284	3943.36
430.491	4254.66
430.699	4490.17
430.906	4578.23
431.114	4570.04
431.321	4576.19
431.528	4707.26
431.736	5077.94
431.943	5458.86
432.15	5295.02
432.358	5305.26
432.565	5508.01
432.772	5395.37
432.979	5864.36
433.187	5802.92
433.394	5843.88
433.601	6347.68
433.808	6337.44
434.016	6241.18
434.223	6267.81
434.43	6908.82
434.637	6720.41
434.844	7175.06
435.052	7318.42
435.259	7150.48
435.466	7408.53
435.673	7179.15
435.88	7717.77
436.087	8129.41
436.294	8049.54
436.501	8065.92
436.708	8260.48
436.915	8479.61
437.122	8825.72
437.329	8631.16
437.537	8956.79
437.743	9198.45
437.95	8926.07
438.157	9536.37
438.364	9800.55
438.571	9833.32
438.778	9849.71
438.985	10816.35
439.192	10392.42
439.399	10744.67
439.606	10451.81
439.813	11070.3
440.02	11918.15
440.227	11580.24
440.433	11348.82
440.64	11828.04
440.847	11877.19
441.054	12118.86
441.261	12806.97
441.467	12634.94
441.674	12950.33
441.881	13443.89
442.088	13261.62
442.294	12913.47
442.501	13609.78
442.708	13720.37
442.914	14424.87
443.121	15014.68
443.328	14693.15
443.534	15657.75
443.741	15282.97
443.948	14867.23
444.154	16098.06
444.361	15829.77
444.568	15860.49
444.774	15862.54
444.981	16153.35
445.187	16651.01
445.394	17582.84
445.6	17314.55
445.807	19014.37
446.013	17959.66
446.22	18297.58
446.426	19000.03
446.633	19108.57
446.839	19921.62
447.046	19102.43
447.252	20181.71
447.459	19997.39
447.665	20040.4
447.871	20939.46
448.078	21795.51
448.284	20789.95
448.491	21291.71
448.697	22139.57
448.903	22747.81
449.11	22973.09
449.316	22354.6
449.522	22794.92
449.728	23386.78
449.935	23597.72
450.141	23722.65
450.347	24267.41
450.553	23480.99
450.76	23593.62
450.966	24644.23
451.172	24570.51
451.378	24988.29
451.584	24226.45
451.791	25109.12
451.997	24855.17
452.203	25485.95
452.409	25528.95
452.615	25068.16
452.821	24109.71
453.027	23716.5
453.233	25385.6
453.44	24181.39
453.646	24658.57
453.852	25217.66
454.058	25215.62
454.264	24677
454.47	25375.36
454.676	24539.79
454.882	25440.89
455.088	22971.04
455.294	23454.36
455.5	23771.8
455.705	24085.14
455.911	23067.3
456.117	22749.86
456.323	22379.18
456.529	21410.49
456.735	22119.09
456.941	21527.22
457.147	21314.23
457.352	20765.38
457.558	20273.87
457.764	20556.49
457.97	20087.5
458.176	19669.72
458.381	19751.63
458.587	18813.66
458.793	18770.66
458.999	17887.98
459.204	19204.83
459.41	18402.02
459.616	17214.2
459.821	17187.58
460.027	17132.28
460.233	17011.45
460.438	16229.13
460.644	16257.8
460.85	15627.03
461.055	15381.27
461.261	15274.77
461.466	13953.84
461.672	13699.89
461.878	14797.6
462.083	13863.72
462.289	13386.55
462.494	13339.44
462.7	12741.44
462.905	12397.38
463.111	12761.92
463.316	12802.88
463.522	12616.51
463.727	12776.25
463.932	12708.67
464.138	12497.73
464.343	12524.35
464.549	12168.01
464.754	12514.11
464.959	12671.81
465.165	12319.56
465.37	11819.85
465.575	11438.93
465.781	12084.04
465.986	12069.7
466.191	11279.19
466.397	11361.11
466.602	10832.73
466.807	11266.9
467.012	11314
467.218	11129.69
467.423	10910.55
467.628	11115.35
467.833	11635.53
468.038	11139.93
468.244	10955.61
468.449	11377.49
468.654	10955.61
468.859	10750.81
469.064	10816.35
469.269	10486.62
469.474	10330.98
469.679	10787.68
469.885	10521.44
470.09	10564.45
470.295	10447.71
470.5	9900.9
470.705	10320.74
470.91	10046.31
471.115	9759.6
471.32	10070.89
471.525	10046.31
471.73	9902.95
471.935	9909.1
472.139	9450.35
472.344	9587.57
472.549	9474.93
472.754	9448.3
472.959	9237.36
473.164	9048.95
473.369	8973.18
473.574	9225.08
473.778	9077.62
473.983	9038.71
474.188	8983.41
474.393	8639.36
474.598	8727.42
474.802	8508.29
475.007	8407.94
475.212	8504.19
475.417	8285.06
475.621	8203.14
475.826	8309.63
476.031	8113.03
476.235	7859.08
476.44	8039.3
476.645	7842.7
476.849	7994.25
477.054	7674.76
477.259	7697.29
477.463	7654.28
477.668	7285.65
477.872	7703.43
478.077	7340.94
478.282	7144.34
478.486	7173.01
478.691	7396.24
478.895	7121.81
479.1	7097.24
479.304	7017.36
479.509	7076.76
479.713	7113.62
479.918	6867.86
480.122	6683.55
480.326	6871.96
480.531	6929.3
480.735	6937.49
480.94	6783.9
481.144	6972.31
481.348	6640.54
481.553	6753.18
481.757	6597.53
481.961	6738.84
482.166	6716.31
482.37	6482.85
482.574	6609.82
482.778	6454.17
482.983	6620.06
483.187	6564.76
483.391	6552.48
483.595	6474.65
483.8	6568.86
484.004	6615.96
484.208	6572.96
484.412	6568.86
484.616	6663.07
484.821	6669.21
485.025	6474.65
485.229	6654.87
485.433	6482.85
485.637	6611.87
485.841	6486.94
486.045	6536.09
486.249	6642.59
486.453	6708.12
486.657	6583.2
486.861	6581.15
487.065	6314.91
487.269	6620.06
487.473	6597.53
487.677	6613.92
487.881	6601.63
488.085	6695.83
488.289	6781.85
488.493	6476.7
488.697	6638.49
488.901	6695.83
489.105	6515.61
489.309	6687.64
489.512	6714.27
489.716	6742.94
489.92	6742.94
490.124	6517.66
490.328	6974.36
490.531	6697.88
490.735	6591.39
490.939	6747.03
491.143	6802.33
491.346	6876.06
491.55	6769.56
491.754	6878.1
491.958	6931.35
492.161	6833.05
492.365	6884.25
492.569	7043.99
492.772	7060.37
492.976	7113.62
493.18	7109.52
493.383	7084.95
493.587	7011.22
493.79	7435.15
493.994	7205.78
494.197	7488.4
494.401	7394.19
494.605	7361.42
494.808	7535.5
495.012	7453.58
495.215	7633.8
495.419	7588.75
495.622	7682.95
495.825	7846.79
496.029	7826.31
496.232	7863.18
496.436	7762.83
496.639	8121.22
496.843	7961.48
497.046	8205.19
497.249	8151.94
497.453	8319.87
497.656	8379.26
497.859	8375.17
498.063	8600.44
498.266	8541.05
498.469	8682.36
498.673	8860.54
498.876	8868.73
499.079	9075.57
499.282	8977.27
499.485	9341.81
499.689	9431.92
499.892	9382.77
500.095	9505.65
500.298	9667.44
500.501	9540.46
500.705	9884.52
500.908	9960.3
501.111	10216.29
501.314	10308.45
501.517	10019.69
501.72	10285.92
501.923	10218.34
502.126	10593.12
502.329	11000.66
502.532	10644.32
502.735	10834.78
502.938	11141.97
503.141	11182.93
503.344	11332.44
503.547	11326.29
503.75	11465.55
503.953	11809.61
504.156	11785.04
504.359	12094.28
504.562	11969.35
504.765	12258.12
504.968	12258.12
505.17	12573.5
505.373	12489.54
505.576	12622.66
505.779	12917.56
505.982	12735.29
506.185	13261.62
506.387	13216.57
506.59	13148.98
506.793	13617.97
506.996	13806.38
507.198	13853.48
507.401	13912.88
507.604	13929.26
507.807	14244.65
508.009	14543.65
508.212	14476.07
508.415	14816.03
508.617	15035.16
508.82	14900
509.022	14996.25
509.225	15297.3
509.428	15575.83
509.63	15815.44
509.833	15905.55
510.035	16192.26
510.238	16141.07
510.44	16110.35
510.643	16616.19
510.845	16675.59
511.048	16610.05
511.25	16872.19
511.453	17296.12
511.655	17515.25
511.858	17322.74
512.06	17804.02
512.262	17863.41
512.465	17742.58
512.667	18418.41
512.87	18365.16
513.072	18590.44
513.274	18795.23
513.477	19081.95
513.679	19251.93
513.881	19397.34
514.084	19811.03
514.286	19491.54
514.488	19659.48
514.69	20030.16
514.893	20323.02
515.095	20648.64
515.297	20619.97
515.499	20632.26
515.701	21078.72
515.904	21015.23
516.106	21236.41
516.308	21584.57
516.51	21748.4
516.712	21822.13
516.914	22039.22
517.116	22436.52
517.318	22620.84
517.52	22444.71
517.722	22657.7
517.925	23014.05
518.127	23489.18
518.329	23499.42
518.531	23360.16
518.733	23958.16
518.935	23896.72
519.136	23825.04
519.338	24400.52
519.54	24406.67
519.742	24869.51
519.944	25246.33
520.146	25348.73
520.348	25645.69
520.55	25453.18
520.752	25207.42
520.954	26067.57
521.155	26344.05
521.357	26411.63
521.559	26614.38
521.761	26892.9
521.963	26710.63
522.164	27017.83
522.366	27091.55
522.568	27615.83
522.77	27511.39
522.971	28107.35
523.173	27617.88
523.375	28392.01
523.576	27982.42
523.778	28344.91
523.98	28439.12
524.181	28879.43
524.383	28686.92
524.584	29090.37
524.786	28840.52
524.988	28813.9
525.189	29356.61
525.391	29663.8
525.592	29884.98
525.794	29983.29
525.995	29782.59
526.197	29696.57
526.398	30229.04
526.6	30253.62
526.801	30534.19
527.003	30599.73
527.204	30466.61
527.406	30990.89
527.607	31037.99
527.808	31394.34
528.01	31037.99
528.211	30685.74
528.412	31756.83
528.614	31400.48
528.815	31293.99
529.016	31808.03
529.218	31658.52
529.419	31609.37
529.62	31654.43
529.822	31650.33
530.023	31871.51
530.224	31650.33
530.425	31672.86
530.626	31652.38
530.828	31613.47
531.029	32279.06
531.23	32070.17
531.431	32021.02
531.632	32297.49
531.833	32234
532.035	32164.37
532.236	32690.7
532.437	32406.03
532.638	32006.68
532.839	32616.97
533.04	32182.8
533.241	32387.6
533.442	32528.91
533.643	32432.66
533.844	32377.36
534.045	32676.37
534.246	31975.96
534.447	32446.99
534.648	32707.08
534.849	32664.08
535.05	32399.89
535.251	32571.92
535.451	32510.48
535.652	32492.05
535.853	32277.01
536.054	32637.45
536.255	32631.31
536.456	32272.92
536.657	32637.45
536.857	32631.31
537.058	32584.21
537.259	32854.54
537.46	32743.95
537.66	32643.6
537.861	32707.08
538.062	32420.37
538.263	32688.65
538.463	32248.34
538.664	32526.86
538.865	32328.21
539.065	32793.1
539.266	32356.88
539.466	33036.81
539.667	32317.97
539.868	32653.84
540.068	32516.62
540.269	32352.79
540.469	32662.03
540.67	32379.41
540.87	32608.78
541.071	32526.86
541.271	32711.18
541.472	32363.03
541.672	32338.45
541.873	32350.74
542.073	32395.79
542.274	32614.93
542.474	32651.79
542.675	32078.36
542.875	32631.31
543.075	32408.08
543.276	32373.27
543.476	32397.84
543.676	32277.01
543.877	32317.97
544.077	32418.32
544.277	32655.89
544.478	32193.04
544.678	32219.67
544.878	32301.59
545.078	32295.44
545.279	31994.39
545.479	32170.52
545.679	32172.57
545.879	32518.67
546.079	32123.41
546.28	32270.87
546.48	31838.75
546.68	32299.54
546.88	32393.75
547.08	32037.4
547.28	32039.45
547.48	31701.53
547.68	32295.44
547.88	31937.05
548.081	32231.96
548.281	32354.83
548.481	32152.09
548.681	32326.16
548.881	32121.37
549.081	32168.47
549.28	32094.74
549.48	32201.24
549.68	31869.47
549.88	32416.27
550.08	31986.2
550.28	31711.77
550.48	32029.21
550.68	32014.87
550.88	31777.31
551.08	31879.71
551.279	31959.58
551.479	31875.61
551.679	31787.55
551.879	32041.5
552.079	31953.43
552.278	31928.86
552.478	32061.97
552.678	32068.12
552.878	31994.39
553.077	31914.52
553.277	31808.03
553.477	31998.49
553.676	31420.96
553.876	31517.22
554.076	31607.33
554.275	31982.1
554.475	31267.36
554.674	31709.72
554.874	31885.85
555.074	31642.14
555.273	31533.6
555.473	31930.9
555.672	31586.85
555.872	31504.93
556.071	31597.09
556.271	31695.39
556.47	31595.04
556.67	31498.78
556.869	31271.46
557.068	31621.66
557.268	31322.66
557.467	31269.41
557.667	31509.02
557.866	31214.12
558.065	31318.56
558.265	31126.05
558.464	30997.03
558.663	31216.16
558.863	30765.61
559.062	31746.59
559.261	30335.54
559.461	31181.35
559.66	30708.27
559.859	31074.85
560.058	31007.27
560.258	30708.27
560.457	30419.5
560.656	30792.23
560.855	30468.66
561.054	30474.8
561.253	30466.61
561.453	30353.97
561.652	30528.05
561.851	30358.06
562.05	30249.52
562.249	30147.12
562.448	30478.89
562.647	30222.9
562.846	30444.08
563.045	30143.03
563.244	29770.3
563.443	30358.06
563.642	29631.04
563.841	29868.6
564.04	29723.19
564.239	29844.02
564.438	29839.93
564.637	30009.91
564.836	30181.94
565.035	29467.2
565.234	29522.49
565.432	29577.79
565.631	29340.22
565.83	29684.28
566.029	29524.54
566.228	29385.28
566.427	29336.13
566.625	29059.65
566.824	28394.06
567.023	29368.9
567.222	28811.85
567.42	28924.49
567.619	28893.77
567.818	28828.23
568.016	28893.77
568.215	28856.9
568.414	28523.08
568.612	28957.25
568.811	28641.87
569.01	28674.63
569.208	28101.2
569.407	28541.52
569.605	28062.29
569.804	28389.97
570.002	28164.69
570.201	28543.56
570.4	28084.82
570.598	27564.64
570.797	27726.42
570.995	28103.25
571.193	27583.07
571.392	28215.89
571.59	27370.08
571.789	27538.01
571.987	27574.88
572.186	27687.51
572.384	27097.7
572.582	27552.35
572.781	27169.38
572.979	26886.76
573.177	27130.47
573.376	27339.36
573.574	27152.99
573.772	27050.6
573.971	26917.48
574.169	26659.43
574.367	26669.67
574.565	26755.69
574.763	26600.04
574.962	26559.08
575.16	26133.11
575.358	26487.4
575.556	26399.34
575.754	26411.63
575.952	26042.99
576.151	26141.3
576.349	25897.59
576.547	25854.58
576.745	26049.14
576.943	25821.81
577.141	25782.9
577.339	26106.48
577.537	25694.84
577.735	25420.41
577.933	25512.57
578.131	25885.3
578.329	25297.53
578.527	25207.42
578.725	25072.26
578.923	25334.4
579.121	25021.06
579.319	25232
579.516	25129.6
579.714	24920.71
579.912	24955.52
580.11	24849.03
580.308	24930.95
580.506	24777.35
580.704	24398.48
580.901	24564.36
581.099	24990.34
581.297	24234.64
581.495	24414.86
581.692	24525.45
581.89	24240.78
582.088	24494.73
582.285	23915.16
582.483	24177.3
582.681	24136.34
582.878	23734.93
583.076	23739.03
583.274	24046.23
583.471	23859.86
583.669	23913.11
583.866	23816.85
584.064	23696.02
584.262	23732.89
584.459	23487.13
584.657	23425.69
584.854	23853.72
585.052	23153.31
585.249	23280.28
585.447	23304.86
585.644	23067.3
585.841	23343.77
586.039	23261.85
586.236	22776.48
586.434	22747.81
586.631	22655.65
586.828	22786.72
587.026	22721.19
587.223	22870.69
587.42	22352.55
587.618	22459.05
587.815	22123.18
588.012	22379.18
588.21	22289.07
588.407	22735.53
588.604	21957.3
588.801	22047.41
588.999	22301.36
589.196	22035.12
589.393	21940.91
589.59	21596.85
589.787	21555.9
589.984	21660.34
590.182	21406.39
590.379	21881.52
590.576	21480.12
590.773	21590.71
590.97	21463.74
591.167	21590.71
591.364	21109.44
591.561	21240.51
591.758	21179.07
591.955	21297.85
592.152	21457.59
592.349	20767.43
592.546	20912.83
592.743	21134.01
592.94	21025.47
593.137	20695.75
593.334	20419.27
593.531	20658.88
593.727	20648.64
593.924	20699.84
594.121	20531.91
594.318	20474.57
594.515	20497.1
594.712	20398.79
594.908	20040.4
595.105	20153.04
595.302	20128.46
595.499	20116.17
595.696	20017.87
595.892	19710.68
596.089	19950.29
596.286	19944.14
596.482	19921.62
596.679	19794.64
596.876	19778.26
597.072	19802.83
597.269	19585.75
597.466	19339.99
597.662	19141.34
597.859	19165.92
598.055	19663.57
598.252	19413.72
598.448	19231.45
598.645	19581.65
598.841	19071.71
599.038	18901.73
599.234	19143.39
599.431	18864.86
599.627	18772.71
599.824	18625.25
600.02	18617.06
600.217	18672.36
600.413	18725.6
600.609	18754.27
600.806	18426.6
601.002	18690.79
601.198	18060.01
601.395	18148.08
601.591	18131.69
601.787	18428.65
601.984	18246.38
602.18	18461.41
602.376	18066.16
602.572	17892.08
602.769	18025.2
602.965	17640.18
603.161	17748.72
603.357	17863.41
603.553	17523.44
603.75	17621.75
603.946	17740.53
604.142	17869.55
604.338	17531.64
604.534	17615.6
604.73	17189.63
604.926	17165.05
605.122	17298.17
605.318	16993.02
605.514	17031.93
605.71	17117.95
605.906	17019.64
606.102	16950.01
606.298	17089.28
606.494	16730.88
606.69	16847.61
606.886	17097.47
607.082	16734.98
607.278	16810.75
607.474	16800.51
607.67	16839.42
607.866	16487.17
608.062	16784.13
608.257	16532.23
608.453	16413.45
608.649	16585.47
608.845	16354.05
609.041	16255.75
609.236	16444.17
609.432	16548.61
609.628	16325.38
609.824	16237.32
610.019	16423.69
610.215	16141.07
610.411	16290.57
610.606	15856.4
610.802	16100.11
610.998	15862.54
611.193	16046.86
611.389	15823.63
611.584	15725.33
611.78	15874.83
611.976	15989.52
612.171	15969.04
612.367	15710.99
612.562	15917.84
612.758	15706.9
612.953	15500.05
613.149	15743.76
613.344	15422.23
613.539	15790.86
613.735	15635.22
613.93	15479.57
614.126	15545.11
614.321	15420.18
614.517	15498
614.712	15450.9
614.907	15381.27
615.103	15250.2
615.298	15305.49
615.493	15485.72
615.688	15342.36
615.884	15262.49
616.079	15074.07
616.274	15375.13
616.47	15051.55
616.665	15037.21
616.86	14969.63
617.055	14912.28
617.25	15168.28
617.445	15108.89
617.641	14637.86
617.836	15059.74
618.031	14701.34
618.226	14959.39
618.421	14572.32
618.616	14891.8
618.811	14631.71
619.006	14730.02
619.201	14676.77
619.396	14600.99
619.591	14365.48
619.786	14674.72
619.981	14011.18
620.176	14195.5
620.371	14113.58
620.566	14076.71
620.761	14052.14
620.956	14035.75
621.151	13826.86
621.346	13925.16
621.541	13595.44
621.735	14002.99
621.93	13597.49
622.125	13411.12
622.32	13425.46
622.515	13499.19
622.709	13366.07
622.904	13441.84
623.099	13124.41
623.294	13312.82
623.488	12999.48
623.683	13040.44
623.878	13196.09
624.072	13044.54
624.267	12833.6
624.462	12776.25
624.656	12636.99
624.851	12530.5
625.046	12618.56
625.24	12475.2
625.435	12419.91
625.629	12383.04
625.824	12491.59
626.018	12092.23
626.213	12372.8
626.407	12262.21
626.602	11946.83
626.796	12151.62
626.991	12028.74
627.185	11899.72
627.38	11963.21
627.574	11924.3
627.768	11596.62
627.963	11709.26
628.157	11610.96
628.352	11451.22
628.546	11303.76
628.74	11332.44
628.935	11256.66
629.129	11311.96
629.323	11117.4
629.517	11240.28
629.712	11115.35
629.906	11017.05
630.1	10908.51
630.294	10808.16
630.489	10888.03
630.683	10775.39
630.877	10580.83
631.071	10570.59
631.265	10683.23
631.459	10650.46
631.653	10550.11
631.848	10433.38
632.042	10357.6
632.236	10308.45
632.43	10357.6
632.624	10369.89
632.818	10285.92
633.012	10253.16
633.206	10109.8
633.4	10242.92
633.594	9804.65
633.788	10120.04
633.982	9870.19
634.176	10025.83
634.369	9743.21
634.563	9751.4
634.757	9657.2
634.951	9579.37
635.145	9589.61
635.339	9663.34
635.533	9464.69
635.726	9395.06
635.92	9278.32
636.114	9255.79
636.308	9161.59
636.501	9350
636.695	9094.01
636.889	9147.25
637.083	8940.41
637.276	9030.52
637.47	9034.61
637.664	8924.02
637.857	8964.98
638.051	8829.82
638.244	8872.82
638.438	8895.35
638.632	8926.07
638.825	8700.8
639.019	8506.24
639.212	8563.58
639.406	8733.56
639.599	8452.99
639.793	8334.21
639.986	8350.59
640.18	8346.5
640.373	8194.95
640.567	8342.4
640.76	8223.62
640.954	8039.3
641.147	8096.64
641.34	8096.64
641.534	7967.62
641.727	8143.75
641.92	8045.45
642.114	7941
642.307	7777.16
642.5	7801.74
642.694	7691.15
642.887	7637.9
643.08	7758.73
643.273	7668.62
643.467	7416.72
643.66	7549.84
643.853	7465.87
644.046	7404.43
644.239	7273.36
644.432	7252.88
644.626	7465.87
644.819	7449.49
645.012	7252.88
645.205	7146.39
645.398	7297.94
645.591	7216.02
645.784	7080.85
645.977	6957.97
646.17	6964.12
646.363	7037.84
646.556	6894.49
646.749	6859.67
646.942	6867.86
647.135	6777.75
647.328	6869.91
647.521	6826.9
647.714	6560.67
647.907	6687.64
648.099	6658.97
648.292	6695.83
648.485	6605.72
648.678	6480.8
648.871	6509.47
649.064	6335.39
649.256	6460.32
649.449	6523.8
649.642	6523.8
649.835	6253.47
650.027	6425.5
650.22	6267.81
650.413	6128.55
650.605	6099.87
650.798	6024.1
650.991	6026.15
651.183	6058.92
651.376	6007.72
651.568	6036.39
651.761	5901.22
651.954	5927.85
652.146	5874.6
652.339	5952.42
652.531	6001.57
652.724	5837.73
652.916	5647.27
653.109	5868.45
653.301	5782.44
653.494	5657.51
653.686	5561.26
653.879	5747.62
654.071	5581.74
654.263	5581.74
654.456	5667.75
654.648	5612.46
654.84	5569.45
655.033	5483.44
655.225	5516.2
655.417	5364.65
655.61	5462.96
655.802	5356.46
655.994	5274.54
656.186	5381.04
656.379	5348.27
656.571	5286.83
656.763	5344.17
656.955	5016.5
657.148	5192.62
657.34	5110.71
657.532	5028.79
657.724	5188.53
657.916	5100.47
658.108	4942.77
658.3	5106.61
658.492	4920.24
658.684	4811.7
658.876	4946.87
659.068	4842.42
659.26	4770.74
659.452	4869.05
659.644	4770.74
659.836	4750.26
660.028	4836.28
660.22	4711.35
660.412	4574.14
660.604	4725.69
660.796	4772.79
660.988	4527.03
661.18	4490.17
661.372	4385.73
661.563	4508.6
661.755	4576.19
661.947	4438.97
662.139	4414.4
662.331	4389.82
662.522	4262.85
662.714	4320.19
662.906	4232.13
663.097	4273.09
663.289	4201.41
663.481	4246.46
663.673	4303.81
663.864	4068.29
664.056	4139.97
664.247	4256.7
664.439	4168.64
664.631	4182.98
664.822	4172.74
665.014	4133.82
665.205	4107.2
665.397	4049.86
665.588	3904.45
665.78	3992.52
665.971	4000.71
666.163	3916.74
666.354	4035.52
666.546	3779.53
666.737	3877.83
666.929	3869.64
667.12	3746.76
667.311	3879.88
667.503	3898.31
667.694	3775.43
667.885	3765.19
668.077	3820.49
668.268	3650.5
668.459	3697.61
668.651	3621.83
668.842	3660.74
669.033	3730.38
669.224	3664.84
669.416	3640.26
669.607	3642.31
669.798	3427.28
669.989	3503.05
670.18	3521.48
670.371	3423.18
670.563	3576.78
670.754	3558.35
670.945	3421.13
671.136	3482.57
671.327	3394.51
671.518	3505.1
671.709	3443.66
671.9	3541.96
672.091	3367.88
672.282	3326.93
672.473	3234.77
672.664	3267.53
672.855	3322.83
673.046	3337.17
673.237	3357.64
673.428	3335.12
673.619	3197.9
673.809	3195.86
674	3382.22
674.191	3300.3
674.382	3167.18
674.573	3193.81
674.764	3234.77
674.954	3222.48
675.145	3279.82
675.336	3093.46
675.527	3093.46
675.717	3255.25
675.908	3156.94
676.099	3101.65
676.289	3009.49
676.48	3079.12
676.671	3034.07
676.861	3132.37
677.052	2876.37
677.243	3062.74
677.433	2964.43
677.624	3111.89
677.814	2999.25
678.005	2923.48
678.195	3001.3
678.386	3046.35
678.576	2898.9
678.767	2923.48
678.957	2927.57
679.148	2997.2
679.338	2935.76
679.529	2946
679.719	2903
679.909	3036.11
680.1	2907.09
680.29	2927.57
680.481	2753.49
680.671	2935.76
680.861	2868.18
681.052	2937.81
681.242	2857.94
681.432	2962.39
681.622	2800.6
681.813	2802.65
682.003	2829.27
682.193	2733.01
682.383	2845.65
682.573	2773.97
682.764	2878.42
682.954	2780.12
683.144	2812.89
683.334	2739.16
683.524	2751.45
683.714	2769.88
683.904	2763.73
684.094	2769.88
684.284	2706.39
684.474	2874.32
684.664	2722.77
684.854	2749.4
685.044	2788.31
685.234	2763.73
685.424	2708.44
685.614	2632.66
685.804	2751.45
685.994	2683.86
686.184	2685.91
686.374	2632.66
686.564	2673.62
686.753	2579.42
686.943	2583.51
687.133	2477.02
687.323	2579.42
687.513	2706.39
687.702	2526.17
687.892	2565.08
688.082	2509.79
688.272	2526.17
688.461	2558.94
688.651	2558.94
688.841	2585.56
689.03	2477.02
689.22	2534.36
689.41	2487.26
689.599	2446.3
689.789	2395.1
689.979	2452.44
690.168	2448.35
690.358	2464.73
690.547	2395.1
690.737	2403.29
690.926	2431.96
691.116	2462.68
691.305	2466.78
691.495	2354.14
691.684	2395.1
691.874	2325.47
692.063	2436.06
692.252	2456.54
692.442	2509.79
692.631	2241.5
692.82	2356.19
693.01	2130.91
693.199	2231.26
693.388	2259.93
693.578	2243.55
693.767	2300.89
693.956	2216.93
694.146	2206.69
694.335	2302.94
694.524	2253.79
694.713	2348
694.902	2216.93
695.092	2233.31
695.281	2143.2
695.47	2167.77
695.659	2200.54
695.848	2321.37
696.037	2153.44
696.226	2229.21
696.415	2280.41
696.604	2190.3
696.793	2251.74
696.982	2157.54
697.171	2231.26
697.36	2239.45
697.549	2116.58
697.738	2196.45
697.927	2034.66
698.116	2061.28
698.305	2128.86
698.494	2038.75
698.683	2192.35
698.872	2225.12
699.061	2149.34
699.25	2132.96
699.438	2046.94
699.627	2057.18
699.816	2169.82
700.005	2053.09
700.193	2108.38
700.382	2085.86
700.571	2100.19
700.76	2120.67
700.948	2061.28
701.137	2083.81
701.326	2069.47
701.514	1946.59
701.703	2069.47
701.892	2010.08
702.08	2175.97
702.269	2053.09
702.457	1969.12
702.646	2094.05
702.834	2024.42
703.023	2042.85
703.212	2042.85
703.4	2026.47
703.589	1924.07
703.777	2034.66
703.965	2067.42
704.154	2003.94
704.342	1977.31
704.531	2069.47
704.719	1915.87
704.907	2016.23
705.096	2003.94
705.284	1895.4
705.472	2173.92
705.661	2003.94
705.849	2059.23
706.037	1989.6
706.226	1919.97
706.414	1977.31
706.602	1932.26
706.79	2034.66
706.979	1981.41
707.167	1876.96
707.355	1973.22
707.543	2036.7
707.731	1913.83
707.919	2022.37
708.107	1922.02
708.296	2053.09
708.484	1866.72
708.672	1969.12
708.86	1946.59
709.048	1995.75
709.236	1911.78
709.424	1932.26
709.612	1952.74
709.8	1944.55
709.988	1790.95
710.176	2020.32
710.364	2005.99
710.551	1913.83
710.739	1907.68
710.927	1934.31
711.115	1901.54
711.303	1952.74
711.491	1954.79
711.679	1924.07
711.866	1901.54
712.054	1872.87
712.242	2061.28
712.43	1881.06
712.617	1905.63
712.805	1993.7
712.993	1864.68
713.181	1813.48
713.368	1819.62
713.556	1936.35
713.744	1909.73
713.931	1928.16
714.119	1893.35
714.306	1919.97
714.494	1997.79
714.682	1862.63
714.869	1934.31
715.057	1831.91
715.244	1817.57
715.432	1956.83
715.619	1840.1
715.807	1862.63
715.994	1897.44
716.182	1876.96
716.369	1897.44
716.556	1977.31
716.744	1854.44
716.931	1952.74
717.119	2016.23
717.306	1885.16
717.493	1854.44
717.681	1913.83
717.868	1938.4
718.055	1969.12
718.242	1887.2
718.43	1977.31
718.617	1821.67
718.804	1862.63
718.991	1977.31
719.179	1928.16
719.366	1915.87
719.553	1915.87
719.74	1862.63
719.927	1819.62
720.114	1942.5
720.301	1993.7
720.488	1891.3
720.676	1891.3
720.863	1987.55
721.05	1911.78
721.237	1780.71
721.424	1862.63
721.611	1887.2
721.798	1870.82
721.985	1922.02
722.172	1846.24
722.358	1866.72
722.545	1836
722.732	1833.96
722.919	1856.48
723.106	1864.68
723.293	1891.3
723.48	1936.35
723.667	1840.1
723.853	1874.92
724.04	1864.68
724.227	1911.78
724.414	1846.24
724.6	1905.63
724.787	1780.71
724.974	2005.99
725.161	1919.97
725.347	1922.02
725.534	1827.81
725.72	1901.54
725.907	1952.74
726.094	1936.35
726.28	1782.76
726.467	1766.37
726.653	1862.63
726.84	1989.6
727.027	1952.74
727.213	1846.24
727.4	1922.02
727.586	1879.01
727.773	1879.01
727.959	1840.1
728.145	1862.63
728.332	1778.66
728.518	1807.33
728.705	1815.52
728.891	1903.59
729.077	1922.02
729.264	1833.96
729.45	1842.15
729.636	1831.91
729.823	1870.82
730.009	1870.82
730.195	1795.04
730.382	1881.06
730.568	1706.98
730.754	1915.87
730.94	1825.76
731.126	1823.72
731.313	1879.01
731.499	1864.68
731.685	1879.01
731.871	1782.76
732.057	1903.59
732.243	1747.94
732.429	1891.3
732.615	2003.94
732.801	1854.44
732.987	1657.83
733.173	1805.28
733.359	1889.25
733.545	1838.05
733.731	1731.56
733.917	1836
734.103	1786.85
734.289	1938.4
734.475	1764.33
734.661	1965.03
734.847	1743.85
735.033	1825.76
735.219	1817.57
735.404	1840.1
735.59	1795.04
735.776	1756.13
735.962	1872.87
736.148	1809.38
736.333	1911.78
736.519	1784.8
736.705	1702.89
736.89	1721.32
737.076	1747.94
737.262	1719.27
737.447	1790.95
737.633	1772.52
737.819	1780.71
738.004	1739.75
738.19	1696.74
738.375	1641.45
738.561	1721.32
738.747	1731.56
738.932	1758.18
739.118	1813.48
739.303	1780.71
739.489	1813.48
739.674	1713.13
739.859	1717.22
740.045	1747.94
740.23	1733.61
740.416	1725.41
740.601	1731.56
740.786	1643.49
740.972	1592.3
741.157	1717.22
741.342	1631.21
741.528	1608.68
741.713	1625.06
741.898	1616.87
742.084	1606.63
742.269	1666.02
742.454	1729.51
742.639	1616.87
742.824	1678.31
743.01	1719.27
743.195	1600.49
743.38	1623.02
743.565	1682.41
743.75	1623.02
743.935	1588.2
744.12	1741.8
744.305	1526.76
744.49	1518.57
744.675	1510.38
744.86	1514.47
745.045	1645.54
745.23	1616.87
745.415	1590.25
745.6	1559.53
745.785	1436.65
745.97	1553.38
746.155	1493.99
746.34	1500.14
746.525	1559.53
746.71	1577.96
746.895	1545.19
747.079	1618.92
747.264	1502.19
747.449	1512.42
747.634	1584.1
747.819	1590.25
748.003	1401.83
748.188	1338.35
748.373	1407.98
748.557	1428.46
748.742	1407.98
748.927	1385.45
749.111	1412.07
749.296	1389.55
749.481	1498.09
749.665	1332.2
749.85	1354.73
750.034	1358.83
750.219	1362.92
750.404	1348.59
750.588	1364.97
750.773	1281
750.957	1362.92
751.141	1235.95
751.326	1330.16
751.51	1227.76
751.695	1321.96
751.879	1358.83
752.064	1242.09
752.248	1240.05
752.432	1207.28
752.617	1256.43
752.801	1305.58
752.985	1274.86
753.17	1201.13
753.354	1133.55
753.538	1203.18
753.722	1133.55
753.907	1215.47
754.091	1145.84
754.275	1135.6
754.459	1184.75
754.643	1086.45
754.828	1291.24
755.012	1137.65
755.196	1207.28
755.38	1063.92
755.564	1141.74
755.748	1108.98
755.932	1084.4
756.116	1065.97
756.3	1057.78
756.484	1094.64
756.668	1061.87
756.852	1031.15
757.036	1063.92
757.22	1068.02
757.404	1004.53
757.588	1004.53
757.772	1039.34
757.956	1086.45
758.14	1022.96
758.323	912.37
758.507	1045.49
758.691	1045.49
758.875	1022.96
759.059	1010.67
759.242	936.95
759.426	1010.67
759.61	949.23
759.794	977.91
759.977	916.47
760.161	998.38
760.345	922.61
760.528	879.6
760.712	957.43
760.895	1051.63
761.079	943.09
761.263	920.56
761.446	912.37
761.63	898.03
761.813	928.75
761.997	848.88
762.18	920.56
762.364	938.99
762.547	846.84
762.731	941.04
762.914	879.6
763.098	887.79
763.281	887.79
763.464	904.18
763.648	783.35
763.831	846.84
764.015	908.27
764.198	908.27
764.381	822.26
764.564	836.6
764.748	807.92
764.931	947.19
765.114	752.63
765.297	793.59
765.481	777.2
765.664	846.84
765.847	775.16
766.03	887.79
766.213	785.4
766.397	832.5
766.58	742.39
766.763	836.6
766.946	781.3
767.129	775.16
767.312	764.92
767.495	785.4
767.678	744.44
767.861	742.39
768.044	789.49
768.227	744.44
768.41	871.41
768.593	809.97
768.776	777.2
768.959	715.77
769.142	797.68
769.324	842.74
769.507	685.05
769.69	785.4
769.873	734.2
770.056	752.63
770.239	769.01
770.421	701.43
770.604	726
770.787	756.72
770.97	717.81
771.152	699.38
771.335	715.77
771.518	695.29
771.7	775.16
771.883	736.24
772.066	723.96
772.248	611.32
772.431	750.58
772.613	695.29
772.796	713.72
772.978	668.66
773.161	769.01
773.343	748.53
773.526	644.09
773.708	621.56
773.891	654.33
774.073	660.47
774.256	793.59
774.438	695.29
774.621	637.94
774.803	703.48
774.985	627.7
775.168	644.09
775.35	676.85
775.532	660.47
775.715	611.32
775.897	527.35
776.079	642.04
776.261	685.05
776.444	601.08
776.626	596.98
776.808	631.8
776.99	517.11
777.173	568.31
777.355	480.25
777.537	613.37
777.719	609.27
777.901	582.65
778.083	547.83
778.265	537.59
778.447	596.98
778.629	556.02
778.811	613.37
778.993	519.16
779.175	594.93
779.357	562.17
779.539	418.81
779.721	515.06
779.903	592.89
780.085	525.3
780.267	533.5
780.449	578.55
780.631	515.06
780.812	549.88
780.994	449.53
781.176	472.06
781.358	463.86
781.54	420.86
781.721	519.16
781.903	502.78
782.085	529.4
782.267	437.24
782.448	404.47
782.63	502.78
782.812	463.86
782.993	424.95
783.175	490.49
783.357	502.78
783.538	494.58
783.72	431.1
783.901	515.06
784.083	521.21
784.264	465.91
784.446	443.39
784.627	508.92
784.809	373.75
784.99	433.15
785.172	429.05
785.353	461.82
785.535	408.57
785.716	504.82
785.897	412.67
786.079	396.28
786.26	429.05
786.441	357.37
786.623	363.51
786.804	314.36
786.985	355.32
787.167	386.04
787.348	336.89
787.529	383.99
787.71	480.25
787.891	375.8
788.073	361.47
788.254	275.45
788.435	381.95
788.616	363.51
788.797	314.36
788.978	300.03
789.159	291.84
789.34	441.34
789.522	334.84
789.703	291.84
789.884	338.94
790.065	412.67
790.246	300.03
790.427	236.54
790.607	326.65
790.788	304.12
790.969	254.97
791.15	355.32
791.331	310.27
791.512	365.56
791.693	293.88
791.874	263.16
792.054	375.8
792.235	347.13
792.416	246.78
792.597	291.84
792.778	236.54
792.958	347.13
793.139	252.92
793.32	240.64
793.5	332.79
793.681	365.56
793.862	234.49
794.042	281.6
794.223	316.41
794.404	267.26
794.584	314.36
794.765	302.08
794.945	248.83
795.126	257.02
795.306	236.54
795.487	261.12
795.667	281.6
795.848	304.12
796.028	328.7
796.209	267.26
796.389	304.12
796.57	265.21
796.75	293.88
796.93	340.99
797.111	297.98
797.291	224.25
797.471	285.69
797.652	220.16
797.832	293.88
798.012	242.68
798.192	214.01
798.373	193.53
798.553	209.92
798.733	293.88
798.913	183.29
799.093	193.53
799.274	283.64
799.454	257.02
799.634	281.6
799.814	257.02
799.994	193.53
800.174	293.88
800.354	259.07
800.534	179.2
800.714	216.06
800.894	250.88
801.074	207.87
801.254	216.06
801.434	306.17
801.614	207.87
801.794	207.87
801.974	723.96
802.154	232.44
802.334	218.11
802.514	125.95
802.693	265.21
802.873	150.53
803.053	279.55
803.233	195.58
803.413	160.77
803.592	224.25
803.772	113.66
803.952	142.33
804.131	113.66
804.311	195.58
804.491	226.3
804.67	130.05
804.85	195.58
805.03	261.12
805.209	232.44
805.389	164.86
805.568	216.06
805.748	128
805.928	216.06
806.107	189.44
806.287	107.52
806.466	209.92
806.646	259.07
806.825	162.81
807.004	211.96
807.184	160.77
807.363	191.49
807.543	193.53
807.722	154.62
807.901	187.39
808.081	201.72
808.26	62.46
808.439	201.72
808.619	117.76
808.798	158.72
808.977	171.01
809.156	248.83
809.336	146.43
809.515	166.91
809.694	158.72
809.873	113.66
810.052	154.62
810.231	134.14
810.411	179.2
810.59	111.61
810.769	68.61
810.948	218.11
811.127	123.9
811.306	117.76
811.485	52.22
811.664	201.72
811.843	158.72
812.022	144.38
812.201	148.48
812.38	125.95
812.559	130.05
812.737	152.57
812.916	78.85
813.095	158.72
813.274	72.7
813.453	166.91
813.632	173.05
813.811	130.05
813.989	50.18
814.168	136.19
814.347	31.74
814.526	138.24
814.704	232.44
814.883	103.42
815.062	146.43
815.24	179.2
815.419	50.18
815.598	125.95
815.776	142.33
815.955	134.14
816.133	95.23
816.312	228.35
816.49	74.75
816.669	144.38
816.847	216.06
817.026	134.14
817.204	185.34
817.383	93.18
817.561	76.8
817.74	175.1
817.918	150.53
818.097	89.09
818.275	123.9
818.453	138.24
818.632	78.85
818.81	70.65
818.988	84.99
819.167	168.96
819.345	148.48
819.523	146.43
819.701	72.7
819.879	99.33
820.058	185.34
820.236	158.72
820.414	93.18
820.592	105.47
820.77	103.42
820.948	158.72
821.127	52.22
821.305	136.19
821.483	64.51
821.661	101.37
821.839	87.04
822.017	134.14
822.195	134.14
822.373	101.37
822.551	56.32
822.729	111.61
822.907	60.42
823.085	93.18
823.262	144.38
823.44	31.74
823.618	148.48
823.796	-21.5
823.974	68.61
824.152	37.89
824.329	84.99
824.507	60.42
824.685	125.95
824.863	105.47
825.04	60.42
825.218	109.57
825.396	101.37
825.574	119.81
825.751	37.89
825.929	84.99
826.107	99.33
826.284	103.42
826.462	78.85
826.639	21.5
826.817	101.37
826.994	68.61
827.172	44.03
827.349	80.89
827.527	44.03
827.704	103.42
827.882	117.76
828.059	29.7
828.237	87.04
828.414	62.46
828.591	91.13
828.769	89.09
828.946	21.5
829.124	68.61
829.301	117.76
829.478	84.99
829.655	76.8
829.833	109.57
830.01	-13.31
830.187	78.85
830.364	103.42
830.542	87.04
830.719	119.81
830.896	197.63
831.073	97.28
831.25	111.61
831.427	125.95
831.604	125.95
831.782	138.24
831.959	52.22
832.136	78.85
832.313	101.37
832.49	91.13
832.667	-3.07
832.844	-3.07
833.021	103.42
833.198	54.27
833.374	48.13
833.551	84.99
833.728	95.23
833.905	123.9
834.082	5.12
834.259	64.51
834.436	89.09
834.612	37.89
834.789	101.37
834.966	62.46
835.143	-1.02
835.319	72.7
835.496	113.66
835.673	52.22
835.85	52.22
836.026	113.66
836.203	136.19
836.38	46.08
836.556	56.32
836.733	76.8
836.909	111.61
837.086	15.36
837.262	7.17
837.439	91.13
837.616	11.26
837.792	-50.18
837.968	87.04
838.145	93.18
838.321	44.03
838.498	11.26
838.674	82.94
838.851	66.56
839.027	70.65
839.203	37.89
839.38	84.99
839.556	128
839.732	35.84
839.909	60.42
840.085	105.47
840.261	15.36
840.437	19.46
840.614	41.98
840.79	29.7
840.966	125.95
841.142	72.7
841.318	-3.07
841.494	52.22
841.671	-9.22
841.847	60.42
842.023	54.27
842.199	89.09
842.375	52.22
842.551	39.94
842.727	50.18
842.903	121.85
843.079	35.84
843.255	29.7
843.431	35.84
843.607	7.17
843.783	19.46
843.959	48.13
844.134	78.85
844.31	84.99
844.486	-21.5
844.662	125.95
844.838	33.79
845.013	54.27
845.189	54.27
845.365	68.61
845.541	68.61
845.716	78.85
845.892	84.99
846.068	64.51
846.244	-17.41
846.419	66.56
846.595	23.55
846.77	-44.03
846.946	29.7
847.122	70.65
847.297	35.84
847.473	35.84
847.648	-70.65
847.824	3.07
847.999	-1.02
848.175	-5.12
848.35	15.36
848.526	82.94
848.701	50.18
848.876	84.99
849.052	101.37
849.227	54.27
849.403	64.51
849.578	7.17
849.753	84.99
849.929	25.6
850.104	-58.37
850.279	70.65
850.454	9.22
850.63	9.22
850.805	89.09
850.98	-17.41
851.155	5.12
851.33	-5.12
851.505	-17.41
851.681	64.51
851.856	-13.31
852.031	52.22
852.206	17.41
852.381	11.26
852.556	-7.17
852.731	-46.08
852.906	19.46
853.081	19.46
853.256	76.8
853.431	11.26
853.606	19.46
853.781	95.23
853.956	19.46
854.131	-33.79
854.305	15.36
854.48	101.37
854.655	27.65
854.83	62.46
855.005	60.42
855.18	7.17
855.354	-3.07
855.529	21.5
855.704	7.17
855.879	87.04
856.053	97.28
856.228	27.65
856.403	-25.6
856.577	123.9
856.752	13.31
856.926	29.7
857.101	35.84
857.276	82.94
857.45	25.6
857.625	95.23
857.799	17.41
857.974	76.8
858.148	-33.79
858.323	89.09
858.497	-3.07
858.672	-29.7
858.846	13.31
859.02	80.89
859.195	23.55
859.369	27.65
859.543	-5.12
859.718	15.36
859.892	76.8
860.066	37.89
860.241	27.65
860.415	-1.02
860.589	21.5
860.763	46.08
860.938	-3.07
861.112	27.65
861.286	-9.22
861.46	136.19
861.634	-29.7
861.808	101.37
861.982	60.42
862.157	-23.55
862.331	11.26
862.505	-60.42
862.679	-54.27
862.853	11.26
863.027	19.46
863.201	70.65
863.375	64.51
863.549	-1.02
863.722	95.23
863.896	82.94
864.07	-35.84
864.244	31.74
864.418	97.28
864.592	46.08
864.766	-9.22
864.939	87.04
865.113	13.31
865.287	95.23
865.461	23.55
865.634	87.04
865.808	-17.41
865.982	3.07
866.156	-48.13
866.329	21.5
866.503	60.42
866.676	-3.07
866.85	-5.12
867.024	27.65
867.197	21.5
867.371	60.42
867.544	84.99
867.718	109.57
867.891	64.51
868.065	21.5
868.238	15.36
868.412	50.18
868.585	7.17
868.759	44.03
868.932	35.84
869.105	31.74
869.279	23.55
869.452	11.26
869.625	19.46
869.799	-5.12
869.972	3.07
870.145	29.7
870.319	-101.37
870.492	-35.84
870.665	7.17
870.838	-7.17
871.011	76.8
871.185	-58.37
871.358	52.22
871.531	21.5
871.704	-1.02
871.877	68.61
872.05	72.7
872.223	31.74
872.396	84.99
872.569	64.51
872.742	-23.55
872.915	19.46
873.088	27.65
873.261	-3.07
873.434	58.37
873.607	17.41
873.78	7.17
873.953	-3.07
874.126	-19.46
874.299	9.22
874.471	60.42
874.644	13.31
874.817	17.41
874.99	-5.12
875.163	-37.89
875.335	70.65
875.508	27.65
875.681	-76.8
875.853	-7.17
876.026	13.31
876.199	91.13
876.371	27.65
876.544	19.46
876.717	37.89
876.889	5.12
877.062	72.7
877.234	7.17
877.407	-17.41
877.579	11.26
877.752	31.74
877.924	60.42
878.097	-1.02
878.269	15.36
878.442	21.5
878.614	27.65
878.786	52.22
878.959	-11.26
879.131	-46.08
879.303	-119.81
879.476	13.31
879.648	29.7
879.82	37.89
879.993	21.5
880.165	-35.84
880.337	-76.8
880.509	17.41
880.681	-64.51
880.854	5.12
881.026	37.89
881.198	144.38
881.37	17.41
881.542	60.42
881.714	44.03
881.886	72.7
882.058	35.84
882.23	-27.65
882.402	-27.65
882.574	27.65
882.746	-15.36
882.918	27.65
883.09	31.74
883.262	52.22
883.434	-25.6
883.606	3.07
883.778	60.42
883.95	60.42
884.122	-25.6
884.293	68.61
884.465	56.32
884.637	25.6
884.809	52.22
884.98	19.46
885.152	44.03
885.324	27.65
885.496	29.7
885.667	48.13
885.839	64.51
886.011	19.46
886.182	-5.12
886.354	54.27
886.525	46.08
886.697	31.74
886.869	-13.31
887.04	-9.22
887.212	-33.79
887.383	54.27
887.555	64.51
887.726	-9.22
887.897	-87.04
888.069	-27.65
888.24	-9.22
888.412	-44.03
888.583	54.27
888.754	58.37
888.926	-13.31
889.097	64.51
889.268	11.26
889.44	52.22
889.611	31.74
889.782	-66.56
889.953	-72.7
890.125	44.03
890.296	-56.32
890.467	19.46
890.638	-29.7
890.809	-21.5
890.98	-35.84
891.151	-1.02
891.323	27.65
891.494	68.61
891.665	52.22
891.836	11.26
892.007	35.84
892.178	-35.84
892.349	-9.22
892.52	-66.56
892.691	11.26
892.862	27.65
893.032	-33.79
893.203	27.65
893.374	-5.12
893.545	13.31
893.716	-37.89
893.887	-70.65
894.057	-9.22
894.228	44.03
894.399	-62.46
894.57	35.84
894.74	19.46
894.911	60.42
895.082	15.36
895.253	70.65
895.423	-54.27
895.594	31.74
895.764	-68.61
895.935	68.61
896.106	-33.79
896.276	-1.02
896.447	-9.22
896.617	19.46
896.788	-21.5
896.958	-19.46
897.129	3.07
897.299	7.17
897.47	68.61
897.64	76.8
897.81	7.17
897.981	1.02
898.151	-54.27
898.322	5.12
898.492	80.89
898.662	-50.18
898.832	-37.89
899.003	5.12
899.173	-54.27
899.343	-44.03
899.513	-35.84
