Data from USB4F104151__257__14-45-58-601.txt Node

Date: Thu Mar 13 14:45:58 EDT 2025
User: louis
Spectrometer: USB4F10415
Trigger mode: 4
Integration Time (sec): 2.000000E-2
Scans to average: 1
Electric dark correction enabled: true
Nonlinearity correction enabled: false
Boxcar width: 0
XAxis mode: Wavelengths
Number of Pixels in Spectrum: 3648
>>>>>Begin Spectral Data<<<<<
178.204	-99.84
178.424	-99.84
178.644	-99.84
178.864	-85.5
179.084	-134.65
179.304	-77.31
179.524	-44.54
179.744	-28.16
179.964	41.47
180.184	-3.58
180.404	70.14
180.624	53.76
180.844	-7.68
181.064	-19.97
181.283	-1.54
181.503	37.38
181.723	-19.97
181.943	-30.21
182.163	92.67
182.383	8.7
182.602	41.47
182.822	47.62
183.042	57.86
183.262	20.99
183.482	16.9
183.701	49.66
183.921	10.75
184.141	-24.06
184.361	168.45
184.58	45.57
184.8	57.86
185.02	-36.35
185.239	74.24
185.459	-3.58
185.679	0.51
185.898	25.09
186.118	25.09
186.338	-9.73
186.557	-1.54
186.777	-69.12
186.997	29.18
187.216	6.66
187.436	78.33
187.655	39.42
187.875	104.96
188.095	-17.92
188.314	25.09
188.534	55.81
188.753	45.57
188.973	55.81
189.192	53.76
189.412	6.66
189.631	90.62
189.851	0.51
190.07	80.38
190.29	20.99
190.509	20.99
190.729	29.18
190.948	53.76
191.168	111.1
191.387	70.14
191.607	-26.11
191.826	-7.68
192.045	55.81
192.265	-19.97
192.484	25.09
192.704	94.72
192.923	64
193.142	64
193.362	61.95
193.581	80.38
193.8	61.95
194.02	12.8
194.239	4.61
194.458	16.9
194.678	57.86
194.897	25.09
195.116	35.33
195.335	8.7
195.555	29.18
195.774	-44.54
195.993	66.05
196.212	4.61
196.432	-44.54
196.651	64
196.87	-38.4
197.089	29.18
197.308	8.7
197.528	84.48
197.747	-36.35
197.966	53.76
198.185	80.38
198.404	98.81
198.623	78.33
198.842	45.57
199.062	41.47
199.281	152.06
199.5	18.94
199.719	66.05
199.938	20.99
200.157	37.38
200.376	55.81
200.595	-48.64
200.814	-17.92
201.033	104.96
201.252	51.71
201.471	45.57
201.69	49.66
201.909	55.81
202.128	47.62
202.347	66.05
202.566	10.75
202.785	-44.54
203.004	68.09
203.223	119.29
203.442	-26.11
203.661	61.95
203.879	20.99
204.098	74.24
204.317	-22.02
204.536	-15.87
204.755	70.14
204.974	27.14
205.193	57.86
205.411	20.99
205.63	-44.54
205.849	49.66
206.068	-32.26
206.287	6.66
206.505	47.62
206.724	113.15
206.943	41.47
207.162	-26.11
207.381	-1.54
207.599	53.76
207.818	37.38
208.037	0.51
208.255	70.14
208.474	94.72
208.693	92.67
208.911	27.14
209.13	80.38
209.349	29.18
209.567	-22.02
209.786	78.33
210.005	119.29
210.223	102.91
210.442	20.99
210.661	29.18
210.879	-13.82
211.098	-34.3
211.316	43.52
211.535	66.05
211.753	8.7
211.972	16.9
212.191	-9.73
212.409	61.95
212.628	74.24
212.846	16.9
213.065	33.28
213.283	76.29
213.502	20.99
213.72	18.94
213.938	-7.68
214.157	59.9
214.375	25.09
214.594	-15.87
214.812	72.19
215.031	70.14
215.249	12.8
215.467	70.14
215.686	39.42
215.904	29.18
216.122	14.85
216.341	74.24
216.559	23.04
216.778	-3.58
216.996	61.95
217.214	-26.11
217.432	59.9
217.651	-1.54
217.869	20.99
218.087	53.76
218.306	4.61
218.524	72.19
218.742	-15.87
218.96	29.18
219.179	-19.97
219.397	57.86
219.615	72.19
219.833	45.57
220.051	-50.69
220.27	119.29
220.488	33.28
220.706	-50.69
220.924	-28.16
221.142	61.95
221.36	43.52
221.578	80.38
221.796	35.33
222.015	0.51
222.233	51.71
222.451	57.86
222.669	-19.97
222.887	53.76
223.105	31.23
223.323	0.51
223.541	-7.68
223.759	86.53
223.977	-34.3
224.195	107.01
224.413	8.7
224.631	123.39
224.849	-28.16
225.067	141.82
225.285	29.18
225.503	45.57
225.721	-38.4
225.939	74.24
226.157	-1.54
226.375	20.99
226.592	-7.68
226.81	-52.74
227.028	115.2
227.246	86.53
227.464	98.81
227.682	53.76
227.9	59.9
228.117	-26.11
228.335	70.14
228.553	70.14
228.771	47.62
228.989	78.33
229.206	10.75
229.424	53.76
229.642	20.99
229.86	33.28
230.077	39.42
230.295	-32.26
230.513	61.95
230.731	-15.87
230.948	143.87
231.166	82.43
231.384	-19.97
231.601	29.18
231.819	82.43
232.037	78.33
232.254	8.7
232.472	16.9
232.689	-5.63
232.907	49.66
233.125	37.38
233.342	66.05
233.56	-44.54
233.777	39.42
233.995	33.28
234.213	55.81
234.43	29.18
234.648	-65.02
234.865	-1.54
235.083	76.29
235.3	47.62
235.518	-24.06
235.735	31.23
235.953	109.05
236.17	8.7
236.388	76.29
236.605	61.95
236.822	4.61
237.04	102.91
237.257	45.57
237.475	-11.78
237.692	12.8
237.909	-13.82
238.127	80.38
238.344	35.33
238.562	61.95
238.779	-28.16
238.996	-5.63
239.214	0.51
239.431	41.47
239.648	49.66
239.865	-15.87
240.083	0.51
240.3	47.62
240.517	-28.16
240.735	4.61
240.952	107.01
241.169	154.11
241.386	80.38
241.603	41.47
241.821	31.23
242.038	25.09
242.255	-28.16
242.472	-11.78
242.689	29.18
242.907	57.86
243.124	4.61
243.341	-5.63
243.558	0.51
243.775	-9.73
243.992	-34.3
244.209	37.38
244.426	78.33
244.643	49.66
244.86	23.04
245.078	111.1
245.295	18.94
245.512	61.95
245.729	-24.06
245.946	61.95
246.163	70.14
246.38	4.61
246.597	-13.82
246.814	76.29
247.031	29.18
247.248	29.18
247.464	33.28
247.681	100.86
247.898	37.38
248.115	61.95
248.332	-52.74
248.549	90.62
248.766	37.38
248.983	4.61
249.2	-7.68
249.417	70.14
249.633	-36.35
249.85	102.91
250.067	6.66
250.284	33.28
250.501	78.33
250.717	35.33
250.934	-3.58
251.151	29.18
251.368	4.61
251.585	-3.58
251.801	-3.58
252.018	72.19
252.235	47.62
252.451	14.85
252.668	47.62
252.885	86.53
253.102	25.09
253.318	70.14
253.535	-24.06
253.752	98.81
253.968	-1.54
254.185	94.72
254.401	51.71
254.618	10.75
254.835	-34.3
255.051	6.66
255.268	37.38
255.484	31.23
255.701	59.9
255.917	0.51
256.134	20.99
256.351	53.76
256.567	53.76
256.784	29.18
257	-34.3
257.217	74.24
257.433	-1.54
257.65	70.14
257.866	70.14
258.082	-3.58
258.299	49.66
258.515	0.51
258.732	-15.87
258.948	-65.02
259.165	8.7
259.381	20.99
259.597	-32.26
259.814	49.66
260.03	47.62
260.246	8.7
260.463	49.66
260.679	100.86
260.895	12.8
261.112	-26.11
261.328	29.18
261.544	-58.88
261.761	29.18
261.977	39.42
262.193	-44.54
262.409	55.81
262.626	49.66
262.842	29.18
263.058	23.04
263.274	47.62
263.49	0.51
263.707	53.76
263.923	125.44
264.139	-58.88
264.355	27.14
264.571	8.7
264.787	37.38
265.004	29.18
265.22	-1.54
265.436	78.33
265.652	37.38
265.868	72.19
266.084	-9.73
266.3	39.42
266.516	45.57
266.732	39.42
266.948	76.29
267.164	86.53
267.38	61.95
267.596	41.47
267.812	49.66
268.028	6.66
268.244	14.85
268.46	20.99
268.676	78.33
268.892	74.24
269.108	-1.54
269.324	-19.97
269.54	-9.73
269.756	37.38
269.972	14.85
270.188	-1.54
270.403	47.62
270.619	72.19
270.835	25.09
271.051	-5.63
271.267	-19.97
271.483	8.7
271.698	-1.54
271.914	70.14
272.13	49.66
272.346	61.95
272.562	43.52
272.777	66.05
272.993	55.81
273.209	-38.4
273.425	20.99
273.64	-28.16
273.856	4.61
274.072	37.38
274.287	-7.68
274.503	49.66
274.719	10.75
274.934	45.57
275.15	-34.3
275.366	61.95
275.581	35.33
275.797	49.66
276.012	4.61
276.228	-3.58
276.444	8.7
276.659	53.76
276.875	41.47
277.09	0.51
277.306	-1.54
277.521	41.47
277.737	23.04
277.952	43.52
278.168	49.66
278.383	37.38
278.599	88.57
278.814	55.81
279.03	47.62
279.245	31.23
279.461	-26.11
279.676	53.76
279.892	20.99
280.107	0.51
280.322	12.8
280.538	20.99
280.753	47.62
280.969	59.9
281.184	68.09
281.399	55.81
281.615	-28.16
281.83	29.18
282.045	-1.54
282.26	-32.26
282.476	23.04
282.691	4.61
282.906	47.62
283.122	55.81
283.337	35.33
283.552	76.29
283.767	43.52
283.983	145.92
284.198	53.76
284.413	27.14
284.628	53.76
284.843	86.53
285.058	80.38
285.274	29.18
285.489	25.09
285.704	6.66
285.919	-19.97
286.134	27.14
286.349	8.7
286.564	104.96
286.779	90.62
286.995	2.56
287.21	12.8
287.425	59.9
287.64	12.8
287.855	31.23
288.07	0.51
288.285	27.14
288.5	-7.68
288.715	72.19
288.93	-22.02
289.145	61.95
289.36	12.8
289.575	-28.16
289.79	61.95
290.004	-3.58
290.219	55.81
290.434	8.7
290.649	29.18
290.864	61.95
291.079	61.95
291.294	14.85
291.509	14.85
291.724	29.18
291.938	-3.58
292.153	-15.87
292.368	33.28
292.583	20.99
292.798	33.28
293.012	61.95
293.227	64
293.442	29.18
293.657	14.85
293.871	64
294.086	78.33
294.301	14.85
294.516	20.99
294.73	33.28
294.945	-36.35
295.16	29.18
295.374	72.19
295.589	64
295.804	0.51
296.018	76.29
296.233	172.54
296.447	53.76
296.662	27.14
296.877	154.11
297.091	66.05
297.306	-17.92
297.52	14.85
297.735	45.57
297.949	74.24
298.164	61.95
298.378	-7.68
298.593	70.14
298.807	64
299.022	-3.58
299.236	4.61
299.451	82.43
299.665	41.47
299.88	25.09
300.094	49.66
300.309	8.7
300.523	49.66
300.737	-26.11
300.952	20.99
301.166	74.24
301.381	-32.26
301.595	61.95
301.809	14.85
302.024	-22.02
302.238	23.04
302.452	43.52
302.667	23.04
302.881	107.01
303.095	23.04
303.309	6.66
303.524	-3.58
303.738	86.53
303.952	20.99
304.166	47.62
304.381	86.53
304.595	74.24
304.809	-5.63
305.023	74.24
305.237	27.14
305.452	49.66
305.666	41.47
305.88	14.85
306.094	84.48
306.308	29.18
306.522	-42.5
306.736	45.57
306.95	-36.35
307.164	27.14
307.379	78.33
307.593	78.33
307.807	80.38
308.021	102.91
308.235	88.57
308.449	-15.87
308.663	61.95
308.877	61.95
309.091	12.8
309.305	45.57
309.519	14.85
309.733	61.95
309.947	-48.64
310.161	51.71
310.374	57.86
310.588	-3.58
310.802	29.18
311.016	61.95
311.23	20.99
311.444	64
311.658	76.29
311.872	70.14
312.085	47.62
312.299	20.99
312.513	78.33
312.727	57.86
312.941	16.9
313.154	70.14
313.368	74.24
313.582	27.14
313.796	76.29
314.009	8.7
314.223	45.57
314.437	47.62
314.651	16.9
314.864	-11.78
315.078	16.9
315.292	-9.73
315.505	27.14
315.719	61.95
315.933	23.04
316.146	86.53
316.36	4.61
316.573	-3.58
316.787	16.9
317.001	78.33
317.214	66.05
317.428	14.85
317.641	82.43
317.855	72.19
318.068	61.95
318.282	92.67
318.495	64
318.709	0.51
318.922	107.01
319.136	61.95
319.349	45.57
319.563	12.8
319.776	90.62
319.99	82.43
320.203	82.43
320.417	102.91
320.63	12.8
320.843	16.9
321.057	33.28
321.27	37.38
321.483	25.09
321.697	53.76
321.91	57.86
322.124	25.09
322.337	20.99
322.55	-19.97
322.763	59.9
322.977	51.71
323.19	55.81
323.403	61.95
323.617	12.8
323.83	74.24
324.043	37.38
324.256	90.62
324.469	-26.11
324.683	39.42
324.896	82.43
325.109	-3.58
325.322	-36.35
325.535	53.76
325.748	70.14
325.962	14.85
326.175	43.52
326.388	53.76
326.601	55.81
326.814	16.9
327.027	68.09
327.24	55.81
327.453	-3.58
327.666	41.47
327.879	102.91
328.092	31.23
328.305	98.81
328.518	25.09
328.731	53.76
328.944	-9.73
329.157	45.57
329.37	29.18
329.583	100.86
329.796	57.86
330.009	-97.79
330.222	29.18
330.435	86.53
330.648	25.09
330.861	33.28
331.073	39.42
331.286	-24.06
331.499	115.2
331.712	25.09
331.925	88.57
332.138	-7.68
332.35	-7.68
332.563	31.23
332.776	66.05
332.989	0.51
333.202	80.38
333.414	-46.59
333.627	-17.92
333.84	37.38
334.053	-9.73
334.265	-77.31
334.478	37.38
334.691	-34.3
334.903	-3.58
335.116	-13.82
335.329	29.18
335.541	0.51
335.754	88.57
335.966	37.38
336.179	-11.78
336.392	16.9
336.604	-32.26
336.817	86.53
337.029	18.94
337.242	37.38
337.454	43.52
337.667	-1.54
337.88	47.62
338.092	41.47
338.305	0.51
338.517	25.09
338.729	33.28
338.942	53.76
339.154	78.33
339.367	12.8
339.579	74.24
339.792	20.99
340.004	111.1
340.217	12.8
340.429	70.14
340.641	-56.83
340.854	29.18
341.066	33.28
341.278	74.24
341.491	137.73
341.703	6.66
341.915	61.95
342.128	78.33
342.34	64
342.552	20.99
342.764	33.28
342.977	10.75
343.189	-19.97
343.401	49.66
343.613	23.04
343.826	29.18
344.038	-11.78
344.25	78.33
344.462	53.76
344.674	88.57
344.886	18.94
345.099	64
345.311	-11.78
345.523	-26.11
345.735	4.61
345.947	59.9
346.159	51.71
346.371	41.47
346.583	-36.35
346.795	78.33
347.007	-11.78
347.219	125.44
347.431	8.7
347.643	90.62
347.855	43.52
348.067	82.43
348.279	23.04
348.491	33.28
348.703	49.66
348.915	8.7
349.127	-13.82
349.339	51.71
349.551	47.62
349.763	57.86
349.975	14.85
350.187	96.77
350.399	14.85
350.61	119.29
350.822	8.7
351.034	12.8
351.246	-36.35
351.458	31.23
351.669	41.47
351.881	4.61
352.093	160.25
352.305	33.28
352.517	80.38
352.728	23.04
352.94	0.51
353.152	61.95
353.363	-1.54
353.575	12.8
353.787	84.48
353.999	72.19
354.21	86.53
354.422	86.53
354.633	37.38
354.845	45.57
355.057	-11.78
355.268	80.38
355.48	8.7
355.692	31.23
355.903	45.57
356.115	150.01
356.326	-44.54
356.538	27.14
356.749	74.24
356.961	53.76
357.172	53.76
357.384	100.86
357.595	129.53
357.807	37.38
358.018	53.76
358.23	18.94
358.441	125.44
358.653	25.09
358.864	53.76
359.075	20.99
359.287	43.52
359.498	57.86
359.709	90.62
359.921	45.57
360.132	59.9
360.344	53.76
360.555	14.85
360.766	72.19
360.977	-3.58
361.189	59.9
361.4	12.8
361.611	20.99
361.823	86.53
362.034	45.57
362.245	20.99
362.456	78.33
362.667	29.18
362.879	53.76
363.09	92.67
363.301	23.04
363.512	100.86
363.723	47.62
363.935	76.29
364.146	61.95
364.357	14.85
364.568	45.57
364.779	47.62
364.99	8.7
365.201	-11.78
365.412	47.62
365.623	12.8
365.834	68.09
366.045	33.28
366.256	41.47
366.467	4.61
366.678	29.18
366.889	-3.58
367.1	27.14
367.311	117.25
367.522	66.05
367.733	70.14
367.944	45.57
368.155	25.09
368.366	104.96
368.577	33.28
368.788	104.96
368.999	31.23
369.209	74.24
369.42	86.53
369.631	66.05
369.842	29.18
370.053	25.09
370.264	20.99
370.474	-9.73
370.685	6.66
370.896	45.57
371.107	84.48
371.317	119.29
371.528	49.66
371.739	64
371.95	129.53
372.16	29.18
372.371	-17.92
372.582	61.95
372.792	55.81
373.003	33.28
373.214	-3.58
373.424	143.87
373.635	61.95
373.846	68.09
374.056	37.38
374.267	86.53
374.477	39.42
374.688	70.14
374.898	55.81
375.109	127.49
375.319	23.04
375.53	127.49
375.74	20.99
375.951	-5.63
376.161	55.81
376.372	86.53
376.582	8.7
376.793	53.76
377.003	74.24
377.214	39.42
377.424	51.71
377.635	20.99
377.845	6.66
378.055	12.8
378.266	0.51
378.476	27.14
378.686	-32.26
378.897	31.23
379.107	12.8
379.317	47.62
379.528	41.47
379.738	78.33
379.948	96.77
380.158	90.62
380.369	94.72
380.579	78.33
380.789	37.38
380.999	23.04
381.21	88.57
381.42	68.09
381.63	-17.92
381.84	66.05
382.05	14.85
382.261	84.48
382.471	-11.78
382.681	57.86
382.891	64
383.101	37.38
383.311	20.99
383.521	78.33
383.731	41.47
383.941	96.77
384.151	12.8
384.361	80.38
384.571	25.09
384.781	20.99
384.991	37.38
385.201	78.33
385.411	47.62
385.621	51.71
385.831	18.94
386.041	53.76
386.251	84.48
386.461	20.99
386.671	29.18
386.881	102.91
387.091	31.23
387.301	29.18
387.511	-17.92
387.72	104.96
387.93	61.95
388.14	29.18
388.35	147.97
388.56	94.72
388.769	61.95
388.979	76.29
389.189	-1.54
389.399	86.53
389.609	57.86
389.818	139.77
390.028	-1.54
390.238	80.38
390.447	20.99
390.657	-28.16
390.867	104.96
391.076	45.57
391.286	53.76
391.496	107.01
391.705	16.9
391.915	100.86
392.125	70.14
392.334	57.86
392.544	104.96
392.753	41.47
392.963	43.52
393.172	-1.54
393.382	96.77
393.591	61.95
393.801	29.18
394.01	150.01
394.22	-1.54
394.429	16.9
394.639	86.53
394.848	16.9
395.058	20.99
395.267	8.7
395.477	64
395.686	123.39
395.895	137.73
396.105	90.62
396.314	137.73
396.524	70.14
396.733	-3.58
396.942	133.63
397.152	121.34
397.361	20.99
397.57	154.11
397.78	45.57
397.989	92.67
398.198	195.07
398.407	135.68
398.617	47.62
398.826	115.2
399.035	123.39
399.244	74.24
399.453	80.38
399.663	76.29
399.872	61.95
400.081	57.86
400.29	37.38
400.499	141.82
400.708	94.72
400.917	49.66
401.127	49.66
401.336	78.33
401.545	137.73
401.754	74.24
401.963	66.05
402.172	131.58
402.381	55.81
402.59	57.86
402.799	154.11
403.008	80.38
403.217	199.16
403.426	27.14
403.635	119.29
403.844	35.33
404.053	104.96
404.262	119.29
404.471	154.11
404.68	119.29
404.888	205.31
405.097	70.14
405.306	86.53
405.515	129.53
405.724	143.87
405.933	154.11
406.142	113.15
406.35	139.77
406.559	119.29
406.768	176.64
406.977	205.31
407.185	180.73
407.394	225.79
407.603	74.24
407.812	162.3
408.02	195.07
408.229	233.98
408.438	231.93
408.646	176.64
408.855	203.26
409.064	170.49
409.272	158.21
409.481	244.22
409.69	123.39
409.898	201.21
410.107	322.04
410.315	297.47
410.524	203.26
410.733	236.03
410.941	244.22
411.15	274.94
411.358	291.32
411.567	346.62
411.775	244.22
411.984	334.33
412.192	293.37
412.401	391.67
412.609	365.05
412.818	463.35
413.026	379.39
413.234	412.15
413.443	356.86
413.651	381.43
413.86	489.98
414.068	555.51
414.276	455.16
414.485	477.69
414.693	504.31
414.901	549.37
415.11	567.8
415.318	545.27
415.526	610.81
415.734	627.19
415.943	610.81
416.151	616.95
416.359	623.09
416.567	643.57
416.776	709.11
416.984	729.59
417.192	774.64
417.4	848.37
417.608	791.03
417.817	770.55
418.025	903.67
418.233	881.14
418.441	858.61
418.649	889.33
418.857	967.15
419.065	1014.26
419.273	987.63
419.481	1057.26
419.689	1122.8
419.897	1120.75
420.105	1184.24
420.313	1255.92
420.521	1186.29
420.729	1325.55
420.937	1278.44
421.145	1417.71
421.353	1358.32
421.561	1407.47
421.769	1524.2
421.977	1563.11
422.185	1587.69
422.393	1647.08
422.601	1647.08
422.809	1667.56
423.017	1628.65
423.224	1839.59
423.432	1911.27
423.64	1788.39
423.848	2120.16
424.056	1946.08
424.263	2093.54
424.471	2200.03
424.679	2202.08
424.887	2374.11
425.094	2367.96
425.302	2265.57
425.51	2451.93
425.718	2537.95
425.925	2529.75
426.133	2669.02
426.341	2845.14
426.548	2937.3
426.756	2787.8
426.964	3011.03
427.171	3232.21
427.379	3228.11
427.586	3234.25
427.794	3412.43
428.001	3506.63
428.209	3834.31
428.417	3684.81
428.624	3926.47
428.832	4018.63
429.039	3903.94
429.247	3932.61
429.454	4331.97
429.662	4673.98
429.869	4299.2
430.076	4569.53
430.284	4411.84
430.491	4602.3
430.699	4944.31
430.906	4825.53
431.114	4929.97
431.321	5169.59
431.528	5249.46
431.736	5558.7
431.943	5872.04
432.15	5646.76
432.358	5798.31
432.565	6027.68
432.772	5872.04
432.979	6343.07
433.187	6115.75
433.394	6418.85
433.601	7018.9
433.808	6977.94
434.016	6683.03
434.223	7131.54
434.43	7487.89
434.637	7584.14
434.844	7778.7
435.052	7887.24
435.259	7958.92
435.466	8092.04
435.673	7936.39
435.88	8393.09
436.087	8892.79
436.294	9017.72
436.501	8714.62
436.708	8896.89
436.915	9132.4
437.122	9576.81
437.329	9556.33
437.537	9924.97
437.743	10129.77
437.95	9920.87
438.157	10494.3
438.364	10662.24
438.571	10844.51
438.778	10828.12
438.985	11864.39
439.192	11452.75
439.399	11735.37
439.606	11325.78
439.813	12138.82
440.02	13089.08
440.227	12558.66
440.433	12587.33
440.64	12900.67
440.847	13029.69
441.054	13226.29
441.261	14020.91
441.467	13898.03
441.674	14057.77
441.881	14651.68
442.088	14844.19
442.294	14463.27
442.501	14784.8
442.708	15026.46
442.914	15536.4
443.121	16390.41
443.328	15980.81
443.534	17271.03
443.741	16587.01
443.948	16357.64
444.154	17643.76
444.361	17506.55
444.568	17627.38
444.774	17590.52
444.981	17674.48
445.187	18714.85
445.394	19038.43
445.6	18964.7
445.807	20625.61
446.013	19806.42
446.22	20158.67
446.426	20971.71
446.633	21188.8
446.839	22180.01
447.046	21096.64
447.252	22180.01
447.459	22165.68
447.665	22034.61
447.871	23206.05
448.078	24049.81
448.284	22982.82
448.491	23824.53
448.697	24422.54
448.903	24991.87
449.11	25495.67
449.316	24395.92
449.522	24975.49
449.728	25940.08
449.935	26062.96
450.141	25954.42
450.347	26779.75
450.553	25956.47
450.76	26146.93
450.966	27244.64
451.172	26876.01
451.378	27441.25
451.584	26650.73
451.791	27488.35
451.997	27697.24
452.203	28069.97
452.409	28149.84
452.615	28010.58
452.821	26527.85
453.027	26628.2
453.233	28403.79
453.44	26861.67
453.646	27207.78
453.852	27287.65
454.058	28065.88
454.264	27201.63
454.47	27764.82
454.676	27066.47
454.882	27678.81
455.088	25743.48
455.294	25714.81
455.5	26574.95
455.705	26878.05
455.911	25350.27
456.117	25432.19
456.323	24889.48
456.529	23793.81
456.735	24750.21
456.941	24125.58
457.147	23537.82
457.352	23130.27
457.558	22616.23
457.764	22855.84
457.97	22421.67
458.176	22171.82
458.381	22118.57
458.587	21022.91
458.793	20977.86
458.999	19484.89
459.204	21315.77
459.41	20891.84
459.616	19284.19
459.821	19468.5
460.027	19347.67
460.233	18745.57
460.438	18120.94
460.644	18120.94
460.85	17375.48
461.055	16920.83
461.261	17168.63
461.466	15755.54
461.672	15501.59
461.878	16640.26
462.083	15644.95
462.289	15130.91
462.494	14825.76
462.7	14518.56
462.905	13848.88
463.111	14266.66
463.316	14573.86
463.522	14147.88
463.727	14166.31
463.932	14119.21
464.138	14094.63
464.343	14123.3
464.549	13701.42
464.754	14219.56
464.959	14086.44
465.165	13922.6
465.37	13439.28
465.575	13003.07
465.781	13525.3
465.986	13605.17
466.191	13021.5
466.397	12982.59
466.602	12147.01
466.807	12409.15
467.012	12622.14
467.218	12519.74
467.423	12620.1
467.628	12583.23
467.833	12998.97
468.038	12652.86
468.244	12380.48
468.449	12843.32
468.654	12421.44
468.859	12312.9
469.064	12161.35
469.269	11551.06
469.474	11917.64
469.679	12212.55
469.885	11694.41
470.09	11866.44
470.295	11751.76
470.5	11608.4
470.705	11585.87
470.91	11268.44
471.115	11215.19
471.32	11417.94
471.525	11559.25
471.73	10965.34
471.935	10973.53
472.139	10701.15
472.344	11018.58
472.549	10744.16
472.754	10678.62
472.959	10512.74
473.164	10121.57
473.369	9959.78
473.574	10314.08
473.778	10289.51
473.983	10064.23
474.188	10105.19
474.393	9679.21
474.598	9693.55
474.802	9531.76
475.007	9646.44
475.212	9689.45
475.417	9255.28
475.621	9329.01
475.826	9382.26
476.031	9113.97
476.235	9159.03
476.44	9286
476.645	8739.19
476.849	8933.75
477.054	8761.72
477.259	8683.9
477.463	8614.27
477.668	8657.28
477.872	8534.4
478.077	8345.98
478.282	8151.43
478.486	8196.48
478.691	8259.97
478.895	8161.67
479.1	8038.79
479.304	8092.04
479.509	7868.81
479.713	7868.81
479.918	7784.84
480.122	7666.06
480.326	7739.79
480.531	7745.93
480.735	7666.06
480.94	7711.11
481.144	7860.62
481.348	7440.78
481.553	7600.52
481.757	7338.38
481.961	7551.37
482.166	7641.48
482.37	7467.41
482.574	7311.76
482.778	7432.59
482.983	7651.72
483.187	7438.73
483.391	7557.52
483.595	7385.49
483.8	7424.4
484.004	7393.68
484.208	7608.72
484.412	7459.21
484.616	7541.13
484.821	7545.23
485.025	7412.11
485.229	7651.72
485.433	7276.94
485.637	7500.17
485.841	7344.53
486.045	7375.25
486.249	7528.85
486.453	7332.24
486.657	7422.35
486.861	7471.5
487.065	7266.71
487.269	7401.87
487.473	7266.71
487.677	7393.68
487.881	7578
488.085	7332.24
488.289	7561.61
488.493	7328.14
488.697	7655.82
488.901	7616.91
489.105	7451.02
489.309	7360.91
489.512	7750.03
489.716	7592.33
489.92	7543.18
490.124	7729.55
490.328	7793.03
490.531	7780.75
490.735	7633.29
490.939	7844.23
491.143	7616.91
491.346	7885.19
491.55	7696.78
491.754	7877
491.958	7940.49
492.161	7879.05
492.365	7907.72
492.569	8051.08
492.772	7868.81
492.976	8231.3
493.18	8059.27
493.383	8190.34
493.587	8173.96
493.79	8257.92
493.994	8202.63
494.197	8227.2
494.401	8253.83
494.605	8376.7
494.808	8462.72
495.012	8659.32
495.215	8688
495.419	8595.84
495.622	8622.46
495.825	8788.35
496.029	8843.64
496.232	8927.61
496.436	8921.46
496.639	9271.67
496.843	9238.9
497.046	9486.7
497.249	9458.03
497.453	9568.62
497.656	9435.5
497.859	9619.82
498.063	9646.44
498.266	9759.08
498.469	9783.66
498.673	10115.43
498.876	10039.65
499.079	10383.71
499.282	10144.1
499.485	10645.85
499.689	10664.29
499.892	10713.44
500.095	10795.36
500.298	10844.51
500.501	10703.2
500.705	11190.61
500.908	11383.12
501.111	11407.7
501.314	11657.55
501.517	11841.87
501.72	11762
501.923	11841.87
502.126	12161.35
502.329	12409.15
502.532	12398.91
502.735	12513.6
502.938	12548.42
503.141	12949.82
503.344	13050.17
503.547	13199.67
503.75	13154.62
503.953	13433.14
504.156	13488.43
504.359	13697.33
504.562	13728.05
504.765	14303.53
504.968	14344.49
505.17	14184.74
505.373	14414.12
505.576	14545.19
505.779	14629.15
505.982	14811.42
506.185	15343.89
506.387	15198.49
506.59	15225.11
506.793	15739.15
506.996	15626.51
507.198	16175.37
507.401	15692.05
507.604	16128.27
507.807	16679.17
508.009	16797.95
508.212	16683.27
508.415	17172.73
508.617	17201.4
508.82	17266.94
509.022	17180.92
509.225	17797.36
509.428	18020.59
509.63	18225.39
509.833	18079.98
510.035	18489.57
510.238	18723.04
510.44	18698.47
510.643	19261.66
510.845	19284.19
511.048	19069.15
511.25	19765.46
511.453	19697.88
511.655	20396.23
511.858	20173
512.06	20367.56
512.262	20138.19
512.465	20316.36
512.667	20881.6
512.87	21049.53
513.072	21186.75
513.274	21706.93
513.477	21760.18
513.679	21754.04
513.881	21911.73
514.084	22556.84
514.286	22540.46
514.488	22810.79
514.69	23498.91
514.893	23298.2
515.095	23464.09
515.297	23597.21
515.499	23908.5
515.701	24350.86
515.904	24617.1
516.106	24643.72
516.308	24887.43
516.51	24961.16
516.712	24916.1
516.914	25249.92
517.116	26189.94
517.318	25792.63
517.52	26118.26
517.722	26372.21
517.925	26566.76
518.127	26671.21
518.329	27099.23
518.531	26802.28
518.733	27363.42
518.935	27514.97
519.136	27756.63
519.338	28211.28
519.54	28086.36
519.742	28354.64
519.944	28739.66
520.146	29245.51
520.348	29519.93
520.55	29128.77
520.752	29599.8
520.954	30136.37
521.155	29575.23
521.357	30281.78
521.559	30662.7
521.761	30781.48
521.963	30930.98
522.164	30955.56
522.366	30965.8
522.568	31543.33
522.77	31744.03
522.971	32206.87
523.173	32040.98
523.375	32100.37
523.576	32346.13
523.778	32507.92
523.98	32950.28
524.181	32946.19
524.383	33060.87
524.584	33458.18
524.786	33619.97
524.988	33556.48
525.189	33869.82
525.391	33994.75
525.592	34007.03
525.794	34252.79
525.995	34207.73
526.197	34476.02
526.398	34498.55
526.6	34539.5
526.801	35049.45
527.003	34891.76
527.204	34969.58
527.406	35487.71
527.607	35633.12
527.808	36143.06
528.01	35260.39
528.211	35848.16
528.412	36044.76
528.614	36063.19
528.815	36161.5
529.016	36227.03
529.218	35930.08
529.419	36169.69
529.62	36405.2
529.822	36311
530.023	36833.23
530.224	36278.23
530.425	36472.79
530.626	36530.13
530.828	36591.57
531.029	37238.73
531.23	36943.82
531.431	36489.17
531.632	36775.89
531.833	36894.67
532.035	37138.38
532.236	36976.59
532.437	37240.78
532.638	36648.91
532.839	37193.67
533.04	37326.79
533.241	36822.99
533.442	37717.95
533.643	37251.02
533.844	37425.09
534.045	37402.57
534.246	36855.76
534.447	37500.87
534.648	37238.73
534.849	37187.53
535.05	37418.95
535.251	37392.33
535.451	37341.13
535.652	37629.89
535.853	37484.48
536.054	37750.72
536.255	37625.79
536.456	37355.46
536.657	37834.69
536.857	37017.55
537.058	37316.55
537.259	37572.55
537.46	37519.3
537.66	37019.6
537.861	37431.24
538.062	37128.14
538.263	37535.68
538.463	37294.02
538.664	36997.07
538.865	37476.29
539.065	37507.01
539.266	37226.44
539.466	37853.12
539.667	37412.81
539.868	37750.72
540.068	37285.83
540.269	37398.47
540.469	37683.14
540.67	37316.55
540.87	37347.27
541.071	37152.71
541.271	37457.86
541.472	37478.34
541.672	37117.9
541.873	37236.68
542.073	36644.82
542.274	37756.86
542.474	37025.74
542.675	37005.26
542.875	37240.78
543.075	37492.68
543.276	36902.86
543.476	37709.76
543.676	36822.99
543.877	37384.13
544.077	37083.08
544.277	36970.44
544.478	37406.66
544.678	37173.19
544.878	37146.57
545.078	37500.87
545.279	36845.52
545.479	36929.48
545.679	37173.19
545.879	37220.3
546.079	37224.39
546.28	37236.68
546.48	36968.4
546.68	37179.34
546.88	36741.07
547.08	37214.15
547.28	37054.41
547.48	37205.96
547.68	37171.14
547.88	36773.84
548.081	37437.38
548.281	36798.41
548.481	36980.68
548.681	37343.17
548.881	36806.61
549.081	37091.27
549.28	36485.08
549.48	37246.92
549.68	37031.88
549.88	37404.61
550.08	36696.02
550.28	37097.42
550.48	36882.38
550.68	37191.62
550.88	36730.83
551.08	36870.09
551.279	36859.85
551.479	36767.69
551.679	36704.21
551.879	36872.14
552.079	37019.6
552.278	36716.5
552.478	36507.6
552.678	36825.04
552.878	37003.21
553.077	36474.84
553.277	36681.68
553.477	37099.47
553.676	36392.92
553.876	36892.62
554.076	36820.94
554.275	37042.12
554.475	35801.05
554.674	36620.24
554.874	36325.33
555.074	36591.57
555.273	36052.95
555.473	36810.7
555.672	36202.46
555.872	36638.67
556.071	36456.4
556.271	36489.17
556.47	36050.91
556.67	35950.56
556.869	36360.15
557.068	36270.04
557.268	35905.5
557.467	36257.75
557.667	36220.89
557.866	35954.65
558.065	36108.25
558.265	36063.19
558.464	35704.8
558.663	36177.88
558.863	35465.19
559.062	36112.34
559.261	35405.8
559.461	35940.32
559.66	35143.66
559.859	35563.49
560.058	35747.81
560.258	35678.18
560.457	34926.57
560.656	35844.06
560.855	35504.1
561.054	35637.22
561.253	35315.69
561.453	35504.1
561.652	35133.42
561.851	35739.61
562.05	35276.77
562.249	34754.54
562.448	35407.84
562.647	35219.43
562.846	35086.31
563.045	34840.56
563.244	34449.39
563.443	35008.49
563.642	34408.43
563.841	34486.26
564.04	34775.02
564.239	35049.45
564.438	34592.75
564.637	34279.41
564.836	34631.66
565.035	34258.93
565.234	34230.26
565.432	34060.28
565.631	34088.95
565.83	34228.21
566.029	33998.84
566.228	34050.04
566.427	33951.74
566.625	33699.84
566.824	33564.67
567.023	33802.24
567.222	33173.51
567.42	33869.82
567.619	33603.58
567.818	33689.6
568.016	33538.05
568.215	33900.54
568.414	33536
568.612	33345.54
568.811	33478.66
569.01	33220.61
569.208	32708.62
569.407	33128.45
569.605	32682
569.804	32927.75
570.002	32776.2
570.201	32917.51
570.4	32589.84
570.598	32567.31
570.797	32303.12
570.995	32663.57
571.193	32073.75
571.392	32286.74
571.59	31950.87
571.789	32139.29
571.987	32311.31
572.186	32040.98
572.384	31580.19
572.582	31854.62
572.781	31866.91
572.979	31551.52
573.177	31756.32
573.376	31780.89
573.574	31481.89
573.772	31881.24
573.971	31213.6
574.169	31270.95
574.367	31266.85
574.565	31576.09
574.763	31002.66
574.962	31162.4
575.16	30849.07
575.358	31221.8
575.556	30400.56
575.754	31090.73
575.952	30482.48
576.151	30472.24
576.349	30404.66
576.547	30531.63
576.745	30505.01
576.943	30562.35
577.141	30550.06
577.339	30378.03
577.537	29792.31
577.735	30154.8
577.933	30117.94
578.131	30152.76
578.329	30060.6
578.527	29698.11
578.725	29595.71
578.923	29747.26
579.121	29610.04
579.319	29292.61
579.516	29356.1
579.714	29009.99
579.912	29229.12
580.11	29542.46
580.308	29171.78
580.506	28997.7
580.704	28321.87
580.901	28807.24
581.099	28977.22
581.297	28491.85
581.495	28751.95
581.692	28897.35
581.89	28137.55
582.088	28610.64
582.285	28350.54
582.483	28436.56
582.681	28198.99
582.878	28141.65
583.076	28211.28
583.274	28239.95
583.471	27709.53
583.669	28072.02
583.866	28082.26
584.064	27936.85
584.262	27519.07
584.459	27709.53
584.657	27510.88
584.854	27723.86
585.052	27109.47
585.249	27500.64
585.447	27349.09
585.644	27111.52
585.841	27388
586.039	27224.16
586.236	26738.79
586.434	27088.99
586.631	26751.08
586.828	26720.36
587.026	26624.11
587.223	26609.77
587.42	26534
587.618	26525.8
587.815	26263.66
588.012	26013.81
588.21	26286.19
588.407	26460.27
588.604	26175.6
588.801	25884.79
588.999	25968.76
589.196	25935.99
589.393	25925.75
589.59	25798.77
589.787	25634.94
589.984	25585.79
590.182	25202.82
590.379	25395.32
590.576	25104.51
590.773	25186.43
590.97	25049.22
591.167	25100.42
591.364	25227.39
591.561	25026.69
591.758	24760.45
591.955	24844.42
592.152	24866.95
592.349	24615.05
592.546	24754.31
592.743	24791.17
592.94	24391.82
593.137	24602.76
593.334	24567.95
593.531	24180.88
593.727	24424.59
593.924	24264.85
594.121	23902.36
594.318	24246.41
594.515	23793.81
594.712	24338.57
594.908	23793.81
595.105	24027.28
595.302	23550.1
595.499	23863.44
595.696	23537.82
595.892	23421.08
596.089	23455.9
596.286	23431.32
596.482	23199.9
596.679	23169.18
596.876	23365.79
597.072	23007.39
597.269	23572.63
597.466	22964.39
597.662	22857.89
597.859	22704.29
598.055	22896.8
598.252	22751.4
598.448	22954.15
598.645	22519.98
598.841	22773.92
599.038	22472.87
599.234	22544.55
599.431	22419.63
599.627	22057.14
599.824	22542.5
600.02	22106.29
600.217	22347.95
600.413	21983.41
600.609	22001.84
600.806	21674.17
601.002	21860.53
601.198	21567.67
601.395	21696.69
601.591	21659.83
601.787	21385.4
601.984	21473.46
602.18	21575.86
602.376	21319.87
602.572	21256.38
602.769	21471.42
602.965	20926.66
603.161	21043.39
603.357	21063.87
603.553	20979.9
603.75	20926.66
603.946	20828.35
604.142	20984
604.338	20340.94
604.534	20676.8
604.73	20379.85
604.926	20768.96
605.122	20527.3
605.318	20429
605.514	20338.89
605.71	20398.28
605.906	20074.7
606.102	20142.28
606.298	20117.71
606.494	19947.73
606.69	20316.36
606.886	19966.16
607.082	19908.82
607.278	19878.1
607.474	19509.46
607.67	19960.02
607.866	19636.44
608.062	19902.67
608.257	19618
608.453	19636.44
608.649	19579.09
608.845	19663.06
609.041	19491.03
609.236	19618
609.432	19278.04
609.628	19273.95
609.824	19134.68
610.019	19091.68
610.215	19089.63
610.411	19321.05
610.606	19017.95
610.802	19065.05
610.998	18921.7
611.193	18741.47
611.389	18938.08
611.584	19050.72
611.78	18852.06
611.976	18809.06
612.171	18688.23
612.367	18723.04
612.562	18530.53
612.758	18653.41
612.953	18346.22
613.149	18530.53
613.344	18372.84
613.539	18612.45
613.735	18366.7
613.93	18508.01
614.126	18366.7
614.321	18389.22
614.517	18182.38
614.712	18209
614.907	18116.84
615.103	18274.54
615.298	17895.66
615.493	18282.73
615.688	17871.09
615.884	18266.35
616.079	17737.97
616.274	17981.68
616.47	18075.88
616.665	17821.94
616.86	17864.94
617.055	17766.64
617.25	17821.94
617.445	17983.73
617.641	17291.51
617.836	17950.96
618.031	17379.57
618.226	17479.93
618.421	17449.21
618.616	17430.77
618.811	17066.24
619.006	17262.84
619.201	17217.79
619.396	17060.09
619.591	16980.22
619.786	17113.34
619.981	16724.22
620.176	16847.1
620.371	16683.27
620.566	16746.75
620.761	16517.38
620.956	16716.03
621.151	16521.48
621.346	16527.62
621.541	16365.83
621.735	16537.86
621.93	16079.11
622.125	16042.25
622.32	15839.5
622.515	15958.28
622.709	15816.97
622.904	15806.73
623.099	15671.57
623.294	15816.97
623.488	15481.11
623.683	15884.56
623.878	15085.85
624.072	15388.95
624.267	15233.3
624.462	15192.34
624.656	14932.25
624.851	15048.99
625.046	14866.72
625.24	14913.82
625.435	14709.02
625.629	14633.25
625.824	14614.82
626.018	14553.38
626.213	14045.48
626.407	14321.96
626.602	14225.7
626.796	14254.37
626.991	14405.92
627.185	14061.87
627.38	13922.6
627.574	13971.75
627.768	13738.29
627.963	13685.04
628.157	13537.59
628.352	13541.68
628.546	13451.57
628.74	13750.57
628.935	13275.45
629.129	13474.1
629.323	12998.97
629.517	13254.97
629.712	13201.72
629.906	13134.14
630.1	12814.65
630.294	12966.2
630.489	12865.85
630.683	12900.67
630.877	12622.14
631.071	12448.07
631.265	12646.72
631.459	12515.65
631.653	12333.38
631.848	12296.52
632.042	12437.83
632.236	12323.14
632.43	12343.62
632.624	12419.39
632.818	11981.13
633.012	11964.75
633.206	11989.32
633.4	11923.79
633.594	11725.13
633.788	12038.47
633.982	11768.14
634.176	11671.89
634.369	11444.56
634.563	11469.14
634.757	11301.2
634.951	11546.96
635.145	11432.27
635.339	11321.68
635.533	10991.96
635.726	11252.05
635.92	11086.17
636.114	10916.19
636.308	11073.88
636.501	11018.58
636.695	10721.63
636.889	10621.28
637.083	10785.12
637.276	10713.44
637.47	10723.68
637.664	10824.03
637.857	10703.2
638.051	10645.85
638.244	10424.67
638.438	10344.8
638.632	10326.37
638.825	10236.26
639.019	10178.92
639.212	10015.08
639.406	10066.28
639.599	9990.5
639.793	9914.73
639.986	9845.1
640.18	9912.68
640.373	9765.23
640.567	9542
640.76	9845.1
640.954	9726.32
641.147	9738.6
641.34	9396.59
641.534	9458.03
641.727	9511.28
641.92	9441.65
642.114	9228.66
642.307	9222.52
642.5	9351.54
642.694	8991.09
642.887	9030.01
643.08	9249.14
643.273	8993.14
643.467	8851.83
643.66	8765.82
643.853	8794.49
644.046	8685.95
644.239	8690.04
644.432	8860.02
644.626	8677.76
644.819	8427.9
645.012	8616.32
645.205	8696.19
645.398	8425.86
645.591	8429.95
645.784	8382.85
645.977	8257.92
646.17	8397.18
646.363	8231.3
646.556	8157.57
646.749	8194.43
646.942	8223.11
647.135	7991.69
647.328	8083.84
647.521	7877
647.714	7788.94
647.907	8032.65
648.099	7887.24
648.292	7827.85
648.485	7766.41
648.678	7715.21
648.871	7872.9
649.064	7606.67
649.256	7790.99
649.449	7604.62
649.642	7541.13
649.835	7483.79
650.027	7475.6
650.22	7334.29
650.413	7338.38
650.605	7330.19
650.798	7164.31
650.991	7078.29
651.183	7254.42
651.376	7147.92
651.568	7211.41
651.761	6963.61
651.954	6982.04
652.146	7041.43
652.339	6941.08
652.531	7018.9
652.724	7109.01
652.916	6760.86
653.109	6814.1
653.301	6977.94
653.494	6820.25
653.686	6850.97
653.879	6848.92
654.071	6635.93
654.263	6558.11
654.456	6617.5
654.648	6480.29
654.84	6582.68
655.033	6455.71
655.225	6447.52
655.417	6293.92
655.61	6357.41
655.802	6488.48
655.994	6269.34
656.186	6494.62
656.379	6273.44
656.571	6074.79
656.763	6066.6
656.955	5910.95
657.148	5994.92
657.34	6042.02
657.532	5968.29
657.724	6050.21
657.916	5927.33
658.108	5798.31
658.3	5888.42
658.492	5847.46
658.684	5810.6
658.876	5804.46
659.068	5517.74
659.26	5661.1
659.452	5657
659.644	5669.29
659.836	5470.64
660.028	5499.31
660.22	5511.6
660.412	5462.44
660.604	5560.75
660.796	5411.25
660.988	5292.46
661.18	5312.94
661.372	5251.5
661.563	5288.37
661.755	5175.73
661.947	5075.38
662.139	5159.35
662.331	5239.22
662.522	5085.62
662.714	5118.39
662.906	5050.8
663.097	5214.64
663.289	4950.45
663.481	4837.81
663.673	5011.89
663.864	4854.2
664.056	4893.11
664.247	4829.62
664.439	4848.05
664.631	4895.16
664.822	4780.47
665.014	4653.5
665.205	4932.02
665.397	4690.36
665.588	4680.12
665.78	4643.26
665.971	4641.21
666.163	4561.34
666.354	4620.73
666.546	4504
666.737	4493.76
666.929	4491.71
667.12	4452.8
667.311	4485.56
667.503	4483.52
667.694	4420.03
667.885	4493.76
668.077	4284.86
668.268	4190.66
668.459	4377.02
668.651	4268.48
668.842	4241.86
669.033	4190.66
669.224	4317.63
669.416	4262.33
669.607	4198.85
669.798	4198.85
669.989	4116.93
670.18	4121.03
670.371	4051.39
670.563	4086.21
670.754	4110.79
670.945	3854.79
671.136	4037.06
671.327	4010.43
671.518	3963.33
671.709	4053.44
671.9	3903.94
672.091	3871.17
672.282	3957.19
672.473	3887.56
672.664	3944.9
672.855	3877.32
673.046	3885.51
673.237	3760.58
673.428	3680.71
673.619	3738.05
673.809	3652.04
674	3707.34
674.191	3797.45
674.382	3807.69
674.573	3617.22
674.764	3596.75
674.954	3791.3
675.145	3805.64
675.336	3606.98
675.527	3719.62
675.717	3578.31
675.908	3576.27
676.099	3666.38
676.289	3508.68
676.48	3539.4
676.671	3561.93
676.861	3443.15
677.052	3531.21
677.243	3439.05
677.433	3625.42
677.624	3355.08
677.814	3387.85
678.005	3412.43
678.195	3414.48
678.386	3520.97
678.576	3512.78
678.767	3453.39
678.957	3373.52
679.148	3545.55
679.338	3387.85
679.529	3342.8
679.719	3406.28
679.909	3453.39
680.1	3316.17
680.29	3350.99
680.481	3285.45
680.671	3346.89
680.861	3267.02
681.052	3264.97
681.242	3221.97
681.432	3267.02
681.622	3166.67
681.813	3314.13
682.003	3277.26
682.193	3174.86
682.383	3295.69
682.573	3242.45
682.764	3310.03
682.954	3250.64
683.144	3217.87
683.334	3201.49
683.524	3174.86
683.714	3367.37
683.904	3127.76
684.094	3318.22
684.284	3211.73
684.474	3146.19
684.664	3021.27
684.854	3203.54
685.044	3164.62
685.234	3031.51
685.424	3191.25
685.614	3138
685.804	3133.9
685.994	3123.66
686.184	2996.69
686.374	3043.79
686.564	3086.8
686.753	3029.46
686.943	3103.18
687.133	3047.89
687.323	3086.8
687.513	3117.52
687.702	3076.56
687.892	2871.76
688.082	2884.05
688.272	2908.63
688.461	2882
688.651	2970.07
688.841	2867.67
689.03	2908.63
689.22	2830.8
689.41	2820.56
689.599	2871.76
689.789	2839
689.979	2851.28
690.168	2879.96
690.358	2802.13
690.547	2810.33
690.737	2734.55
690.926	2920.92
691.116	2603.48
691.305	2795.99
691.495	2832.85
691.684	2804.18
691.874	2687.45
692.063	2814.42
692.252	2707.93
692.442	2734.55
692.631	2738.65
692.82	2666.97
693.01	2632.15
693.199	2767.32
693.388	2703.83
693.578	2595.29
693.767	2714.07
693.956	2789.85
694.146	2709.97
694.335	2537.95
694.524	2675.16
694.713	2519.51
694.902	2476.51
695.092	2580.95
695.281	2456.03
695.47	2638.3
695.659	2496.99
695.848	2564.57
696.037	2425.31
696.226	2595.29
696.415	2413.02
696.604	2556.38
696.793	2476.51
696.982	2499.03
697.171	2507.23
697.36	2478.55
697.549	2437.59
697.738	2374.11
697.927	2474.46
698.116	2451.93
698.305	2370.01
698.494	2464.22
698.683	2372.06
698.872	2552.28
699.061	2425.31
699.25	2400.73
699.438	2423.26
699.627	2408.92
699.816	2478.55
700.005	2474.46
700.193	2447.83
700.382	2286.05
700.571	2339.29
700.76	2370.01
700.948	2277.85
701.137	2320.86
701.326	2380.25
701.514	2308.57
701.703	2460.12
701.892	2406.88
702.08	2355.68
702.269	2257.37
702.457	2259.42
702.646	2234.85
702.834	2329.05
703.023	2306.52
703.212	2257.37
703.4	2357.72
703.589	2171.36
703.777	2281.95
703.965	2310.62
704.154	2085.34
704.342	2228.7
704.531	2261.47
704.719	2126.3
704.907	2202.08
705.096	2306.52
705.284	2349.53
705.472	2243.04
705.661	2142.69
705.849	2341.34
706.037	2240.99
706.226	2136.54
706.414	2306.52
706.602	2253.28
706.79	2195.93
706.979	2232.8
707.167	2212.32
707.355	2079.2
707.543	2142.69
707.731	2324.96
707.919	2187.74
708.107	2144.74
708.296	2109.92
708.484	2183.65
708.672	2202.08
708.86	2142.69
709.048	2171.36
709.236	2146.78
709.424	2103.78
709.612	2228.7
709.8	2118.11
709.988	2052.58
710.176	2097.63
710.364	2109.92
710.551	2210.27
710.739	2109.92
710.927	2111.97
711.115	2097.63
711.303	2050.53
711.491	2120.16
711.679	2118.11
711.866	2062.82
712.054	2161.12
712.242	2060.77
712.43	2232.8
712.617	2089.44
712.805	2169.31
712.993	2118.11
713.181	2034.14
713.368	2060.77
713.556	2073.06
713.744	2093.54
713.931	2222.56
714.119	2011.62
714.306	2120.16
714.494	2083.3
714.682	2142.69
714.869	2028
715.057	1956.32
715.244	2077.15
715.432	2071.01
715.619	1946.08
715.807	2038.24
715.994	1921.51
716.182	1921.51
716.369	2056.67
716.556	2087.39
716.744	2011.62
716.931	2040.29
717.119	2050.53
717.306	2197.98
717.493	1954.27
717.681	2011.62
717.868	2028
718.055	2046.43
718.242	2128.35
718.43	1978.85
718.617	1960.42
718.804	1989.09
718.991	2111.97
719.179	2089.44
719.366	2071.01
719.553	1946.08
719.74	1939.94
719.927	1950.18
720.114	1982.95
720.301	1876.45
720.488	1995.23
720.676	1956.32
720.863	1901.03
721.05	1970.66
721.237	2052.58
721.424	1989.09
721.611	1984.99
721.798	1980.9
721.985	1808.87
722.172	1962.47
722.358	1907.17
722.545	1999.33
722.732	2036.19
722.919	1919.46
723.106	1915.36
723.293	1901.03
723.48	1954.27
723.667	1812.96
723.853	1995.23
724.04	1923.55
724.227	1946.08
724.414	1880.55
724.6	1864.16
724.787	1950.18
724.974	2068.96
725.161	1954.27
725.347	1855.97
725.534	1901.03
725.72	1894.88
725.907	1864.16
726.094	1976.8
726.28	1991.14
726.467	1872.36
726.653	1925.6
726.84	1835.49
727.027	1874.4
727.213	1839.59
727.4	1874.4
727.586	1739.24
727.773	1864.16
727.959	1872.36
728.145	1958.37
728.332	1823.2
728.518	1812.96
728.705	1921.51
728.891	1888.74
729.077	1890.79
729.264	1810.92
729.45	1790.44
729.636	1874.4
729.823	1956.32
730.009	1946.08
730.195	1954.27
730.382	1907.17
730.568	1939.94
730.754	1905.12
730.94	1937.89
731.126	1864.16
731.313	1800.68
731.499	1778.15
731.685	1839.59
731.871	1847.78
732.057	1892.84
732.243	1753.57
732.429	1833.44
732.615	1921.51
732.801	1712.61
732.987	1815.01
733.173	1917.41
733.359	1751.53
733.545	1946.08
733.731	1831.4
733.917	1882.6
734.103	1757.67
734.289	1778.15
734.475	1774.05
734.661	1849.83
734.847	1776.1
735.033	1815.01
735.219	1819.11
735.404	1733.09
735.59	1724.9
735.776	1757.67
735.962	1829.35
736.148	1786.34
736.333	1731.05
736.519	1767.91
736.705	1786.34
736.89	1833.44
737.076	1694.18
737.262	1645.03
737.447	1743.33
737.633	1724.9
737.819	1634.79
738.004	1831.4
738.19	1720.81
738.375	1769.96
738.561	1847.78
738.747	1759.72
738.932	1593.83
739.118	1731.05
739.303	1724.9
739.489	1587.69
739.674	1729
739.859	1681.89
740.045	1741.29
740.23	1720.81
740.416	1614.31
740.601	1749.48
740.786	1651.17
740.972	1659.37
741.157	1593.83
741.342	1561.06
741.528	1571.3
741.713	1712.61
741.898	1526.25
742.084	1638.89
742.269	1706.47
742.454	1552.87
742.639	1647.08
742.824	1626.6
743.01	1649.13
743.195	1749.48
743.38	1565.16
743.565	1503.72
743.75	1569.26
743.935	1544.68
744.12	1610.22
744.305	1491.43
744.49	1544.68
744.675	1544.68
744.86	1606.12
745.045	1669.61
745.23	1511.91
745.415	1505.77
745.6	1479.15
745.785	1495.53
745.97	1425.9
746.155	1425.9
746.34	1509.86
746.525	1485.29
746.71	1479.15
746.895	1391.08
747.079	1470.95
747.264	1481.19
747.449	1411.56
747.634	1438.19
747.819	1487.34
748.003	1378.79
748.188	1393.13
748.373	1323.5
748.557	1360.36
748.742	1401.32
748.927	1389.03
749.111	1405.42
749.296	1438.19
749.481	1290.73
749.665	1266.16
749.85	1292.78
750.034	1257.96
750.219	1264.11
750.404	1274.35
750.588	1278.44
750.773	1270.25
750.957	1282.54
751.141	1288.68
751.326	1356.27
751.51	1225.2
751.695	1225.2
751.879	1210.86
752.064	1239.53
752.248	1253.87
752.432	1274.35
752.617	1235.44
752.801	1208.81
752.985	1157.61
753.17	1178.09
753.354	1192.43
753.538	1214.96
753.722	1114.61
753.907	1100.27
754.091	1217.01
754.275	1128.94
754.459	1122.8
754.643	1016.3
754.828	1145.33
755.012	1122.8
755.196	1055.22
755.38	1184.24
755.564	1044.98
755.748	1108.46
755.932	1077.74
756.116	1110.51
756.3	1022.45
756.484	1028.59
756.668	987.63
756.852	973.3
757.036	1030.64
757.22	979.44
757.404	1032.69
757.588	954.87
757.772	999.92
757.956	946.67
758.14	963.06
758.323	934.39
758.507	991.73
758.691	1036.78
758.875	1061.36
759.059	993.78
759.242	963.06
759.426	922.1
759.61	973.3
759.794	924.15
759.977	946.67
760.161	1022.45
760.345	905.71
760.528	918
760.712	979.44
760.895	950.77
761.079	786.93
761.263	913.91
761.446	840.18
761.63	909.81
761.813	963.06
761.997	907.76
762.18	844.28
762.364	852.47
762.547	801.27
762.731	897.52
762.914	836.08
763.098	838.13
763.281	831.99
763.464	815.6
763.648	807.41
763.831	784.88
764.015	727.54
764.198	815.6
764.381	827.89
764.564	807.41
764.748	903.67
764.931	784.88
765.114	766.45
765.297	782.84
765.481	760.31
765.664	752.12
765.847	776.69
766.03	819.7
766.213	813.56
766.397	864.75
766.58	758.26
766.763	778.74
766.946	772.6
767.129	766.45
767.312	754.16
767.495	741.88
767.678	811.51
767.861	741.88
768.044	758.26
768.227	817.65
768.41	791.03
768.593	809.46
768.776	670.2
768.959	659.96
769.142	799.22
769.324	717.3
769.507	766.45
769.69	717.3
769.873	666.1
770.056	723.44
770.239	760.31
770.421	784.88
770.604	797.17
770.787	719.35
770.97	760.31
771.152	655.86
771.335	791.03
771.518	680.44
771.7	672.25
771.883	719.35
772.066	700.92
772.248	686.58
772.431	688.63
772.613	698.87
772.796	619
772.978	664.05
773.161	690.68
773.343	735.73
773.526	596.47
773.708	623.09
773.891	647.67
774.073	664.05
774.256	608.76
774.438	680.44
774.621	643.57
774.803	629.24
774.985	598.52
775.168	659.96
775.35	578.04
775.532	672.25
775.715	545.27
775.897	588.28
776.079	575.99
776.261	604.66
776.444	600.57
776.626	612.85
776.808	561.66
776.99	522.74
777.173	604.66
777.355	635.38
777.537	610.81
777.719	594.42
777.901	532.98
778.083	512.5
778.265	553.46
778.447	569.85
778.629	506.36
778.811	528.89
778.993	571.9
779.175	578.04
779.357	522.74
779.539	602.61
779.721	528.89
779.903	563.7
780.085	539.13
780.267	539.13
780.449	496.12
780.631	455.16
780.812	563.7
780.994	424.44
781.176	578.04
781.358	461.3
781.54	412.15
781.721	481.78
781.903	504.31
782.085	465.4
782.267	422.39
782.448	479.74
782.63	444.92
782.812	401.91
782.993	422.39
783.175	438.78
783.357	365.05
783.538	406.01
783.72	489.98
783.901	442.87
784.083	434.68
784.264	449.02
784.446	389.63
784.627	424.44
784.809	397.82
784.99	479.74
785.172	440.83
785.353	303.61
785.535	342.52
785.716	373.24
785.897	354.81
786.079	438.78
786.26	348.67
786.441	430.59
786.623	356.86
786.804	350.71
786.985	451.07
787.167	381.43
787.348	387.58
787.529	295.42
787.71	467.45
787.891	324.09
788.073	412.15
788.254	324.09
788.435	320
788.616	377.34
788.797	317.95
788.978	317.95
789.159	365.05
789.34	328.19
789.522	356.86
789.703	324.09
789.884	326.14
790.065	373.24
790.246	410.11
790.427	348.67
790.607	342.52
790.788	340.47
790.969	373.24
791.15	262.65
791.331	221.69
791.512	332.28
791.693	268.8
791.874	242.17
792.054	365.05
792.235	279.04
792.416	256.51
792.597	291.32
792.778	371.19
792.958	274.94
793.139	303.61
793.32	287.23
793.5	274.94
793.681	338.43
793.862	340.47
794.042	309.76
794.223	221.69
794.404	195.07
794.584	217.6
794.765	195.07
794.945	283.13
795.126	315.9
795.306	262.65
795.487	326.14
795.667	289.28
795.848	225.79
796.028	252.41
796.209	260.6
796.389	393.72
796.57	252.41
796.75	139.77
796.93	229.88
797.111	242.17
797.291	285.18
797.471	225.79
797.652	307.71
797.832	289.28
798.012	250.36
798.192	141.82
798.373	233.98
798.553	279.04
798.733	190.97
798.913	299.52
799.093	250.36
799.274	291.32
799.454	197.12
799.634	242.17
799.814	291.32
799.994	242.17
800.174	258.56
800.354	180.73
800.534	133.63
800.714	248.32
800.894	221.69
801.074	188.93
801.254	242.17
801.434	227.84
801.614	145.92
801.794	141.82
801.974	823.8
802.154	221.69
802.334	104.96
802.514	164.35
802.693	229.88
802.873	154.11
803.053	178.69
803.233	164.35
803.413	262.65
803.592	176.64
803.772	152.06
803.952	188.93
804.131	248.32
804.311	162.3
804.491	211.45
804.67	154.11
804.85	176.64
805.03	225.79
805.209	209.4
805.389	154.11
805.568	215.55
805.748	188.93
805.928	231.93
806.107	119.29
806.287	143.87
806.466	172.54
806.646	152.06
806.825	139.77
807.004	162.3
807.184	193.02
807.363	219.64
807.543	176.64
807.722	121.34
807.901	211.45
808.081	193.02
808.26	156.16
808.439	113.15
808.619	123.39
808.798	143.87
808.977	172.54
809.156	170.49
809.336	168.45
809.515	201.21
809.694	96.77
809.873	107.01
810.052	137.73
810.231	129.53
810.411	111.1
810.59	143.87
810.769	123.39
810.948	211.45
811.127	76.29
811.306	168.45
811.485	147.97
811.664	152.06
811.843	143.87
812.022	156.16
812.201	107.01
812.38	160.25
812.559	98.81
812.737	145.92
812.916	82.43
813.095	107.01
813.274	147.97
813.453	102.91
813.632	147.97
813.811	129.53
813.989	102.91
814.168	98.81
814.347	37.38
814.526	135.68
814.704	121.34
814.883	176.64
815.062	107.01
815.24	158.21
815.419	119.29
815.598	188.93
815.776	107.01
815.955	39.42
816.133	160.25
816.312	178.69
816.49	123.39
816.669	100.86
816.847	64
817.026	96.77
817.204	96.77
817.383	78.33
817.561	66.05
817.74	123.39
817.918	8.7
818.097	70.14
818.275	74.24
818.453	115.2
818.632	111.1
818.81	152.06
818.988	115.2
819.167	115.2
819.345	127.49
819.523	88.57
819.701	33.28
819.879	49.66
820.058	150.01
820.236	37.38
820.414	61.95
820.592	98.81
820.77	125.44
820.948	82.43
821.127	78.33
821.305	117.25
821.483	143.87
821.661	78.33
821.839	29.18
822.017	33.28
822.195	49.66
822.373	121.34
822.551	78.33
822.729	78.33
822.907	23.04
823.085	145.92
823.262	29.18
823.44	27.14
823.618	78.33
823.796	162.3
823.974	37.38
824.152	135.68
824.329	61.95
824.507	154.11
824.685	57.86
824.863	72.19
825.04	96.77
825.218	119.29
825.396	23.04
825.574	51.71
825.751	78.33
825.929	70.14
826.107	61.95
826.284	76.29
826.462	37.38
826.639	64
826.817	23.04
826.994	70.14
827.172	94.72
827.349	174.59
827.527	61.95
827.704	190.97
827.882	45.57
828.059	102.91
828.237	-3.58
828.414	152.06
828.591	41.47
828.769	94.72
828.946	96.77
829.124	37.38
829.301	123.39
829.478	94.72
829.655	74.24
829.833	53.76
830.01	82.43
830.187	104.96
830.364	78.33
830.542	80.38
830.719	90.62
830.896	131.58
831.073	115.2
831.25	127.49
831.427	45.57
831.604	49.66
831.782	55.81
831.959	41.47
832.136	78.33
832.313	57.86
832.49	61.95
832.667	57.86
832.844	53.76
833.021	100.86
833.198	39.42
833.374	102.91
833.551	45.57
833.728	94.72
833.905	164.35
834.082	12.8
834.259	6.66
834.436	86.53
834.612	39.42
834.789	102.91
834.966	100.86
835.143	-3.58
835.319	88.57
835.496	68.09
835.673	121.34
835.85	47.62
836.026	139.77
836.203	70.14
836.38	-7.68
836.556	-36.35
836.733	39.42
836.909	139.77
837.086	-36.35
837.262	37.38
837.439	164.35
837.616	-7.68
837.792	23.04
837.968	-7.68
838.145	59.9
838.321	135.68
838.498	94.72
838.674	78.33
838.851	41.47
839.027	111.1
839.203	102.91
839.38	23.04
839.556	72.19
839.732	70.14
839.909	35.33
840.085	94.72
840.261	59.9
840.437	72.19
840.614	8.7
840.79	70.14
840.966	0.51
841.142	53.76
841.318	94.72
841.494	70.14
841.671	45.57
841.847	-34.3
842.023	64
842.199	53.76
842.375	64
842.551	29.18
842.727	45.57
842.903	70.14
843.079	-69.12
843.255	135.68
843.431	70.14
843.607	115.2
843.783	31.23
843.959	107.01
844.134	-1.54
844.31	117.25
844.486	20.99
844.662	25.09
844.838	6.66
845.013	53.76
845.189	61.95
845.365	4.61
845.541	72.19
845.716	20.99
845.892	37.38
846.068	14.85
846.244	16.9
846.419	137.73
846.595	-24.06
846.77	55.81
846.946	156.16
847.122	-5.63
847.297	6.66
847.473	127.49
847.648	29.18
847.824	98.81
847.999	-17.92
848.175	16.9
848.35	18.94
848.526	123.39
848.701	61.95
848.876	-3.58
849.052	51.71
849.227	29.18
849.403	70.14
849.578	31.23
849.753	119.29
849.929	-52.74
850.104	23.04
850.279	4.61
850.454	39.42
850.63	-7.68
850.805	20.99
850.98	20.99
851.155	49.66
851.33	-34.3
851.505	-19.97
851.681	61.95
851.856	61.95
852.031	94.72
852.206	20.99
852.381	59.9
852.556	88.57
852.731	39.42
852.906	-11.78
853.081	158.21
853.256	41.47
853.431	70.14
853.606	8.7
853.781	-1.54
853.956	12.8
854.131	41.47
854.305	45.57
854.48	10.75
854.655	61.95
854.83	37.38
855.005	31.23
855.18	61.95
855.354	-19.97
855.529	78.33
855.704	-26.11
855.879	12.8
856.053	23.04
856.228	47.62
856.403	6.66
856.577	61.95
856.752	12.8
856.926	-19.97
857.101	12.8
857.276	-58.88
857.45	29.18
857.625	29.18
857.799	16.9
857.974	61.95
858.148	6.66
858.323	45.57
858.497	-24.06
858.672	20.99
858.846	29.18
859.02	61.95
859.195	23.04
859.369	-42.5
859.543	47.62
859.718	39.42
859.892	78.33
860.066	-11.78
860.241	29.18
860.415	25.09
860.589	94.72
860.763	45.57
860.938	23.04
861.112	115.2
861.286	41.47
861.46	55.81
861.634	20.99
861.808	43.52
861.982	23.04
862.157	23.04
862.331	4.61
862.505	47.62
862.679	-67.07
862.853	-5.63
863.027	39.42
863.201	113.15
863.375	61.95
863.549	55.81
863.722	53.76
863.896	31.23
864.07	-24.06
864.244	25.09
864.418	35.33
864.592	-108.03
864.766	76.29
864.939	51.71
865.113	-28.16
865.287	123.39
865.461	-7.68
865.634	33.28
865.808	59.9
865.982	41.47
866.156	-28.16
866.329	-17.92
866.503	-15.87
866.676	78.33
866.85	29.18
867.024	12.8
867.197	88.57
867.371	57.86
867.544	66.05
867.718	4.61
867.891	70.14
868.065	-56.83
868.238	20.99
868.412	37.38
868.585	-13.82
868.759	47.62
868.932	12.8
869.105	49.66
869.279	-9.73
869.452	39.42
869.625	20.99
869.799	37.38
869.972	57.86
870.145	70.14
870.319	96.77
870.492	8.7
870.665	-17.92
870.838	-19.97
871.011	-69.12
871.185	-83.45
871.358	-11.78
871.531	35.33
871.704	-11.78
871.877	-75.26
872.05	109.05
872.223	31.23
872.396	31.23
872.569	39.42
872.742	-7.68
872.915	-11.78
873.088	53.76
873.261	-60.93
873.434	47.62
873.607	-9.73
873.78	6.66
873.953	-1.54
874.126	45.57
874.299	45.57
874.471	33.28
874.644	-50.69
874.817	-15.87
874.99	80.38
875.163	-24.06
875.335	31.23
875.508	-3.58
875.681	57.86
875.853	-13.82
876.026	31.23
876.199	-11.78
876.371	80.38
876.544	-9.73
876.717	39.42
876.889	-19.97
877.062	53.76
877.234	27.14
877.407	6.66
877.579	6.66
877.752	49.66
877.924	45.57
878.097	96.77
878.269	25.09
878.442	70.14
878.614	-48.64
878.786	-17.92
878.959	53.76
879.131	33.28
879.303	78.33
879.476	2.56
879.648	8.7
879.82	20.99
879.993	27.14
880.165	-7.68
880.337	-32.26
880.509	-46.59
880.681	-3.58
880.854	-32.26
881.026	-9.73
881.198	47.62
881.37	18.94
881.542	-28.16
881.714	23.04
881.886	33.28
882.058	16.9
882.23	-46.59
882.402	6.66
882.574	14.85
882.746	20.99
882.918	49.66
883.09	-11.78
883.262	-62.98
883.434	23.04
883.606	-1.54
883.778	2.56
883.95	47.62
884.122	35.33
884.293	14.85
884.465	49.66
884.637	23.04
884.809	-52.74
884.98	-24.06
885.152	66.05
885.324	45.57
885.496	47.62
885.667	-26.11
885.839	-54.78
886.011	6.66
886.182	20.99
886.354	98.81
886.525	20.99
886.697	12.8
886.869	0.51
887.04	39.42
887.212	-7.68
887.383	8.7
887.555	61.95
887.726	-11.78
887.897	-34.3
888.069	-60.93
888.24	31.23
888.412	-1.54
888.583	-22.02
888.754	37.38
888.926	0.51
889.097	-11.78
889.268	-77.31
889.44	-26.11
889.611	-19.97
889.782	12.8
889.953	-13.82
890.125	64
890.296	53.76
890.467	64
890.638	-58.88
890.809	14.85
890.98	-3.58
891.151	14.85
891.323	-5.63
891.494	23.04
891.665	37.38
891.836	88.57
892.007	-26.11
892.178	-7.68
892.349	-11.78
892.52	-17.92
892.691	16.9
892.862	10.75
893.032	-118.27
893.203	29.18
893.374	-40.45
893.545	66.05
893.716	-50.69
893.887	43.52
894.057	-48.64
894.228	-1.54
894.399	45.57
894.57	-26.11
894.74	-22.02
894.911	43.52
895.082	4.61
895.253	43.52
895.423	-73.21
895.594	-32.26
895.764	-56.83
895.935	55.81
896.106	8.7
896.276	-19.97
896.447	43.52
896.617	33.28
896.788	29.18
896.958	6.66
897.129	53.76
897.299	33.28
897.47	61.95
897.64	45.57
897.81	-3.58
897.981	-26.11
898.151	16.9
898.322	6.66
898.492	45.57
898.662	-26.11
898.832	39.42
899.003	-40.45
899.173	-19.97
899.343	-103.93
899.513	-42.5
