Data from USB4F104151__61__14-43-14-219.txt Node

Date: Thu Mar 13 14:43:14 EDT 2025
User: louis
Spectrometer: USB4F10415
Trigger mode: 4
Integration Time (sec): 2.000000E-2
Scans to average: 1
Electric dark correction enabled: true
Nonlinearity correction enabled: false
Boxcar width: 0
XAxis mode: Wavelengths
Number of Pixels in Spectrum: 3648
>>>>>Begin Spectral Data<<<<<
178.204	-92.33
178.424	-92.33
178.644	-92.33
178.864	-59.56
179.084	-108.71
179.304	24.4
179.524	-32.94
179.744	-4.27
179.964	40.79
180.184	-16.55
180.404	55.12
180.624	34.64
180.844	-73.9
181.064	12.12
181.283	22.36
181.503	-34.99
181.723	-26.79
181.943	-43.18
182.163	73.56
182.383	-18.6
182.602	-10.41
182.822	100.18
183.042	34.64
183.262	46.93
183.482	-16.55
183.701	51.03
183.921	-2.22
184.141	-41.13
184.361	155.47
184.58	63.32
184.8	-0.17
185.02	14.17
185.239	46.93
185.459	-10.41
185.679	57.17
185.898	-45.23
186.118	32.6
186.338	55.12
186.557	16.21
186.777	-16.55
186.997	73.56
187.216	-41.13
187.436	112.47
187.655	22.36
187.875	57.17
188.095	-18.6
188.314	53.08
188.534	42.84
188.753	-24.75
188.973	67.41
189.192	22.36
189.412	-10.41
189.631	96.08
189.851	53.08
190.07	30.55
190.29	-2.22
190.509	30.55
190.729	-6.31
190.948	79.7
191.168	98.13
191.387	85.84
191.607	10.07
191.826	-2.22
192.045	12.12
192.265	96.08
192.484	71.51
192.704	26.45
192.923	-75.95
193.142	104.28
193.362	-10.41
193.581	-14.51
193.8	63.32
194.02	91.99
194.239	-8.36
194.458	-24.75
194.678	-2.22
194.897	-10.41
195.116	5.97
195.335	16.21
195.555	104.28
195.774	65.36
195.993	5.97
196.212	-32.94
196.432	67.41
196.651	18.26
196.87	24.4
197.089	38.74
197.308	5.97
197.528	-26.79
197.747	-63.66
197.966	18.26
198.185	114.52
198.404	104.28
198.623	-8.36
198.842	-10.41
199.062	40.79
199.281	67.41
199.5	3.93
199.719	57.17
199.938	5.97
200.157	141.14
200.376	38.74
200.595	55.12
200.814	57.17
201.033	14.17
201.252	73.56
201.471	69.46
201.69	14.17
201.909	79.7
202.128	63.32
202.347	139.09
202.566	16.21
202.785	-41.13
203.004	51.03
203.223	34.64
203.442	-22.7
203.661	-8.36
203.879	55.12
204.098	71.51
204.317	14.17
204.536	71.51
204.755	5.97
204.974	71.51
205.193	67.41
205.411	124.76
205.63	63.32
205.849	38.74
206.068	34.64
206.287	30.55
206.505	132.95
206.724	38.74
206.943	-8.36
207.162	26.45
207.381	59.22
207.599	83.8
207.818	32.6
208.037	75.6
208.255	24.4
208.474	14.17
208.693	40.79
208.911	87.89
209.13	51.03
209.349	14.17
209.567	22.36
209.786	104.28
210.005	5.97
210.223	77.65
210.442	42.84
210.661	-26.79
210.879	40.79
211.098	57.17
211.316	1.88
211.535	34.64
211.753	75.6
211.972	83.8
212.191	38.74
212.409	137.04
212.628	89.94
212.846	-32.94
213.065	104.28
213.283	51.03
213.502	71.51
213.72	8.02
213.938	18.26
214.157	65.36
214.375	112.47
214.594	-2.22
214.812	3.93
215.031	65.36
215.249	-14.51
215.467	65.36
215.686	30.55
215.904	96.08
216.122	5.97
216.341	-24.75
216.559	42.84
216.778	8.02
216.996	14.17
217.214	44.88
217.432	-26.79
217.651	63.32
217.869	46.93
218.087	14.17
218.306	-6.31
218.524	26.45
218.742	12.12
218.96	55.12
219.179	-34.99
219.397	18.26
219.615	98.13
219.833	32.6
220.051	22.36
220.27	-32.94
220.488	59.22
220.706	46.93
220.924	53.08
221.142	8.02
221.36	40.79
221.578	-30.89
221.796	77.65
222.015	48.98
222.233	38.74
222.451	30.55
222.669	-2.22
222.887	55.12
223.105	16.21
223.323	14.17
223.541	24.4
223.759	22.36
223.977	79.7
224.195	65.36
224.413	48.98
224.631	38.74
224.849	-26.79
225.067	112.47
225.285	40.79
225.503	34.64
225.721	-6.31
225.939	65.36
226.157	81.75
226.375	104.28
226.592	-43.18
226.81	16.21
227.028	106.32
227.246	79.7
227.464	38.74
227.682	87.89
227.9	63.32
228.117	63.32
228.335	63.32
228.553	-8.36
228.771	85.84
228.989	-45.23
229.206	40.79
229.424	34.64
229.642	63.32
229.86	14.17
230.077	65.36
230.295	16.21
230.513	85.84
230.731	5.97
230.948	71.51
231.166	89.94
231.384	-49.32
231.601	55.12
231.819	104.28
232.037	24.4
232.254	-34.99
232.472	-67.75
232.689	-10.41
232.907	5.97
233.125	32.6
233.342	1.88
233.56	-47.27
233.777	48.98
233.995	-20.65
234.213	32.6
234.43	34.64
234.648	22.36
234.865	96.08
235.083	20.31
235.3	22.36
235.518	16.21
235.735	46.93
235.953	104.28
236.17	46.93
236.388	75.6
236.605	44.88
236.822	71.51
237.04	14.17
237.257	10.07
237.475	51.03
237.692	-0.17
237.909	42.84
238.127	42.84
238.344	34.64
238.562	71.51
238.779	-57.51
238.996	-24.75
239.214	53.08
239.431	71.51
239.648	-16.55
239.865	42.84
240.083	-8.36
240.3	38.74
240.517	-10.41
240.735	22.36
240.952	-16.55
241.169	77.65
241.386	26.45
241.603	-4.27
241.821	46.93
242.038	102.23
242.255	18.26
242.472	65.36
242.689	32.6
242.907	14.17
243.124	51.03
243.341	65.36
243.558	-24.75
243.775	-39.08
243.992	8.02
244.209	63.32
244.426	145.24
244.643	75.6
244.86	36.69
245.078	79.7
245.295	-4.27
245.512	73.56
245.729	26.45
245.946	-22.7
246.163	81.75
246.38	1.88
246.597	42.84
246.814	55.12
247.031	71.51
247.248	112.47
247.464	8.02
247.681	14.17
247.898	89.94
248.115	10.07
248.332	1.88
248.549	98.13
248.766	34.64
248.983	-8.36
249.2	63.32
249.417	46.93
249.633	132.95
249.85	59.22
250.067	40.79
250.284	22.36
250.501	-53.42
250.717	46.93
250.934	12.12
251.151	5.97
251.368	-22.7
251.585	83.8
251.801	32.6
252.018	8.02
252.235	53.08
252.451	-39.08
252.668	32.6
252.885	44.88
253.102	96.08
253.318	48.98
253.535	5.97
253.752	-37.03
253.968	69.46
254.185	-2.22
254.401	-6.31
254.618	55.12
254.835	-59.56
255.051	104.28
255.268	38.74
255.484	55.12
255.701	96.08
255.917	69.46
256.134	96.08
256.351	57.17
256.567	22.36
256.784	-30.89
257	18.26
257.217	87.89
257.433	14.17
257.65	32.6
257.866	38.74
258.082	-26.79
258.299	3.93
258.515	42.84
258.732	40.79
258.948	40.79
259.165	14.17
259.381	-4.27
259.597	-30.89
259.814	-8.36
260.03	-28.84
260.246	14.17
260.463	51.03
260.679	104.28
260.895	-55.47
261.112	26.45
261.328	24.4
261.544	5.97
261.761	73.56
261.977	-8.36
262.193	59.22
262.409	128.85
262.626	100.18
262.842	42.84
263.058	3.93
263.274	10.07
263.49	36.69
263.707	-10.41
263.923	87.89
264.139	46.93
264.355	38.74
264.571	79.7
264.787	30.55
265.004	61.27
265.22	5.97
265.436	-0.17
265.652	61.27
265.868	42.84
266.084	-67.75
266.3	104.28
266.516	10.07
266.732	-16.55
266.948	-6.31
267.164	120.66
267.38	-12.46
267.596	-8.36
267.812	87.89
268.028	73.56
268.244	79.7
268.46	-0.17
268.676	-0.17
268.892	40.79
269.108	-26.79
269.324	30.55
269.54	48.98
269.756	87.89
269.972	-22.7
270.188	-2.22
270.403	12.12
270.619	16.21
270.835	-34.99
271.051	1.88
271.267	-10.41
271.483	5.97
271.698	59.22
271.914	128.85
272.13	-43.18
272.346	1.88
272.562	-34.99
272.777	126.8
272.993	26.45
273.209	-12.46
273.425	1.88
273.64	14.17
273.856	51.03
274.072	14.17
274.287	30.55
274.503	38.74
274.719	40.79
274.934	-18.6
275.15	16.21
275.366	30.55
275.581	-10.41
275.797	-10.41
276.012	65.36
276.228	14.17
276.444	30.55
276.659	63.32
276.875	57.17
277.09	38.74
277.306	28.5
277.521	34.64
277.737	20.31
277.952	48.98
278.168	132.95
278.383	67.41
278.599	102.23
278.814	-8.36
279.03	-18.6
279.245	128.85
279.461	-26.79
279.676	46.93
279.892	-51.37
280.107	46.93
280.322	-6.31
280.538	-24.75
280.753	34.64
280.969	79.7
281.184	10.07
281.399	112.47
281.615	30.55
281.83	46.93
282.045	65.36
282.26	-49.32
282.476	10.07
282.691	96.08
282.906	57.17
283.122	44.88
283.337	38.74
283.552	38.74
283.767	-10.41
283.983	34.64
284.198	-16.55
284.413	46.93
284.628	8.02
284.843	-34.99
285.058	57.17
285.274	63.32
285.489	57.17
285.704	48.98
285.919	30.55
286.134	55.12
286.349	114.52
286.564	-2.22
286.779	73.56
286.995	40.79
287.21	-34.99
287.425	46.93
287.64	20.31
287.855	30.55
288.07	40.79
288.285	38.74
288.5	22.36
288.715	48.98
288.93	-10.41
289.145	16.21
289.36	63.32
289.575	-10.41
289.79	40.79
290.004	26.45
290.219	120.66
290.434	10.07
290.649	-18.6
290.864	108.37
291.079	79.7
291.294	108.37
291.509	32.6
291.724	63.32
291.938	-41.13
292.153	38.74
292.368	61.27
292.583	51.03
292.798	38.74
293.012	48.98
293.227	16.21
293.442	71.51
293.657	81.75
293.871	89.94
294.086	-6.31
294.301	87.89
294.516	22.36
294.73	59.22
294.945	46.93
295.16	26.45
295.374	63.32
295.589	-10.41
295.804	14.17
296.018	28.5
296.233	55.12
296.447	24.4
296.662	63.32
296.877	124.76
297.091	-18.6
297.306	10.07
297.52	-12.46
297.735	-8.36
297.949	71.51
298.164	106.32
298.378	16.21
298.593	18.26
298.807	67.41
299.022	32.6
299.236	75.6
299.451	-18.6
299.665	10.07
299.88	55.12
300.094	18.26
300.309	-0.17
300.523	8.02
300.737	20.31
300.952	71.51
301.166	57.17
301.381	20.31
301.595	38.74
301.809	-18.6
302.024	-24.75
302.238	-20.65
302.452	38.74
302.667	-16.55
302.881	87.89
303.095	8.02
303.309	5.97
303.524	-2.22
303.738	55.12
303.952	14.17
304.166	79.7
304.381	-26.79
304.595	120.66
304.809	24.4
305.023	38.74
305.237	38.74
305.452	81.75
305.666	28.5
305.88	30.55
306.094	63.32
306.308	69.46
306.522	96.08
306.736	40.79
306.95	-30.89
307.164	38.74
307.379	22.36
307.593	114.52
307.807	98.13
308.021	40.79
308.235	65.36
308.449	-6.31
308.663	36.69
308.877	100.18
309.091	-18.6
309.305	42.84
309.519	-71.85
309.733	48.98
309.947	-0.17
310.161	79.7
310.374	65.36
310.588	87.89
310.802	-22.7
311.016	22.36
311.23	-22.7
311.444	24.4
311.658	-20.65
311.872	57.17
312.085	26.45
312.299	-39.08
312.513	12.12
312.727	14.17
312.941	10.07
313.154	38.74
313.368	-39.08
313.582	51.03
313.796	34.64
314.009	89.94
314.223	110.42
314.437	46.93
314.651	24.4
314.864	38.74
315.078	14.17
315.292	34.64
315.505	20.31
315.719	42.84
315.933	-26.79
316.146	77.65
316.36	61.27
316.573	-8.36
316.787	96.08
317.001	24.4
317.214	-45.23
317.428	40.79
317.641	-6.31
317.855	81.75
318.068	46.93
318.282	-10.41
318.495	40.79
318.709	110.42
318.922	42.84
319.136	89.94
319.349	91.99
319.563	51.03
319.776	65.36
319.99	14.17
320.203	30.55
320.417	8.02
320.63	55.12
320.843	94.04
321.057	67.41
321.27	24.4
321.483	55.12
321.697	63.32
321.91	16.21
322.124	79.7
322.337	46.93
322.55	-2.22
322.763	22.36
322.977	55.12
323.19	69.46
323.403	-2.22
323.617	-49.32
323.83	8.02
324.043	57.17
324.256	-34.99
324.469	-47.27
324.683	57.17
324.896	63.32
325.109	51.03
325.322	67.41
325.535	71.51
325.748	38.74
325.962	98.13
326.175	89.94
326.388	22.36
326.601	46.93
326.814	-32.94
327.027	-0.17
327.24	130.9
327.453	1.88
327.666	-14.51
327.879	40.79
328.092	108.37
328.305	48.98
328.518	-12.46
328.731	40.79
328.944	55.12
329.157	24.4
329.37	18.26
329.583	44.88
329.796	120.66
330.009	16.21
330.222	89.94
330.435	91.99
330.648	63.32
330.861	24.4
331.073	8.02
331.286	22.36
331.499	51.03
331.712	34.64
331.925	-14.51
332.138	42.84
332.35	46.93
332.563	77.65
332.776	46.93
332.989	3.93
333.202	118.61
333.414	98.13
333.627	22.36
333.84	104.28
334.053	30.55
334.265	22.36
334.478	34.64
334.691	32.6
334.903	137.04
335.116	5.97
335.329	-41.13
335.541	106.32
335.754	98.13
335.966	-6.31
336.179	-0.17
336.392	38.74
336.604	87.89
336.817	59.22
337.029	128.85
337.242	63.32
337.454	28.5
337.667	-2.22
337.88	73.56
338.092	48.98
338.305	130.9
338.517	-8.36
338.729	46.93
338.942	48.98
339.154	16.21
339.367	-18.6
339.579	79.7
339.792	30.55
340.004	108.37
340.217	48.98
340.429	61.27
340.641	73.56
340.854	24.4
341.066	38.74
341.278	18.26
341.491	40.79
341.703	14.17
341.915	16.21
342.128	40.79
342.34	-6.31
342.552	8.02
342.764	36.69
342.977	24.4
343.189	96.08
343.401	14.17
343.613	38.74
343.826	38.74
344.038	30.55
344.25	63.32
344.462	67.41
344.674	51.03
344.886	16.21
345.099	108.37
345.311	-2.22
345.523	5.97
345.735	10.07
345.947	57.17
346.159	63.32
346.371	22.36
346.583	42.84
346.795	104.28
347.007	100.18
347.219	55.12
347.431	14.17
347.643	96.08
347.855	30.55
348.067	55.12
348.279	-26.79
348.491	-2.22
348.703	65.36
348.915	71.51
349.127	65.36
349.339	42.84
349.551	16.21
349.763	18.26
349.975	149.33
350.187	89.94
350.399	-6.31
350.61	147.28
350.822	30.55
351.034	5.97
351.246	-10.41
351.458	98.13
351.669	79.7
351.881	157.52
352.093	48.98
352.305	53.08
352.517	16.21
352.728	38.74
352.94	38.74
353.152	73.56
353.363	122.71
353.575	71.51
353.787	44.88
353.999	57.17
354.21	20.31
354.422	38.74
354.633	55.12
354.845	-24.75
355.057	40.79
355.268	-2.22
355.48	71.51
355.692	-2.22
355.903	63.32
356.115	-2.22
356.326	10.07
356.538	28.5
356.749	79.7
356.961	108.37
357.172	8.02
357.384	-16.55
357.595	67.41
357.807	51.03
358.018	65.36
358.23	5.97
358.441	114.52
358.653	89.94
358.864	10.07
359.075	-22.7
359.287	-0.17
359.498	94.04
359.709	48.98
359.921	10.07
360.132	20.31
360.344	71.51
360.555	55.12
360.766	89.94
360.977	-10.41
361.189	18.26
361.4	42.84
361.611	71.51
361.823	38.74
362.034	14.17
362.245	-0.17
362.456	65.36
362.667	85.84
362.879	55.12
363.09	65.36
363.301	46.93
363.512	10.07
363.723	128.85
363.935	79.7
364.146	55.12
364.357	8.02
364.568	-10.41
364.779	16.21
364.99	81.75
365.201	5.97
365.412	155.47
365.623	-37.03
365.834	81.75
366.045	38.74
366.256	44.88
366.467	63.32
366.678	18.26
366.889	3.93
367.1	63.32
367.311	34.64
367.522	22.36
367.733	59.22
367.944	110.42
368.155	26.45
368.366	55.12
368.577	20.31
368.788	108.37
368.999	65.36
369.209	108.37
369.42	40.79
369.631	116.56
369.842	71.51
370.053	10.07
370.264	55.12
370.474	-8.36
370.685	16.21
370.896	51.03
371.107	63.32
371.317	59.22
371.528	57.17
371.739	55.12
371.95	96.08
372.16	96.08
372.371	-10.41
372.582	71.51
372.792	14.17
373.003	106.32
373.214	-24.75
373.424	89.94
373.635	-10.41
373.846	100.18
374.056	79.7
374.267	63.32
374.477	79.7
374.688	38.74
374.898	-24.75
375.109	106.32
375.319	73.56
375.53	26.45
375.74	38.74
375.951	73.56
376.161	63.32
376.372	14.17
376.582	44.88
376.793	63.32
377.003	36.69
377.214	46.93
377.424	32.6
377.635	16.21
377.845	69.46
378.055	151.38
378.266	-16.55
378.476	100.18
378.686	1.88
378.897	8.02
379.107	36.69
379.317	81.75
379.528	51.03
379.738	38.74
379.948	-2.22
380.158	14.17
380.369	14.17
380.579	91.99
380.789	75.6
380.999	18.26
381.21	55.12
381.42	132.95
381.63	40.79
381.84	79.7
382.05	139.09
382.261	46.93
382.471	87.89
382.681	55.12
382.891	38.74
383.101	63.32
383.311	63.32
383.521	48.98
383.731	67.41
383.941	51.03
384.151	81.75
384.361	63.32
384.571	-6.31
384.781	104.28
384.991	32.6
385.201	14.17
385.411	55.12
385.621	81.75
385.831	67.41
386.041	8.02
386.251	44.88
386.461	18.26
386.671	38.74
386.881	79.7
387.091	42.84
387.301	-10.41
387.511	-2.22
387.72	116.56
387.93	96.08
388.14	22.36
388.35	63.32
388.56	42.84
388.769	42.84
388.979	28.5
389.189	24.4
389.399	108.37
389.609	79.7
389.818	40.79
390.028	110.42
390.238	20.31
390.447	51.03
390.657	120.66
390.867	108.37
391.076	8.02
391.286	85.84
391.496	51.03
391.705	100.18
391.915	46.93
392.125	5.97
392.334	57.17
392.544	79.7
392.753	28.5
392.963	48.98
393.172	26.45
393.382	-8.36
393.591	153.43
393.801	48.98
394.01	169.81
394.22	94.04
394.429	96.08
394.639	81.75
394.848	73.56
395.058	55.12
395.267	-30.89
395.477	46.93
395.686	28.5
395.895	130.9
396.105	106.32
396.314	32.6
396.524	155.47
396.733	161.62
396.942	83.8
397.152	112.47
397.361	87.89
397.57	132.95
397.78	91.99
397.989	30.55
398.198	116.56
398.407	48.98
398.617	55.12
398.826	141.14
399.035	137.04
399.244	132.95
399.453	14.17
399.663	55.12
399.872	67.41
400.081	63.32
400.29	151.38
400.499	46.93
400.708	89.94
400.917	87.89
401.127	91.99
401.336	40.79
401.545	110.42
401.754	63.32
401.963	130.9
402.172	126.8
402.381	126.8
402.59	126.8
402.799	91.99
403.008	128.85
403.217	161.62
403.426	108.37
403.635	96.08
403.844	71.51
404.053	104.28
404.262	106.32
404.471	202.58
404.68	10.07
404.888	87.89
405.097	112.47
405.306	122.71
405.515	118.61
405.724	100.18
405.933	178
406.142	141.14
406.35	180.05
406.559	112.47
406.768	145.24
406.977	165.71
407.185	71.51
407.394	153.43
407.603	182.1
407.812	180.05
408.02	163.67
408.229	225.11
408.438	223.06
408.646	302.93
408.855	253.78
409.064	304.98
409.272	184.15
409.481	288.59
409.69	296.78
409.898	235.35
410.107	278.35
410.315	300.88
410.524	278.35
410.733	304.98
410.941	311.12
411.15	352.08
411.358	343.89
411.567	319.31
411.775	384.85
411.984	368.46
412.192	390.99
412.401	397.14
412.609	386.9
412.818	403.28
413.026	505.68
413.234	423.76
413.443	440.14
413.651	538.45
413.86	446.29
414.068	554.83
414.276	513.87
414.485	468.81
414.693	548.68
414.901	601.93
415.11	532.3
415.318	632.65
415.526	653.13
415.734	646.99
415.943	741.19
416.151	689.99
416.359	657.23
416.567	669.52
416.776	714.57
416.984	759.63
417.192	851.78
417.4	743.24
417.608	810.82
417.817	804.68
418.025	919.37
418.233	1029.96
418.441	935.75
418.649	935.75
418.857	1079.11
419.065	1099.59
419.273	962.37
419.481	1040.2
419.689	1103.68
419.897	1320.77
420.105	1218.37
420.313	1341.25
420.521	1302.34
420.729	1316.67
420.937	1439.55
421.145	1455.94
421.353	1523.52
421.561	1558.33
421.769	1609.53
421.977	1632.06
422.185	1654.59
422.393	1759.03
422.601	1861.43
422.809	1873.72
423.017	1924.92
423.224	1996.6
423.432	2004.79
423.64	1957.69
423.848	2185.01
424.056	2096.95
424.263	2348.85
424.471	2283.31
424.679	2416.43
424.887	2361.14
425.094	2545.45
425.302	2594.61
425.51	2701.1
425.718	2746.16
425.925	2844.46
426.133	2828.07
426.341	2993.96
426.548	3159.85
426.756	3151.65
426.964	3135.27
427.171	3393.31
427.379	3415.84
427.586	3585.82
427.794	3628.83
428.001	3802.91
428.209	3972.89
428.417	3907.35
428.624	4216.6
428.832	4171.54
429.039	4114.2
429.247	4347.67
429.454	4562.7
429.662	4857.61
429.869	4509.46
430.076	4933.39
430.284	4708.11
430.491	4929.29
430.699	5170.95
430.906	5195.53
431.114	5160.71
431.321	5560.06
431.528	5594.88
431.736	5963.51
431.943	6164.22
432.15	6029.05
432.358	6053.62
432.565	6502.13
432.772	6342.39
432.979	6786.8
433.187	6870.76
433.394	6887.15
433.601	7317.22
433.808	7284.45
434.016	7458.53
434.223	7759.58
434.43	8044.25
434.637	8027.87
434.844	8308.44
435.052	8406.74
435.259	8529.62
435.466	8576.72
435.673	8158.94
435.88	8963.79
436.087	9631.43
436.294	9721.54
436.501	9316.04
436.708	9586.37
436.915	9696.96
437.122	10258.1
437.329	10483.38
437.537	10606.26
437.743	10587.83
437.95	10714.8
438.157	11191.98
438.364	11710.11
438.571	11478.69
438.778	11476.65
438.985	12650.13
439.192	12215.96
439.399	12566.17
439.606	12136.09
439.813	12926.61
440.02	13543.05
440.227	13317.77
440.433	13389.45
440.64	13618.82
440.847	13581.96
441.054	13932.16
441.261	14890.61
441.467	14808.69
441.674	14902.9
441.881	15603.3
442.088	15728.23
442.294	15292.01
442.501	15783.52
442.708	16141.92
442.914	16615
443.121	17387.08
443.328	17047.12
443.534	18208.32
443.741	17667.66
443.948	17311.31
444.154	18562.62
444.361	18232.9
444.568	18597.43
444.774	18622.01
444.981	18767.41
445.187	19379.76
445.394	20352.54
445.6	19871.27
445.807	21872.14
446.013	20991.51
446.22	20977.17
446.426	22199.81
446.633	22312.45
446.839	23252.47
447.046	22322.69
447.252	23410.16
447.459	23467.5
447.665	23324.15
447.871	24139.24
448.078	25296.34
448.284	24305.12
448.491	24905.18
448.697	26047.94
448.903	26369.47
449.11	26148.29
449.316	25867.72
449.522	26494.4
449.728	27135.42
449.935	27481.52
450.141	27411.89
450.347	27575.73
450.553	27145.66
450.76	27590.06
450.966	28558.75
451.172	28186.02
451.378	28949.92
451.584	28323.24
451.791	29011.35
451.997	28933.53
452.203	29367.7
452.409	29402.52
452.615	29322.65
452.821	27805.1
453.027	27801.01
453.233	29582.74
453.44	28245.41
453.646	28644.77
453.852	28585.38
454.058	29234.58
454.264	28482.98
454.47	29308.31
454.676	28319.14
454.882	29255.06
455.088	26639.81
455.294	27215.29
455.5	27434.42
455.705	28130.73
455.911	26822.08
456.117	26277.32
456.323	26303.94
456.529	24688.09
456.735	25841.1
456.941	25202.13
457.147	24905.18
457.352	23883.24
457.558	24014.31
457.764	23862.76
457.97	23215.6
458.176	22869.5
458.381	23004.66
458.587	21865.99
458.793	21812.74
458.999	20608.54
459.204	22261.25
459.41	21620.24
459.616	20203.04
459.821	20018.72
460.027	19969.57
460.233	19641.9
460.438	18462.27
460.644	19125.81
460.85	17989.19
461.055	17935.94
461.261	17970.76
461.466	16526.94
461.672	15738.47
461.878	17161.81
462.083	15754.85
462.289	15527.53
462.494	15625.83
462.7	14898.8
462.905	14534.26
463.111	14915.19
463.316	14876.27
463.522	14458.49
463.727	14481.02
463.932	14696.05
464.138	14360.19
464.343	14491.26
464.549	14169.73
464.754	14554.74
464.959	14257.79
465.165	14233.21
465.37	13659.78
465.575	13366.92
465.781	13938.3
465.986	13821.57
466.191	13567.62
466.397	13112.97
466.602	12596.89
466.807	13080.21
467.012	13117.07
467.218	12934.8
467.423	12637.84
467.628	12813.97
467.833	13330.06
468.038	12865.17
468.244	12441.24
468.449	12902.03
468.654	12482.2
468.859	12605.08
469.064	12539.54
469.269	11902.62
469.474	11966.11
469.679	12349.08
469.885	11851.42
470.09	12097.18
470.295	12072.61
470.5	11607.72
470.705	11853.47
470.91	11544.23
471.115	11251.37
471.32	11546.28
471.525	11493.03
471.73	11298.47
471.935	11171.5
472.139	10962.61
472.344	11048.62
472.549	10833.58
472.754	10774.19
472.959	10499.77
473.164	10442.42
473.369	10204.86
473.574	10694.32
473.778	10348.22
473.983	10331.83
474.188	10579.64
474.393	9793.22
474.598	10049.21
474.802	9926.33
475.007	9805.5
475.212	9682.63
475.417	9404.1
475.621	9453.25
475.826	9514.69
476.031	9113.29
476.235	9215.69
476.44	9350.85
476.645	9135.82
476.849	8986.32
477.054	9021.13
477.259	8830.67
477.463	8814.29
477.668	8539.86
477.872	8660.69
478.077	8593.11
478.282	8214.23
478.486	8437.46
478.691	8390.36
478.895	8103.64
479.1	8111.83
479.304	8210.14
479.509	7966.43
479.713	8234.71
479.918	7788.25
480.122	7735.01
480.326	7964.38
480.531	7839.45
480.735	7933.66
480.94	7708.38
481.144	7968.48
481.348	7628.51
481.553	7630.56
481.757	7610.08
481.961	7546.59
482.166	7728.86
482.37	7659.23
482.574	7730.91
482.778	7517.92
482.983	7823.07
483.187	7493.35
483.391	7716.58
483.595	7554.79
483.8	7472.87
484.004	7679.71
484.208	7775.97
484.412	7741.15
484.616	7534.31
484.821	7513.83
485.025	7532.26
485.229	7634.66
485.433	7640.8
485.637	7532.26
485.841	7587.55
486.045	7487.2
486.249	7386.85
486.453	7376.61
486.657	7577.31
486.861	7651.04
487.065	7452.39
487.269	7597.79
487.473	7317.22
487.677	7767.77
487.881	7739.1
488.085	7470.82
488.289	7648.99
488.493	7587.55
488.697	7661.28
488.901	7673.57
489.105	7542.5
489.309	7829.21
489.512	7562.98
489.716	7681.76
489.92	7780.06
490.124	7620.32
490.328	7632.61
490.531	7651.04
490.735	7780.06
490.939	7759.58
491.143	7788.25
491.346	7698.14
491.55	7732.96
491.754	7866.08
491.958	7880.41
492.161	7739.1
492.365	7939.8
492.569	7913.18
492.772	7872.22
492.976	7958.24
493.18	8074.97
493.383	7984.86
493.587	8230.62
493.79	8369.88
493.994	8144.6
494.197	8222.42
494.401	8333.01
494.605	8396.5
494.808	8189.66
495.012	8357.59
495.215	8740.56
495.419	8494.8
495.622	8500.95
495.825	8730.32
496.029	8808.14
496.232	8826.57
496.436	8681.17
496.639	9035.47
496.843	9010.89
497.046	9035.47
497.249	9377.48
497.453	9307.85
497.656	9500.36
497.859	9547.46
498.063	9580.23
498.266	9641.67
498.469	9518.79
498.673	9893.57
498.876	9969.34
499.079	10012.35
499.282	9885.37
499.485	10387.13
499.689	10321.59
499.892	10505.91
500.095	10479.29
500.298	10739.38
500.501	10802.86
500.705	11054.76
500.908	11083.44
501.111	11056.81
501.314	11218.6
501.517	11447.97
501.72	11617.96
501.923	11452.07
502.126	11802.27
502.329	12007.07
502.532	11886.24
502.735	11994.78
502.938	12187.29
503.141	12383.9
503.344	12508.82
503.547	12486.29
503.75	12641.94
503.953	12850.83
504.156	13053.58
504.359	13100.69
504.562	13354.63
504.765	13641.35
504.968	13633.16
505.17	13710.98
505.373	13751.94
505.576	14065.28
505.779	14448.25
505.982	14372.47
506.185	14495.35
506.387	14501.5
506.59	14950
506.793	14993.01
506.996	15081.07
507.198	15189.61
507.401	15117.93
507.604	15441.51
507.807	15767.14
508.009	16053.86
508.212	15961.7
508.415	16240.22
508.617	16256.61
508.82	16350.81
509.022	16488.03
509.225	17008.21
509.428	16914
509.63	17131.09
509.833	17172.05
510.035	17706.57
510.238	17356.36
510.44	17888.84
510.643	17987.14
510.845	18226.75
511.048	18085.44
511.25	18579
511.453	18673.21
511.655	19379.76
511.858	18916.92
512.06	19054.13
512.262	19265.07
512.465	19154.48
512.667	19729.96
512.87	19863.08
513.072	19889.7
513.274	20397.6
513.477	20309.54
513.679	20463.13
513.881	20782.62
514.084	21147.15
514.286	21239.31
514.488	21351.95
514.69	21888.52
514.893	21845.51
515.095	22210.05
515.297	22316.54
515.499	22412.8
515.701	22760.95
515.904	22719.99
516.106	23084.53
516.308	23410.16
516.51	23401.97
516.712	23578.09
516.914	24008.17
517.116	24147.43
517.318	24288.74
517.52	24344.03
517.722	24729.05
517.925	24948.18
518.127	25423.31
518.329	25306.58
518.531	24985.05
518.733	25691.6
518.935	25824.72
519.136	26140.1
519.338	26373.57
519.54	26449.35
519.742	26527.17
519.944	26641.85
520.146	27116.98
520.348	27479.47
520.55	27524.53
520.752	27671.98
520.954	28237.22
521.155	27778.48
521.357	28155.3
521.559	28693.92
521.761	28872.09
521.963	28599.71
522.164	28958.11
522.366	29025.69
522.568	29576.59
522.77	29541.78
522.971	29953.42
523.173	29797.77
523.375	30436.74
523.576	29748.62
523.778	29967.76
523.98	30561.67
524.181	30637.44
524.383	30629.25
524.584	31104.38
524.786	30961.02
524.988	31016.32
525.189	31808.88
525.391	31944.05
525.592	31528.31
525.794	32308.58
525.995	31954.29
526.197	32099.69
526.398	32175.47
526.6	32501.09
526.801	32644.45
527.003	32580.96
527.204	32783.71
527.406	32947.55
527.607	33199.45
527.808	33011.04
528.01	32791.9
528.211	33125.72
528.412	34041.17
528.614	33928.53
528.815	33795.41
529.016	33834.32
529.218	33914.19
529.419	33979.73
529.62	34100.56
529.822	33811.79
530.023	34262.35
530.224	34153.8
530.425	33987.92
530.626	34069.84
530.828	33600.85
531.029	34712.9
531.23	34202.96
531.431	34321.74
531.632	34252.11
531.833	34800.96
532.035	34680.13
532.236	34538.82
532.437	34710.85
532.638	34180.43
532.839	34907.46
533.04	34962.75
533.241	34553.16
533.442	35441.98
533.643	35065.15
533.844	34567.49
534.045	34901.31
534.246	34555.21
534.447	34575.69
534.648	34688.32
534.849	34882.88
535.05	34852.16
535.251	34614.6
535.451	34510.15
535.652	35202.36
535.853	34909.5
536.054	35036.48
536.255	35267.9
536.456	34471.24
536.657	35415.35
536.857	34821.44
537.058	34999.62
537.259	35441.98
537.46	35136.83
537.66	34778.43
537.861	34880.83
538.062	34698.56
538.263	34852.16
538.463	34671.94
538.664	34612.55
538.865	35132.73
539.065	35218.75
539.266	35026.24
539.466	35429.69
539.667	34626.88
539.868	35337.53
540.068	34862.4
540.269	34927.94
540.469	34710.85
540.67	34768.19
540.87	34678.08
541.071	34870.59
541.271	34768.19
541.472	35032.38
541.672	34710.85
541.873	35003.71
542.073	34700.61
542.274	35022.14
542.474	34651.46
542.675	34426.18
542.875	34868.55
543.075	34786.63
543.276	34639.17
543.476	35204.41
543.676	34991.42
543.877	34946.37
544.077	34782.53
544.277	34626.88
544.478	34424.14
544.678	35005.76
544.878	34407.75
545.078	34807.11
545.279	34403.66
545.479	34553.16
545.679	34686.28
545.879	34585.93
546.079	34925.89
546.28	34702.66
546.48	34383.18
546.68	34618.69
546.88	34643.27
547.08	34700.61
547.28	34454.86
547.48	34598.21
547.68	34645.32
547.88	34258.25
548.081	34438.47
548.281	34577.73
548.481	34436.42
548.681	34669.89
548.881	34655.56
549.081	34205
549.28	34088.27
549.48	34530.63
549.68	34149.71
549.88	35085.63
550.08	34301.26
550.28	34538.82
550.48	34477.38
550.68	34495.81
550.88	34325.83
551.08	34510.15
551.279	34262.35
551.479	34526.53
551.679	34219.34
551.879	34323.79
552.079	34413.9
552.278	34221.39
552.478	34587.97
552.678	34575.69
552.878	34395.46
553.077	34067.79
553.277	33811.79
553.477	34547.01
553.676	34352.46
553.876	34110.8
554.076	33758.55
554.275	33695.06
554.475	33639.76
554.674	33826.13
554.874	33994.06
555.074	33822.03
555.273	34137.42
555.473	34205
555.672	33785.17
555.872	34162
556.071	33912.14
556.271	33930.58
556.47	33402.2
556.67	33535.32
556.869	33822.03
557.068	33746.26
557.268	33428.82
557.467	33600.85
557.667	33553.75
557.866	33523.03
558.065	33914.19
558.265	33043.81
558.464	33506.65
558.663	33549.65
558.863	33019.23
559.062	33807.7
559.261	33248.6
559.461	33799.51
559.66	33295.71
559.859	33332.57
560.058	32910.69
560.258	33203.55
560.457	33072.48
560.656	33342.81
560.855	32679.27
561.054	32847.2
561.253	32587.11
561.453	32851.3
561.652	32859.49
561.851	33328.47
562.05	32861.54
562.249	32384.36
562.448	32675.17
562.647	32740.71
562.846	32380.26
563.045	32437.61
563.244	32263.53
563.443	32523.62
563.642	31806.83
563.841	32142.7
564.04	31956.33
564.239	32179.56
564.438	31987.05
564.637	31780.21
564.836	31982.96
565.035	31573.36
565.234	31837.55
565.432	31612.27
565.631	31438.2
565.83	31987.05
566.029	31423.86
566.228	31556.98
566.427	31589.75
566.625	30911.87
566.824	30918.01
567.023	31387
567.222	30879.1
567.42	31153.53
567.619	31489.4
567.818	31028.6
568.016	30784.9
568.215	30825.85
568.414	30659.97
568.612	31026.56
568.811	30772.61
569.01	30815.62
569.208	30397.83
569.407	30788.99
569.605	30416.26
569.804	30735.74
570.002	30006.67
570.201	30233.99
570.4	30150.03
570.598	30451.08
570.797	29697.42
570.995	30012.81
571.193	29592.98
571.392	30031.24
571.59	29875.6
571.789	29885.84
571.987	29238.68
572.186	29326.74
572.384	29304.21
572.582	29201.82
572.781	29687.18
572.979	28878.24
573.177	29423
573.376	29103.51
573.574	29017.5
573.772	29388.18
573.971	28945.82
574.169	28667.3
574.367	28536.23
574.565	28771.74
574.763	28409.25
574.962	28663.2
575.16	28030.38
575.358	28257.7
575.556	28165.54
575.754	28573.09
575.952	27950.51
576.151	28288.42
576.349	28030.38
576.547	28030.38
576.745	28134.82
576.943	28108.2
577.141	27831.72
577.339	27805.1
577.537	27893.16
577.735	27420.08
577.933	27088.31
578.131	27553.2
578.329	27491.76
578.527	27211.19
578.725	27205.05
578.923	27098.55
579.121	26848.7
579.319	27139.51
579.516	27043.26
579.714	27194.81
579.912	26965.43
580.11	26828.22
580.308	26623.42
580.506	26650.05
580.704	26101.19
580.901	26635.71
581.099	26764.73
581.297	26164.68
581.495	26342.85
581.692	26482.11
581.89	25787.85
582.088	26361.28
582.285	25714.12
582.483	26201.54
582.681	26060.23
582.878	25687.5
583.076	25781.71
583.274	25613.77
583.471	25417.17
583.669	25710.03
583.866	25318.87
584.064	25667.02
584.262	25275.86
584.459	25511.38
584.657	25097.69
584.854	25241.04
585.052	24829.4
585.249	24960.47
585.447	25118.17
585.644	24464.86
585.841	25042.39
586.039	25316.82
586.236	24688.09
586.434	24454.62
586.631	24620.51
586.828	24694.24
587.026	24755.68
587.223	24249.83
587.42	24192.48
587.618	24266.21
587.815	24073.7
588.012	24038.89
588.21	24167.91
588.407	24280.55
588.604	23492.08
588.801	23711.21
588.999	23580.14
589.196	23539.18
589.393	23467.5
589.59	23633.39
589.787	23209.46
589.984	23414.26
590.182	23369.2
590.379	23475.7
590.576	23274.99
590.773	23203.32
590.97	23158.26
591.167	23094.77
591.364	22769.15
591.561	23242.23
591.758	22806.01
591.955	22748.67
592.152	22808.06
592.349	22701.56
592.546	22685.18
592.743	22683.13
592.94	21995.01
593.137	22351.36
593.334	22771.19
593.531	22408.7
593.727	22214.15
593.924	22185.47
594.121	22070.79
594.318	22066.69
594.515	21831.18
594.712	22001.16
594.908	21808.65
595.105	21691.91
595.302	21677.58
595.499	21585.42
595.696	21708.3
595.892	21321.23
596.089	21376.53
596.286	21616.14
596.482	21540.36
596.679	21456.4
596.876	21188.11
597.072	21069.33
597.269	21141.01
597.466	21042.71
597.662	20684.31
597.859	20813.34
598.055	20958.74
598.252	20391.45
598.448	20772.38
598.645	20672.03
598.841	20506.14
599.038	20346.4
599.234	20489.76
599.431	20334.11
599.627	20264.48
599.824	20618.78
600.02	19924.52
600.217	19957.28
600.413	19901.99
600.609	20067.88
600.806	19932.71
601.002	20104.74
601.198	19795.5
601.395	19709.48
601.591	19457.58
601.787	19633.71
601.984	19371.57
602.18	19615.27
602.376	19445.29
602.572	19322.41
602.769	19289.65
602.965	18957.88
603.161	19279.41
603.357	19334.7
603.553	19004.98
603.75	19029.55
603.946	18783.8
604.142	18740.79
604.338	18828.85
604.534	18964.02
604.73	18662.97
604.926	18689.59
605.122	18742.84
605.318	18568.76
605.514	18236.99
605.71	18456.12
605.906	18454.08
606.102	18466.36
606.298	18398.78
606.494	18380.35
606.69	18492.99
606.886	18300.48
607.082	18013.76
607.278	18415.16
607.474	18126.4
607.67	18062.91
607.866	18191.94
608.062	18150.98
608.257	17989.19
608.453	17794.63
608.649	17878.6
608.845	17638.98
609.041	17962.56
609.236	17878.6
609.432	17593.93
609.628	17708.62
609.824	17579.59
610.019	17485.39
610.215	17299.02
610.411	17720.9
610.606	17184.34
610.802	17456.71
610.998	17270.35
611.193	17213.01
611.389	17276.49
611.584	17077.84
611.78	17258.06
611.976	17174.1
612.171	17311.31
612.367	17081.94
612.562	17170
612.758	16741.97
612.953	16848.47
613.149	17157.71
613.344	16651.86
613.539	16967.25
613.735	16901.72
613.93	16897.62
614.126	16664.15
614.321	17086.03
614.517	16756.31
614.712	16692.82
614.907	16549.46
615.103	16717.4
615.298	16369.24
615.493	16752.21
615.688	16465.5
615.884	16647.77
616.079	16334.43
616.274	16496.22
616.47	16103.01
616.665	16356.96
616.86	16359
617.055	15939.17
617.25	16123.49
617.445	16244.32
617.641	16154.21
617.836	16338.52
618.031	15998.56
618.226	16176.73
618.421	16021.09
618.616	15873.64
618.811	15906.4
619.006	16021.09
619.201	15533.67
619.396	15808.1
619.591	15400.55
619.786	15717.99
619.981	15386.22
620.176	15373.93
620.371	15447.66
620.566	15283.82
620.761	15267.44
620.956	15271.53
621.151	14997.1
621.346	15105.65
621.541	14816.88
621.735	14950
621.93	14677.62
622.125	14937.71
622.32	14536.31
622.515	14581.37
622.709	14683.77
622.904	14534.26
623.099	14605.94
623.294	14499.45
623.488	14395
623.683	14243.45
623.878	14059.13
624.072	14052.99
624.267	14020.22
624.462	13842.05
624.656	13917.82
624.851	13780.61
625.046	13825.67
625.24	13768.32
625.435	13567.62
625.629	13610.63
625.824	13356.68
626.018	13350.54
626.213	13080.21
626.407	13307.53
626.602	12701.33
626.796	13104.78
626.991	12924.56
627.185	12879.5
627.38	12809.87
627.574	12637.84
627.768	12670.61
627.963	12609.17
628.157	12449.43
628.352	12768.91
628.546	12355.22
628.74	12271.26
628.935	12250.78
629.129	12158.62
629.323	12220.06
629.517	11925.15
629.712	12273.31
629.906	11968.16
630.1	11855.52
630.294	11837.09
630.489	11861.66
630.683	11818.66
630.877	11601.57
631.071	11558.56
631.265	11501.22
631.459	11513.51
631.653	11548.33
631.848	11435.69
632.042	11345.58
632.236	11134.64
632.43	11171.5
632.624	11191.98
632.818	11071.15
633.012	10708.66
633.206	10942.13
633.4	11065
633.594	10911.41
633.788	10897.07
633.982	10630.84
634.176	10698.42
634.369	10663.6
634.563	10624.69
634.757	10602.16
634.951	10557.11
635.145	10378.93
635.339	10536.63
635.533	10311.35
635.726	10327.74
635.92	10176.19
636.114	10303.16
636.308	10065.6
636.501	10096.32
636.695	10034.88
636.889	9991.87
637.083	9752.26
637.276	9754.3
637.47	9797.31
637.664	9664.19
637.857	9754.3
638.051	9639.62
638.244	9539.27
638.438	9414.34
638.632	9533.12
638.825	9379.53
639.019	9277.13
639.212	9260.74
639.406	9309.9
639.599	9129.67
639.793	9512.64
639.986	9064.14
640.18	9166.54
640.373	9174.73
640.567	8693.46
640.76	8847.05
640.954	8877.77
641.147	8668.88
641.34	8672.98
641.534	8896.21
641.727	8529.62
641.92	8693.46
642.114	8607.44
642.307	8543.95
642.5	8421.08
642.694	8306.39
642.887	8273.62
643.08	8322.77
643.273	8337.11
643.467	8394.45
643.66	8273.62
643.853	8341.21
644.046	8079.07
644.239	7943.9
644.432	8158.94
644.626	7864.03
644.819	7845.6
645.012	8052.44
645.205	7851.74
645.398	7880.41
645.591	7870.17
645.784	7812.83
645.977	7558.88
646.17	7489.25
646.363	7534.31
646.556	7487.2
646.749	7483.11
646.942	7237.35
647.135	7526.11
647.328	7349.99
647.521	7505.63
647.714	7268.07
647.907	7114.47
648.099	7268.07
648.292	7356.13
648.485	7046.89
648.678	7085.8
648.871	6993.64
649.064	6962.92
649.256	7161.58
649.449	7053.03
649.642	6921.96
649.835	6911.72
650.027	6881
650.22	6776.56
650.413	6770.41
650.605	6883.05
650.798	6676.21
650.991	6645.49
651.183	6674.16
651.376	6528.75
651.568	6510.32
651.761	6577.9
651.954	6510.32
652.146	6395.64
652.339	6385.4
652.531	6414.07
652.724	6461.17
652.916	6252.28
653.109	6354.68
653.301	6184.69
653.494	6237.94
653.686	6151.93
653.879	6311.67
654.071	6104.82
654.263	6092.54
654.456	6225.65
654.648	5973.75
654.84	5897.98
655.033	5957.37
655.225	6047.48
655.417	5945.08
655.61	5922.55
655.802	5838.59
655.994	5887.74
656.186	5773.05
656.379	5854.97
656.571	5889.79
656.763	5764.86
656.955	5660.41
657.148	5848.83
657.34	5420.8
657.532	5570.3
657.724	5490.43
657.916	5512.96
658.108	5570.3
658.3	5422.85
658.492	5515.01
658.684	5291.78
658.876	5435.14
659.068	5451.52
659.26	5232.39
659.452	5248.77
659.644	5412.61
659.836	5177.09
660.028	5226.25
660.22	5093.13
660.412	5066.5
660.604	5056.26
660.796	5060.36
660.988	5158.66
661.18	5023.5
661.372	5011.21
661.563	5125.9
661.755	4898.57
661.947	4947.72
662.139	4685.58
662.331	4794.12
662.522	4798.22
662.714	4771.6
662.906	4814.6
663.097	4810.51
663.289	4771.6
663.481	4767.5
663.673	4765.45
663.864	4529.94
664.056	4591.38
664.247	4693.77
664.439	4661.01
664.631	4544.27
664.822	4511.5
665.014	4413.2
665.205	4435.73
665.397	4470.55
665.588	4431.63
665.78	4355.86
665.971	4486.93
666.163	4300.56
666.354	4392.72
666.546	4300.56
666.737	4370.19
666.929	4327.19
667.12	4253.46
667.311	4177.69
667.503	4138.77
667.694	4235.03
667.885	4091.67
668.077	4196.12
668.268	4013.85
668.459	4171.54
668.651	4171.54
668.842	4151.06
669.033	4028.18
669.224	4024.09
669.416	4022.04
669.607	3979.03
669.798	3909.4
669.989	3940.12
670.18	4011.8
670.371	3962.65
670.563	3874.59
670.754	3987.22
670.945	3933.98
671.136	3979.03
671.327	3913.5
671.518	3774.24
671.709	3809.05
671.9	3680.03
672.091	3784.48
672.282	3823.39
672.473	3608.35
672.664	3671.84
672.855	3733.28
673.046	3602.21
673.237	3747.61
673.428	3548.96
673.619	3700.51
673.809	3671.84
674	3624.73
674.191	3581.73
674.382	3419.94
674.573	3606.3
674.764	3520.29
674.954	3540.77
675.145	3495.71
675.336	3364.64
675.527	3479.33
675.717	3442.46
675.908	3376.93
676.099	3512.1
676.289	3454.75
676.48	3415.84
676.671	3372.83
676.861	3335.97
677.052	3424.03
677.243	3381.03
677.433	3335.97
677.624	3503.9
677.814	3215.14
678.005	3309.35
678.195	3305.25
678.386	3366.69
678.576	3168.04
678.767	3145.51
678.957	3200.8
679.148	3352.35
679.338	3153.7
679.529	3170.08
679.719	3071.78
679.909	3235.62
680.1	3145.51
680.29	3174.18
680.481	3219.24
680.671	3135.27
680.861	2967.34
681.052	3147.56
681.242	3094.31
681.432	2985.77
681.622	3036.97
681.813	2926.38
682.003	3065.64
682.193	2965.29
682.383	2932.52
682.573	2983.72
682.764	3043.11
682.954	2998.06
683.144	2922.28
683.334	2897.71
683.524	2817.83
683.714	2920.23
683.904	2938.66
684.094	2973.48
684.284	2869.03
684.474	3030.82
684.664	2991.91
684.854	2848.55
685.044	2946.86
685.234	2934.57
685.424	2897.71
685.614	2832.17
685.804	2823.98
685.994	2864.94
686.184	2922.28
686.374	2823.98
686.564	2819.88
686.753	2760.49
686.943	2686.76
687.133	2715.44
687.323	2633.52
687.513	2840.36
687.702	2604.85
687.892	2799.4
688.082	2744.11
688.272	2735.92
688.461	2643.76
688.651	2735.92
688.841	2553.65
689.03	2801.45
689.22	2586.41
689.41	2586.41
689.599	2598.7
689.789	2557.74
689.979	2619.18
690.168	2576.17
690.358	2553.65
690.547	2463.54
690.737	2531.12
690.926	2572.08
691.116	2467.63
691.305	2561.84
691.495	2490.16
691.684	2430.77
691.874	2561.84
692.063	2455.34
692.252	2422.58
692.442	2377.52
692.631	2383.66
692.82	2527.02
693.01	2424.62
693.199	2402.1
693.388	2373.43
693.578	2318.13
693.767	2537.26
693.956	2283.31
694.146	2283.31
694.335	2402.1
694.524	2260.79
694.713	2422.58
694.902	2316.08
695.092	2234.16
695.281	2357.04
695.47	2246.45
695.659	2217.78
695.848	2371.38
696.037	2287.41
696.226	2225.97
696.415	2293.55
696.604	2291.51
696.793	2293.55
696.982	2275.12
697.171	2203.44
697.36	2359.09
697.549	2330.42
697.738	2250.55
697.927	2162.48
698.116	2209.59
698.305	2185.01
698.494	2242.36
698.683	2250.55
698.872	2260.79
699.061	2316.08
699.25	2127.67
699.438	2127.67
699.627	2129.72
699.816	2287.41
700.005	2223.92
700.193	2217.78
700.382	2137.91
700.571	2154.29
700.76	2160.44
700.948	2279.22
701.137	2111.29
701.326	2135.86
701.514	2207.54
701.703	2285.36
701.892	2090.81
702.08	2252.59
702.269	2154.29
702.457	2201.4
702.646	2123.57
702.834	2082.61
703.023	2025.27
703.212	2176.82
703.4	2189.11
703.589	2060.09
703.777	2193.2
703.965	2094.9
704.154	2195.25
704.342	2035.51
704.531	2203.44
704.719	2123.57
704.907	2127.67
705.096	2080.57
705.284	2060.09
705.472	2144.05
705.661	1955.64
705.849	2094.9
706.037	2213.68
706.226	2086.71
706.414	2072.37
706.602	2015.03
706.79	2023.22
706.979	2058.04
707.167	2113.33
707.355	2066.23
707.543	2123.57
707.731	2121.52
707.919	2119.48
708.107	2058.04
708.296	2074.42
708.484	2129.72
708.672	2099
708.86	2135.86
709.048	2006.84
709.236	2144.05
709.424	2041.65
709.612	2103.09
709.8	2078.52
709.988	1980.22
710.176	2156.34
710.364	2094.9
710.551	2086.71
710.739	1984.31
710.927	1910.58
711.115	1992.5
711.303	2060.09
711.491	2078.52
711.679	1953.59
711.866	2105.14
712.054	2033.46
712.242	1982.26
712.43	2049.85
712.617	2017.08
712.805	2086.71
712.993	2064.18
713.181	1984.31
713.368	2023.22
713.556	1994.55
713.744	1920.82
713.931	2064.18
714.119	2152.24
714.306	2002.74
714.494	2045.75
714.682	1943.35
714.869	2066.23
715.057	2031.41
715.244	2025.27
715.432	1992.5
715.619	2008.89
715.807	2060.09
715.994	2119.48
716.182	1988.41
716.369	2035.51
716.556	2004.79
716.744	1961.78
716.931	1947.45
717.119	1939.26
717.306	2041.65
717.493	2066.23
717.681	1988.41
717.868	2070.33
718.055	1945.4
718.242	2062.13
718.43	1937.21
718.617	1933.11
718.804	1976.12
718.991	2086.71
719.179	2027.32
719.366	2031.41
719.553	1967.93
719.74	2203.44
719.927	1967.93
720.114	2017.08
720.301	2088.76
720.488	1955.64
720.676	2047.8
720.863	1957.69
721.05	2123.57
721.237	2088.76
721.424	2074.42
721.611	2053.94
721.798	2105.14
721.985	2000.69
722.172	1892.15
722.358	1879.86
722.545	2041.65
722.732	1986.36
722.919	2035.51
723.106	2025.27
723.293	1892.15
723.48	1867.58
723.667	2055.99
723.853	1978.17
724.04	2066.23
724.227	1947.45
724.414	2047.8
724.6	1996.6
724.787	2053.94
724.974	2021.17
725.161	2090.81
725.347	1929.02
725.534	2012.98
725.72	2039.61
725.907	1990.45
726.094	1914.68
726.28	1982.26
726.467	1955.64
726.653	1969.98
726.84	1892.15
727.027	2021.17
727.213	1939.26
727.4	2096.95
727.586	2051.89
727.773	1918.78
727.959	2025.27
728.145	1943.35
728.332	1965.88
728.518	1926.97
728.705	1982.26
728.891	1908.54
729.077	2012.98
729.264	1894.2
729.45	1929.02
729.636	1996.6
729.823	2047.8
730.009	1955.64
730.195	1972.02
730.382	1935.16
730.568	1937.21
730.754	2012.98
730.94	1967.93
731.126	1933.11
731.313	1982.26
731.499	1996.6
731.685	1935.16
731.871	2012.98
732.057	1982.26
732.243	2006.84
732.429	1953.59
732.615	1906.49
732.801	1902.39
732.987	1875.77
733.173	1978.17
733.359	2029.37
733.545	1980.22
733.731	2008.89
733.917	1998.65
734.103	2070.33
734.289	1974.07
734.475	1935.16
734.661	1978.17
734.847	1922.87
735.033	1984.31
735.219	1986.36
735.404	1918.78
735.59	1906.49
735.776	1929.02
735.962	1924.92
736.148	2023.22
736.333	1963.83
736.519	2037.56
736.705	1939.26
736.89	1824.57
737.076	1890.1
737.262	1853.24
737.447	1859.38
737.633	1822.52
737.819	1914.68
738.004	1754.94
738.19	1988.41
738.375	1904.44
738.561	1879.86
738.747	1849.15
738.932	1861.43
739.118	1738.55
739.303	1859.38
739.489	1941.3
739.674	1873.72
739.859	1877.82
740.045	1853.24
740.23	1916.73
740.416	1795.9
740.601	1828.67
740.786	1806.14
740.972	1865.53
741.157	1849.15
741.342	1742.65
741.528	1759.03
741.713	1818.43
741.898	1742.65
742.084	1793.85
742.269	1767.23
742.454	1642.3
742.639	1736.51
742.824	1812.28
743.01	1752.89
743.195	1783.61
743.38	1711.93
743.565	1799.99
743.75	1730.36
743.935	1767.23
744.12	1769.27
744.305	1689.4
744.49	1679.16
744.675	1722.17
744.86	1679.16
745.045	1660.73
745.23	1707.84
745.415	1642.3
745.6	1621.82
745.785	1640.25
745.97	1668.92
746.155	1670.97
746.34	1654.59
746.525	1593.15
746.71	1668.92
746.895	1558.33
747.079	1666.88
747.264	1523.52
747.449	1681.21
747.634	1566.53
747.819	1587.01
748.003	1488.7
748.188	1529.66
748.373	1455.94
748.557	1492.8
748.742	1496.89
748.927	1474.37
749.111	1572.67
749.296	1472.32
749.481	1468.22
749.665	1431.36
749.85	1480.51
750.034	1476.41
750.219	1443.65
750.404	1402.69
750.588	1437.5
750.773	1333.06
750.957	1464.13
751.141	1410.88
751.326	1496.89
751.51	1374.02
751.695	1371.97
751.879	1333.06
752.064	1546.05
752.248	1367.87
752.432	1398.59
752.617	1273.67
752.801	1324.87
752.985	1328.96
753.17	1335.1
753.354	1376.06
753.538	1308.48
753.722	1308.48
753.907	1253.19
754.091	1236.8
754.275	1183.56
754.459	1181.51
754.643	1234.75
754.828	1267.52
755.012	1300.29
755.196	1201.99
755.38	1300.29
755.564	1163.08
755.748	1138.5
755.932	1236.8
756.116	1154.88
756.3	1220.42
756.484	1206.08
756.668	1083.2
756.852	1169.22
757.036	1103.68
757.22	1107.78
757.404	1173.32
757.588	1165.12
757.772	1169.22
757.956	1193.8
758.14	1134.4
758.323	1048.39
758.507	1095.49
758.691	1107.78
758.875	1001.29
759.059	1005.38
759.242	1054.53
759.426	1103.68
759.61	1054.53
759.794	1113.92
759.977	1089.35
760.161	1095.49
760.345	1021.77
760.528	1054.53
760.712	1009.48
760.895	1029.96
761.079	993.09
761.263	1062.73
761.446	954.18
761.63	941.89
761.813	943.94
761.997	825.16
762.18	1005.38
762.364	964.42
762.547	880.46
762.731	853.83
762.914	915.27
763.098	964.42
763.281	927.56
763.464	876.36
763.648	933.7
763.831	900.94
764.015	845.64
764.198	972.61
764.381	894.79
764.564	945.99
764.748	882.5
764.931	902.98
765.114	829.26
765.297	982.85
765.481	829.26
765.664	921.42
765.847	870.22
766.03	925.51
766.213	816.97
766.397	808.78
766.58	890.7
766.763	833.35
766.946	790.35
767.129	849.74
767.312	925.51
767.495	845.64
767.678	780.11
767.861	841.54
768.044	769.87
768.227	761.67
768.41	767.82
768.593	845.64
768.776	796.49
768.959	878.41
769.142	808.78
769.324	769.87
769.507	819.02
769.69	851.78
769.873	788.3
770.056	823.11
770.239	739.15
770.421	829.26
770.604	763.72
770.787	743.24
770.97	780.11
771.152	712.52
771.335	728.91
771.518	735.05
771.7	745.29
771.883	849.74
772.066	751.43
772.248	827.21
772.431	751.43
772.613	712.52
772.796	751.43
772.978	806.73
773.161	814.92
773.343	655.18
773.526	751.43
773.708	694.09
773.891	681.8
774.073	771.91
774.256	642.89
774.438	642.89
774.621	745.29
774.803	696.14
774.985	657.23
775.168	761.67
775.35	669.52
775.532	694.09
775.715	710.47
775.897	696.14
776.079	692.04
776.261	667.47
776.444	667.47
776.626	630.6
776.808	661.32
776.99	677.71
777.173	663.37
777.355	679.75
777.537	644.94
777.719	689.99
777.901	702.28
778.083	606.03
778.265	620.36
778.447	608.08
778.629	573.26
778.811	618.32
778.993	636.75
779.175	644.94
779.357	665.42
779.539	505.68
779.721	501.58
779.903	522.06
780.085	534.35
780.267	563.02
780.449	587.6
780.631	538.45
780.812	567.12
780.994	534.35
781.176	474.96
781.358	497.49
781.54	522.06
781.721	470.86
781.903	620.36
782.085	552.78
782.267	534.35
782.448	440.14
782.63	499.53
782.812	515.92
782.993	524.11
783.175	483.15
783.357	444.24
783.538	554.83
783.72	515.92
783.901	472.91
784.083	573.26
784.264	538.45
784.446	474.96
784.627	421.71
784.809	479.05
784.99	497.49
785.172	460.62
785.353	440.14
785.535	393.04
785.716	382.8
785.897	415.57
786.079	329.55
786.26	501.58
786.441	491.34
786.623	419.66
786.804	431.95
786.985	390.99
787.167	366.42
787.348	417.61
787.529	442.19
787.71	464.72
787.891	382.8
788.073	300.88
788.254	378.7
788.435	460.62
788.616	343.89
788.797	366.42
788.978	390.99
789.159	405.33
789.34	434
789.522	362.32
789.703	380.75
789.884	368.46
790.065	401.23
790.246	368.46
790.427	360.27
790.607	415.57
790.788	345.94
790.969	341.84
791.15	325.46
791.331	313.17
791.512	362.32
791.693	341.84
791.874	317.26
792.054	352.08
792.235	376.66
792.416	411.47
792.597	311.12
792.778	278.35
792.958	325.46
793.139	309.07
793.32	370.51
793.5	354.13
793.681	341.84
793.862	317.26
794.042	304.98
794.223	294.74
794.404	317.26
794.584	270.16
794.765	317.26
794.945	335.7
795.126	294.74
795.306	313.17
795.487	317.26
795.667	294.74
795.848	282.45
796.028	294.74
796.209	296.78
796.389	261.97
796.57	249.68
796.75	274.26
796.93	243.54
797.111	341.84
797.291	333.65
797.471	280.4
797.652	253.78
797.832	218.96
798.012	319.31
798.192	153.43
798.373	221.01
798.553	241.49
798.733	270.16
798.913	294.74
799.093	210.77
799.274	251.73
799.454	302.93
799.634	261.97
799.814	245.59
799.994	235.35
800.174	317.26
800.354	163.67
800.534	253.78
800.714	356.18
800.894	218.96
801.074	227.15
801.254	266.07
801.434	243.54
801.614	251.73
801.794	186.19
801.974	859.98
802.154	227.15
802.334	284.5
802.514	247.63
802.693	180.05
802.873	206.67
803.053	335.7
803.233	151.38
803.413	243.54
803.592	163.67
803.772	239.44
803.952	196.43
804.131	218.96
804.311	247.63
804.491	231.25
804.67	243.54
804.85	223.06
805.03	171.86
805.209	216.91
805.389	190.29
805.568	190.29
805.748	196.43
805.928	169.81
806.107	169.81
806.287	235.35
806.466	200.53
806.646	243.54
806.825	120.66
807.004	202.58
807.184	163.67
807.363	196.43
807.543	188.24
807.722	132.95
807.901	182.1
808.081	206.67
808.26	100.18
808.439	188.24
808.619	200.53
808.798	204.63
808.977	139.09
809.156	210.77
809.336	198.48
809.515	141.14
809.694	171.86
809.873	169.81
810.052	139.09
810.231	165.71
810.411	216.91
810.59	194.39
810.769	139.09
810.948	155.47
811.127	124.76
811.306	221.01
811.485	169.81
811.664	120.66
811.843	204.63
812.022	128.85
812.201	151.38
812.38	173.91
812.559	104.28
812.737	178
812.916	188.24
813.095	124.76
813.274	122.71
813.453	169.81
813.632	145.24
813.811	173.91
813.989	126.8
814.168	178
814.347	147.28
814.526	153.43
814.704	229.2
814.883	155.47
815.062	75.6
815.24	206.67
815.419	85.84
815.598	188.24
815.776	87.89
815.955	137.04
816.133	59.22
816.312	128.85
816.49	112.47
816.669	132.95
816.847	120.66
817.026	145.24
817.204	120.66
817.383	149.33
817.561	116.56
817.74	161.62
817.918	71.51
818.097	145.24
818.275	128.85
818.453	128.85
818.632	169.81
818.81	110.42
818.988	48.98
819.167	132.95
819.345	89.94
819.523	122.71
819.701	149.33
819.879	128.85
820.058	94.04
820.236	120.66
820.414	91.99
820.592	169.81
820.77	145.24
820.948	153.43
821.127	83.8
821.305	91.99
821.483	79.7
821.661	143.19
821.839	153.43
822.017	112.47
822.195	153.43
822.373	202.58
822.551	91.99
822.729	91.99
822.907	132.95
823.085	124.76
823.262	71.51
823.44	81.75
823.618	96.08
823.796	57.17
823.974	104.28
824.152	128.85
824.329	71.51
824.507	71.51
824.685	171.86
824.863	63.32
825.04	42.84
825.218	94.04
825.396	145.24
825.574	59.22
825.751	59.22
825.929	36.69
826.107	71.51
826.284	145.24
826.462	71.51
826.639	169.81
826.817	46.93
826.994	143.19
827.172	46.93
827.349	165.71
827.527	79.7
827.704	57.17
827.882	116.56
828.059	59.22
828.237	69.46
828.414	112.47
828.591	73.56
828.769	104.28
828.946	120.66
829.124	100.18
829.301	122.71
829.478	96.08
829.655	81.75
829.833	106.32
830.01	30.55
830.187	57.17
830.364	40.79
830.542	163.67
830.719	153.43
830.896	79.7
831.073	104.28
831.25	137.04
831.427	40.79
831.604	51.03
831.782	14.17
831.959	108.37
832.136	75.6
832.313	98.13
832.49	61.27
832.667	73.56
832.844	38.74
833.021	122.71
833.198	106.32
833.374	104.28
833.551	59.22
833.728	65.36
833.905	46.93
834.082	73.56
834.259	28.5
834.436	122.71
834.612	71.51
834.789	112.47
834.966	57.17
835.143	40.79
835.319	46.93
835.496	30.55
835.673	14.17
835.85	67.41
836.026	57.17
836.203	128.85
836.38	12.12
836.556	116.56
836.733	22.36
836.909	112.47
837.086	155.47
837.262	96.08
837.439	57.17
837.616	5.97
837.792	48.98
837.968	40.79
838.145	-18.6
838.321	81.75
838.498	48.98
838.674	98.13
838.851	122.71
839.027	59.22
839.203	110.42
839.38	130.9
839.556	65.36
839.732	73.56
839.909	132.95
840.085	65.36
840.261	63.32
840.437	-2.22
840.614	75.6
840.79	59.22
840.966	44.88
841.142	73.56
841.318	73.56
841.494	96.08
841.671	-8.36
841.847	51.03
842.023	42.84
842.199	38.74
842.375	124.76
842.551	38.74
842.727	59.22
842.903	89.94
843.079	5.97
843.255	71.51
843.431	12.12
843.607	-32.94
843.783	-18.6
843.959	87.89
844.134	10.07
844.31	38.74
844.486	10.07
844.662	16.21
844.838	-18.6
845.013	10.07
845.189	42.84
845.365	104.28
845.541	55.12
845.716	55.12
845.892	73.56
846.068	46.93
846.244	42.84
846.419	71.51
846.595	-10.41
846.77	-34.99
846.946	71.51
847.122	34.64
847.297	38.74
847.473	75.6
847.648	-41.13
847.824	81.75
847.999	-69.8
848.175	48.98
848.35	46.93
848.526	32.6
848.701	79.7
848.876	81.75
849.052	51.03
849.227	65.36
849.403	-43.18
849.578	79.7
849.753	32.6
849.929	104.28
850.104	-6.31
850.279	65.36
850.454	8.02
850.63	34.64
850.805	57.17
850.98	20.31
851.155	24.4
851.33	-22.7
851.505	57.17
851.681	83.8
851.856	-121
852.031	63.32
852.206	-10.41
852.381	-8.36
852.556	-2.22
852.731	5.97
852.906	-6.31
853.081	14.17
853.256	18.26
853.431	26.45
853.606	46.93
853.781	5.97
853.956	38.74
854.131	40.79
854.305	30.55
854.48	77.65
854.655	-8.36
854.83	75.6
855.005	14.17
855.18	46.93
855.354	34.64
855.529	48.98
855.704	-2.22
855.879	30.55
856.053	-18.6
856.228	30.55
856.403	34.64
856.577	61.27
856.752	-34.99
856.926	63.32
857.101	10.07
857.276	-34.99
857.45	96.08
857.625	96.08
857.799	46.93
857.974	36.69
858.148	-28.84
858.323	69.46
858.497	24.4
858.672	-18.6
858.846	18.26
859.02	102.23
859.195	20.31
859.369	53.08
859.543	22.36
859.718	100.18
859.892	24.4
860.066	55.12
860.241	12.12
860.415	77.65
860.589	28.5
860.763	-16.55
860.938	-6.31
861.112	40.79
861.286	-10.41
861.46	1.88
861.634	8.02
861.808	59.22
861.982	-45.23
862.157	-2.22
862.331	-2.22
862.505	-4.27
862.679	30.55
862.853	73.56
863.027	81.75
863.201	71.51
863.375	38.74
863.549	71.51
863.722	112.47
863.896	36.69
864.07	-34.99
864.244	-43.18
864.418	16.21
864.592	26.45
864.766	1.88
864.939	16.21
865.113	32.6
865.287	14.17
865.461	40.79
865.634	18.26
865.808	16.21
865.982	71.51
866.156	34.64
866.329	65.36
866.503	18.26
866.676	77.65
866.85	63.32
867.024	46.93
867.197	87.89
867.371	46.93
867.544	51.03
867.718	10.07
867.891	5.97
868.065	18.26
868.238	24.4
868.412	8.02
868.585	28.5
868.759	34.64
868.932	10.07
869.105	-12.46
869.279	1.88
869.452	26.45
869.625	-22.7
869.799	48.98
869.972	-32.94
870.145	71.51
870.319	75.6
870.492	24.4
870.665	-2.22
870.838	-47.27
871.011	-43.18
871.185	-41.13
871.358	5.97
871.531	34.64
871.704	-24.75
871.877	112.47
872.05	75.6
872.223	40.79
872.396	30.55
872.569	34.64
872.742	22.36
872.915	-10.41
873.088	24.4
873.261	59.22
873.434	-59.56
873.607	-2.22
873.78	-10.41
873.953	-24.75
874.126	22.36
874.299	38.74
874.471	48.98
874.644	-16.55
874.817	63.32
874.99	26.45
875.163	26.45
875.335	10.07
875.508	14.17
875.681	79.7
875.853	-75.95
876.026	87.89
876.199	38.74
876.371	26.45
876.544	46.93
876.717	32.6
876.889	-30.89
877.062	-10.41
877.234	12.12
877.407	5.97
877.579	-22.7
877.752	38.74
877.924	40.79
878.097	87.89
878.269	69.46
878.442	-14.51
878.614	55.12
878.786	44.88
878.959	-4.27
879.131	42.84
879.303	46.93
879.476	-8.36
879.648	98.13
879.82	100.18
879.993	46.93
880.165	55.12
880.337	51.03
880.509	55.12
880.681	48.98
880.854	1.88
881.026	34.64
881.198	67.41
881.37	26.45
881.542	-2.22
881.714	71.51
881.886	-18.6
882.058	79.7
882.23	24.4
882.402	-34.99
882.574	-6.31
882.746	5.97
882.918	36.69
883.09	-41.13
883.262	63.32
883.434	-65.71
883.606	-22.7
883.778	18.26
883.95	18.26
884.122	-10.41
884.293	32.6
884.465	40.79
884.637	65.36
884.809	108.37
884.98	30.55
885.152	63.32
885.324	114.52
885.496	-43.18
885.667	-8.36
885.839	-30.89
886.011	104.28
886.182	34.64
886.354	-43.18
886.525	-32.94
886.697	-10.41
886.869	-26.79
887.04	26.45
887.212	42.84
887.383	30.55
887.555	22.36
887.726	-8.36
887.897	-34.99
888.069	-45.23
888.24	-4.27
888.412	26.45
888.583	-10.41
888.754	30.55
888.926	-24.75
889.097	-47.27
889.268	-114.86
889.44	46.93
889.611	-34.99
889.782	-43.18
889.953	-0.17
890.125	16.21
890.296	-47.27
890.467	-37.03
890.638	-0.17
890.809	-67.75
890.98	5.97
891.151	48.98
891.323	3.93
891.494	-49.32
891.665	-4.27
891.836	-14.51
892.007	-34.99
892.178	-41.13
892.349	18.26
892.52	-39.08
892.691	22.36
892.862	10.07
893.032	-41.13
893.203	-39.08
893.374	10.07
893.545	22.36
893.716	-2.22
893.887	14.17
894.057	-59.56
894.228	30.55
894.399	34.64
894.57	5.97
894.74	8.02
894.911	69.46
895.082	26.45
895.253	48.98
895.423	-14.51
895.594	20.31
895.764	-26.79
895.935	-43.18
896.106	51.03
896.276	-39.08
896.447	-24.75
896.617	8.02
896.788	-22.7
896.958	-41.13
897.129	55.12
897.299	-0.17
897.47	-51.37
897.64	38.74
897.81	-39.08
897.981	22.36
898.151	-10.41
898.322	61.27
898.492	42.84
898.662	-24.75
898.832	-0.17
899.003	30.55
899.173	71.51
899.343	1.88
899.513	5.97
