Data from USB4F104151__222__14-45-32-846.txt Node

Date: Thu Mar 13 14:45:32 EDT 2025
User: louis
Spectrometer: USB4F10415
Trigger mode: 4
Integration Time (sec): 2.000000E-2
Scans to average: 1
Electric dark correction enabled: true
Nonlinearity correction enabled: false
Boxcar width: 0
XAxis mode: Wavelengths
Number of Pixels in Spectrum: 3648
>>>>>Begin Spectral Data<<<<<
178.204	-132.78
178.424	-132.78
178.644	-132.78
178.864	-112.3
179.084	-118.44
179.304	-26.28
179.524	-13.99
179.744	-40.62
179.964	41.3
180.184	33.11
180.404	22.87
180.624	-28.33
180.844	-9.9
181.064	-61.1
181.283	31.06
181.503	-3.75
181.723	55.64
181.943	-26.28
182.163	78.16
182.383	-7.85
182.602	39.25
182.822	80.21
183.042	106.84
183.262	14.68
183.482	31.06
183.701	-5.8
183.921	-46.76
184.141	69.97
184.361	63.83
184.58	41.3
184.8	57.68
185.02	39.25
185.239	-5.8
185.459	31.06
185.679	16.73
185.898	8.53
186.118	100.69
186.338	24.92
186.557	33.11
186.777	0.34
186.997	-63.15
187.216	18.77
187.436	86.36
187.655	33.11
187.875	22.87
188.095	-81.58
188.314	80.21
188.534	90.45
188.753	-16.04
188.973	41.3
189.192	72.02
189.412	37.2
189.631	14.68
189.851	33.11
190.07	84.31
190.29	35.16
190.509	39.25
190.729	-9.9
190.948	65.88
191.168	155.99
191.387	51.54
191.607	-38.57
191.826	-9.9
192.045	16.73
192.265	-20.14
192.484	2.39
192.704	51.54
192.923	35.16
193.142	121.17
193.362	112.98
193.581	33.11
193.8	67.92
194.02	55.64
194.239	16.73
194.458	16.73
194.678	43.35
194.897	22.87
195.116	31.06
195.335	47.44
195.555	22.87
195.774	41.3
195.993	112.98
196.212	2.39
196.432	-32.43
196.651	63.83
196.87	39.25
197.089	119.12
197.308	2.39
197.528	115.03
197.747	31.06
197.966	0.34
198.185	94.55
198.404	10.58
198.623	6.49
198.842	88.4
199.062	35.16
199.281	35.16
199.5	-22.19
199.719	35.16
199.938	39.25
200.157	37.2
200.376	24.92
200.595	112.98
200.814	-26.28
201.033	35.16
201.252	121.17
201.471	6.49
201.69	86.36
201.909	41.3
202.128	72.02
202.347	82.26
202.566	51.54
202.785	47.44
203.004	-16.04
203.223	110.93
203.442	88.4
203.661	65.88
203.879	69.97
204.098	33.11
204.317	-7.85
204.536	104.79
204.755	39.25
204.974	47.44
205.193	-32.43
205.411	96.6
205.63	14.68
205.849	-32.43
206.068	2.39
206.287	31.06
206.505	26.96
206.724	96.6
206.943	-34.47
207.162	31.06
207.381	14.68
207.599	43.35
207.818	-26.28
208.037	-42.67
208.255	-89.77
208.474	82.26
208.693	59.73
208.911	26.96
209.13	94.55
209.349	74.07
209.567	110.93
209.786	39.25
210.005	80.21
210.223	51.54
210.442	-3.75
210.661	47.44
210.879	39.25
211.098	-13.99
211.316	57.68
211.535	49.49
211.753	41.3
211.972	-16.04
212.191	67.92
212.409	16.73
212.628	6.49
212.846	-9.9
213.065	69.97
213.283	24.92
213.502	0.34
213.72	22.87
213.938	-22.19
214.157	18.77
214.375	31.06
214.594	61.78
214.812	88.4
215.031	-30.38
215.249	43.35
215.467	22.87
215.686	20.82
215.904	65.88
216.122	53.59
216.341	-1.71
216.559	86.36
216.778	112.98
216.996	-18.09
217.214	39.25
217.432	-18.09
217.651	47.44
217.869	-1.71
218.087	-7.85
218.306	20.82
218.524	31.06
218.742	-18.09
218.96	16.73
219.179	47.44
219.397	31.06
219.615	-34.47
219.833	47.44
220.051	-1.71
220.27	121.17
220.488	-7.85
220.706	47.44
220.924	37.2
221.142	51.54
221.36	35.16
221.578	49.49
221.796	-22.19
222.015	51.54
222.233	100.69
222.451	63.83
222.669	4.44
222.887	76.12
223.105	24.92
223.323	55.64
223.541	14.68
223.759	51.54
223.977	24.92
224.195	6.49
224.413	8.53
224.631	-16.04
224.849	22.87
225.067	137.56
225.285	4.44
225.503	88.4
225.721	10.58
225.939	31.06
226.157	14.68
226.375	84.31
226.592	2.39
226.81	47.44
227.028	69.97
227.246	80.21
227.464	-1.71
227.682	59.73
227.9	80.21
228.117	14.68
228.335	76.12
228.553	-18.09
228.771	59.73
228.989	59.73
229.206	72.02
229.424	-34.47
229.642	14.68
229.86	-13.99
230.077	43.35
230.295	31.06
230.513	80.21
230.731	31.06
230.948	100.69
231.166	84.31
231.384	47.44
231.601	6.49
231.819	22.87
232.037	24.92
232.254	-13.99
232.472	51.54
232.689	-7.85
232.907	37.2
233.125	82.26
233.342	104.79
233.56	22.87
233.777	-9.9
233.995	24.92
234.213	82.26
234.43	39.25
234.648	8.53
234.865	-22.19
235.083	88.4
235.3	145.75
235.518	72.02
235.735	65.88
235.953	47.44
236.17	43.35
236.388	0.34
236.605	6.49
236.822	43.35
237.04	-1.71
237.257	20.82
237.475	76.12
237.692	57.68
237.909	35.16
238.127	69.97
238.344	-1.71
238.562	6.49
238.779	35.16
238.996	59.73
239.214	6.49
239.431	117.08
239.648	2.39
239.865	110.93
240.083	43.35
240.3	65.88
240.517	39.25
240.735	82.26
240.952	90.45
241.169	31.06
241.386	26.96
241.603	65.88
241.821	-67.24
242.038	39.25
242.255	117.08
242.472	-34.47
242.689	41.3
242.907	39.25
243.124	14.68
243.341	-30.38
243.558	49.49
243.775	-40.62
243.992	-5.8
244.209	57.68
244.426	43.35
244.643	18.77
244.86	-32.43
245.078	39.25
245.295	45.4
245.512	61.78
245.729	-9.9
245.946	121.17
246.163	39.25
246.38	0.34
246.597	106.84
246.814	-34.47
247.031	76.12
247.248	-9.9
247.464	31.06
247.681	57.68
247.898	67.92
248.115	72.02
248.332	-16.04
248.549	57.68
248.766	88.4
248.983	129.36
249.2	-24.23
249.417	72.02
249.633	-28.33
249.85	102.74
250.067	145.75
250.284	47.44
250.501	72.02
250.717	-26.28
250.934	-9.9
251.151	49.49
251.368	33.11
251.585	2.39
251.801	31.06
252.018	-34.47
252.235	88.4
252.451	22.87
252.668	20.82
252.885	76.12
253.102	24.92
253.318	41.3
253.535	69.97
253.752	12.63
253.968	72.02
254.185	-18.09
254.401	45.4
254.618	98.64
254.835	22.87
255.051	96.6
255.268	39.25
255.484	10.58
255.701	2.39
255.917	49.49
256.134	-81.58
256.351	-11.95
256.567	-32.43
256.784	84.31
257	-30.38
257.217	16.73
257.433	94.55
257.65	-9.9
257.866	41.3
258.082	26.96
258.299	-42.67
258.515	24.92
258.732	-26.28
258.948	22.87
259.165	6.49
259.381	39.25
259.597	78.16
259.814	33.11
260.03	18.77
260.246	57.68
260.463	31.06
260.679	112.98
260.895	16.73
261.112	84.31
261.328	74.07
261.544	6.49
261.761	139.6
261.977	49.49
262.193	55.64
262.409	102.74
262.626	31.06
262.842	8.53
263.058	43.35
263.274	-5.8
263.49	39.25
263.707	78.16
263.923	31.06
264.139	88.4
264.355	51.54
264.571	117.08
264.787	37.2
265.004	115.03
265.22	22.87
265.436	35.16
265.652	20.82
265.868	-1.71
266.084	55.64
266.3	59.73
266.516	14.68
266.732	-57
266.948	92.5
267.164	129.36
267.38	57.68
267.596	133.46
267.812	80.21
268.028	80.21
268.244	78.16
268.46	51.54
268.676	8.53
268.892	0.34
269.108	-13.99
269.324	-63.15
269.54	2.39
269.756	39.25
269.972	6.49
270.188	72.02
270.403	-24.23
270.619	2.39
270.835	63.83
271.051	6.49
271.267	63.83
271.483	8.53
271.698	127.32
271.914	67.92
272.13	12.63
272.346	35.16
272.562	2.39
272.777	-18.09
272.993	14.68
273.209	-44.71
273.425	63.83
273.64	-1.71
273.856	29.01
274.072	39.25
274.287	47.44
274.503	39.25
274.719	147.8
274.934	63.83
275.15	-13.99
275.366	76.12
275.581	31.06
275.797	49.49
276.012	69.97
276.228	49.49
276.444	-32.43
276.659	0.34
276.875	41.3
277.09	-9.9
277.306	-42.67
277.521	14.68
277.737	29.01
277.952	63.83
278.168	-7.85
278.383	22.87
278.599	39.25
278.814	41.3
279.03	65.88
279.245	67.92
279.461	22.87
279.676	67.92
279.892	47.44
280.107	51.54
280.322	-52.91
280.538	43.35
280.753	88.4
280.969	35.16
281.184	84.31
281.399	108.88
281.615	33.11
281.83	24.92
282.045	-9.9
282.26	53.59
282.476	14.68
282.691	55.64
282.906	55.64
283.122	-11.95
283.337	-73.39
283.552	57.68
283.767	-59.05
283.983	24.92
284.198	-38.57
284.413	0.34
284.628	31.06
284.843	6.49
285.058	80.21
285.274	104.79
285.489	82.26
285.704	31.06
285.919	0.34
286.134	-40.62
286.349	112.98
286.564	0.34
286.779	57.68
286.995	98.64
287.21	24.92
287.425	4.44
287.64	55.64
287.855	18.77
288.07	41.3
288.285	0.34
288.5	104.79
288.715	65.88
288.93	6.49
289.145	35.16
289.36	20.82
289.575	72.02
289.79	22.87
290.004	10.58
290.219	72.02
290.434	20.82
290.649	88.4
290.864	6.49
291.079	29.01
291.294	31.06
291.509	31.06
291.724	82.26
291.938	14.68
292.153	35.16
292.368	65.88
292.583	10.58
292.798	14.68
293.012	39.25
293.227	108.88
293.442	8.53
293.657	35.16
293.871	63.83
294.086	49.49
294.301	88.4
294.516	31.06
294.73	6.49
294.945	67.92
295.16	41.3
295.374	57.68
295.589	-1.71
295.804	59.73
296.018	31.06
296.233	35.16
296.447	61.78
296.662	24.92
296.877	90.45
297.091	84.31
297.306	-18.09
297.52	-9.9
297.735	92.5
297.949	55.64
298.164	-40.62
298.378	72.02
298.593	-1.71
298.807	-24.23
299.022	41.3
299.236	133.46
299.451	39.25
299.665	-32.43
299.88	112.98
300.094	39.25
300.309	72.02
300.523	26.96
300.737	16.73
300.952	86.36
301.166	94.55
301.381	2.39
301.595	121.17
301.809	-18.09
302.024	20.82
302.238	16.73
302.452	59.73
302.667	-1.71
302.881	31.06
303.095	14.68
303.309	47.44
303.524	26.96
303.738	-42.67
303.952	4.44
304.166	37.2
304.381	-30.38
304.595	59.73
304.809	-3.75
305.023	-50.86
305.237	47.44
305.452	14.68
305.666	84.31
305.88	31.06
306.094	96.6
306.308	35.16
306.522	112.98
306.736	-5.8
306.95	33.11
307.164	74.07
307.379	-36.52
307.593	84.31
307.807	90.45
308.021	6.49
308.235	59.73
308.449	6.49
308.663	14.68
308.877	127.32
309.091	31.06
309.305	47.44
309.519	22.87
309.733	8.53
309.947	-28.33
310.161	117.08
310.374	63.83
310.588	100.69
310.802	0.34
311.016	-46.76
311.23	61.78
311.444	-46.76
311.658	63.83
311.872	24.92
312.085	123.22
312.299	80.21
312.513	98.64
312.727	39.25
312.941	8.53
313.154	61.78
313.368	67.92
313.582	-1.71
313.796	26.96
314.009	14.68
314.223	-18.09
314.437	8.53
314.651	74.07
314.864	65.88
315.078	16.73
315.292	47.44
315.505	-34.47
315.719	84.31
315.933	49.49
316.146	22.87
316.36	-26.28
316.573	145.75
316.787	51.54
317.001	8.53
317.214	31.06
317.428	39.25
317.641	35.16
317.855	24.92
318.068	-5.8
318.282	76.12
318.495	88.4
318.709	35.16
318.922	55.64
319.136	65.88
319.349	65.88
319.563	29.01
319.776	31.06
319.99	51.54
320.203	65.88
320.417	82.26
320.63	33.11
320.843	72.02
321.057	16.73
321.27	67.92
321.483	80.21
321.697	84.31
321.91	-7.85
322.124	88.4
322.337	4.44
322.55	80.21
322.763	-18.09
322.977	61.78
323.19	53.59
323.403	57.68
323.617	80.21
323.83	2.39
324.043	67.92
324.256	-9.9
324.469	-16.04
324.683	123.22
324.896	59.73
325.109	72.02
325.322	14.68
325.535	72.02
325.748	63.83
325.962	65.88
326.175	57.68
326.388	72.02
326.601	67.92
326.814	26.96
327.027	-26.28
327.24	55.64
327.453	33.11
327.666	76.12
327.879	43.35
328.092	55.64
328.305	22.87
328.518	43.35
328.731	8.53
328.944	110.93
329.157	6.49
329.37	39.25
329.583	74.07
329.796	74.07
330.009	-40.62
330.222	96.6
330.435	92.5
330.648	49.49
330.861	26.96
331.073	39.25
331.286	31.06
331.499	112.98
331.712	57.68
331.925	22.87
332.138	53.59
332.35	57.68
332.563	80.21
332.776	22.87
332.989	80.21
333.202	2.39
333.414	8.53
333.627	121.17
333.84	35.16
334.053	-22.19
334.265	80.21
334.478	-7.85
334.691	24.92
334.903	22.87
335.116	8.53
335.329	63.83
335.541	18.77
335.754	194.9
335.966	-28.33
336.179	37.2
336.392	-18.09
336.604	24.92
336.817	82.26
337.029	72.02
337.242	-9.9
337.454	172.37
337.667	90.45
337.88	84.31
338.092	-9.9
338.305	51.54
338.517	100.69
338.729	24.92
338.942	110.93
339.154	-5.8
339.367	26.96
339.579	14.68
339.792	121.17
340.004	67.92
340.217	-22.19
340.429	41.3
340.641	31.06
340.854	-5.8
341.066	74.07
341.278	96.6
341.491	123.22
341.703	35.16
341.915	55.64
342.128	100.69
342.34	104.79
342.552	22.87
342.764	16.73
342.977	43.35
343.189	82.26
343.401	78.16
343.613	-38.57
343.826	112.98
344.038	-30.38
344.25	65.88
344.462	2.39
344.674	-40.62
344.886	14.68
345.099	51.54
345.311	39.25
345.523	35.16
345.735	-9.9
345.947	104.79
346.159	24.92
346.371	139.6
346.583	96.6
346.795	63.83
347.007	39.25
347.219	16.73
347.431	10.58
347.643	20.82
347.855	18.77
348.067	18.77
348.279	49.49
348.491	55.64
348.703	14.68
348.915	74.07
349.127	47.44
349.339	12.63
349.551	6.49
349.763	8.53
349.975	158.03
350.187	43.35
350.399	63.83
350.61	131.41
350.822	-7.85
351.034	80.21
351.246	-50.86
351.458	100.69
351.669	94.55
351.881	55.64
352.093	39.25
352.305	51.54
352.517	47.44
352.728	72.02
352.94	106.84
353.152	72.02
353.363	-54.95
353.575	22.87
353.787	84.31
353.999	76.12
354.21	112.98
354.422	65.88
354.633	2.39
354.845	6.49
355.057	47.44
355.268	14.68
355.48	55.64
355.692	82.26
355.903	45.4
356.115	96.6
356.326	-30.38
356.538	104.79
356.749	51.54
356.961	67.92
357.172	129.36
357.384	35.16
357.595	147.8
357.807	49.49
358.018	86.36
358.23	108.88
358.441	47.44
358.653	100.69
358.864	31.06
359.075	24.92
359.287	57.68
359.498	55.64
359.709	31.06
359.921	72.02
360.132	104.79
360.344	-1.71
360.555	0.34
360.766	76.12
360.977	33.11
361.189	37.2
361.4	67.92
361.611	139.6
361.823	80.21
362.034	96.6
362.245	26.96
362.456	88.4
362.667	80.21
362.879	18.77
363.09	24.92
363.301	82.26
363.512	86.36
363.723	-5.8
363.935	2.39
364.146	151.89
364.357	90.45
364.568	88.4
364.779	14.68
364.99	-26.28
365.201	20.82
365.412	74.07
365.623	12.63
365.834	47.44
366.045	26.96
366.256	57.68
366.467	57.68
366.678	63.83
366.889	74.07
367.1	31.06
367.311	24.92
367.522	43.35
367.733	80.21
367.944	33.11
368.155	18.77
368.366	51.54
368.577	84.31
368.788	88.4
368.999	14.68
369.209	96.6
369.42	72.02
369.631	153.94
369.842	90.45
370.053	22.87
370.264	29.01
370.474	2.39
370.685	84.31
370.896	55.64
371.107	82.26
371.317	106.84
371.528	10.58
371.739	69.97
371.95	100.69
372.16	31.06
372.371	2.39
372.582	108.88
372.792	96.6
373.003	2.39
373.214	26.96
373.424	59.73
373.635	112.98
373.846	90.45
374.056	2.39
374.267	57.68
374.477	102.74
374.688	86.36
374.898	88.4
375.109	123.22
375.319	69.97
375.53	57.68
375.74	98.64
375.951	55.64
376.161	88.4
376.372	88.4
376.582	10.58
376.793	-1.71
377.003	39.25
377.214	80.21
377.424	14.68
377.635	78.16
377.845	29.01
378.055	129.36
378.266	31.06
378.476	80.21
378.686	57.68
378.897	24.92
379.107	80.21
379.317	108.88
379.528	33.11
379.738	94.55
379.948	96.6
380.158	123.22
380.369	22.87
380.579	104.79
380.789	82.26
380.999	145.75
381.21	84.31
381.42	67.92
381.63	37.2
381.84	123.22
382.05	108.88
382.261	104.79
382.471	112.98
382.681	31.06
382.891	51.54
383.101	67.92
383.311	26.96
383.521	39.25
383.731	96.6
383.941	100.69
384.151	55.64
384.361	51.54
384.571	61.78
384.781	96.6
384.991	47.44
385.201	137.56
385.411	96.6
385.621	145.75
385.831	110.93
386.041	90.45
386.251	100.69
386.461	123.22
386.671	47.44
386.881	96.6
387.091	86.36
387.301	35.16
387.511	55.64
387.72	22.87
387.93	162.13
388.14	16.73
388.35	76.12
388.56	123.22
388.769	78.16
388.979	74.07
389.189	2.39
389.399	117.08
389.609	108.88
389.818	74.07
390.028	72.02
390.238	104.79
390.447	74.07
390.657	86.36
390.867	96.6
391.076	96.6
391.286	35.16
391.496	96.6
391.705	153.94
391.915	74.07
392.125	92.5
392.334	72.02
392.544	131.41
392.753	127.32
392.963	51.54
393.172	153.94
393.382	-18.09
393.591	137.56
393.801	72.02
394.01	145.75
394.22	174.42
394.429	82.26
394.639	110.93
394.848	119.12
395.058	143.7
395.267	96.6
395.477	29.01
395.686	117.08
395.895	131.41
396.105	188.75
396.314	96.6
396.524	186.71
396.733	18.77
396.942	141.65
397.152	133.46
397.361	139.6
397.57	88.4
397.78	137.56
397.989	133.46
398.198	131.41
398.407	96.6
398.617	104.79
398.826	123.22
399.035	55.64
399.244	76.12
399.453	104.79
399.663	92.5
399.872	100.69
400.081	69.97
400.29	219.47
400.499	47.44
400.708	137.56
400.917	121.17
401.127	108.88
401.336	67.92
401.545	123.22
401.754	149.84
401.963	78.16
402.172	139.6
402.381	80.21
402.59	102.74
402.799	137.56
403.008	121.17
403.217	186.71
403.426	205.14
403.635	72.02
403.844	162.13
404.053	172.37
404.262	129.36
404.471	244.05
404.68	158.03
404.888	227.67
405.097	125.27
405.306	205.14
405.515	205.14
405.724	231.76
405.933	196.95
406.142	235.86
406.35	231.76
406.559	270.67
406.768	196.95
406.977	287.06
407.185	160.08
407.394	190.8
407.603	215.38
407.812	246.1
408.02	217.43
408.229	278.87
408.438	235.86
408.646	328.02
408.855	198.99
409.064	293.2
409.272	366.93
409.481	297.3
409.69	280.91
409.898	270.67
410.107	377.17
410.315	317.78
410.524	336.21
410.733	342.35
410.941	342.35
411.15	411.98
411.358	342.35
411.567	432.46
411.775	434.51
411.984	446.8
412.192	530.77
412.401	448.85
412.609	442.7
412.818	579.92
413.026	477.52
413.234	571.72
413.443	629.07
413.651	522.57
413.86	663.88
414.068	692.55
414.276	624.97
414.485	588.11
414.693	710.99
414.901	743.75
415.11	807.24
415.318	684.36
415.526	819.53
415.734	866.63
415.943	883.02
416.151	944.45
416.359	966.98
416.567	825.67
416.776	1003.85
416.984	1104.2
417.192	1005.89
417.4	1055.05
417.608	1073.48
417.817	1147.2
418.025	1263.94
418.233	1192.26
418.441	1165.64
418.649	1392.96
418.857	1382.72
419.065	1376.58
419.273	1472.83
419.481	1481.02
419.689	1521.98
419.897	1644.86
420.105	1732.92
420.313	1653.05
420.521	1771.83
420.729	1765.69
420.937	1784.12
421.145	1964.34
421.353	2054.45
421.561	2050.36
421.769	2160.95
421.977	2144.56
422.185	2165.04
422.393	2316.59
422.601	2586.93
422.809	2455.86
423.017	2476.34
423.224	2576.69
423.432	2804.01
423.64	2777.39
423.848	2971.94
424.056	2890.03
424.263	3154.21
424.471	3205.41
424.679	3021.1
424.887	3393.83
425.094	3434.78
425.302	3692.83
425.51	3594.53
425.718	3709.21
425.925	3713.31
426.133	4022.55
426.341	4102.42
426.548	4235.54
426.756	4456.72
426.964	4372.75
427.171	4606.22
427.379	4704.53
427.586	4903.18
427.794	4901.13
428.001	5169.41
428.209	5499.14
428.417	5370.12
428.624	5697.79
428.832	5742.85
429.039	5576.96
429.247	5724.41
429.454	6381.81
429.662	6625.52
429.869	6244.6
430.076	6596.85
430.284	6602.99
430.491	6922.48
430.699	7137.51
430.906	7133.42
431.114	7227.62
431.321	7749.86
431.528	7868.64
431.736	8272.09
431.943	8530.13
432.15	8317.14
432.358	8364.25
432.565	8771.79
432.772	8943.82
432.979	9437.38
433.187	9474.24
433.394	9363.65
433.601	10139.83
433.808	10397.88
434.016	10193.08
434.223	10674.35
434.43	11200.68
434.637	11186.35
434.844	11675.81
435.052	11860.13
435.259	11677.86
435.466	11962.53
435.673	11870.37
435.88	12492.95
436.087	13230.22
436.294	13217.93
436.501	12808.34
436.708	13269.13
436.915	13574.28
437.122	14252.16
437.329	14094.46
437.537	14786.68
437.743	14932.08
437.95	14844.02
438.157	15599.72
438.364	16064.61
438.571	16097.38
438.778	16461.91
438.985	17887.3
439.192	16629.85
439.399	17643.59
439.606	17070.16
439.813	18018.37
440.02	19263.54
440.227	18849.85
440.433	18823.22
440.64	19154.99
440.847	19134.51
441.054	19648.55
441.261	20932.63
441.467	20842.52
441.674	21223.44
441.881	22104.07
442.088	21788.68
442.294	21510.16
442.501	22341.63
442.708	22558.72
442.914	23508.97
443.121	24500.19
443.328	23922.66
443.534	25636.81
443.741	25022.42
443.948	24625.12
444.154	26234.82
444.361	26298.31
444.568	26490.82
444.774	26269.64
444.981	26867.64
445.187	27353.01
445.394	28696.48
445.6	28594.08
445.807	30904.19
446.013	30089.1
446.22	30136.2
446.426	31426.42
446.633	31782.77
446.839	32855.9
447.046	31475.57
447.252	33496.92
447.459	33312.6
447.665	32962.4
447.871	34467.66
448.078	35921.71
448.284	34344.78
448.491	35321.66
448.697	36658.98
448.903	37418.78
449.11	37412.63
449.316	37021.47
449.522	37484.31
449.728	38680.33
449.935	39059.2
450.141	39235.33
450.347	39513.85
450.553	38702.85
450.76	38842.12
450.966	40361.71
451.172	39991.03
451.378	41146.08
451.584	40414.96
451.791	41047.78
451.997	40697.58
452.203	41449.18
452.409	41701.08
452.615	41565.92
452.821	40247.02
453.027	39753.46
453.233	41645.79
453.44	40001.27
453.646	40838.89
453.852	40849.13
454.058	41805.53
454.264	40085.23
454.47	41342.69
454.676	40046.32
454.882	41508.57
455.088	37873.43
455.294	38139.66
455.5	39210.75
455.705	39661.3
455.911	38156.05
456.117	37463.83
456.323	36933.41
456.529	34969.41
456.735	36761.38
456.941	35626.81
457.147	34975.55
457.352	34060.11
457.558	34512.71
457.764	33945.42
457.97	33718.1
458.176	32341.86
458.381	32380.78
458.587	31176.57
458.793	30934.91
458.999	29671.31
459.204	31354.74
459.41	30492.55
459.616	28882.84
459.821	28794.78
460.027	28946.33
460.233	28129.19
460.438	27088.82
460.644	27242.42
460.85	26007.5
461.055	25675.73
461.261	25821.13
461.466	23429.1
461.672	22829.05
461.878	24541.15
462.083	23005.17
462.289	22632.44
462.494	22384.64
462.7	21438.48
462.905	20645.91
463.111	21469.2
463.316	21594.12
463.522	21055.51
463.727	21499.92
463.932	21110.8
464.138	20824.09
464.343	20949.01
464.549	20551.71
464.754	20770.84
464.959	20736.02
465.165	20742.17
465.37	20035.62
465.575	19183.66
465.781	20293.66
465.986	20299.81
466.191	19333.17
466.397	19238.96
466.602	18163.78
466.807	19015.73
467.012	18958.39
467.218	19040.31
467.423	18712.63
467.628	18778.17
467.833	19472.43
468.038	18769.97
468.244	18452.54
468.449	19163.18
468.654	18403.39
468.859	18350.14
469.064	18221.12
469.269	17559.63
469.474	17922.12
469.679	18133.06
469.885	17305.68
470.09	17784.9
470.295	17549.39
470.5	17125.46
470.705	17313.87
470.91	17006.67
471.115	16693.33
471.32	17123.41
471.525	17117.26
471.73	16418.91
471.935	16423
472.139	15974.5
472.344	16173.15
472.549	16072.8
472.754	16134.24
472.959	15583.34
473.164	15220.85
473.369	15188.08
473.574	15386.73
473.778	15317.1
473.983	15241.32
474.188	15274.09
474.393	14669.94
474.598	14542.97
474.802	14510.2
475.007	14338.17
475.212	14323.83
475.417	14022.78
475.621	13871.23
475.826	14248.06
476.031	13879.43
476.235	13420.68
476.44	13478.02
476.645	13410.44
476.849	13484.17
477.054	13289.61
477.259	12974.22
477.463	12832.91
477.668	12554.39
477.872	13195.4
478.077	12568.73
478.282	12556.44
478.486	12376.22
478.691	12200.09
478.895	12290.2
479.1	11919.52
479.304	12091.55
479.509	11931.81
479.713	11886.75
479.918	11831.46
480.122	11430.05
480.326	11665.57
480.531	11663.52
480.735	11499.69
480.94	11397.29
481.144	11913.38
481.348	11319.46
481.553	11448.49
481.757	11327.66
481.961	11309.22
482.166	11559.08
482.37	11417.77
482.574	11032.75
482.778	11061.42
482.983	11524.26
483.187	11393.19
483.391	11495.59
483.595	11135.15
483.8	11157.68
484.004	11247.79
484.208	11423.91
484.412	11245.74
484.616	11419.82
484.821	11335.85
485.025	10975.41
485.229	11452.58
485.433	11100.33
485.637	11282.6
485.841	11172.01
486.045	11227.31
486.249	11456.68
486.453	11141.29
486.657	11344.04
486.861	11475.11
487.065	10997.93
487.269	11411.62
487.473	11133.1
487.677	11366.57
487.881	11403.43
488.085	11421.86
488.289	11241.64
488.493	11327.66
488.697	11696.29
488.901	11333.8
489.105	11458.73
489.309	11610.28
489.512	11329.7
489.716	11577.51
489.92	11561.12
490.124	11620.52
490.328	11794.59
490.531	11452.58
490.735	11663.52
490.939	11667.62
491.143	11665.57
491.346	11751.59
491.55	12019.87
491.754	11868.32
491.958	12030.11
492.161	11860.13
492.365	12196
492.569	12054.69
492.772	12146.84
492.976	12271.77
493.18	12443.8
493.383	12624.02
493.587	12288.15
493.79	12613.78
493.994	12466.33
494.197	12531.86
494.401	12646.55
494.605	12863.63
494.808	12951.7
495.012	13197.45
495.215	13088.91
495.419	13240.46
495.622	13140.11
495.825	13461.64
496.029	13441.16
496.232	13691.01
496.436	13539.46
496.639	13963.39
496.843	13918.34
497.046	14375.03
497.249	14456.95
497.453	14334.07
497.656	14723.19
497.859	14645.37
498.063	15116.4
498.266	15263.85
498.469	15220.85
498.673	15265.9
498.876	15464.55
499.079	15779.94
499.282	15777.89
499.485	16304.22
499.689	15941.73
499.892	16158.81
500.095	16447.58
500.298	16848.98
500.501	16877.65
500.705	17451.08
500.908	17489.99
501.111	17655.88
501.314	17993.79
501.517	17834.05
501.72	18104.39
501.923	18004.03
502.126	18729.02
502.329	18821.17
502.532	18944.05
502.735	19093.55
502.938	19396.65
503.141	19607.59
503.344	19920.93
503.547	20084.77
503.75	20068.39
503.953	20566.04
504.156	20914.2
504.359	20955.16
504.562	20901.91
504.765	21600.27
504.968	21475.34
505.17	21673.99
505.373	21913.61
505.576	22673.4
505.779	23023.61
505.982	22749.18
506.185	23349.23
506.387	23500.78
506.59	23715.82
506.793	24035.3
506.996	23818.22
507.198	24762.33
507.401	24285.15
507.604	24821.72
507.807	25343.95
508.009	25716.68
508.212	25757.64
508.415	26062.79
508.617	26132.42
508.82	26611.65
509.022	26542.02
509.225	27262.9
509.428	27242.42
509.63	27682.73
509.833	27778.99
510.035	28317.61
510.238	28346.28
510.44	28635.04
510.643	29251.48
510.845	29702.03
511.048	29147.03
511.25	29853.58
511.453	30148.49
511.655	31115.13
511.858	30936.96
512.06	31092.6
512.262	31481.72
512.465	31407.99
512.667	32032.62
512.87	32395.11
513.072	32345.96
513.274	32950.11
513.477	33326.94
513.679	33509.21
513.881	34199.37
514.084	33990.48
514.286	34299.72
514.488	34211.66
514.69	35235.64
514.893	35753.78
515.095	35493.69
515.297	36226.86
515.499	36140.85
515.701	36769.57
515.904	36990.75
516.106	37242.65
516.308	37555.99
516.51	38186.77
516.712	38143.76
516.914	38676.23
517.116	39102.21
517.318	39188.22
517.52	39374.59
517.722	39657.21
517.925	40353.52
518.127	40822.5
518.329	40881.89
518.531	40695.53
518.733	41512.67
518.935	42063.57
519.136	41565.92
519.338	43019.97
519.54	42399.44
519.742	42901.19
519.944	43331.26
520.146	43802.3
520.348	44109.49
520.55	44385.97
520.752	44369.58
520.954	45094.57
521.155	45117.09
521.357	45473.44
521.559	45936.28
521.761	46370.45
521.963	46886.54
522.164	46638.73
522.366	47124.1
522.568	47306.37
522.77	47525.5
522.971	48014.97
523.173	48103.03
523.375	48187
523.576	48516.72
523.778	48615.02
523.98	49038.95
524.181	49643.1
524.383	49124.97
524.584	49712.73
524.786	49788.51
524.988	49499.75
525.189	50734.67
525.391	50677.33
525.592	50779.73
525.794	50781.77
525.995	51058.25
526.197	51334.73
526.398	51877.44
526.6	51940.92
526.801	51672.64
527.003	52121.15
527.204	52465.2
527.406	52321.85
527.607	52356.66
527.808	52981.29
528.01	52387.38
528.211	52614.71
528.412	53685.79
528.614	53288.49
528.815	53526.05
529.016	53808.67
529.218	53593.64
529.419	53603.88
529.62	53419.56
529.822	53726.75
530.023	53513.76
530.224	54304.28
530.425	53587.49
530.626	53317.16
530.828	53704.23
531.029	54709.78
531.23	54001.18
531.431	54306.33
531.632	54099.48
531.833	54382.1
532.035	53829.15
532.236	54605.33
532.437	54504.98
532.638	54066.72
532.839	54437.4
533.04	54789.65
533.241	54472.21
533.442	55221.77
533.643	54734.35
533.844	54787.6
534.045	54771.22
534.246	54222.36
534.447	54859.28
534.648	54677.01
534.849	54922.77
535.05	55031.31
535.251	54980.11
535.451	54812.18
535.652	54922.77
535.853	54928.91
536.054	54648.34
536.255	55248.39
536.456	54634
536.657	55291.4
536.857	54892.05
537.058	54726.16
537.259	55404.04
537.46	55387.66
537.66	54881.81
537.861	55143.95
538.062	54535.7
538.263	55107.08
538.463	54861.33
538.664	55094.8
538.865	55066.13
539.065	55541.25
539.266	54494.74
539.466	55170.57
539.667	54220.31
539.868	55207.43
540.068	55330.31
540.269	55295.5
540.469	55553.54
540.67	55041.55
540.87	55311.88
541.071	54619.67
541.271	55047.69
541.472	54814.22
541.672	54781.46
541.873	54586.9
542.073	53978.65
542.274	55166.48
542.474	54857.23
542.675	54890
542.875	55242.25
543.075	54806.03
543.276	54728.21
543.476	55389.7
543.676	54281.75
543.877	54703.63
544.077	54509.08
544.277	54486.55
544.478	54388.25
544.678	55035.41
544.878	54468.12
545.078	55029.26
545.279	54099.48
545.479	54464.02
545.679	54859.28
545.879	54619.67
546.079	54390.3
546.28	54806.03
546.48	54175.26
546.68	54672.92
546.88	54615.57
547.08	54388.25
547.28	54494.74
547.48	54416.92
547.68	54435.35
547.88	54539.8
548.081	54763.03
548.281	54316.57
548.481	54054.43
548.681	54826.51
548.881	54519.32
549.081	54431.25
549.28	54416.92
549.48	54603.28
549.68	54367.77
549.88	54937.1
550.08	53765.66
550.28	54283.8
550.48	54091.29
550.68	54629.91
550.88	54222.36
551.08	54332.95
551.279	54574.61
551.479	53857.82
551.679	54519.32
551.879	54136.35
552.079	54349.34
552.278	53763.62
552.478	54199.83
552.678	53960.22
552.878	54509.08
553.077	54128.16
553.277	53874.21
553.477	54496.79
553.676	53939.74
553.876	54349.34
554.076	54066.72
554.275	53743.14
554.475	53823.01
554.674	53886.5
554.874	54060.57
555.074	54109.72
555.273	53866.02
555.473	53855.78
555.672	53689.89
555.872	53440.04
556.071	53526.05
556.271	53509.67
556.47	53399.08
556.67	53061.16
556.869	53374.5
557.068	53575.2
557.268	53063.21
557.467	53407.27
557.667	53497.38
557.866	53356.07
558.065	53079.6
558.265	53276.2
558.464	52905.52
558.663	53601.83
558.863	53143.08
559.062	53233.19
559.261	52774.45
559.461	53022.25
559.66	52493.88
559.859	52842.03
560.058	52448.82
560.258	52565.56
560.457	52661.81
560.656	52858.41
560.855	52543.03
561.054	52479.54
561.253	52123.19
561.453	52526.64
561.652	52012.6
561.851	52637.23
562.05	52411.96
562.249	52071.99
562.448	52547.12
562.647	52217.4
562.846	52137.53
563.045	52086.33
563.244	51496.52
563.443	52174.39
563.642	51588.67
563.841	51897.92
564.04	51459.65
564.239	52366.9
564.438	51242.57
564.637	51727.94
564.836	51285.57
565.035	51310.15
565.234	51463.75
565.432	51146.31
565.631	50966.09
565.83	51576.39
566.029	51111.5
566.228	50976.33
566.427	50726.48
566.625	50589.27
566.824	50343.51
567.023	51023.43
567.222	50087.51
567.42	50865.74
567.619	50763.34
567.818	50058.84
568.016	50056.79
568.215	50581.07
568.414	50183.77
568.612	50798.16
568.811	49882.72
569.01	50153.05
569.208	49546.85
569.407	50241.11
569.605	49413.73
569.804	49833.56
570.002	49245.8
570.201	49702.49
570.4	49219.17
570.598	49208.93
570.797	49200.74
570.995	49413.73
571.193	48830.06
571.392	49235.56
571.59	48471.67
571.789	49110.63
571.987	48467.57
572.186	48481.91
572.384	48213.62
572.582	48854.64
572.781	48694.89
572.979	48017.02
573.177	48488.05
573.376	48199.29
573.574	47763.07
573.772	48506.48
573.971	47984.25
574.169	47517.31
574.367	47312.52
574.565	47537.79
574.763	47351.43
574.962	47646.33
575.16	46851.72
575.358	47083.14
575.556	46780.04
575.754	47054.47
575.952	46378.64
576.151	47148.68
576.349	46442.13
576.547	46376.59
576.745	46546.58
576.943	46583.44
577.141	46081.69
577.339	46540.43
577.537	46036.63
577.735	45954.71
577.933	45526.69
578.131	46089.88
578.329	45325.99
578.527	45311.65
578.725	45270.69
578.923	45717.15
579.121	45375.14
579.319	44910.25
579.516	45295.27
579.714	44453.55
579.912	44826.28
580.11	44549.81
580.308	44727.98
580.506	44500.65
580.704	44312.24
580.901	44332.72
581.099	44566.19
581.297	43970.23
581.495	44000.95
581.692	44025.53
581.89	43839.16
582.088	43620.03
582.285	43493.05
582.483	43841.21
582.681	43419.33
582.878	43800.25
583.076	43118.28
583.274	43716.28
583.471	43214.53
583.669	42938.05
583.866	42215.12
584.064	42929.86
584.262	42294.99
584.459	42862.28
584.657	42356.43
584.854	42622.67
585.052	41635.55
585.249	41991.89
585.447	41948.89
585.644	41823.96
585.841	41842.39
586.039	42176.21
586.236	41395.93
586.434	41127.65
586.631	41336.54
586.828	41228
587.026	41307.87
587.223	41250.53
587.42	40785.64
587.618	40339.18
587.815	40322.8
588.012	39970.55
588.21	40718.06
588.407	40904.42
588.604	40451.82
588.801	40228.59
588.999	40163.06
589.196	40275.69
589.393	39692.02
589.59	39722.74
589.787	39687.93
589.984	39907.06
590.182	39225.09
590.379	39194.37
590.576	39290.62
590.773	39169.79
590.97	38772.49
591.167	38864.64
591.364	38735.62
591.561	38735.62
591.758	38270.73
591.955	38227.73
592.152	38627.08
592.349	38110.99
592.546	38366.99
592.743	38254.35
592.94	37506.84
593.137	37957.39
593.334	38235.92
593.531	37189.41
593.727	37728.02
593.924	37484.31
594.121	37136.16
594.318	37488.41
594.515	36896.55
594.712	37484.31
594.908	37046.05
595.105	36943.65
595.302	36290.35
595.499	36941.6
595.696	36187.95
595.892	36103.98
596.089	36560.68
596.286	36415.27
596.482	36497.19
596.679	36120.37
596.876	35770.16
597.072	35835.7
597.269	35639.09
597.466	35874.61
597.662	35229.5
597.859	35323.71
598.055	35409.72
598.252	34926.4
598.448	35573.56
598.645	35053.37
598.841	34852.67
599.038	34920.26
599.234	34815.81
599.431	34682.69
599.627	34025.29
599.824	34531.14
600.02	34271.05
600.217	34121.55
600.413	34410.31
600.609	33949.52
600.806	33666.9
601.002	33843.02
601.198	33513.3
601.395	33539.93
601.591	33541.97
601.787	33482.58
601.984	33435.48
602.18	33324.89
602.376	33134.43
602.572	32851.81
602.769	33212.25
602.965	32370.54
603.161	32843.62
603.357	32702.31
603.553	32661.35
603.75	32847.71
603.946	31987.57
604.142	32579.43
604.338	32055.15
604.534	32032.62
604.73	31991.66
604.926	31551.35
605.122	31899.5
605.318	31930.22
605.514	31799.15
605.71	31592.31
605.906	31563.64
606.102	31336.31
606.298	31422.33
606.494	31211.39
606.69	31360.89
606.886	31078.27
607.082	30756.74
607.278	31178.62
607.474	30502.79
607.67	30615.43
607.866	30316.42
608.062	30949.25
608.257	30531.46
608.453	30324.61
608.649	30519.17
608.845	30048.14
609.041	30189.45
609.236	30429.06
609.432	30384.01
609.628	30070.67
609.824	29718.42
610.019	29966.22
610.215	29824.91
610.411	30052.23
610.606	29755.28
610.802	30011.28
610.998	29790.09
611.193	29470.61
611.389	29581.2
611.584	29052.83
611.78	29243.29
611.976	29480.85
612.171	29540.24
612.367	29239.19
612.562	28876.7
612.758	28745.63
612.953	28731.29
613.149	28843.93
613.344	28530.59
613.539	29212.57
613.735	28979.1
613.93	28764.06
614.126	28299.17
614.321	28845.98
614.517	28469.15
614.712	28168.1
614.907	28307.37
615.103	28518.31
615.298	28321.7
615.493	28528.55
615.688	27750.32
615.884	28458.92
616.079	27903.92
616.274	28264.36
616.47	27920.3
616.665	27967.4
616.86	27652.02
617.055	27776.94
617.25	28045.23
617.445	27981.74
617.641	27148.22
617.836	27699.12
618.031	27086.78
618.226	27389.88
618.421	26990.52
618.616	27176.89
618.811	26744.77
619.006	27223.99
619.201	26437.57
619.396	26568.64
619.591	26271.68
619.786	26781.63
619.981	26081.22
620.176	26384.32
620.371	26165.19
620.566	26081.22
620.761	26087.37
620.956	26130.37
621.151	25608.14
621.346	25810.89
621.541	25133.01
621.735	25464.78
621.93	25227.22
622.125	25571.28
622.32	24721.37
622.515	24991.7
622.709	24649.69
622.904	24610.78
623.099	24494.05
623.294	24387.55
623.488	24100.84
623.683	24387.55
623.878	23977.96
624.072	23742.44
624.267	23652.33
624.462	23502.83
624.656	23572.46
624.851	23883.75
625.046	23420.91
625.24	23222.26
625.435	22790.14
625.629	22927.35
625.824	22548.48
626.018	22700.03
626.213	22523.9
626.407	22464.51
626.602	22374.4
626.796	21860.36
626.991	22341.63
627.185	21837.83
627.38	21837.83
627.574	21719.05
627.768	21147.67
627.963	21467.15
628.157	21231.63
628.352	21178.39
628.546	21061.65
628.74	21178.39
628.935	21063.7
629.129	21067.8
629.323	20365.34
629.517	20508.7
629.712	20316.19
629.906	20510.75
630.1	20015.14
630.294	20183.07
630.489	19882.02
630.683	19998.76
630.877	19673.13
631.071	19601.45
631.265	19712.04
631.459	19603.5
631.653	19388.46
631.848	19591.21
632.042	18995.25
632.236	19392.56
632.43	18937.91
632.624	19030.07
632.818	18950.2
633.012	18716.73
633.206	18796.6
633.4	18874.42
633.594	18274.37
633.788	18464.83
633.982	18280.51
634.176	18202.69
634.369	18026.56
634.563	18137.15
634.757	17924.16
634.951	17805.38
635.145	17852.48
635.339	17629.26
635.533	17559.63
635.726	17563.72
635.92	17199.18
636.114	17313.87
636.308	16920.66
636.501	17111.12
636.695	17039.44
636.889	16930.9
637.083	16601.18
637.276	16635.99
637.47	16629.85
637.664	16386.14
637.857	16621.66
638.051	16361.56
638.244	16324.7
638.438	16285.79
638.632	16056.42
638.825	16083.04
639.019	15960.16
639.212	15861.86
639.406	15906.91
639.599	15562.86
639.793	15650.92
639.986	15335.53
640.18	15612.01
640.373	15229.04
640.567	15214.7
640.76	15308.91
640.954	14987.38
641.147	14778.48
641.34	14717.04
641.534	14952.56
641.727	14575.73
641.92	14884.98
642.114	14788.72
642.307	14874.74
642.5	14469.24
642.694	14180.48
642.887	14098.56
643.08	14409.85
643.273	14088.32
643.467	14026.88
643.66	13926.53
643.853	13832.32
644.046	13801.6
644.239	13641.86
644.432	13619.33
644.626	13475.98
644.819	13518.98
645.012	13623.43
645.205	13408.39
645.398	13076.62
645.591	13236.36
645.784	13269.13
645.977	13043.85
646.17	12859.54
646.363	13004.94
646.556	12783.76
646.749	12769.43
646.942	12843.15
647.135	12581.01
647.328	12611.73
647.521	12435.61
647.714	12132.51
647.907	12392.6
648.099	12378.26
648.292	12222.62
648.485	11954.33
648.678	12087.45
648.871	11899.04
649.064	11796.64
649.256	11698.34
649.449	11853.98
649.642	12003.49
649.835	11337.9
650.027	11632.8
650.22	11567.27
650.413	11385
650.605	11372.71
650.798	11552.93
650.991	11110.57
651.183	11309.22
651.376	11116.72
651.568	11090.09
651.761	10832.05
651.954	11004.08
652.146	10807.47
652.339	10930.35
652.531	10956.97
652.724	10682.55
652.916	10541.24
653.109	10502.33
653.301	10737.84
653.494	10553.52
653.686	10309.82
653.879	10428.6
654.071	10148.03
654.263	10191.03
654.456	10119.35
654.648	10131.64
654.84	10023.1
655.033	9961.66
655.225	10004.67
655.417	9840.83
655.61	9959.61
655.802	9902.27
655.994	9609.41
656.186	9820.35
656.379	9683.14
656.571	9582.79
656.763	9550.02
656.955	9537.73
657.148	9418.95
657.34	9287.88
657.532	9382.09
657.724	9314.5
657.916	9283.78
658.108	9230.54
658.3	8962.25
658.492	8906.96
658.684	9027.79
658.876	8861.9
659.068	8767.7
659.26	8851.66
659.452	8849.61
659.644	8779.98
659.836	8734.93
660.028	8612.05
660.22	8415.44
660.412	8642.77
660.604	8288.47
660.796	8364.25
660.988	8333.53
661.18	8345.81
661.372	8259.8
661.563	8294.61
661.755	8167.64
661.947	8042.71
662.139	8075.48
662.331	8022.23
662.522	7805.15
662.714	7944.41
662.906	7674.08
663.097	7837.92
663.289	7807.2
663.481	7870.69
663.673	7729.38
663.864	7674.08
664.056	7485.67
664.247	7598.31
664.439	7553.25
664.631	7473.38
664.822	7504.1
665.014	7516.39
665.205	7287.01
665.397	7350.5
665.588	7260.39
665.78	7297.25
665.971	7239.91
666.163	7071.98
666.354	7076.07
666.546	6985.96
666.737	6994.15
666.929	7055.59
667.12	6922.48
667.311	6938.86
667.503	6615.28
667.694	6846.7
667.885	6600.94
668.077	6715.63
668.268	6834.41
668.459	6611.18
668.651	6691.06
668.842	6602.99
669.033	6486.26
669.224	6318.32
669.416	6621.42
669.607	6576.37
669.798	6379.76
669.989	6469.87
670.18	6226.17
670.371	6203.64
670.563	6191.35
670.754	6209.78
670.945	6195.45
671.136	6203.64
671.327	6070.52
671.518	6168.82
671.709	5953.79
671.9	6015.23
672.091	6047.99
672.282	6129.91
672.473	5916.92
672.664	5923.07
672.855	5894.4
673.046	5845.24
673.237	5792
673.428	5748.99
673.619	5892.35
673.809	5730.56
674	5789.95
674.191	5683.45
674.382	5626.11
674.573	5744.89
674.764	5611.78
674.954	5622.02
675.145	5417.22
675.336	5474.56
675.527	5259.53
675.717	5429.51
675.908	5363.97
676.099	5282.05
676.289	5325.06
676.48	5200.13
676.671	5339.4
676.861	5437.7
677.052	5390.6
677.243	5249.29
677.433	5159.17
677.624	5323.01
677.814	5146.89
678.005	5101.83
678.195	5110.02
678.386	5085.45
678.576	5050.63
678.767	5044.49
678.957	4962.57
679.148	5030.15
679.338	4987.15
679.529	4880.65
679.719	4876.55
679.909	5044.49
680.1	5034.25
680.29	4923.66
680.481	4917.51
680.671	4856.08
680.861	4843.79
681.052	4815.12
681.242	4892.94
681.432	4856.08
681.622	4847.88
681.813	4776.2
682.003	4712.72
682.193	4581.65
682.383	4645.13
682.573	4667.66
682.764	4866.32
682.954	4841.74
683.144	4571.41
683.334	4497.68
683.524	4448.53
683.714	4552.98
683.904	4530.45
684.094	4702.48
684.284	4466.96
684.474	4565.26
684.664	4430.1
684.854	4565.26
685.044	4563.22
685.234	4501.78
685.424	4475.15
685.614	4305.17
685.804	4495.63
685.994	4415.76
686.184	4358.42
686.374	4385.04
686.564	4432.15
686.753	4323.6
686.943	4239.64
687.133	4331.8
687.323	4233.49
687.513	4245.78
687.702	4221.2
687.892	4098.33
688.082	4333.84
688.272	4174.1
688.461	4090.13
688.651	4145.43
688.841	4155.67
689.03	4118.81
689.22	4053.27
689.41	4106.52
689.599	4063.51
689.789	4061.46
689.979	4016.41
690.168	4077.85
690.358	4081.94
690.547	4030.74
690.737	4102.42
690.926	3995.93
691.116	3985.69
691.305	3930.39
691.495	3995.93
691.684	3936.54
691.874	3963.16
692.063	3916.06
692.252	3817.76
692.442	3934.49
692.631	3885.34
692.82	3860.76
693.01	3957.02
693.199	3793.18
693.388	3711.26
693.578	3776.8
693.767	3762.46
693.956	3766.56
694.146	3709.21
694.335	3836.19
694.524	3604.77
694.713	3807.52
694.902	3686.69
695.092	3688.73
695.281	3701.02
695.47	3760.41
695.659	3633.44
695.848	3561.76
696.037	3610.91
696.226	3709.21
696.415	3674.4
696.604	3676.45
696.793	3643.68
696.982	3528.99
697.171	3623.2
697.36	3635.49
697.549	3506.46
697.738	3668.25
697.927	3539.23
698.116	3510.56
698.305	3533.09
698.494	3668.25
698.683	3426.59
698.872	3545.38
699.061	3397.92
699.25	3442.98
699.438	3385.63
699.627	3324.19
699.816	3461.41
700.005	3369.25
700.193	3342.63
700.382	3354.91
700.571	3367.2
700.76	3494.18
700.948	3213.6
701.137	3387.68
701.326	3275.04
701.514	3344.67
701.703	3332.39
701.892	3227.94
702.08	3311.91
702.269	3236.13
702.457	3234.08
702.646	3254.56
702.834	3258.66
703.023	3098.92
703.212	3156.26
703.4	3180.84
703.589	3189.03
703.777	3111.21
703.965	3109.16
704.154	3000.62
704.342	3225.89
704.531	3045.67
704.719	3062.05
704.907	3072.29
705.096	3156.26
705.284	3176.74
705.472	3053.86
705.661	3037.48
705.849	3021.1
706.037	3037.48
706.226	3053.86
706.414	3027.24
706.602	2898.22
706.79	3066.15
706.979	2935.08
707.167	2998.57
707.355	2910.5
707.543	2894.12
707.731	2992.42
707.919	2916.65
708.107	2828.59
708.296	2767.15
708.484	2857.26
708.672	2890.03
708.86	2892.07
709.048	2754.86
709.236	2693.42
709.424	2898.22
709.612	2865.45
709.8	2875.69
709.988	2847.02
710.176	2763.05
710.364	2820.39
710.551	2750.76
710.739	2769.2
710.927	2672.94
711.115	2662.7
711.303	2734.38
711.491	2685.23
711.679	2617.65
711.866	2767.15
712.054	2763.05
712.242	2613.55
712.43	2703.66
712.617	2619.69
712.805	2672.94
712.993	2613.55
713.181	2406.7
713.368	2644.27
713.556	2627.89
713.744	2656.56
713.931	2713.9
714.119	2531.63
714.306	2693.42
714.494	2660.65
714.682	2484.53
714.869	2498.86
715.057	2541.87
715.244	2552.11
715.432	2531.63
715.619	2312.5
715.807	2472.24
715.994	2529.58
716.182	2531.63
716.369	2361.65
716.556	2474.29
716.744	2373.94
716.931	2416.94
717.119	2445.62
717.306	2373.94
717.493	2332.98
717.681	2384.18
717.868	2416.94
718.055	2359.6
718.242	2449.71
718.43	2361.65
718.617	2349.36
718.804	2279.73
718.991	2300.21
719.179	2232.63
719.366	2359.6
719.553	2310.45
719.74	2285.87
719.927	2242.87
720.114	2197.81
720.301	2169.14
720.488	2203.96
720.676	2234.68
720.863	2349.36
721.05	2197.81
721.237	2253.11
721.424	2218.29
721.611	2160.95
721.798	2091.32
721.985	2144.56
722.172	1999.16
722.358	2099.51
722.545	2255.15
722.732	2154.8
722.919	2148.66
723.106	2144.56
723.293	2109.75
723.48	2201.91
723.667	2005.3
723.853	2056.5
724.04	2013.49
724.227	2046.26
724.414	1950.01
724.6	2156.85
724.787	2111.8
724.974	2023.73
725.161	2001.21
725.347	1984.82
725.534	2019.64
725.72	2029.88
725.907	2079.03
726.094	2046.26
726.28	1925.43
726.467	2052.41
726.653	2036.02
726.84	1960.25
727.027	2048.31
727.213	1857.85
727.4	2042.17
727.586	1943.86
727.773	1990.97
727.959	1931.58
728.145	1923.38
728.332	1941.82
728.518	1857.85
728.705	1878.33
728.891	2001.21
729.077	1900.86
729.264	1913.14
729.45	1816.89
729.636	1857.85
729.823	1900.86
730.009	1702.2
730.195	1857.85
730.382	1835.32
730.568	1818.94
730.754	1892.66
730.94	1859.9
731.126	1720.64
731.313	1849.66
731.499	1890.62
731.685	1796.41
731.871	1759.55
732.057	1808.7
732.243	1708.35
732.429	1728.83
732.615	1777.98
732.801	1708.35
732.987	1802.55
733.173	1710.4
733.359	1755.45
733.545	1743.16
733.731	1749.31
733.917	1759.55
734.103	1745.21
734.289	1782.07
734.475	1745.21
734.661	1763.64
734.847	1593.66
735.033	1769.79
735.219	1730.87
735.404	1677.63
735.59	1628.48
735.776	1706.3
735.962	1640.76
736.148	1751.35
736.333	1558.85
736.519	1685.82
736.705	1503.55
736.89	1573.18
737.076	1605.95
737.262	1628.48
737.447	1573.18
737.633	1593.66
737.819	1616.19
738.004	1605.95
738.19	1562.94
738.375	1530.17
738.561	1630.52
738.747	1497.41
738.932	1489.21
739.118	1534.27
739.303	1564.99
739.489	1622.33
739.674	1474.88
739.859	1515.84
740.045	1497.41
740.23	1515.84
740.416	1481.02
740.601	1515.84
740.786	1474.88
740.972	1380.67
741.157	1440.06
741.342	1435.97
741.528	1519.93
741.713	1497.41
741.898	1438.02
742.084	1458.5
742.269	1423.68
742.454	1425.73
742.639	1386.82
742.824	1481.02
743.01	1366.34
743.195	1372.48
743.38	1331.52
743.565	1317.19
743.75	1444.16
743.935	1409.34
744.12	1397.06
744.305	1196.36
744.49	1366.34
744.675	1274.18
744.86	1358.14
745.045	1315.14
745.23	1386.82
745.415	1341.76
745.6	1317.19
745.785	1237.31
745.97	1255.75
746.155	1388.86
746.34	1292.61
746.525	1329.47
746.71	1315.14
746.895	1270.08
747.079	1214.79
747.264	1202.5
747.449	1173.83
747.634	1292.61
747.819	1153.35
748.003	1272.13
748.188	1163.59
748.373	1120.58
748.557	1163.59
748.742	1204.55
748.927	1112.39
749.111	1136.96
749.296	1196.36
749.481	1218.88
749.665	1169.73
749.85	1124.68
750.034	1100.1
750.219	1251.65
750.404	1104.2
750.588	1128.77
750.773	1038.66
750.957	1057.09
751.141	1087.81
751.326	1059.14
751.51	1145.16
751.695	1040.71
751.879	1022.28
752.064	1091.91
752.248	1007.94
752.432	1016.13
752.617	1030.47
752.801	1038.66
752.985	1022.28
753.17	1042.76
753.354	1030.47
753.538	956.74
753.722	969.03
753.907	981.32
754.091	997.7
754.275	1026.37
754.459	899.4
754.643	964.93
754.828	966.98
755.012	915.78
755.196	964.93
755.38	893.26
755.564	897.35
755.748	923.98
755.932	993.61
756.116	899.4
756.3	936.26
756.484	903.5
756.668	883.02
756.852	792.91
757.036	778.57
757.22	899.4
757.404	829.77
757.588	844.1
757.772	809.29
757.956	874.82
758.14	895.3
758.323	778.57
758.507	745.8
758.691	821.58
758.875	870.73
759.059	893.26
759.242	749.9
759.426	780.62
759.61	776.52
759.794	751.95
759.977	776.52
760.161	866.63
760.345	792.91
760.528	831.82
760.712	792.91
760.895	776.52
761.079	690.51
761.263	708.94
761.446	663.88
761.63	749.9
761.813	721.23
761.997	768.33
762.18	776.52
762.364	768.33
762.547	743.75
762.731	710.99
762.914	702.79
763.098	776.52
763.281	657.74
763.464	768.33
763.648	770.38
763.831	696.65
764.015	696.65
764.198	786.76
764.381	639.31
764.564	735.56
764.748	657.74
764.931	735.56
765.114	604.49
765.297	768.33
765.481	635.21
765.664	735.56
765.847	717.13
766.03	772.43
766.213	670.03
766.397	651.6
766.58	696.65
766.763	688.46
766.946	635.21
767.129	627.02
767.312	631.12
767.495	686.41
767.678	584.01
767.861	612.68
768.044	686.41
768.227	674.12
768.41	622.92
768.593	579.92
768.776	600.4
768.959	631.12
769.142	702.79
769.324	608.59
769.507	614.73
769.69	598.35
769.873	612.68
770.056	721.23
770.239	579.92
770.421	653.64
770.604	704.84
770.787	596.3
770.97	614.73
771.152	620.88
771.335	653.64
771.518	565.58
771.7	645.45
771.883	592.2
772.066	622.92
772.248	631.12
772.431	612.68
772.613	661.84
772.796	635.21
772.978	614.73
773.161	622.92
773.343	530.77
773.526	483.66
773.708	522.57
773.891	581.96
774.073	581.96
774.256	567.63
774.438	631.12
774.621	624.97
774.803	567.63
774.985	500.05
775.168	549.2
775.35	596.3
775.532	543.05
775.715	469.33
775.897	518.48
776.079	541.01
776.261	516.43
776.444	518.48
776.626	545.1
776.808	489.81
776.99	469.33
777.173	534.86
777.355	567.63
777.537	522.57
777.719	479.57
777.901	452.94
778.083	418.13
778.265	465.23
778.447	512.33
778.629	510.29
778.811	424.27
778.993	491.85
779.175	541.01
779.357	457.04
779.539	401.74
779.721	399.7
779.903	489.81
780.085	420.17
780.267	383.31
780.449	457.04
780.631	454.99
780.812	414.03
780.994	407.89
781.176	434.51
781.358	434.51
781.54	395.6
781.721	424.27
781.903	473.42
782.085	399.7
782.267	375.12
782.448	426.32
782.63	424.27
782.812	436.56
782.993	397.65
783.175	375.12
783.357	407.89
783.538	368.98
783.72	391.5
783.901	442.7
784.083	432.46
784.264	362.83
784.446	383.31
784.627	366.93
784.809	393.55
784.99	325.97
785.172	338.26
785.353	364.88
785.535	272.72
785.716	301.39
785.897	319.82
786.079	352.59
786.26	332.11
786.441	346.45
786.623	311.63
786.804	321.87
786.985	368.98
787.167	334.16
787.348	309.58
787.529	325.97
787.71	397.65
787.891	299.34
788.073	305.49
788.254	254.29
788.435	350.54
788.616	371.02
788.797	223.57
788.978	319.82
789.159	311.63
789.34	319.82
789.522	350.54
789.703	383.31
789.884	313.68
790.065	278.87
790.246	317.78
790.427	266.58
790.607	285.01
790.788	272.72
790.969	178.51
791.15	280.91
791.331	268.63
791.512	248.15
791.693	254.29
791.874	239.95
792.054	332.11
792.235	295.25
792.416	242
792.597	244.05
792.778	325.97
792.958	305.49
793.139	264.53
793.32	280.91
793.5	239.95
793.681	289.1
793.862	278.87
794.042	268.63
794.223	198.99
794.404	147.8
794.584	260.43
794.765	203.09
794.945	307.54
795.126	244.05
795.306	172.37
795.487	266.58
795.667	147.8
795.848	203.09
796.028	190.8
796.209	291.15
796.389	282.96
796.57	211.28
796.75	186.71
796.93	221.52
797.111	227.67
797.291	225.62
797.471	248.15
797.652	260.43
797.832	164.18
798.012	268.63
798.192	196.95
798.373	280.91
798.553	231.76
798.733	260.43
798.913	127.32
799.093	227.67
799.274	227.67
799.454	223.57
799.634	198.99
799.814	188.75
799.994	145.75
800.174	141.65
800.354	256.34
800.534	225.62
800.714	196.95
800.894	231.76
801.074	211.28
801.254	192.85
801.434	231.76
801.614	170.32
801.794	141.65
801.974	813.38
802.154	141.65
802.334	170.32
802.514	207.19
802.693	170.32
802.873	129.36
803.053	264.53
803.233	223.57
803.413	215.38
803.592	98.64
803.772	137.56
803.952	155.99
804.131	115.03
804.311	198.99
804.491	285.01
804.67	186.71
804.85	137.56
805.03	211.28
805.209	262.48
805.389	153.94
805.568	123.22
805.748	100.69
805.928	137.56
806.107	211.28
806.287	225.62
806.466	162.13
806.646	186.71
806.825	106.84
807.004	174.42
807.184	182.61
807.363	194.9
807.543	141.65
807.722	155.99
807.901	133.46
808.081	194.9
808.26	61.78
808.439	49.49
808.619	160.08
808.798	172.37
808.977	182.61
809.156	123.22
809.336	211.28
809.515	133.46
809.694	115.03
809.873	123.22
810.052	129.36
810.231	203.09
810.411	55.64
810.59	158.03
810.769	84.31
810.948	198.99
811.127	104.79
811.306	153.94
811.485	203.09
811.664	104.79
811.843	90.45
812.022	162.13
812.201	108.88
812.38	137.56
812.559	123.22
812.737	112.98
812.916	80.21
813.095	112.98
813.274	67.92
813.453	131.41
813.632	129.36
813.811	121.17
813.989	80.21
814.168	170.32
814.347	125.27
814.526	76.12
814.704	141.65
814.883	149.84
815.062	90.45
815.24	162.13
815.419	106.84
815.598	162.13
815.776	-11.95
815.955	112.98
816.133	24.92
816.312	82.26
816.49	104.79
816.669	67.92
816.847	115.03
817.026	106.84
817.204	76.12
817.383	104.79
817.561	94.55
817.74	129.36
817.918	65.88
818.097	63.83
818.275	39.25
818.453	96.6
818.632	57.68
818.81	153.94
818.988	129.36
819.167	80.21
819.345	92.5
819.523	67.92
819.701	-16.04
819.879	112.98
820.058	76.12
820.236	112.98
820.414	80.21
820.592	90.45
820.77	47.44
820.948	98.64
821.127	129.36
821.305	-7.85
821.483	88.4
821.661	168.27
821.839	143.7
822.017	112.98
822.195	29.01
822.373	51.54
822.551	123.22
822.729	131.41
822.907	88.4
823.085	88.4
823.262	69.97
823.44	90.45
823.618	61.78
823.796	90.45
823.974	98.64
824.152	78.16
824.329	49.49
824.507	129.36
824.685	115.03
824.863	31.06
825.04	55.64
825.218	31.06
825.396	80.21
825.574	47.44
825.751	63.83
825.929	57.68
826.107	63.83
826.284	80.21
826.462	53.59
826.639	43.35
826.817	22.87
826.994	8.53
827.172	112.98
827.349	168.27
827.527	-9.9
827.704	31.06
827.882	67.92
828.059	8.53
828.237	90.45
828.414	133.46
828.591	65.88
828.769	166.23
828.946	22.87
829.124	35.16
829.301	92.5
829.478	117.08
829.655	84.31
829.833	147.8
830.01	47.44
830.187	22.87
830.364	98.64
830.542	55.64
830.719	14.68
830.896	90.45
831.073	112.98
831.25	90.45
831.427	145.75
831.604	69.97
831.782	43.35
831.959	82.26
832.136	-26.28
832.313	67.92
832.49	31.06
832.667	149.84
832.844	14.68
833.021	162.13
833.198	96.6
833.374	129.36
833.551	43.35
833.728	16.73
833.905	100.69
834.082	63.83
834.259	53.59
834.436	47.44
834.612	-7.85
834.789	137.56
834.966	55.64
835.143	117.08
835.319	0.34
835.496	-9.9
835.673	72.02
835.85	88.4
836.026	139.6
836.203	90.45
836.38	8.53
836.556	26.96
836.733	33.11
836.909	-24.23
837.086	117.08
837.262	-5.8
837.439	-57
837.616	2.39
837.792	72.02
837.968	4.44
838.145	-50.86
838.321	43.35
838.498	86.36
838.674	92.5
838.851	51.54
839.027	69.97
839.203	82.26
839.38	31.06
839.556	-44.71
839.732	96.6
839.909	47.44
840.085	86.36
840.261	43.35
840.437	29.01
840.614	74.07
840.79	39.25
840.966	84.31
841.142	84.31
841.318	-3.75
841.494	72.02
841.671	63.83
841.847	74.07
842.023	39.25
842.199	-30.38
842.375	106.84
842.551	41.3
842.727	14.68
842.903	-7.85
843.079	47.44
843.255	33.11
843.431	8.53
843.607	67.92
843.783	-7.85
843.959	8.53
844.134	55.64
844.31	80.21
844.486	29.01
844.662	55.64
844.838	26.96
845.013	51.54
845.189	-18.09
845.365	90.45
845.541	72.02
845.716	104.79
845.892	31.06
846.068	47.44
846.244	47.44
846.419	-16.04
846.595	22.87
846.77	67.92
846.946	69.97
847.122	41.3
847.297	33.11
847.473	69.97
847.648	63.83
847.824	51.54
847.999	22.87
848.175	22.87
848.35	-5.8
848.526	55.64
848.701	41.3
848.876	86.36
849.052	80.21
849.227	49.49
849.403	-9.9
849.578	55.64
849.753	49.49
849.929	55.64
850.104	6.49
850.279	14.68
850.454	104.79
850.63	88.4
850.805	69.97
850.98	31.06
851.155	-9.9
851.33	74.07
851.505	67.92
851.681	65.88
851.856	63.83
852.031	12.63
852.206	8.53
852.381	33.11
852.556	78.16
852.731	26.96
852.906	63.83
853.081	6.49
853.256	26.96
853.431	47.44
853.606	39.25
853.781	6.49
853.956	-34.47
854.131	-59.05
854.305	35.16
854.48	80.21
854.655	47.44
854.83	-1.71
855.005	-1.71
855.18	31.06
855.354	6.49
855.529	18.77
855.704	80.21
855.879	80.21
856.053	39.25
856.228	63.83
856.403	41.3
856.577	0.34
856.752	-18.09
856.926	47.44
857.101	-1.71
857.276	24.92
857.45	-13.99
857.625	57.68
857.799	65.88
857.974	115.03
858.148	-24.23
858.323	24.92
858.497	39.25
858.672	72.02
858.846	55.64
859.02	61.78
859.195	33.11
859.369	-5.8
859.543	18.77
859.718	2.39
859.892	-18.09
860.066	-1.71
860.241	55.64
860.415	6.49
860.589	82.26
860.763	76.12
860.938	-28.33
861.112	59.73
861.286	-59.05
861.46	76.12
861.634	-36.52
861.808	57.68
861.982	14.68
862.157	6.49
862.331	-9.9
862.505	-91.82
862.679	-30.38
862.853	-9.9
863.027	6.49
863.201	24.92
863.375	29.01
863.549	29.01
863.722	80.21
863.896	39.25
864.07	-30.38
864.244	22.87
864.418	47.44
864.592	72.02
864.766	55.64
864.939	49.49
865.113	53.59
865.287	53.59
865.461	-40.62
865.634	59.73
865.808	31.06
865.982	2.39
866.156	6.49
866.329	26.96
866.503	2.39
866.676	57.68
866.85	84.31
867.024	2.39
867.197	31.06
867.371	55.64
867.544	8.53
867.718	-32.43
867.891	12.63
868.065	-7.85
868.238	2.39
868.412	22.87
868.585	-89.77
868.759	-67.24
868.932	-18.09
869.105	39.25
869.279	-16.04
869.452	14.68
869.625	6.49
869.799	47.44
869.972	22.87
870.145	10.58
870.319	31.06
870.492	10.58
870.665	-13.99
870.838	-67.24
871.011	-32.43
871.185	63.83
871.358	-16.04
871.531	6.49
871.704	-18.09
871.877	74.07
872.05	31.06
872.223	41.3
872.396	76.12
872.569	78.16
872.742	-24.23
872.915	33.11
873.088	-3.75
873.261	-7.85
873.434	-50.86
873.607	-5.8
873.78	49.49
873.953	-1.71
874.126	35.16
874.299	43.35
874.471	-18.09
874.644	65.88
874.817	151.89
874.99	43.35
875.163	96.6
875.335	31.06
875.508	-7.85
875.681	57.68
875.853	-1.71
876.026	24.92
876.199	-9.9
876.371	2.39
876.544	-24.23
876.717	47.44
876.889	72.02
877.062	-1.71
877.234	-26.28
877.407	31.06
877.579	-32.43
877.752	-26.28
877.924	35.16
878.097	26.96
878.269	24.92
878.442	35.16
878.614	-1.71
878.786	112.98
878.959	-1.71
879.131	-32.43
879.303	-24.23
879.476	14.68
879.648	49.49
879.82	39.25
879.993	-42.67
880.165	35.16
880.337	-20.14
880.509	-7.85
880.681	-34.47
880.854	-26.28
881.026	43.35
881.198	78.16
881.37	22.87
881.542	-26.28
881.714	-7.85
881.886	37.2
882.058	0.34
882.23	16.73
882.402	-32.43
882.574	57.68
882.746	31.06
882.918	-7.85
883.09	29.01
883.262	-28.33
883.434	-38.57
883.606	41.3
883.778	-24.23
883.95	104.79
884.122	8.53
884.293	47.44
884.465	43.35
884.637	57.68
884.809	74.07
884.98	76.12
885.152	-11.95
885.324	14.68
885.496	2.39
885.667	-18.09
885.839	-42.67
886.011	57.68
886.182	82.26
886.354	26.96
886.525	10.58
886.697	-42.67
886.869	51.54
887.04	22.87
887.212	112.98
887.383	47.44
887.555	31.06
887.726	2.39
887.897	-16.04
888.069	108.88
888.24	-34.47
888.412	14.68
888.583	-5.8
888.754	-42.67
888.926	-24.23
889.097	106.84
889.268	-5.8
889.44	-26.28
889.611	-32.43
889.782	33.11
889.953	-61.1
890.125	55.64
890.296	18.77
890.467	-50.86
890.638	2.39
890.809	8.53
890.98	-3.75
891.151	-34.47
891.323	45.4
891.494	12.63
891.665	24.92
891.836	10.58
892.007	-1.71
892.178	-1.71
892.349	8.53
892.52	-20.14
892.691	-75.43
892.862	-5.8
893.032	-18.09
893.203	14.68
893.374	-13.99
893.545	31.06
893.716	10.58
893.887	31.06
894.057	-18.09
894.228	24.92
894.399	-30.38
894.57	80.21
894.74	22.87
894.911	8.53
895.082	-1.71
895.253	-46.76
895.423	-22.19
895.594	-59.05
895.764	22.87
895.935	-63.15
896.106	-9.9
896.276	24.92
896.447	-7.85
896.617	14.68
896.788	-13.99
896.958	31.06
897.129	-36.52
897.299	-48.81
897.47	20.82
897.64	76.12
897.81	22.87
897.981	-40.62
898.151	0.34
898.322	26.96
898.492	0.34
898.662	6.49
898.832	-67.24
899.003	6.49
899.173	74.07
899.343	14.68
899.513	-18.09
