Data from USB4F104151__97__14-43-37-654.txt Node

Date: Thu Mar 13 14:43:37 EDT 2025
User: louis
Spectrometer: USB4F10415
Trigger mode: 4
Integration Time (sec): 2.000000E-2
Scans to average: 1
Electric dark correction enabled: true
Nonlinearity correction enabled: false
Boxcar width: 0
XAxis mode: Wavelengths
Number of Pixels in Spectrum: 3648
>>>>>Begin Spectral Data<<<<<
178.204	-101.03
178.424	-101.03
178.644	-101.03
178.864	-107.18
179.084	-127.66
179.304	-0.68
179.524	-35.5
179.744	60.76
179.964	9.56
180.184	-49.83
180.404	15.7
180.624	40.28
180.844	15.7
181.064	-29.35
181.283	1.37
181.503	-17.07
181.723	-10.92
181.943	-53.93
182.163	42.32
182.383	54.61
182.602	40.28
182.822	56.66
183.042	114
183.262	7.51
183.482	-29.35
183.701	32.08
183.921	25.94
184.141	9.56
184.361	66.9
184.58	-45.74
184.8	91.48
185.02	15.7
185.239	7.51
185.459	52.56
185.679	73.04
185.898	32.08
186.118	64.85
186.338	44.37
186.557	77.14
186.777	-23.21
186.997	27.99
187.216	54.61
187.436	56.66
187.655	56.66
187.875	75.09
188.095	75.09
188.314	64.85
188.534	32.08
188.753	-33.45
188.973	-6.83
189.192	75.09
189.412	87.38
189.631	32.08
189.851	126.29
190.07	73.04
190.29	27.99
190.509	40.28
190.729	40.28
190.948	114
191.168	105.81
191.387	56.66
191.607	-6.83
191.826	44.37
192.045	21.84
192.265	56.66
192.484	-0.68
192.704	40.28
192.923	5.46
193.142	124.24
193.362	68.95
193.581	56.66
193.8	83.28
194.02	52.56
194.239	50.52
194.458	32.08
194.678	71
194.897	56.66
195.116	23.89
195.335	19.8
195.555	-12.97
195.774	27.99
195.993	-12.97
196.212	60.76
196.432	23.89
196.651	58.71
196.87	-82.6
197.089	58.71
197.308	48.47
197.528	81.24
197.747	-35.5
197.966	56.66
198.185	-0.68
198.404	34.13
198.623	-6.83
198.842	40.28
199.062	85.33
199.281	73.04
199.5	-4.78
199.719	34.13
199.938	71
200.157	64.85
200.376	56.66
200.595	64.85
200.814	27.99
201.033	34.13
201.252	15.7
201.471	-17.07
201.69	44.37
201.909	7.51
202.128	21.84
202.347	-43.69
202.566	-37.55
202.785	17.75
203.004	3.41
203.223	154.96
203.442	48.47
203.661	19.8
203.879	50.52
204.098	85.33
204.317	27.99
204.536	73.04
204.755	7.51
204.974	58.71
205.193	38.23
205.411	89.43
205.63	3.41
205.849	60.76
206.068	68.95
206.287	85.33
206.505	77.14
206.724	7.51
206.943	23.89
207.162	1.37
207.381	64.85
207.599	34.13
207.818	42.32
208.037	42.32
208.255	40.28
208.474	150.87
208.693	30.04
208.911	56.66
209.13	62.8
209.349	48.47
209.567	-74.41
209.786	44.37
210.005	103.76
210.223	64.85
210.442	-0.68
210.661	97.62
210.879	95.57
211.098	30.04
211.316	15.7
211.535	81.24
211.753	109.91
211.972	-8.87
212.191	27.99
212.409	25.94
212.628	32.08
212.846	23.89
213.065	58.71
213.283	21.84
213.502	-4.78
213.72	64.85
213.938	56.66
214.157	64.85
214.375	36.18
214.594	25.94
214.812	-23.21
215.031	89.43
215.249	30.04
215.467	114
215.686	3.41
215.904	-6.83
216.122	-6.83
216.341	116.05
216.559	50.52
216.778	56.66
216.996	60.76
217.214	48.47
217.432	-15.02
217.651	11.61
217.869	-12.97
218.087	-6.83
218.306	60.76
218.524	13.65
218.742	73.04
218.96	48.47
219.179	42.32
219.397	19.8
219.615	81.24
219.833	42.32
220.051	-33.45
220.27	81.24
220.488	50.52
220.706	52.56
220.924	-74.41
221.142	56.66
221.36	11.61
221.578	-8.87
221.796	77.14
222.015	15.7
222.233	36.18
222.451	50.52
222.669	77.14
222.887	21.84
223.105	1.37
223.323	11.61
223.541	-17.07
223.759	95.57
223.977	97.62
224.195	93.52
224.413	101.72
224.631	48.47
224.849	58.71
225.067	66.9
225.285	68.95
225.503	124.24
225.721	36.18
225.939	-37.55
226.157	-17.07
226.375	50.52
226.592	15.7
226.81	-12.97
227.028	93.52
227.246	89.43
227.464	5.46
227.682	89.43
227.9	48.47
228.117	99.67
228.335	48.47
228.553	97.62
228.771	23.89
228.989	66.9
229.206	11.61
229.424	81.24
229.642	1.37
229.86	50.52
230.077	40.28
230.295	124.24
230.513	107.86
230.731	48.47
230.948	40.28
231.166	27.99
231.384	81.24
231.601	5.46
231.819	62.8
232.037	11.61
232.254	-25.26
232.472	-4.78
232.689	73.04
232.907	68.95
233.125	-84.65
233.342	44.37
233.56	32.08
233.777	7.51
233.995	-6.83
234.213	97.62
234.43	9.56
234.648	77.14
234.865	-8.87
235.083	56.66
235.3	32.08
235.518	15.7
235.735	91.48
235.953	38.23
236.17	40.28
236.388	40.28
236.605	3.41
236.822	-0.68
237.04	-27.31
237.257	42.32
237.475	-10.92
237.692	40.28
237.909	-31.4
238.127	23.89
238.344	56.66
238.562	23.89
238.779	17.75
238.996	-33.45
239.214	9.56
239.431	81.24
239.648	15.7
239.865	48.47
240.083	7.51
240.3	27.99
240.517	30.04
240.735	23.89
240.952	75.09
241.169	23.89
241.386	36.18
241.603	77.14
241.821	-12.97
242.038	46.42
242.255	-17.07
242.472	46.42
242.689	64.85
242.907	23.89
243.124	-27.31
243.341	56.66
243.558	7.51
243.775	52.56
243.992	56.66
244.209	60.76
244.426	52.56
244.643	73.04
244.86	-43.69
245.078	107.86
245.295	60.76
245.512	64.85
245.729	23.89
245.946	56.66
246.163	58.71
246.38	-27.31
246.597	42.32
246.814	36.18
247.031	-29.35
247.248	75.09
247.464	-33.45
247.681	25.94
247.898	46.42
248.115	23.89
248.332	-45.74
248.549	99.67
248.766	105.81
248.983	21.84
249.2	-25.26
249.417	-10.92
249.633	9.56
249.85	68.95
250.067	-0.68
250.284	64.85
250.501	7.51
250.717	27.99
250.934	-12.97
251.151	44.37
251.368	23.89
251.585	58.71
251.801	21.84
252.018	-0.68
252.235	60.76
252.451	-49.83
252.668	50.52
252.885	87.38
253.102	7.51
253.318	7.51
253.535	-0.68
253.752	23.89
253.968	44.37
254.185	87.38
254.401	-21.16
254.618	36.18
254.835	48.47
255.051	97.62
255.268	60.76
255.484	83.28
255.701	75.09
255.917	42.32
256.134	19.8
256.351	-29.35
256.567	50.52
256.784	11.61
257	32.08
257.217	1.37
257.433	77.14
257.65	64.85
257.866	89.43
258.082	7.51
258.299	15.7
258.515	-6.83
258.732	32.08
258.948	27.99
259.165	-6.83
259.381	-23.21
259.597	79.19
259.814	25.94
260.03	34.13
260.246	27.99
260.463	101.72
260.679	34.13
260.895	27.99
261.112	118.1
261.328	48.47
261.544	44.37
261.761	73.04
261.977	64.85
262.193	17.75
262.409	38.23
262.626	58.71
262.842	75.09
263.058	-4.78
263.274	73.04
263.49	-12.97
263.707	81.24
263.923	17.75
264.139	-4.78
264.355	32.08
264.571	140.63
264.787	23.89
265.004	97.62
265.22	-23.21
265.436	27.99
265.652	34.13
265.868	-8.87
266.084	23.89
266.3	52.56
266.516	17.75
266.732	75.09
266.948	-17.07
267.164	75.09
267.38	40.28
267.596	58.71
267.812	124.24
268.028	50.52
268.244	77.14
268.46	64.85
268.676	7.51
268.892	95.57
269.108	23.89
269.324	11.61
269.54	-17.07
269.756	-25.26
269.972	23.89
270.188	107.86
270.403	7.51
270.619	7.51
270.835	23.89
271.051	66.9
271.267	32.08
271.483	9.56
271.698	50.52
271.914	46.42
272.13	38.23
272.346	81.24
272.562	15.7
272.777	15.7
272.993	-23.21
273.209	-17.07
273.425	-21.16
273.64	-21.16
273.856	25.94
274.072	56.66
274.287	11.61
274.503	56.66
274.719	32.08
274.934	-27.31
275.15	-55.98
275.366	-31.4
275.581	50.52
275.797	1.37
276.012	-8.87
276.228	101.72
276.444	77.14
276.659	91.48
276.875	101.72
277.09	134.48
277.306	11.61
277.521	85.33
277.737	-12.97
277.952	124.24
278.168	93.52
278.383	52.56
278.599	46.42
278.814	85.33
279.03	7.51
279.245	85.33
279.461	99.67
279.676	34.13
279.892	19.8
280.107	32.08
280.322	7.51
280.538	62.8
280.753	73.04
280.969	34.13
281.184	97.62
281.399	114
281.615	3.41
281.83	-12.97
282.045	-41.64
282.26	-0.68
282.476	-33.45
282.691	-0.68
282.906	30.04
283.122	64.85
283.337	19.8
283.552	52.56
283.767	50.52
283.983	48.47
284.198	44.37
284.413	85.33
284.628	-39.59
284.843	5.46
285.058	32.08
285.274	-4.78
285.489	-6.83
285.704	64.85
285.919	25.94
286.134	77.14
286.349	44.37
286.564	27.99
286.779	-45.74
286.995	68.95
287.21	27.99
287.425	58.71
287.64	25.94
287.855	19.8
288.07	-41.64
288.285	154.96
288.5	11.61
288.715	73.04
288.93	124.24
289.145	-25.26
289.36	7.51
289.575	40.28
289.79	40.28
290.004	34.13
290.219	62.8
290.434	52.56
290.649	15.7
290.864	40.28
291.079	50.52
291.294	30.04
291.509	64.85
291.724	50.52
291.938	-62.12
292.153	15.7
292.368	-39.59
292.583	19.8
292.798	138.58
293.012	23.89
293.227	11.61
293.442	77.14
293.657	-8.87
293.871	138.58
294.086	40.28
294.301	75.09
294.516	81.24
294.73	21.84
294.945	9.56
295.16	64.85
295.374	73.04
295.589	105.81
295.804	-10.92
296.018	25.94
296.233	114
296.447	36.18
296.662	-17.07
296.877	107.86
297.091	93.52
297.306	32.08
297.52	3.41
297.735	23.89
297.949	44.37
298.164	56.66
298.378	32.08
298.593	-0.68
298.807	66.9
299.022	42.32
299.236	56.66
299.451	25.94
299.665	40.28
299.88	42.32
300.094	56.66
300.309	50.52
300.523	42.32
300.737	60.76
300.952	48.47
301.166	75.09
301.381	-6.83
301.595	44.37
301.809	50.52
302.024	19.8
302.238	77.14
302.452	99.67
302.667	19.8
302.881	73.04
303.095	11.61
303.309	11.61
303.524	68.95
303.738	9.56
303.952	56.66
304.166	89.43
304.381	-43.69
304.595	91.48
304.809	19.8
305.023	52.56
305.237	19.8
305.452	62.8
305.666	83.28
305.88	25.94
306.094	40.28
306.308	15.7
306.522	107.86
306.736	11.61
306.95	3.41
307.164	83.28
307.379	30.04
307.593	77.14
307.807	23.89
308.021	15.7
308.235	136.53
308.449	21.84
308.663	56.66
308.877	81.24
309.091	146.77
309.305	-6.83
309.519	-49.83
309.733	42.32
309.947	25.94
310.161	109.91
310.374	85.33
310.588	114
310.802	-8.87
311.016	64.85
311.23	60.76
311.444	34.13
311.658	23.89
311.872	97.62
312.085	36.18
312.299	81.24
312.513	116.05
312.727	-10.92
312.941	34.13
313.154	107.86
313.368	91.48
313.582	64.85
313.796	27.99
314.009	73.04
314.223	95.57
314.437	25.94
314.651	99.67
314.864	34.13
315.078	-35.5
315.292	15.7
315.505	9.56
315.719	11.61
315.933	42.32
316.146	32.08
316.36	34.13
316.573	64.85
316.787	27.99
317.001	-0.68
317.214	109.91
317.428	64.85
317.641	25.94
317.855	66.9
318.068	48.47
318.282	19.8
318.495	114
318.709	109.91
318.922	73.04
319.136	75.09
319.349	150.87
319.563	64.85
319.776	66.9
319.99	-25.26
320.203	7.51
320.417	91.48
320.63	17.75
320.843	157.01
321.057	19.8
321.27	17.75
321.483	27.99
321.697	52.56
321.91	77.14
322.124	73.04
322.337	44.37
322.55	89.43
322.763	23.89
322.977	56.66
323.19	15.7
323.403	40.28
323.617	38.23
323.83	-39.59
324.043	9.56
324.256	23.89
324.469	-6.83
324.683	42.32
324.896	60.76
325.109	97.62
325.322	56.66
325.535	122.2
325.748	68.95
325.962	40.28
326.175	130.39
326.388	60.76
326.601	32.08
326.814	42.32
327.027	27.99
327.24	120.15
327.453	7.51
327.666	15.7
327.879	7.51
328.092	114
328.305	42.32
328.518	68.95
328.731	17.75
328.944	23.89
329.157	25.94
329.37	3.41
329.583	118.1
329.796	60.76
330.009	60.76
330.222	40.28
330.435	-21.16
330.648	38.23
330.861	130.39
331.073	23.89
331.286	81.24
331.499	27.99
331.712	-53.93
331.925	56.66
332.138	52.56
332.35	91.48
332.563	11.61
332.776	111.96
332.989	25.94
333.202	-15.02
333.414	11.61
333.627	56.66
333.84	19.8
334.053	48.47
334.265	11.61
334.478	-4.78
334.691	-4.78
334.903	32.08
335.116	3.41
335.329	-21.16
335.541	68.95
335.754	34.13
335.966	1.37
336.179	19.8
336.392	19.8
336.604	25.94
336.817	52.56
337.029	40.28
337.242	3.41
337.454	7.51
337.667	93.52
337.88	48.47
338.092	-0.68
338.305	25.94
338.517	32.08
338.729	32.08
338.942	52.56
339.154	81.24
339.367	-8.87
339.579	23.89
339.792	32.08
340.004	46.42
340.217	-25.26
340.429	48.47
340.641	34.13
340.854	40.28
341.066	-8.87
341.278	66.9
341.491	95.57
341.703	40.28
341.915	-15.02
342.128	1.37
342.34	30.04
342.552	122.2
342.764	81.24
342.977	-4.78
343.189	23.89
343.401	58.71
343.613	34.13
343.826	23.89
344.038	34.13
344.25	73.04
344.462	19.8
344.674	79.19
344.886	34.13
345.099	122.2
345.311	17.75
345.523	15.7
345.735	-4.78
345.947	64.85
346.159	-25.26
346.371	58.71
346.583	-17.07
346.795	99.67
347.007	-15.02
347.219	109.91
347.431	66.9
347.643	66.9
347.855	44.37
348.067	48.47
348.279	83.28
348.491	101.72
348.703	68.95
348.915	44.37
349.127	36.18
349.339	32.08
349.551	-21.16
349.763	-17.07
349.975	44.37
350.187	44.37
350.399	32.08
350.61	7.51
350.822	21.84
351.034	93.52
351.246	23.89
351.458	52.56
351.669	81.24
351.881	48.47
352.093	68.95
352.305	7.51
352.517	36.18
352.728	83.28
352.94	48.47
353.152	-0.68
353.363	44.37
353.575	52.56
353.787	75.09
353.999	-17.07
354.21	23.89
354.422	36.18
354.633	-15.02
354.845	93.52
355.057	30.04
355.268	42.32
355.48	11.61
355.692	48.47
355.903	48.47
356.115	-31.4
356.326	3.41
356.538	97.62
356.749	48.47
356.961	120.15
357.172	17.75
357.384	-47.79
357.595	105.81
357.807	64.85
358.018	48.47
358.23	23.89
358.441	77.14
358.653	64.85
358.864	85.33
359.075	48.47
359.287	23.89
359.498	68.95
359.709	50.52
359.921	-25.26
360.132	60.76
360.344	66.9
360.555	40.28
360.766	36.18
360.977	83.28
361.189	83.28
361.4	-43.69
361.611	58.71
361.823	81.24
362.034	15.7
362.245	50.52
362.456	15.7
362.667	56.66
362.879	15.7
363.09	73.04
363.301	34.13
363.512	91.48
363.723	36.18
363.935	40.28
364.146	89.43
364.357	17.75
364.568	93.52
364.779	-35.5
364.99	40.28
365.201	15.7
365.412	81.24
365.623	15.7
365.834	85.33
366.045	93.52
366.256	38.23
366.467	64.85
366.678	-21.16
366.889	62.8
367.1	38.23
367.311	50.52
367.522	52.56
367.733	27.99
367.944	126.29
368.155	9.56
368.366	-17.07
368.577	85.33
368.788	81.24
368.999	73.04
369.209	48.47
369.42	107.86
369.631	142.68
369.842	122.2
370.053	-39.59
370.264	109.91
370.474	42.32
370.685	42.32
370.896	122.2
371.107	81.24
371.317	73.04
371.528	126.29
371.739	-0.68
371.95	122.2
372.16	75.09
372.371	81.24
372.582	101.72
372.792	83.28
373.003	89.43
373.214	93.52
373.424	-0.68
373.635	15.7
373.846	177.49
374.056	60.76
374.267	58.71
374.477	-15.02
374.688	32.08
374.898	83.28
375.109	34.13
375.319	83.28
375.53	93.52
375.74	107.86
375.951	105.81
376.161	107.86
376.372	23.89
376.582	-60.07
376.793	73.04
377.003	15.7
377.214	48.47
377.424	-8.87
377.635	77.14
377.845	83.28
378.055	93.52
378.266	5.46
378.476	91.48
378.686	13.65
378.897	111.96
379.107	23.89
379.317	48.47
379.528	-4.78
379.738	77.14
379.948	40.28
380.158	105.81
380.369	99.67
380.579	122.2
380.789	60.76
380.999	93.52
381.21	114
381.42	111.96
381.63	42.32
381.84	54.61
382.05	91.48
382.261	-0.68
382.471	40.28
382.681	38.23
382.891	81.24
383.101	81.24
383.311	15.7
383.521	58.71
383.731	107.86
383.941	87.38
384.151	62.8
384.361	19.8
384.571	44.37
384.781	66.9
384.991	116.05
385.201	68.95
385.411	40.28
385.621	56.66
385.831	93.52
386.041	107.86
386.251	81.24
386.461	66.9
386.671	-33.45
386.881	64.85
387.091	19.8
387.301	73.04
387.511	36.18
387.72	140.63
387.93	-15.02
388.14	17.75
388.35	48.47
388.56	73.04
388.769	64.85
388.979	75.09
389.189	73.04
389.399	79.19
389.609	83.28
389.818	130.39
390.028	64.85
390.238	36.18
390.447	83.28
390.657	64.85
390.867	56.66
391.076	25.94
391.286	91.48
391.496	60.76
391.705	97.62
391.915	46.42
392.125	32.08
392.334	-0.68
392.544	114
392.753	48.47
392.963	23.89
393.172	48.47
393.382	68.95
393.591	97.62
393.801	64.85
394.01	114
394.22	103.76
394.429	126.29
394.639	81.24
394.848	73.04
395.058	23.89
395.267	91.48
395.477	103.76
395.686	105.81
395.895	122.2
396.105	146.77
396.314	56.66
396.524	81.24
396.733	142.68
396.942	48.47
397.152	11.61
397.361	50.52
397.57	71
397.78	146.77
397.989	111.96
398.198	171.35
398.407	91.48
398.617	116.05
398.826	128.34
399.035	89.43
399.244	107.86
399.453	77.14
399.663	23.89
399.872	52.56
400.081	124.24
400.29	152.91
400.499	89.43
400.708	107.86
400.917	54.61
401.127	118.1
401.336	44.37
401.545	214.35
401.754	222.55
401.963	99.67
402.172	189.78
402.381	50.52
402.59	99.67
402.799	44.37
403.008	157.01
403.217	171.35
403.426	114
403.635	154.96
403.844	134.48
404.053	95.57
404.262	64.85
404.471	157.01
404.68	122.2
404.888	169.3
405.097	122.2
405.306	181.59
405.515	179.54
405.724	81.24
405.933	142.68
406.142	169.3
406.35	243.03
406.559	126.29
406.768	195.92
406.977	204.11
407.185	167.25
407.394	228.69
407.603	195.92
407.812	222.55
408.02	167.25
408.229	167.25
408.438	269.65
408.646	148.82
408.855	195.92
409.064	195.92
409.272	245.07
409.481	206.16
409.69	247.12
409.898	216.4
410.107	214.35
410.315	386.38
410.524	286.03
410.733	335.18
410.941	372.05
411.15	339.28
411.358	312.66
411.567	370
411.775	392.53
411.984	435.53
412.192	392.53
412.401	421.2
412.609	490.83
412.818	478.54
413.026	433.49
413.234	468.3
413.443	425.29
413.651	392.53
413.86	474.45
414.068	539.98
414.276	609.61
414.485	501.07
414.693	580.94
414.901	630.09
415.11	621.9
415.318	597.32
415.526	640.33
415.734	695.63
415.943	695.63
416.151	724.3
416.359	748.87
416.567	728.39
416.776	806.22
416.984	755.02
417.192	929.1
417.4	806.22
417.608	933.19
417.817	953.67
418.025	982.34
418.233	1080.64
418.441	1015.11
418.649	1023.3
418.857	1135.94
419.065	1254.72
419.273	1064.26
419.481	1219.91
419.689	1154.37
419.897	1424.7
420.105	1420.61
420.313	1359.17
420.521	1432.9
420.729	1484.09
420.937	1473.85
421.145	1537.34
421.353	1692.99
421.561	1680.7
421.769	1705.28
421.977	1797.43
422.185	1711.42
422.393	1793.34
422.601	1912.12
422.809	1844.54
423.017	2018.61
423.224	2000.18
423.432	2129.2
423.64	2106.68
423.848	2434.35
424.056	2235.7
424.263	2508.08
424.471	2530.61
424.679	2563.37
424.887	2645.29
425.094	2649.39
425.302	2719.02
425.51	2755.88
425.718	2954.54
425.925	3050.79
426.133	3112.23
426.341	3220.77
426.548	3515.68
426.756	3439.9
426.964	3593.5
427.171	3599.65
427.379	3921.18
427.586	3792.16
427.794	3869.98
428.001	4070.68
428.209	4201.75
428.417	4097.3
428.624	4545.81
428.832	4533.52
429.039	4525.33
429.247	4384.02
429.454	4916.49
429.662	5215.49
429.869	4865.29
430.076	5221.64
430.284	5055.75
430.491	5287.17
430.699	5485.83
430.906	5547.26
431.114	5758.21
431.321	5866.75
431.528	5973.24
431.736	6186.23
431.943	6771.95
432.15	6386.93
432.358	6388.98
432.565	6941.93
432.772	6866.16
432.979	7212.26
433.187	7152.87
433.394	7224.55
433.601	7920.86
433.808	7896.28
434.016	7808.22
434.223	8101.08
434.43	8707.28
434.637	8332.5
434.844	8920.27
435.052	9235.66
435.259	8981.71
435.466	9131.21
435.673	9108.68
435.88	9628.87
436.087	10083.52
436.294	10183.87
436.501	9870.53
436.708	10177.72
436.915	10462.39
437.122	11035.82
437.329	10945.71
437.537	11328.68
437.743	11625.64
437.95	11293.86
438.157	11861.15
438.364	12188.83
438.571	12188.83
438.778	12426.39
438.985	13608.07
439.192	12926.1
439.399	13339.79
439.606	12881.04
439.813	14058.62
440.02	14693.49
440.227	14371.96
440.433	14427.26
440.64	14574.71
440.847	14691.45
441.054	14859.38
441.261	15848.55
441.467	15815.78
441.674	16088.16
441.881	16637.02
442.088	16600.15
442.294	16444.51
442.501	17026.13
442.708	17128.53
442.914	17509.45
443.121	18584.63
443.328	18119.74
443.534	19328.05
443.741	18641.98
443.948	18308.16
444.154	20020.26
444.361	19500.08
444.568	19739.69
444.774	19911.72
444.981	20141.09
445.187	20790.3
445.394	21601.29
445.6	21408.78
445.807	23862.25
446.013	22389.76
446.22	22612.99
446.426	23557.1
446.633	23972.84
446.839	24806.36
447.046	23610.35
447.252	25005.02
447.459	24927.19
447.665	24792.03
447.871	26037.19
448.078	27059.13
448.284	25832.4
448.491	26723.26
448.697	27431.86
448.903	28154.79
449.11	28246.95
449.316	27661.23
449.522	28189.61
449.728	28824.48
449.935	29465.49
450.141	29098.91
450.347	30032.78
450.553	29146.01
450.76	29086.62
450.966	30538.63
451.172	30024.59
451.378	30718.85
451.584	30028.68
451.791	30636.93
451.997	31081.34
452.203	31560.56
452.409	31660.91
452.615	31359.86
452.821	30077.83
453.027	30155.66
453.233	31454.07
453.44	30270.34
453.646	30669.7
453.852	30782.34
454.058	31243.13
454.264	30043.02
454.47	30958.46
454.676	30167.94
454.882	31294.33
455.088	28615.58
455.294	28814.24
455.5	29545.36
455.705	29633.43
455.911	28531.62
456.117	28203.94
456.323	28087.21
456.529	26272.71
456.735	27782.06
456.941	26868.67
457.147	26504.13
457.352	25455.57
457.558	25453.52
457.764	25496.53
457.97	24929.24
458.176	24673.24
458.381	24622.05
458.587	23276.53
458.793	23559.15
458.999	22445.05
459.204	23763.95
459.41	23143.41
459.616	21535.76
459.821	21918.73
460.027	21691.4
460.233	21242.9
460.438	19897.38
460.644	19977.25
460.85	19119.15
461.055	18953.27
461.261	19186.74
461.466	17499.21
461.672	17046.61
461.878	18232.38
462.083	17062.99
462.289	16997.46
462.494	16551
462.7	15975.52
462.905	15393.9
463.111	16096.35
463.316	16059.49
463.522	15492.2
463.727	15783.01
463.932	15770.72
464.138	15664.23
464.343	15508.58
464.549	15213.68
464.754	15717.48
464.959	15498.34
465.165	15371.37
465.37	14765.17
465.575	14349.43
465.781	14699.64
465.986	14838.9
466.191	14498.94
466.397	14122.11
466.602	13446.28
466.807	14091.39
467.012	13943.94
467.218	13665.41
467.423	13778.05
467.628	13735.04
467.833	14605.43
468.038	13939.84
468.244	13509.77
468.449	14122.11
468.654	13589.64
468.859	13495.43
469.064	13274.25
469.269	12807.31
469.474	12885.14
469.679	13069.45
469.885	12797.07
470.09	12938.38
470.295	13008.01
470.5	12524.69
470.705	12940.43
470.91	12645.52
471.115	12362.9
471.32	12491.93
471.525	12569.75
471.73	12024.99
471.935	12035.23
472.139	11582.63
472.344	11779.23
472.549	11734.18
472.754	11568.29
472.959	11273.39
473.164	11269.29
473.369	11148.46
473.574	11410.6
473.778	11228.33
473.983	11017.39
474.188	11142.32
474.393	10706.1
474.598	10794.16
474.802	10781.87
475.007	10454.2
475.212	10675.38
475.417	10222.78
475.621	10388.66
475.826	10208.44
476.031	9944.25
476.235	9958.59
476.44	10085.56
476.645	9698.5
476.849	9708.74
477.054	9563.33
477.259	9626.82
477.463	9510.08
477.668	9452.74
477.872	9403.59
478.077	9168.07
478.282	9004.24
478.486	9006.28
478.691	8862.93
478.895	8862.93
479.1	8838.35
479.304	8948.94
479.509	8760.53
479.713	8674.51
479.918	8529.11
480.122	8340.69
480.326	8600.79
480.531	8633.55
480.735	8350.93
480.94	8418.52
481.144	8762.58
481.348	8301.78
481.553	8240.34
481.757	8144.09
481.961	8318.17
482.166	8406.23
482.37	8289.49
482.574	8113.37
482.778	8217.82
482.983	8166.62
483.187	8357.08
483.391	8096.99
483.595	8211.67
483.8	7824.61
484.004	8068.31
484.208	8305.88
484.412	8027.35
484.616	8092.89
484.821	8068.31
485.025	7900.38
485.229	8084.7
485.433	8064.22
485.637	8043.74
485.841	8084.7
486.045	8205.53
486.249	8121.56
486.453	8035.55
486.657	7994.59
486.861	8058.07
487.065	7984.35
487.269	7994.59
487.473	7965.92
487.677	8289.49
487.881	8195.29
488.085	8113.37
488.289	8348.89
488.493	8060.12
488.697	8172.76
488.901	8096.99
489.105	8150.23
489.309	8338.65
489.512	8131.8
489.716	8385.75
489.92	8076.51
490.124	8232.15
490.328	8379.61
490.531	8250.58
490.735	8332.5
490.939	8512.72
491.143	8365.27
491.346	8365.27
491.55	8559.83
491.754	8398.04
491.958	8389.85
492.161	8520.92
492.365	8576.21
492.569	8467.67
492.772	8516.82
492.976	8453.33
493.18	8748.24
493.383	8912.08
493.587	8871.12
493.79	9000.14
493.994	8903.89
494.197	8903.89
494.401	9092.3
494.605	9094.35
494.808	9034.96
495.012	9282.76
495.215	9157.83
495.419	9219.27
495.622	9231.56
495.825	9239.75
496.029	9579.72
496.232	9557.19
496.436	9399.49
496.639	9860.29
496.843	9811.14
497.046	9895.1
497.249	10294.46
497.453	10075.32
497.656	10222.78
497.859	10108.09
498.063	10257.59
498.266	10677.43
498.469	10544.31
498.673	10615.99
498.876	10863.79
499.079	10882.22
499.282	10953.9
499.485	10951.85
499.689	11158.7
499.892	11261.1
500.095	11347.11
500.298	11738.27
500.501	11525.29
500.705	11826.34
500.908	11764.9
501.111	12283.03
501.314	12080.28
501.517	12332.19
501.72	12532.89
501.923	12461.21
502.126	12819.6
502.329	13057.17
502.532	13116.56
502.735	13171.85
502.938	13456.52
503.141	13442.18
503.344	13673.6
503.547	13444.23
503.75	13864.07
503.953	14189.69
504.156	14044.29
504.359	14234.75
504.562	14498.94
504.765	14625.91
504.968	14937.2
505.17	14957.68
505.373	15156.33
505.576	15090.8
505.779	15279.21
505.982	15518.82
506.185	15797.35
506.387	16049.25
506.59	15811.68
506.793	16450.65
506.996	16366.68
507.198	16682.07
507.401	16743.51
507.604	16835.67
507.807	17169.49
508.009	17226.83
508.212	17581.13
508.415	17785.93
508.617	18152.51
508.82	18154.56
509.022	17820.74
509.225	18332.73
509.428	18230.34
509.63	18674.74
509.833	19037.23
510.035	19270.7
510.238	19151.92
510.44	19190.83
510.643	19649.58
510.845	19672.11
511.048	19586.09
511.25	20229.15
511.453	20356.13
511.655	20995.09
511.858	20921.37
512.06	21003.28
512.262	20976.66
512.465	20943.89
512.667	21345.3
512.87	21687.31
513.072	21965.83
513.274	21801.99
513.477	22400
513.679	22268.93
513.881	22887.42
514.084	22981.62
514.286	22983.67
514.488	23335.92
514.69	24177.64
514.893	23684.08
515.095	24050.66
515.297	24085.48
515.499	24478.69
515.701	24792.03
515.904	24765.4
516.106	24953.82
516.308	25248.72
516.51	25617.36
516.712	25705.42
516.914	25869.26
517.116	26166.21
517.318	26041.29
517.52	26235.84
517.722	26461.12
517.925	26928.06
518.127	27284.4
518.329	27493.3
518.531	27337.65
518.733	27675.57
518.935	27808.68
519.136	28269.48
519.338	28804
519.54	28511.14
519.742	29016.99
519.944	29481.88
520.146	29514.64
520.348	29809.55
520.55	29608.85
520.752	29821.84
520.954	30149.51
521.155	30196.62
521.357	30620.55
521.559	30944.13
521.761	31300.47
521.963	31384.44
522.164	31198.07
522.366	31585.14
522.568	31699.83
522.77	32226.15
522.971	32189.29
523.173	32220.01
523.375	32389.99
523.576	32629.6
523.778	32762.72
523.98	33082.2
524.181	33008.48
524.383	33155.93
524.584	33745.75
524.786	33540.95
524.988	33686.36
525.189	34171.72
525.391	34003.79
525.592	34616.13
525.794	34476.87
525.995	34765.63
526.197	34483.02
526.398	35081.02
526.6	35242.81
526.801	35318.59
527.003	35228.48
527.204	35287.87
527.406	35509.05
527.607	35566.39
527.808	35719.99
528.01	35148.61
528.211	35795.76
528.412	36332.33
528.614	36297.52
528.815	36272.94
529.016	36483.88
529.218	35900.21
529.419	36485.93
529.62	36277.04
529.822	36272.94
530.023	36483.88
530.224	36797.22
530.425	36762.4
530.626	36262.7
530.828	36285.23
531.029	37458.71
531.23	36420.39
531.431	36948.77
531.632	36997.92
531.833	37540.63
532.035	36854.56
532.236	37065.5
532.437	37413.66
532.638	36686.63
532.839	37337.88
533.04	37301.02
533.241	36950.82
533.442	37909.27
533.643	37094.18
533.844	37143.33
534.045	37477.15
534.246	37088.03
534.447	37595.93
534.648	37360.41
534.849	37587.74
535.05	36924.19
535.251	37198.62
535.451	37350.17
535.652	37384.99
535.853	37415.71
536.054	37100.32
536.255	37473.05
536.456	37212.96
536.657	37942.03
536.857	37139.23
537.058	37069.6
537.259	37628.7
537.46	37272.35
537.66	37307.16
537.861	37559.06
538.062	37366.56
538.263	37341.98
538.463	37292.83
538.664	37526.3
538.865	37505.82
539.065	37679.89
539.266	37172
539.466	37530.39
539.667	36975.39
539.868	37700.37
540.068	37503.77
540.269	37116.7
540.469	37323.55
540.67	37337.88
540.87	37008.16
541.071	37137.18
541.271	37141.28
541.472	37006.11
541.672	37339.93
541.873	36885.28
542.073	36727.59
542.274	37249.82
542.474	37307.16
542.675	37106.46
542.875	37192.48
543.075	37137.18
543.276	36872.99
543.476	37509.91
543.676	36967.2
543.877	37397.27
544.077	37368.6
544.277	37106.46
544.478	37206.81
544.678	37425.95
544.878	36913.95
545.078	37262.11
545.279	36840.23
545.479	37135.13
545.679	37489.43
545.879	36735.78
546.079	37045.02
546.28	37096.22
546.48	36752.16
546.68	36813.6
546.88	37110.56
547.08	37047.07
547.28	36836.13
547.48	36666.15
547.68	37436.19
547.88	36883.23
548.081	36920.1
548.281	36764.45
548.481	36989.73
548.681	37075.74
548.881	36776.74
549.081	36889.38
549.28	36848.42
549.48	36774.69
549.68	36811.56
549.88	37399.32
550.08	36758.31
550.28	36791.08
550.48	36487.98
550.68	37163.81
550.88	36143.92
551.08	36365.1
551.279	36942.63
551.479	36094.77
551.679	36508.46
551.879	36494.12
552.079	36803.36
552.278	36870.95
552.478	36760.36
552.678	36459.31
552.878	36561.7
553.077	36635.43
553.277	36246.32
553.477	36717.35
553.676	36371.24
553.876	36356.91
554.076	36465.45
554.275	36268.84
554.475	35988.27
554.674	36633.38
554.874	36270.89
555.074	35959.6
555.273	36176.69
555.473	36428.59
555.672	36393.77
555.872	35900.21
556.071	35957.55
556.271	36313.9
556.47	35992.37
556.67	35922.74
556.869	35834.67
557.068	35670.84
557.268	35791.67
557.467	35758.9
557.667	36107.05
557.866	35713.84
558.065	35707.7
558.265	35507
558.464	35472.18
558.663	35978.03
558.863	35398.46
559.062	35752.76
559.261	35160.89
559.461	35869.49
559.66	35140.41
559.859	35724.08
560.058	35216.19
560.258	35287.87
560.457	35263.29
560.656	35232.57
560.855	34716.48
561.054	35132.22
561.253	35038.01
561.453	35117.89
561.652	34929.47
561.851	35089.21
562.05	35033.92
562.249	34906.94
562.448	35265.34
562.647	34868.03
562.846	34630.47
563.045	34609.99
563.244	34564.93
563.443	35062.59
563.642	34419.53
563.841	34435.91
564.04	34087.76
564.239	34843.46
564.438	34161.48
564.637	34300.75
564.836	34151.24
565.035	33897.3
565.234	34016.08
565.432	34237.26
565.631	33858.38
565.83	33823.57
566.029	33653.59
566.228	33520.47
566.427	33755.99
566.625	33672.02
566.824	33383.26
567.023	33696.6
567.222	32858.98
567.42	33438.55
567.619	33088.35
567.818	33225.56
568.016	33268.57
568.215	33614.68
568.414	33057.63
568.612	33254.23
568.811	32930.65
569.01	33192.79
569.208	32779.11
569.407	33035.1
569.605	32412.52
569.804	33096.54
570.002	32242.54
570.201	32770.91
570.4	32582.5
570.598	32318.31
570.797	32353.13
570.995	32459.62
571.193	31892.33
571.392	32396.13
571.59	31798.13
571.789	32025.45
571.987	31783.79
572.186	31892.33
572.384	31886.19
572.582	31488.88
572.781	31767.41
572.979	31351.67
573.177	31767.41
573.376	31769.46
573.574	31136.63
573.772	31355.77
573.971	31359.86
574.169	31130.49
574.367	31112.06
574.565	31290.23
574.763	30950.27
574.962	30929.79
575.16	30516.1
575.358	30563.2
575.556	30368.65
575.754	30790.53
575.952	30397.32
576.151	30589.83
576.349	30448.52
576.547	30313.35
576.745	30358.41
576.943	30169.99
577.141	30012.3
577.339	30317.45
577.537	29770.64
577.735	29936.52
577.933	29361.05
578.131	29971.34
578.329	29703.06
578.527	29291.41
578.725	29459.35
578.923	29852.56
579.121	29059.99
579.319	29166.49
579.516	29348.76
579.714	29578.13
579.912	29121.43
580.11	29121.43
580.308	29215.64
580.506	28894.11
580.704	28648.35
580.901	28541.86
581.099	29070.23
581.297	28494.75
581.495	28504.99
581.692	28810.14
581.89	28355.49
582.088	28736.41
582.285	28126.12
582.483	28208.04
582.681	28292.01
582.878	27694
583.076	27931.56
583.274	28150.7
583.471	27214.77
583.669	27788.21
583.866	27526.07
584.064	27808.68
584.262	27296.69
584.459	27804.59
584.657	27466.67
584.854	27407.28
585.052	27308.98
585.249	27139
585.447	27290.55
585.644	27063.22
585.841	26966.97
586.039	27403.19
586.236	26434.5
586.434	26577.86
586.631	26565.57
586.828	26739.65
587.026	26688.45
587.223	26031.05
587.42	26325.96
587.618	26411.97
587.815	26164.17
588.012	26092.49
588.21	26188.74
588.407	26285
588.604	25953.23
588.801	25736.14
588.999	25809.87
589.196	25777.1
589.393	25773
589.59	25883.59
589.787	25486.29
589.984	25367.51
590.182	25285.59
590.379	25443.28
590.576	25082.84
590.773	25121.75
590.97	24984.54
591.167	25105.37
591.364	24736.73
591.561	25099.22
591.758	24728.54
591.955	24916.95
592.152	24622.05
592.349	24652.77
592.546	24812.51
592.743	24712.16
592.94	24402.91
593.137	24579.04
593.334	24472.54
593.531	24151.01
593.727	24021.99
593.924	24288.23
594.121	23847.91
594.318	24032.23
594.515	23802.86
594.712	24046.57
594.908	23882.73
595.105	23804.91
595.302	23432.18
595.499	23626.73
595.696	23479.28
595.892	23317.49
596.089	23493.61
596.286	23544.81
596.482	23440.37
596.679	23200.76
596.876	23229.43
597.072	23120.88
597.269	22965.24
597.466	22748.15
597.662	22938.62
597.859	22645.76
598.055	22739.96
598.252	22510.59
598.448	22615.04
598.645	22635.52
598.841	22328.32
599.038	22555.65
599.234	22252.55
599.431	21949.45
599.627	21924.87
599.824	21920.77
600.02	21906.44
600.217	21781.51
600.413	21953.54
600.609	21900.3
600.806	21658.63
601.002	21902.34
601.198	21531.66
601.395	21462.03
601.591	21074.96
601.787	21265.42
601.984	21216.27
602.18	21699.59
602.376	21339.15
602.572	21120.02
602.769	21060.63
602.965	21015.57
603.161	21347.34
603.357	21036.05
603.553	20595.74
603.75	20714.52
603.946	20735
604.142	20450.33
604.338	20540.44
604.534	20571.16
604.73	20544.54
604.926	20390.94
605.122	20618.27
605.318	20268.06
605.514	20261.92
605.71	20190.24
605.906	20100.13
606.102	20048.93
606.298	20014.12
606.494	19983.4
606.69	20208.67
606.886	20061.22
607.082	19670.06
607.278	20012.07
607.474	19465.26
607.67	19668.01
607.866	19346.48
608.062	19612.71
608.257	19354.67
608.453	19557.42
608.649	19477.55
608.845	19348.53
609.041	19319.85
609.236	19606.57
609.432	19055.67
609.628	19450.92
609.824	19051.57
610.019	19172.4
610.215	19053.62
610.411	19178.54
610.606	19151.92
610.802	19180.59
610.998	19123.25
611.193	19100.72
611.389	18781.24
611.584	18975.8
611.78	18734.14
611.976	18674.74
612.171	18842.68
612.367	18578.49
612.562	18678.84
612.758	18416.7
612.953	18605.11
613.149	18818.1
613.344	18256.96
613.539	18803.77
613.735	18394.17
613.93	18707.51
614.126	18302.01
614.321	18455.61
614.517	18318.4
614.712	18150.46
614.907	17923.14
615.103	18359.36
615.298	18089.03
615.493	18490.43
615.688	17867.84
615.884	18541.63
616.079	17777.73
616.274	18295.87
616.47	17826.89
616.665	18013.25
616.86	17863.75
617.055	18017.35
617.25	17732.68
617.445	17675.34
617.641	17488.97
617.836	17622.09
618.031	17505.35
618.226	17744.97
618.421	17435.72
618.616	17564.75
618.811	17081.42
619.006	17497.16
619.201	17095.76
619.396	17325.13
619.591	17187.92
619.786	17202.25
619.981	16837.72
620.176	17067.09
620.371	16598.1
620.566	16950.35
620.761	16739.41
620.956	16677.97
621.151	16411.74
621.346	16612.44
621.541	16507.99
621.735	16440.41
621.93	15877.22
622.125	16153.69
622.32	15885.41
622.515	16182.37
622.709	16145.5
622.904	16026.72
623.099	15922.27
623.294	15830.12
623.488	15510.63
623.683	15533.16
623.878	15170.67
624.072	15397.99
624.267	15336.56
624.462	15365.23
624.656	15125.61
624.851	15094.89
625.046	14990.45
625.24	15076.46
625.435	14959.73
625.629	14787.7
625.824	14611.57
626.018	14593.14
626.213	14492.79
626.407	14503.03
626.602	14240.89
626.796	14275.71
626.991	14343.29
627.185	14046.33
627.38	14156.93
627.574	13798.53
627.768	14013.57
627.963	13919.36
628.157	13704.32
628.352	13859.97
628.546	13454.47
628.74	13548.68
628.935	13429.9
629.129	13489.29
629.323	13292.68
629.517	13167.76
629.712	13245.58
629.906	13089.93
630.1	12887.18
630.294	12983.44
630.489	12754.07
630.683	12852.37
630.877	12735.63
631.071	12627.09
631.265	12723.35
631.459	12659.86
631.653	12319.9
631.848	12741.78
632.042	12446.87
632.236	12395.67
632.43	12147.87
632.624	12166.3
632.818	12158.11
633.012	12041.37
633.206	11893.92
633.4	12207.26
633.594	11750.56
633.788	11852.96
633.982	11807.91
634.176	11639.97
634.369	11525.29
634.563	11594.92
634.757	11365.54
634.951	11599.01
635.145	11410.6
635.339	11474.09
635.533	11386.02
635.726	11338.92
635.92	11181.23
636.114	11078.83
636.308	11220.14
636.501	11154.6
636.695	10953.9
636.889	10841.26
637.083	10722.48
637.276	10728.63
637.47	10646.71
637.664	10757.3
637.857	10714.29
638.051	10697.91
638.244	10357.94
638.438	10511.54
638.632	10570.93
638.825	10308.79
639.019	10325.18
639.212	10267.83
639.406	10206.39
639.599	10210.49
639.793	10169.53
639.986	10001.6
640.18	9825.47
640.373	9845.95
640.567	9768.13
640.76	9745.6
640.954	9714.88
641.147	9866.43
641.34	9520.32
641.534	9585.86
641.727	9551.04
641.92	9538.76
642.114	9323.72
642.307	9215.18
642.5	9462.98
642.694	9217.22
642.887	9231.56
643.08	9155.79
643.273	9163.98
643.467	9018.57
643.66	8965.32
643.853	8920.27
644.046	8803.53
644.239	8772.82
644.432	8711.38
644.626	8750.29
644.819	8651.99
645.012	8617.17
645.205	8766.67
645.398	8625.36
645.591	8412.37
645.784	8570.07
645.977	8367.32
646.17	8363.22
646.363	8330.45
646.556	8209.62
646.749	8291.54
646.942	8193.24
647.135	8162.52
647.328	8254.68
647.521	8074.46
647.714	8043.74
647.907	8010.97
648.099	7857.37
648.292	7978.2
648.485	7677.15
648.678	7757.02
648.871	8068.31
649.064	7814.37
649.256	7677.15
649.449	7519.46
649.642	7687.39
649.835	7748.83
650.027	7521.51
650.22	7470.31
650.413	7324.9
650.605	7415.01
650.798	7372
650.991	7501.03
651.183	7283.94
651.376	7279.85
651.568	7126.25
651.761	7093.48
651.954	7208.17
652.146	6997.23
652.339	7032.04
652.531	7173.35
652.724	6907.12
652.916	6898.92
653.109	6872.3
653.301	6900.97
653.494	7029.99
653.686	6786.29
653.879	6712.56
654.071	6730.99
654.263	6706.41
654.456	6702.32
654.648	6622.45
654.84	6659.31
655.033	6671.6
655.225	6634.74
655.417	6413.56
655.61	6667.5
655.802	6636.78
655.994	6257.91
656.186	6364.4
656.379	6286.58
656.571	6358.26
656.763	6204.66
656.955	6192.37
657.148	6227.19
657.34	6081.78
657.532	6225.14
657.724	6104.31
657.916	5963
658.108	6020.35
658.3	5817.6
658.492	5930.23
658.684	5868.8
658.876	5848.32
659.068	5907.71
659.26	5790.97
659.452	5762.3
659.644	5807.36
659.836	5594.37
660.028	5860.6
660.22	5653.76
660.412	5592.32
660.604	5676.29
660.796	5526.78
660.988	5416.19
661.18	5416.19
661.372	5451.01
661.563	5451.01
661.755	5332.23
661.947	5414.15
662.139	5428.48
662.331	5293.32
662.522	5315.84
662.714	5266.69
662.906	5152.01
663.097	5152.01
663.289	5233.93
663.481	5102.86
663.673	5135.62
663.864	5045.51
664.056	5111.05
664.247	5063.94
664.439	5053.7
664.631	5033.22
664.822	5070.09
665.014	4969.74
665.205	4914.44
665.397	4889.87
665.588	4906.25
665.78	4705.55
665.971	4803.85
666.163	4881.67
666.354	4803.85
666.546	4875.53
666.737	4775.18
666.929	4695.31
667.12	4805.9
667.311	4570.38
667.503	4510.99
667.694	4627.73
667.885	4515.09
668.077	4537.62
668.268	4570.38
668.459	4519.18
668.651	4447.51
668.842	4521.23
669.033	4365.59
669.224	4295.96
669.416	4404.5
669.607	4508.94
669.798	4332.82
669.989	4371.73
670.18	4304.15
670.371	4228.37
670.563	4250.9
670.754	4160.79
670.945	4214.04
671.136	4095.25
671.327	4082.97
671.518	4271.38
671.709	4191.51
671.9	4142.36
672.091	4132.12
672.282	3984.66
672.473	4035.86
672.664	4033.82
672.855	3968.28
673.046	4037.91
673.237	4074.78
673.428	4099.35
673.619	4123.93
673.809	3837.21
674	3898.65
674.191	3869.98
674.382	3761.44
674.573	3874.07
674.764	3951.9
674.954	3869.98
675.145	3835.16
675.336	3607.84
675.527	3788.06
675.717	3800.35
675.908	3751.2
676.099	3773.72
676.289	3818.78
676.48	3650.85
676.671	3669.28
676.861	3661.09
677.052	3616.03
677.243	3550.5
677.433	3751.2
677.624	3675.42
677.814	3540.26
678.005	3620.13
678.195	3710.24
678.386	3560.73
678.576	3554.59
678.767	3497.25
678.957	3525.92
679.148	3546.4
679.338	3552.54
679.529	3601.69
679.719	3507.49
679.909	3497.25
680.1	3538.21
680.29	3509.54
680.481	3349.79
680.671	3394.85
680.861	3300.64
681.052	3327.27
681.242	3441.95
681.432	3448.1
681.622	3499.3
681.813	3337.51
682.003	3427.62
682.193	3464.48
682.383	3360.03
682.573	3300.64
682.764	3355.94
682.954	3278.12
683.144	3228.96
683.334	3337.51
683.524	3284.26
683.714	3325.22
683.904	3204.39
684.094	3333.41
684.284	3374.37
684.474	3235.11
684.664	3284.26
684.854	3265.83
685.044	3171.62
685.234	3091.75
685.424	3171.62
685.614	3114.28
685.804	3196.2
685.994	3243.3
686.184	3097.89
686.374	3161.38
686.564	3073.32
686.753	3083.56
686.943	2925.86
687.133	3063.08
687.323	3013.93
687.513	3140.9
687.702	3009.83
687.892	3009.83
688.082	2979.11
688.272	3007.78
688.461	3020.07
688.651	2917.67
688.841	2979.11
689.03	3001.64
689.22	2975.02
689.41	2972.97
689.599	3024.17
689.789	2845.99
689.979	2950.44
690.168	2886.95
690.358	2882.86
690.547	2784.55
690.737	2759.98
690.926	2903.34
691.116	2727.21
691.305	2829.61
691.495	2897.19
691.684	2743.6
691.874	2735.4
692.063	2784.55
692.252	2817.32
692.442	2667.82
692.631	2702.64
692.82	2712.88
693.01	2780.46
693.199	2669.87
693.388	2651.44
693.578	2710.83
693.767	2727.21
693.956	2501.94
694.146	2587.95
694.335	2669.87
694.524	2581.81
694.713	2620.72
694.902	2460.98
695.092	2688.3
695.281	2538.8
695.47	2514.22
695.659	2542.89
695.848	2645.29
696.037	2585.9
696.226	2600.24
696.415	2563.37
696.604	2620.72
696.793	2532.65
696.982	2448.69
697.171	2473.26
697.36	2510.13
697.549	2436.4
697.738	2436.4
697.927	2436.4
698.116	2415.92
698.305	2477.36
698.494	2407.73
698.683	2317.62
698.872	2481.46
699.061	2491.7
699.25	2350.39
699.438	2344.24
699.627	2383.15
699.816	2450.74
700.005	2311.47
700.193	2411.82
700.382	2428.21
700.571	2424.11
700.76	2377.01
700.948	2409.78
701.137	2340.15
701.326	2237.75
701.514	2428.21
701.703	2366.77
701.892	2331.95
702.08	2401.58
702.269	2235.7
702.457	2434.35
702.646	2368.82
702.834	2317.62
703.023	2186.55
703.212	2290.99
703.4	2227.51
703.589	2196.79
703.777	2297.14
703.965	2278.71
704.154	2239.8
704.342	2135.35
704.531	2432.3
704.719	2227.51
704.907	2325.81
705.096	2108.73
705.284	2190.64
705.472	2211.12
705.661	2217.27
705.849	2235.7
706.037	2301.23
706.226	2172.21
706.414	2317.62
706.602	2299.19
706.79	2209.08
706.979	2182.45
707.167	2221.36
707.355	2188.6
707.543	2209.08
707.731	2231.6
707.919	2225.46
708.107	2278.71
708.296	2180.4
708.484	2172.21
708.672	2200.88
708.86	2137.4
709.048	2207.03
709.236	2194.74
709.424	2227.51
709.612	2080.05
709.8	2123.06
709.988	2260.27
710.176	2186.55
710.364	2182.45
710.551	2161.97
710.739	2243.89
710.927	2217.27
711.115	2100.53
711.303	2178.36
711.491	2088.25
711.679	2121.01
711.866	2114.87
712.054	2180.4
712.242	2088.25
712.43	2217.27
712.617	2207.03
712.805	2098.49
712.993	2096.44
713.181	2145.59
713.368	2112.82
713.556	2024.76
713.744	1991.99
713.931	2245.94
714.119	2161.97
714.306	2145.59
714.494	2094.39
714.682	2049.33
714.869	2026.81
715.057	2127.16
715.244	2149.68
715.432	2194.74
715.619	2006.33
715.807	2030.9
715.994	2073.91
716.182	2112.82
716.369	2139.44
716.556	2153.78
716.744	2149.68
716.931	2063.67
717.119	1996.09
717.306	2194.74
717.493	2125.11
717.681	2155.83
717.868	2057.53
718.055	2098.49
718.242	2035
718.43	2178.36
718.617	2078.01
718.804	2143.54
718.991	2143.54
719.179	2057.53
719.366	2057.53
719.553	2172.21
719.74	2143.54
719.927	2133.3
720.114	2100.53
720.301	1989.94
720.488	2053.43
720.676	2022.71
720.863	2063.67
721.05	2057.53
721.237	2071.86
721.424	2063.67
721.611	2032.95
721.798	2086.2
721.985	2149.68
722.172	2041.14
722.358	1981.75
722.545	2174.26
722.732	2000.18
722.919	2051.38
723.106	2047.29
723.293	2080.05
723.48	1944.89
723.667	2069.81
723.853	2069.81
724.04	2082.1
724.227	2067.77
724.414	2092.34
724.6	2000.18
724.787	2032.95
724.974	2043.19
725.161	2073.91
725.347	1973.56
725.534	2123.06
725.72	2082.1
725.907	2196.79
726.094	2055.48
726.28	2116.92
726.467	2039.09
726.653	2092.34
726.84	2188.6
727.027	2096.44
727.213	2080.05
727.4	2030.9
727.586	2153.78
727.773	2035
727.959	2071.86
728.145	2092.34
728.332	1957.18
728.518	2055.48
728.705	2061.62
728.891	2055.48
729.077	2100.53
729.264	2039.09
729.45	2090.29
729.636	2092.34
729.823	1996.09
730.009	2104.63
730.195	2071.86
730.382	2063.67
730.568	2059.57
730.754	1998.13
730.94	2039.09
731.126	2082.1
731.313	2039.09
731.499	2075.96
731.685	2090.29
731.871	2047.29
732.057	2084.15
732.243	2022.71
732.429	2088.25
732.615	2090.29
732.801	1981.75
732.987	2071.86
733.173	2022.71
733.359	2125.11
733.545	2096.44
733.731	2006.33
733.917	2041.14
734.103	2127.16
734.289	1922.36
734.475	1981.75
734.661	2100.53
734.847	2063.67
735.033	2030.9
735.219	1948.98
735.404	2014.52
735.59	2014.52
735.776	2055.48
735.962	2055.48
736.148	1916.22
736.333	2024.76
736.519	1967.42
736.705	2010.42
736.89	1942.84
737.076	1879.35
737.262	1916.22
737.447	1991.99
737.633	1948.98
737.819	1991.99
738.004	1948.98
738.19	1934.65
738.375	1963.32
738.561	1991.99
738.747	1924.41
738.932	1811.77
739.118	2129.2
739.303	1883.45
739.489	2000.18
739.674	1928.5
739.859	1842.49
740.045	1965.37
740.23	1897.78
740.416	1957.18
740.601	1924.41
740.786	1834.3
740.972	1842.49
741.157	1965.37
741.342	1918.26
741.528	1912.12
741.713	1944.89
741.898	1842.49
742.084	1973.56
742.269	1867.06
742.454	1856.82
742.639	1809.72
742.824	1822.01
743.01	1838.39
743.195	1920.31
743.38	1729.85
743.565	1850.68
743.75	1817.91
743.935	1846.59
744.12	1830.2
744.305	1772.86
744.49	1826.11
744.675	1834.3
744.86	1748.28
745.045	1881.4
745.23	1826.11
745.415	1738.04
745.6	1719.61
745.785	1701.18
745.97	1629.5
746.155	1758.52
746.34	1715.52
746.525	1670.46
746.71	1664.32
746.895	1762.62
747.079	1660.22
747.264	1695.04
747.449	1623.36
747.634	1742.14
747.819	1695.04
748.003	1656.12
748.188	1647.93
748.373	1623.36
748.557	1588.54
748.742	1621.31
748.927	1566.01
749.111	1572.16
749.296	1602.88
749.481	1580.35
749.665	1596.73
749.85	1578.3
750.034	1502.53
750.219	1514.81
750.404	1535.29
750.588	1619.26
750.773	1490.24
750.957	1580.35
751.141	1535.29
751.326	1412.42
751.51	1510.72
751.695	1439.04
751.879	1455.42
752.064	1539.39
752.248	1430.85
752.432	1541.44
752.617	1383.74
752.801	1412.42
752.985	1402.18
753.17	1408.32
753.354	1432.9
753.538	1320.26
753.722	1248.58
753.907	1287.49
754.091	1418.56
754.275	1453.38
754.459	1310.02
754.643	1344.83
754.828	1414.46
755.012	1260.87
755.196	1193.28
755.38	1334.59
755.564	1305.92
755.748	1211.71
755.932	1305.92
756.116	1240.39
756.3	1211.71
756.484	1178.95
756.668	1160.52
756.852	1178.95
757.036	1193.28
757.22	1174.85
757.404	1162.56
757.588	1140.04
757.772	1221.95
757.956	1129.8
758.14	1293.63
758.323	1094.98
758.507	1137.99
758.691	1097.03
758.875	1092.93
759.059	1099.08
759.242	1127.75
759.426	1170.76
759.61	1121.6
759.794	1068.36
759.977	1123.65
760.161	1097.03
760.345	1189.19
760.528	1115.46
760.712	1105.22
760.895	1140.04
761.079	1142.08
761.263	990.53
761.446	961.86
761.63	1135.94
761.813	1021.25
761.997	984.39
762.18	1072.45
762.364	1006.92
762.547	965.96
762.731	1043.78
762.914	1021.25
763.098	1084.74
763.281	1027.4
763.464	970.05
763.648	998.73
763.831	990.53
764.015	955.72
764.198	937.29
764.381	939.33
764.564	910.66
764.748	898.38
764.931	898.38
765.114	900.42
765.297	1013.06
765.481	908.62
765.664	869.7
765.847	896.33
766.03	998.73
766.213	951.62
766.397	935.24
766.58	925
766.763	900.42
766.946	957.77
767.129	865.61
767.312	949.57
767.495	869.7
767.678	949.57
767.861	937.29
768.044	908.62
768.227	841.03
768.41	916.81
768.593	785.74
768.776	847.18
768.959	818.5
769.142	890.18
769.324	806.22
769.507	941.38
769.69	851.27
769.873	867.66
770.056	892.23
770.239	806.22
770.421	851.27
770.604	873.8
770.787	806.22
770.97	916.81
771.152	763.21
771.335	789.83
771.518	795.98
771.7	810.31
771.883	822.6
772.066	787.79
772.248	769.35
772.431	806.22
772.613	812.36
772.796	849.22
772.978	812.36
773.161	802.12
773.343	773.45
773.526	695.63
773.708	671.05
773.891	744.78
774.073	748.87
774.256	714.06
774.438	703.82
774.621	767.31
774.803	828.74
774.985	802.12
775.168	728.39
775.35	757.07
775.532	697.67
775.715	679.24
775.897	744.78
776.079	736.59
776.261	736.59
776.444	699.72
776.626	761.16
776.808	613.71
776.99	699.72
777.173	730.44
777.355	671.05
777.537	691.53
777.719	671.05
777.901	607.56
778.083	597.32
778.265	671.05
778.447	679.24
778.629	564.56
778.811	613.71
778.993	679.24
779.175	673.1
779.357	630.09
779.539	550.22
779.721	546.12
779.903	548.17
780.085	548.17
780.267	593.23
780.449	548.17
780.631	626
780.812	626
780.994	523.6
781.176	558.41
781.358	517.45
781.54	550.22
781.721	539.98
781.903	558.41
782.085	595.28
782.267	441.68
782.448	503.12
782.63	437.58
782.812	556.36
782.993	601.42
783.175	515.41
783.357	511.31
783.538	589.13
783.72	460.11
783.901	595.28
784.083	546.12
784.264	474.45
784.446	542.03
784.627	433.49
784.809	499.02
784.99	443.73
785.172	431.44
785.353	443.73
785.535	451.92
785.716	486.73
785.897	474.45
786.079	441.68
786.26	462.16
786.441	501.07
786.623	400.72
786.804	402.77
786.985	433.49
787.167	359.76
787.348	419.15
787.529	441.68
787.71	453.97
787.891	433.49
788.073	400.72
788.254	329.04
788.435	384.34
788.616	370
788.797	429.39
788.978	365.9
789.159	423.25
789.34	400.72
789.522	376.14
789.703	402.77
789.884	376.14
790.065	374.1
790.246	382.29
790.427	322.9
790.607	408.91
790.788	341.33
790.969	367.95
791.15	339.28
791.331	331.09
791.512	337.23
791.693	341.33
791.874	322.9
792.054	324.94
792.235	408.91
792.416	357.71
792.597	281.94
792.778	408.91
792.958	351.57
793.139	349.52
793.32	363.86
793.5	367.95
793.681	347.47
793.862	361.81
794.042	365.9
794.223	222.55
794.404	302.42
794.584	263.51
794.765	355.66
794.945	337.23
795.126	312.66
795.306	320.85
795.487	337.23
795.667	286.03
795.848	333.14
796.028	320.85
796.209	263.51
796.389	263.51
796.57	329.04
796.75	230.74
796.93	294.22
797.111	240.98
797.291	298.32
797.471	314.7
797.652	294.22
797.832	357.71
798.012	326.99
798.192	206.16
798.373	208.21
798.553	263.51
798.733	212.31
798.913	181.59
799.093	249.17
799.274	245.07
799.454	290.13
799.634	269.65
799.814	204.11
799.994	306.51
800.174	238.93
800.354	271.7
800.534	236.88
800.714	277.84
800.894	206.16
801.074	224.59
801.254	171.35
801.434	265.55
801.614	154.96
801.794	195.92
801.974	933.19
802.154	222.55
802.334	298.32
802.514	228.69
802.693	281.94
802.873	187.73
803.053	253.27
803.233	253.27
803.413	249.17
803.592	206.16
803.772	228.69
803.952	238.93
804.131	204.11
804.311	286.03
804.491	273.75
804.67	173.39
804.85	214.35
805.03	228.69
805.209	228.69
805.389	163.15
805.568	228.69
805.748	288.08
805.928	189.78
806.107	167.25
806.287	253.27
806.466	136.53
806.646	179.54
806.825	132.44
807.004	204.11
807.184	261.46
807.363	238.93
807.543	195.92
807.722	163.15
807.901	71
808.081	204.11
808.26	142.68
808.439	154.96
808.619	175.44
808.798	220.5
808.977	222.55
809.156	130.39
809.336	261.46
809.515	220.5
809.694	128.34
809.873	185.68
810.052	138.58
810.231	216.4
810.411	224.59
810.59	200.02
810.769	212.31
810.948	216.4
811.127	157.01
811.306	130.39
811.485	122.2
811.664	286.03
811.843	169.3
812.022	173.39
812.201	187.73
812.38	148.82
812.559	138.58
812.737	138.58
812.916	138.58
813.095	105.81
813.274	122.2
813.453	140.63
813.632	171.35
813.811	130.39
813.989	73.04
814.168	197.97
814.347	44.37
814.526	163.15
814.704	183.63
814.883	183.63
815.062	64.85
815.24	169.3
815.419	120.15
815.598	116.05
815.776	122.2
815.955	169.3
816.133	73.04
816.312	114
816.49	148.82
816.669	120.15
816.847	163.15
817.026	130.39
817.204	200.02
817.383	32.08
817.561	124.24
817.74	148.82
817.918	204.11
818.097	171.35
818.275	101.72
818.453	126.29
818.632	144.72
818.81	187.73
818.988	103.76
819.167	212.31
819.345	144.72
819.523	161.11
819.701	132.44
819.879	134.48
820.058	150.87
820.236	181.59
820.414	159.06
820.592	132.44
820.77	130.39
820.948	75.09
821.127	93.52
821.305	73.04
821.483	91.48
821.661	148.82
821.839	195.92
822.017	114
822.195	105.81
822.373	114
822.551	114
822.729	187.73
822.907	140.63
823.085	179.54
823.262	165.2
823.44	15.7
823.618	107.86
823.796	44.37
823.974	128.34
824.152	58.71
824.329	89.43
824.507	183.63
824.685	101.72
824.863	124.24
825.04	77.14
825.218	206.16
825.396	85.33
825.574	105.81
825.751	73.04
825.929	114
826.107	81.24
826.284	71
826.462	107.86
826.639	81.24
826.817	60.76
826.994	116.05
827.172	64.85
827.349	93.52
827.527	87.38
827.704	99.67
827.882	140.63
828.059	134.48
828.237	103.76
828.414	83.28
828.591	64.85
828.769	118.1
828.946	68.95
829.124	138.58
829.301	138.58
829.478	27.99
829.655	97.62
829.833	130.39
830.01	7.51
830.187	56.66
830.364	30.04
830.542	130.39
830.719	42.32
830.896	68.95
831.073	101.72
831.25	163.15
831.427	212.31
831.604	64.85
831.782	66.9
831.959	85.33
832.136	138.58
832.313	73.04
832.49	68.95
832.667	85.33
832.844	36.18
833.021	122.2
833.198	114
833.374	79.19
833.551	66.9
833.728	101.72
833.905	50.52
834.082	81.24
834.259	60.76
834.436	161.11
834.612	15.7
834.789	81.24
834.966	50.52
835.143	89.43
835.319	124.24
835.496	25.94
835.673	56.66
835.85	103.76
836.026	60.76
836.203	40.28
836.38	87.38
836.556	81.24
836.733	48.47
836.909	91.48
837.086	15.7
837.262	25.94
837.439	81.24
837.616	44.37
837.792	-4.78
837.968	77.14
838.145	15.7
838.321	66.9
838.498	40.28
838.674	44.37
838.851	-0.68
839.027	105.81
839.203	73.04
839.38	97.62
839.556	15.7
839.732	7.51
839.909	64.85
840.085	171.35
840.261	-23.21
840.437	79.19
840.614	23.89
840.79	138.58
840.966	38.23
841.142	40.28
841.318	-4.78
841.494	101.72
841.671	93.52
841.847	36.18
842.023	42.32
842.199	81.24
842.375	116.05
842.551	91.48
842.727	122.2
842.903	187.73
843.079	44.37
843.255	60.76
843.431	7.51
843.607	40.28
843.783	42.32
843.959	-25.26
844.134	56.66
844.31	93.52
844.486	13.65
844.662	79.19
844.838	11.61
845.013	148.82
845.189	40.28
845.365	75.09
845.541	52.56
845.716	40.28
845.892	56.66
846.068	114
846.244	44.37
846.419	66.9
846.595	38.23
846.77	64.85
846.946	54.61
847.122	-4.78
847.297	-6.83
847.473	50.52
847.648	77.14
847.824	32.08
847.999	-49.83
848.175	7.51
848.35	21.84
848.526	23.89
848.701	83.28
848.876	56.66
849.052	11.61
849.227	58.71
849.403	19.8
849.578	75.09
849.753	97.62
849.929	83.28
850.104	36.18
850.279	71
850.454	34.13
850.63	25.94
850.805	27.99
850.98	75.09
851.155	15.7
851.33	42.32
851.505	15.7
851.681	130.39
851.856	58.71
852.031	7.51
852.206	40.28
852.381	-0.68
852.556	118.1
852.731	50.52
852.906	32.08
853.081	-49.83
853.256	105.81
853.431	23.89
853.606	40.28
853.781	19.8
853.956	-10.92
854.131	36.18
854.305	-0.68
854.48	83.28
854.655	-25.26
854.83	73.04
855.005	-49.83
855.18	13.65
855.354	-8.87
855.529	99.67
855.704	7.51
855.879	19.8
856.053	95.57
856.228	44.37
856.403	13.65
856.577	48.47
856.752	1.37
856.926	48.47
857.101	30.04
857.276	-17.07
857.45	-17.07
857.625	25.94
857.799	56.66
857.974	89.43
858.148	-8.87
858.323	81.24
858.497	46.42
858.672	-2.73
858.846	5.46
859.02	71
859.195	-39.59
859.369	48.47
859.543	34.13
859.718	52.56
859.892	42.32
860.066	-55.98
860.241	48.47
860.415	-15.02
860.589	75.09
860.763	-12.97
860.938	-66.22
861.112	25.94
861.286	44.37
861.46	-10.92
861.634	23.89
861.808	19.8
861.982	44.37
862.157	50.52
862.331	-8.87
862.505	40.28
862.679	-33.45
862.853	9.56
863.027	-25.26
863.201	52.56
863.375	-72.36
863.549	23.89
863.722	81.24
863.896	44.37
864.07	-4.78
864.244	56.66
864.418	58.71
864.592	9.56
864.766	68.95
864.939	15.7
865.113	40.28
865.287	114
865.461	-33.45
865.634	52.56
865.808	73.04
865.982	-0.68
866.156	-0.68
866.329	-45.74
866.503	5.46
866.676	105.81
866.85	83.28
867.024	68.95
867.197	38.23
867.371	40.28
867.544	85.33
867.718	11.61
867.891	-2.73
868.065	-4.78
868.238	40.28
868.412	25.94
868.585	66.9
868.759	-45.74
868.932	40.28
869.105	-25.26
869.279	73.04
869.452	21.84
869.625	48.47
869.799	25.94
869.972	-25.26
870.145	44.37
870.319	60.76
870.492	32.08
870.665	79.19
870.838	32.08
871.011	44.37
871.185	-31.4
871.358	25.94
871.531	-8.87
871.704	-33.45
871.877	60.76
872.05	-8.87
872.223	9.56
872.396	54.61
872.569	15.7
872.742	-17.07
872.915	56.66
873.088	42.32
873.261	23.89
873.434	48.47
873.607	97.62
873.78	97.62
873.953	-21.16
874.126	64.85
874.299	50.52
874.471	64.85
874.644	19.8
874.817	-12.97
874.99	71
875.163	48.47
875.335	23.89
875.508	-8.87
875.681	60.76
875.853	-17.07
876.026	34.13
876.199	64.85
876.371	9.56
876.544	-10.92
876.717	-19.11
876.889	32.08
877.062	50.52
877.234	-12.97
877.407	-2.73
877.579	23.89
877.752	-35.5
877.924	87.38
878.097	48.47
878.269	-15.02
878.442	60.76
878.614	-15.02
878.786	15.7
878.959	42.32
879.131	36.18
879.303	-72.36
879.476	25.94
879.648	32.08
879.82	99.67
879.993	-55.98
880.165	40.28
880.337	-47.79
880.509	-6.83
880.681	23.89
880.854	-64.17
881.026	71
881.198	23.89
881.37	17.75
881.542	19.8
881.714	-23.21
881.886	-21.16
882.058	36.18
882.23	27.99
882.402	27.99
882.574	-45.74
882.746	75.09
882.918	36.18
883.09	-0.68
883.262	58.71
883.434	42.32
883.606	15.7
883.778	7.51
883.95	19.8
884.122	-8.87
884.293	81.24
884.465	-12.97
884.637	-0.68
884.809	-15.02
884.98	58.71
885.152	-17.07
885.324	79.19
885.496	-41.64
885.667	9.56
885.839	56.66
886.011	64.85
886.182	44.37
886.354	25.94
886.525	-58.03
886.697	-6.83
886.869	-23.21
887.04	-17.07
887.212	97.62
887.383	101.72
887.555	58.71
887.726	-17.07
887.897	-41.64
888.069	13.65
888.24	-0.68
888.412	25.94
888.583	-62.12
888.754	30.04
888.926	-17.07
889.097	60.76
889.268	-21.16
889.44	15.7
889.611	-60.07
889.782	-39.59
889.953	46.42
890.125	73.04
890.296	1.37
890.467	-23.21
890.638	-4.78
890.809	-17.07
890.98	25.94
891.151	3.41
891.323	91.48
891.494	34.13
891.665	-23.21
891.836	34.13
892.007	5.46
892.178	-12.97
892.349	27.99
892.52	-25.26
892.691	36.18
892.862	15.7
893.032	-90.79
893.203	23.89
893.374	23.89
893.545	1.37
893.716	3.41
893.887	58.71
894.057	-0.68
894.228	-51.88
894.399	-6.83
894.57	1.37
894.74	36.18
894.911	-41.64
895.082	7.51
895.253	3.41
895.423	36.18
895.594	122.2
895.764	-43.69
895.935	-8.87
896.106	3.41
896.276	-6.83
896.447	75.09
896.617	1.37
896.788	-31.4
896.958	15.7
897.129	-8.87
897.299	-15.02
897.47	-25.26
897.64	-0.68
897.81	-41.64
897.981	19.8
898.151	-15.02
898.322	3.41
898.492	-17.07
898.662	-53.93
898.832	34.13
899.003	54.61
899.173	-17.07
899.343	15.7
899.513	15.7
