Data from USB4F104151__32__14-42-49-925.txt Node

Date: Thu Mar 13 14:42:49 EDT 2025
User: louis
Spectrometer: USB4F10415
Trigger mode: 4
Integration Time (sec): 2.000000E-2
Scans to average: 1
Electric dark correction enabled: true
Nonlinearity correction enabled: false
Boxcar width: 0
XAxis mode: Wavelengths
Number of Pixels in Spectrum: 3648
>>>>>Begin Spectral Data<<<<<
178.204	-81.92
178.424	-81.92
178.644	-81.92
178.864	-155.65
179.084	-149.5
179.304	-18.43
179.524	-22.53
179.744	4.1
179.964	4.1
180.184	-18.43
180.404	59.39
180.624	36.86
180.844	-18.43
181.064	-30.72
181.283	8.19
181.503	-36.86
181.723	32.77
181.943	-61.44
182.163	28.67
182.383	-40.96
182.602	-2.05
182.822	59.39
183.042	40.96
183.262	10.24
183.482	61.44
183.701	-51.2
183.921	53.25
184.141	-24.58
184.361	79.87
184.58	20.48
184.8	79.87
185.02	24.58
185.239	40.96
185.459	-26.62
185.679	-49.15
185.898	-16.38
186.118	-4.1
186.338	32.77
186.557	-16.38
186.777	-16.38
186.997	65.54
187.216	75.77
187.436	18.43
187.655	-24.58
187.875	26.62
188.095	22.53
188.314	81.92
188.534	32.77
188.753	-26.62
188.973	65.54
189.192	57.34
189.412	81.92
189.631	77.82
189.851	-30.72
190.07	-32.77
190.29	18.43
190.509	67.58
190.729	-100.35
190.948	-16.38
191.168	94.21
191.387	51.2
191.607	-24.58
191.826	-40.96
192.045	-8.19
192.265	20.48
192.484	-38.91
192.704	36.86
192.923	-22.53
193.142	40.96
193.362	79.87
193.581	0
193.8	32.77
194.02	49.15
194.239	-114.69
194.458	75.77
194.678	18.43
194.897	55.3
195.116	40.96
195.335	8.19
195.555	0
195.774	-57.34
195.993	34.82
196.212	55.3
196.432	-4.1
196.651	-90.11
196.87	2.05
197.089	147.45
197.308	43.01
197.528	57.34
197.747	-10.24
197.966	26.62
198.185	16.38
198.404	65.54
198.623	43.01
198.842	45.06
199.062	18.43
199.281	126.97
199.5	2.05
199.719	24.58
199.938	73.73
200.157	69.63
200.376	-40.96
200.595	16.38
200.814	-16.38
201.033	-24.58
201.252	81.92
201.471	-6.14
201.69	-16.38
201.909	32.77
202.128	77.82
202.347	26.62
202.566	34.82
202.785	57.34
203.004	-14.34
203.223	110.59
203.442	0
203.661	-10.24
203.879	-28.67
204.098	67.58
204.317	-67.58
204.536	-4.1
204.755	24.58
204.974	34.82
205.193	45.06
205.411	53.25
205.63	2.05
205.849	51.2
206.068	-24.58
206.287	28.67
206.505	34.82
206.724	43.01
206.943	40.96
207.162	2.05
207.381	53.25
207.599	-8.19
207.818	4.1
208.037	71.68
208.255	90.11
208.474	65.54
208.693	40.96
208.911	-12.29
209.13	-6.14
209.349	-6.14
209.567	43.01
209.786	8.19
210.005	20.48
210.223	10.24
210.442	-81.92
210.661	-14.34
210.879	0
211.098	0
211.316	34.82
211.535	10.24
211.753	53.25
211.972	22.53
212.191	2.05
212.409	26.62
212.628	59.39
212.846	16.38
213.065	114.69
213.283	98.3
213.502	8.19
213.72	61.44
213.938	32.77
214.157	4.1
214.375	10.24
214.594	-49.15
214.812	43.01
215.031	40.96
215.249	-53.25
215.467	26.62
215.686	20.48
215.904	65.54
216.122	8.19
216.341	49.15
216.559	0
216.778	65.54
216.996	43.01
217.214	-18.43
217.432	0
217.651	-8.19
217.869	24.58
218.087	0
218.306	-20.48
218.524	-2.05
218.742	-14.34
218.96	20.48
219.179	83.97
219.397	-32.77
219.615	40.96
219.833	10.24
220.051	-14.34
220.27	-6.14
220.488	-14.34
220.706	-16.38
220.924	16.38
221.142	0
221.36	51.2
221.578	-90.11
221.796	55.3
222.015	77.82
222.233	4.1
222.451	133.12
222.669	-53.25
222.887	116.73
223.105	12.29
223.323	30.72
223.541	-45.06
223.759	59.39
223.977	49.15
224.195	45.06
224.413	-14.34
224.631	12.29
224.849	-18.43
225.067	86.01
225.285	-22.53
225.503	47.1
225.721	-79.87
225.939	-8.19
226.157	40.96
226.375	75.77
226.592	-81.92
226.81	77.82
227.028	22.53
227.246	73.73
227.464	-53.25
227.682	-30.72
227.9	8.19
228.117	8.19
228.335	24.58
228.553	-79.87
228.771	45.06
228.989	90.11
229.206	-57.34
229.424	6.14
229.642	-18.43
229.86	-30.72
230.077	65.54
230.295	4.1
230.513	-4.1
230.731	92.16
230.948	67.58
231.166	63.49
231.384	73.73
231.601	18.43
231.819	-14.34
232.037	75.77
232.254	49.15
232.472	16.38
232.689	22.53
232.907	59.39
233.125	-8.19
233.342	20.48
233.56	0
233.777	43.01
233.995	-30.72
234.213	22.53
234.43	10.24
234.648	0
234.865	24.58
235.083	26.62
235.3	65.54
235.518	4.1
235.735	45.06
235.953	53.25
236.17	-16.38
236.388	-16.38
236.605	-32.77
236.822	77.82
237.04	-12.29
237.257	32.77
237.475	-40.96
237.692	18.43
237.909	32.77
238.127	16.38
238.344	-16.38
238.562	14.34
238.779	57.34
238.996	10.24
239.214	22.53
239.431	38.91
239.648	-12.29
239.865	24.58
240.083	81.92
240.3	36.86
240.517	-57.34
240.735	30.72
240.952	40.96
241.169	-32.77
241.386	40.96
241.603	57.34
241.821	-49.15
242.038	-8.19
242.255	49.15
242.472	28.67
242.689	24.58
242.907	45.06
243.124	-20.48
243.341	18.43
243.558	51.2
243.775	26.62
243.992	40.96
244.209	28.67
244.426	49.15
244.643	-36.86
244.86	-32.77
245.078	34.82
245.295	0
245.512	53.25
245.729	-77.82
245.946	55.3
246.163	75.77
246.38	32.77
246.597	16.38
246.814	8.19
247.031	73.73
247.248	-14.34
247.464	36.86
247.681	69.63
247.898	18.43
248.115	-18.43
248.332	24.58
248.549	-16.38
248.766	104.45
248.983	16.38
249.2	16.38
249.417	67.58
249.633	32.77
249.85	20.48
250.067	26.62
250.284	133.12
250.501	90.11
250.717	57.34
250.934	-8.19
251.151	-4.1
251.368	-2.05
251.585	49.15
251.801	-12.29
252.018	-36.86
252.235	49.15
252.451	-24.58
252.668	26.62
252.885	26.62
253.102	-38.91
253.318	-14.34
253.535	-38.91
253.752	4.1
253.968	57.34
254.185	-55.3
254.401	45.06
254.618	32.77
254.835	-49.15
255.051	45.06
255.268	79.87
255.484	-6.14
255.701	16.38
255.917	34.82
256.134	18.43
256.351	10.24
256.567	26.62
256.784	-2.05
257	6.14
257.217	-8.19
257.433	-90.11
257.65	10.24
257.866	24.58
258.082	24.58
258.299	49.15
258.515	49.15
258.732	-8.19
258.948	-28.67
259.165	8.19
259.381	-69.63
259.597	63.49
259.814	0
260.03	20.48
260.246	30.72
260.463	32.77
260.679	-32.77
260.895	-20.48
261.112	28.67
261.328	-55.3
261.544	24.58
261.761	92.16
261.977	-40.96
262.193	16.38
262.409	18.43
262.626	-24.58
262.842	14.34
263.058	-8.19
263.274	12.29
263.49	-32.77
263.707	0
263.923	-6.14
264.139	-18.43
264.355	28.67
264.571	32.77
264.787	94.21
265.004	24.58
265.22	49.15
265.436	34.82
265.652	-45.06
265.868	-6.14
266.084	100.35
266.3	106.49
266.516	-24.58
266.732	59.39
266.948	-22.53
267.164	-8.19
267.38	8.19
267.596	69.63
267.812	77.82
268.028	59.39
268.244	-16.38
268.46	2.05
268.676	32.77
268.892	49.15
269.108	-16.38
269.324	18.43
269.54	51.2
269.756	-16.38
269.972	-22.53
270.188	32.77
270.403	-16.38
270.619	59.39
270.835	77.82
271.051	40.96
271.267	10.24
271.483	-40.96
271.698	34.82
271.914	-12.29
272.13	8.19
272.346	49.15
272.562	-6.14
272.777	43.01
272.993	-16.38
273.209	-16.38
273.425	104.45
273.64	43.01
273.856	6.14
274.072	45.06
274.287	26.62
274.503	57.34
274.719	-20.48
274.934	65.54
275.15	-30.72
275.366	36.86
275.581	4.1
275.797	-24.58
276.012	-20.48
276.228	10.24
276.444	2.05
276.659	81.92
276.875	-32.77
277.09	-36.86
277.306	-32.77
277.521	61.44
277.737	10.24
277.952	-24.58
278.168	59.39
278.383	30.72
278.599	-36.86
278.814	71.68
279.03	20.48
279.245	73.73
279.461	6.14
279.676	2.05
279.892	61.44
280.107	51.2
280.322	30.72
280.538	49.15
280.753	-32.77
280.969	0
281.184	81.92
281.399	65.54
281.615	10.24
281.83	36.86
282.045	-65.53
282.26	-6.14
282.476	36.86
282.691	28.67
282.906	4.1
283.122	34.82
283.337	-26.62
283.552	8.19
283.767	-14.34
283.983	24.58
284.198	73.73
284.413	32.77
284.628	-20.48
284.843	20.48
285.058	0
285.274	32.77
285.489	-57.34
285.704	-24.58
285.919	-49.15
286.134	81.92
286.349	-16.38
286.564	-36.86
286.779	81.92
286.995	-34.82
287.21	-14.34
287.425	26.62
287.64	-51.2
287.855	32.77
288.07	-88.06
288.285	114.69
288.5	63.49
288.715	40.96
288.93	40.96
289.145	26.62
289.36	30.72
289.575	10.24
289.79	-49.15
290.004	36.86
290.219	40.96
290.434	12.29
290.649	-69.63
290.864	-53.25
291.079	-14.34
291.294	-8.19
291.509	20.48
291.724	28.67
291.938	12.29
292.153	2.05
292.368	8.19
292.583	45.06
292.798	49.15
293.012	32.77
293.227	2.05
293.442	65.54
293.657	40.96
293.871	43.01
294.086	20.48
294.301	20.48
294.516	10.24
294.73	61.44
294.945	24.58
295.16	-24.58
295.374	57.34
295.589	22.53
295.804	36.86
296.018	20.48
296.233	75.77
296.447	-16.38
296.662	2.05
296.877	-16.38
297.091	10.24
297.306	4.1
297.52	-57.34
297.735	-71.68
297.949	-4.1
298.164	-14.34
298.378	24.58
298.593	79.87
298.807	-8.19
299.022	28.67
299.236	43.01
299.451	-8.19
299.665	-32.77
299.88	16.38
300.094	49.15
300.309	-18.43
300.523	38.91
300.737	-16.38
300.952	98.3
301.166	65.54
301.381	-24.58
301.595	49.15
301.809	-30.72
302.024	-8.19
302.238	-75.77
302.452	49.15
302.667	-92.16
302.881	34.82
303.095	4.1
303.309	65.54
303.524	-4.1
303.738	51.2
303.952	32.77
304.166	65.54
304.381	-55.3
304.595	63.49
304.809	-24.58
305.023	102.4
305.237	-8.19
305.452	8.19
305.666	-8.19
305.88	126.97
306.094	24.58
306.308	18.43
306.522	83.97
306.736	8.19
306.95	43.01
307.164	28.67
307.379	71.68
307.593	40.96
307.807	-24.58
308.021	73.73
308.235	24.58
308.449	8.19
308.663	26.62
308.877	53.25
309.091	71.68
309.305	10.24
309.519	8.19
309.733	73.73
309.947	12.29
310.161	75.77
310.374	36.86
310.588	6.14
310.802	-28.67
311.016	-10.24
311.23	51.2
311.444	90.11
311.658	-55.3
311.872	18.43
312.085	-8.19
312.299	28.67
312.513	61.44
312.727	32.77
312.941	-30.72
313.154	12.29
313.368	57.34
313.582	-32.77
313.796	81.92
314.009	8.19
314.223	69.63
314.437	81.92
314.651	45.06
314.864	-12.29
315.078	8.19
315.292	34.82
315.505	-6.14
315.719	30.72
315.933	47.1
316.146	-16.38
316.36	-8.19
316.573	75.77
316.787	53.25
317.001	16.38
317.214	26.62
317.428	131.07
317.641	-16.38
317.855	-8.19
318.068	73.73
318.282	34.82
318.495	18.43
318.709	65.54
318.922	-6.14
319.136	43.01
319.349	106.49
319.563	2.05
319.776	-24.58
319.99	-20.48
320.203	73.73
320.417	-14.34
320.63	114.69
320.843	67.58
321.057	65.54
321.27	45.06
321.483	51.2
321.697	133.12
321.91	-16.38
322.124	-4.1
322.337	61.44
322.55	49.15
322.763	28.67
322.977	133.12
323.19	-4.1
323.403	10.24
323.617	-30.72
323.83	61.44
324.043	-32.77
324.256	90.11
324.469	-12.29
324.683	0
324.896	69.63
325.109	81.92
325.322	2.05
325.535	8.19
325.748	45.06
325.962	26.62
326.175	-26.62
326.388	49.15
326.601	57.34
326.814	38.91
327.027	36.86
327.24	-12.29
327.453	0
327.666	8.19
327.879	83.97
328.092	8.19
328.305	96.25
328.518	-47.1
328.731	-28.67
328.944	32.77
329.157	55.3
329.37	-49.15
329.583	20.48
329.796	40.96
330.009	26.62
330.222	12.29
330.435	45.06
330.648	47.1
330.861	43.01
331.073	36.86
331.286	-12.29
331.499	53.25
331.712	4.1
331.925	51.2
332.138	26.62
332.35	114.69
332.563	-14.34
332.776	38.91
332.989	45.06
333.202	-4.1
333.414	69.63
333.627	12.29
333.84	-14.34
334.053	2.05
334.265	-8.19
334.478	4.1
334.691	26.62
334.903	116.73
335.116	55.3
335.329	53.25
335.541	73.73
335.754	65.54
335.966	26.62
336.179	20.48
336.392	32.77
336.604	4.1
336.817	108.54
337.029	59.39
337.242	40.96
337.454	12.29
337.667	26.62
337.88	67.58
338.092	43.01
338.305	75.77
338.517	10.24
338.729	-12.29
338.942	69.63
339.154	-24.58
339.367	32.77
339.579	-8.19
339.792	-28.67
340.004	20.48
340.217	10.24
340.429	73.73
340.641	2.05
340.854	-53.25
341.066	-4.1
341.278	57.34
341.491	34.82
341.703	-45.06
341.915	-16.38
342.128	40.96
342.34	49.15
342.552	67.58
342.764	49.15
342.977	14.34
343.189	49.15
343.401	51.2
343.613	-45.06
343.826	8.19
344.038	-22.53
344.25	32.77
344.462	-16.38
344.674	61.44
344.886	30.72
345.099	6.14
345.311	92.16
345.523	28.67
345.735	-71.68
345.947	26.62
346.159	-14.34
346.371	10.24
346.583	28.67
346.795	118.78
347.007	12.29
347.219	43.01
347.431	-4.1
347.643	45.06
347.855	20.48
348.067	98.3
348.279	-12.29
348.491	30.72
348.703	65.54
348.915	32.77
349.127	40.96
349.339	-22.53
349.551	12.29
349.763	36.86
349.975	90.11
350.187	65.54
350.399	51.2
350.61	8.19
350.822	-22.53
351.034	45.06
351.246	32.77
351.458	49.15
351.669	53.25
351.881	90.11
352.093	36.86
352.305	0
352.517	26.62
352.728	65.54
352.94	28.67
353.152	-6.14
353.363	-22.53
353.575	-4.1
353.787	24.58
353.999	-16.38
354.21	59.39
354.422	-18.43
354.633	8.19
354.845	10.24
355.057	0
355.268	40.96
355.48	6.14
355.692	49.15
355.903	38.91
356.115	75.77
356.326	-26.62
356.538	98.3
356.749	20.48
356.961	86.01
357.172	2.05
357.384	10.24
357.595	16.38
357.807	28.67
358.018	-16.38
358.23	98.3
358.441	63.49
358.653	32.77
358.864	26.62
359.075	38.91
359.287	71.68
359.498	49.15
359.709	30.72
359.921	65.54
360.132	-10.24
360.344	-20.48
360.555	24.58
360.766	47.1
360.977	57.34
361.189	90.11
361.4	-14.34
361.611	67.58
361.823	2.05
362.034	-8.19
362.245	-81.92
362.456	0
362.667	77.82
362.879	51.2
363.09	-30.72
363.301	-8.19
363.512	75.77
363.723	-30.72
363.935	-40.96
364.146	-49.15
364.357	6.14
364.568	10.24
364.779	57.34
364.99	16.38
365.201	40.96
365.412	43.01
365.623	-49.15
365.834	65.54
366.045	-16.38
366.256	59.39
366.467	22.53
366.678	24.58
366.889	40.96
367.1	47.1
367.311	83.97
367.522	-16.38
367.733	96.25
367.944	139.26
368.155	-32.77
368.366	24.58
368.577	38.91
368.788	71.68
368.999	16.38
369.209	73.73
369.42	98.3
369.631	65.54
369.842	-30.72
370.053	57.34
370.264	-12.29
370.474	67.58
370.685	49.15
370.896	8.19
371.107	30.72
371.317	135.17
371.528	65.54
371.739	131.07
371.95	51.2
372.16	114.69
372.371	-12.29
372.582	12.29
372.792	88.06
373.003	6.14
373.214	51.2
373.424	67.58
373.635	-65.53
373.846	102.4
374.056	18.43
374.267	83.97
374.477	53.25
374.688	28.67
374.898	6.14
375.109	65.54
375.319	20.48
375.53	12.29
375.74	55.3
375.951	43.01
376.161	57.34
376.372	32.77
376.582	28.67
376.793	53.25
377.003	36.86
377.214	8.19
377.424	-8.19
377.635	57.34
377.845	24.58
378.055	83.97
378.266	77.82
378.476	24.58
378.686	65.54
378.897	126.97
379.107	28.67
379.317	16.38
379.528	71.68
379.738	28.67
379.948	30.72
380.158	45.06
380.369	32.77
380.579	43.01
380.789	36.86
380.999	16.38
381.21	22.53
381.42	131.07
381.63	53.25
381.84	20.48
382.05	45.06
382.261	65.54
382.471	22.53
382.681	18.43
382.891	49.15
383.101	63.49
383.311	0
383.521	32.77
383.731	40.96
383.941	94.21
384.151	47.1
384.361	65.54
384.571	65.54
384.781	55.3
384.991	59.39
385.201	90.11
385.411	90.11
385.621	104.45
385.831	24.58
386.041	63.49
386.251	73.73
386.461	73.73
386.671	16.38
386.881	10.24
387.091	63.49
387.301	75.77
387.511	6.14
387.72	51.2
387.93	77.82
388.14	16.38
388.35	40.96
388.56	88.06
388.769	8.19
388.979	24.58
389.189	0
389.399	69.63
389.609	53.25
389.818	65.54
390.028	0
390.238	36.86
390.447	45.06
390.657	43.01
390.867	98.3
391.076	34.82
391.286	49.15
391.496	32.77
391.705	77.82
391.915	135.17
392.125	71.68
392.334	51.2
392.544	90.11
392.753	49.15
392.963	32.77
393.172	67.58
393.382	22.53
393.591	59.39
393.801	106.49
394.01	139.26
394.22	43.01
394.429	28.67
394.639	-8.19
394.848	49.15
395.058	116.73
395.267	65.54
395.477	8.19
395.686	100.35
395.895	73.73
396.105	106.49
396.314	124.93
396.524	106.49
396.733	57.34
396.942	75.77
397.152	18.43
397.361	118.78
397.57	38.91
397.78	67.58
397.989	77.82
398.198	139.26
398.407	98.3
398.617	90.11
398.826	53.25
399.035	122.88
399.244	12.29
399.453	53.25
399.663	45.06
399.872	133.12
400.081	24.58
400.29	133.12
400.499	69.63
400.708	98.3
400.917	32.77
401.127	100.35
401.336	96.25
401.545	65.54
401.754	106.49
401.963	139.26
402.172	96.25
402.381	14.34
402.59	102.4
402.799	118.78
403.008	104.45
403.217	106.49
403.426	86.01
403.635	114.69
403.844	126.97
404.053	51.2
404.262	135.17
404.471	172.03
404.68	112.64
404.888	92.16
405.097	98.3
405.306	163.84
405.515	106.49
405.724	114.69
405.933	188.41
406.142	147.45
406.35	149.5
406.559	188.41
406.768	49.15
406.977	176.13
407.185	167.93
407.394	135.17
407.603	83.97
407.812	217.08
408.02	169.98
408.229	155.65
408.438	215.04
408.646	155.65
408.855	180.22
409.064	198.65
409.272	221.18
409.481	229.37
409.69	231.42
409.898	204.8
410.107	241.66
410.315	239.61
410.524	385.02
410.733	262.14
410.941	268.28
411.15	303.1
411.358	329.72
411.567	313.34
411.775	311.29
411.984	296.96
412.192	305.15
412.401	337.91
412.609	397.31
412.818	466.94
413.026	428.03
413.234	362.49
413.443	491.51
413.651	468.98
413.86	493.56
414.068	542.71
414.276	491.51
414.485	544.76
414.693	522.23
414.901	460.79
415.11	503.8
415.318	579.58
415.526	559.1
415.734	645.11
415.943	624.63
416.151	659.45
416.359	698.36
416.567	688.12
416.776	737.27
416.984	753.65
417.192	788.47
417.4	835.57
417.608	694.26
417.817	815.09
418.025	819.19
418.233	958.45
418.441	919.54
418.649	1009.65
418.857	1034.22
419.065	1079.28
419.273	1060.85
419.481	1081.33
419.689	985.07
419.897	1282.03
420.105	1290.22
420.313	1372.14
420.521	1351.66
420.729	1318.89
420.937	1322.99
421.145	1435.63
421.353	1468.39
421.561	1585.13
421.769	1452.01
421.977	1681.38
422.185	1621.99
422.393	1771.49
422.601	1851.36
422.809	1929.19
423.017	1789.92
423.224	1974.24
423.432	1974.24
423.64	1974.24
423.848	2205.66
424.056	2201.57
424.263	2342.88
424.471	2326.49
424.679	2338.78
424.887	2467.8
425.094	2631.64
425.302	2574.3
425.51	2623.45
425.718	2768.85
425.925	2809.81
426.133	2891.73
426.341	3127.25
426.548	3166.16
426.756	3129.3
426.964	3151.82
427.171	3436.49
427.379	3506.12
427.586	3465.16
427.794	3637.19
428.001	4022.21
428.209	3827.65
428.417	3907.52
428.624	4110.27
428.832	4083.65
429.039	4294.59
429.247	4153.28
429.454	4609.98
429.662	4833.21
429.869	4554.68
430.076	5062.58
430.284	4726.71
430.491	4988.85
430.699	5193.65
430.906	5248.94
431.114	5310.38
431.321	5586.86
431.528	5631.91
431.736	6193.06
431.943	6279.07
432.15	6150.05
432.358	6139.81
432.565	6487.97
432.772	6520.73
432.979	6739.87
433.187	6807.45
433.394	6786.97
433.601	7491.47
433.808	7339.92
434.016	7260.05
434.223	7671.69
434.43	8036.23
434.637	8116.1
434.844	8306.56
435.052	8552.32
435.259	8566.65
435.466	8818.55
435.673	8374.14
435.88	9150.32
436.087	9551.73
436.294	9625.45
436.501	9404.27
436.708	9506.67
436.915	9840.49
437.122	10223.46
437.329	10137.45
437.537	10506.08
437.743	10749.79
437.95	10741.6
438.157	11497.3
438.364	11642.7
438.571	11833.16
438.778	11595.6
438.985	12638.02
439.192	12156.74
439.399	12945.21
439.606	12341.06
439.813	13154.1
440.02	13958.95
440.227	13528.88
440.433	13598.51
440.64	14245.67
440.847	13774.64
441.054	14325.54
441.261	15185.69
441.467	15099.67
441.674	15404.82
441.881	15902.48
442.088	15685.39
442.294	15564.56
442.501	16248.58
442.708	16535.3
442.914	17239.8
443.121	17678.07
443.328	17467.13
443.534	18550.5
443.741	18044.65
443.948	17473.27
444.154	19056.35
444.361	19027.68
444.568	19109.6
444.774	19257.05
444.981	19240.67
445.187	19781.33
445.394	20684.48
445.6	20604.61
445.807	22308.52
446.013	21511.86
446.22	22019.76
446.426	22992.55
446.633	23105.18
446.839	24014.48
447.046	22802.08
447.252	24163.98
447.459	24034.96
447.665	23914.13
447.871	25206.4
448.078	26119.79
448.284	24931.97
448.491	25489.02
448.697	26570.35
448.903	27473.5
449.11	27426.4
449.316	26981.99
449.522	27190.88
449.728	28274.26
449.935	28255.82
450.141	28128.85
450.347	29060.68
450.553	28245.58
450.76	28413.52
450.966	29634.11
451.172	29359.68
451.378	29861.43
451.584	29359.68
451.791	30391.86
451.997	29734.46
452.203	30510.64
452.409	30953
452.615	30551.6
452.821	29212.23
453.027	28589.64
453.233	30602.8
453.44	29451.84
453.646	30002.74
453.852	30172.72
454.058	30774.83
454.264	29412.93
454.47	30494.25
454.676	29564.48
454.882	30610.99
455.088	27827.8
455.294	27981.4
455.5	28610.12
455.705	29101.64
455.911	27786.84
456.117	27559.52
456.323	26883.69
456.529	25726.58
456.735	26953.32
456.941	25843.32
457.147	25749.11
457.352	24759.94
457.558	24471.18
457.764	24680.07
457.97	24198.8
458.176	23758.49
458.381	23824.02
458.587	22695.59
458.793	22658.73
458.999	21526.2
459.204	22955.68
459.41	22337.2
459.616	20944.58
459.821	20694.72
460.027	20975.3
460.233	20408.01
460.438	19623.64
460.644	19875.54
460.85	18804.45
461.055	18341.61
461.261	18407.14
461.466	17118.97
461.672	16465.67
461.878	17841.9
462.083	16604.93
462.289	16119.56
462.494	16127.75
462.7	15591.19
462.905	15060.76
463.111	15662.86
463.316	15509.27
463.522	15288.09
463.727	15249.18
463.932	15154.97
464.138	14864.16
464.343	15089.43
464.549	14790.43
464.754	15310.61
464.959	15163.16
465.165	15134.49
465.37	14493.47
465.575	14143.27
465.781	14690.08
465.986	14649.12
466.191	14135.08
466.397	13766.45
466.602	13250.36
466.807	13668.14
467.012	13729.58
467.218	13446.96
467.423	13492.02
467.628	13625.14
467.833	13946.67
468.038	13543.22
468.244	13197.11
468.449	13598.51
468.654	13195.06
468.859	13309.75
469.064	12949.31
469.269	12552
469.474	12789.56
469.679	13133.62
469.885	12717.89
470.09	12904.25
470.295	12724.03
470.5	12369.73
470.705	12721.98
470.91	12201.8
471.115	12222.28
471.32	12240.71
471.525	12166.98
471.73	12083.02
471.935	12058.44
472.139	11456.34
472.344	11804.49
472.549	11446.1
472.754	11482.96
472.959	11198.29
473.164	11083.61
473.369	11022.17
473.574	11245.4
473.778	11208.53
473.983	10938.2
474.188	11001.69
474.393	10622.81
474.598	10663.77
474.802	10536.8
475.007	10461.02
475.212	10305.38
475.417	10176.36
475.621	10035.05
475.826	10100.58
476.031	9783.15
476.235	9820.01
476.44	9906.02
476.645	9596.78
476.849	9830.25
477.054	9428.85
477.259	9224.05
477.463	9467.76
477.668	9189.24
477.872	9250.67
478.077	9232.24
478.282	8867.7
478.486	8812.41
478.691	8642.43
478.895	8683.39
479.1	8548.22
479.304	8753.02
479.509	8433.54
479.713	8689.53
479.918	8388.48
480.122	8226.69
480.326	8378.24
480.531	8277.89
480.735	8060.81
480.94	8345.47
481.144	8458.11
481.348	8071.04
481.553	8267.65
481.757	7978.89
481.961	8249.22
482.166	8390.53
482.37	8073.09
482.574	7864.2
482.778	8142.72
482.983	8232.83
483.187	8017.8
483.391	7931.78
483.595	8007.56
483.8	7806.86
484.004	7952.26
484.208	8193.92
484.412	8066.95
484.616	7976.84
484.821	8232.83
485.025	8036.23
485.229	8331.14
485.433	8155.01
485.637	8210.31
485.841	7999.37
486.045	8126.34
486.249	8193.92
486.453	8146.82
486.657	8177.54
486.861	8175.49
487.065	7913.35
487.269	8036.23
487.473	8011.65
487.677	8085.38
487.881	8142.72
488.085	8177.54
488.289	8038.28
488.493	7974.79
488.697	8224.64
488.901	8042.37
489.105	8140.68
489.309	8169.35
489.512	8204.16
489.716	8159.11
489.92	8404.86
490.124	8185.73
490.328	8476.54
490.531	8515.45
490.735	8185.73
490.939	8298.37
491.143	8466.3
491.346	8404.86
491.55	8519.55
491.754	8515.45
491.958	8421.25
492.161	8568.7
492.365	8615.8
492.569	8535.93
492.772	8554.37
492.976	8656.76
493.18	8689.53
493.383	8746.87
493.587	8859.51
493.79	8941.43
493.994	9031.54
494.197	9060.21
494.401	8882.04
494.605	9166.71
494.808	9240.43
495.012	8992.63
495.215	9465.71
495.419	9633.65
495.622	9164.66
495.825	9359.22
496.029	9660.27
496.232	9729.9
496.436	9570.16
496.639	9949.03
496.843	10176.36
497.046	10192.74
497.249	10239.84
497.453	10192.74
497.656	10110.82
497.859	10495.84
498.063	10504.03
498.266	10870.62
498.469	10706.78
498.673	10995.54
498.876	11208.53
499.079	11396.95
499.282	11198.29
499.485	11536.21
499.689	11724.62
499.892	11673.42
500.095	11906.89
500.298	12021.58
500.501	11788.11
500.705	12304.2
500.908	12584.77
501.111	12396.35
501.314	12803.9
501.517	12701.5
501.72	12816.19
501.923	13027.13
502.126	13346.61
502.329	13360.95
502.532	13567.79
502.735	13670.19
502.938	13987.63
503.141	13967.15
503.344	14133.03
503.547	14290.73
503.75	14319.4
503.953	14692.13
504.156	15226.65
504.359	15064.86
504.562	15093.53
504.765	15634.19
504.968	15476.5
505.17	15873.81
505.373	15838.99
505.576	15937.29
505.779	15992.59
505.982	16393.99
506.185	16826.11
506.387	16770.82
506.59	16953.09
506.793	17186.55
506.996	17219.32
507.198	17772.27
507.401	17573.62
507.604	17938.16
507.807	18413.29
508.009	18372.33
508.212	18675.43
508.415	18906.85
508.617	18949.85
508.82	19132.12
509.022	19070.68
509.225	19881.68
509.428	19621.59
509.63	20016.85
509.833	20227.79
510.035	20803.27
510.238	20332.23
510.44	20850.37
510.643	21044.93
510.845	21608.12
511.048	21419.71
511.25	21907.12
511.453	21837.49
511.655	22523.56
511.858	22361.77
512.06	22781.6
512.262	22857.38
512.465	22978.21
512.667	23199.39
512.87	23543.45
513.072	23680.66
513.274	24290.96
513.477	24123.02
513.679	24338.06
513.881	24737.41
514.084	24970.88
514.286	24882.82
514.488	25433.72
514.69	25945.72
514.893	26150.51
515.095	25804.41
515.297	26463.85
515.499	26797.67
515.701	27332.19
515.904	27297.38
516.106	27373.15
516.308	27846.23
516.51	27823.7
516.712	28065.36
516.914	28427.85
517.116	28603.98
517.318	29068.87
517.52	29201.99
517.722	29109.83
517.925	29802.04
518.127	29814.33
518.329	30060.09
518.531	30277.17
518.733	30533.17
518.935	31057.45
519.136	30957.1
519.338	31610.4
519.54	31426.08
519.742	31882.78
519.944	32056.85
520.146	32335.38
520.348	32701.97
520.55	32753.16
520.752	32955.91
520.954	33830.4
521.155	33332.74
521.357	33801.72
521.559	34088.44
521.761	34729.45
521.963	34721.26
522.164	34887.15
522.366	34784.75
522.568	34977.26
522.77	35130.86
522.971	36054.49
523.173	35198.44
523.375	36337.11
523.576	36109.78
523.778	36259.29
523.98	36646.35
524.181	36623.83
524.383	37094.86
524.584	37301.7
524.786	36902.35
524.988	37207.5
525.189	37598.66
525.391	38071.74
525.592	38395.32
525.794	38272.44
525.995	38360.5
526.197	38415.8
526.398	38720.95
526.6	38880.69
526.801	38907.31
527.003	38966.7
527.204	39130.54
527.406	39116.2
527.607	39325.1
527.808	39943.58
528.01	39384.49
528.211	39589.28
528.412	40265.11
528.614	40250.78
528.815	40138.14
529.016	40359.32
529.218	40117.66
529.419	40357.27
529.62	40643.99
529.822	40400.28
530.023	40529.3
530.224	40480.15
530.425	40695.19
530.626	40535.45
530.828	40469.91
531.029	41586.05
531.23	40627.6
531.431	40801.68
531.632	40920.46
531.833	41031.05
532.035	41328.01
532.236	41241.99
532.437	41104.78
532.638	40922.51
532.839	41110.92
533.04	41475.46
533.241	40717.71
533.442	41807.23
533.643	41467.27
533.844	41409.93
534.045	41366.92
534.246	41110.92
534.447	41792.9
534.648	41317.77
534.849	41592.2
535.05	41561.48
535.251	41321.87
535.451	41399.69
535.652	41751.94
535.853	41350.54
536.054	41340.3
536.255	41397.64
536.456	41323.91
536.657	42175.87
536.857	41622.92
537.058	41162.12
537.259	41698.69
537.46	41692.55
537.66	41475.46
537.861	41827.71
538.062	41475.46
538.263	41305.48
538.463	41751.94
538.664	41627.01
538.865	41586.05
539.065	41889.15
539.266	41676.16
539.466	41923.97
539.667	41074.06
539.868	41956.74
540.068	41325.96
540.269	41303.43
540.469	41629.06
540.67	41653.64
540.87	41291.15
541.071	41119.12
541.271	41690.5
541.472	41479.56
541.672	41346.44
541.873	41409.93
542.073	41201.04
542.274	41377.16
542.474	41559.43
542.675	41440.65
542.875	41780.61
543.075	41057.68
543.276	41010.57
543.476	41608.58
543.676	41221.51
543.877	41432.46
544.077	40983.95
544.277	41565.57
544.478	41301.39
544.678	41389.45
544.878	41409.93
545.078	41426.31
545.279	41354.63
545.479	40965.52
545.679	41354.63
545.879	41557.38
546.079	41037.2
546.28	41110.92
546.48	40918.42
546.68	41133.45
546.88	41364.87
547.08	41182.6
547.28	40777.11
547.48	40826.26
547.68	41170.32
547.88	41217.42
548.081	41162.12
548.281	41375.11
548.481	41223.56
548.681	41471.37
548.881	41285
549.081	41020.81
549.28	40818.07
549.48	40988.05
549.68	41069.97
549.88	41680.26
550.08	40922.51
550.28	41352.58
550.48	40695.19
550.68	41295.24
550.88	41008.53
551.08	40947.09
551.279	40945.04
551.479	40936.85
551.679	41397.64
551.879	41088.4
552.079	40873.36
552.278	40736.15
552.478	40672.66
552.678	41233.8
552.878	41143.69
553.077	40895.89
553.277	40498.58
553.477	40990.09
553.676	40938.9
553.876	40727.95
554.076	40930.7
554.275	40789.39
554.475	40254.87
554.674	40539.54
554.874	40418.71
555.074	40508.82
555.273	40596.88
555.473	40932.75
555.672	40025.5
555.872	40170.91
556.071	40275.35
556.271	40557.97
556.47	40205.72
556.67	40226.2
556.869	40105.37
557.068	40318.36
557.268	39824.8
557.467	40002.97
557.667	40428.95
557.866	40215.96
558.065	39859.62
558.265	39746.98
558.464	39857.57
558.663	40115.61
558.863	39646.63
559.062	40267.16
559.261	39337.38
559.461	40119.71
559.66	39581.09
559.859	39513.51
560.058	39577
560.258	39910.81
560.457	39351.72
560.656	39517.6
560.855	39609.76
561.054	39495.08
561.253	39357.86
561.453	39271.85
561.652	39632.29
561.851	39298.47
562.05	39013.8
562.249	38675.89
562.448	39030.19
562.647	39126.44
562.846	38749.62
563.045	38978.99
563.244	38507.96
563.443	38917.55
563.642	38276.54
563.841	38966.7
564.04	38497.72
564.239	38768.05
564.438	38507.96
564.637	38567.35
564.836	38239.67
565.035	37971.39
565.234	38366.65
565.432	38239.67
565.631	37973.44
565.83	38215.1
566.029	37662.15
566.228	38188.47
566.427	38069.69
566.625	38012.35
566.824	37692.86
567.023	37694.91
567.222	36906.44
567.42	37780.93
567.619	37643.71
567.818	37508.55
568.016	37469.64
568.215	37344.71
568.414	37195.21
568.612	37326.28
568.811	37221.83
569.01	37033.42
569.208	36500.95
569.407	37283.27
569.605	36646.35
569.804	36875.73
570.002	36513.23
570.201	36709.84
570.4	36376.02
570.598	36359.64
570.797	36201.94
570.995	36208.09
571.193	35587.55
571.392	36345.3
571.59	36142.55
571.789	35773.92
571.987	35853.79
572.186	35870.17
572.384	35515.87
572.582	35626.46
572.781	35626.46
572.979	35071.46
573.177	35417.57
573.376	35784.16
573.574	35204.58
573.772	35571.17
573.971	35014.12
574.169	34807.28
574.367	34694.64
574.565	35010.03
574.763	34602.48
574.962	34502.13
575.16	34307.57
575.358	34637.3
575.556	34016.76
575.754	34434.55
575.952	34174.45
576.151	34166.26
576.349	33881.59
576.547	33910.27
576.745	34008.57
576.943	33908.22
577.141	33609.22
577.339	33893.88
577.537	33494.53
577.735	33734.14
577.933	33297.92
578.131	33367.55
578.329	33158.66
578.527	33066.5
578.725	33197.57
578.923	33170.95
579.121	33084.94
579.319	32853.51
579.516	32886.28
579.714	32925.19
579.912	32513.55
580.11	32593.42
580.308	32607.76
580.506	32161.3
580.704	32245.27
580.901	31948.31
581.099	32269.84
581.297	31921.69
581.495	32181.78
581.692	31958.55
581.89	31743.52
582.088	31989.27
582.285	31876.63
582.483	31784.48
582.681	31634.97
582.878	31311.39
583.076	31153.7
583.274	31329.83
583.471	30883.37
583.669	31022.63
583.866	30866.98
584.064	31321.63
584.262	30504.49
584.459	31366.69
584.657	30768.68
584.854	30977.58
585.052	29888.06
585.249	30514.73
585.447	30658.09
585.644	29972.02
585.841	30115.38
586.039	30854.7
586.236	29896.25
586.434	29943.35
586.631	29693.5
586.828	29638.2
587.026	29734.46
587.223	29703.74
587.42	29546.05
587.618	29634.11
587.815	29279.81
588.012	29343.3
588.21	29072.96
588.407	29312.58
588.604	28839.5
588.801	28788.3
588.999	28991.05
589.196	28681.8
589.393	28722.76
589.59	28876.36
589.787	28616.27
589.984	28429.9
590.182	28538.44
590.379	28622.41
590.576	28276.3
590.773	28333.65
590.97	28024.4
591.167	28339.79
591.364	27870.81
591.561	28102.23
591.758	27580
591.955	27573.85
592.152	27797.08
592.349	27541.08
592.546	27524.7
592.743	27655.77
592.94	27225.7
593.137	27319.9
593.334	27418.21
593.531	27094.63
593.727	27039.33
593.924	27004.52
594.121	26836.58
594.318	26998.37
594.515	26474.09
594.712	26748.52
594.908	26691.18
595.105	26476.14
595.302	26347.12
595.499	26603.11
595.696	26400.37
595.892	25992.82
596.089	26250.86
596.286	26093.17
596.482	25816.69
596.679	26058.35
596.876	26193.52
597.072	25611.9
597.269	25804.41
597.466	25828.98
597.662	25108.1
597.859	25509.5
598.055	25132.67
598.252	25425.53
598.448	25331.33
598.645	25370.24
598.841	24786.57
599.038	24958.6
599.234	24972.93
599.431	24563.34
599.627	24725.13
599.824	24761.99
600.02	24401.55
600.217	24710.79
600.413	24759.94
600.609	24501.9
600.806	24219.28
601.002	24252.05
601.198	24452.75
601.395	23963.28
601.591	24336.01
601.787	23897.75
601.984	24108.69
602.18	24364.68
602.376	23434.91
602.572	23914.13
602.769	23633.56
602.965	23465.63
603.161	23613.08
603.357	23318.17
603.553	23240.35
603.75	23436.95
603.946	23273.12
604.142	23176.86
604.338	22763.17
604.534	23258.78
604.73	22808.23
604.926	22945.44
605.122	22759.08
605.318	22509.22
605.514	22544.04
605.71	22361.77
605.906	22388.39
606.102	22691.49
606.298	22288.04
606.494	22365.87
606.69	22314.67
606.886	22498.98
607.082	22224.56
607.278	21835.44
607.474	21868.21
607.67	22189.74
607.866	21825.2
608.062	21986.99
608.257	21839.54
608.453	22097.58
608.649	22169.26
608.845	21874.35
609.041	21364.41
609.236	21776.05
609.432	21651.13
609.628	21743.28
609.824	21847.73
610.019	21579.45
610.215	21388.99
610.411	21561.01
610.606	21202.62
610.802	21345.98
610.998	21124.8
611.193	21094.08
611.389	20850.37
611.584	21092.03
611.78	20754.12
611.976	20891.33
612.171	20934.34
612.367	20690.63
612.562	20661.96
612.758	20659.91
612.953	20504.26
613.149	20913.86
613.344	20524.74
613.539	20633.29
613.735	20498.12
613.93	20217.55
614.126	20131.53
614.321	20481.74
614.517	20426.44
614.712	20233.93
614.907	20272.84
615.103	20227.79
615.298	20113.1
615.493	20324.04
615.688	19914.45
615.884	20393.67
616.079	19898.06
616.274	20184.78
616.47	19623.64
616.665	19953.36
616.86	19764.95
617.055	19863.25
617.25	19691.22
617.445	19810
617.641	19244.76
617.836	19332.83
618.031	19035.87
618.226	19470.04
618.421	19183.32
618.616	19539.67
618.811	18921.18
619.006	19615.44
619.201	19031.77
619.396	19302.11
619.591	18796.26
619.786	18857.7
619.981	18441.96
620.176	18923.23
620.371	18378.47
620.566	18497.25
620.761	18521.83
620.956	18585.32
621.151	18091.76
621.346	18407.14
621.541	18050.8
621.735	18069.23
621.93	17821.42
622.125	17962.73
622.32	17735.41
622.515	17737.46
622.709	17628.92
622.904	17473.27
623.099	17413.88
623.294	17243.9
623.488	17037.05
623.683	17143.55
623.878	16989.95
624.072	17080.06
624.267	16912.13
624.462	16789.25
624.656	16578.31
624.851	16496.39
625.046	16416.52
625.24	16312.07
625.435	16140.04
625.629	16185.1
625.824	16283.4
626.018	16013.07
626.213	15755.02
626.407	16242.44
626.602	15830.8
626.796	15761.17
626.991	15716.11
627.185	15568.66
627.38	15478.55
627.574	15425.3
627.768	15230.74
627.963	15234.84
628.157	14866.21
628.352	15013.66
628.546	14647.07
628.74	14929.69
628.935	14573.35
629.129	14913.31
629.323	14602.02
629.517	14593.83
629.712	14774.05
629.906	14425.89
630.1	14055.21
630.294	14450.47
630.489	13977.39
630.683	14376.74
630.877	13662
631.071	14153.51
631.265	14087.98
631.459	13950.76
631.653	13827.89
631.848	13672.24
632.042	13463.35
632.236	13428.53
632.43	13401.91
632.624	13434.67
632.818	13344.56
633.012	13107
633.206	13090.62
633.4	13029.18
633.594	13141.82
633.788	13000.51
633.982	13094.71
634.176	12969.79
634.369	12779.32
634.563	12734.27
634.757	12574.53
634.951	12785.47
635.145	12562.24
635.339	12455.75
635.533	12306.24
635.726	12326.72
635.92	12126.02
636.114	12181.32
636.308	12123.98
636.501	12316.48
636.695	12042.06
636.889	11945.8
637.083	11994.95
637.276	11820.88
637.47	11716.43
637.664	11790.16
637.857	11611.98
638.051	11632.46
638.244	11349.84
638.438	11505.49
638.632	11458.39
638.825	11198.29
639.019	11421.52
639.212	11188.05
639.406	11099.99
639.599	11130.71
639.793	11140.95
639.986	10882.91
640.18	10925.91
640.373	10837.85
640.567	10477.41
640.76	10684.25
640.954	10768.22
641.147	10661.73
641.34	10463.07
641.534	10329.95
641.727	10485.6
641.92	10571.61
642.114	10547.04
642.307	10346.34
642.5	10309.47
642.694	9930.6
642.887	9953.13
643.08	10162.02
643.273	10055.53
643.467	9985.9
643.66	9863.02
643.853	9871.21
644.046	9600.88
644.239	9697.13
644.432	9734
644.626	9766.76
644.819	9414.51
645.012	9688.94
645.205	9346.93
645.398	9305.97
645.591	9252.72
645.784	9252.72
645.977	9185.14
646.17	9230.2
646.363	8996.73
646.556	8929.14
646.749	9066.36
646.942	9023.35
647.135	8775.55
647.328	8927.1
647.521	8931.19
647.714	8750.97
647.907	8972.15
648.099	8798.07
648.292	8750.97
648.485	8619.9
648.678	8494.97
648.871	8347.52
649.064	8511.36
649.256	8425.34
649.449	8398.72
649.642	8175.49
649.835	8281.99
650.027	8322.94
650.22	8013.7
650.413	8136.58
650.605	8062.85
650.798	7974.79
650.991	7905.16
651.183	7847.82
651.376	7845.77
651.568	8048.52
651.761	7708.55
651.954	7778.19
652.146	7675.79
652.339	7706.51
652.531	7733.13
652.724	7516.05
652.916	7604.11
653.109	7544.72
653.301	7544.72
653.494	7462.8
653.686	7217.04
653.879	7272.34
654.071	7481.23
654.263	7036.82
654.456	7102.36
654.648	7135.12
654.84	7112.6
655.033	7171.99
655.225	6971.29
655.417	6944.66
655.61	6913.94
655.802	7171.99
655.994	6848.41
656.186	6973.33
656.379	6901.65
656.571	6764.44
656.763	6854.55
656.955	6643.61
657.148	6408.09
657.34	6680.47
657.532	6504.35
657.724	6590.36
657.916	6389.66
658.108	6541.21
658.3	6369.18
658.492	6369.18
658.684	6301.6
658.876	6338.46
659.068	6281.12
659.26	6156.19
659.452	6135.71
659.644	6264.74
659.836	6160.29
660.028	6152.1
660.22	5865.38
660.412	5937.06
660.604	5961.64
660.796	5812.14
660.988	5750.7
661.18	5771.18
661.372	5982.12
661.563	5713.83
661.755	5599.15
661.947	5629.87
662.139	5629.87
662.331	5517.23
662.522	5597.1
662.714	5480.36
662.906	5562.28
663.097	5377.97
663.289	5541.8
663.481	5371.82
663.673	5330.86
663.864	5357.49
664.056	5382.06
664.247	5406.64
664.439	5177.27
664.631	5275.57
664.822	5253.04
665.014	5103.54
665.205	5015.48
665.397	5095.35
665.588	5015.48
665.78	4988.85
665.971	5001.14
666.163	5117.87
666.354	4843.45
666.546	4962.23
666.737	4788.15
666.929	4861.88
667.12	4874.17
667.311	4868.02
667.503	4538.3
667.694	4753.34
667.885	4804.53
668.077	4720.57
668.268	4743.1
668.459	4685.75
668.651	4540.35
668.842	4540.35
669.033	4550.59
669.224	4333.5
669.416	4620.22
669.607	4511.68
669.798	4325.31
669.989	4401.08
670.18	4374.46
670.371	4407.23
670.563	4376.51
670.754	4433.85
670.945	4325.31
671.136	4382.65
671.327	4278.21
671.518	4188.1
671.709	4286.4
671.9	4157.38
672.091	4169.66
672.282	4218.82
672.473	4212.67
672.664	4128.7
672.855	4042.69
673.046	4011.97
673.237	4120.51
673.428	4046.79
673.619	4032.45
673.809	4100.03
674	4052.93
674.191	4065.22
674.382	3934.15
674.573	3868.61
674.764	3909.57
674.954	3805.13
675.145	3940.29
675.336	3989.44
675.527	3936.2
675.717	3956.68
675.908	3899.33
676.099	3796.93
676.289	3768.26
676.48	3803.08
676.671	3809.22
676.861	3684.3
677.052	3674.06
677.243	3657.67
677.433	3876.8
677.624	3772.36
677.814	3688.39
678.005	3762.12
678.195	3706.82
678.386	3682.25
678.576	3596.23
678.767	3721.16
678.957	3542.99
679.148	3540.94
679.338	3710.92
679.529	3606.47
679.719	3440.59
679.909	3592.14
680.1	3565.51
680.29	3518.41
680.481	3440.59
680.671	3639.24
680.861	3465.16
681.052	3600.33
681.242	3473.36
681.432	3522.51
681.622	3530.7
681.813	3401.68
682.003	3420.11
682.193	3456.97
682.383	3590.09
682.573	3549.13
682.764	3506.12
682.954	3473.36
683.144	3409.87
683.334	3448.78
683.524	3370.96
683.714	3313.61
683.904	3350.48
684.094	3489.74
684.284	3612.62
684.474	3350.48
684.664	3344.33
684.854	3506.12
685.044	3450.83
685.234	3319.76
685.424	3368.91
685.614	3446.73
685.804	3289.04
685.994	3307.47
686.184	3370.96
686.374	3178.45
686.564	3321.81
686.753	3319.76
686.943	3237.84
687.133	3280.85
687.323	3211.22
687.513	3309.52
687.702	3262.41
687.892	3317.71
688.082	3186.64
688.272	3121.1
688.461	3211.22
688.651	3203.02
688.841	3237.84
689.03	3055.57
689.22	3190.74
689.41	3182.54
689.599	3121.1
689.789	3024.85
689.979	3225.55
690.168	3067.86
690.358	2983.89
690.547	3125.2
690.737	3108.82
690.926	3022.8
691.116	2912.21
691.305	3004.37
691.495	3092.43
691.684	3016.66
691.874	3121.1
692.063	3028.95
692.252	3039.19
692.442	2881.49
692.631	2908.12
692.82	2951.12
693.01	2926.55
693.199	2930.64
693.388	2867.16
693.578	2813.91
693.767	2908.12
693.956	2809.81
694.146	2824.15
694.335	2760.66
694.524	2908.12
694.713	2850.77
694.902	2895.83
695.092	2838.48
695.281	2801.62
695.47	2787.29
695.659	2793.43
695.848	2787.29
696.037	2711.51
696.226	2787.29
696.415	2641.88
696.604	2785.24
696.793	2752.47
696.982	2715.61
697.171	2869.2
697.36	2811.86
697.549	2742.23
697.738	2748.37
697.927	2654.17
698.116	2744.28
698.305	2668.5
698.494	2588.63
698.683	2539.48
698.872	2754.52
699.061	2648.02
699.25	2664.41
699.438	2576.34
699.627	2785.24
699.816	2623.45
700.005	2588.63
700.193	2506.71
700.382	2584.54
700.571	2635.74
700.76	2629.59
700.948	2572.25
701.137	2609.11
701.326	2686.94
701.514	2660.31
701.703	2539.48
701.892	2605.02
702.08	2527.19
702.269	2555.86
702.457	2547.67
702.646	2529.24
702.834	2457.56
703.023	2590.68
703.212	2486.23
703.4	2519
703.589	2473.95
703.777	2465.75
703.965	2523.1
704.154	2488.28
704.342	2473.95
704.531	2482.14
704.719	2449.37
704.907	2488.28
705.096	2342.88
705.284	2322.4
705.472	2410.46
705.661	2449.37
705.849	2410.46
706.037	2527.19
706.226	2539.48
706.414	2371.55
706.602	2322.4
706.79	2494.43
706.979	2488.28
707.167	2410.46
707.355	2385.88
707.543	2394.08
707.731	2498.52
707.919	2490.33
708.107	2392.03
708.296	2252.77
708.484	2400.22
708.672	2512.86
708.86	2457.56
709.048	2277.34
709.236	2396.12
709.424	2457.56
709.612	2359.26
709.8	2322.4
709.988	2404.32
710.176	2379.74
710.364	2326.49
710.551	2404.32
710.739	2279.39
710.927	2342.88
711.115	2404.32
711.303	2269.15
711.491	2314.2
711.679	2328.54
711.866	2236.38
712.054	2236.38
712.242	2238.43
712.43	2385.88
712.617	2383.84
712.805	2281.44
712.993	2248.67
713.181	2146.27
713.368	2379.74
713.556	2174.94
713.744	2203.61
713.931	2310.11
714.119	2328.54
714.306	2338.78
714.494	2156.51
714.682	2260.96
714.869	2158.56
715.057	2226.14
715.244	2310.11
715.432	2187.23
715.619	2232.29
715.807	2269.15
715.994	2152.42
716.182	2289.63
716.369	2250.72
716.556	2271.2
716.744	2197.47
716.931	2129.89
717.119	2183.13
717.306	2310.11
717.493	2172.89
717.681	2140.13
717.868	2140.13
718.055	2228.19
718.242	2234.33
718.43	2121.7
718.617	2148.32
718.804	2181.09
718.991	2041.82
719.179	2228.19
719.366	2265.05
719.553	2213.85
719.74	2086.88
719.927	2191.33
720.114	2213.85
720.301	2105.31
720.488	2101.22
720.676	2035.68
720.863	2123.74
721.05	2195.42
721.237	2146.27
721.424	2148.32
721.611	2146.27
721.798	2068.45
721.985	2058.21
722.172	2113.5
722.358	1992.67
722.545	2140.13
722.732	2082.78
722.919	2183.13
723.106	2117.6
723.293	2105.31
723.48	2158.56
723.667	2148.32
723.853	2172.89
724.04	1904.61
724.227	2050.02
724.414	1992.67
724.6	2060.26
724.787	2133.98
724.974	2101.22
725.161	2201.57
725.347	1990.63
725.534	2138.08
725.72	2031.58
725.907	1974.24
726.094	2168.8
726.28	2002.91
726.467	2142.18
726.653	1949.67
726.84	2111.46
727.027	2129.89
727.213	1953.76
727.4	1996.77
727.586	2011.11
727.773	1974.24
727.959	2095.07
728.145	1992.67
728.332	1972.19
728.518	2082.78
728.705	2125.79
728.891	2045.92
729.077	2025.44
729.264	2058.21
729.45	2058.21
729.636	2033.63
729.823	1959.91
730.009	2203.61
730.195	2060.26
730.382	2062.3
730.568	1910.75
730.754	1892.32
730.94	2000.87
731.126	1992.67
731.313	1994.72
731.499	2004.96
731.685	1941.47
731.871	2009.06
732.057	2041.82
732.243	2041.82
732.429	1988.58
732.615	2086.88
732.801	1935.33
732.987	1916.9
733.173	1951.71
733.359	2093.02
733.545	1951.71
733.731	1990.63
733.917	2017.25
734.103	1976.29
734.289	1990.63
734.475	1916.9
734.661	1957.86
734.847	1959.91
735.033	1886.18
735.219	1941.47
735.404	1867.75
735.59	1959.91
735.776	1912.8
735.962	1978.34
736.148	1902.56
736.333	1982.43
736.519	1828.84
736.705	1875.94
736.89	1896.42
737.076	1877.99
737.262	1837.03
737.447	1892.32
737.633	1918.95
737.819	1890.28
738.004	1828.84
738.19	1884.13
738.375	1920.99
738.561	1857.51
738.747	1769.44
738.932	1830.88
739.118	1853.41
739.303	1918.95
739.489	1837.03
739.674	1787.88
739.859	1826.79
740.045	1802.21
740.23	1855.46
740.416	1794.02
740.601	1744.87
740.786	1839.08
740.972	1834.98
741.157	1775.59
741.342	1746.92
741.528	1785.83
741.713	1685.48
741.898	1738.73
742.084	1679.33
742.269	1822.69
742.454	1773.54
742.639	1773.54
742.824	1775.59
743.01	1716.2
743.195	1779.68
743.38	1681.38
743.565	1662.95
743.75	1763.3
743.935	1767.4
744.12	1673.19
744.305	1656.81
744.49	1679.33
744.675	1626.09
744.86	1671.14
745.045	1597.42
745.23	1574.89
745.415	1523.69
745.6	1615.85
745.785	1677.29
745.97	1728.49
746.155	1640.42
746.34	1556.46
746.525	1556.46
746.71	1638.38
746.895	1368.04
747.079	1574.89
747.264	1507.31
747.449	1570.79
747.634	1507.31
747.819	1646.57
748.003	1492.97
748.188	1511.4
748.373	1503.21
748.557	1531.88
748.742	1484.78
748.927	1601.51
749.111	1433.58
749.296	1337.32
749.481	1335.28
749.665	1376.23
749.85	1470.44
750.034	1458.15
750.219	1480.68
750.404	1304.56
750.588	1499.11
750.773	1343.47
750.957	1441.77
751.141	1394.67
751.326	1427.43
751.51	1351.66
751.695	1392.62
751.879	1357.8
752.064	1400.81
752.248	1394.67
752.432	1343.47
752.617	1304.56
752.801	1351.66
752.985	1220.59
753.17	1296.36
753.354	1288.17
753.538	1206.25
753.722	1300.46
753.907	1269.74
754.091	1185.77
754.275	1277.93
754.459	1245.17
754.643	1236.97
754.828	1142.77
755.012	1130.48
755.196	1144.81
755.38	1155.05
755.564	1165.29
755.748	1122.29
755.932	1183.73
756.116	1220.59
756.3	1228.78
756.484	1036.27
756.668	1181.68
756.852	1116.14
757.036	1042.42
757.22	1042.42
757.404	1085.42
757.588	1122.29
757.772	1046.51
757.956	1075.18
758.14	1138.67
758.323	1126.38
758.507	1071.09
758.691	1089.52
758.875	1023.98
759.059	956.4
759.242	1011.7
759.426	966.64
759.61	1116.14
759.794	1064.94
759.977	1048.56
760.161	1132.53
760.345	1048.56
760.528	987.12
760.712	1048.56
760.895	985.07
761.079	933.87
761.263	888.82
761.446	905.2
761.63	917.49
761.813	911.35
761.997	925.68
762.18	976.88
762.364	888.82
762.547	851.96
762.731	870.39
762.914	878.58
763.098	911.35
763.281	837.62
763.464	851.96
763.648	972.79
763.831	944.11
764.015	837.62
764.198	878.58
764.381	876.53
764.564	942.07
764.748	829.43
764.931	845.81
765.114	872.43
765.297	864.24
765.481	765.94
765.664	804.85
765.847	772.08
766.03	851.96
766.213	872.43
766.397	919.54
766.58	761.84
766.763	811
766.946	804.85
767.129	727.03
767.312	784.37
767.495	860.15
767.678	763.89
767.861	868.34
768.044	815.09
768.227	862.19
768.41	819.19
768.593	884.72
768.776	841.72
768.959	874.48
769.142	827.38
769.324	813.04
769.507	788.47
769.69	786.42
769.873	763.89
770.056	755.7
770.239	804.85
770.421	761.84
770.604	841.72
770.787	794.61
770.97	829.43
771.152	747.51
771.335	673.78
771.518	708.6
771.7	729.08
771.883	735.22
772.066	831.48
772.248	729.08
772.431	798.71
772.613	698.36
772.796	686.07
772.978	786.42
773.161	704.5
773.343	712.69
773.526	706.55
773.708	735.22
773.891	632.82
774.073	632.82
774.256	673.78
774.438	772.08
774.621	671.73
774.803	677.88
774.985	737.27
775.168	663.54
775.35	583.67
775.532	727.03
775.715	645.11
775.897	698.36
776.079	622.58
776.261	540.66
776.444	651.25
776.626	671.73
776.808	667.64
776.99	593.91
777.173	591.86
777.355	647.16
777.537	585.72
777.719	581.62
777.901	548.86
778.083	565.24
778.265	559.1
778.447	622.58
778.629	602.1
778.811	598.01
778.993	526.33
779.175	548.86
779.357	600.05
779.539	528.38
779.721	567.29
779.903	608.25
780.085	479.22
780.267	491.51
780.449	532.47
780.631	559.1
780.812	524.28
780.994	557.05
781.176	620.53
781.358	524.28
781.54	557.05
781.721	487.42
781.903	509.94
782.085	450.55
782.267	552.95
782.448	421.88
782.63	499.7
782.812	499.7
782.993	540.66
783.175	475.13
783.357	468.98
783.538	452.6
783.72	344.06
783.901	444.41
784.083	477.18
784.264	485.37
784.446	391.16
784.627	460.79
784.809	442.36
784.99	432.12
785.172	456.7
785.353	364.54
785.535	376.83
785.716	401.4
785.897	303.1
786.079	352.25
786.26	458.75
786.441	450.55
786.623	430.07
786.804	403.45
786.985	335.87
787.167	460.79
787.348	362.49
787.529	393.21
787.71	434.17
787.891	346.11
788.073	409.59
788.254	362.49
788.435	360.44
788.616	421.88
788.797	315.39
788.978	335.87
789.159	272.38
789.34	319.48
789.522	270.33
789.703	346.11
789.884	331.77
790.065	376.83
790.246	290.81
790.427	286.72
790.607	401.4
790.788	358.39
790.969	280.57
791.15	315.39
791.331	309.24
791.512	286.72
791.693	376.83
791.874	331.77
792.054	327.67
792.235	305.15
792.416	235.52
792.597	245.76
792.778	335.87
792.958	319.48
793.139	327.67
793.32	368.63
793.5	301.05
793.681	319.48
793.862	288.76
794.042	278.52
794.223	227.32
794.404	288.76
794.584	178.17
794.765	296.96
794.945	309.24
795.126	319.48
795.306	319.48
795.487	319.48
795.667	262.14
795.848	245.76
796.028	282.62
796.209	280.57
796.389	358.39
796.57	126.97
796.75	249.85
796.93	315.39
797.111	296.96
797.291	196.61
797.471	204.8
797.652	253.95
797.832	264.19
798.012	231.42
798.192	260.09
798.373	258.04
798.553	172.03
798.733	155.65
798.913	221.18
799.093	196.61
799.274	221.18
799.454	165.89
799.634	245.76
799.814	256
799.994	215.04
800.174	184.32
800.354	225.28
800.534	196.61
800.714	196.61
800.894	182.27
801.074	192.51
801.254	239.61
801.434	206.84
801.614	239.61
801.794	131.07
801.974	722.93
802.154	155.65
802.334	237.56
802.514	180.22
802.693	235.52
802.873	147.45
803.053	167.93
803.233	133.12
803.413	194.56
803.592	208.89
803.772	102.4
803.952	217.08
804.131	176.13
804.311	229.37
804.491	163.84
804.67	124.93
804.85	110.59
805.03	180.22
805.209	215.04
805.389	126.97
805.568	212.99
805.748	120.83
805.928	188.41
806.107	186.37
806.287	182.27
806.466	182.27
806.646	129.02
806.825	188.41
807.004	174.08
807.184	237.56
807.363	137.21
807.543	159.74
807.722	153.6
807.901	172.03
808.081	204.8
808.26	75.77
808.439	159.74
808.619	141.31
808.798	206.84
808.977	182.27
809.156	223.23
809.336	219.13
809.515	114.69
809.694	131.07
809.873	126.97
810.052	141.31
810.231	215.04
810.411	186.37
810.59	112.64
810.769	108.54
810.948	174.08
811.127	32.77
811.306	92.16
811.485	163.84
811.664	180.22
811.843	81.92
812.022	145.41
812.201	126.97
812.38	131.07
812.559	81.92
812.737	147.45
812.916	94.21
813.095	98.3
813.274	133.12
813.453	139.26
813.632	188.41
813.811	186.37
813.989	77.82
814.168	106.49
814.347	83.97
814.526	63.49
814.704	182.27
814.883	131.07
815.062	147.45
815.24	143.36
815.419	49.15
815.598	131.07
815.776	92.16
815.955	116.73
816.133	75.77
816.312	65.54
816.49	126.97
816.669	147.45
816.847	73.73
817.026	131.07
817.204	81.92
817.383	116.73
817.561	159.74
817.74	135.17
817.918	122.88
818.097	32.77
818.275	110.59
818.453	114.69
818.632	133.12
818.81	43.01
818.988	116.73
819.167	126.97
819.345	43.01
819.523	98.3
819.701	114.69
819.879	94.21
820.058	86.01
820.236	90.11
820.414	67.58
820.592	57.34
820.77	143.36
820.948	92.16
821.127	65.54
821.305	102.4
821.483	94.21
821.661	65.54
821.839	57.34
822.017	88.06
822.195	65.54
822.373	20.48
822.551	71.68
822.729	159.74
822.907	116.73
823.085	149.5
823.262	108.54
823.44	73.73
823.618	98.3
823.796	26.62
823.974	61.44
824.152	143.36
824.329	92.16
824.507	122.88
824.685	147.45
824.863	108.54
825.04	79.87
825.218	57.34
825.396	75.77
825.574	34.82
825.751	59.39
825.929	83.97
826.107	53.25
826.284	81.92
826.462	61.44
826.639	32.77
826.817	51.2
826.994	69.63
827.172	38.91
827.349	186.37
827.527	57.34
827.704	57.34
827.882	149.5
828.059	49.15
828.237	67.58
828.414	102.4
828.591	36.86
828.769	100.35
828.946	24.58
829.124	67.58
829.301	92.16
829.478	57.34
829.655	65.54
829.833	57.34
830.01	18.43
830.187	98.3
830.364	24.58
830.542	24.58
830.719	43.01
830.896	57.34
831.073	24.58
831.25	-34.82
831.427	14.34
831.604	126.97
831.782	43.01
831.959	104.45
832.136	51.2
832.313	139.26
832.49	65.54
832.667	61.44
832.844	98.3
833.021	73.73
833.198	34.82
833.374	77.82
833.551	77.82
833.728	61.44
833.905	108.54
834.082	-36.86
834.259	65.54
834.436	90.11
834.612	49.15
834.789	86.01
834.966	32.77
835.143	86.01
835.319	81.92
835.496	2.05
835.673	51.2
835.85	96.25
836.026	40.96
836.203	43.01
836.38	6.14
836.556	63.49
836.733	63.49
836.909	67.58
837.086	100.35
837.262	-6.14
837.439	81.92
837.616	90.11
837.792	40.96
837.968	40.96
838.145	0
838.321	18.43
838.498	57.34
838.674	90.11
838.851	88.06
839.027	47.1
839.203	71.68
839.38	8.19
839.556	12.29
839.732	32.77
839.909	65.54
840.085	-36.86
840.261	8.19
840.437	77.82
840.614	45.06
840.79	77.82
840.966	0
841.142	40.96
841.318	65.54
841.494	40.96
841.671	53.25
841.847	14.34
842.023	53.25
842.199	108.54
842.375	40.96
842.551	47.1
842.727	-32.77
842.903	75.77
843.079	94.21
843.255	0
843.431	12.29
843.607	20.48
843.783	-24.58
843.959	-32.77
844.134	69.63
844.31	20.48
844.486	-20.48
844.662	4.1
844.838	40.96
845.013	38.91
845.189	18.43
845.365	22.53
845.541	51.2
845.716	34.82
845.892	53.25
846.068	34.82
846.244	24.58
846.419	75.77
846.595	-24.58
846.77	59.39
846.946	8.19
847.122	-16.38
847.297	106.49
847.473	65.54
847.648	36.86
847.824	65.54
847.999	-38.91
848.175	18.43
848.35	51.2
848.526	18.43
848.701	43.01
848.876	79.87
849.052	90.11
849.227	8.19
849.403	2.05
849.578	16.38
849.753	4.1
849.929	-36.86
850.104	-34.82
850.279	55.3
850.454	57.34
850.63	-30.72
850.805	24.58
850.98	51.2
851.155	69.63
851.33	-32.77
851.505	-40.96
851.681	18.43
851.856	-34.82
852.031	32.77
852.206	-12.29
852.381	-24.58
852.556	26.62
852.731	40.96
852.906	53.25
853.081	-24.58
853.256	77.82
853.431	83.97
853.606	-65.53
853.781	61.44
853.956	30.72
854.131	40.96
854.305	10.24
854.48	6.14
854.655	-28.67
854.83	40.96
855.005	20.48
855.18	24.58
855.354	-20.48
855.529	59.39
855.704	12.29
855.879	-8.19
856.053	-22.53
856.228	14.34
856.403	-6.14
856.577	-51.2
856.752	-14.34
856.926	32.77
857.101	0
857.276	12.29
857.45	16.38
857.625	98.3
857.799	-18.43
857.974	49.15
858.148	40.96
858.323	65.54
858.497	45.06
858.672	-8.19
858.846	-16.38
859.02	65.54
859.195	-71.68
859.369	51.2
859.543	69.63
859.718	-57.34
859.892	-43.01
860.066	36.86
860.241	-86.01
860.415	61.44
860.589	-49.15
860.763	-20.48
860.938	-20.48
861.112	-16.38
861.286	-36.86
861.46	16.38
861.634	-40.96
861.808	-24.58
861.982	18.43
862.157	24.58
862.331	-43.01
862.505	10.24
862.679	24.58
862.853	-26.62
863.027	-8.19
863.201	-2.05
863.375	-59.39
863.549	-57.34
863.722	40.96
863.896	-10.24
864.07	65.54
864.244	10.24
864.418	16.38
864.592	-28.67
864.766	2.05
864.939	-4.1
865.113	-69.63
865.287	45.06
865.461	57.34
865.634	40.96
865.808	18.43
865.982	-24.58
866.156	8.19
866.329	-53.25
866.503	-38.91
866.676	-53.25
866.85	22.53
867.024	24.58
867.197	10.24
867.371	61.44
867.544	61.44
867.718	-24.58
867.891	32.77
868.065	-81.92
868.238	-2.05
868.412	30.72
868.585	-10.24
868.759	-14.34
868.932	28.67
869.105	-8.19
869.279	-14.34
869.452	-4.1
869.625	-12.29
869.799	-22.53
869.972	0
870.145	16.38
870.319	49.15
870.492	0
870.665	-28.67
870.838	-30.72
871.011	-86.01
871.185	61.44
871.358	-26.62
871.531	8.19
871.704	16.38
871.877	32.77
872.05	-30.72
872.223	-36.86
872.396	26.62
872.569	-22.53
872.742	4.1
872.915	0
873.088	-49.15
873.261	-14.34
873.434	-16.38
873.607	-30.72
873.78	51.2
873.953	-38.91
874.126	-28.67
874.299	2.05
874.471	45.06
874.644	-16.38
874.817	-12.29
874.99	-2.05
875.163	-34.82
875.335	36.86
875.508	18.43
875.681	57.34
875.853	-108.54
876.026	-28.67
876.199	75.77
876.371	63.49
876.544	-16.38
876.717	-28.67
876.889	-6.14
877.062	-4.1
877.234	-20.48
877.407	32.77
877.579	-16.38
877.752	24.58
877.924	8.19
878.097	-32.77
878.269	-16.38
878.442	-30.72
878.614	-16.38
878.786	45.06
878.959	26.62
879.131	-12.29
879.303	-88.06
879.476	26.62
879.648	90.11
879.82	-69.63
879.993	-4.1
880.165	4.1
880.337	-122.88
880.509	59.39
880.681	-53.25
880.854	-28.67
881.026	8.19
881.198	24.58
881.37	98.3
881.542	-12.29
881.714	-57.34
881.886	34.82
882.058	36.86
882.23	0
882.402	65.54
882.574	-51.2
882.746	10.24
882.918	16.38
883.09	-14.34
883.262	49.15
883.434	-83.97
883.606	-16.38
883.778	4.1
883.95	-6.14
884.122	-30.72
884.293	12.29
884.465	8.19
884.637	26.62
884.809	-24.58
884.98	-12.29
885.152	36.86
885.324	8.19
885.496	8.19
885.667	-57.34
885.839	-8.19
886.011	26.62
886.182	-36.86
886.354	-24.58
886.525	-6.14
886.697	-32.77
886.869	-47.1
887.04	4.1
887.212	-131.07
887.383	38.91
887.555	40.96
887.726	8.19
887.897	2.05
888.069	-10.24
888.24	-26.62
888.412	-32.77
888.583	-22.53
888.754	-63.49
888.926	-16.38
889.097	-55.3
889.268	-55.3
889.44	-4.1
889.611	-110.59
889.782	-104.45
889.953	-53.25
890.125	12.29
890.296	-10.24
890.467	-22.53
890.638	-77.82
890.809	-16.38
890.98	-30.72
891.151	-6.14
891.323	4.1
891.494	-16.38
891.665	-49.15
891.836	-10.24
892.007	49.15
892.178	-40.96
892.349	-63.49
892.52	-106.49
892.691	-16.38
892.862	-36.86
893.032	2.05
893.203	-53.25
893.374	40.96
893.545	14.34
893.716	-18.43
893.887	8.19
894.057	-49.15
894.228	2.05
894.399	-81.92
894.57	2.05
894.74	-24.58
894.911	38.91
895.082	32.77
895.253	-20.48
895.423	-20.48
895.594	16.38
895.764	-8.19
895.935	-20.48
896.106	36.86
896.276	6.14
896.447	43.01
896.617	-57.34
896.788	-38.91
896.958	8.19
897.129	-14.34
897.299	-8.19
897.47	-12.29
897.64	32.77
897.81	30.72
897.981	-6.14
898.151	-38.91
898.322	-32.77
898.492	-96.25
898.662	-65.53
898.832	-30.72
899.003	-47.1
899.173	-40.96
899.343	-49.15
899.513	-2.05
