Data from USB4F104151__202__14-45-20-249.txt Node

Date: Thu Mar 13 14:45:20 EDT 2025
User: louis
Spectrometer: USB4F10415
Trigger mode: 4
Integration Time (sec): 2.000000E-2
Scans to average: 1
Electric dark correction enabled: true
Nonlinearity correction enabled: false
Boxcar width: 0
XAxis mode: Wavelengths
Number of Pixels in Spectrum: 3648
>>>>>Begin Spectral Data<<<<<
178.204	-151.55
178.424	-151.55
178.644	-151.55
178.864	-196.61
179.084	-196.61
179.304	36.86
179.524	8.19
179.744	-59.39
179.964	59.39
180.184	57.34
180.404	-79.87
180.624	-30.72
180.844	-14.34
181.064	24.58
181.283	-16.38
181.503	-28.67
181.723	43.01
181.943	-65.53
182.163	65.54
182.383	-12.29
182.602	40.96
182.822	65.54
183.042	92.16
183.262	6.14
183.482	26.62
183.701	-22.53
183.921	-12.29
184.141	-16.38
184.361	34.82
184.58	57.34
184.8	45.06
185.02	-32.77
185.239	32.77
185.459	16.38
185.679	118.78
185.898	-55.3
186.118	36.86
186.338	0
186.557	-4.1
186.777	26.62
186.997	28.67
187.216	57.34
187.436	81.92
187.655	26.62
187.875	77.82
188.095	-8.19
188.314	45.06
188.534	65.54
188.753	-8.19
188.973	10.24
189.192	16.38
189.412	43.01
189.631	40.96
189.851	12.29
190.07	112.64
190.29	-30.72
190.509	-6.14
190.729	-22.53
190.948	98.3
191.168	165.89
191.387	81.92
191.607	32.77
191.826	-38.91
192.045	49.15
192.265	43.01
192.484	2.05
192.704	-14.34
192.923	45.06
193.142	90.11
193.362	108.54
193.581	100.35
193.8	57.34
194.02	12.29
194.239	47.1
194.458	40.96
194.678	18.43
194.897	-8.19
195.116	26.62
195.335	-14.34
195.555	92.16
195.774	-12.29
195.993	-47.1
196.212	61.44
196.432	-10.24
196.651	57.34
196.87	0
197.089	118.78
197.308	-10.24
197.528	28.67
197.747	8.19
197.966	40.96
198.185	110.59
198.404	24.58
198.623	59.39
198.842	96.25
199.062	20.48
199.281	81.92
199.5	67.58
199.719	57.34
199.938	61.44
200.157	81.92
200.376	22.53
200.595	43.01
200.814	18.43
201.033	-8.19
201.252	126.97
201.471	73.73
201.69	49.15
201.909	-28.67
202.128	40.96
202.347	18.43
202.566	8.19
202.785	67.58
203.004	32.77
203.223	49.15
203.442	106.49
203.661	-8.19
203.879	-49.15
204.098	110.59
204.317	49.15
204.536	-8.19
204.755	10.24
204.974	-6.14
205.193	53.25
205.411	45.06
205.63	-45.06
205.849	18.43
206.068	81.92
206.287	-26.62
206.505	0
206.724	69.63
206.943	49.15
207.162	40.96
207.381	88.06
207.599	73.73
207.818	36.86
208.037	49.15
208.255	139.26
208.474	26.62
208.693	30.72
208.911	-28.67
209.13	28.67
209.349	51.2
209.567	32.77
209.786	40.96
210.005	-12.29
210.223	-32.77
210.442	18.43
210.661	53.25
210.879	12.29
211.098	24.58
211.316	40.96
211.535	98.3
211.753	51.2
211.972	36.86
212.191	-22.53
212.409	12.29
212.628	2.05
212.846	43.01
213.065	16.38
213.283	90.11
213.502	4.1
213.72	67.58
213.938	-4.1
214.157	16.38
214.375	73.73
214.594	69.63
214.812	69.63
215.031	-6.14
215.249	16.38
215.467	43.01
215.686	53.25
215.904	18.43
216.122	28.67
216.341	57.34
216.559	32.77
216.778	-6.14
216.996	67.58
217.214	53.25
217.432	-30.72
217.651	57.34
217.869	12.29
218.087	81.92
218.306	61.44
218.524	30.72
218.742	2.05
218.96	71.68
219.179	6.14
219.397	45.06
219.615	102.4
219.833	120.83
220.051	92.16
220.27	86.01
220.488	110.59
220.706	26.62
220.924	98.3
221.142	40.96
221.36	38.91
221.578	-8.19
221.796	120.83
222.015	45.06
222.233	59.39
222.451	102.4
222.669	-16.38
222.887	40.96
223.105	40.96
223.323	16.38
223.541	16.38
223.759	-24.58
223.977	-10.24
224.195	67.58
224.413	88.06
224.631	28.67
224.849	69.63
225.067	135.17
225.285	20.48
225.503	-2.05
225.721	24.58
225.939	0
226.157	51.2
226.375	114.69
226.592	32.77
226.81	8.19
227.028	92.16
227.246	38.91
227.464	0
227.682	26.62
227.9	63.49
228.117	51.2
228.335	2.05
228.553	67.58
228.771	32.77
228.989	81.92
229.206	77.82
229.424	4.1
229.642	-24.58
229.86	38.91
230.077	-12.29
230.295	32.77
230.513	94.21
230.731	57.34
230.948	59.39
231.166	77.82
231.384	22.53
231.601	20.48
231.819	98.3
232.037	16.38
232.254	34.82
232.472	-22.53
232.689	-69.63
232.907	-32.77
233.125	40.96
233.342	24.58
233.56	-49.15
233.777	16.38
233.995	98.3
234.213	81.92
234.43	-4.1
234.648	32.77
234.865	18.43
235.083	36.86
235.3	12.29
235.518	57.34
235.735	92.16
235.953	18.43
236.17	0
236.388	0
236.605	83.97
236.822	81.92
237.04	40.96
237.257	43.01
237.475	8.19
237.692	67.58
237.909	69.63
238.127	75.77
238.344	24.58
238.562	71.68
238.779	51.2
238.996	36.86
239.214	-14.34
239.431	20.48
239.648	-4.1
239.865	22.53
240.083	88.06
240.3	36.86
240.517	-8.19
240.735	24.58
240.952	149.5
241.169	83.97
241.386	94.21
241.603	45.06
241.821	40.96
242.038	32.77
242.255	49.15
242.472	-92.16
242.689	0
242.907	61.44
243.124	59.39
243.341	4.1
243.558	18.43
243.775	-24.58
243.992	-24.58
244.209	26.62
244.426	94.21
244.643	94.21
244.86	-4.1
245.078	32.77
245.295	26.62
245.512	-55.3
245.729	-20.48
245.946	98.3
246.163	-4.1
246.38	12.29
246.597	65.54
246.814	40.96
247.031	18.43
247.248	49.15
247.464	67.58
247.681	47.1
247.898	34.82
248.115	4.1
248.332	32.77
248.549	90.11
248.766	143.36
248.983	0
249.2	6.14
249.417	43.01
249.633	45.06
249.85	40.96
250.067	14.34
250.284	36.86
250.501	65.54
250.717	122.88
250.934	32.77
251.151	2.05
251.368	45.06
251.585	20.48
251.801	77.82
252.018	12.29
252.235	90.11
252.451	10.24
252.668	53.25
252.885	57.34
253.102	36.86
253.318	-34.82
253.535	57.34
253.752	69.63
253.968	0
254.185	34.82
254.401	65.54
254.618	22.53
254.835	32.77
255.051	81.92
255.268	16.38
255.484	83.97
255.701	98.3
255.917	43.01
256.134	53.25
256.351	57.34
256.567	49.15
256.784	-16.38
257	51.2
257.217	83.97
257.433	26.62
257.65	22.53
257.866	104.45
258.082	-4.1
258.299	77.82
258.515	83.97
258.732	57.34
258.948	49.15
259.165	71.68
259.381	26.62
259.597	73.73
259.814	104.45
260.03	-16.38
260.246	12.29
260.463	77.82
260.679	81.92
260.895	73.73
261.112	40.96
261.328	36.86
261.544	45.06
261.761	112.64
261.977	43.01
262.193	26.62
262.409	45.06
262.626	34.82
262.842	65.54
263.058	-4.1
263.274	26.62
263.49	51.2
263.707	100.35
263.923	57.34
264.139	38.91
264.355	28.67
264.571	18.43
264.787	-26.62
265.004	94.21
265.22	24.58
265.436	57.34
265.652	49.15
265.868	32.77
266.084	-8.19
266.3	8.19
266.516	73.73
266.732	26.62
266.948	83.97
267.164	34.82
267.38	34.82
267.596	12.29
267.812	67.58
268.028	49.15
268.244	57.34
268.46	77.82
268.676	63.49
268.892	57.34
269.108	43.01
269.324	2.05
269.54	-6.14
269.756	61.44
269.972	16.38
270.188	36.86
270.403	-51.2
270.619	26.62
270.835	16.38
271.051	57.34
271.267	-34.82
271.483	59.39
271.698	8.19
271.914	49.15
272.13	22.53
272.346	-32.77
272.562	79.87
272.777	73.73
272.993	-10.24
273.209	-32.77
273.425	34.82
273.64	43.01
273.856	88.06
274.072	-6.14
274.287	81.92
274.503	61.44
274.719	38.91
274.934	38.91
275.15	-71.68
275.366	40.96
275.581	2.05
275.797	28.67
276.012	69.63
276.228	-22.53
276.444	8.19
276.659	75.77
276.875	-53.25
277.09	65.54
277.306	16.38
277.521	16.38
277.737	10.24
277.952	24.58
278.168	38.91
278.383	14.34
278.599	69.63
278.814	26.62
279.03	63.49
279.245	102.4
279.461	-8.19
279.676	40.96
279.892	-71.68
280.107	73.73
280.322	26.62
280.538	57.34
280.753	34.82
280.969	139.26
281.184	67.58
281.399	49.15
281.615	0
281.83	57.34
282.045	65.54
282.26	22.53
282.476	73.73
282.691	59.39
282.906	24.58
283.122	-8.19
283.337	34.82
283.552	77.82
283.767	-55.3
283.983	83.97
284.198	10.24
284.413	-14.34
284.628	67.58
284.843	51.2
285.058	32.77
285.274	12.29
285.489	57.34
285.704	92.16
285.919	-2.05
286.134	10.24
286.349	28.67
286.564	6.14
286.779	124.93
286.995	8.19
287.21	90.11
287.425	10.24
287.64	-16.38
287.855	83.97
288.07	-32.77
288.285	24.58
288.5	81.92
288.715	4.1
288.93	34.82
289.145	2.05
289.36	43.01
289.575	47.1
289.79	65.54
290.004	98.3
290.219	83.97
290.434	2.05
290.649	63.49
290.864	49.15
291.079	28.67
291.294	86.01
291.509	-57.34
291.724	2.05
291.938	-16.38
292.153	57.34
292.368	-20.48
292.583	12.29
292.798	-16.38
293.012	28.67
293.227	0
293.442	67.58
293.657	43.01
293.871	73.73
294.086	-24.58
294.301	114.69
294.516	92.16
294.73	32.77
294.945	32.77
295.16	28.67
295.374	49.15
295.589	40.96
295.804	20.48
296.018	26.62
296.233	73.73
296.447	51.2
296.662	14.34
296.877	122.88
297.091	102.4
297.306	49.15
297.52	-12.29
297.735	16.38
297.949	49.15
298.164	67.58
298.378	43.01
298.593	94.21
298.807	53.25
299.022	92.16
299.236	86.01
299.451	26.62
299.665	69.63
299.88	-81.92
300.094	-30.72
300.309	36.86
300.523	-6.14
300.737	135.17
300.952	51.2
301.166	10.24
301.381	18.43
301.595	79.87
301.809	-32.77
302.024	34.82
302.238	40.96
302.452	59.39
302.667	-2.05
302.881	36.86
303.095	59.39
303.309	114.69
303.524	-20.48
303.738	59.39
303.952	-16.38
304.166	-32.77
304.381	-8.19
304.595	147.45
304.809	-4.1
305.023	-6.14
305.237	6.14
305.452	100.35
305.666	20.48
305.88	77.82
306.094	102.4
306.308	67.58
306.522	122.88
306.736	86.01
306.95	49.15
307.164	10.24
307.379	43.01
307.593	73.73
307.807	135.17
308.021	83.97
308.235	55.3
308.449	59.39
308.663	59.39
308.877	133.12
309.091	26.62
309.305	57.34
309.519	-28.67
309.733	18.43
309.947	-26.62
310.161	32.77
310.374	36.86
310.588	67.58
310.802	45.06
311.016	40.96
311.23	40.96
311.444	34.82
311.658	69.63
311.872	100.35
312.085	51.2
312.299	40.96
312.513	141.31
312.727	59.39
312.941	-8.19
313.154	10.24
313.368	-47.1
313.582	98.3
313.796	24.58
314.009	57.34
314.223	122.88
314.437	10.24
314.651	83.97
314.864	88.06
315.078	51.2
315.292	0
315.505	34.82
315.719	40.96
315.933	77.82
316.146	49.15
316.36	-22.53
316.573	49.15
316.787	36.86
317.001	88.06
317.214	32.77
317.428	34.82
317.641	51.2
317.855	86.01
318.068	34.82
318.282	81.92
318.495	81.92
318.709	98.3
318.922	83.97
319.136	34.82
319.349	61.44
319.563	16.38
319.776	28.67
319.99	40.96
320.203	61.44
320.417	96.25
320.63	51.2
320.843	124.93
321.057	4.1
321.27	40.96
321.483	102.4
321.697	108.54
321.91	69.63
322.124	18.43
322.337	81.92
322.55	-24.58
322.763	100.35
322.977	40.96
323.19	59.39
323.403	75.77
323.617	45.06
323.83	67.58
324.043	18.43
324.256	100.35
324.469	32.77
324.683	75.77
324.896	38.91
325.109	16.38
325.322	-28.67
325.535	81.92
325.748	65.54
325.962	106.49
326.175	67.58
326.388	163.84
326.601	98.3
326.814	12.29
327.027	57.34
327.24	73.73
327.453	-18.43
327.666	92.16
327.879	16.38
328.092	20.48
328.305	59.39
328.518	0
328.731	10.24
328.944	90.11
329.157	71.68
329.37	16.38
329.583	114.69
329.796	98.3
330.009	24.58
330.222	34.82
330.435	28.67
330.648	53.25
330.861	65.54
331.073	-8.19
331.286	28.67
331.499	40.96
331.712	-32.77
331.925	65.54
332.138	26.62
332.35	12.29
332.563	-8.19
332.776	30.72
332.989	0
333.202	108.54
333.414	30.72
333.627	47.1
333.84	98.3
334.053	69.63
334.265	16.38
334.478	-24.58
334.691	-53.25
334.903	20.48
335.116	-57.34
335.329	45.06
335.541	79.87
335.754	8.19
335.966	-6.14
336.179	40.96
336.392	-8.19
336.604	73.73
336.817	122.88
337.029	98.3
337.242	4.1
337.454	49.15
337.667	69.63
337.88	61.44
338.092	8.19
338.305	106.49
338.517	8.19
338.729	94.21
338.942	145.41
339.154	24.58
339.367	-8.19
339.579	57.34
339.792	0
340.004	73.73
340.217	18.43
340.429	94.21
340.641	-40.96
340.854	8.19
341.066	-28.67
341.278	34.82
341.491	106.49
341.703	-8.19
341.915	59.39
342.128	20.48
342.34	114.69
342.552	-8.19
342.764	69.63
342.977	40.96
343.189	53.25
343.401	49.15
343.613	65.54
343.826	43.01
344.038	0
344.25	32.77
344.462	36.86
344.674	94.21
344.886	83.97
345.099	77.82
345.311	77.82
345.523	-8.19
345.735	-57.34
345.947	51.2
346.159	67.58
346.371	73.73
346.583	67.58
346.795	65.54
347.007	16.38
347.219	69.63
347.431	-14.34
347.643	16.38
347.855	24.58
348.067	32.77
348.279	-69.63
348.491	49.15
348.703	161.79
348.915	8.19
349.127	-32.77
349.339	106.49
349.551	63.49
349.763	32.77
349.975	40.96
350.187	73.73
350.399	75.77
350.61	67.58
350.822	34.82
351.034	86.01
351.246	-16.38
351.458	135.17
351.669	40.96
351.881	67.58
352.093	51.2
352.305	98.3
352.517	79.87
352.728	131.07
352.94	73.73
353.152	73.73
353.363	12.29
353.575	92.16
353.787	75.77
353.999	110.59
354.21	55.3
354.422	-32.77
354.633	65.54
354.845	53.25
355.057	0
355.268	63.49
355.48	126.97
355.692	32.77
355.903	10.24
356.115	26.62
356.326	-40.96
356.538	61.44
356.749	4.1
356.961	77.82
357.172	149.5
357.384	81.92
357.595	73.73
357.807	118.78
358.018	-16.38
358.23	100.35
358.441	43.01
358.653	145.41
358.864	57.34
359.075	28.67
359.287	45.06
359.498	100.35
359.709	61.44
359.921	51.2
360.132	57.34
360.344	122.88
360.555	73.73
360.766	73.73
360.977	6.14
361.189	88.06
361.4	0
361.611	49.15
361.823	-24.58
362.034	102.4
362.245	-53.25
362.456	65.54
362.667	49.15
362.879	-32.77
363.09	-26.62
363.301	43.01
363.512	32.77
363.723	98.3
363.935	32.77
364.146	32.77
364.357	94.21
364.568	124.93
364.779	59.39
364.99	135.17
365.201	-12.29
365.412	34.82
365.623	-6.14
365.834	28.67
366.045	-12.29
366.256	83.97
366.467	36.86
366.678	-32.77
366.889	0
367.1	73.73
367.311	28.67
367.522	81.92
367.733	96.25
367.944	40.96
368.155	10.24
368.366	73.73
368.577	38.91
368.788	100.35
368.999	-40.96
369.209	73.73
369.42	163.84
369.631	106.49
369.842	112.64
370.053	16.38
370.264	61.44
370.474	16.38
370.685	108.54
370.896	110.59
371.107	114.69
371.317	90.11
371.528	69.63
371.739	55.3
371.95	77.82
372.16	151.55
372.371	-10.24
372.582	67.58
372.792	-30.72
373.003	18.43
373.214	106.49
373.424	0
373.635	34.82
373.846	155.65
374.056	65.54
374.267	75.77
374.477	67.58
374.688	92.16
374.898	83.97
375.109	75.77
375.319	65.54
375.53	16.38
375.74	83.97
375.951	57.34
376.161	28.67
376.372	90.11
376.582	57.34
376.793	8.19
377.003	10.24
377.214	40.96
377.424	90.11
377.635	77.82
377.845	86.01
378.055	86.01
378.266	2.05
378.476	47.1
378.686	69.63
378.897	-4.1
379.107	86.01
379.317	40.96
379.528	40.96
379.738	94.21
379.948	14.34
380.158	59.39
380.369	38.91
380.579	26.62
380.789	79.87
380.999	90.11
381.21	8.19
381.42	90.11
381.63	180.22
381.84	14.34
382.05	-22.53
382.261	180.22
382.471	81.92
382.681	40.96
382.891	137.21
383.101	12.29
383.311	53.25
383.521	10.24
383.731	96.25
383.941	59.39
384.151	30.72
384.361	24.58
384.571	38.91
384.781	83.97
384.991	79.87
385.201	90.11
385.411	131.07
385.621	81.92
385.831	10.24
386.041	75.77
386.251	110.59
386.461	98.3
386.671	28.67
386.881	106.49
387.091	40.96
387.301	106.49
387.511	-8.19
387.72	69.63
387.93	10.24
388.14	12.29
388.35	18.43
388.56	157.69
388.769	49.15
388.979	124.93
389.189	40.96
389.399	147.45
389.609	69.63
389.818	106.49
390.028	94.21
390.238	49.15
390.447	94.21
390.657	88.06
390.867	57.34
391.076	24.58
391.286	57.34
391.496	0
391.705	75.77
391.915	131.07
392.125	71.68
392.334	63.49
392.544	114.69
392.753	65.54
392.963	6.14
393.172	83.97
393.382	59.39
393.591	100.35
393.801	45.06
394.01	98.3
394.22	114.69
394.429	38.91
394.639	77.82
394.848	124.93
395.058	106.49
395.267	139.26
395.477	98.3
395.686	114.69
395.895	133.12
396.105	141.31
396.314	131.07
396.524	28.67
396.733	90.11
396.942	151.55
397.152	53.25
397.361	106.49
397.57	40.96
397.78	51.2
397.989	147.45
398.198	143.36
398.407	139.26
398.617	131.07
398.826	112.64
399.035	77.82
399.244	57.34
399.453	83.97
399.663	12.29
399.872	172.03
400.081	112.64
400.29	73.73
400.499	100.35
400.708	114.69
400.917	110.59
401.127	163.84
401.336	75.77
401.545	215.04
401.754	159.74
401.963	161.79
402.172	131.07
402.381	45.06
402.59	133.12
402.799	139.26
403.008	124.93
403.217	188.41
403.426	102.4
403.635	147.45
403.844	106.49
404.053	94.21
404.262	102.4
404.471	176.13
404.68	118.78
404.888	143.36
405.097	83.97
405.306	212.99
405.515	131.07
405.724	114.69
405.933	169.98
406.142	262.14
406.35	241.66
406.559	217.08
406.768	151.55
406.977	278.52
407.185	204.8
407.394	233.47
407.603	190.46
407.812	163.84
408.02	217.08
408.229	278.52
408.438	239.61
408.646	229.37
408.855	294.91
409.064	270.33
409.272	321.53
409.481	256
409.69	270.33
409.898	346.11
410.107	331.77
410.315	428.03
410.524	319.48
410.733	337.91
410.941	296.96
411.15	346.11
411.358	339.96
411.567	370.68
411.775	385.02
411.984	409.59
412.192	385.02
412.401	520.18
412.609	471.03
412.818	450.55
413.026	532.47
413.234	548.86
413.443	526.33
413.651	552.95
413.86	569.34
414.068	634.87
414.276	712.69
414.485	684.02
414.693	665.59
414.901	747.51
415.11	667.64
415.318	749.56
415.526	700.41
415.734	835.57
415.943	794.61
416.151	919.54
416.359	860.15
416.567	886.77
416.776	905.2
416.984	1017.84
417.192	1056.75
417.4	1003.5
417.608	1110
417.817	1064.94
418.025	1187.82
418.233	1224.69
418.441	1212.4
418.649	1124.33
418.857	1327.08
419.065	1425.39
419.273	1331.18
419.481	1419.24
419.689	1470.44
419.897	1531.88
420.105	1542.12
420.313	1540.07
420.521	1665
420.729	1679.33
420.937	1714.15
421.145	1810.4
421.353	1929.19
421.561	2011.11
421.769	1992.67
421.977	2107.36
422.185	2136.03
422.393	2207.71
422.601	2400.22
422.809	2265.05
423.017	2486.23
423.224	2408.41
423.432	2531.29
423.64	2613.21
423.848	2789.33
424.056	2779.09
424.263	2852.82
424.471	2858.96
424.679	3059.67
424.887	3213.26
425.094	3160.02
425.302	3280.85
425.51	3407.82
425.718	3489.74
425.925	3454.92
426.133	3635.14
426.341	3723.21
426.548	4202.43
426.756	4122.56
426.964	4005.83
427.171	4358.08
427.379	4315.07
427.586	4327.36
427.794	4544.44
428.001	4878.26
428.209	5003.19
428.417	4904.89
428.624	5302.19
428.832	5246.9
429.039	5253.04
429.247	5496.75
429.454	5767.08
429.662	6180.77
429.869	5754.79
430.076	6123.43
430.284	5926.82
430.491	6162.34
430.699	6760.34
430.906	6631.32
431.114	6592.41
431.321	6979.48
431.528	7085.97
431.736	7477.13
431.943	7989.13
432.15	7696.27
432.358	7677.83
432.565	8077.19
432.772	8136.58
432.979	8589.18
433.187	8642.43
433.394	8724.35
433.601	9473.9
433.808	9236.34
434.016	9449.33
434.223	9703.28
434.43	10196.84
434.637	10094.44
434.844	10528.61
435.052	10946.39
435.259	10852.19
435.466	10780.51
435.673	10977.11
435.88	11587.41
436.087	12195.65
436.294	11927.37
436.501	11853.64
436.708	12150.6
436.915	12517.18
437.122	13078.33
437.329	12906.3
437.537	13647.66
437.743	13821.74
437.95	13557.55
438.157	14163.75
438.364	14616.35
438.571	14737.18
438.778	14577.44
438.985	16162.57
439.192	15376.15
439.399	15949.58
439.606	15605.52
439.813	16586.5
440.02	17432.31
440.227	17319.67
440.433	16981.76
440.64	17698.55
440.847	17288.95
441.054	17860.34
441.261	19015.39
441.467	18607.84
441.674	19257.05
441.881	19777.23
442.088	20063.95
442.294	19750.61
442.501	20149.96
442.708	20711.11
442.914	21501.62
443.121	22503.08
443.328	21704.37
443.534	23297.69
443.741	22822.56
443.948	22585
444.154	23967.38
444.361	23926.42
444.568	23991.95
444.774	24149.65
444.981	24290.96
445.187	24950.4
445.394	26044.02
445.6	25947.76
445.807	28298.83
446.013	26943.08
446.22	27727.45
446.426	28649.03
446.633	28896.84
446.839	29953.59
447.046	28792.39
447.252	30139.96
447.459	30377.52
447.665	30838.31
447.871	31557.15
448.078	32509.46
448.284	31313.44
448.491	32294.42
448.697	33373.7
448.903	34016.76
449.11	34287.09
449.316	33744.38
449.522	34457.07
449.728	35212.77
449.935	36017.63
450.141	35274.21
450.347	35993.05
450.553	35319.27
450.76	36068.83
450.966	36834.77
451.172	36597.2
451.378	37332.42
451.584	36728.27
451.791	37635.52
451.997	37608.9
452.203	38055.36
452.409	38221.24
452.615	38254.01
452.821	36660.69
453.027	36687.31
453.233	38286.78
453.44	36959.69
453.646	37256.65
453.852	37205.45
454.058	37832.13
454.264	36623.83
454.47	38020.54
454.676	37297.61
454.882	38264.25
455.088	35280.36
455.294	35503.59
455.5	36146.65
455.705	36290.01
455.911	35026.41
456.117	34344.44
456.323	33983.99
456.529	32050.71
456.735	33574.4
456.941	32732.68
457.147	32097.81
457.352	31395.36
457.558	31049.25
457.764	31118.89
457.97	30422.58
458.176	29849.14
458.381	29986.36
458.587	28304.98
458.793	28266.06
458.999	27194.98
459.204	29161.03
459.41	28270.16
459.616	26293.87
459.821	26605.16
460.027	26039.92
460.233	25878.13
460.438	24678.02
460.644	24823.43
460.85	23623.32
461.055	23258.78
461.261	23336.6
461.466	21522.1
461.672	20944.58
461.878	22392.49
462.083	21006.02
462.289	20883.14
462.494	20676.29
462.7	19341.02
462.905	19027.68
463.111	19525.33
463.316	19777.23
463.522	19375.83
463.727	19259.1
463.932	19287.77
464.138	19244.76
464.343	19238.62
464.549	18458.34
464.754	19087.07
464.959	19148.51
465.165	18886.37
465.37	18165.48
465.575	17784.56
465.781	18583.27
465.986	18640.61
466.191	17686.26
466.397	17409.78
466.602	16684.8
466.807	17159.93
467.012	17473.27
467.218	17489.65
467.423	17096.44
467.628	17071.87
467.833	17835.76
468.038	17184.51
468.244	16731.9
468.449	17389.3
468.654	16844.54
468.859	16703.23
469.064	16621.31
469.269	15630.1
469.474	16162.57
469.679	16307.98
469.885	15812.37
470.09	16142.09
470.295	16178.95
470.5	15666.96
470.705	15669.01
470.91	15501.08
471.115	15425.3
471.32	15451.92
471.525	15335.19
471.73	15111.96
471.935	14911.26
472.139	14640.93
472.344	14831.39
472.549	14456.61
472.754	14589.73
472.959	14262.05
473.164	13952.81
473.369	13682.48
473.574	14116.65
473.778	14065.45
473.983	14036.78
474.188	13877.04
474.393	13424.44
474.598	13412.15
474.802	13428.53
475.007	13141.82
475.212	13123.38
475.417	12566.34
475.621	12666.69
475.826	12728.13
476.031	12314.44
476.235	12257.09
476.44	12312.39
476.645	12291.91
476.849	12193.61
477.054	12050.25
477.259	11822.92
477.463	11706.19
477.668	11575.12
477.872	11710.29
478.077	11396.95
478.282	11126.61
478.486	11093.85
478.691	11181.91
478.895	10987.35
479.1	11181.91
479.304	11073.37
479.509	10862.43
479.713	10747.74
479.918	10612.57
480.122	10479.46
480.326	10719.07
480.531	10473.31
480.735	10352.48
480.94	10362.72
481.144	10710.88
481.348	10168.16
481.553	10424.16
481.757	10035.05
481.961	10293.09
482.166	10483.55
482.37	10168.16
482.574	10307.43
482.778	10055.53
482.983	10526.56
483.187	10305.38
483.391	10282.85
483.595	10151.78
483.8	9959.27
484.004	10200.93
484.208	10280.8
484.412	10069.86
484.616	10211.17
484.821	10362.72
485.025	9953.13
485.229	10180.45
485.433	10108.77
485.637	10094.44
485.841	9971.56
486.045	10372.96
486.249	10241.89
486.453	10133.35
486.657	10125.16
486.861	10211.17
487.065	9969.51
487.269	10006.38
487.473	10018.66
487.677	10317.67
487.881	10389.35
488.085	10035.05
488.289	10366.82
488.493	10243.94
488.697	10248.04
488.901	10317.67
489.105	10243.94
489.309	10544.99
489.512	10221.41
489.716	10200.93
489.92	10319.71
490.124	10454.88
490.328	10514.27
490.531	10469.22
490.735	10313.57
490.939	10723.16
491.143	10477.41
491.346	10393.44
491.55	10911.58
491.754	10633.05
491.958	10710.88
492.161	10733.4
492.365	10815.32
492.569	10659.68
492.772	11034.46
492.976	11063.13
493.18	10932.06
493.383	10966.87
493.587	11390.8
493.79	11519.82
493.994	11210.58
494.197	11358.03
494.401	11235.16
494.605	11333.46
494.808	11978.57
495.012	11728.72
495.215	11867.98
495.419	11956.04
495.622	11882.31
495.825	11908.94
496.029	12244.81
496.232	12289.86
496.436	12244.81
496.639	12691.26
496.843	12347.2
497.046	13004.6
497.249	12916.54
497.453	12943.16
497.656	13111.1
497.859	13133.62
498.063	13459.25
498.266	13664.05
498.469	13700.91
498.673	13537.07
498.876	13971.24
499.079	14153.51
499.282	14223.14
499.485	14581.54
499.689	14354.21
499.892	14858.01
500.095	14733.09
500.298	15232.79
500.501	15238.94
500.705	15523.6
500.908	15591.19
501.111	15703.82
501.314	15853.33
501.517	16068.36
501.72	16207.62
501.923	16197.38
502.126	16760.58
502.329	17000.19
502.532	17276.66
502.735	17256.18
502.938	17522.42
503.141	17495.8
503.344	17913.58
503.547	17921.77
503.75	18118.38
503.953	18484.97
504.156	18527.97
504.359	18525.93
504.562	18921.18
504.765	19654.36
504.968	19412.7
505.17	19631.83
505.373	19496.66
505.576	20111.05
505.779	20360.91
505.982	20471.5
506.185	20883.14
506.387	21178.04
506.59	21358.27
506.793	21692.08
506.996	21497.53
507.198	22380.2
507.401	22122.16
507.604	22705.83
507.807	22963.87
508.009	23160.48
508.212	23086.75
508.415	23428.76
508.617	23516.83
508.82	23817.88
509.022	23803.54
509.225	24379.02
509.428	24581.77
509.63	24985.22
509.833	25151.1
510.035	25462.4
510.238	25349.76
510.44	25990.77
510.643	26363.5
510.845	26355.31
511.048	26562.15
511.25	27037.28
511.453	27299.42
511.655	28091.99
511.858	27702.87
512.06	27946.58
512.262	28481.1
512.465	28468.81
512.667	29238.85
512.87	29324.86
513.072	29189.7
513.274	29974.07
513.477	30150.2
513.679	30420.53
513.881	30916.14
514.084	30977.58
514.286	31002.15
514.488	31262.24
514.69	32118.29
514.893	32507.41
515.095	32491.02
515.297	32759.31
515.499	33019.4
515.701	33463.81
515.904	33773.05
516.106	34174.45
516.308	34283
516.51	34616.82
516.712	34643.44
516.914	35145.19
517.116	35839.45
517.318	35558.88
517.52	35808.73
517.722	35988.95
517.925	36750.8
518.127	36904.4
518.329	37068.23
518.531	37389.77
518.733	38008.25
518.935	38096.31
519.136	38067.64
519.338	38841.78
519.54	38311.35
519.742	39409.06
519.944	39085.48
520.146	40039.84
520.348	40146.33
520.55	40435.1
520.752	40566.17
520.954	41528.71
521.155	41235.85
521.357	41911.68
521.559	42061.18
521.761	42462.58
521.963	42530.17
522.164	42569.08
522.366	43081.07
522.568	42913.14
522.77	43724.13
522.971	44262.75
523.173	43619.69
523.375	43904.35
523.576	43863.39
523.778	44696.92
523.98	45094.22
524.181	45200.72
524.383	45270.35
524.584	45755.72
524.786	45694.28
524.988	45516.11
525.189	46204.22
525.391	46681.4
525.592	46716.22
525.794	47170.86
525.995	46970.16
526.197	46845.24
526.398	47166.77
526.6	47582.51
526.801	47461.68
527.003	47625.51
527.204	47486.25
527.406	48016.68
527.607	48416.03
527.808	48747.8
528.01	48084.26
528.211	48350.49
528.412	49153.3
528.614	49227.02
528.815	49030.42
529.016	49505.55
529.218	48934.17
529.419	49397.01
529.62	49775.88
529.822	49138.96
530.023	49532.17
530.224	49640.71
530.425	49523.98
530.626	49376.53
530.828	49050.9
531.029	50289.92
531.23	49802.5
531.431	49368.33
531.632	50341.12
531.833	50388.22
532.035	50322.69
532.236	50326.78
532.437	50427.13
532.638	49749.26
532.839	50640.12
533.04	50584.83
533.241	49863.94
533.442	50842.87
533.643	50478.33
533.844	50658.56
534.045	50803.96
534.246	49849.61
534.447	50879.74
534.648	50197.76
534.849	50703.61
535.05	50203.91
535.251	50586.88
535.451	50722.04
535.652	50806.01
535.853	50664.7
536.054	50836.73
536.255	50752.76
536.456	50152.71
536.657	51465.45
536.857	50971.89
537.058	50183.43
537.259	51236.08
537.46	50748.67
537.66	50588.92
537.861	50496.77
538.062	50437.37
538.263	50894.07
538.463	50607.36
538.664	50664.7
538.865	50988.28
539.065	50857.21
539.266	50269.44
539.466	51377.39
539.667	50224.39
539.868	51197.17
540.068	50613.5
540.269	50728.19
540.469	50869.5
540.67	50345.22
540.87	50423.04
541.071	50787.58
541.271	50869.5
541.472	50431.23
541.672	50427.13
541.873	50345.22
542.073	50337.02
542.274	51328.24
542.474	50769.15
542.675	50386.18
542.875	50922.74
543.075	50222.34
543.276	50040.07
543.476	51105.01
543.676	50414.85
543.877	50734.33
544.077	50801.91
544.277	50251.01
544.478	50226.43
544.678	50765.05
544.878	50382.08
545.078	50648.32
545.279	50156.8
545.479	50081.03
545.679	50365.7
545.879	50543.87
546.079	50384.13
546.28	50302.21
546.48	50111.75
546.68	50572.54
546.88	50631.93
547.08	50277.63
547.28	49933.57
547.48	49716.49
547.68	50230.53
547.88	50216.19
548.081	49968.39
548.281	50363.65
548.481	49919.24
548.681	50343.17
548.881	50173.19
549.081	49992.97
549.28	49958.15
549.48	50189.57
549.68	49935.62
549.88	50447.61
550.08	49696.01
550.28	49911.05
550.48	49870.09
550.68	50121.99
550.88	49937.67
551.08	50377.98
551.279	50033.92
551.479	49624.33
551.679	49933.57
551.879	49747.21
552.079	50064.64
552.278	49679.63
552.478	49722.63
552.678	50154.75
552.878	50224.39
553.077	49607.95
553.277	49550.6
553.477	50189.57
553.676	49601.8
553.876	50013.44
554.076	49233.17
554.275	49798.41
554.475	48930.07
554.674	49648.91
554.874	49370.38
555.074	49329.42
555.273	49556.75
555.473	49712.39
555.672	48864.53
555.872	49562.89
556.071	49614.09
556.271	49462.54
556.47	49173.78
556.67	48915.73
556.869	49317.14
557.068	49354
557.268	48964.88
557.467	49167.63
557.667	49405.2
557.866	48954.64
558.065	49042.71
558.265	48911.64
558.464	48524.57
558.663	48825.62
558.863	48594.2
559.062	49028.37
559.261	48434.46
559.461	49050.9
559.66	47977.76
559.859	48248.1
560.058	48270.62
560.258	48737.56
560.457	48135.46
560.656	48612.63
560.855	48082.21
561.054	48540.96
561.253	47637.8
561.453	48311.58
561.652	48237.86
561.851	48190.75
562.05	48026.92
562.249	47848.74
562.448	48510.24
562.647	47852.84
562.846	48123.17
563.045	47527.21
563.244	47215.92
563.443	47836.45
563.642	46863.67
563.841	47584.55
564.04	46789.94
564.239	47936.8
564.438	46847.29
564.637	47240.5
564.836	46734.65
565.035	46724.41
565.234	46837.05
565.432	46796.09
565.631	46470.46
565.83	46904.63
566.029	46804.28
566.228	46767.41
566.427	46306.62
566.625	46300.48
566.824	45923.65
567.023	47074.61
567.222	45829.44
567.42	46331.2
567.619	46400.83
567.818	45872.45
568.016	46171.46
568.215	45788.49
568.414	45346.12
568.612	45856.07
568.811	45385.04
569.01	45630.79
569.208	45421.9
569.407	45436.23
569.605	44995.92
569.804	45208.91
570.002	45088.08
570.201	45131.09
570.4	45014.35
570.598	44731.73
570.797	44643.67
570.995	44836.18
571.193	43896.16
571.392	44809.56
571.59	44234.08
571.789	44092.77
571.987	43928.93
572.186	44006.75
572.384	43783.52
572.582	44119.39
572.781	44346.72
572.979	43709.8
573.177	43808.1
573.376	44053.86
573.574	43230.57
573.772	43472.23
573.971	43357.55
574.169	43480.42
574.367	42548.6
574.565	43373.93
574.763	42847.6
574.962	43128.17
575.16	41964.93
575.358	43283.82
575.556	42702.2
575.754	43130.22
575.952	42239.36
576.151	42333.56
576.349	41844.1
576.547	41715.08
576.745	41821.57
576.943	42038.65
577.141	42106.24
577.339	42012.03
577.537	42061.18
577.735	41393.54
577.933	41137.55
578.131	41170.32
578.329	40840.59
578.527	41123.21
578.725	41196.94
578.923	40922.51
579.121	40975.76
579.319	41090.44
579.516	40875.41
579.714	40910.22
579.912	40576.4
580.11	40431
580.308	40275.35
580.506	40463.77
580.704	39732.64
580.901	40185.24
581.099	39896.48
581.297	39572.9
581.495	39622.05
581.692	39482.79
581.89	39816.61
582.088	39812.51
582.285	39312.81
582.483	39515.56
582.681	39277.99
582.878	39054.76
583.076	38536.63
583.274	39079.34
583.471	38561.2
583.669	38868.4
583.866	38708.66
584.064	38245.82
584.262	38032.83
584.459	38630.83
584.657	38088.12
584.854	38313.4
585.052	37721.54
585.249	38120.89
585.447	37967.29
585.644	37680.58
585.841	37590.47
586.039	37629.38
586.236	37256.65
586.434	37098.95
586.631	37354.95
586.828	37006.8
587.026	37021.13
587.223	36765.14
587.42	36687.31
587.618	36744.66
587.815	36718.03
588.012	36519.38
588.21	36236.76
588.407	36660.69
588.604	36361.69
588.801	36267.48
588.999	35876.32
589.196	36017.63
589.393	35972.57
589.59	35581.41
589.787	35847.64
589.984	35522.02
590.182	35091.94
590.379	35374.56
590.576	35085.8
590.773	35372.52
590.97	35231.21
591.167	35294.69
591.364	34827.76
591.561	34940.39
591.758	34915.82
591.955	34387.44
592.152	34958.83
592.349	34209.27
592.546	34360.82
592.743	34274.81
592.94	33822.2
593.137	34391.54
593.334	34104.82
593.531	33719.81
593.727	33838.59
593.924	33725.95
594.121	33457.67
594.318	33728
594.515	33148.42
594.712	33375.75
594.908	33089.03
595.105	33072.65
595.302	33140.23
595.499	33142.28
595.696	32906.76
595.892	32818.7
596.089	32808.46
596.286	33005.06
596.482	32527.89
596.679	32366.1
596.876	32433.68
597.072	32357.91
597.269	32517.65
597.466	31952.41
597.662	31940.12
597.859	31661.6
598.055	32046.61
598.252	31907.35
598.448	31749.66
598.645	31487.52
598.841	31413.79
599.038	31383.07
599.234	31290.91
599.431	30854.7
599.627	31043.11
599.824	31114.79
600.02	30807.59
600.217	31051.3
600.413	30283.31
600.609	30348.85
600.806	30336.56
601.002	30465.58
601.198	30187.06
601.395	30123.57
601.591	30117.43
601.787	30033.46
601.984	29857.34
602.18	29959.73
602.376	29720.12
602.572	29601.34
602.769	29679.16
602.965	29034.05
603.161	29638.2
603.357	29414.98
603.553	29175.36
603.75	29058.63
603.946	29167.17
604.142	28989
604.338	28794.44
604.534	28714.57
604.73	28550.73
604.926	28558.92
605.122	28646.99
605.318	28184.15
605.514	28161.62
605.71	28458.57
605.906	28245.58
606.102	27754.07
606.298	28511.82
606.494	28128.85
606.69	27774.55
606.886	28139.09
607.082	27782.74
607.278	27825.75
607.474	27391.58
607.67	27934.29
607.866	27254.37
608.062	27426.4
608.257	27059.81
608.453	27424.35
608.649	26949.22
608.845	27131.49
609.041	27072.1
609.236	27135.59
609.432	26752.62
609.628	26861.16
609.824	26631.79
610.019	26750.57
610.215	27002.47
610.411	26658.41
610.606	26728.04
610.802	26599.02
610.998	26361.45
611.193	26316.4
611.389	26218.1
611.584	26306.16
611.78	26148.47
611.976	26570.35
612.171	26087.03
612.367	26138.23
612.562	25972.34
612.758	25527.93
612.953	25654.9
613.149	26054.26
613.344	25816.69
613.539	25966.2
613.735	25839.22
613.93	25783.93
614.126	25788.02
614.321	25966.2
614.517	25857.65
614.712	25427.58
614.907	25390.72
615.103	25489.02
615.298	25319.04
615.493	25511.55
615.688	25122.43
615.884	25552.51
616.079	24936.07
616.274	25310.85
616.47	24940.16
616.665	24925.83
616.86	24731.27
617.055	24721.03
617.25	24505.99
617.445	24907.4
617.641	24559.24
617.836	24917.64
618.031	24106.64
618.226	24432.27
618.421	24325.77
618.616	24256.14
618.811	23690.9
619.006	24477.32
619.201	23684.76
619.396	24030.87
619.591	23682.71
619.786	23922.32
619.981	23228.06
620.176	23903.89
620.371	23258.78
620.566	23359.13
620.761	23336.6
620.956	23574.17
621.151	22836.9
621.346	23037.6
621.541	22732.45
621.735	22877.86
621.93	22339.24
622.125	22529.7
622.32	22329
622.515	22177.45
622.709	22202.03
622.904	21974.7
623.099	21763.76
623.294	21796.53
623.488	21845.68
623.683	21821.11
623.878	20911.81
624.072	21442.23
624.267	21380.79
624.462	21198.52
624.656	20864.71
624.851	21198.52
625.046	20639.43
625.24	20577.99
625.435	20442.82
625.629	20489.93
625.824	20377.29
626.018	20115.15
626.213	19648.21
626.407	19840.72
626.602	19660.5
626.796	19914.45
626.991	19717.84
627.185	19736.27
627.38	19381.98
627.574	19275.48
627.768	19164.89
627.963	19166.94
628.157	18939.62
628.352	19093.21
628.546	18620.13
628.74	18865.89
628.935	18695.91
629.129	18401
629.323	18394.86
629.517	18372.33
629.712	18491.11
629.906	18237.16
630.1	17825.52
630.294	17938.16
630.489	17622.77
630.683	18085.61
630.877	17381.11
631.071	17510.13
631.265	17667.83
631.459	17563.38
631.653	17331.96
631.848	17555.19
632.042	17221.37
632.236	16973.57
632.43	17172.22
632.624	17301.24
632.818	16682.75
633.012	16613.12
633.206	16828.16
633.4	16611.07
633.594	16219.91
633.788	16367.37
633.982	16516.87
634.176	16477.96
634.369	16369.41
634.563	16342.79
634.757	15976.2
634.951	15986.44
635.145	15591.19
635.339	16000.78
635.533	15558.42
635.726	15556.37
635.92	15367.96
636.114	15587.09
636.308	15359.77
636.501	15138.58
636.695	15077.15
636.889	15087.39
637.083	14841.63
637.276	14948.12
637.47	14657.31
637.664	14874.4
637.857	14540.58
638.051	14577.44
638.244	14608.16
638.438	14417.7
638.632	14251.81
638.825	14139.18
639.019	14274.34
639.212	13926.19
639.406	14114.6
639.599	14051.11
639.793	13811.5
639.986	14092.07
640.18	13797.17
640.373	13582.13
640.567	13369.14
640.76	13657.9
640.954	13451.06
641.147	13494.07
641.34	13242.17
641.534	13180.73
641.727	13156.15
641.92	13117.24
642.114	13018.94
642.307	13020.99
642.5	12764.99
642.694	12605.25
642.887	12691.26
643.08	12767.04
643.273	12674.88
643.467	12605.25
643.66	12492.61
643.853	12519.23
644.046	12025.67
644.239	12271.43
644.432	12087.11
644.626	12085.06
644.819	12027.72
645.012	11984.71
645.205	12089.16
645.398	11929.42
645.591	11784.01
645.784	11706.19
645.977	11464.53
646.17	11585.36
646.363	11544.4
646.556	11171.67
646.749	11294.55
646.942	11286.36
647.135	11177.81
647.328	11233.11
647.521	11183.96
647.714	11009.88
647.907	11063.13
648.099	10954.58
648.292	11112.28
648.485	10698.59
648.678	10694.49
648.871	10620.77
649.064	10569.57
649.256	10637.15
649.449	10588
649.642	10463.07
649.835	10362.72
650.027	10348.39
650.22	10334.05
650.413	10227.56
650.605	10110.82
650.798	10108.77
650.991	9906.02
651.183	9924.46
651.376	9838.44
651.568	9860.97
651.761	9914.22
651.954	9772.91
652.146	9908.07
652.339	9615.21
652.531	9613.17
652.724	9424.75
652.916	9488.24
653.109	9494.38
653.301	9342.83
653.494	9488.24
653.686	9260.91
653.879	9291.63
654.071	9025.4
654.263	9119.6
654.456	9185.14
654.648	9125.75
654.84	9060.21
655.033	8818.55
655.225	9066.36
655.417	8865.66
655.61	8877.94
655.802	8875.9
655.994	8626.04
656.186	8617.85
656.379	8568.7
656.571	8650.62
656.763	8566.65
656.955	8398.72
657.148	8382.34
657.34	8486.78
657.532	8150.92
657.724	8224.64
657.916	8195.97
658.108	8200.07
658.3	8167.3
658.492	7995.27
658.684	7896.97
658.876	7767.95
659.068	8220.55
659.26	7878.54
659.452	7864.2
659.644	7651.21
659.836	7524.24
660.028	7688.07
660.22	7671.69
660.412	7520.14
660.604	7499.66
660.796	7487.37
660.988	7481.23
661.18	7425.93
661.372	7450.51
661.563	7333.78
661.755	7350.16
661.947	7286.67
662.139	7176.08
662.331	7020.44
662.522	7063.44
662.714	6948.76
662.906	6995.86
663.097	6999.96
663.289	6795.16
663.481	6682.52
663.673	6805.4
663.864	6760.34
664.056	6786.97
664.247	6752.15
664.439	6563.74
664.631	6729.63
664.822	6580.12
665.014	6588.32
665.205	6487.97
665.397	6438.81
665.588	6516.64
665.78	6332.32
665.971	6348.7
666.163	6354.85
666.354	6225.82
666.546	6315.94
666.737	6082.47
666.929	6119.33
667.12	6072.23
667.311	6072.23
667.503	5844.9
667.694	6076.32
667.885	6088.61
668.077	6086.56
668.268	5898.15
668.459	5930.92
668.651	5795.75
668.842	5941.16
669.033	5844.9
669.224	5830.57
669.416	5666.73
669.607	5611.43
669.798	5689.26
669.989	5693.35
670.18	5623.72
670.371	5461.93
670.563	5543.85
670.754	5525.42
670.945	5623.72
671.136	5468.08
671.327	5443.5
671.518	5261.23
671.709	5384.11
671.9	5298.1
672.091	5263.28
672.282	5320.62
672.473	5195.7
672.664	5097.39
672.855	5164.98
673.046	5146.55
673.237	5365.68
673.428	5042.1
673.619	5068.72
673.809	5054.39
674	5113.78
674.191	4958.13
674.382	4988.85
674.573	4970.42
674.764	4882.36
674.954	4800.44
675.145	4888.5
675.336	4886.45
675.527	4874.17
675.717	4827.06
675.908	4693.94
676.099	4882.36
676.289	4984.76
676.48	4802.49
676.671	4859.83
676.861	4757.43
677.052	4616.12
677.243	4648.89
677.433	4648.89
677.624	4523.96
677.814	4558.78
678.005	4558.78
678.195	4718.52
678.386	4487.1
678.576	4564.92
678.767	4597.69
678.957	4493.24
679.148	4571.07
679.338	4501.44
679.529	4378.56
679.719	4489.15
679.909	4476.86
680.1	4378.56
680.29	4333.5
680.481	4333.5
680.671	4519.87
680.861	4390.84
681.052	4376.51
681.242	4403.13
681.432	4364.22
681.622	4288.45
681.813	4362.17
682.003	4370.37
682.193	4218.82
682.383	4294.59
682.573	4054.98
682.764	4233.15
682.954	4251.58
683.144	4288.45
683.334	4206.53
683.524	4341.69
683.714	4200.38
683.904	4263.87
684.094	4194.24
684.284	4044.74
684.474	4108.23
684.664	4095.94
684.854	4192.19
685.044	4104.13
685.234	4020.16
685.424	4024.26
685.614	4028.35
685.804	4149.18
685.994	4095.94
686.184	4059.07
686.374	4059.07
686.564	3868.61
686.753	4140.99
686.943	3893.19
687.133	3973.06
687.323	4036.55
687.513	3905.48
687.702	3737.54
687.892	3885
688.082	3803.08
688.272	3977.16
688.461	3837.89
688.651	3979.2
688.841	3801.03
689.03	3782.6
689.22	3737.54
689.41	3858.37
689.599	3717.06
689.789	3895.24
689.979	3817.41
690.168	3629
690.358	3760.07
690.547	3715.02
690.737	3653.58
690.926	3674.06
691.116	3608.52
691.305	3837.89
691.495	3485.64
691.684	3649.48
691.874	3553.23
692.063	3514.31
692.252	3581.9
692.442	3540.94
692.631	3456.97
692.82	3432.4
693.01	3434.44
693.199	3542.99
693.388	3432.4
693.578	3491.79
693.767	3479.5
693.956	3497.93
694.146	3413.96
694.335	3459.02
694.524	3495.88
694.713	3489.74
694.902	3450.83
695.092	3473.35
695.281	3317.71
695.47	3348.43
695.659	3416.01
695.848	3383.24
696.037	3360.72
696.226	3416.01
696.415	3424.2
696.604	3391.44
696.793	3215.31
696.982	3379.15
697.171	3211.21
697.36	3317.71
697.549	3166.16
697.738	3198.93
697.927	3256.27
698.116	3198.93
698.305	3207.12
698.494	3209.17
698.683	3321.81
698.872	3252.17
699.061	3190.74
699.25	3190.74
699.438	3225.55
699.627	3319.76
699.816	3155.92
700.005	3088.34
700.193	3108.82
700.382	3096.53
700.571	3215.31
700.76	3106.77
700.948	3114.96
701.137	3024.85
701.326	3057.62
701.514	3047.38
701.703	3119.06
701.892	3096.53
702.08	3082.19
702.269	3067.86
702.457	2973.65
702.646	2985.94
702.834	2990.03
703.023	2967.51
703.212	3051.47
703.4	3033.04
703.589	2949.07
703.777	2957.27
703.965	2920.4
704.154	2973.65
704.342	2914.26
704.531	2772.95
704.719	2965.46
704.907	2828.24
705.096	2811.86
705.284	2932.69
705.472	3039.19
705.661	2953.17
705.849	2926.55
706.037	2922.45
706.226	2811.86
706.414	2820.05
706.602	2858.96
706.79	2899.92
706.979	2920.4
707.167	2920.4
707.355	2834.39
707.543	2850.77
707.731	2818.01
707.919	2904.02
708.107	2838.48
708.296	2781.14
708.484	2762.71
708.672	2629.59
708.86	2813.91
709.048	2795.48
709.236	2695.13
709.424	2713.56
709.612	2777.05
709.8	2717.65
709.988	2662.36
710.176	2705.37
710.364	2719.7
710.551	2703.32
710.739	2701.27
710.927	2727.89
711.115	2754.52
711.303	2744.28
711.491	2615.26
711.679	2613.21
711.866	2615.26
712.054	2496.47
712.242	2553.82
712.43	2629.59
712.617	2625.5
712.805	2506.71
712.993	2447.32
713.181	2506.71
713.368	2588.63
713.556	2465.75
713.744	2457.56
713.931	2670.55
714.119	2519
714.306	2568.15
714.494	2523.1
714.682	2516.95
714.869	2484.19
715.057	2492.38
715.244	2461.66
715.432	2473.95
715.619	2482.14
715.807	2437.08
715.994	2473.95
716.182	2428.89
716.369	2514.91
716.556	2467.8
716.744	2400.22
716.931	2342.88
717.119	2443.23
717.306	2404.32
717.493	2418.65
717.681	2344.92
717.868	2387.93
718.055	2373.6
718.242	2351.07
718.43	2365.4
718.617	2383.84
718.804	2363.36
718.991	2342.88
719.179	2398.17
719.366	2363.36
719.553	2389.98
719.74	2408.41
719.927	2267.1
720.114	2301.92
720.301	2318.3
720.488	2342.88
720.676	2402.27
720.863	2281.44
721.05	2359.26
721.237	2342.88
721.424	2260.96
721.611	2353.12
721.798	2287.58
721.985	2269.15
722.172	2244.57
722.358	2207.71
722.545	2228.19
722.732	2213.85
722.919	2215.9
723.106	2215.9
723.293	2258.91
723.48	2197.47
723.667	2181.09
723.853	2269.15
724.04	2291.68
724.227	2181.09
724.414	2068.45
724.6	2195.42
724.787	2269.15
724.974	2187.23
725.161	2119.65
725.347	2072.54
725.534	2031.58
725.72	2269.15
725.907	2119.65
726.094	2191.33
726.28	2133.98
726.467	2131.94
726.653	2095.07
726.84	2142.18
727.027	2199.52
727.213	2166.75
727.4	2072.54
727.586	2011.11
727.773	2068.45
727.959	2050.02
728.145	2039.78
728.332	2082.78
728.518	2039.78
728.705	1894.37
728.891	2129.89
729.077	2064.35
729.264	2068.45
729.45	1992.67
729.636	2023.39
729.823	2107.36
730.009	1984.48
730.195	2074.59
730.382	2070.5
730.568	2000.87
730.754	1978.34
730.94	2015.2
731.126	2076.64
731.313	2066.4
731.499	2023.39
731.685	1990.63
731.871	2039.78
732.057	2041.82
732.243	1910.75
732.429	1869.8
732.615	1933.28
732.801	1982.43
732.987	1894.37
733.173	1990.63
733.359	1992.67
733.545	1998.82
733.731	1925.09
733.917	1947.62
734.103	1900.52
734.289	1943.52
734.475	1884.13
734.661	1986.53
734.847	1961.95
735.033	1859.56
735.219	1943.52
735.404	1855.46
735.59	1927.14
735.776	1877.99
735.962	1933.28
736.148	1892.32
736.333	1898.47
736.519	1869.8
736.705	1804.26
736.89	1810.4
737.076	1734.63
737.262	1810.4
737.447	1802.21
737.633	1845.22
737.819	1894.37
738.004	1843.17
738.19	1789.92
738.375	1812.45
738.561	1843.17
738.747	1929.19
738.932	1726.44
739.118	1804.26
739.303	1839.08
739.489	1812.45
739.674	1669.09
739.859	1761.25
740.045	1665
740.23	1816.55
740.416	1765.35
740.601	1824.74
740.786	1722.34
740.972	1646.57
741.157	1732.58
741.342	1662.95
741.528	1730.53
741.713	1615.85
741.898	1697.77
742.084	1650.66
742.269	1632.23
742.454	1703.91
742.639	1531.88
742.824	1570.79
743.01	1728.49
743.195	1714.15
743.38	1544.17
743.565	1544.17
743.75	1613.8
743.935	1560.55
744.12	1650.66
744.305	1595.37
744.49	1578.98
744.675	1615.85
744.86	1581.03
745.045	1527.78
745.23	1525.74
745.415	1499.11
745.6	1533.93
745.785	1476.59
745.97	1615.85
746.155	1564.65
746.34	1603.56
746.525	1609.7
746.71	1441.77
746.895	1468.39
747.079	1482.73
747.264	1437.67
747.449	1447.91
747.634	1509.35
747.819	1316.84
748.003	1390.57
748.188	1353.71
748.373	1527.78
748.557	1441.77
748.742	1458.15
748.927	1417.19
749.111	1423.34
749.296	1376.23
749.481	1306.6
749.665	1310.7
749.85	1196.01
750.034	1433.58
750.219	1318.89
750.404	1257.45
750.588	1255.4
750.773	1249.26
750.957	1288.17
751.141	1228.78
751.326	1370.09
751.51	1171.44
751.695	1159.15
751.879	1292.27
752.064	1245.17
752.248	1222.64
752.432	1337.32
752.617	1236.97
752.801	1187.82
752.985	1212.4
753.17	1302.51
753.354	1081.33
753.538	1179.63
753.722	1130.48
753.907	1107.95
754.091	1243.12
754.275	1105.9
754.459	1140.72
754.643	1081.33
754.828	1148.91
755.012	1189.87
755.196	1101.81
755.38	1163.25
755.564	1132.53
755.748	1077.23
755.932	1023.98
756.116	1085.42
756.3	1089.52
756.484	1075.18
756.668	1069.04
756.852	1048.56
757.036	1019.89
757.22	985.07
757.404	1095.66
757.588	1122.29
757.772	1064.94
757.956	1085.42
758.14	1042.42
758.323	974.83
758.507	1013.74
758.691	1056.75
758.875	974.83
759.059	1040.37
759.242	952.31
759.426	991.22
759.61	1015.79
759.794	864.24
759.977	917.49
760.161	1066.99
760.345	942.07
760.528	966.64
760.712	995.31
760.895	1007.6
761.079	907.25
761.263	929.78
761.446	901.11
761.63	872.43
761.813	892.91
761.997	892.91
762.18	839.67
762.364	837.62
762.547	874.48
762.731	872.43
762.914	888.82
763.098	892.91
763.281	827.38
763.464	827.38
763.648	841.72
763.831	811
764.015	782.32
764.198	901.11
764.381	788.47
764.564	872.43
764.748	837.62
764.931	860.15
765.114	829.43
765.297	817.14
765.481	772.08
765.664	784.37
765.847	804.85
766.03	884.72
766.213	819.19
766.397	774.13
766.58	729.08
766.763	811
766.946	767.99
767.129	796.66
767.312	679.93
767.495	811
767.678	778.23
767.861	737.27
768.044	823.28
768.227	720.88
768.41	737.27
768.593	761.84
768.776	753.65
768.959	788.47
769.142	737.27
769.324	856.05
769.507	765.94
769.69	712.69
769.873	792.56
770.056	761.84
770.239	741.36
770.421	770.04
770.604	737.27
770.787	704.5
770.97	679.93
771.152	684.02
771.335	761.84
771.518	675.83
771.7	739.32
771.883	839.67
772.066	712.69
772.248	714.74
772.431	763.89
772.613	679.93
772.796	724.98
772.978	671.73
773.161	681.97
773.343	669.69
773.526	743.41
773.708	657.4
773.891	630.77
774.073	690.17
774.256	622.58
774.438	649.21
774.621	700.41
774.803	606.2
774.985	577.53
775.168	655.35
775.35	577.53
775.532	653.3
775.715	593.91
775.897	696.31
776.079	509.94
776.261	694.26
776.444	585.72
776.626	548.86
776.808	614.39
776.99	618.49
777.173	589.81
777.355	581.62
777.537	600.05
777.719	643.06
777.901	602.1
778.083	665.59
778.265	571.38
778.447	598.01
778.629	511.99
778.811	487.42
778.993	620.53
779.175	653.3
779.357	532.47
779.539	491.51
779.721	501.75
779.903	491.51
780.085	509.94
780.267	534.52
780.449	595.96
780.631	528.38
780.812	583.67
780.994	536.57
781.176	483.32
781.358	528.38
781.54	503.8
781.721	503.8
781.903	534.52
782.085	499.7
782.267	475.13
782.448	503.8
782.63	485.37
782.812	557.05
782.993	489.46
783.175	491.51
783.357	411.64
783.538	395.26
783.72	458.75
783.901	499.7
784.083	511.99
784.264	464.89
784.446	466.94
784.627	425.98
784.809	413.69
784.99	458.75
785.172	460.79
785.353	389.11
785.535	442.36
785.716	401.4
785.897	354.3
786.079	419.83
786.26	397.31
786.441	327.67
786.623	362.49
786.804	360.44
786.985	356.35
787.167	436.22
787.348	411.64
787.529	425.98
787.71	442.36
787.891	376.83
788.073	356.35
788.254	385.02
788.435	380.92
788.616	352.25
788.797	303.1
788.978	299
789.159	317.44
789.34	434.17
789.522	350.2
789.703	305.15
789.884	346.11
790.065	329.72
790.246	290.81
790.427	335.87
790.607	413.69
790.788	354.3
790.969	354.3
791.15	352.25
791.331	323.58
791.512	368.63
791.693	212.99
791.874	393.21
792.054	331.77
792.235	346.11
792.416	327.67
792.597	352.25
792.778	360.44
792.958	262.14
793.139	331.77
793.32	288.76
793.5	286.72
793.681	356.35
793.862	251.9
794.042	360.44
794.223	247.8
794.404	274.43
794.584	278.52
794.765	253.95
794.945	270.33
795.126	284.67
795.306	262.14
795.487	364.54
795.667	210.94
795.848	307.2
796.028	262.14
796.209	296.96
796.389	364.54
796.57	278.52
796.75	276.48
796.93	270.33
797.111	241.66
797.291	303.1
797.471	313.34
797.652	167.93
797.832	272.38
798.012	245.76
798.192	192.51
798.373	241.66
798.553	239.61
798.733	264.19
798.913	253.95
799.093	270.33
799.274	215.04
799.454	225.28
799.634	247.8
799.814	210.94
799.994	237.56
800.174	282.62
800.354	194.56
800.534	182.27
800.714	190.46
800.894	190.46
801.074	151.55
801.254	174.08
801.434	176.13
801.614	212.99
801.794	229.37
801.974	815.09
802.154	182.27
802.334	180.22
802.514	245.76
802.693	182.27
802.873	198.65
803.053	256
803.233	217.08
803.413	153.6
803.592	206.84
803.772	163.84
803.952	194.56
804.131	157.69
804.311	239.61
804.491	143.36
804.67	212.99
804.85	155.65
805.03	237.56
805.209	241.66
805.389	237.56
805.568	131.07
805.748	122.88
805.928	122.88
806.107	231.42
806.287	163.84
806.466	116.73
806.646	196.61
806.825	122.88
807.004	217.08
807.184	126.97
807.363	206.84
807.543	151.55
807.722	110.59
807.901	174.08
808.081	215.04
808.26	155.65
808.439	204.8
808.619	139.26
808.798	163.84
808.977	147.45
809.156	188.41
809.336	229.37
809.515	200.7
809.694	172.03
809.873	184.32
810.052	147.45
810.231	204.8
810.411	204.8
810.59	172.03
810.769	149.5
810.948	114.69
811.127	135.17
811.306	196.61
811.485	155.65
811.664	251.9
811.843	198.65
812.022	108.54
812.201	172.03
812.38	90.11
812.559	141.31
812.737	139.26
812.916	88.06
813.095	141.31
813.274	118.78
813.453	147.45
813.632	184.32
813.811	212.99
813.989	90.11
814.168	104.45
814.347	32.77
814.526	90.11
814.704	204.8
814.883	135.17
815.062	196.61
815.24	141.31
815.419	96.25
815.598	147.45
815.776	163.84
815.955	165.89
816.133	126.97
816.312	192.51
816.49	57.34
816.669	108.54
816.847	106.49
817.026	86.01
817.204	139.26
817.383	32.77
817.561	165.89
817.74	98.3
817.918	20.48
818.097	77.82
818.275	147.45
818.453	178.17
818.632	108.54
818.81	143.36
818.988	77.82
819.167	98.3
819.345	86.01
819.523	98.3
819.701	114.69
819.879	108.54
820.058	151.55
820.236	92.16
820.414	98.3
820.592	71.68
820.77	47.1
820.948	28.67
821.127	47.1
821.305	22.53
821.483	30.72
821.661	106.49
821.839	67.58
822.017	135.17
822.195	137.21
822.373	96.25
822.551	141.31
822.729	98.3
822.907	49.15
823.085	51.2
823.262	116.73
823.44	77.82
823.618	81.92
823.796	157.69
823.974	65.54
824.152	88.06
824.329	65.54
824.507	147.45
824.685	49.15
824.863	139.26
825.04	71.68
825.218	137.21
825.396	40.96
825.574	110.59
825.751	116.73
825.929	106.49
826.107	55.3
826.284	55.3
826.462	104.45
826.639	81.92
826.817	51.2
826.994	73.73
827.172	116.73
827.349	100.35
827.527	94.21
827.704	100.35
827.882	108.54
828.059	40.96
828.237	59.39
828.414	92.16
828.591	108.54
828.769	34.82
828.946	75.77
829.124	81.92
829.301	98.3
829.478	24.58
829.655	131.07
829.833	131.07
830.01	24.58
830.187	16.38
830.364	147.45
830.542	59.39
830.719	172.03
830.896	147.45
831.073	61.44
831.25	110.59
831.427	81.92
831.604	40.96
831.782	24.58
831.959	180.22
832.136	57.34
832.313	57.34
832.49	55.3
832.667	24.58
832.844	86.01
833.021	49.15
833.198	73.73
833.374	81.92
833.551	40.96
833.728	79.87
833.905	145.41
834.082	122.88
834.259	57.34
834.436	129.02
834.612	24.58
834.789	116.73
834.966	28.67
835.143	38.91
835.319	71.68
835.496	40.96
835.673	24.58
835.85	86.01
836.026	34.82
836.203	100.35
836.38	122.88
836.556	43.01
836.733	73.73
836.909	131.07
837.086	126.97
837.262	96.25
837.439	83.97
837.616	45.06
837.792	45.06
837.968	8.19
838.145	73.73
838.321	53.25
838.498	59.39
838.674	73.73
838.851	16.38
839.027	69.63
839.203	45.06
839.38	73.73
839.556	65.54
839.732	147.45
839.909	100.35
840.085	65.54
840.261	36.86
840.437	49.15
840.614	81.92
840.79	116.73
840.966	63.49
841.142	98.3
841.318	59.39
841.494	73.73
841.671	0
841.847	114.69
842.023	22.53
842.199	73.73
842.375	51.2
842.551	18.43
842.727	36.86
842.903	86.01
843.079	45.06
843.255	8.19
843.431	16.38
843.607	69.63
843.783	-18.43
843.959	-14.34
844.134	45.06
844.31	83.97
844.486	61.44
844.662	49.15
844.838	16.38
845.013	81.92
845.189	106.49
845.365	57.34
845.541	-12.29
845.716	124.93
845.892	86.01
846.068	-16.38
846.244	-6.14
846.419	32.77
846.595	32.77
846.77	65.54
846.946	-6.14
847.122	22.53
847.297	34.82
847.473	49.15
847.648	26.62
847.824	57.34
847.999	-20.48
848.175	-8.19
848.35	94.21
848.526	57.34
848.701	14.34
848.876	71.68
849.052	-22.53
849.227	104.45
849.403	67.58
849.578	57.34
849.753	26.62
849.929	65.54
850.104	26.62
850.279	69.63
850.454	2.05
850.63	57.34
850.805	32.77
850.98	8.19
851.155	57.34
851.33	-18.43
851.505	18.43
851.681	75.77
851.856	26.62
852.031	40.96
852.206	40.96
852.381	22.53
852.556	55.3
852.731	126.97
852.906	-20.48
853.081	73.73
853.256	81.92
853.431	36.86
853.606	98.3
853.781	61.44
853.956	0
854.131	8.19
854.305	34.82
854.48	73.73
854.655	24.58
854.83	65.54
855.005	40.96
855.18	67.58
855.354	40.96
855.529	49.15
855.704	16.38
855.879	110.59
856.053	-38.91
856.228	71.68
856.403	-14.34
856.577	73.73
856.752	4.1
856.926	75.77
857.101	24.58
857.276	0
857.45	43.01
857.625	4.1
857.799	-45.06
857.974	40.96
858.148	75.77
858.323	51.2
858.497	2.05
858.672	34.82
858.846	53.25
859.02	100.35
859.195	24.58
859.369	26.62
859.543	32.77
859.718	49.15
859.892	16.38
860.066	34.82
860.241	4.1
860.415	0
860.589	-24.58
860.763	65.54
860.938	38.91
861.112	49.15
861.286	0
861.46	59.39
861.634	8.19
861.808	73.73
861.982	38.91
862.157	30.72
862.331	8.19
862.505	-81.92
862.679	0
862.853	-8.19
863.027	63.49
863.201	63.49
863.375	32.77
863.549	-4.1
863.722	102.4
863.896	75.77
864.07	86.01
864.244	-28.67
864.418	-65.53
864.592	-22.53
864.766	57.34
864.939	-30.72
865.113	-12.29
865.287	24.58
865.461	14.34
865.634	51.2
865.808	45.06
865.982	32.77
866.156	-16.38
866.329	26.62
866.503	2.05
866.676	18.43
866.85	-12.29
867.024	-28.67
867.197	16.38
867.371	4.1
867.544	18.43
867.718	10.24
867.891	100.35
868.065	-49.15
868.238	55.3
868.412	-34.82
868.585	53.25
868.759	-4.1
868.932	-28.67
869.105	-4.1
869.279	-8.19
869.452	-28.67
869.625	10.24
869.799	24.58
869.972	-32.77
870.145	-32.77
870.319	4.1
870.492	-6.14
870.665	-24.58
870.838	40.96
871.011	-36.86
871.185	0
871.358	12.29
871.531	8.19
871.704	-18.43
871.877	116.73
872.05	49.15
872.223	32.77
872.396	51.2
872.569	-8.19
872.742	-28.67
872.915	-32.77
873.088	-32.77
873.261	-36.86
873.434	-57.34
873.607	4.1
873.78	77.82
873.953	-57.34
874.126	-65.53
874.299	-14.34
874.471	-45.06
874.644	106.49
874.817	0
874.99	73.73
875.163	0
875.335	90.11
875.508	106.49
875.681	16.38
875.853	-38.91
876.026	-36.86
876.199	53.25
876.371	-16.38
876.544	6.14
876.717	8.19
876.889	8.19
877.062	43.01
877.234	2.05
877.407	36.86
877.579	-22.53
877.752	8.19
877.924	49.15
878.097	32.77
878.269	43.01
878.442	2.05
878.614	-57.34
878.786	73.73
878.959	-6.14
879.131	45.06
879.303	2.05
879.476	-90.11
879.648	59.39
879.82	47.1
879.993	8.19
880.165	0
880.337	-49.15
880.509	30.72
880.681	-12.29
880.854	-12.29
881.026	45.06
881.198	106.49
881.37	53.25
881.542	32.77
881.714	65.54
881.886	49.15
882.058	20.48
882.23	59.39
882.402	16.38
882.574	79.87
882.746	24.58
882.918	-6.14
883.09	8.19
883.262	34.82
883.434	49.15
883.606	-40.96
883.778	40.96
883.95	51.2
884.122	45.06
884.293	30.72
884.465	0
884.637	-16.38
884.809	6.14
884.98	106.49
885.152	-22.53
885.324	32.77
885.496	16.38
885.667	-2.05
885.839	16.38
886.011	45.06
886.182	-8.19
886.354	10.24
886.525	2.05
886.697	26.62
886.869	-49.15
887.04	16.38
887.212	55.3
887.383	57.34
887.555	-4.1
887.726	-30.72
887.897	-18.43
888.069	-67.58
888.24	-73.73
888.412	-26.62
888.583	61.44
888.754	40.96
888.926	0
889.097	-43.01
889.268	-24.58
889.44	-24.58
889.611	-73.73
889.782	-55.3
889.953	-81.92
890.125	-61.44
890.296	-16.38
890.467	-65.53
890.638	-88.06
890.809	65.54
890.98	-10.24
891.151	40.96
891.323	8.19
891.494	-55.3
891.665	-18.43
891.836	90.11
892.007	57.34
892.178	-49.15
892.349	-59.39
892.52	-20.48
892.691	8.19
892.862	-32.77
893.032	-24.58
893.203	-24.58
893.374	-4.1
893.545	86.01
893.716	-51.2
893.887	57.34
894.057	16.38
894.228	10.24
894.399	-28.67
894.57	14.34
894.74	32.77
894.911	32.77
895.082	-32.77
895.253	28.67
895.423	2.05
895.594	-8.19
895.764	79.87
895.935	59.39
896.106	4.1
896.276	53.25
896.447	-6.14
896.617	20.48
896.788	-6.14
896.958	-57.34
897.129	-10.24
897.299	-86.01
897.47	73.73
897.64	-16.38
897.81	4.1
897.981	-20.48
898.151	26.62
898.322	49.15
898.492	-24.58
898.662	20.48
898.832	-12.29
899.003	-30.72
899.173	-12.29
899.343	53.25
899.513	-32.77
