Data from USB4F104151__8__14-42-33-469.txt Node

Date: Thu Mar 13 14:42:33 EDT 2025
User: louis
Spectrometer: USB4F10415
Trigger mode: 4
Integration Time (sec): 2.000000E-2
Scans to average: 1
Electric dark correction enabled: true
Nonlinearity correction enabled: false
Boxcar width: 0
XAxis mode: Wavelengths
Number of Pixels in Spectrum: 3648
>>>>>Begin Spectral Data<<<<<
178.204	-87.04
178.424	-87.04
178.644	-87.04
178.864	-82.94
179.084	-82.94
179.304	3.07
179.524	37.89
179.744	-13.31
179.964	-64.51
180.184	-37.89
180.404	-19.46
180.624	29.7
180.844	13.31
181.064	31.74
181.283	-11.26
181.503	-29.7
181.723	60.42
181.943	-37.89
182.163	-9.22
182.383	-11.26
182.602	70.65
182.822	64.51
183.042	109.57
183.262	37.89
183.482	3.07
183.701	56.32
183.921	37.89
184.141	84.99
184.361	19.46
184.58	80.89
184.8	23.55
185.02	109.57
185.239	-37.89
185.459	78.85
185.679	60.42
185.898	27.65
186.118	13.31
186.338	-17.41
186.557	70.65
186.777	-93.18
186.997	-95.23
187.216	19.46
187.436	95.23
187.655	13.31
187.875	52.22
188.095	5.12
188.314	46.08
188.534	93.18
188.753	-9.22
188.973	54.27
189.192	76.8
189.412	39.94
189.631	68.61
189.851	-33.79
190.07	37.89
190.29	78.85
190.509	11.26
190.729	80.89
190.948	97.28
191.168	62.46
191.387	76.8
191.607	21.5
191.826	13.31
192.045	19.46
192.265	21.5
192.484	89.09
192.704	-60.42
192.923	-29.7
193.142	52.22
193.362	-33.79
193.581	84.99
193.8	37.89
194.02	29.7
194.239	-3.07
194.458	21.5
194.678	5.12
194.897	11.26
195.116	23.55
195.335	19.46
195.555	109.57
195.774	1.02
195.993	101.37
196.212	-13.31
196.432	31.74
196.651	76.8
196.87	54.27
197.089	62.46
197.308	27.65
197.528	44.03
197.747	13.31
197.966	35.84
198.185	93.18
198.404	70.65
198.623	44.03
198.842	27.65
199.062	-21.5
199.281	105.47
199.5	-33.79
199.719	31.74
199.938	39.94
200.157	37.89
200.376	84.99
200.595	44.03
200.814	80.89
201.033	35.84
201.252	-25.6
201.471	13.31
201.69	84.99
201.909	95.23
202.128	56.32
202.347	76.8
202.566	62.46
202.785	46.08
203.004	-27.65
203.223	76.8
203.442	50.18
203.661	29.7
203.879	48.13
204.098	33.79
204.317	-29.7
204.536	68.61
204.755	89.09
204.974	56.32
205.193	11.26
205.411	107.52
205.63	37.89
205.849	46.08
206.068	-21.5
206.287	31.74
206.505	11.26
206.724	19.46
206.943	89.09
207.162	-13.31
207.381	-11.26
207.599	-54.27
207.818	74.75
208.037	-44.03
208.255	15.36
208.474	-29.7
208.693	3.07
208.911	84.99
209.13	3.07
209.349	50.18
209.567	-21.5
209.786	19.46
210.005	111.61
210.223	-31.74
210.442	-50.18
210.661	3.07
210.879	44.03
211.098	93.18
211.316	52.22
211.535	31.74
211.753	78.85
211.972	-1.02
212.191	-29.7
212.409	64.51
212.628	56.32
212.846	-1.02
213.065	97.28
213.283	68.61
213.502	56.32
213.72	54.27
213.938	130.05
214.157	125.95
214.375	33.79
214.594	87.04
214.812	74.75
215.031	-109.57
215.249	3.07
215.467	17.41
215.686	39.94
215.904	58.37
216.122	13.31
216.341	99.33
216.559	11.26
216.778	91.13
216.996	31.74
217.214	37.89
217.432	60.42
217.651	84.99
217.869	46.08
218.087	-35.84
218.306	19.46
218.524	-5.12
218.742	-44.03
218.96	17.41
219.179	74.75
219.397	44.03
219.615	78.85
219.833	60.42
220.051	44.03
220.27	76.8
220.488	-1.02
220.706	78.85
220.924	91.13
221.142	29.7
221.36	72.7
221.578	-9.22
221.796	29.7
222.015	-29.7
222.233	80.89
222.451	80.89
222.669	7.17
222.887	-48.13
223.105	89.09
223.323	19.46
223.541	-52.22
223.759	39.94
223.977	44.03
224.195	60.42
224.413	13.31
224.631	35.84
224.849	-23.55
225.067	91.13
225.285	-3.07
225.503	-3.07
225.721	-9.22
225.939	52.22
226.157	46.08
226.375	119.81
226.592	44.03
226.81	-21.5
227.028	64.51
227.246	138.24
227.464	39.94
227.682	11.26
227.9	9.22
228.117	-1.02
228.335	-1.02
228.553	5.12
228.771	78.85
228.989	15.36
229.206	-1.02
229.424	46.08
229.642	91.13
229.86	68.61
230.077	5.12
230.295	-21.5
230.513	-3.07
230.731	29.7
230.948	52.22
231.166	11.26
231.384	35.84
231.601	-21.5
231.819	19.46
232.037	-11.26
232.254	27.65
232.472	23.55
232.689	64.51
232.907	62.46
233.125	23.55
233.342	21.5
233.56	7.17
233.777	41.98
233.995	-33.79
234.213	89.09
234.43	74.75
234.648	37.89
234.865	52.22
235.083	60.42
235.3	-21.5
235.518	121.85
235.735	60.42
235.953	68.61
236.17	-17.41
236.388	37.89
236.605	37.89
236.822	64.51
237.04	3.07
237.257	70.65
237.475	-13.31
237.692	109.57
237.909	54.27
238.127	5.12
238.344	35.84
238.562	5.12
238.779	1.02
238.996	-9.22
239.214	-7.17
239.431	15.36
239.648	93.18
239.865	-19.46
240.083	80.89
240.3	23.55
240.517	3.07
240.735	-27.65
240.952	48.13
241.169	68.61
241.386	35.84
241.603	52.22
241.821	44.03
242.038	44.03
242.255	37.89
242.472	-64.51
242.689	101.37
242.907	44.03
243.124	19.46
243.341	-29.7
243.558	60.42
243.775	-5.12
243.992	-54.27
244.209	60.42
244.426	113.66
244.643	107.52
244.86	-17.41
245.078	-11.26
245.295	-3.07
245.512	111.61
245.729	-21.5
245.946	101.37
246.163	76.8
246.38	19.46
246.597	27.65
246.814	56.32
247.031	25.6
247.248	19.46
247.464	27.65
247.681	109.57
247.898	70.65
248.115	-29.7
248.332	-35.84
248.549	35.84
248.766	68.61
248.983	25.6
249.2	-5.12
249.417	76.8
249.633	23.55
249.85	11.26
250.067	66.56
250.284	68.61
250.501	-5.12
250.717	-46.08
250.934	-29.7
251.151	13.31
251.368	11.26
251.585	44.03
251.801	3.07
252.018	35.84
252.235	15.36
252.451	35.84
252.668	-21.5
252.885	80.89
253.102	31.74
253.318	27.65
253.535	-15.36
253.752	-19.46
253.968	7.17
254.185	3.07
254.401	-13.31
254.618	-39.94
254.835	21.5
255.051	39.94
255.268	-1.02
255.484	76.8
255.701	60.42
255.917	62.46
256.134	44.03
256.351	68.61
256.567	27.65
256.784	-11.26
257	31.74
257.217	25.6
257.433	15.36
257.65	35.84
257.866	-1.02
258.082	19.46
258.299	-62.46
258.515	5.12
258.732	-17.41
258.948	23.55
259.165	44.03
259.381	23.55
259.597	50.18
259.814	44.03
260.03	-31.74
260.246	17.41
260.463	103.42
260.679	39.94
260.895	95.23
261.112	56.32
261.328	3.07
261.544	48.13
261.761	138.24
261.977	-17.41
262.193	-11.26
262.409	95.23
262.626	27.65
262.842	41.98
263.058	-27.65
263.274	44.03
263.49	-3.07
263.707	97.28
263.923	35.84
264.139	19.46
264.355	48.13
264.571	78.85
264.787	52.22
265.004	-3.07
265.22	-27.65
265.436	3.07
265.652	-62.46
265.868	11.26
266.084	13.31
266.3	99.33
266.516	15.36
266.732	27.65
266.948	-13.31
267.164	123.9
267.38	3.07
267.596	48.13
267.812	37.89
268.028	-21.5
268.244	68.61
268.46	46.08
268.676	-41.98
268.892	33.79
269.108	-11.26
269.324	80.89
269.54	76.8
269.756	76.8
269.972	-13.31
270.188	46.08
270.403	5.12
270.619	46.08
270.835	23.55
271.051	27.65
271.267	-3.07
271.483	-29.7
271.698	99.33
271.914	-60.42
272.13	-3.07
272.346	25.6
272.562	-46.08
272.777	78.85
272.993	31.74
273.209	52.22
273.425	27.65
273.64	7.17
273.856	31.74
274.072	76.8
274.287	-5.12
274.503	13.31
274.719	3.07
274.934	70.65
275.15	-13.31
275.366	44.03
275.581	46.08
275.797	15.36
276.012	105.47
276.228	-13.31
276.444	9.22
276.659	41.98
276.875	60.42
277.09	-17.41
277.306	41.98
277.521	48.13
277.737	50.18
277.952	68.61
278.168	-17.41
278.383	-5.12
278.599	15.36
278.814	27.65
279.03	-11.26
279.245	64.51
279.461	35.84
279.676	89.09
279.892	1.02
280.107	13.31
280.322	-37.89
280.538	64.51
280.753	44.03
280.969	21.5
281.184	56.32
281.399	72.7
281.615	15.36
281.83	82.94
282.045	19.46
282.26	68.61
282.476	-37.89
282.691	111.61
282.906	27.65
283.122	31.74
283.337	-46.08
283.552	54.27
283.767	-17.41
283.983	19.46
284.198	19.46
284.413	84.99
284.628	-23.55
284.843	37.89
285.058	11.26
285.274	60.42
285.489	-9.22
285.704	31.74
285.919	48.13
286.134	-5.12
286.349	-19.46
286.564	-60.42
286.779	29.7
286.995	84.99
287.21	7.17
287.425	19.46
287.64	23.55
287.855	89.09
288.07	-74.75
288.285	138.24
288.5	37.89
288.715	54.27
288.93	29.7
289.145	21.5
289.36	115.71
289.575	52.22
289.79	68.61
290.004	19.46
290.219	95.23
290.434	76.8
290.649	68.61
290.864	33.79
291.079	35.84
291.294	21.5
291.509	-11.26
291.724	95.23
291.938	52.22
292.153	19.46
292.368	13.31
292.583	72.7
292.798	70.65
293.012	89.09
293.227	35.84
293.442	52.22
293.657	68.61
293.871	46.08
294.086	25.6
294.301	72.7
294.516	50.18
294.73	5.12
294.945	15.36
295.16	21.5
295.374	52.22
295.589	72.7
295.804	5.12
296.018	27.65
296.233	31.74
296.447	74.75
296.662	60.42
296.877	95.23
297.091	17.41
297.306	3.07
297.52	46.08
297.735	111.61
297.949	80.89
298.164	52.22
298.378	60.42
298.593	27.65
298.807	21.5
299.022	56.32
299.236	31.74
299.451	-11.26
299.665	25.6
299.88	68.61
300.094	56.32
300.309	95.23
300.523	54.27
300.737	-1.02
300.952	84.99
301.166	39.94
301.381	54.27
301.595	-21.5
301.809	31.74
302.024	52.22
302.238	-60.42
302.452	54.27
302.667	15.36
302.881	56.32
303.095	60.42
303.309	68.61
303.524	74.75
303.738	58.37
303.952	52.22
304.166	35.84
304.381	103.42
304.595	109.57
304.809	134.14
305.023	29.7
305.237	-29.7
305.452	31.74
305.666	93.18
305.88	68.61
306.094	50.18
306.308	17.41
306.522	52.22
306.736	-13.31
306.95	3.07
307.164	84.99
307.379	19.46
307.593	142.33
307.807	3.07
308.021	21.5
308.235	89.09
308.449	35.84
308.663	19.46
308.877	52.22
309.091	103.42
309.305	5.12
309.519	68.61
309.733	76.8
309.947	-74.75
310.161	52.22
310.374	105.47
310.588	5.12
310.802	21.5
311.016	27.65
311.23	50.18
311.444	23.55
311.658	11.26
311.872	70.65
312.085	29.7
312.299	101.37
312.513	78.85
312.727	58.37
312.941	68.61
313.154	5.12
313.368	46.08
313.582	103.42
313.796	23.55
314.009	60.42
314.223	39.94
314.437	64.51
314.651	39.94
314.864	78.85
315.078	35.84
315.292	44.03
315.505	-19.46
315.719	46.08
315.933	68.61
316.146	58.37
316.36	41.98
316.573	21.5
316.787	62.46
317.001	95.23
317.214	-37.89
317.428	95.23
317.641	-31.74
317.855	44.03
318.068	-21.5
318.282	44.03
318.495	115.71
318.709	60.42
318.922	5.12
319.136	74.75
319.349	35.84
319.563	105.47
319.776	27.65
319.99	13.31
320.203	60.42
320.417	27.65
320.63	39.94
320.843	101.37
321.057	101.37
321.27	31.74
321.483	19.46
321.697	5.12
321.91	-5.12
322.124	23.55
322.337	37.89
322.55	52.22
322.763	9.22
322.977	11.26
323.19	-31.74
323.403	3.07
323.617	29.7
323.83	84.99
324.043	37.89
324.256	21.5
324.469	-48.13
324.683	62.46
324.896	52.22
325.109	13.31
325.322	23.55
325.535	93.18
325.748	11.26
325.962	58.37
326.175	-1.02
326.388	48.13
326.601	97.28
326.814	23.55
327.027	19.46
327.24	64.51
327.453	-46.08
327.666	80.89
327.879	29.7
328.092	31.74
328.305	52.22
328.518	3.07
328.731	19.46
328.944	-13.31
329.157	70.65
329.37	19.46
329.583	60.42
329.796	56.32
330.009	-5.12
330.222	97.28
330.435	35.84
330.648	37.89
330.861	27.65
331.073	56.32
331.286	9.22
331.499	19.46
331.712	46.08
331.925	60.42
332.138	78.85
332.35	27.65
332.563	3.07
332.776	5.12
332.989	3.07
333.202	87.04
333.414	1.02
333.627	7.17
333.84	37.89
334.053	-11.26
334.265	52.22
334.478	52.22
334.691	52.22
334.903	-13.31
335.116	39.94
335.329	21.5
335.541	52.22
335.754	56.32
335.966	60.42
336.179	68.61
336.392	35.84
336.604	62.46
336.817	31.74
337.029	27.65
337.242	33.79
337.454	56.32
337.667	35.84
337.88	78.85
338.092	78.85
338.305	60.42
338.517	-21.5
338.729	60.42
338.942	27.65
339.154	33.79
339.367	-29.7
339.579	46.08
339.792	-33.79
340.004	66.56
340.217	23.55
340.429	56.32
340.641	-44.03
340.854	19.46
341.066	35.84
341.278	39.94
341.491	70.65
341.703	31.74
341.915	70.65
342.128	27.65
342.34	13.31
342.552	31.74
342.764	-13.31
342.977	103.42
343.189	44.03
343.401	-15.36
343.613	-27.65
343.826	-21.5
344.038	-52.22
344.25	27.65
344.462	3.07
344.674	7.17
344.886	21.5
345.099	62.46
345.311	95.23
345.523	76.8
345.735	-9.22
345.947	13.31
346.159	19.46
346.371	-5.12
346.583	-21.5
346.795	68.61
347.007	60.42
347.219	44.03
347.431	-11.26
347.643	89.09
347.855	70.65
348.067	19.46
348.279	37.89
348.491	25.6
348.703	-13.31
348.915	5.12
349.127	5.12
349.339	64.51
349.551	76.8
349.763	84.99
349.975	76.8
350.187	44.03
350.399	48.13
350.61	5.12
350.822	-1.02
351.034	78.85
351.246	3.07
351.458	56.32
351.669	31.74
351.881	13.31
352.093	-5.12
352.305	44.03
352.517	39.94
352.728	46.08
352.94	5.12
353.152	58.37
353.363	3.07
353.575	15.36
353.787	68.61
353.999	68.61
354.21	44.03
354.422	21.5
354.633	50.18
354.845	46.08
355.057	35.84
355.268	44.03
355.48	-11.26
355.692	-3.07
355.903	89.09
356.115	7.17
356.326	-50.18
356.538	52.22
356.749	-11.26
356.961	37.89
357.172	-21.5
357.384	-37.89
357.595	60.42
357.807	89.09
358.018	54.27
358.23	5.12
358.441	171.01
358.653	60.42
358.864	-1.02
359.075	3.07
359.287	19.46
359.498	15.36
359.709	37.89
359.921	46.08
360.132	78.85
360.344	13.31
360.555	-21.5
360.766	35.84
360.977	-3.07
361.189	54.27
361.4	-5.12
361.611	27.65
361.823	35.84
362.034	44.03
362.245	-5.12
362.456	72.7
362.667	109.57
362.879	21.5
363.09	37.89
363.301	89.09
363.512	27.65
363.723	39.94
363.935	-23.55
364.146	27.65
364.357	68.61
364.568	-7.17
364.779	46.08
364.99	109.57
365.201	72.7
365.412	-9.22
365.623	-54.27
365.834	107.52
366.045	93.18
366.256	76.8
366.467	19.46
366.678	19.46
366.889	48.13
367.1	-54.27
367.311	105.47
367.522	39.94
367.733	35.84
367.944	35.84
368.155	21.5
368.366	62.46
368.577	23.55
368.788	58.37
368.999	-54.27
369.209	113.66
369.42	60.42
369.631	78.85
369.842	37.89
370.053	9.22
370.264	-9.22
370.474	13.31
370.685	44.03
370.896	-21.5
371.107	156.67
371.317	37.89
371.528	-17.41
371.739	48.13
371.95	60.42
372.16	27.65
372.371	-17.41
372.582	60.42
372.792	29.7
373.003	11.26
373.214	101.37
373.424	60.42
373.635	-13.31
373.846	105.47
374.056	107.52
374.267	128
374.477	48.13
374.688	21.5
374.898	35.84
375.109	48.13
375.319	3.07
375.53	80.89
375.74	58.37
375.951	-5.12
376.161	105.47
376.372	46.08
376.582	13.31
376.793	-29.7
377.003	46.08
377.214	46.08
377.424	11.26
377.635	60.42
377.845	-5.12
378.055	21.5
378.266	-29.7
378.476	-13.31
378.686	60.42
378.897	105.47
379.107	54.27
379.317	89.09
379.528	-9.22
379.738	54.27
379.948	27.65
380.158	70.65
380.369	31.74
380.579	148.48
380.789	27.65
380.999	99.33
381.21	82.94
381.42	64.51
381.63	-15.36
381.84	64.51
382.05	-5.12
382.261	123.9
382.471	80.89
382.681	35.84
382.891	60.42
383.101	35.84
383.311	54.27
383.521	-5.12
383.731	50.18
383.941	48.13
384.151	7.17
384.361	52.22
384.571	70.65
384.781	-29.7
384.991	21.5
385.201	134.14
385.411	150.53
385.621	123.9
385.831	19.46
386.041	3.07
386.251	3.07
386.461	87.04
386.671	-27.65
386.881	37.89
387.091	44.03
387.301	5.12
387.511	56.32
387.72	105.47
387.93	9.22
388.14	56.32
388.35	-13.31
388.56	62.46
388.769	27.65
388.979	-13.31
389.189	7.17
389.399	138.24
389.609	-27.65
389.818	101.37
390.028	54.27
390.238	54.27
390.447	46.08
390.657	44.03
390.867	31.74
391.076	31.74
391.286	46.08
391.496	60.42
391.705	-11.26
391.915	64.51
392.125	95.23
392.334	29.7
392.544	109.57
392.753	60.42
392.963	-9.22
393.172	60.42
393.382	121.85
393.591	119.81
393.801	84.99
394.01	70.65
394.22	80.89
394.429	41.98
394.639	27.65
394.848	125.95
395.058	76.8
395.267	33.79
395.477	128
395.686	44.03
395.895	27.65
396.105	111.61
396.314	64.51
396.524	68.61
396.733	-60.42
396.942	95.23
397.152	56.32
397.361	109.57
397.57	82.94
397.78	5.12
397.989	48.13
398.198	21.5
398.407	134.14
398.617	-27.65
398.826	107.52
399.035	19.46
399.244	54.27
399.453	27.65
399.663	117.76
399.872	78.85
400.081	105.47
400.29	64.51
400.499	52.22
400.708	46.08
400.917	48.13
401.127	109.57
401.336	-5.12
401.545	136.19
401.754	103.42
401.963	37.89
402.172	-5.12
402.381	44.03
402.59	168.96
402.799	93.18
403.008	62.46
403.217	181.25
403.426	56.32
403.635	56.32
403.844	80.89
404.053	130.05
404.262	33.79
404.471	191.49
404.68	105.47
404.888	78.85
405.097	78.85
405.306	146.43
405.515	78.85
405.724	121.85
405.933	168.96
406.142	150.53
406.35	128
406.559	76.8
406.768	152.57
406.977	119.81
407.185	89.09
407.394	183.29
407.603	56.32
407.812	171.01
408.02	181.25
408.229	168.96
408.438	109.57
408.646	128
408.855	130.05
409.064	160.77
409.272	158.72
409.481	242.68
409.69	240.64
409.898	234.49
410.107	185.34
410.315	222.2
410.524	177.15
410.733	175.1
410.941	201.72
411.15	220.16
411.358	162.81
411.567	281.6
411.775	224.25
411.984	214.01
412.192	332.79
412.401	273.4
412.609	271.36
412.818	314.36
413.026	285.69
413.234	343.03
413.443	334.84
413.651	371.71
413.86	322.56
414.068	443.39
414.276	363.51
414.485	357.37
414.693	498.68
414.901	412.67
415.11	451.58
415.318	453.63
415.526	398.33
415.734	420.86
415.943	478.2
416.151	502.78
416.359	515.06
416.567	588.79
416.776	576.5
416.984	605.17
417.192	582.65
417.4	543.74
417.608	558.07
417.817	537.59
418.025	687.09
418.233	695.29
418.441	723.96
418.649	664.57
418.857	818.16
419.065	789.49
419.273	674.81
419.481	830.45
419.689	859.12
419.897	832.5
420.105	895.99
420.313	969.71
420.521	963.57
420.729	994.29
420.937	1002.48
421.145	1108.98
421.353	1016.82
421.561	1133.55
421.769	1096.69
421.977	1184.75
422.185	1221.61
422.393	1330.16
422.601	1321.96
422.809	1436.65
423.017	1348.59
423.224	1405.93
423.432	1543.14
423.64	1485.8
423.848	1666.02
424.056	1493.99
424.263	1674.21
424.471	1627.11
424.679	1672.17
424.887	1698.79
425.094	1944.55
425.302	1932.26
425.51	1842.15
425.718	1940.45
425.925	2026.47
426.133	2089.95
426.341	2122.72
426.548	2415.58
426.756	2257.89
426.964	2321.37
427.171	2454.49
427.379	2513.88
427.586	2560.98
427.794	2710.49
428.001	2821.08
428.209	2925.52
428.417	2870.23
428.624	3197.9
428.832	2993.11
429.039	3042.26
429.247	3054.55
429.454	3353.55
429.662	3478.47
429.869	3320.78
430.076	3525.58
430.284	3384.27
430.491	3595.21
430.699	3771.33
430.906	3767.24
431.114	3738.57
431.321	4004.8
431.528	4084.67
431.736	4289.47
431.943	4385.73
432.15	4250.56
432.358	4256.7
432.565	4828.09
432.772	4563.9
432.979	4819.89
433.187	4885.43
433.394	5004.21
433.601	5313.45
433.808	5329.84
434.016	5254.06
434.223	5503.92
434.43	6007.72
434.637	5766.06
434.844	6226.85
435.052	6169.51
435.259	6081.44
435.466	6151.07
435.673	6159.27
435.88	6454.17
436.087	6687.64
436.294	6914.97
436.501	6826.9
436.708	6779.8
436.915	7195.54
437.122	7435.15
437.329	7424.91
437.537	7490.45
437.743	7832.46
437.95	7588.75
438.157	8031.11
438.364	8391.55
438.571	8336.26
438.778	8438.66
438.985	9202.55
439.192	8672.12
439.399	9055.09
439.606	9055.09
439.813	9350
440.02	9905
440.227	9696.11
440.433	9597.81
440.64	9933.67
440.847	9847.66
441.054	10165.09
441.261	10808.16
441.467	10287.97
441.674	10816.35
441.881	11676.49
442.088	11184.98
442.294	11195.22
442.501	11496.27
442.708	11758.41
442.914	11893.58
443.121	12804.92
443.328	12385.09
443.534	13224.76
443.741	12675.9
443.948	12430.15
444.154	13568.82
444.361	13544.24
444.568	13390.64
444.774	13579.06
444.981	13511.47
445.187	14095.14
445.394	14560.03
445.6	14471.97
445.807	15991.56
446.013	15188.76
446.22	15432.47
446.426	16239.37
446.633	16411.4
446.839	16841.47
447.046	15938.32
447.252	17191.67
447.459	16995.07
447.665	17036.03
447.871	17588.98
448.078	18506.47
448.284	17588.98
448.491	18215.66
448.697	18809.57
448.903	18971.36
449.11	19364.57
449.316	19034.85
449.522	19167.96
449.728	19909.33
449.935	19620.56
450.141	19854.03
450.347	20189.9
450.553	19778.26
450.76	20132.56
450.966	20697.8
451.172	20468.42
451.378	21076.67
451.584	20589.25
451.791	20914.88
451.997	21002.94
452.203	21338.81
452.409	21596.85
452.615	21502.65
452.821	20439.75
453.027	20495.05
453.233	21273.28
453.44	20767.43
453.646	20681.41
453.852	21002.94
454.058	21066.43
454.264	20441.8
454.47	21125.82
454.676	20218.57
454.882	21408.44
455.088	19215.07
455.294	20019.92
455.5	20040.4
455.705	20056.78
455.911	19333.85
456.117	18930.4
456.323	18703.07
456.529	17758.96
456.735	18658.02
456.941	18186.99
457.147	17765.1
457.352	17337.08
457.558	17156.86
457.764	17378.04
457.97	17031.93
458.176	16421.64
458.381	16575.24
458.587	15561.49
458.793	15674.13
458.999	14744.35
459.204	15977.23
459.41	15375.13
459.616	14512.93
459.821	14512.93
460.027	14619.42
460.233	14082.86
460.438	13493.04
460.644	13806.38
460.85	13108.02
461.055	12761.92
461.261	12786.49
461.466	12110.66
461.672	11553.62
461.878	12493.63
462.083	11434.83
462.289	11377.49
462.494	11070.3
462.7	10851.16
462.905	10584.93
463.111	10824.54
463.316	11008.86
463.522	10562.4
463.727	10400.61
463.932	10693.47
464.138	10359.65
464.343	10564.45
464.549	10218.34
464.754	10783.58
464.959	10419.04
465.165	10478.43
465.37	9796.46
465.575	9730.92
465.781	10144.61
465.986	9993.06
466.191	9788.27
466.397	9646.96
466.602	8944.5
466.807	9386.86
467.012	9675.63
467.218	9479.02
467.423	9245.55
467.628	9427.82
467.833	9646.96
468.038	9448.3
468.244	8881.02
468.449	9499.5
468.654	9122.68
468.859	9139.06
469.064	8948.6
469.269	8854.39
469.474	8735.61
469.679	8891.26
469.885	8686.46
470.09	8799.1
470.295	8592.25
470.5	8389.5
470.705	8694.65
470.91	8452.99
471.115	8452.99
471.32	8506.24
471.525	8291.2
471.73	8147.84
471.935	8246.15
472.139	7887.75
472.344	7816.07
472.549	7850.89
472.754	7793.55
472.959	7672.71
473.164	7478.16
473.369	7607.18
473.574	7857.03
473.778	7539.6
473.983	7562.12
474.188	7549.84
474.393	7140.24
474.598	7084.95
474.802	7252.88
475.007	7166.87
475.212	7185.3
475.417	6847.38
475.621	6744.99
475.826	6843.29
476.031	6699.93
476.235	6658.97
476.44	6697.88
476.645	6493.08
476.849	6615.96
477.054	6611.87
477.259	6323.1
477.463	6368.16
477.668	6216.61
477.872	6300.58
478.077	6376.35
478.282	5960.61
478.486	6032.29
478.691	5876.65
478.895	5866.41
479.1	5936.04
479.304	5938.09
479.509	5901.22
479.713	5868.45
479.918	5737.38
480.122	5897.13
480.326	5753.77
480.531	5770.15
480.735	5622.7
480.94	5559.21
481.144	5862.31
481.348	5655.47
481.553	5508.01
481.757	5491.63
481.961	5637.03
482.166	5651.37
482.37	5583.79
482.574	5471.15
482.778	5458.86
482.983	5639.08
483.187	5702.57
483.391	5587.88
483.595	5381.04
483.8	5415.85
484.004	5606.31
484.208	5721
484.412	5686.19
484.616	5477.29
484.821	5579.69
485.025	5436.33
485.229	5501.87
485.433	5610.41
485.637	5567.4
485.841	5389.23
486.045	5467.05
486.249	5559.21
486.453	5381.04
486.657	5436.33
486.861	5575.59
487.065	5342.13
487.269	5471.15
487.473	5526.44
487.677	5538.73
487.881	5655.47
488.085	5491.63
488.289	5530.54
488.493	5436.33
488.697	5532.59
488.901	5557.16
489.105	5651.37
489.309	5467.05
489.512	5680.04
489.716	5532.59
489.92	5602.22
490.124	5493.68
490.328	5704.62
490.531	5649.32
490.735	5843.88
490.939	5827.5
491.143	5788.58
491.346	5667.75
491.55	5852.07
491.754	5770.15
491.958	5899.17
492.161	5743.53
492.365	5993.38
492.569	5772.2
492.772	5823.4
492.976	5768.1
493.18	6032.29
493.383	5936.04
493.587	6044.58
493.79	6159.27
493.994	6071.2
494.197	6214.56
494.401	6167.46
494.605	6192.03
494.808	6286.24
495.012	6321.06
495.215	6310.82
495.419	6495.13
495.622	6194.08
495.825	6532
496.029	6466.46
496.232	6560.67
496.436	6615.96
496.639	6691.74
496.843	6933.4
497.046	6824.86
497.249	6917.01
497.453	6962.07
497.656	6818.71
497.859	7033.75
498.063	7066.52
498.266	7224.21
498.469	7236.5
498.673	7189.39
498.876	7404.43
499.079	7285.65
499.282	7504.78
499.485	7900.04
499.689	7613.32
499.892	7920.52
500.095	7875.46
500.298	8012.68
500.501	7875.46
500.705	8080.26
500.908	8143.75
501.111	8514.43
501.314	8436.61
501.517	8508.29
501.72	8559.49
501.923	8620.92
502.126	8735.61
502.329	8928.12
502.532	9091.96
502.735	9061.24
502.938	9132.92
503.141	9302.9
503.344	9186.16
503.547	9448.3
503.75	9452.4
503.953	9522.03
504.156	9661.29
504.359	9892.71
504.562	9925.48
504.765	10191.72
504.968	10314.59
505.17	10365.79
505.373	10341.22
505.576	10654.56
505.779	10734.43
505.982	10795.87
506.185	10918.75
506.387	11072.34
506.59	11234.13
506.793	11565.9
506.996	11271
507.198	11778.89
507.401	11629.39
507.604	11799.37
507.807	11934.54
508.009	12108.62
508.212	12112.71
508.415	12389.19
508.617	12467.01
508.82	12548.93
509.022	12473.15
509.225	12806.97
509.428	12768.06
509.63	12888.89
509.833	13220.66
510.035	13425.46
510.238	13599.54
510.44	13556.53
510.643	13734.7
510.845	13814.57
511.048	13921.07
511.25	14129.96
511.453	14121.77
511.655	14756.64
511.858	14650.14
512.06	14744.35
512.262	14711.58
512.465	15106.84
512.667	15233.82
512.87	15502.1
513.072	15213.34
513.274	15803.15
513.477	15858.45
513.679	15901.45
513.881	16214.79
514.084	16196.36
514.286	15989.52
514.488	16517.89
514.69	16808.7
514.893	17031.93
515.095	16972.54
515.297	17287.93
515.499	17267.45
515.701	17525.49
515.904	17615.6
516.106	17793.78
516.308	18037.48
516.51	18533.09
516.712	18338.54
516.914	18483.94
517.116	18711.27
517.318	18856.67
517.52	19188.44
517.722	19112.67
517.925	19450.58
518.127	19626.71
518.329	19647.19
518.531	19688.15
518.733	20107.98
518.935	20255.43
519.136	20294.35
519.338	20554.44
519.54	20441.8
519.742	20738.76
519.944	21031.62
520.146	21271.23
520.348	21574.33
520.55	21598.9
520.752	21654.2
520.954	22039.22
521.155	21877.43
521.357	22330.03
521.559	22430.38
521.761	22809.25
521.963	22684.33
522.164	23132.83
522.366	23022.24
522.568	23046.82
522.77	23489.18
522.971	23849.62
523.173	23384.73
523.375	24093.33
523.576	23939.73
523.778	23784.09
523.98	24801.93
524.181	24748.68
524.383	24603.27
524.584	24652.42
524.786	24910.47
524.988	24773.25
525.189	25389.69
525.391	25561.72
525.592	25260.67
525.794	25393.79
525.995	25854.58
526.197	25592.44
526.398	25782.9
526.6	26133.11
526.801	25846.39
527.003	26028.66
527.204	26380.91
527.406	26681.96
527.607	26333.81
527.808	26776.17
528.01	26403.44
528.211	26636.91
528.412	27177.57
528.614	26888.81
528.815	27134.56
529.016	27396.7
529.218	26813.03
529.419	27015.78
529.62	27345.5
529.822	27517.53
530.023	27212.38
530.224	27165.28
530.425	27656.79
530.626	27159.14
530.828	27349.6
531.029	28064.34
531.23	27581.02
531.431	27691.61
531.632	27904.6
531.833	27591.26
532.035	27560.54
532.236	28054.1
532.437	28103.25
532.638	27865.69
532.839	28209.75
533.04	28275.28
533.241	27845.21
533.442	28387.92
533.643	27863.64
533.844	27894.36
534.045	28314.19
534.246	27920.98
534.447	28238.42
534.648	27785.82
534.849	28648.01
535.05	27947.61
535.251	28019.28
535.451	28090.96
535.652	28349.01
535.853	28193.36
536.054	28248.66
536.255	28717.64
536.456	27994.71
536.657	28459.6
536.857	28332.62
537.058	28142.16
537.259	28543.56
537.46	28133.97
537.66	28244.56
537.861	28088.92
538.062	28355.15
538.263	28101.2
538.463	28340.82
538.664	27943.51
538.865	28349.01
539.065	28623.44
539.266	28103.25
539.466	28521.04
539.667	28043.86
539.868	28654.15
540.068	28625.48
540.269	28471.89
540.469	28281.42
540.67	28240.47
540.87	28455.5
541.071	28295.76
541.271	28531.28
541.472	28168.79
541.672	28281.42
541.873	28260.94
542.073	27908.69
542.274	28488.27
542.474	28387.92
542.675	28133.97
542.875	28615.24
543.075	28007
543.276	27912.79
543.476	28463.69
543.676	28111.44
543.877	28445.26
544.077	28170.83
544.277	28224.08
544.478	28142.16
544.678	28058.2
544.878	28295.76
545.078	28469.84
545.279	28086.87
545.479	27521.63
545.679	28174.93
545.879	27988.56
546.079	28148.31
546.28	28273.23
546.48	27849.3
546.68	28377.68
546.88	28383.82
547.08	28301.9
547.28	28158.55
547.48	27888.21
547.68	28234.32
547.88	27974.23
548.081	28244.56
548.281	28058.2
548.481	28113.49
548.681	28170.83
548.881	28416.59
549.081	28195.41
549.28	28211.79
549.48	28031.57
549.68	28099.16
549.88	28598.86
550.08	27943.51
550.28	28109.4
550.48	27867.73
550.68	28058.2
550.88	27798.1
551.08	27800.15
551.279	27832.92
551.479	27777.62
551.679	28076.63
551.879	28050
552.079	28066.39
552.278	28080.72
552.478	27902.55
552.678	28025.43
552.878	27959.89
553.077	27802.2
553.277	27781.72
553.477	28039.76
553.676	27722.33
553.876	27773.53
554.076	27847.26
554.275	27691.61
554.475	27609.69
554.674	27800.15
554.874	27621.98
555.074	27583.07
555.273	27591.26
555.473	27730.52
555.672	27644.51
555.872	27667.03
556.071	27501.15
556.271	27837.02
556.47	27767.38
556.67	27411.04
556.869	27202.14
557.068	27509.34
557.268	27478.62
557.467	27445.85
557.667	27378.27
557.866	27429.47
558.065	27380.32
558.265	27236.96
558.464	26890.85
558.663	27644.51
558.863	26819.17
559.062	27236.96
559.261	26778.22
559.461	27193.95
559.66	26712.68
559.859	26923.62
560.058	26657.39
560.258	26761.83
560.457	26612.33
560.656	26786.41
560.855	26657.39
561.054	26917.48
561.253	26538.6
561.453	26796.65
561.652	26815.08
561.851	26702.44
562.05	26290.8
562.249	26010.23
562.448	26421.87
562.647	26303.09
562.846	26282.61
563.045	26012.28
563.244	26100.34
563.443	26255.98
563.642	25584.25
563.841	25961.08
564.04	25799.29
564.239	25780.85
564.438	25553.53
564.637	25920.12
564.836	26229.36
565.035	25488
565.234	25436.8
565.432	25715.32
565.631	25373.31
565.83	25660.02
566.029	25543.29
566.228	24969.86
566.427	25336.45
566.625	24980.1
566.824	24840.84
567.023	25174.66
567.222	24752.77
567.42	25014.91
567.619	24828.55
567.818	24881.8
568.016	24998.53
568.215	24914.56
568.414	24621.7
568.612	24754.82
568.811	24427.15
569.01	24885.89
569.208	24423.05
569.407	24234.64
569.605	24173.2
569.804	24662.66
570.002	23931.54
570.201	24185.49
570.4	24224.4
570.598	24081.04
570.797	24029.84
570.995	23954.07
571.193	23761.56
571.392	23919.25
571.59	23480.99
571.789	23763.61
571.987	23407.26
572.186	23736.98
572.384	23423.64
572.582	23517.85
572.781	23569.05
572.979	22942.37
573.177	23243.42
573.376	23034.53
573.574	23212.7
573.772	23016.1
573.971	22977.19
574.169	22643.37
574.367	22878.88
574.565	22751.91
574.763	22448.81
574.962	22770.34
575.16	22487.72
575.358	22426.28
575.556	22061.74
575.754	22794.92
575.952	22256.3
576.151	22385.32
576.349	22297.26
576.547	22092.46
576.745	22278.83
576.943	22186.67
577.141	21815.99
577.339	21777.08
577.537	21570.23
577.735	21899.95
577.933	21656.25
578.131	21670.58
578.329	21924.53
578.527	21623.48
578.725	21639.86
578.923	21451.45
579.121	21344.95
579.319	21265.08
579.516	21627.57
579.714	21099.2
579.912	21113.53
580.11	21103.29
580.308	20941.5
580.506	20996.8
580.704	20599.49
580.901	20978.37
581.099	20941.5
581.297	20753.09
581.495	20820.67
581.692	20828.87
581.89	20533.96
582.088	20941.5
582.285	20337.35
582.483	20611.78
582.681	20001.49
582.878	20103.89
583.076	19948.24
583.274	20333.26
583.471	19907.28
583.669	20216.52
583.866	19878.61
584.064	20073.17
584.262	19886.8
584.459	20003.53
584.657	19548.89
584.854	19886.8
585.052	19602.13
585.249	19651.28
585.447	19538.65
585.644	19274.46
585.841	19563.22
586.039	19430.1
586.236	19505.88
586.434	19352.28
586.631	19450.58
586.828	19196.64
587.026	19086.04
587.223	19016.41
587.42	18963.17
587.618	19436.25
587.815	19106.52
588.012	18787.04
588.21	18858.72
588.407	18836.19
588.604	18744.03
588.801	18610.92
588.999	18543.33
589.196	18416.36
589.393	18698.98
589.59	18406.12
589.787	18377.45
589.984	18385.64
590.182	18129.64
590.379	18199.27
590.576	18148.08
590.773	18168.55
590.97	17994.48
591.167	18324.2
591.364	17863.41
591.561	18025.2
591.758	17787.63
591.955	17644.27
592.152	18039.53
592.349	17474.29
592.546	17591.03
592.743	17724.15
592.94	17218.3
593.137	17552.12
593.334	17902.32
593.531	17156.86
593.727	17457.91
593.924	17345.27
594.121	17111.8
594.318	17228.54
594.515	17142.52
594.712	17060.6
594.908	16894.72
595.105	16843.52
595.302	16857.85
595.499	17085.18
595.696	16870.14
595.892	16823.04
596.089	16657.15
596.286	16757.5
596.482	16591.62
596.679	16511.75
596.876	16712.45
597.072	16333.57
597.269	16544.52
597.466	16239.37
597.662	16206.6
597.859	16415.49
598.055	16157.45
598.252	16184.07
598.448	16157.45
598.645	16012.04
598.841	15901.45
599.038	15962.89
599.234	15979.28
599.431	15559.44
599.627	15852.3
599.824	15643.41
600.02	15653.65
600.217	15600.4
600.413	15545.11
600.609	15790.86
600.806	15401.75
601.002	15528.72
601.198	15555.35
601.395	15491.86
601.591	15362.84
601.787	15547.15
601.984	15264.54
602.18	15448.85
602.376	15121.18
602.572	15199
602.769	15016.73
602.965	14803.74
603.161	14644
603.357	14885.66
603.553	14871.33
603.75	15006.49
603.946	14768.93
604.142	14846.75
604.338	14555.94
604.534	14635.81
604.73	14426.92
604.926	14658.34
605.122	14535.46
605.318	14500.64
605.514	14232.36
605.71	14482.21
605.906	14439.2
606.102	14326.57
606.298	14449.44
606.494	14054.19
606.69	14486.31
606.886	14301.99
607.082	13970.22
607.278	14164.78
607.474	13931.31
607.67	14101.29
607.866	13833
608.062	14039.85
608.257	13751.09
608.453	13959.98
608.649	13779.76
608.845	13824.81
609.041	13849.39
609.236	13894.44
609.432	13730.61
609.628	13564.72
609.824	13613.87
610.019	13515.57
610.215	13445.94
610.411	13554.48
610.606	13398.84
610.802	13536.05
610.998	13556.53
611.193	13495.09
611.389	13447.99
611.584	13271.86
611.78	13298.49
611.976	13245.24
612.171	13296.44
612.367	13142.84
612.562	13280.05
612.758	13105.98
612.953	12874.56
613.149	13443.89
613.344	13022.01
613.539	13007.67
613.735	12845.88
613.93	12954.43
614.126	12880.7
614.321	12888.89
614.517	13003.58
614.712	12770.11
614.907	13028.15
615.103	12653.37
615.298	12702.53
615.493	12915.51
615.688	12501.83
615.884	13105.98
616.079	12608.32
616.274	12651.33
616.47	12598.08
616.665	12729.15
616.86	12383.04
617.055	12344.13
617.25	12344.13
617.445	12686.14
617.641	12335.94
617.836	12301.12
618.031	12383.04
618.226	12120.9
618.421	12251.97
618.616	12288.84
618.811	12153.67
619.006	12241.73
619.201	11934.54
619.396	12159.81
619.591	11776.84
619.786	12102.47
619.981	11893.58
620.176	11950.92
620.371	11670.35
620.566	11690.83
620.761	11717.45
620.956	11594.58
621.151	11717.45
621.346	11377.49
621.541	11471.7
621.735	11606.86
621.93	11266.9
622.125	11498.32
622.32	10980.18
622.515	11383.63
622.709	11002.71
622.904	11066.2
623.099	11051.86
623.294	11174.74
623.488	10974.04
623.683	10793.82
623.878	10824.54
624.072	10646.37
624.267	10816.35
624.462	10767.2
624.656	10576.73
624.851	10537.82
625.046	10521.44
625.24	10275.68
625.435	10488.67
625.629	10505.06
625.824	10425.18
626.018	10384.23
626.213	10072.93
626.407	10228.58
626.602	10062.69
626.796	10054.5
626.991	10040.17
627.185	9663.34
627.38	9831.27
627.574	9917.29
627.768	9636.72
627.963	9581.42
628.157	9511.79
628.352	9626.48
628.546	9558.89
628.74	9595.76
628.935	9376.62
629.129	9390.96
629.323	9210.74
629.517	9153.4
629.712	9210.74
629.906	9096.05
630.1	9034.61
630.294	9110.39
630.489	8872.82
630.683	9003.89
630.877	8844.15
631.071	8844.15
631.265	8715.13
631.459	8909.69
631.653	8878.97
631.848	8692.6
632.042	8678.27
632.236	8606.59
632.43	8649.6
632.624	8579.97
632.818	8498.05
633.012	8426.37
633.206	8342.4
633.4	8385.41
633.594	8285.06
633.788	8209.28
633.982	8213.38
634.176	8184.71
634.369	8137.6
634.563	8039.3
634.757	8110.98
634.951	8061.83
635.145	8145.8
635.339	8057.73
635.533	7797.64
635.726	7818.12
635.92	7703.43
636.114	7771.02
636.308	7744.39
636.501	7850.89
636.695	7623.56
636.889	7422.86
637.083	7482.25
637.276	7498.64
637.47	7496.59
637.664	7332.75
637.857	7426.96
638.051	7375.76
638.244	7308.18
638.438	7306.13
638.632	7123.86
638.825	7183.25
639.019	7027.6
639.212	7183.25
639.406	6927.25
639.599	6900.63
639.793	7043.99
639.986	6974.36
640.18	7015.32
640.373	6820.76
640.567	6845.34
640.76	6925.21
640.954	6861.72
641.147	6542.24
641.34	6663.07
641.534	6708.12
641.727	6359.97
641.92	6663.07
642.114	6308.77
642.307	6544.28
642.5	6366.11
642.694	6427.55
642.887	6390.69
643.08	6380.45
643.273	6292.38
643.467	6122.4
643.66	6319.01
643.853	6171.55
644.046	6314.91
644.239	6230.94
644.432	6024.1
644.626	6056.87
644.819	6110.11
645.012	6138.79
645.205	6001.57
645.398	5876.65
645.591	5974.95
645.784	5860.26
645.977	5770.15
646.17	5843.88
646.363	5839.78
646.556	5624.75
646.749	5829.54
646.942	5561.26
647.135	5614.51
647.328	5665.71
647.521	5665.71
647.714	5485.48
647.907	5544.88
648.099	5581.74
648.292	5557.16
648.485	5362.61
648.678	5460.91
648.871	5247.92
649.064	5401.52
649.256	5221.3
649.449	5362.61
649.642	5387.18
649.835	5217.2
650.027	5317.55
650.22	5170.1
650.413	5286.83
650.605	5237.68
650.798	5110.71
650.991	4961.2
651.183	5004.21
651.376	5036.98
651.568	4987.83
651.761	5069.75
651.954	4959.16
652.146	5057.46
652.339	5026.74
652.531	4959.16
652.724	4828.09
652.916	4787.13
653.109	4793.27
653.301	4766.65
653.494	4807.61
653.686	4567.99
653.879	4772.79
654.071	4799.41
654.263	4522.94
654.456	4602.81
654.648	4776.89
654.84	4479.93
655.033	4570.04
655.225	4594.62
655.417	4258.75
655.61	4574.14
655.802	4391.87
655.994	4389.82
656.186	4357.05
656.379	4316.09
656.571	4221.89
656.763	4277.18
656.955	4348.86
657.148	4418.49
657.34	4133.82
657.532	4295.61
657.724	4197.31
657.916	4312
658.108	4172.74
658.3	4166.59
658.492	4135.87
658.684	4084.67
658.876	4115.39
659.068	4101.06
659.26	4012.99
659.452	4029.38
659.644	3992.52
659.836	3886.02
660.028	4072.39
660.22	3869.64
660.412	3906.5
660.604	3877.83
660.796	3820.49
660.988	3898.31
661.18	3924.93
661.372	3787.72
661.563	3824.58
661.755	3716.04
661.947	3795.91
662.139	3724.23
662.331	3904.45
662.522	3683.27
662.714	3683.27
662.906	3550.15
663.097	3781.57
663.289	3501
663.481	3517.39
663.673	3550.15
663.864	3472.33
664.056	3460.04
664.247	3304.4
664.439	3445.71
664.631	3515.34
664.822	3537.87
665.014	3460.04
665.205	3328.97
665.397	3443.66
665.588	3402.7
665.78	3437.52
665.971	3255.25
666.163	3226.57
666.354	3304.4
666.546	3365.84
666.737	3257.29
666.929	3165.14
667.12	3302.35
667.311	3304.4
667.503	3175.38
667.694	3089.36
667.885	3099.6
668.077	3103.7
668.268	3195.86
668.459	3224.53
668.651	3118.03
668.842	3007.44
669.033	3101.65
669.224	3027.92
669.416	3120.08
669.607	2962.39
669.798	2870.23
669.989	3068.88
670.18	3009.49
670.371	3050.45
670.563	3068.88
670.754	3050.45
670.945	3017.68
671.136	2868.18
671.327	2917.33
671.518	2986.96
671.709	2894.8
671.9	2937.81
672.091	2923.48
672.282	2903
672.473	2905.04
672.664	2796.5
672.855	2796.5
673.046	2970.58
673.237	2888.66
673.428	2888.66
673.619	2853.84
673.809	2792.41
674	2765.78
674.191	2903
674.382	2798.55
674.573	2853.84
674.764	2773.97
674.954	2757.59
675.145	2677.72
675.336	2704.34
675.527	2642.9
675.717	2690.01
675.908	2683.86
676.099	2788.31
676.289	2749.4
676.48	2560.98
676.671	2780.12
676.861	2640.86
677.052	2722.77
677.243	2612.18
677.433	2747.35
677.624	2603.99
677.814	2806.74
678.005	2649.05
678.195	2587.61
678.386	2470.87
678.576	2550.75
678.767	2511.83
678.957	2669.53
679.148	2636.76
679.338	2626.52
679.529	2657.24
679.719	2550.75
679.909	2550.75
680.1	2472.92
680.29	2526.17
680.481	2583.51
680.671	2495.45
680.861	2653.14
681.052	2583.51
681.242	2589.66
681.432	2608.09
681.622	2526.17
681.813	2579.42
682.003	2493.4
682.193	2495.45
682.383	2542.55
682.573	2595.8
682.764	2503.64
682.954	2649.05
683.144	2513.88
683.334	2483.16
683.524	2520.03
683.714	2546.65
683.904	2399.2
684.094	2434.01
684.284	2388.96
684.474	2577.37
684.664	2499.55
684.854	2526.17
685.044	2456.54
685.234	2530.27
685.424	2687.96
685.614	2483.16
685.804	2446.3
685.994	2378.72
686.184	2333.66
686.374	2460.63
686.564	2378.72
686.753	2350.04
686.943	2288.61
687.133	2386.91
687.323	2350.04
687.513	2325.47
687.702	2429.91
687.892	2354.14
688.082	2241.5
688.272	2290.65
688.461	2311.13
688.651	2335.71
688.841	2378.72
689.03	2259.93
689.22	2388.96
689.41	2294.75
689.599	2218.97
689.789	2298.84
689.979	2276.32
690.168	2206.69
690.358	2364.38
690.547	2167.77
690.737	2182.11
690.926	2257.89
691.116	2104.29
691.305	2227.17
691.495	2173.92
691.684	2186.21
691.874	2190.3
692.063	2092
692.252	2143.2
692.442	2141.15
692.631	2159.58
692.82	2130.91
693.01	2085.86
693.199	2163.68
693.388	2124.77
693.578	2175.97
693.767	2051.04
693.956	2022.37
694.146	2157.54
694.335	2225.12
694.524	2071.52
694.713	2051.04
694.902	1958.88
695.092	2038.75
695.281	1833.96
695.47	1991.65
695.659	1928.16
695.848	1995.75
696.037	1997.79
696.226	1991.65
696.415	2063.33
696.604	2026.47
696.793	2018.27
696.982	2034.66
697.171	2010.08
697.36	1895.4
697.549	1960.93
697.738	2001.89
697.927	1879.01
698.116	1987.55
698.305	1969.12
698.494	1956.83
698.683	1977.31
698.872	2087.9
699.061	1936.35
699.25	1897.44
699.438	2012.13
699.627	1946.59
699.816	2100.19
700.005	2034.66
700.193	1993.7
700.382	1969.12
700.571	1977.31
700.76	1979.36
700.948	1893.35
701.137	1887.2
701.326	1907.68
701.514	2014.18
701.703	2028.51
701.892	1897.44
702.08	1876.96
702.269	2102.24
702.457	1903.59
702.646	2034.66
702.834	1911.78
703.023	1930.21
703.212	1936.35
703.4	1962.98
703.589	1944.55
703.777	1876.96
703.965	1854.44
704.154	1803.24
704.342	1979.36
704.531	1954.79
704.719	1936.35
704.907	2008.03
705.096	1809.38
705.284	1889.25
705.472	1960.93
705.661	1854.44
705.849	1887.2
706.037	1938.4
706.226	1922.02
706.414	1936.35
706.602	1887.2
706.79	1944.55
706.979	1838.05
707.167	1848.29
707.355	1895.4
707.543	2028.51
707.731	1960.93
707.919	1905.63
708.107	1962.98
708.296	1936.35
708.484	1897.44
708.672	1919.97
708.86	1786.85
709.048	1969.12
709.236	1973.22
709.424	1911.78
709.612	1936.35
709.8	1932.26
709.988	1846.24
710.176	1948.64
710.364	2034.66
710.551	1924.07
710.739	1850.34
710.927	1911.78
711.115	1897.44
711.303	2034.66
711.491	1985.51
711.679	1989.6
711.866	1895.4
712.054	1842.15
712.242	1954.79
712.43	1893.35
712.617	1897.44
712.805	1946.59
712.993	1973.22
713.181	1895.4
713.368	1962.98
713.556	1965.03
713.744	1944.55
713.931	2016.23
714.119	1919.97
714.306	1958.88
714.494	1887.2
714.682	2034.66
714.869	1879.01
715.057	1911.78
715.244	1954.79
715.432	1913.83
715.619	1858.53
715.807	1899.49
715.994	1977.31
716.182	1881.06
716.369	1926.11
716.556	1940.45
716.744	1909.73
716.931	1965.03
717.119	1930.21
717.306	1928.16
717.493	1881.06
717.681	1909.73
717.868	1854.44
718.055	1960.93
718.242	1936.35
718.43	1911.78
718.617	1981.41
718.804	2044.9
718.991	1848.29
719.179	1942.5
719.366	1899.49
719.553	2032.61
719.74	1887.2
719.927	2008.03
720.114	1930.21
720.301	1887.2
720.488	1919.97
720.676	1913.83
720.863	1895.4
721.05	1864.68
721.237	1977.31
721.424	1932.26
721.611	2010.08
721.798	1946.59
721.985	1958.88
722.172	1952.74
722.358	1856.48
722.545	2016.23
722.732	1889.25
722.919	2018.27
723.106	1940.45
723.293	2026.47
723.48	1870.82
723.667	1887.2
723.853	2010.08
724.04	1891.3
724.227	1903.59
724.414	1852.39
724.6	1948.64
724.787	1956.83
724.974	1958.88
725.161	1838.05
725.347	1874.92
725.534	1891.3
725.72	1938.4
725.907	1813.48
726.094	1940.45
726.28	1993.7
726.467	1936.35
726.653	1997.79
726.84	1960.93
727.027	1971.17
727.213	1848.29
727.4	1907.68
727.586	1977.31
727.773	1977.31
727.959	1946.59
728.145	1911.78
728.332	1973.22
728.518	1924.07
728.705	1919.97
728.891	1922.02
729.077	1879.01
729.264	1862.63
729.45	1897.44
729.636	1977.31
729.823	1911.78
730.009	1981.41
730.195	1936.35
730.382	1862.63
730.568	2001.89
730.754	1962.98
730.94	1829.86
731.126	1870.82
731.313	2010.08
731.499	1856.48
731.685	2022.37
731.871	1934.31
732.057	1897.44
732.243	1901.54
732.429	1874.92
732.615	1993.7
732.801	1965.03
732.987	1860.58
733.173	1989.6
733.359	1803.24
733.545	2053.09
733.731	1846.24
733.917	1987.55
734.103	1977.31
734.289	1932.26
734.475	1858.53
734.661	1889.25
734.847	1907.68
735.033	1909.73
735.219	1770.47
735.404	1985.51
735.59	1887.2
735.776	1885.16
735.962	1946.59
736.148	1862.63
736.333	1848.29
736.519	1813.48
736.705	1956.83
736.89	1842.15
737.076	1747.94
737.262	1817.57
737.447	1897.44
737.633	1928.16
737.819	1903.59
738.004	1913.83
738.19	1862.63
738.375	1797.09
738.561	1825.76
738.747	1879.01
738.932	1866.72
739.118	1889.25
739.303	1833.96
739.489	1854.44
739.674	1833.96
739.859	1833.96
740.045	1876.96
740.23	1788.9
740.416	1754.09
740.601	1905.63
740.786	1780.71
740.972	1666.02
741.157	1715.17
741.342	1661.93
741.528	1721.32
741.713	1844.2
741.898	1809.38
742.084	1647.59
742.269	1680.36
742.454	1727.46
742.639	1825.76
742.824	1723.37
743.01	1766.37
743.195	1784.8
743.38	1747.94
743.565	1715.17
743.75	1655.78
743.935	1749.99
744.12	1725.41
744.305	1643.49
744.49	1653.73
744.675	1692.65
744.86	1749.99
745.045	1666.02
745.23	1510.38
745.415	1575.91
745.6	1577.96
745.785	1659.88
745.97	1633.26
746.155	1567.72
746.34	1651.69
746.525	1649.64
746.71	1666.02
746.895	1647.59
747.079	1596.39
747.264	1512.42
747.449	1461.23
747.634	1547.24
747.819	1547.24
748.003	1436.65
748.188	1487.85
748.373	1469.42
748.557	1565.67
748.742	1455.08
748.927	1485.8
749.111	1543.14
749.296	1485.8
749.481	1512.42
749.665	1416.17
749.85	1469.42
750.034	1373.16
750.219	1455.08
750.404	1371.12
750.588	1330.16
750.773	1276.91
750.957	1387.5
751.141	1315.82
751.326	1373.16
751.51	1297.39
751.695	1354.73
751.879	1297.39
752.064	1326.06
752.248	1469.42
752.432	1340.4
752.617	1342.44
752.801	1379.31
752.985	1274.86
753.17	1362.92
753.354	1281
753.538	1266.67
753.722	1127.41
753.907	1203.18
754.091	1182.7
754.275	1252.33
754.459	1291.24
754.643	1250.28
754.828	1219.57
755.012	1313.77
755.196	1160.17
755.38	1268.72
755.564	1199.09
755.748	1162.22
755.932	1297.39
756.116	1133.55
756.3	1096.69
756.484	1086.45
756.668	1135.6
756.852	1070.06
757.036	1149.93
757.22	1141.74
757.404	1063.92
757.588	1096.69
757.772	1121.26
757.956	1129.45
758.14	994.29
758.323	1076.21
758.507	1076.21
758.691	994.29
758.875	1010.67
759.059	1002.48
759.242	998.38
759.426	1004.53
759.61	1016.82
759.794	1033.2
759.977	1035.25
760.161	1096.69
760.345	1104.88
760.528	1027.06
760.712	891.89
760.895	986.1
761.079	1014.77
761.263	799.73
761.446	938.99
761.63	1053.68
761.813	865.27
761.997	1012.72
762.18	928.75
762.364	932.85
762.547	850.93
762.731	938.99
762.914	922.61
763.098	834.55
763.281	922.61
763.464	928.75
763.648	914.42
763.831	814.07
764.015	855.03
764.198	922.61
764.381	859.12
764.564	994.29
764.748	834.55
764.931	914.42
765.114	842.74
765.297	824.31
765.481	848.88
765.664	820.21
765.847	879.6
766.03	922.61
766.213	773.11
766.397	846.84
766.58	758.77
766.763	873.46
766.946	920.56
767.129	773.11
767.312	775.16
767.495	775.16
767.678	814.07
767.861	744.44
768.044	801.78
768.227	828.4
768.41	814.07
768.593	809.97
768.776	867.31
768.959	732.15
769.142	881.65
769.324	764.92
769.507	797.68
769.69	779.25
769.873	781.3
770.056	809.97
770.239	779.25
770.421	830.45
770.604	732.15
770.787	723.96
770.97	678.9
771.152	805.88
771.335	789.49
771.518	683
771.7	730.1
771.883	750.58
772.066	793.59
772.248	744.44
772.431	771.06
772.613	709.62
772.796	748.53
772.978	699.38
773.161	713.72
773.343	740.34
773.526	676.85
773.708	699.38
773.891	664.57
774.073	723.96
774.256	611.32
774.438	717.81
774.621	656.37
774.803	697.33
774.985	633.85
775.168	635.89
775.35	588.79
775.532	683
775.715	709.62
775.897	627.7
776.079	639.99
776.261	674.81
776.444	617.46
776.626	683
776.808	609.27
776.99	521.21
777.173	592.89
777.355	617.46
777.537	584.7
777.719	646.13
777.901	584.7
778.083	551.93
778.265	609.27
778.447	644.09
778.629	551.93
778.811	560.12
778.993	543.74
779.175	592.89
779.357	502.78
779.539	570.36
779.721	539.64
779.903	482.3
780.085	556.02
780.267	576.5
780.449	537.59
780.631	480.25
780.812	498.68
780.994	582.65
781.176	521.21
781.358	502.78
781.54	445.43
781.721	496.63
781.903	431.1
782.085	396.28
782.267	506.87
782.448	420.86
782.63	486.39
782.812	474.1
782.993	527.35
783.175	459.77
783.357	357.37
783.538	463.86
783.72	381.95
783.901	496.63
784.083	472.06
784.264	347.13
784.446	373.75
784.627	461.82
784.809	408.57
784.99	437.24
785.172	453.63
785.353	406.52
785.535	427
785.716	494.58
785.897	392.19
786.079	371.71
786.26	400.38
786.441	414.71
786.623	326.65
786.804	359.42
786.985	316.41
787.167	404.47
787.348	416.76
787.529	306.17
787.71	437.24
787.891	306.17
788.073	400.38
788.254	322.56
788.435	365.56
788.616	347.13
788.797	273.4
788.978	365.56
789.159	394.23
789.34	316.41
789.522	316.41
789.703	291.84
789.884	359.42
790.065	371.71
790.246	363.51
790.427	291.84
790.607	400.38
790.788	257.02
790.969	381.95
791.15	355.32
791.331	320.51
791.512	371.71
791.693	293.88
791.874	328.7
792.054	404.47
792.235	363.51
792.416	281.6
792.597	324.6
792.778	310.27
792.958	297.98
793.139	244.73
793.32	340.99
793.5	306.17
793.681	340.99
793.862	289.79
794.042	207.87
794.223	291.84
794.404	306.17
794.584	216.06
794.765	209.92
794.945	306.17
795.126	338.94
795.306	328.7
795.487	218.11
795.667	263.16
795.848	236.54
796.028	252.92
796.209	265.21
796.389	300.03
796.57	207.87
796.75	214.01
796.93	271.36
797.111	234.49
797.291	214.01
797.471	285.69
797.652	232.44
797.832	265.21
798.012	259.07
798.192	265.21
798.373	193.53
798.553	293.88
798.733	117.76
798.913	185.34
799.093	250.88
799.274	287.74
799.454	273.4
799.634	224.25
799.814	216.06
799.994	257.02
800.174	183.29
800.354	228.35
800.534	201.72
800.714	205.82
800.894	175.1
801.074	166.91
801.254	232.44
801.434	211.96
801.614	130.05
801.794	191.49
801.974	807.92
802.154	156.67
802.334	248.83
802.514	136.19
802.693	224.25
802.873	232.44
803.053	211.96
803.233	150.53
803.413	291.84
803.592	232.44
803.772	224.25
803.952	191.49
804.131	166.91
804.311	177.15
804.491	216.06
804.67	168.96
804.85	70.65
805.03	191.49
805.209	261.12
805.389	201.72
805.568	199.68
805.748	189.44
805.928	158.72
806.107	201.72
806.287	191.49
806.466	154.62
806.646	191.49
806.825	177.15
807.004	185.34
807.184	175.1
807.363	203.77
807.543	121.85
807.722	191.49
807.901	173.05
808.081	214.01
808.26	117.76
808.439	150.53
808.619	195.58
808.798	142.33
808.977	179.2
809.156	214.01
809.336	171.01
809.515	222.2
809.694	168.96
809.873	191.49
810.052	144.38
810.231	183.29
810.411	171.01
810.59	187.39
810.769	191.49
810.948	162.81
811.127	113.66
811.306	146.43
811.485	134.14
811.664	195.58
811.843	68.61
812.022	160.77
812.201	119.81
812.38	121.85
812.559	199.68
812.737	134.14
812.916	128
813.095	93.18
813.274	168.96
813.453	121.85
813.632	166.91
813.811	162.81
813.989	191.49
814.168	140.29
814.347	44.03
814.526	109.57
814.704	142.33
814.883	201.72
815.062	132.09
815.24	130.05
815.419	58.37
815.598	109.57
815.776	121.85
815.955	76.8
816.133	70.65
816.312	187.39
816.49	93.18
816.669	199.68
816.847	125.95
817.026	95.23
817.204	97.28
817.383	91.13
817.561	209.92
817.74	142.33
817.918	146.43
818.097	72.7
818.275	101.37
818.453	123.9
818.632	168.96
818.81	136.19
818.988	103.42
819.167	191.49
819.345	89.09
819.523	119.81
819.701	121.85
819.879	140.29
820.058	168.96
820.236	130.05
820.414	89.09
820.592	134.14
820.77	101.37
820.948	84.99
821.127	80.89
821.305	109.57
821.483	72.7
821.661	117.76
821.839	177.15
822.017	101.37
822.195	80.89
822.373	121.85
822.551	54.27
822.729	115.71
822.907	134.14
823.085	138.24
823.262	23.55
823.44	134.14
823.618	97.28
823.796	21.5
823.974	87.04
824.152	84.99
824.329	142.33
824.507	132.09
824.685	121.85
824.863	121.85
825.04	173.05
825.218	95.23
825.396	101.37
825.574	119.81
825.751	76.8
825.929	101.37
826.107	101.37
826.284	117.76
826.462	113.66
826.639	111.61
826.817	72.7
826.994	80.89
827.172	68.61
827.349	134.14
827.527	111.61
827.704	78.85
827.882	62.46
828.059	48.13
828.237	121.85
828.414	162.81
828.591	-25.6
828.769	113.66
828.946	27.65
829.124	78.85
829.301	125.95
829.478	95.23
829.655	72.7
829.833	72.7
830.01	15.36
830.187	93.18
830.364	68.61
830.542	31.74
830.719	168.96
830.896	109.57
831.073	76.8
831.25	87.04
831.427	70.65
831.604	76.8
831.782	68.61
831.959	109.57
832.136	35.84
832.313	23.55
832.49	111.61
832.667	64.51
832.844	41.98
833.021	80.89
833.198	101.37
833.374	115.71
833.551	41.98
833.728	29.7
833.905	60.42
834.082	52.22
834.259	68.61
834.436	142.33
834.612	84.99
834.789	-5.12
834.966	60.42
835.143	76.8
835.319	78.85
835.496	52.22
835.673	68.61
835.85	113.66
836.026	103.42
836.203	191.49
836.38	119.81
836.556	7.17
836.733	66.56
836.909	35.84
837.086	5.12
837.262	9.22
837.439	93.18
837.616	68.61
837.792	13.31
837.968	-29.7
838.145	23.55
838.321	60.42
838.498	130.05
838.674	21.5
838.851	60.42
839.027	93.18
839.203	-31.74
839.38	84.99
839.556	27.65
839.732	54.27
839.909	19.46
840.085	84.99
840.261	84.99
840.437	-27.65
840.614	60.42
840.79	29.7
840.966	74.75
841.142	48.13
841.318	44.03
841.494	128
841.671	78.85
841.847	46.08
842.023	-3.07
842.199	21.5
842.375	62.46
842.551	62.46
842.727	52.22
842.903	60.42
843.079	66.56
843.255	60.42
843.431	-13.31
843.607	84.99
843.783	21.5
843.959	68.61
844.134	19.46
844.31	31.74
844.486	76.8
844.662	62.46
844.838	35.84
845.013	107.52
845.189	62.46
845.365	54.27
845.541	21.5
845.716	-3.07
845.892	125.95
846.068	121.85
846.244	103.42
846.419	-17.41
846.595	21.5
846.77	52.22
846.946	21.5
847.122	128
847.297	44.03
847.473	109.57
847.648	44.03
847.824	25.6
847.999	-39.94
848.175	17.41
848.35	3.07
848.526	-7.17
848.701	58.37
848.876	78.85
849.052	68.61
849.227	21.5
849.403	9.22
849.578	56.32
849.753	3.07
849.929	68.61
850.104	78.85
850.279	35.84
850.454	97.28
850.63	46.08
850.805	121.85
850.98	60.42
851.155	7.17
851.33	17.41
851.505	-37.89
851.681	103.42
851.856	-3.07
852.031	46.08
852.206	31.74
852.381	17.41
852.556	-19.46
852.731	78.85
852.906	84.99
853.081	50.18
853.256	64.51
853.431	35.84
853.606	46.08
853.781	103.42
853.956	-37.89
854.131	37.89
854.305	-1.02
854.48	35.84
854.655	84.99
854.83	33.79
855.005	-17.41
855.18	11.26
855.354	13.31
855.529	13.31
855.704	21.5
855.879	93.18
856.053	19.46
856.228	58.37
856.403	50.18
856.577	-35.84
856.752	54.27
856.926	134.14
857.101	109.57
857.276	11.26
857.45	52.22
857.625	29.7
857.799	48.13
857.974	60.42
858.148	-60.42
858.323	113.66
858.497	-3.07
858.672	-13.31
858.846	27.65
859.02	29.7
859.195	11.26
859.369	21.5
859.543	19.46
859.718	72.7
859.892	54.27
860.066	78.85
860.241	-1.02
860.415	-3.07
860.589	19.46
860.763	48.13
860.938	5.12
861.112	68.61
861.286	-19.46
861.46	-54.27
861.634	3.07
861.808	78.85
861.982	27.65
862.157	89.09
862.331	7.17
862.505	-27.65
862.679	107.52
862.853	11.26
863.027	-5.12
863.201	33.79
863.375	23.55
863.549	68.61
863.722	-41.98
863.896	41.98
864.07	37.89
864.244	58.37
864.418	50.18
864.592	19.46
864.766	27.65
864.939	60.42
865.113	-93.18
865.287	93.18
865.461	-46.08
865.634	68.61
865.808	-13.31
865.982	13.31
866.156	-25.6
866.329	-7.17
866.503	44.03
866.676	9.22
866.85	-29.7
867.024	48.13
867.197	44.03
867.371	52.22
867.544	35.84
867.718	-54.27
867.891	7.17
868.065	-35.84
868.238	39.94
868.412	68.61
868.585	87.04
868.759	-17.41
868.932	29.7
869.105	58.37
869.279	44.03
869.452	29.7
869.625	-13.31
869.799	37.89
869.972	19.46
870.145	5.12
870.319	19.46
870.492	-44.03
870.665	44.03
870.838	35.84
871.011	-33.79
871.185	-3.07
871.358	-1.02
871.531	-13.31
871.704	21.5
871.877	-17.41
872.05	-5.12
872.223	-54.27
872.396	11.26
872.569	5.12
872.742	74.75
872.915	-13.31
873.088	21.5
873.261	72.7
873.434	-29.7
873.607	35.84
873.78	44.03
873.953	-31.74
874.126	-25.6
874.299	-27.65
874.471	-52.22
874.644	-1.02
874.817	23.55
874.99	-87.04
875.163	7.17
875.335	44.03
875.508	-9.22
875.681	39.94
875.853	-21.5
876.026	-5.12
876.199	84.99
876.371	29.7
876.544	52.22
876.717	5.12
876.889	-11.26
877.062	37.89
877.234	-70.65
877.407	-21.5
877.579	7.17
877.752	93.18
877.924	46.08
878.097	19.46
878.269	19.46
878.442	29.7
878.614	142.33
878.786	9.22
878.959	-37.89
879.131	-11.26
879.303	-5.12
879.476	64.51
879.648	41.98
879.82	19.46
879.993	-37.89
880.165	-13.31
880.337	52.22
880.509	-5.12
880.681	23.55
880.854	-13.31
881.026	113.66
881.198	19.46
881.37	82.94
881.542	11.26
881.714	13.31
881.886	48.13
882.058	21.5
882.23	52.22
882.402	60.42
882.574	62.46
882.746	70.65
882.918	33.79
883.09	19.46
883.262	-13.31
883.434	99.33
883.606	9.22
883.778	11.26
883.95	-37.89
884.122	-5.12
884.293	93.18
884.465	9.22
884.637	76.8
884.809	13.31
884.98	25.6
885.152	27.65
885.324	11.26
885.496	-33.79
885.667	-29.7
885.839	-50.18
886.011	52.22
886.182	60.42
886.354	15.36
886.525	29.7
886.697	25.6
886.869	23.55
887.04	17.41
887.212	46.08
887.383	60.42
887.555	-21.5
887.726	-70.65
887.897	-19.46
888.069	31.74
888.24	56.32
888.412	-37.89
888.583	23.55
888.754	-50.18
888.926	-46.08
889.097	5.12
889.268	-5.12
889.44	-3.07
889.611	-17.41
889.782	11.26
889.953	-62.46
890.125	15.36
890.296	-54.27
890.467	5.12
890.638	-9.22
890.809	35.84
890.98	-60.42
891.151	37.89
891.323	87.04
891.494	27.65
891.665	15.36
891.836	3.07
892.007	-9.22
892.178	39.94
892.349	13.31
892.52	-54.27
892.691	-21.5
892.862	48.13
893.032	-54.27
893.203	37.89
893.374	39.94
893.545	19.46
893.716	15.36
893.887	35.84
894.057	15.36
894.228	-46.08
894.399	44.03
894.57	64.51
894.74	-62.46
894.911	-9.22
895.082	-37.89
895.253	1.02
895.423	-27.65
895.594	-50.18
895.764	31.74
895.935	27.65
896.106	3.07
896.276	-95.23
896.447	-11.26
896.617	3.07
896.788	15.36
896.958	50.18
897.129	-21.5
897.299	-37.89
897.47	19.46
897.64	-3.07
897.81	3.07
897.981	-21.5
898.151	29.7
898.322	89.09
898.492	-21.5
898.662	-62.46
898.832	3.07
899.003	62.46
899.173	44.03
899.343	19.46
899.513	-17.41
