Data from USB4F104151__243__14-45-47-923.txt Node

Date: Thu Mar 13 14:45:47 EDT 2025
User: louis
Spectrometer: USB4F10415
Trigger mode: 4
Integration Time (sec): 2.000000E-2
Scans to average: 1
Electric dark correction enabled: true
Nonlinearity correction enabled: false
Boxcar width: 0
XAxis mode: Wavelengths
Number of Pixels in Spectrum: 3648
>>>>>Begin Spectral Data<<<<<
178.204	-139.26
178.424	-139.26
178.644	-139.26
178.864	-124.93
179.084	-161.79
179.304	34.82
179.524	-14.34
179.744	14.34
179.964	2.05
180.184	-71.68
180.404	77.82
180.624	63.49
180.844	8.19
181.064	-51.2
181.283	30.72
181.503	-81.92
181.723	-12.29
181.943	-14.34
182.163	112.64
182.383	51.2
182.602	81.92
182.822	38.91
183.042	34.82
183.262	-10.24
183.482	-2.05
183.701	47.1
183.921	57.34
184.141	36.86
184.361	8.19
184.58	36.86
184.8	38.91
185.02	67.58
185.239	24.58
185.459	30.72
185.679	49.15
185.898	-26.62
186.118	65.53
186.338	-8.19
186.557	112.64
186.777	-57.34
186.997	18.43
187.216	47.1
187.436	94.21
187.655	30.72
187.875	22.53
188.095	106.49
188.314	22.53
188.534	98.3
188.753	16.38
188.973	63.49
189.192	69.63
189.412	2.05
189.631	6.14
189.851	57.34
190.07	47.1
190.29	22.53
190.509	57.34
190.729	30.72
190.948	65.53
191.168	139.26
191.387	38.91
191.607	0
191.826	40.96
192.045	112.64
192.265	118.78
192.484	96.25
192.704	28.67
192.923	-59.39
193.142	96.25
193.362	2.05
193.581	18.43
193.8	51.2
194.02	-2.05
194.239	73.73
194.458	100.35
194.678	51.2
194.897	24.58
195.116	49.15
195.335	45.06
195.555	71.68
195.774	59.39
195.993	4.1
196.212	38.91
196.432	-34.82
196.651	-6.14
196.87	6.14
197.089	63.49
197.308	38.91
197.528	38.91
197.747	8.19
197.966	47.1
198.185	47.1
198.404	2.05
198.623	79.87
198.842	22.53
199.062	135.17
199.281	63.49
199.5	-26.62
199.719	45.06
199.938	126.97
200.157	176.13
200.376	8.19
200.595	88.06
200.814	-26.62
201.033	73.73
201.252	34.82
201.471	83.97
201.69	6.14
201.909	20.48
202.128	104.45
202.347	83.97
202.566	118.78
202.785	-65.54
203.004	57.34
203.223	55.3
203.442	71.68
203.661	32.77
203.879	49.15
204.098	57.34
204.317	28.67
204.536	63.49
204.755	30.72
204.974	30.72
205.193	36.86
205.411	116.73
205.63	24.58
205.849	79.87
206.068	51.2
206.287	14.34
206.505	104.45
206.724	90.11
206.943	-53.25
207.162	-26.62
207.381	49.15
207.599	-6.14
207.818	22.53
208.037	22.53
208.255	-38.91
208.474	-2.05
208.693	28.67
208.911	63.49
209.13	83.97
209.349	71.68
209.567	28.67
209.786	71.68
210.005	77.82
210.223	32.77
210.442	55.3
210.661	88.06
210.879	30.72
211.098	71.68
211.316	71.68
211.535	-22.53
211.753	30.72
211.972	34.82
212.191	-14.34
212.409	102.4
212.628	67.58
212.846	22.53
213.065	100.35
213.283	124.93
213.502	22.53
213.72	-6.14
213.938	71.68
214.157	83.97
214.375	88.06
214.594	51.2
214.812	110.59
215.031	20.48
215.249	45.06
215.467	112.64
215.686	18.43
215.904	86.01
216.122	38.91
216.341	55.3
216.559	-2.05
216.778	81.92
216.996	124.93
217.214	51.2
217.432	18.43
217.651	-26.62
217.869	49.15
218.087	-10.24
218.306	-16.38
218.524	6.14
218.742	-14.34
218.96	-24.58
219.179	36.86
219.397	4.1
219.615	71.68
219.833	30.72
220.051	71.68
220.27	47.1
220.488	65.53
220.706	59.39
220.924	-36.86
221.142	16.38
221.36	26.62
221.578	49.15
221.796	40.96
222.015	-26.62
222.233	22.53
222.451	96.25
222.669	32.77
222.887	-34.82
223.105	-2.05
223.323	20.48
223.541	10.24
223.759	96.25
223.977	-26.62
224.195	63.49
224.413	81.92
224.631	71.68
224.849	18.43
225.067	-2.05
225.285	22.53
225.503	-30.72
225.721	6.14
225.939	30.72
226.157	116.73
226.375	79.87
226.592	-67.58
226.81	-32.77
227.028	6.14
227.246	92.16
227.464	14.34
227.682	63.49
227.9	79.87
228.117	-6.14
228.335	10.24
228.553	96.25
228.771	149.5
228.989	55.3
229.206	51.2
229.424	14.34
229.642	22.53
229.86	51.2
230.077	22.53
230.295	38.91
230.513	-83.97
230.731	49.15
230.948	143.36
231.166	10.24
231.384	55.3
231.601	24.58
231.819	32.77
232.037	-47.1
232.254	-10.24
232.472	10.24
232.689	55.3
232.907	24.58
233.125	67.58
233.342	2.05
233.56	14.34
233.777	47.1
233.995	63.49
234.213	55.3
234.43	63.49
234.648	22.53
234.865	-2.05
235.083	67.58
235.3	61.44
235.518	145.41
235.735	47.1
235.953	69.63
236.17	47.1
236.388	24.58
236.605	53.25
236.822	24.58
237.04	65.53
237.257	10.24
237.475	-20.48
237.692	49.15
237.909	32.77
238.127	-55.3
238.344	96.25
238.562	129.02
238.779	79.87
238.996	36.86
239.214	36.86
239.431	100.35
239.648	34.82
239.865	55.3
240.083	53.25
240.3	40.96
240.517	-26.62
240.735	67.58
240.952	71.68
241.169	94.21
241.386	51.2
241.603	26.62
241.821	16.38
242.038	92.16
242.255	-34.82
242.472	77.82
242.689	30.72
242.907	-2.05
243.124	2.05
243.341	65.53
243.558	26.62
243.775	38.91
243.992	-45.06
244.209	55.3
244.426	88.06
244.643	-34.82
244.86	-24.58
245.078	59.39
245.295	30.72
245.512	-24.58
245.729	18.43
245.946	63.49
246.163	49.15
246.38	-53.25
246.597	55.3
246.814	16.38
247.031	88.06
247.248	30.72
247.464	40.96
247.681	69.63
247.898	22.53
248.115	16.38
248.332	28.67
248.549	14.34
248.766	90.11
248.983	129.02
249.2	-2.05
249.417	63.49
249.633	30.72
249.85	47.1
250.067	32.77
250.284	18.43
250.501	63.49
250.717	51.2
250.934	-30.72
251.151	63.49
251.368	57.34
251.585	65.53
251.801	57.34
252.018	139.26
252.235	90.11
252.451	30.72
252.668	94.21
252.885	63.49
253.102	2.05
253.318	65.53
253.535	30.72
253.752	59.39
253.968	47.1
254.185	-59.39
254.401	73.73
254.618	47.1
254.835	71.68
255.051	47.1
255.268	-10.24
255.484	49.15
255.701	51.2
255.917	32.77
256.134	-38.91
256.351	63.49
256.567	51.2
256.784	-24.58
257	49.15
257.217	77.82
257.433	116.73
257.65	88.06
257.866	49.15
258.082	-8.19
258.299	63.49
258.515	55.3
258.732	40.96
258.948	34.82
259.165	6.14
259.381	-22.53
259.597	-34.82
259.814	24.58
260.03	6.14
260.246	53.25
260.463	30.72
260.679	88.06
260.895	63.49
261.112	47.1
261.328	6.14
261.544	14.34
261.761	139.26
261.977	22.53
262.193	-12.29
262.409	47.1
262.626	22.53
262.842	59.39
263.058	18.43
263.274	73.73
263.49	51.2
263.707	40.96
263.923	53.25
264.139	8.19
264.355	38.91
264.571	120.83
264.787	18.43
265.004	98.3
265.22	40.96
265.436	71.68
265.652	8.19
265.868	26.62
266.084	47.1
266.3	63.49
266.516	-18.43
266.732	143.36
266.948	18.43
267.164	47.1
267.38	10.24
267.596	-16.38
267.812	-2.05
268.028	12.29
268.244	22.53
268.46	22.53
268.676	67.58
268.892	79.87
269.108	-2.05
269.324	14.34
269.54	-24.58
269.756	137.21
269.972	32.77
270.188	63.49
270.403	30.72
270.619	34.82
270.835	49.15
271.051	55.3
271.267	-34.82
271.483	86.01
271.698	73.73
271.914	88.06
272.13	34.82
272.346	22.53
272.562	45.06
272.777	55.3
272.993	43.01
273.209	47.1
273.425	88.06
273.64	32.77
273.856	26.62
274.072	75.77
274.287	28.67
274.503	63.49
274.719	73.73
274.934	22.53
275.15	32.77
275.366	73.73
275.581	-16.38
275.797	6.14
276.012	47.1
276.228	83.97
276.444	-24.58
276.659	34.82
276.875	-6.14
277.09	59.39
277.306	47.1
277.521	36.86
277.737	6.14
277.952	47.1
278.168	10.24
278.383	-43.01
278.599	47.1
278.814	26.62
279.03	63.49
279.245	79.87
279.461	32.77
279.676	129.02
279.892	-34.82
280.107	43.01
280.322	16.38
280.538	-10.24
280.753	40.96
280.969	86.01
281.184	38.91
281.399	57.34
281.615	53.25
281.83	81.92
282.045	-26.62
282.26	88.06
282.476	8.19
282.691	30.72
282.906	16.38
283.122	26.62
283.337	2.05
283.552	10.24
283.767	24.58
283.983	65.53
284.198	38.91
284.413	30.72
284.628	16.38
284.843	28.67
285.058	14.34
285.274	6.14
285.489	4.1
285.704	59.39
285.919	-2.05
286.134	20.48
286.349	59.39
286.564	61.44
286.779	143.36
286.995	47.1
287.21	45.06
287.425	43.01
287.64	-69.63
287.855	6.14
288.07	-40.96
288.285	51.2
288.5	65.53
288.715	10.24
288.93	10.24
289.145	-2.05
289.36	112.64
289.575	55.3
289.79	57.34
290.004	86.01
290.219	112.64
290.434	18.43
290.649	75.77
290.864	-22.53
291.079	40.96
291.294	34.82
291.509	22.53
291.724	51.2
291.938	-2.05
292.153	16.38
292.368	8.19
292.583	116.73
292.798	40.96
293.012	92.16
293.227	47.1
293.442	18.43
293.657	43.01
293.871	114.69
294.086	10.24
294.301	73.73
294.516	141.31
294.73	73.73
294.945	51.2
295.16	-18.43
295.374	83.97
295.589	120.83
295.804	18.43
296.018	34.82
296.233	47.1
296.447	-2.05
296.662	45.06
296.877	57.34
297.091	34.82
297.306	79.87
297.52	26.62
297.735	73.73
297.949	88.06
298.164	53.25
298.378	-30.72
298.593	30.72
298.807	67.58
299.022	145.41
299.236	-26.62
299.451	51.2
299.665	63.49
299.88	90.11
300.094	30.72
300.309	43.01
300.523	55.3
300.737	112.64
300.952	73.73
301.166	51.2
301.381	18.43
301.595	38.91
301.809	96.25
302.024	-16.38
302.238	81.92
302.452	81.92
302.667	34.82
302.881	145.41
303.095	92.16
303.309	18.43
303.524	53.25
303.738	88.06
303.952	-10.24
304.166	22.53
304.381	4.1
304.595	79.87
304.809	-45.06
305.023	79.87
305.237	30.72
305.452	92.16
305.666	129.02
305.88	55.3
306.094	53.25
306.308	124.93
306.522	38.91
306.736	92.16
306.95	159.74
307.164	-18.43
307.379	14.34
307.593	47.1
307.807	90.11
308.021	12.29
308.235	34.82
308.449	47.1
308.663	32.77
308.877	96.25
309.091	-40.96
309.305	67.58
309.519	10.24
309.733	73.73
309.947	14.34
310.161	16.38
310.374	20.48
310.588	63.49
310.802	24.58
311.016	-14.34
311.23	38.91
311.444	8.19
311.658	36.86
311.872	14.34
312.085	55.3
312.299	47.1
312.513	61.44
312.727	18.43
312.941	63.49
313.154	34.82
313.368	69.63
313.582	28.67
313.796	-18.43
314.009	24.58
314.223	79.87
314.437	73.73
314.651	67.58
314.864	100.35
315.078	24.58
315.292	67.58
315.505	-22.53
315.719	18.43
315.933	88.06
316.146	-22.53
316.36	-18.43
316.573	129.02
316.787	51.2
317.001	55.3
317.214	16.38
317.428	67.58
317.641	67.58
317.855	-6.14
318.068	71.68
318.282	57.34
318.495	120.83
318.709	104.45
318.922	30.72
319.136	90.11
319.349	104.45
319.563	28.67
319.776	79.87
319.99	-100.35
320.203	104.45
320.417	71.68
320.63	51.2
320.843	145.41
321.057	51.2
321.27	67.58
321.483	63.49
321.697	14.34
321.91	24.58
322.124	88.06
322.337	55.3
322.55	6.14
322.763	32.77
322.977	22.53
323.19	-22.53
323.403	55.3
323.617	40.96
323.83	-10.24
324.043	20.48
324.256	24.58
324.469	51.2
324.683	47.1
324.896	79.87
325.109	65.53
325.322	24.58
325.535	88.06
325.748	36.86
325.962	-26.62
326.175	55.3
326.388	-30.72
326.601	49.15
326.814	-10.24
327.027	-40.96
327.24	67.58
327.453	38.91
327.666	-43.01
327.879	90.11
328.092	59.39
328.305	129.02
328.518	143.36
328.731	71.68
328.944	2.05
329.157	18.43
329.37	59.39
329.583	137.21
329.796	73.73
330.009	-14.34
330.222	65.53
330.435	102.4
330.648	55.3
330.861	20.48
331.073	90.11
331.286	67.58
331.499	47.1
331.712	77.82
331.925	38.91
332.138	53.25
332.35	47.1
332.563	-10.24
332.776	18.43
332.989	47.1
333.202	112.64
333.414	18.43
333.627	88.06
333.84	0
334.053	51.2
334.265	14.34
334.478	-10.24
334.691	83.97
334.903	28.67
335.116	-28.67
335.329	10.24
335.541	-6.14
335.754	8.19
335.966	24.58
336.179	-32.77
336.392	34.82
336.604	55.3
336.817	88.06
337.029	55.3
337.242	-2.05
337.454	-10.24
337.667	43.01
337.88	22.53
338.092	63.49
338.305	65.53
338.517	77.82
338.729	-18.43
338.942	51.2
339.154	-18.43
339.367	88.06
339.579	81.92
339.792	-43.01
340.004	108.54
340.217	63.49
340.429	38.91
340.641	96.25
340.854	36.86
341.066	22.53
341.278	100.35
341.491	88.06
341.703	47.1
341.915	-55.3
342.128	51.2
342.34	16.38
342.552	73.73
342.764	38.91
342.977	-16.38
343.189	20.48
343.401	0
343.613	61.44
343.826	16.38
344.038	38.91
344.25	34.82
344.462	6.14
344.674	38.91
344.886	-2.05
345.099	38.91
345.311	73.73
345.523	-12.29
345.735	-61.44
345.947	16.38
346.159	61.44
346.371	-2.05
346.583	51.2
346.795	71.68
347.007	14.34
347.219	77.82
347.431	63.49
347.643	24.58
347.855	61.44
348.067	59.39
348.279	-24.58
348.491	0
348.703	106.49
348.915	120.83
349.127	34.82
349.339	73.73
349.551	38.91
349.763	49.15
349.975	-30.72
350.187	96.25
350.399	20.48
350.61	73.73
350.822	26.62
351.034	55.3
351.246	88.06
351.458	88.06
351.669	30.72
351.881	79.87
352.093	40.96
352.305	96.25
352.517	51.2
352.728	104.45
352.94	-38.91
353.152	38.91
353.363	55.3
353.575	129.02
353.787	51.2
353.999	14.34
354.21	104.45
354.422	49.15
354.633	47.1
354.845	92.16
355.057	-6.14
355.268	53.25
355.48	75.77
355.692	83.97
355.903	30.72
356.115	-28.67
356.326	-51.2
356.538	8.19
356.749	104.45
356.961	55.3
357.172	-12.29
357.384	73.73
357.595	96.25
357.807	112.64
358.018	-38.91
358.23	26.62
358.441	104.45
358.653	32.77
358.864	-12.29
359.075	55.3
359.287	79.87
359.498	49.15
359.709	36.86
359.921	38.91
360.132	34.82
360.344	57.34
360.555	63.49
360.766	96.25
360.977	59.39
361.189	145.41
361.4	32.77
361.611	63.49
361.823	88.06
362.034	55.3
362.245	0
362.456	26.62
362.667	40.96
362.879	88.06
363.09	67.58
363.301	98.3
363.512	43.01
363.723	81.92
363.935	8.19
364.146	88.06
364.357	10.24
364.568	4.1
364.779	-6.14
364.99	88.06
365.201	26.62
365.412	112.64
365.623	57.34
365.834	65.53
366.045	81.92
366.256	-2.05
366.467	81.92
366.678	32.77
366.889	79.87
367.1	14.34
367.311	75.77
367.522	86.01
367.733	104.45
367.944	108.54
368.155	-22.53
368.366	65.53
368.577	32.77
368.788	71.68
368.999	-12.29
369.209	98.3
369.42	2.05
369.631	77.82
369.842	63.49
370.053	67.58
370.264	96.25
370.474	83.97
370.685	26.62
370.896	32.77
371.107	120.83
371.317	36.86
371.528	55.3
371.739	96.25
371.95	63.49
372.16	24.58
372.371	-6.14
372.582	-26.62
372.792	94.21
373.003	145.41
373.214	98.3
373.424	79.87
373.635	-4.1
373.846	67.58
374.056	71.68
374.267	63.49
374.477	30.72
374.688	79.87
374.898	2.05
375.109	22.53
375.319	63.49
375.53	104.45
375.74	47.1
375.951	81.92
376.161	40.96
376.372	6.14
376.582	34.82
376.793	75.77
377.003	-2.05
377.214	32.77
377.424	88.06
377.635	6.14
377.845	-18.43
378.055	104.45
378.266	0
378.476	45.06
378.686	112.64
378.897	8.19
379.107	129.02
379.317	47.1
379.528	69.63
379.738	112.64
379.948	71.68
380.158	71.68
380.369	24.58
380.579	75.77
380.789	8.19
380.999	65.53
381.21	32.77
381.42	129.02
381.63	30.72
381.84	32.77
382.05	90.11
382.261	98.3
382.471	63.49
382.681	75.77
382.891	108.54
383.101	43.01
383.311	-43.01
383.521	71.68
383.731	100.35
383.941	112.64
384.151	75.77
384.361	26.62
384.571	-2.05
384.781	141.31
384.991	71.68
385.201	81.92
385.411	38.91
385.621	104.45
385.831	65.53
386.041	71.68
386.251	30.72
386.461	83.97
386.671	4.1
386.881	43.01
387.091	8.19
387.301	24.58
387.511	51.2
387.72	49.15
387.93	71.68
388.14	20.48
388.35	75.77
388.56	14.34
388.769	43.01
388.979	71.68
389.189	-10.24
389.399	71.68
389.609	51.2
389.818	75.77
390.028	55.3
390.238	40.96
390.447	38.91
390.657	96.25
390.867	49.15
391.076	57.34
391.286	38.91
391.496	30.72
391.705	67.58
391.915	22.53
392.125	63.49
392.334	147.45
392.544	108.54
392.753	116.73
392.963	-2.05
393.172	96.25
393.382	38.91
393.591	90.11
393.801	73.73
394.01	147.45
394.22	129.02
394.429	116.73
394.639	102.4
394.848	55.3
395.058	108.54
395.267	40.96
395.477	63.49
395.686	6.14
395.895	63.49
396.105	98.3
396.314	12.29
396.524	63.49
396.733	118.78
396.942	104.45
397.152	161.79
397.361	133.12
397.57	71.68
397.78	112.64
397.989	88.06
398.198	139.26
398.407	28.67
398.617	32.77
398.826	65.53
399.035	67.58
399.244	172.03
399.453	65.53
399.663	65.53
399.872	96.25
400.081	6.14
400.29	163.84
400.499	174.08
400.708	133.12
400.917	104.45
401.127	106.49
401.336	149.5
401.545	137.21
401.754	65.53
401.963	155.65
402.172	45.06
402.381	98.3
402.59	151.55
402.799	18.43
403.008	126.97
403.217	161.79
403.426	141.31
403.635	24.58
403.844	114.69
404.053	135.17
404.262	92.16
404.471	137.21
404.68	147.45
404.888	59.39
405.097	104.45
405.306	112.64
405.515	122.88
405.724	151.55
405.933	161.79
406.142	165.89
406.35	219.13
406.559	180.22
406.768	153.6
406.977	92.16
407.185	215.04
407.394	212.99
407.603	151.55
407.812	212.99
408.02	122.88
408.229	129.02
408.438	251.9
408.646	212.99
408.855	229.37
409.064	260.09
409.272	219.13
409.481	268.28
409.69	163.84
409.898	217.08
410.107	311.29
410.315	206.84
410.524	215.04
410.733	210.94
410.941	219.13
411.15	260.09
411.358	276.48
411.567	286.72
411.775	342.01
411.984	366.59
412.192	333.82
412.401	370.68
412.609	350.2
412.818	352.25
413.026	342.01
413.234	362.49
413.443	327.67
413.651	407.55
413.86	399.35
414.068	448.51
414.276	530.42
414.485	393.21
414.693	585.72
414.901	489.46
415.11	450.55
415.318	522.23
415.526	481.27
415.734	532.47
415.943	557.05
416.151	595.96
416.359	589.81
416.567	702.45
416.776	630.77
416.984	714.74
417.192	679.93
417.4	815.09
417.608	686.07
417.817	770.04
418.025	804.85
418.233	849.91
418.441	739.32
418.649	913.39
418.857	948.21
419.065	956.4
419.273	882.67
419.481	987.12
419.689	985.07
419.897	1089.52
420.105	1042.42
420.313	1107.95
420.521	1224.69
420.729	1189.87
420.937	1206.25
421.145	1255.4
421.353	1370.09
421.561	1433.58
421.769	1478.63
421.977	1464.3
422.185	1460.2
422.393	1562.6
422.601	1558.5
422.809	1710.05
423.017	1679.33
423.224	1791.97
423.432	1861.6
423.64	1742.82
423.848	1892.32
424.056	1988.58
424.263	2029.54
424.471	1961.95
424.679	2185.18
424.887	2156.51
425.094	2291.68
425.302	2226.14
425.51	2340.83
425.718	2418.65
425.925	2392.03
426.133	2496.47
426.341	2613.21
426.548	2744.28
426.756	2709.46
426.964	2768.85
427.171	2932.69
427.379	3016.66
427.586	3178.45
427.794	3160.02
428.001	3301.33
428.209	3530.7
428.417	3434.44
428.624	3639.24
428.832	3790.79
429.039	3620.81
429.247	3749.83
429.454	3997.63
429.662	4276.16
429.869	3981.25
430.076	4265.92
430.284	4179.9
430.491	4184
430.699	4472.76
430.906	4480.96
431.114	4577.21
431.321	4700.09
431.528	5035.96
431.736	5361.58
431.943	5425.07
432.15	5150.64
432.358	5402.54
432.565	5699.5
432.772	5519.28
432.979	5941.16
433.187	6129.57
433.394	6055.84
433.601	6619.03
433.808	6379.42
434.016	6442.91
434.223	6606.75
434.43	7198.61
434.637	6987.67
434.844	7423.89
435.052	7534.48
435.259	7317.39
435.466	7665.55
435.673	7421.84
435.88	7792.52
436.087	8361.86
436.294	8353.66
436.501	8085.38
436.708	8406.91
436.915	8667
437.122	9031.54
437.329	8755.07
437.537	9291.63
437.743	9336.69
437.95	9060.21
438.157	9697.13
438.364	9926.5
438.571	9987.94
438.778	9924.46
438.985	11257.68
439.192	10594.14
439.399	10837.85
439.606	10524.51
439.813	11462.48
440.02	12011.34
440.227	11732.81
440.433	11698
440.64	11925.32
440.847	12025.67
441.054	12273.48
441.261	12916.54
441.467	13004.6
441.674	13317.94
441.881	13539.12
442.088	13604.66
442.294	13358.9
442.501	13801.26
442.708	14028.59
442.914	14544.67
443.121	15472.4
443.328	14919.45
443.534	15955.72
443.741	15394.58
443.948	15261.46
444.154	16527.11
444.361	16283.4
444.568	16410.37
444.774	16181
444.981	16541.44
445.187	16856.83
445.394	17686.26
445.6	17475.32
445.807	19402.46
446.013	18384.62
446.22	18583.27
446.426	19433.18
446.633	19502.81
446.839	20453.06
447.046	19478.23
447.252	20520.65
447.459	20264.65
447.665	20352.71
447.871	21706.42
448.078	22116.01
448.284	21014.21
448.491	21665.46
448.697	22765.22
448.903	23152.29
449.11	23178.91
449.316	22832.8
449.522	23205.53
449.728	23705.24
449.935	23991.95
450.141	24184.46
450.347	24360.59
450.553	23840.4
450.76	23907.99
450.966	24878.72
451.172	24745.61
451.378	25482.88
451.584	24792.71
451.791	25542.27
451.997	25437.82
452.203	25597.56
452.409	26019.44
452.615	25593.47
452.821	25005.7
453.027	24544.91
453.233	25683.58
453.44	24993.41
453.646	25200.26
453.852	25464.44
454.058	26189.42
454.264	25153.15
454.47	25126.53
454.676	24733.32
454.882	25460.35
455.088	23549.59
455.294	23905.94
455.5	24340.11
455.705	24405.64
455.911	23297.69
456.117	23074.46
456.323	23043.74
456.529	21878.45
456.735	22423.21
456.941	22003.38
457.147	21804.72
457.352	20956.86
457.558	20985.54
457.764	20811.46
457.97	20496.07
458.176	20184.78
458.381	20164.3
458.587	19089.12
458.793	19011.29
458.999	18032.36
459.204	19488.47
459.41	18859.74
459.616	17825.52
459.821	17657.59
460.027	17696.5
460.233	17321.72
460.438	16373.51
460.644	16445.19
460.85	15898.38
461.055	15771.41
461.261	15603.47
461.466	14475.04
461.672	13913.9
461.878	14888.73
462.083	14176.04
462.289	13776.69
462.494	13768.49
462.7	13121.34
462.905	12769.09
463.111	13285.17
463.316	13324.08
463.522	12846.91
463.727	13016.89
463.932	12859.2
464.138	12621.63
464.343	12947.26
464.549	12343.11
464.754	12719.93
464.959	12496.71
465.165	12672.83
465.37	12226.37
465.575	11673.42
465.781	12195.65
465.986	12271.43
466.191	11784.01
466.397	11442
466.602	10983.26
466.807	11366.23
467.012	11509.58
467.218	11554.64
467.423	11134.81
467.628	11374.42
467.833	11865.93
468.038	11327.32
468.244	11104.09
468.449	11566.93
468.654	11165.53
468.859	11206.48
469.064	11020.12
469.269	10514.27
469.474	10774.36
469.679	10995.54
469.885	10663.77
470.09	10674.01
470.295	10483.55
470.5	10207.08
470.705	10483.55
470.91	10129.25
471.115	10225.51
471.32	10245.99
471.525	10164.07
471.73	9983.85
471.935	9768.81
472.139	9758.57
472.344	9672.56
472.549	9731.95
472.754	9641.84
472.959	9299.83
473.164	9254.77
473.369	9111.41
473.574	9213.81
473.778	9127.8
473.983	9125.75
474.188	9092.98
474.393	8767.35
474.598	8906.62
474.802	8728.44
475.007	8669.05
475.212	8701.82
475.417	8232.83
475.621	8544.13
475.826	8521.6
476.031	8429.44
476.235	8058.76
476.44	8124.29
476.645	8107.91
476.849	8021.89
477.054	7985.03
477.259	7700.36
477.463	7841.67
477.668	7643.02
477.872	7841.67
478.077	7690.12
478.282	7206.8
478.486	7440.27
478.691	7092.12
478.895	7403.41
479.1	7194.51
479.304	7276.43
479.509	7020.44
479.713	7184.27
479.918	7135.12
480.122	6983.57
480.326	7133.08
480.531	6897.56
480.735	7030.68
480.94	6797.21
481.144	7161.75
481.348	6705.05
481.553	6809.5
481.757	6823.83
481.961	6756.25
482.166	6821.78
482.37	6772.63
482.574	6766.49
482.778	6664.09
482.983	6719.39
483.187	6721.43
483.391	6543.26
483.595	6616.99
483.8	6723.48
484.004	6684.57
484.208	6784.92
484.412	6901.65
484.616	6791.06
484.821	6649.75
485.025	6580.12
485.229	6862.74
485.433	6780.82
485.637	6694.81
485.841	6504.35
486.045	6703
486.249	6678.43
486.453	6492.06
486.657	6723.48
486.861	6637.47
487.065	6590.36
487.269	6606.75
487.473	6502.3
487.677	6719.39
487.881	6539.16
488.085	6672.28
488.289	6684.57
488.493	6582.17
488.697	6705.05
488.901	6631.32
489.105	6850.46
489.309	6791.06
489.512	6817.69
489.716	6977.43
489.92	6807.45
490.124	6850.46
490.328	6936.47
490.531	6934.42
490.735	6887.32
490.939	6948.76
491.143	6850.46
491.346	6807.45
491.55	6901.65
491.754	7067.54
491.958	7100.31
492.161	6987.67
492.365	7190.42
492.569	7059.35
492.772	7239.57
492.976	7194.51
493.18	7231.38
493.383	7409.55
493.587	7192.47
493.79	7358.35
493.994	7178.13
494.197	7315.34
494.401	7278.48
494.605	7384.98
494.808	7595.92
495.012	7436.17
495.215	7765.9
495.419	7677.83
495.622	7677.83
495.825	7741.32
496.029	7753.61
496.232	7911.3
496.436	8171.4
496.639	8118.15
496.843	8077.19
497.046	8329.09
497.249	8189.83
497.453	8435.58
497.656	8222.59
497.859	8380.29
498.063	8550.27
498.266	8689.53
498.469	8810.36
498.673	8843.13
498.876	8929.14
499.079	8988.53
499.282	9021.3
499.485	9219.96
499.689	9064.31
499.892	9469.81
500.095	9322.35
500.298	9574.25
500.501	9545.58
500.705	9680.75
500.908	9932.65
501.111	10082.15
501.314	9934.7
501.517	10149.73
501.72	10155.88
501.923	10245.99
502.126	10647.39
502.329	10747.74
502.532	10794.84
502.735	10786.65
502.938	11159.38
503.141	11112.28
503.344	11304.79
503.547	11257.68
503.75	11278.16
503.953	11810.64
504.156	11753.29
504.359	11794.25
504.562	11915.08
504.765	12156.74
504.968	12398.4
505.17	12191.56
505.373	12490.56
505.576	12769.09
505.779	12943.16
505.982	12748.61
506.185	13166.39
506.387	13109.05
506.59	13276.98
506.793	13461.3
506.996	13477.68
507.198	13915.95
507.401	13838.12
507.604	13817.65
507.807	14290.73
508.009	14378.79
508.212	14440.23
508.415	14759.71
508.617	14696.22
508.82	15042.33
509.022	14892.83
509.225	15281.94
509.428	15210.26
509.63	15404.82
509.833	15554.32
510.035	16054.03
510.238	15755.02
510.44	16072.46
510.643	16393.99
510.845	16551.68
511.048	16377.61
511.25	16684.8
511.453	16936.7
511.655	17356.54
511.858	17219.32
512.06	17307.38
512.262	17538.8
512.465	17610.48
512.667	17938.16
512.87	18228.97
513.072	17792.75
513.274	18579.17
513.477	18915.04
513.679	18661.09
513.881	19029.73
514.084	19365.59
514.286	19564.25
514.488	19384.02
514.69	19855.06
514.893	19764.95
515.095	20043.47
515.297	20512.46
515.499	20178.64
515.701	20811.46
515.904	20459.21
516.106	20948.67
516.308	21315.26
516.51	21272.25
516.712	21417.66
516.914	21548.73
517.116	22073.01
517.318	22087.34
517.52	22118.06
517.722	22146.73
517.925	22445.74
518.127	22986.4
518.329	23314.08
518.531	22759.08
518.733	23387.8
518.935	23828.12
519.136	23482.01
519.338	23946.9
519.54	23903.89
519.742	24415.88
519.944	24409.74
520.146	24886.92
520.348	25060.99
520.55	24811.14
520.752	25118.34
520.954	25642.62
521.155	25468.54
521.357	26074.74
521.559	26257.01
521.761	26660.46
521.963	26439.28
522.164	26228.34
522.366	26560.11
522.568	26734.18
522.77	27135.59
522.971	27555.42
523.173	27133.54
523.375	27469.4
523.576	27328.1
523.778	27598.43
523.98	28235.35
524.181	27991.64
524.383	28331.6
524.584	28489.29
524.786	28935.75
524.988	28716.62
525.189	28847.69
525.391	28792.39
525.592	29007.43
525.794	29437.5
525.995	29367.87
526.197	29658.68
526.398	29591.1
526.6	29705.79
526.801	30045.75
527.003	29666.88
527.204	30137.91
527.406	30182.96
527.607	30455.34
527.808	30602.8
528.01	29845.05
528.211	30469.68
528.412	31284.77
528.614	30862.89
528.815	30858.79
529.016	31407.65
529.218	30983.72
529.419	31223.33
529.62	31159.84
529.822	31460.9
530.023	30969.38
530.224	31229.48
530.425	31178.28
530.626	31338.02
530.828	31077.93
531.029	31522.34
531.23	31430.18
531.431	31720.99
531.632	31350.31
531.833	31725.08
532.035	31489.57
532.236	31385.12
532.437	31755.8
532.638	31323.68
532.839	31739.42
533.04	31809.05
533.241	31819.29
533.442	32415.25
533.643	31847.96
533.844	31571.49
534.045	32093.72
534.246	31467.04
534.447	32110.1
534.648	31671.84
534.849	32048.66
535.05	31811.1
535.251	32026.14
535.451	32222.74
535.652	32437.78
535.853	31991.32
536.054	32017.94
536.255	32159.25
536.456	31720.99
536.657	32290.32
536.857	32171.54
537.058	31606.3
537.259	32419.35
537.46	32116.25
537.66	31872.54
537.861	31792.67
538.062	31837.72
538.263	31972.89
538.463	31788.57
538.664	31936.02
538.865	31864.35
539.065	32048.66
539.266	31415.84
539.466	32345.62
539.667	31782.43
539.868	32251.41
540.068	31868.44
540.269	31954.46
540.469	32239.12
540.67	31970.84
540.87	32394.77
541.071	32036.38
541.271	32235.03
541.472	31839.77
541.672	31974.94
541.873	32128.53
542.073	31684.12
542.274	32095.77
542.474	32052.76
542.675	32034.33
542.875	32179.73
543.075	31888.92
543.276	31731.23
543.476	32273.94
543.676	31669.79
543.877	31700.51
544.077	31594.01
544.277	31710.75
544.478	31639.07
544.678	31897.11
544.878	31931.93
545.078	31925.78
545.279	31569.44
545.479	31714.84
545.679	31831.58
545.879	31813.15
546.079	31829.53
546.28	31401.5
546.48	31340.07
546.68	31653.41
546.88	31747.61
547.08	31893.02
547.28	31544.86
547.48	31532.57
547.68	31788.57
547.88	31692.32
548.081	31858.2
548.281	31901.21
548.481	31546.91
548.681	31710.75
548.881	31424.03
549.081	31618.59
549.28	31591.97
549.48	31704.6
549.68	31321.63
549.88	31823.39
550.08	31428.13
550.28	31729.18
550.48	31508
550.68	31477.28
550.88	31413.79
551.08	31307.3
551.279	31495.71
551.479	31206.95
551.679	31708.7
551.879	31356.45
552.079	31469.09
552.278	31325.73
552.478	31532.57
552.678	31671.84
552.878	31671.84
553.077	31395.36
553.277	30936.62
553.477	31761.95
553.676	31374.88
553.876	31178.28
554.076	31204.9
554.275	31165.99
554.475	30926.38
554.674	31295.01
554.874	31303.2
555.074	31288.87
555.273	31247.91
555.473	30959.14
555.672	31000.1
555.872	30961.19
556.071	31272.48
556.271	31155.75
556.47	30688.81
556.67	30670.38
556.869	30647.85
557.068	30946.86
557.268	30463.54
557.467	30572.08
557.667	30711.34
557.866	30486.06
558.065	30567.98
558.265	30451.25
558.464	30578.22
558.663	30823.98
558.863	30498.35
559.062	30877.22
559.261	30203.44
559.461	30592.56
559.66	30373.42
559.859	30264.88
560.058	30137.91
560.258	30176.82
560.457	30398
560.656	30305.84
560.855	30172.72
561.054	29953.59
561.253	29926.97
561.453	30047.8
561.652	30256.69
561.851	30354.99
562.05	29855.29
562.249	29802.04
562.448	29984.31
562.647	30164.53
562.846	29922.87
563.045	29748.79
563.244	29218.37
563.443	29826.62
563.642	29398.59
563.841	29326.91
564.04	29302.34
564.239	29304.38
564.438	29040.2
564.637	29075.01
564.836	29402.69
565.035	28982.85
565.234	29060.68
565.432	28970.57
565.631	29093.44
565.83	29314.62
566.029	28933.7
566.228	28952.13
566.427	28911.17
566.625	28442.19
566.824	28724.81
567.023	28733
567.222	28276.3
567.42	28659.27
567.619	28612.17
567.818	28221.01
568.016	28151.38
568.215	28479.05
568.414	28053.08
568.612	28495.44
568.811	28186.19
569.01	28042.84
569.208	27960.92
569.407	28098.13
569.605	27516.51
569.804	28417.61
570.002	27575.9
570.201	27907.67
570.4	27393.63
570.598	27315.81
570.797	27297.38
570.995	27512.41
571.193	26984.04
571.392	27410.01
571.59	27254.37
571.789	27332.19
571.987	27076.19
572.186	27346.53
572.384	26723.94
572.582	27055.72
572.781	27301.47
572.979	26607.21
573.177	26678.89
573.376	26914.41
573.574	26480.24
573.772	26637.93
573.971	26242.67
574.169	26095.22
574.367	26156.66
574.565	26295.92
574.763	26177.14
574.962	25865.85
575.16	25575.03
575.358	26244.72
575.556	25685.62
575.754	26173.04
575.952	25441.92
576.151	25943.67
576.349	25443.96
576.547	25642.62
576.745	25220.74
576.943	25790.07
577.141	25415.29
577.339	25450.11
577.537	25067.14
577.735	25370.24
577.933	24880.77
578.131	25048.71
578.329	24989.31
578.527	24942.21
578.725	24948.36
578.923	24800.9
579.121	24710.79
579.319	24524.43
579.516	24661.64
579.714	24675.98
579.912	24424.08
580.11	24497.8
580.308	24551.05
580.506	24487.56
580.704	23768.73
580.901	24247.95
581.099	24477.32
581.297	23817.88
581.495	24053.39
581.692	23936.66
581.89	23789.21
582.088	24129.17
582.285	23574.17
582.483	23844.5
582.681	23918.23
582.878	23553.69
583.076	23533.21
583.274	23312.03
583.471	23256.73
583.669	23240.35
583.866	23332.51
584.064	23531.16
584.262	23033.5
584.459	23240.35
584.657	22902.43
584.854	23309.98
585.052	22476.46
585.249	23000.74
585.447	23060.13
585.644	22503.08
585.841	22967.97
586.039	22945.44
586.236	22128.3
586.434	22582.95
586.631	22025.9
586.828	22304.43
587.026	22306.48
587.223	22329
587.42	22052.53
587.618	22179.5
587.815	21825.2
588.012	21829.3
588.21	21634.74
588.407	22124.21
588.604	21690.04
588.801	21528.25
588.999	21941.94
589.196	21409.47
589.393	21620.41
589.59	21292.73
589.787	21522.1
589.984	21196.48
590.182	21153.47
590.379	20975.3
590.576	20815.55
590.773	21159.61
590.97	21040.83
591.167	21051.07
591.364	20817.6
591.561	20852.42
591.758	20711.11
591.955	20563.65
592.152	20825.79
592.349	20651.72
592.546	20627.14
592.743	20752.07
592.94	20215.5
593.137	20285.13
593.334	20354.76
593.531	20072.14
593.727	20285.13
593.924	20227.79
594.121	19900.11
594.318	20172.49
594.515	19844.82
594.712	20184.78
594.908	19918.54
595.105	19865.3
595.302	19476.18
595.499	19885.78
595.696	19709.65
595.892	19574.49
596.089	19723.99
596.286	19271.39
596.482	19285.72
596.679	19672.79
596.876	19615.44
597.072	19115.74
597.269	19138.27
597.466	19039.97
597.662	18788.07
597.859	18923.23
598.055	18759.39
598.252	18796.26
598.448	18945.76
598.645	18777.83
598.841	18589.41
599.038	18593.51
599.234	18523.88
599.431	18487.01
599.627	18372.33
599.824	18568.93
600.02	18386.66
600.217	18366.18
600.413	18202.35
600.609	18433.77
600.806	17946.35
601.002	18188.01
601.198	18067.18
601.395	17925.87
601.591	17923.82
601.787	17846
601.984	17503.99
602.18	17921.77
602.376	17749.75
602.572	17626.87
602.769	17530.61
602.965	17653.49
603.161	17383.16
603.357	17338.1
603.553	17299.19
603.75	17432.31
603.946	17131.26
604.142	17145.59
604.338	17102.59
604.534	17374.97
604.73	17118.97
604.926	17178.36
605.122	17139.45
605.318	16942.85
605.514	16822.02
605.71	16678.66
605.906	16936.7
606.102	16779.01
606.298	16762.62
606.494	16850.69
606.69	16596.74
606.886	16643.84
607.082	16420.61
607.278	16494.34
607.474	16312.07
607.67	16649.99
607.866	16410.37
608.062	16602.88
608.257	16234.25
608.453	16252.68
608.649	16451.33
608.845	16232.2
609.041	15918.86
609.236	16166.67
609.432	16076.55
609.628	15996.68
609.824	15742.74
610.019	15656.72
610.215	16008.97
610.411	15900.43
610.606	15750.93
610.802	15925
610.998	15841.04
611.193	15816.46
611.389	15722.26
611.584	15617.81
611.78	15503.12
611.976	15507.22
612.171	15865.61
612.367	15587.09
612.562	15345.43
612.758	15202.07
612.953	15372.05
613.149	15607.57
613.344	15245.08
613.539	15384.34
613.735	15130.39
613.93	15370.01
614.126	14997.28
614.321	15339.29
614.517	15206.17
614.712	15202.07
614.907	15071
615.103	15163.16
615.298	14878.49
615.493	15214.36
615.688	14765.85
615.884	15046.43
616.079	14700.32
616.274	14634.78
616.47	14890.78
616.665	14876.44
616.86	14751.52
617.055	14810.91
617.25	14694.18
617.445	14903.07
617.641	14429.99
617.836	14649.12
618.031	14427.94
618.226	14731.04
618.421	14477.09
618.616	14573.35
618.811	14386.98
619.006	14489.38
619.201	14159.66
619.396	14315.3
619.591	13895.47
619.786	14014.25
619.981	14010.15
620.176	14122.79
620.371	13895.47
620.566	13872.94
620.761	13760.3
620.956	13758.25
621.151	13715.25
621.346	13717.29
621.541	13510.45
621.735	13532.98
621.93	13322.04
622.125	13502.26
622.32	12918.59
622.515	13285.17
622.709	13139.77
622.904	13279.03
623.099	12949.31
623.294	13070.14
623.488	12853.05
623.683	13092.66
623.878	12621.63
624.072	12601.15
624.267	12801.85
624.462	12343.11
624.656	12543.81
624.851	12498.75
625.046	12492.61
625.24	12234.57
625.435	12187.46
625.629	12169.03
625.824	11947.85
626.018	12142.41
626.213	11808.59
626.407	11990.86
626.602	11835.21
626.796	11829.07
626.991	11753.29
627.185	11450.19
627.38	11730.76
627.574	11474.77
627.768	11456.34
627.963	11310.93
628.157	11476.82
628.352	11417.43
628.546	11192.15
628.74	11200.34
628.935	11009.88
629.129	11188.05
629.323	10811.23
629.517	10757.98
629.712	10876.76
629.906	10946.39
630.1	10708.83
630.294	10690.4
630.489	10616.67
630.683	10598.24
630.877	10532.7
631.071	10411.87
631.265	10557.28
631.459	10143.59
631.653	10405.73
631.848	10147.69
632.042	10086.25
632.236	10055.53
632.43	9998.18
632.624	10153.83
632.818	10018.66
633.012	9836.39
633.206	9795.43
633.4	9854.83
633.594	9705.32
633.788	9811.82
633.982	9785.19
634.176	9934.7
634.369	9799.53
634.563	9533.29
634.757	9488.24
634.951	9389.94
635.145	9492.34
635.339	9516.91
635.533	9387.89
635.726	9199.48
635.92	9207.67
636.114	9133.94
636.308	9101.17
636.501	9189.24
636.695	8953.72
636.889	9074.55
637.083	9039.73
637.276	8877.94
637.47	8890.23
637.664	8693.63
637.857	8822.65
638.051	8675.2
638.244	8732.54
638.438	8699.77
638.632	8462.21
638.825	8327.04
639.019	8435.58
639.212	8257.41
639.406	8413.06
639.599	8318.85
639.793	8320.9
639.986	8028.04
640.18	8292.23
640.373	8107.91
640.567	8009.61
640.76	8003.46
640.954	7972.74
641.147	7917.45
641.34	7956.36
641.534	7993.22
641.727	7917.45
641.92	7702.41
642.114	7595.92
642.307	7673.74
642.5	7686.03
642.694	7501.71
642.887	7575.44
643.08	7702.41
643.273	7577.48
643.467	7454.61
643.66	7354.26
643.853	7337.87
644.046	7444.37
644.239	7301.01
644.432	7219.09
644.626	7208.85
644.819	7276.43
645.012	7282.58
645.205	7131.03
645.398	7036.82
645.591	6971.29
645.784	6911.89
645.977	6899.61
646.17	6999.96
646.363	6887.32
646.556	6989.72
646.749	6786.97
646.942	6971.29
647.135	6600.6
647.328	6764.44
647.521	6694.81
647.714	6641.56
647.907	6543.26
648.099	6555.55
648.292	6608.8
648.485	6356.89
648.678	6395.81
648.871	6500.25
649.064	6193.06
649.256	6377.37
649.449	6297.5
649.642	6203.3
649.835	6150.05
650.027	6158.24
650.22	6223.78
650.413	6305.7
650.605	6172.58
650.798	6059.94
650.991	5928.87
651.183	6055.84
651.376	5978.02
651.568	5945.25
651.761	5971.88
651.954	5875.62
652.146	5969.83
652.339	5887.91
652.531	5660.59
652.724	5650.35
652.916	5644.2
653.109	5560.24
653.301	5633.96
653.494	5691.31
653.686	5437.36
653.879	5486.51
654.071	5550
654.263	5437.36
654.456	5595.05
654.648	5506.99
654.84	5382.06
655.033	5408.69
655.225	5347.25
655.417	5318.57
655.61	5486.51
655.802	5294
655.994	5189.55
656.186	5244.85
656.379	5076.91
656.571	5017.52
656.763	5263.28
656.955	5109.68
657.148	5277.62
657.34	5183.41
657.532	4988.85
657.724	4923.32
657.916	5099.44
658.108	5001.14
658.3	4917.17
658.492	4886.45
658.684	4837.3
658.876	4831.16
659.068	4720.57
659.26	4831.16
659.452	4765.62
659.644	4667.32
659.836	4739
660.028	4681.66
660.22	4511.68
660.412	4634.55
660.604	4487.1
660.796	4587.45
660.988	4466.62
661.18	4560.83
661.372	4298.69
661.563	4558.78
661.755	4294.59
661.947	4327.36
662.139	4382.65
662.331	4366.27
662.522	4329.41
662.714	4302.78
662.906	4323.26
663.097	4364.22
663.289	4224.96
663.481	4206.53
663.673	4292.54
663.864	4173.76
664.056	4120.51
664.247	4188.1
664.439	4046.79
664.631	4186.05
664.822	4095.94
665.014	4138.94
665.205	4188.1
665.397	3993.54
665.588	4145.09
665.78	4087.75
665.971	4028.35
666.163	3930.05
666.354	3798.98
666.546	3921.86
666.737	3805.13
666.929	3825.61
667.12	3848.13
667.311	3778.5
667.503	3700.68
667.694	3784.65
667.885	3848.13
668.077	3692.49
668.268	3741.64
668.459	3827.65
668.651	3579.85
668.842	3577.8
669.033	3665.86
669.224	3708.87
669.416	3667.91
669.607	3487.69
669.798	3583.95
669.989	3653.58
670.18	3594.19
670.371	3489.74
670.563	3454.92
670.754	3440.59
670.945	3502.03
671.136	3432.4
671.327	3440.59
671.518	3489.74
671.709	3487.69
671.9	3518.41
672.091	3377.1
672.282	3203.02
672.473	3334.09
672.664	3426.25
672.855	3364.81
673.046	3246.03
673.237	3350.48
673.428	3241.93
673.619	3332.05
673.809	3252.17
674	3323.85
674.191	3307.47
674.382	3262.41
674.573	3127.25
674.764	3133.39
674.954	3184.59
675.145	3002.32
675.336	3213.26
675.527	3153.87
675.717	3123.15
675.908	3057.62
676.099	3088.34
676.289	3203.02
676.48	3061.71
676.671	2963.41
676.861	3016.66
677.052	2979.79
677.243	3012.56
677.433	3037.14
677.624	3071.95
677.814	2899.92
678.005	2992.08
678.195	3033.04
678.386	3014.61
678.576	2963.41
678.767	2965.46
678.957	3047.38
679.148	2869.2
679.338	3012.56
679.529	2947.03
679.719	2928.6
679.909	2897.88
680.1	2830.29
680.29	2856.92
680.481	2791.38
680.671	2842.58
680.861	2848.72
681.052	2873.3
681.242	2684.89
681.432	2922.45
681.622	2848.72
681.813	2799.57
682.003	2828.24
682.193	2729.94
682.383	2842.58
682.573	2824.15
682.764	2719.7
682.954	2772.95
683.144	2750.42
683.334	2809.81
683.524	2906.07
683.714	2832.34
683.904	2688.98
684.094	2742.23
684.284	2734.04
684.474	2777.05
684.664	2701.27
684.854	2820.05
685.044	2719.7
685.234	2607.06
685.424	2668.5
685.614	2508.76
685.804	2664.41
685.994	2641.88
686.184	2617.3
686.374	2664.41
686.564	2688.98
686.753	2615.26
686.943	2580.44
687.133	2533.34
687.323	2572.25
687.513	2539.48
687.702	2617.3
687.892	2447.32
688.082	2543.58
688.272	2467.8
688.461	2555.86
688.651	2480.09
688.841	2498.52
689.03	2588.63
689.22	2570.2
689.41	2435.03
689.599	2432.99
689.789	2471.9
689.979	2510.81
690.168	2416.6
690.358	2414.56
690.547	2318.3
690.737	2330.59
690.926	2400.22
691.116	2287.58
691.305	2447.32
691.495	2293.72
691.684	2283.49
691.874	2308.06
692.063	2385.88
692.252	2385.88
692.442	2320.35
692.631	2220
692.82	2281.44
693.01	2203.61
693.199	2168.8
693.388	2246.62
693.578	2189.28
693.767	2234.33
693.956	2140.13
694.146	2185.18
694.335	2254.81
694.524	2078.69
694.713	2127.84
694.902	2250.72
695.092	2152.42
695.281	2189.28
695.47	2187.23
695.659	2064.35
695.848	2041.82
696.037	2119.65
696.226	2148.32
696.415	2115.55
696.604	2189.28
696.793	2031.58
696.982	2103.26
697.171	2158.56
697.36	2125.79
697.549	2174.94
697.738	2113.5
697.927	1974.24
698.116	2031.58
698.305	2176.99
698.494	2107.36
698.683	2029.54
698.872	2138.08
699.061	1996.77
699.25	1988.58
699.438	2023.39
699.627	2127.84
699.816	2082.78
700.005	2033.63
700.193	1964
700.382	2127.84
700.571	1931.23
700.76	2072.54
700.948	2058.21
701.137	1906.66
701.326	1961.95
701.514	1982.43
701.703	1988.58
701.892	2017.25
702.08	2080.74
702.269	1910.75
702.457	1947.62
702.646	2107.36
702.834	1822.69
703.023	2037.73
703.212	1998.82
703.4	1943.52
703.589	1923.04
703.777	1994.72
703.965	1941.47
704.154	2021.35
704.342	1978.34
704.531	1830.88
704.719	1933.28
704.907	1986.53
705.096	1998.82
705.284	1859.56
705.472	1947.62
705.661	1906.66
705.849	1972.19
706.037	1957.86
706.226	1816.55
706.414	1894.37
706.602	1873.89
706.79	2064.35
706.979	1951.71
707.167	1943.52
707.355	1839.08
707.543	1920.99
707.731	1910.75
707.919	1902.56
708.107	1865.7
708.296	1841.12
708.484	1964
708.672	1982.43
708.86	1826.79
709.048	1906.66
709.236	1892.32
709.424	1978.34
709.612	1939.43
709.8	1845.22
709.988	2023.39
710.176	1955.81
710.364	1910.75
710.551	1865.7
710.739	1873.89
710.927	1904.61
711.115	1902.56
711.303	1994.72
711.491	1972.19
711.679	1873.89
711.866	1980.39
712.054	1923.04
712.242	1853.41
712.43	1900.51
712.617	1927.14
712.805	1818.6
712.993	1996.77
713.181	1814.5
713.368	1877.99
713.556	1800.16
713.744	1808.36
713.931	1918.95
714.119	1937.38
714.306	1839.08
714.494	1888.23
714.682	1904.61
714.869	1820.64
715.057	1865.7
715.244	1800.16
715.432	1918.95
715.619	1877.99
715.807	1990.63
715.994	1908.71
716.182	1933.28
716.369	1873.89
716.556	1939.43
716.744	1867.75
716.931	1837.03
717.119	1877.99
717.306	1789.92
717.493	1972.19
717.681	1908.71
717.868	1902.56
718.055	1857.51
718.242	1816.55
718.43	1771.49
718.617	1818.6
718.804	1824.74
718.991	1859.56
719.179	1847.27
719.366	1916.9
719.553	1888.23
719.74	1826.79
719.927	1920.99
720.114	1785.83
720.301	1843.17
720.488	1783.78
720.676	1886.18
720.863	1755.11
721.05	1798.12
721.237	1896.42
721.424	1857.51
721.611	1976.29
721.798	1771.49
721.985	1851.36
722.172	1791.97
722.358	1861.6
722.545	1781.73
722.732	1875.94
722.919	1820.64
723.106	1800.16
723.293	1931.23
723.48	1775.59
723.667	1828.84
723.853	1845.22
724.04	1863.65
724.227	1826.79
724.414	1923.04
724.6	1886.18
724.787	1863.65
724.974	1853.41
725.161	1785.83
725.347	1777.64
725.534	1736.68
725.72	1746.92
725.907	1818.6
726.094	1890.28
726.28	1843.17
726.467	1851.36
726.653	1863.65
726.84	1923.04
727.027	1923.04
727.213	1796.07
727.4	1779.68
727.586	1873.89
727.773	1859.56
727.959	1955.81
728.145	1931.23
728.332	1734.63
728.518	1890.28
728.705	1837.03
728.891	1849.32
729.077	1824.74
729.264	1724.39
729.45	1861.6
729.636	1826.79
729.823	1679.33
730.009	1886.18
730.195	1834.98
730.382	1947.62
730.568	1898.47
730.754	1796.07
730.94	1759.21
731.126	1810.4
731.313	1820.64
731.499	1886.18
731.685	1820.64
731.871	1849.32
732.057	1826.79
732.243	1720.29
732.429	1857.51
732.615	1744.87
732.801	1773.54
732.987	1832.93
733.173	1769.44
733.359	1820.64
733.545	1744.87
733.731	1796.07
733.917	1877.99
734.103	1873.89
734.289	1751.01
734.475	1697.77
734.661	1806.31
734.847	1710.05
735.033	1718.25
735.219	1761.25
735.404	1783.78
735.59	1710.05
735.776	1744.87
735.962	1769.44
736.148	1814.5
736.333	1791.97
736.519	1824.74
736.705	1718.25
736.89	1787.88
737.076	1759.21
737.262	1783.78
737.447	1765.35
737.633	1675.24
737.819	1712.1
738.004	1718.25
738.19	1738.73
738.375	1751.01
738.561	1761.25
738.747	1759.21
738.932	1767.4
739.118	1787.88
739.303	1716.2
739.489	1648.61
739.674	1632.23
739.859	1669.09
740.045	1765.35
740.23	1742.82
740.416	1578.98
740.601	1628.14
740.786	1632.23
740.972	1615.85
741.157	1677.29
741.342	1746.92
741.528	1726.44
741.713	1644.52
741.898	1669.09
742.084	1566.7
742.269	1652.71
742.454	1628.14
742.639	1583.08
742.824	1689.57
743.01	1574.89
743.195	1689.57
743.38	1546.22
743.565	1517.54
743.75	1595.37
743.935	1615.85
744.12	1638.37
744.305	1433.58
744.49	1538.02
744.675	1562.6
744.86	1542.12
745.045	1558.5
745.23	1560.55
745.415	1546.22
745.6	1570.79
745.785	1476.59
745.97	1521.64
746.155	1546.22
746.34	1492.97
746.525	1433.58
746.71	1495.02
746.895	1435.63
747.079	1454.06
747.264	1462.25
747.449	1433.58
747.634	1333.23
747.819	1402.86
748.003	1392.62
748.188	1439.72
748.373	1429.48
748.557	1411.05
748.742	1425.39
748.927	1327.08
749.111	1259.5
749.296	1333.23
749.481	1386.47
749.665	1337.32
749.85	1351.66
750.034	1341.42
750.219	1335.28
750.404	1296.36
750.588	1388.52
750.773	1245.16
750.957	1265.64
751.141	1181.68
751.326	1300.46
751.51	1251.31
751.695	1269.74
751.879	1271.79
752.064	1128.43
752.248	1267.69
752.432	1257.45
752.617	1286.12
752.801	1251.31
752.985	1226.73
753.17	1302.51
753.354	1218.54
753.538	1265.64
753.722	1120.24
753.907	1120.24
754.091	1112.05
754.275	1253.36
754.459	1083.38
754.643	1116.14
754.828	1169.39
755.012	1087.47
755.196	1097.71
755.38	1157.1
755.564	1066.99
755.748	1017.84
755.932	1038.32
756.116	1058.8
756.3	1073.14
756.484	993.26
756.668	1066.99
756.852	1046.51
757.036	1030.13
757.22	1007.6
757.404	1038.32
757.588	1046.51
757.772	976.88
757.956	1001.46
758.14	1038.32
758.323	1017.84
758.507	946.16
758.691	1040.37
758.875	966.64
759.059	1042.42
759.242	931.83
759.426	983.02
759.61	962.55
759.794	1005.55
759.977	989.17
760.161	1032.18
760.345	1005.55
760.528	935.92
760.712	972.79
760.895	890.87
761.079	894.96
761.263	892.91
761.446	901.11
761.63	882.67
761.813	851.95
761.997	899.06
762.18	880.63
762.364	917.49
762.547	866.29
762.731	837.62
762.914	868.34
763.098	931.83
763.281	888.82
763.464	794.61
763.648	942.07
763.831	837.62
764.015	870.39
764.198	915.44
764.381	782.32
764.564	866.29
764.748	804.85
764.931	886.77
765.114	808.95
765.297	866.29
765.481	735.22
765.664	792.56
765.847	833.52
766.03	800.76
766.213	716.79
766.397	829.43
766.58	784.37
766.763	858.1
766.946	755.7
767.129	806.9
767.312	753.65
767.495	743.41
767.678	776.18
767.861	755.7
768.044	770.04
768.227	819.19
768.41	657.4
768.593	782.32
768.776	708.6
768.959	686.07
769.142	755.7
769.324	794.61
769.507	712.69
769.69	776.18
769.873	665.59
770.056	833.52
770.239	804.85
770.421	710.65
770.604	800.76
770.787	798.71
770.97	688.12
771.152	600.05
771.335	638.97
771.518	708.6
771.7	796.66
771.883	727.03
772.066	655.35
772.248	655.35
772.431	696.31
772.613	679.93
772.796	645.11
772.978	661.49
773.161	745.46
773.343	624.63
773.526	645.11
773.708	702.45
773.891	565.24
774.073	669.69
774.256	641.01
774.438	741.36
774.621	677.88
774.803	663.54
774.985	669.69
775.168	632.82
775.35	616.44
775.532	622.58
775.715	612.34
775.897	706.55
776.079	577.53
776.261	612.34
776.444	677.88
776.626	534.52
776.808	563.19
776.99	571.38
777.173	638.97
777.355	671.73
777.537	499.7
777.719	624.63
777.901	587.77
778.083	567.29
778.265	579.58
778.447	653.3
778.629	573.43
778.811	569.34
778.993	540.66
779.175	538.62
779.357	481.27
779.539	587.77
779.721	532.47
779.903	466.94
780.085	555
780.267	534.52
780.449	567.29
780.631	518.14
780.812	538.62
780.994	571.38
781.176	548.86
781.358	538.62
781.54	552.95
781.721	620.53
781.903	483.32
782.085	497.66
782.267	522.23
782.448	475.13
782.63	530.42
782.812	464.89
782.993	516.09
783.175	493.56
783.357	434.17
783.538	552.95
783.72	374.78
783.901	409.59
784.083	481.27
784.264	382.97
784.446	473.08
784.627	374.78
784.809	409.59
784.99	434.17
785.172	391.16
785.353	366.59
785.535	368.63
785.716	350.2
785.897	352.25
786.079	399.35
786.26	403.45
786.441	337.91
786.623	376.83
786.804	374.78
786.985	401.4
787.167	432.12
787.348	360.44
787.529	309.24
787.71	405.5
787.891	382.97
788.073	423.93
788.254	268.28
788.435	423.93
788.616	362.49
788.797	346.11
788.978	391.16
789.159	323.58
789.34	425.98
789.522	307.2
789.703	329.72
789.884	317.44
790.065	346.11
790.246	356.35
790.427	311.29
790.607	344.06
790.788	290.81
790.969	352.25
791.15	292.86
791.331	284.67
791.512	303.1
791.693	249.85
791.874	194.56
792.054	372.73
792.235	301.05
792.416	329.72
792.597	296.96
792.778	311.29
792.958	268.28
793.139	284.67
793.32	313.34
793.5	270.33
793.681	395.26
793.862	329.72
794.042	253.95
794.223	198.65
794.404	313.34
794.584	272.38
794.765	272.38
794.945	231.42
795.126	305.15
795.306	354.3
795.487	227.32
795.667	243.71
795.848	292.86
796.028	260.09
796.209	210.94
796.389	292.86
796.57	227.32
796.75	223.23
796.93	188.41
797.111	262.14
797.291	268.28
797.471	253.95
797.652	229.37
797.832	251.9
798.012	292.86
798.192	229.37
798.373	256
798.553	239.61
798.733	239.61
798.913	303.1
799.093	188.41
799.274	247.8
799.454	313.34
799.634	239.61
799.814	268.28
799.994	212.99
800.174	219.13
800.354	227.32
800.534	194.56
800.714	229.37
800.894	169.98
801.074	202.75
801.254	264.19
801.434	266.24
801.614	184.32
801.794	124.93
801.974	743.41
802.154	202.75
802.334	235.52
802.514	153.6
802.693	120.83
802.873	233.47
803.053	169.98
803.233	245.76
803.413	194.56
803.592	169.98
803.772	215.04
803.952	196.61
804.131	165.89
804.311	235.52
804.491	149.5
804.67	92.16
804.85	176.13
805.03	139.26
805.209	221.18
805.389	163.84
805.568	186.37
805.748	204.8
805.928	157.69
806.107	227.32
806.287	256
806.466	147.45
806.646	157.69
806.825	137.21
807.004	151.55
807.184	157.69
807.363	206.84
807.543	196.61
807.722	131.07
807.901	245.76
808.081	194.56
808.26	120.83
808.439	157.69
808.619	217.08
808.798	172.03
808.977	151.55
809.156	223.23
809.336	135.17
809.515	135.17
809.694	106.49
809.873	172.03
810.052	129.02
810.231	157.69
810.411	165.89
810.59	237.56
810.769	149.5
810.948	114.69
811.127	34.82
811.306	88.06
811.485	114.69
811.664	206.84
811.843	73.73
812.022	172.03
812.201	104.45
812.38	141.31
812.559	73.73
812.737	124.93
812.916	153.6
813.095	51.2
813.274	116.73
813.453	106.49
813.632	102.4
813.811	243.71
813.989	124.93
814.168	212.99
814.347	90.11
814.526	198.65
814.704	122.88
814.883	163.84
815.062	161.79
815.24	137.21
815.419	63.49
815.598	147.45
815.776	51.2
815.955	243.71
816.133	86.01
816.312	155.65
816.49	139.26
816.669	131.07
816.847	202.75
817.026	165.89
817.204	67.58
817.383	182.27
817.561	18.43
817.74	149.5
817.918	98.3
818.097	122.88
818.275	161.79
818.453	55.3
818.632	126.97
818.81	169.98
818.988	110.59
819.167	137.21
819.345	90.11
819.523	129.02
819.701	153.6
819.879	155.65
820.058	155.65
820.236	149.5
820.414	120.83
820.592	141.31
820.77	73.73
820.948	157.69
821.127	104.45
821.305	137.21
821.483	51.2
821.661	137.21
821.839	124.93
822.017	116.73
822.195	112.64
822.373	190.46
822.551	104.45
822.729	108.54
822.907	116.73
823.085	133.12
823.262	182.27
823.44	79.87
823.618	26.62
823.796	153.6
823.974	83.97
824.152	55.3
824.329	81.92
824.507	110.59
824.685	79.87
824.863	98.3
825.04	6.14
825.218	71.68
825.396	81.92
825.574	110.59
825.751	122.88
825.929	129.02
826.107	30.72
826.284	114.69
826.462	81.92
826.639	57.34
826.817	49.15
826.994	96.25
827.172	18.43
827.349	104.45
827.527	75.77
827.704	120.83
827.882	104.45
828.059	79.87
828.237	83.97
828.414	114.69
828.591	92.16
828.769	30.72
828.946	34.82
829.124	126.97
829.301	88.06
829.478	94.21
829.655	118.78
829.833	65.53
830.01	88.06
830.187	137.21
830.364	169.98
830.542	49.15
830.719	126.97
830.896	67.58
831.073	96.25
831.25	110.59
831.427	92.16
831.604	55.3
831.782	47.1
831.959	63.49
832.136	126.97
832.313	94.21
832.49	10.24
832.667	98.3
832.844	63.49
833.021	114.69
833.198	45.06
833.374	59.39
833.551	106.49
833.728	65.53
833.905	110.59
834.082	79.87
834.259	90.11
834.436	81.92
834.612	81.92
834.789	47.1
834.966	65.53
835.143	108.54
835.319	38.91
835.496	104.45
835.673	96.25
835.85	157.69
836.026	38.91
836.203	139.26
836.38	38.91
836.556	90.11
836.733	22.53
836.909	147.45
837.086	108.54
837.262	20.48
837.439	22.53
837.616	30.72
837.792	65.53
837.968	83.97
838.145	-24.58
838.321	92.16
838.498	98.3
838.674	145.41
838.851	38.91
839.027	6.14
839.203	26.62
839.38	88.06
839.556	59.39
839.732	65.53
839.909	96.25
840.085	45.06
840.261	71.68
840.437	96.25
840.614	96.25
840.79	24.58
840.966	100.35
841.142	24.58
841.318	88.06
841.494	59.39
841.671	83.97
841.847	83.97
842.023	32.77
842.199	24.58
842.375	180.22
842.551	75.77
842.727	18.43
842.903	63.49
843.079	47.1
843.255	38.91
843.431	55.3
843.607	55.3
843.783	30.72
843.959	8.19
844.134	-12.29
844.31	124.93
844.486	57.34
844.662	40.96
844.838	38.91
845.013	55.3
845.189	55.3
845.365	79.87
845.541	59.39
845.716	30.72
845.892	55.3
846.068	47.1
846.244	30.72
846.419	55.3
846.595	6.14
846.77	49.15
846.946	96.25
847.122	73.73
847.297	45.06
847.473	92.16
847.648	6.14
847.824	145.41
847.999	73.73
848.175	77.82
848.35	6.14
848.526	79.87
848.701	16.38
848.876	96.25
849.052	92.16
849.227	88.06
849.403	71.68
849.578	22.53
849.753	88.06
849.929	16.38
850.104	-57.34
850.279	71.68
850.454	6.14
850.63	92.16
850.805	75.77
850.98	104.45
851.155	55.3
851.33	2.05
851.505	55.3
851.681	83.97
851.856	16.38
852.031	90.11
852.206	83.97
852.381	6.14
852.556	59.39
852.731	-2.05
852.906	34.82
853.081	30.72
853.256	86.01
853.431	-14.34
853.606	14.34
853.781	51.2
853.956	6.14
854.131	34.82
854.305	18.43
854.48	75.77
854.655	10.24
854.83	14.34
855.005	38.91
855.18	34.82
855.354	32.77
855.529	38.91
855.704	0
855.879	92.16
856.053	106.49
856.228	81.92
856.403	57.34
856.577	94.21
856.752	34.82
856.926	26.62
857.101	-8.19
857.276	63.49
857.45	4.1
857.625	40.96
857.799	90.11
857.974	14.34
858.148	63.49
858.323	55.3
858.497	-10.24
858.672	18.43
858.846	-12.29
859.02	88.06
859.195	40.96
859.369	22.53
859.543	59.39
859.718	10.24
859.892	6.14
860.066	67.58
860.241	63.49
860.415	32.77
860.589	28.67
860.763	38.91
860.938	71.68
861.112	-18.43
861.286	-32.77
861.46	-6.14
861.634	69.63
861.808	65.53
861.982	12.29
862.157	6.14
862.331	47.1
862.505	6.14
862.679	-22.53
862.853	38.91
863.027	51.2
863.201	100.35
863.375	-6.14
863.549	55.3
863.722	61.44
863.896	65.53
864.07	-67.58
864.244	59.39
864.418	63.49
864.592	55.3
864.766	38.91
864.939	51.2
865.113	51.2
865.287	14.34
865.461	-14.34
865.634	61.44
865.808	22.53
865.982	34.82
866.156	16.38
866.329	-16.38
866.503	6.14
866.676	81.92
866.85	26.62
867.024	57.34
867.197	49.15
867.371	104.45
867.544	6.14
867.718	-104.45
867.891	65.53
868.065	8.19
868.238	-2.05
868.412	73.73
868.585	40.96
868.759	6.14
868.932	22.53
869.105	14.34
869.279	2.05
869.452	-43.01
869.625	59.39
869.799	96.25
869.972	24.58
870.145	79.87
870.319	30.72
870.492	49.15
870.665	-18.43
870.838	32.77
871.011	-30.72
871.185	34.82
871.358	14.34
871.531	12.29
871.704	30.72
871.877	24.58
872.05	-6.14
872.223	-36.86
872.396	139.26
872.569	75.77
872.742	-47.1
872.915	10.24
873.088	-40.96
873.261	-26.62
873.434	-22.53
873.607	55.3
873.78	40.96
873.953	65.53
874.126	-10.24
874.299	2.05
874.471	14.34
874.644	90.11
874.817	-18.43
874.99	79.87
875.163	59.39
875.335	2.05
875.508	73.73
875.681	75.77
875.853	10.24
876.026	51.2
876.199	-8.19
876.371	-24.58
876.544	-51.2
876.717	77.82
876.889	49.15
877.062	30.72
877.234	-24.58
877.407	-4.1
877.579	108.54
877.752	47.1
877.924	59.39
878.097	-26.62
878.269	-22.53
878.442	71.68
878.614	24.58
878.786	0
878.959	129.02
879.131	47.1
879.303	10.24
879.476	22.53
879.648	36.86
879.82	24.58
879.993	40.96
880.165	79.87
880.337	-18.43
880.509	-30.72
880.681	0
880.854	2.05
881.026	-10.24
881.198	43.01
881.37	40.96
881.542	-40.96
881.714	-34.82
881.886	-26.62
882.058	-2.05
882.23	-65.54
882.402	86.01
882.574	45.06
882.746	98.3
882.918	96.25
883.09	-24.58
883.262	-10.24
883.434	43.01
883.606	38.91
883.778	-16.38
883.95	36.86
884.122	-43.01
884.293	32.77
884.465	-8.19
884.637	18.43
884.809	40.96
884.98	24.58
885.152	-47.1
885.324	10.24
885.496	-45.06
885.667	92.16
885.839	10.24
886.011	38.91
886.182	65.53
886.354	32.77
886.525	16.38
886.697	12.29
886.869	8.19
887.04	59.39
887.212	61.44
887.383	57.34
887.555	-30.72
887.726	38.91
887.897	-10.24
888.069	32.77
888.24	63.49
888.412	6.14
888.583	2.05
888.754	28.67
888.926	-2.05
889.097	73.73
889.268	-10.24
889.44	30.72
889.611	32.77
889.782	4.1
889.953	-2.05
890.125	55.3
890.296	-6.14
890.467	-6.14
890.638	26.62
890.809	43.01
890.98	63.49
891.151	-18.43
891.323	47.1
891.494	100.35
891.665	6.14
891.836	47.1
892.007	-14.34
892.178	96.25
892.349	40.96
892.52	-10.24
892.691	22.53
892.862	67.58
893.032	-6.14
893.203	6.14
893.374	-18.43
893.545	63.49
893.716	8.19
893.887	30.72
894.057	-26.62
894.228	18.43
894.399	32.77
894.57	2.05
894.74	-14.34
894.911	-26.62
895.082	-10.24
895.253	45.06
895.423	-30.72
895.594	75.77
895.764	36.86
895.935	-6.14
896.106	75.77
896.276	-18.43
896.447	8.19
896.617	94.21
896.788	-24.58
896.958	-28.67
897.129	38.91
897.299	8.19
897.47	38.91
897.64	6.14
897.81	63.49
897.981	-36.86
898.151	47.1
898.322	55.3
898.492	30.72
898.662	-10.24
898.832	-49.15
899.003	24.58
899.173	24.58
899.343	22.53
899.513	-55.3
