Data from USB4F104151__122__14-43-57-429.txt Node

Date: Thu Mar 13 14:43:57 EDT 2025
User: louis
Spectrometer: USB4F10415
Trigger mode: 4
Integration Time (sec): 2.000000E-2
Scans to average: 1
Electric dark correction enabled: true
Nonlinearity correction enabled: false
Boxcar width: 0
XAxis mode: Wavelengths
Number of Pixels in Spectrum: 3648
>>>>>Begin Spectral Data<<<<<
178.204	-89.94
178.424	-89.94
178.644	-89.94
178.864	-188.24
179.084	-157.52
179.304	-24.4
179.524	-46.93
179.744	-67.41
179.964	-16.21
180.184	61.61
180.404	49.32
180.624	0.17
180.844	16.55
181.064	-26.45
181.283	59.56
181.503	-71.51
181.723	65.71
181.943	-83.8
182.163	65.71
182.383	8.36
182.602	49.32
182.822	41.13
183.042	16.55
183.262	-5.97
183.482	-5.97
183.701	-32.6
183.921	41.13
184.141	22.7
184.361	32.94
184.58	14.51
184.8	-26.45
185.02	0.17
185.239	53.42
185.459	18.6
185.679	90.28
185.898	-10.07
186.118	41.13
186.338	-5.97
186.557	-12.12
186.777	-14.17
186.997	59.56
187.216	51.37
187.436	43.18
187.655	-24.4
187.875	34.99
188.095	-1.88
188.314	51.37
188.534	24.75
188.753	-8.02
188.973	24.75
189.192	16.55
189.412	43.18
189.631	-24.4
189.851	-32.6
190.07	94.38
190.29	24.75
190.509	-36.69
190.729	-22.36
190.948	53.42
191.168	104.62
191.387	43.18
191.607	22.7
191.826	24.75
192.045	71.85
192.265	0.17
192.484	53.42
192.704	-14.17
192.923	-20.31
193.142	59.56
193.362	20.65
193.581	8.36
193.8	32.94
194.02	112.81
194.239	-8.02
194.458	-8.02
194.678	-20.31
194.897	51.37
195.116	6.31
195.335	-16.21
195.555	30.89
195.774	6.31
195.993	26.79
196.212	10.41
196.432	-30.55
196.651	37.03
196.87	10.41
197.089	157.86
197.308	4.27
197.528	73.9
197.747	-3.93
197.966	32.94
198.185	57.51
198.404	-8.02
198.623	-40.79
198.842	-5.97
199.062	41.13
199.281	8.36
199.5	-61.27
199.719	57.51
199.938	45.23
200.157	43.18
200.376	55.47
200.595	63.66
200.814	10.41
201.033	-38.74
201.252	55.47
201.471	59.56
201.69	94.38
201.909	57.51
202.128	8.36
202.347	-3.93
202.566	-38.74
202.785	98.47
203.004	-28.5
203.223	90.28
203.442	-16.21
203.661	32.94
203.879	30.89
204.098	-12.12
204.317	12.46
204.536	24.75
204.755	28.84
204.974	65.71
205.193	24.75
205.411	84.14
205.63	100.52
205.849	10.41
206.068	-36.69
206.287	30.89
206.505	49.32
206.724	2.22
206.943	-44.88
207.162	82.09
207.381	53.42
207.599	-20.31
207.818	73.9
208.037	-8.02
208.255	53.42
208.474	2.22
208.693	-16.21
208.911	-26.45
209.13	28.84
209.349	116.9
209.567	53.42
209.786	-32.6
210.005	-8.02
210.223	24.75
210.442	24.75
210.661	18.6
210.879	0.17
211.098	2.22
211.316	61.61
211.535	57.51
211.753	32.94
211.972	28.84
212.191	-12.12
212.409	106.67
212.628	16.55
212.846	-77.65
213.065	0.17
213.283	22.7
213.502	4.27
213.72	-14.17
213.938	41.13
214.157	2.22
214.375	20.65
214.594	49.32
214.812	57.51
215.031	-12.12
215.249	32.94
215.467	45.23
215.686	-73.56
215.904	65.71
216.122	-20.31
216.341	43.18
216.559	-3.93
216.778	28.84
216.996	8.36
217.214	18.6
217.432	-5.97
217.651	2.22
217.869	-8.02
218.087	45.23
218.306	-24.4
218.524	26.79
218.742	32.94
218.96	16.55
219.179	-22.36
219.397	43.18
219.615	49.32
219.833	82.09
220.051	-24.4
220.27	94.38
220.488	2.22
220.706	14.51
220.924	8.36
221.142	67.75
221.36	24.75
221.578	8.36
221.796	-28.5
222.015	4.27
222.233	-28.5
222.451	14.51
222.669	16.55
222.887	24.75
223.105	82.09
223.323	-12.12
223.541	4.27
223.759	20.65
223.977	-22.36
224.195	73.9
224.413	-12.12
224.631	-20.31
224.849	4.27
225.067	51.37
225.285	41.13
225.503	43.18
225.721	-36.69
225.939	-32.6
226.157	65.71
226.375	67.75
226.592	-32.6
226.81	-5.97
227.028	12.46
227.246	41.13
227.464	-24.4
227.682	80.04
227.9	51.37
228.117	37.03
228.335	0.17
228.553	-53.08
228.771	71.85
228.989	37.03
229.206	20.65
229.424	-61.27
229.642	2.22
229.86	-38.74
230.077	51.37
230.295	0.17
230.513	82.09
230.731	-5.97
230.948	73.9
231.166	41.13
231.384	-16.21
231.601	0.17
231.819	49.32
232.037	0.17
232.254	0.17
232.472	18.6
232.689	53.42
232.907	73.9
233.125	-8.02
233.342	2.22
233.56	114.86
233.777	0.17
233.995	2.22
234.213	53.42
234.43	2.22
234.648	16.55
234.865	-28.5
235.083	22.7
235.3	-3.93
235.518	6.31
235.735	24.75
235.953	100.52
236.17	-16.21
236.388	-57.17
236.605	-3.93
236.822	10.41
237.04	30.89
237.257	24.75
237.475	12.46
237.692	12.46
237.909	8.36
238.127	12.46
238.344	-65.36
238.562	-1.88
238.779	-18.26
238.996	41.13
239.214	12.46
239.431	12.46
239.648	26.79
239.865	-14.17
240.083	61.61
240.3	26.79
240.517	6.31
240.735	-5.97
240.952	82.09
241.169	84.14
241.386	34.99
241.603	-30.55
241.821	41.13
242.038	20.65
242.255	98.47
242.472	-32.6
242.689	43.18
242.907	49.32
243.124	-75.6
243.341	43.18
243.558	-53.08
243.775	37.03
243.992	-8.02
244.209	-40.79
244.426	14.51
244.643	16.55
244.86	4.27
245.078	106.67
245.295	0.17
245.512	67.75
245.729	-8.02
245.946	-16.21
246.163	-18.26
246.38	28.84
246.597	90.28
246.814	-34.64
247.031	24.75
247.248	20.65
247.464	24.75
247.681	-20.31
247.898	8.36
248.115	-26.45
248.332	-36.69
248.549	8.36
248.766	98.47
248.983	84.14
249.2	34.99
249.417	-14.17
249.633	26.79
249.85	49.32
250.067	2.22
250.284	102.57
250.501	39.08
250.717	20.65
250.934	-5.97
251.151	-12.12
251.368	-36.69
251.585	32.94
251.801	24.75
252.018	-5.97
252.235	-16.21
252.451	-30.55
252.668	26.79
252.885	0.17
253.102	49.32
253.318	-14.17
253.535	49.32
253.752	37.03
253.968	-5.97
254.185	-73.56
254.401	26.79
254.618	10.41
254.835	-8.02
255.051	61.61
255.268	-14.17
255.484	12.46
255.701	86.19
255.917	12.46
256.134	53.42
256.351	47.27
256.567	8.36
256.784	67.75
257	-89.94
257.217	57.51
257.433	30.89
257.65	2.22
257.866	-16.21
258.082	-71.51
258.299	18.6
258.515	-18.26
258.732	-22.36
258.948	24.75
259.165	65.71
259.381	34.99
259.597	8.36
259.814	2.22
260.03	24.75
260.246	-61.27
260.463	47.27
260.679	75.95
260.895	-5.97
261.112	65.71
261.328	45.23
261.544	-48.98
261.761	106.67
261.977	4.27
262.193	-22.36
262.409	32.94
262.626	59.56
262.842	32.94
263.058	26.79
263.274	59.56
263.49	43.18
263.707	90.28
263.923	20.65
264.139	-16.21
264.355	-14.17
264.571	0.17
264.787	-69.46
265.004	82.09
265.22	67.75
265.436	57.51
265.652	0.17
265.868	86.19
266.084	-81.75
266.3	2.22
266.516	-69.46
266.732	-24.4
266.948	24.75
267.164	-8.02
267.38	0.17
267.596	30.89
267.812	53.42
268.028	65.71
268.244	-24.4
268.46	-3.93
268.676	14.51
268.892	8.36
269.108	-26.45
269.324	32.94
269.54	24.75
269.756	51.37
269.972	0.17
270.188	6.31
270.403	-24.4
270.619	-42.84
270.835	-44.88
271.051	-57.17
271.267	-22.36
271.483	-59.22
271.698	75.95
271.914	41.13
272.13	57.51
272.346	-16.21
272.562	-8.02
272.777	82.09
272.993	4.27
273.209	-8.02
273.425	-61.27
273.64	8.36
273.856	69.8
274.072	0.17
274.287	-98.13
274.503	63.66
274.719	32.94
274.934	41.13
275.15	8.36
275.366	-34.64
275.581	16.55
275.797	-8.02
276.012	63.66
276.228	-1.88
276.444	18.6
276.659	24.75
276.875	4.27
277.09	24.75
277.306	-16.21
277.521	155.82
277.737	-5.97
277.952	98.47
278.168	49.32
278.383	61.61
278.599	32.94
278.814	26.79
279.03	37.03
279.245	37.03
279.461	32.94
279.676	69.8
279.892	43.18
280.107	49.32
280.322	-12.12
280.538	114.86
280.753	0.17
280.969	106.67
281.184	16.55
281.399	104.62
281.615	-28.5
281.83	80.04
282.045	-28.5
282.26	0.17
282.476	41.13
282.691	30.89
282.906	32.94
283.122	-36.69
283.337	-28.5
283.552	0.17
283.767	102.57
283.983	59.56
284.198	-48.98
284.413	8.36
284.628	-55.12
284.843	10.41
285.058	20.65
285.274	-53.08
285.489	2.22
285.704	34.99
285.919	16.55
286.134	37.03
286.349	41.13
286.564	61.61
286.779	-32.6
286.995	8.36
287.21	-1.88
287.425	-18.26
287.64	2.22
287.855	2.22
288.07	16.55
288.285	20.65
288.5	135.34
288.715	10.41
288.93	-34.64
289.145	39.08
289.36	34.99
289.575	-16.21
289.79	131.24
290.004	77.99
290.219	49.32
290.434	-40.79
290.649	-28.5
290.864	-63.32
291.079	84.14
291.294	0.17
291.509	55.47
291.724	32.94
291.938	34.99
292.153	-1.88
292.368	24.75
292.583	67.75
292.798	-12.12
293.012	18.6
293.227	53.42
293.442	-36.69
293.657	41.13
293.871	75.95
294.086	-24.4
294.301	57.51
294.516	45.23
294.73	6.31
294.945	-30.55
295.16	4.27
295.374	102.57
295.589	77.99
295.804	32.94
296.018	114.86
296.233	53.42
296.447	10.41
296.662	26.79
296.877	20.65
297.091	61.61
297.306	-5.97
297.52	47.27
297.735	-24.4
297.949	65.71
298.164	73.9
298.378	20.65
298.593	57.51
298.807	53.42
299.022	49.32
299.236	53.42
299.451	57.51
299.665	-30.55
299.88	0.17
300.094	32.94
300.309	24.75
300.523	24.75
300.737	-16.21
300.952	22.7
301.166	49.32
301.381	39.08
301.595	-14.17
301.809	57.51
302.024	34.99
302.238	0.17
302.452	65.71
302.667	16.55
302.881	-32.6
303.095	73.9
303.309	37.03
303.524	18.6
303.738	-16.21
303.952	24.75
304.166	24.75
304.381	-114.52
304.595	100.52
304.809	18.6
305.023	12.46
305.237	20.65
305.452	34.99
305.666	0.17
305.88	90.28
306.094	28.84
306.308	24.75
306.522	69.8
306.736	57.51
306.95	24.75
307.164	10.41
307.379	-8.02
307.593	57.51
307.807	41.13
308.021	106.67
308.235	4.27
308.449	84.14
308.663	32.94
308.877	57.51
309.091	-8.02
309.305	123.05
309.519	57.51
309.733	16.55
309.947	20.65
310.161	16.55
310.374	49.32
310.588	73.9
310.802	32.94
311.016	-61.27
311.23	16.55
311.444	18.6
311.658	4.27
311.872	53.42
312.085	41.13
312.299	102.57
312.513	-20.31
312.727	59.56
312.941	-38.74
313.154	49.32
313.368	-65.36
313.582	24.75
313.796	-20.31
314.009	43.18
314.223	20.65
314.437	10.41
314.651	0.17
314.864	59.56
315.078	0.17
315.292	-30.55
315.505	41.13
315.719	26.79
315.933	24.75
316.146	16.55
316.36	0.17
316.573	49.32
316.787	28.84
317.001	-5.97
317.214	32.94
317.428	8.36
317.641	28.84
317.855	43.18
318.068	24.75
318.282	-28.5
318.495	77.99
318.709	20.65
318.922	-32.6
319.136	84.14
319.349	82.09
319.563	14.51
319.776	24.75
319.99	-32.6
320.203	2.22
320.417	34.99
320.63	16.55
320.843	106.67
321.057	51.37
321.27	28.84
321.483	24.75
321.697	84.14
321.91	28.84
322.124	32.94
322.337	-12.12
322.55	12.46
322.763	73.9
322.977	0.17
323.19	26.79
323.403	32.94
323.617	32.94
323.83	16.55
324.043	-55.12
324.256	59.56
324.469	-24.4
324.683	73.9
324.896	8.36
325.109	12.46
325.322	-44.88
325.535	71.85
325.748	45.23
325.962	-3.93
326.175	92.33
326.388	32.94
326.601	-5.97
326.814	12.46
327.027	-12.12
327.24	92.33
327.453	0.17
327.666	-53.08
327.879	32.94
328.092	16.55
328.305	51.37
328.518	2.22
328.731	41.13
328.944	24.75
329.157	16.55
329.37	37.03
329.583	41.13
329.796	59.56
330.009	-5.97
330.222	57.51
330.435	2.22
330.648	12.46
330.861	32.94
331.073	24.75
331.286	69.8
331.499	26.79
331.712	-14.17
331.925	32.94
332.138	82.09
332.35	90.28
332.563	-67.41
332.776	67.75
332.989	18.6
333.202	65.71
333.414	26.79
333.627	18.6
333.84	4.27
334.053	-38.74
334.265	-10.07
334.478	-44.88
334.691	86.19
334.903	26.79
335.116	-10.07
335.329	49.32
335.541	18.6
335.754	149.67
335.966	90.28
336.179	-24.4
336.392	20.65
336.604	59.56
336.817	77.99
337.029	34.99
337.242	-38.74
337.454	55.47
337.667	8.36
337.88	65.71
338.092	-1.88
338.305	49.32
338.517	-3.93
338.729	-12.12
338.942	47.27
339.154	8.36
339.367	16.55
339.579	2.22
339.792	63.66
340.004	82.09
340.217	10.41
340.429	20.65
340.641	57.51
340.854	-22.36
341.066	-46.93
341.278	22.7
341.491	98.47
341.703	49.32
341.915	57.51
342.128	47.27
342.34	82.09
342.552	-48.98
342.764	-3.93
342.977	-8.02
343.189	73.9
343.401	114.86
343.613	39.08
343.826	24.75
344.038	26.79
344.25	10.41
344.462	43.18
344.674	123.05
344.886	-57.17
345.099	-18.26
345.311	49.32
345.523	51.37
345.735	-40.79
345.947	90.28
346.159	32.94
346.371	-57.17
346.583	59.56
346.795	61.61
347.007	67.75
347.219	82.09
347.431	-32.6
347.643	16.55
347.855	26.79
348.067	-32.6
348.279	0.17
348.491	57.51
348.703	32.94
348.915	80.04
349.127	26.79
349.339	34.99
349.551	45.23
349.763	-24.4
349.975	32.94
350.187	65.71
350.399	12.46
350.61	0.17
350.822	73.9
351.034	55.47
351.246	41.13
351.458	84.14
351.669	-73.56
351.881	-26.45
352.093	67.75
352.305	92.33
352.517	-3.93
352.728	-24.4
352.94	-22.36
353.152	16.55
353.363	-38.74
353.575	61.61
353.787	4.27
353.999	116.9
354.21	-8.02
354.422	-24.4
354.633	-8.02
354.845	61.61
355.057	8.36
355.268	90.28
355.48	16.55
355.692	-44.88
355.903	41.13
356.115	0.17
356.326	-5.97
356.538	41.13
356.749	32.94
356.961	77.99
357.172	47.27
357.384	-3.93
357.595	86.19
357.807	57.51
358.018	71.85
358.23	108.71
358.441	84.14
358.653	69.8
358.864	-12.12
359.075	84.14
359.287	8.36
359.498	53.42
359.709	49.32
359.921	-8.02
360.132	-8.02
360.344	69.8
360.555	61.61
360.766	49.32
360.977	-3.93
361.189	26.79
361.4	10.41
361.611	0.17
361.823	63.66
362.034	45.23
362.245	-46.93
362.456	16.55
362.667	67.75
362.879	16.55
363.09	8.36
363.301	61.61
363.512	-16.21
363.723	102.57
363.935	55.47
364.146	98.47
364.357	67.75
364.568	34.99
364.779	-5.97
364.99	75.95
365.201	0.17
365.412	41.13
365.623	16.55
365.834	51.37
366.045	41.13
366.256	63.66
366.467	43.18
366.678	26.79
366.889	-8.02
367.1	-32.6
367.311	-22.36
367.522	-20.31
367.733	34.99
367.944	4.27
368.155	-36.69
368.366	71.85
368.577	28.84
368.788	123.05
368.999	-8.02
369.209	26.79
369.42	106.67
369.631	73.9
369.842	-14.17
370.053	0.17
370.264	73.9
370.474	16.55
370.685	-16.21
370.896	34.99
371.107	34.99
371.317	32.94
371.528	20.65
371.739	18.6
371.95	-8.02
372.16	65.71
372.371	-81.75
372.582	22.7
372.792	57.51
373.003	32.94
373.214	65.71
373.424	100.52
373.635	30.89
373.846	106.67
374.056	28.84
374.267	49.32
374.477	24.75
374.688	57.51
374.898	-8.02
375.109	41.13
375.319	-5.97
375.53	59.56
375.74	-28.5
375.951	10.41
376.161	53.42
376.372	43.18
376.582	8.36
376.793	59.56
377.003	43.18
377.214	100.52
377.424	49.32
377.635	-10.07
377.845	67.75
378.055	92.33
378.266	-16.21
378.476	49.32
378.686	-12.12
378.897	32.94
379.107	2.22
379.317	22.7
379.528	69.8
379.738	71.85
379.948	39.08
380.158	82.09
380.369	24.75
380.579	20.65
380.789	20.65
380.999	43.18
381.21	73.9
381.42	164.01
381.63	-12.12
381.84	84.14
382.05	41.13
382.261	49.32
382.471	61.61
382.681	34.99
382.891	71.85
383.101	49.32
383.311	24.75
383.521	-22.36
383.731	57.51
383.941	65.71
384.151	0.17
384.361	51.37
384.571	65.71
384.781	20.65
384.991	32.94
385.201	57.51
385.411	24.75
385.621	92.33
385.831	123.05
386.041	32.94
386.251	49.32
386.461	106.67
386.671	-63.32
386.881	53.42
387.091	26.79
387.301	26.79
387.511	-1.88
387.72	24.75
387.93	16.55
388.14	51.37
388.35	57.51
388.56	28.84
388.769	34.99
388.979	-20.31
389.189	-8.02
389.399	55.47
389.609	88.23
389.818	51.37
390.028	65.71
390.238	67.75
390.447	-10.07
390.657	69.8
390.867	49.32
391.076	34.99
391.286	14.51
391.496	12.46
391.705	65.71
391.915	53.42
392.125	0.17
392.334	30.89
392.544	96.43
392.753	41.13
392.963	24.75
393.172	86.19
393.382	43.18
393.591	131.24
393.801	57.51
394.01	96.43
394.22	10.41
394.429	98.47
394.639	41.13
394.848	92.33
395.058	75.95
395.267	67.75
395.477	2.22
395.686	102.57
395.895	118.95
396.105	98.47
396.314	67.75
396.524	123.05
396.733	82.09
396.942	168.1
397.152	65.71
397.361	108.71
397.57	-3.93
397.78	67.75
397.989	145.58
398.198	139.43
398.407	166.06
398.617	65.71
398.826	26.79
399.035	59.56
399.244	73.9
399.453	67.75
399.663	55.47
399.872	53.42
400.081	86.19
400.29	108.71
400.499	55.47
400.708	114.86
400.917	100.52
401.127	108.71
401.336	69.8
401.545	155.82
401.754	73.9
401.963	129.19
402.172	84.14
402.381	92.33
402.59	69.8
402.799	133.29
403.008	106.67
403.217	131.24
403.426	82.09
403.635	98.47
403.844	100.52
404.053	34.99
404.262	80.04
404.471	102.57
404.68	114.86
404.888	75.95
405.097	96.43
405.306	75.95
405.515	108.71
405.724	174.25
405.933	145.58
406.142	106.67
406.35	159.91
406.559	102.57
406.768	223.4
406.977	258.21
407.185	94.38
407.394	92.33
407.603	147.62
407.812	184.49
408.02	155.82
408.229	221.35
408.438	133.29
408.646	200.87
408.855	198.82
409.064	282.79
409.272	202.92
409.481	247.97
409.69	233.64
409.898	204.97
410.107	264.36
410.315	262.31
410.524	307.37
410.733	311.46
410.941	278.69
411.15	307.37
411.358	282.79
411.567	368.81
411.775	327.85
411.984	311.46
412.192	331.94
412.401	391.33
412.609	315.56
412.818	319.65
413.026	352.42
413.234	413.86
413.443	336.04
413.651	434.34
413.86	413.86
414.068	508.07
414.276	561.31
414.485	526.5
414.693	647.33
414.901	536.74
415.11	571.55
415.318	561.31
415.526	624.8
415.734	655.52
415.943	585.89
416.151	647.33
416.359	665.76
416.567	692.38
416.776	757.92
416.984	762.02
417.192	737.44
417.4	757.92
417.608	770.21
417.817	774.3
418.025	938.14
418.233	966.81
418.441	925.85
418.649	999.58
418.857	1108.12
419.065	1081.5
419.273	989.34
419.481	1106.07
419.689	1187.99
419.897	1241.24
420.105	1298.58
420.313	1265.82
420.521	1398.93
420.729	1474.71
420.937	1360.02
421.145	1360.02
421.353	1419.41
421.561	1597.59
421.769	1679.51
421.977	1704.08
422.185	1724.56
422.393	1804.43
422.601	1759.38
422.809	1937.55
423.017	1902.73
423.224	1884.3
423.432	1962.12
423.64	2025.61
423.848	2218.12
424.056	2033.8
424.263	2310.28
424.471	2322.57
424.679	2392.2
424.887	2484.36
425.094	2599.04
425.302	2658.43
425.51	2642.05
425.718	2719.87
425.925	2795.65
426.133	2871.42
426.341	3197.05
426.548	3160.19
426.756	3190.91
426.964	3309.69
427.171	3498.1
427.379	3543.16
427.586	3436.66
427.794	3817.58
428.001	3788.91
428.209	4083.82
428.417	3915.89
428.624	4251.75
428.832	4190.31
429.039	4280.43
429.247	4186.22
429.454	4694.12
429.662	4821.09
429.869	4726.88
430.076	4733.03
430.284	4878.43
430.491	5070.94
430.699	5189.72
430.906	5300.31
431.114	5335.13
431.321	5544.02
431.528	5568.6
431.736	5988.43
431.943	6207.56
432.15	6174.8
432.358	6090.83
432.565	6578.25
432.772	6391.88
432.979	6764.61
433.187	6869.06
433.394	7018.56
433.601	7340.09
433.808	7372.86
434.016	7446.59
434.223	7610.42
434.43	8224.81
434.637	7866.42
434.844	8671.27
435.052	8503.34
435.259	8749.09
435.466	8581.16
435.673	8548.39
435.88	9101.34
436.087	9547.8
436.294	9553.94
436.501	9594.9
436.708	9656.34
436.915	9664.54
437.122	10354.7
437.329	10354.7
437.537	10739.72
437.743	10633.22
437.95	10674.18
438.157	11505.66
438.364	11771.9
438.571	11597.82
438.778	11724.79
438.985	12574.7
439.192	12142.58
439.399	12804.07
439.606	12314.61
439.813	13178.85
440.02	14030.8
440.227	13553.63
440.433	13475.81
440.64	14002.13
440.847	13873.11
441.054	14161.87
441.261	15249.35
441.467	14890.95
441.674	15421.38
441.881	15878.07
442.088	15460.29
442.294	15603.64
442.501	15835.07
442.708	16467.89
442.914	16777.13
443.121	17784.73
443.328	17446.82
443.534	18366.35
443.741	17956.76
443.948	17383.33
444.154	18911.11
444.361	18866.06
444.568	19005.32
444.774	19003.27
444.981	19083.14
445.187	19498.88
445.394	20516.72
445.6	20418.42
445.807	22241.11
446.013	21264.23
446.22	21491.55
446.426	22273.88
446.633	22976.33
446.839	23654.21
447.046	22472.53
447.252	23785.28
447.459	23813.95
447.665	23736.13
447.871	24973.1
448.078	25777.95
448.284	24368.95
448.491	25394.98
448.697	26150.68
448.903	27053.84
449.11	26922.77
449.316	26478.36
449.522	26894.1
449.728	27789.06
449.935	28014.34
450.141	27815.68
450.347	28712.69
450.553	27531.01
450.76	28030.72
450.966	28917.49
451.172	28536.57
451.378	29282.03
451.584	28763.89
451.791	29689.57
451.997	29218.54
452.203	29771.49
452.409	30222.05
452.615	29920.99
452.821	28663.54
453.027	28311.29
453.233	29832.93
453.44	28952.3
453.646	29177.58
453.852	29265.64
454.058	29617.89
454.264	28847.86
454.47	29726.44
454.676	28786.42
454.882	29525.74
455.088	27086.61
455.294	27774.72
455.5	28167.93
455.705	28223.23
455.911	27260.68
456.117	26681.11
456.323	26351.38
456.529	24715.06
456.735	26138.4
456.941	25532.2
457.147	25042.73
457.352	24569.65
457.558	24184.63
457.764	24186.68
457.97	23916.35
458.176	23437.13
458.381	23158.6
458.587	22501.2
458.793	22343.51
458.999	21260.13
459.204	22837.07
459.41	21757.79
459.616	20791.15
459.821	20539.25
460.027	20260.73
460.233	20055.93
460.438	19103.62
460.644	19367.81
460.85	18380.69
461.055	18302.87
461.261	18210.71
461.466	16789.42
461.672	16349.11
461.878	17215.4
462.083	16433.07
462.289	15851.45
462.494	15724.47
462.7	15232.96
462.905	14845.9
463.111	15359.94
463.316	15321.02
463.522	14815.18
463.727	15118.28
463.932	14888.9
464.138	14931.91
464.343	15058.88
464.549	14630.86
464.754	15026.12
464.959	15040.45
465.165	14491.6
465.37	13930.45
465.575	13664.22
465.781	14229.46
465.986	14233.55
466.191	14030.8
466.397	13613.02
466.602	13098.98
466.807	13174.75
467.012	13533.15
467.218	13324.26
467.423	13225.95
467.628	13197.28
467.833	13658.07
468.038	13250.53
468.244	13115.36
468.449	13166.56
468.654	13033.44
468.859	12840.93
469.064	12943.33
469.269	12404.72
469.474	12431.34
469.679	12750.82
469.885	12034.04
470.09	12478.44
470.295	12240.88
470.5	12034.04
470.705	12191.73
470.91	11960.31
471.115	11761.66
471.32	11995.12
471.525	11812.85
471.73	11634.68
471.935	11388.92
472.139	11249.66
472.344	11620.35
472.549	11061.25
472.754	11227.14
472.959	10969.09
473.164	10745.86
473.369	10551.31
473.574	10936.32
473.778	10536.97
473.983	10756.1
474.188	10811.4
474.393	10151.95
474.598	10207.25
474.802	10170.38
475.007	10031.12
475.212	10039.31
475.417	9865.24
475.621	9783.32
475.826	9848.85
476.031	9523.23
476.235	9199.65
476.44	9576.47
476.645	9152.54
476.849	9519.13
477.054	9220.13
477.259	9015.33
477.463	9158.69
477.668	8994.85
477.872	9113.63
478.077	8796.2
478.282	8671.27
478.486	8626.22
478.691	8548.39
478.895	8503.34
479.1	8458.28
479.304	8652.84
479.509	8284.2
479.713	8429.61
479.918	8339.5
480.122	7985.2
480.326	8282.16
480.531	8011.82
480.735	7958.58
480.94	7981.1
481.144	8194.09
481.348	7796.79
481.553	8065.07
481.757	7657.53
481.961	7815.22
482.166	7974.96
482.37	7794.74
482.574	7841.84
482.778	7888.95
482.983	7901.23
483.187	7868.47
483.391	7819.32
483.595	7772.21
483.8	7669.81
484.004	7737.4
484.208	7940.15
484.412	7866.42
484.616	7684.15
484.821	7802.93
485.025	7651.38
485.229	7905.33
485.433	7868.47
485.637	7737.4
485.841	7702.58
486.045	7667.77
486.249	7913.52
486.453	7757.88
486.657	7718.96
486.861	7960.63
487.065	7643.19
487.269	7862.32
487.473	7718.96
487.677	7841.84
487.881	7782.45
488.085	7768.12
488.289	7731.25
488.493	7678.01
488.697	7952.43
488.901	7866.42
489.105	8028.21
489.309	8050.74
489.512	7899.19
489.716	7825.46
489.92	7825.46
490.124	7858.23
490.328	7919.67
490.531	8007.73
490.735	7862.32
490.939	7882.8
491.143	7944.24
491.346	8097.84
491.55	8069.17
491.754	8200.24
491.958	8153.13
492.161	8308.78
492.365	8304.68
492.569	8118.32
492.772	8364.08
492.976	8269.87
493.18	8417.32
493.383	8550.44
493.587	8425.51
493.79	8828.96
493.994	8597.54
494.197	8486.95
494.401	8570.92
494.605	8732.71
494.808	8935.46
495.012	8990.75
495.215	8863.78
495.419	8874.02
495.622	8988.71
495.825	9072.67
496.029	9046.05
496.232	9379.87
496.436	9388.06
496.639	9689.11
496.843	9463.83
497.046	9383.96
497.249	9803.8
497.453	9902.1
497.656	9920.53
497.859	9863.19
498.063	10086.42
498.266	10149.9
498.469	10274.83
498.673	10283.02
498.876	10395.66
499.079	10506.25
499.282	10629.13
499.485	10762.25
499.689	10969.09
499.892	11042.82
500.095	10876.93
500.298	11280.38
500.501	11057.15
500.705	11362.3
500.908	11587.58
501.111	11769.85
501.314	11749.37
501.517	11790.33
501.72	12099.57
501.923	11919.35
502.126	12380.14
502.329	12560.36
502.532	12689.39
502.735	12759.02
502.938	12730.34
503.141	13152.23
503.344	13017.06
503.547	13418.46
503.75	13240.29
503.953	13547.48
504.156	13713.37
504.359	13807.58
504.562	13977.56
504.765	14335.95
504.968	14475.21
505.17	14366.67
505.373	14518.22
505.576	15069.12
505.779	14981.06
505.982	15075.27
506.185	15261.63
506.387	15411.14
506.59	15828.92
506.793	15910.84
506.996	15953.85
507.198	16541.61
507.401	16400.3
507.604	16480.18
507.807	16875.43
508.009	16490.42
508.212	16924.58
508.415	17190.82
508.617	17325.99
508.82	17483.68
509.022	17401.76
509.225	18075.54
509.428	18057.11
509.63	18235.28
509.833	18235.28
510.035	18683.79
510.238	18786.19
510.44	18747.28
510.643	19279.75
510.845	19287.94
511.048	19292.04
511.25	19439.49
511.453	19861.37
511.655	20209.53
511.858	20152.18
512.06	20399.99
512.262	20746.09
512.465	20461.43
512.667	21153.64
512.87	20746.09
513.072	21122.92
513.274	21868.38
513.477	21550.95
513.679	21753.69
513.881	22050.65
514.084	22513.49
514.286	22511.44
514.488	22376.28
514.69	22955.85
514.893	22806.35
515.095	23111.5
515.297	23586.63
515.499	23904.06
515.701	23701.31
515.904	24368.95
516.106	24280.89
516.308	24670
516.51	25159.47
516.712	24733.49
516.914	25100.08
517.116	25378.6
517.318	25390.89
517.52	25753.38
517.722	25859.87
517.925	26279.71
518.127	26373.91
518.329	26595.09
518.531	26558.23
518.733	27221.77
518.935	27576.07
519.136	27315.98
519.338	27922.18
519.54	27725.57
519.742	28153.6
519.944	28352.25
520.146	28643.06
520.348	29116.14
520.55	29224.68
520.752	29089.52
520.954	29411.05
521.155	29396.71
521.357	30015.2
521.559	29837.03
521.761	30715.61
521.963	30349.02
522.164	30887.64
522.366	30629.59
522.568	31190.73
522.77	31299.28
522.971	31360.72
523.173	31530.7
523.375	31841.99
523.576	31782.6
523.778	31923.91
523.98	32657.08
524.181	32429.76
524.383	32296.64
524.584	32622.26
524.786	32884.4
524.988	32835.25
525.189	33314.48
525.391	33306.29
525.592	33513.13
525.794	33625.77
525.995	33558.19
526.197	34059.94
526.398	33719.98
526.6	34125.47
526.801	34608.79
527.003	34481.82
527.204	34455.2
527.406	34557.6
527.607	34854.55
527.808	34983.57
528.01	34336.41
528.211	34832.02
528.412	35634.83
528.614	35440.27
528.815	35450.51
529.016	35673.74
529.218	34985.62
529.419	35391.12
529.62	35698.31
529.822	35550.86
530.023	35503.76
530.224	35530.38
530.425	35784.33
530.626	35372.69
530.828	35360.4
531.029	36279.94
531.23	35495.57
531.431	35624.59
531.632	36157.06
531.833	36212.35
532.035	36116.1
532.236	36320.9
532.437	36198.02
532.638	36007.56
532.839	36044.42
533.04	36562.56
533.241	35856.01
533.442	36628.09
533.643	36179.59
533.844	35909.25
534.045	36120.2
534.246	36015.75
534.447	36003.46
534.648	36202.11
534.849	36370.05
535.05	36173.44
535.251	36304.51
535.451	36355.71
535.652	36447.87
535.853	36165.25
536.054	36472.45
536.255	36261.51
536.456	36210.31
536.657	36855.42
536.857	36513.41
537.058	36251.27
537.259	36691.58
537.46	36218.5
537.66	36476.54
537.861	36433.53
538.062	36304.51
538.263	36697.72
538.463	36437.63
538.664	36058.76
538.865	36376.19
539.065	36771.45
539.266	36353.66
539.466	36685.43
539.667	35931.78
539.868	36486.78
540.068	36333.18
540.269	36202.11
540.469	36728.44
540.67	35634.83
540.87	36271.75
541.071	36165.25
541.271	36173.44
541.472	35919.49
541.672	36134.53
541.873	36212.35
542.073	35923.59
542.274	36425.34
542.474	36075.14
542.675	35858.06
542.875	36640.38
543.075	36064.9
543.276	35643.02
543.476	36263.55
543.676	35997.32
543.877	36157.06
544.077	35995.27
544.277	35976.84
544.478	35876.49
544.678	36230.79
544.878	36048.52
545.078	35927.69
545.279	35935.88
545.479	35831.43
545.679	35915.4
545.879	35989.13
546.079	36116.1
546.28	36159.11
546.48	35577.48
546.68	36028.04
546.88	35874.44
547.08	36193.92
547.28	35962.5
547.48	35937.93
547.68	36138.63
547.88	35526.28
548.081	35997.32
548.281	35731.08
548.481	35853.96
548.681	35956.36
548.881	35602.06
549.081	35821.19
549.28	35845.77
549.48	35913.35
549.68	35298.96
549.88	36333.18
550.08	35608.2
550.28	35579.53
550.48	35755.66
550.68	36077.19
550.88	35595.92
551.08	35520.14
551.279	36152.96
551.479	35536.52
551.679	35546.76
551.879	35360.4
552.079	35550.86
552.278	35505.8
552.478	35638.92
552.678	35325.58
552.878	35827.34
553.077	35446.41
553.277	35346.06
553.477	35858.06
553.676	35098.26
553.876	35440.27
554.076	35421.84
554.275	35389.07
554.475	34809.5
554.674	35538.57
554.874	35489.42
555.074	34999.96
555.273	35350.16
555.473	35321.49
555.672	35311.25
555.872	35051.16
556.071	35258
556.271	35237.52
556.47	35008.15
556.67	34594.46
556.869	35026.58
557.068	34793.11
557.268	34829.98
557.467	34748.06
557.667	34784.92
557.866	34813.59
558.065	34649.75
558.265	34311.84
558.464	34573.98
558.663	35274.38
558.863	34334.37
559.062	34956.95
559.261	34119.33
559.461	34688.67
559.66	34092.71
559.859	34328.22
560.058	34234.02
560.258	33908.39
560.457	34195.1
560.656	34537.12
560.855	33873.57
561.054	34266.78
561.253	34055.84
561.453	34166.43
561.652	34250.4
561.851	34311.84
562.05	34123.43
562.249	33832.61
562.448	33824.42
562.647	33834.66
562.846	33822.37
563.045	33785.51
563.244	33400.49
563.443	33738.41
563.642	33228.46
563.841	33685.16
564.04	33388.21
564.239	33832.61
564.438	33265.33
564.637	33355.44
564.836	33148.59
565.035	32640.7
565.234	33212.08
565.432	33089.2
565.631	32999.09
565.83	33191.6
566.029	32755.38
566.228	32736.95
566.427	32749.24
566.625	32519.87
566.824	32431.8
567.023	32843.45
567.222	31940.29
567.42	32695.99
567.619	32599.74
567.818	32274.11
568.016	32059.07
568.215	32382.65
568.414	32073.41
568.612	32270.01
568.811	32149.18
569.01	32024.26
569.208	31715.01
569.407	31944.39
569.605	31837.89
569.804	32198.34
570.002	31358.67
570.201	31733.45
570.4	31168.21
570.598	31459.02
570.797	30893.78
570.995	31373
571.193	31035.09
571.392	31551.18
571.59	31125.2
571.789	30971.6
571.987	30910.16
572.186	30637.78
572.384	30748.37
572.582	30840.53
572.781	30805.72
572.979	30478.04
573.177	30514.91
573.376	30967.51
573.574	30318.3
573.772	30346.97
573.971	30105.31
574.169	29982.43
574.367	29916.9
574.565	30213.85
574.763	29968.1
574.962	29976.29
575.16	29855.46
575.358	29761.25
575.556	29339.37
575.754	29775.59
575.952	29411.05
576.151	29863.65
576.349	29468.39
576.547	29509.35
576.745	29179.63
576.943	29363.95
577.141	29193.97
577.339	29503.21
577.537	29386.47
577.735	29140.72
577.933	29107.95
578.131	28841.71
578.329	28503.8
578.527	28804.85
578.725	28882.67
578.923	28270.33
579.121	28464.89
579.319	28688.12
579.516	28446.46
579.714	28524.28
579.912	28024.58
580.11	28296.95
580.308	28458.74
580.506	28169.98
580.704	27711.24
580.901	27778.82
581.099	28456.7
581.297	27789.06
581.495	27608.84
581.692	28004.1
581.89	27057.93
582.088	27676.42
582.285	27033.36
582.483	27574.02
582.681	27268.87
582.878	27248.39
583.076	27016.97
583.274	26982.16
583.471	26681.11
583.669	27000.59
583.866	26625.81
584.064	26920.72
584.262	26554.13
584.459	26871.57
584.657	26636.05
584.854	26744.59
585.052	26183.45
585.249	26572.57
585.447	26335
585.644	25947.93
585.841	26371.86
586.039	26232.6
586.236	25712.42
586.434	26060.57
586.631	25882.4
586.828	25906.98
587.026	26029.85
587.223	25450.28
587.42	25646.88
587.618	25763.62
587.815	25184.04
588.012	25687.84
588.21	25384.74
588.407	25378.6
588.604	25265.96
588.801	25114.41
588.999	24997.68
589.196	25005.87
589.393	24948.53
589.59	24899.37
589.787	25030.44
589.984	24577.84
590.182	24287.03
590.379	24753.97
590.576	24481.59
590.773	24629.04
590.97	24678.19
591.167	24543.03
591.364	24344.38
591.561	24147.77
591.758	24188.73
591.955	24170.3
592.152	24205.11
592.349	23850.81
592.546	24227.64
592.743	23838.53
592.94	23439.17
593.137	23705.41
593.334	23930.69
593.531	23494.47
593.727	23592.77
593.924	23535.43
594.121	23025.48
594.318	23349.06
594.515	23189.32
594.712	23367.49
594.908	23215.94
595.105	22962
595.302	22826.83
595.499	23330.63
595.696	22669.14
595.892	22544.21
596.089	22544.21
596.286	22550.35
596.482	22308.69
596.679	22560.59
596.876	22325.08
597.072	22179.67
597.269	22409.04
597.466	22073.18
597.662	22042.46
597.859	22331.22
598.055	22368.09
598.252	22064.99
598.448	22411.09
598.645	21768.03
598.841	21485.41
599.038	21981.02
599.234	21688.16
599.431	21579.62
599.627	21266.28
599.824	21694.3
600.02	21340.01
600.217	21639.01
600.413	21399.4
600.609	21417.83
600.806	21292.9
601.002	21178.22
601.198	21229.41
601.395	21063.53
601.591	20959.08
601.787	20813.68
601.984	20680.56
602.18	20961.13
602.376	20862.83
602.572	20547.44
602.769	20291.45
602.965	20612.98
603.161	20373.36
603.357	20395.89
603.553	20211.57
603.75	20320.12
603.946	20094.84
604.142	20264.82
604.338	19931
604.534	20119.42
604.73	20356.98
604.926	19718.01
605.122	19758.97
605.318	19685.25
605.514	19539.84
605.71	19410.82
605.906	19478.4
606.102	19474.31
606.298	19724.16
606.494	19304.32
606.69	19492.74
606.886	19513.22
607.082	18780.04
607.278	19238.79
607.474	18939.79
607.67	18894.73
607.866	18982.79
608.062	19277.7
608.257	18874.25
608.453	18636.69
608.649	18909.07
608.845	18900.87
609.041	18966.41
609.236	18902.92
609.432	18743.18
609.628	18874.25
609.824	18687.89
610.019	18476.94
610.215	18849.68
610.411	18628.49
610.606	18405.27
610.802	18528.14
610.998	18415.51
611.193	18435.99
611.389	18309.01
611.584	18188.18
611.78	18184.09
611.976	18366.35
612.171	18155.41
612.367	18345.87
612.562	18005.91
612.758	17835.93
612.953	18050.97
613.149	18085.78
613.344	17815.45
613.539	18214.8
613.735	17862.55
613.93	18055.06
614.126	17635.23
614.321	17811.35
614.517	18020.25
614.712	17764.25
614.907	17520.54
615.103	17670.05
615.298	17604.51
615.493	17627.04
615.688	17448.86
615.884	17747.87
616.079	17614.75
616.274	17706.91
616.47	17571.74
616.665	17473.44
616.86	17291.17
617.055	17133.48
617.25	17291.17
617.445	17174.44
617.641	16981.93
617.836	17176.48
618.031	16852.91
618.226	17180.58
618.421	16791.47
618.616	17039.27
618.811	17127.33
619.006	16807.85
619.201	16654.25
619.396	16873.39
619.591	16727.98
619.786	16584.62
619.981	16328.63
620.176	16514.99
620.371	16164.79
620.566	16254.9
620.761	16068.53
620.956	16238.51
621.151	16037.81
621.346	16117.68
621.541	15650.75
621.735	16031.67
621.93	15597.5
622.125	15671.23
622.32	15546.3
622.515	15429.57
622.709	15556.54
622.904	15239.11
623.099	15151.04
623.294	15331.26
623.488	15105.99
623.683	15361.98
623.878	14792.65
624.072	14897.1
624.267	14755.79
624.462	14766.03
624.656	14526.41
624.851	14749.64
625.046	14626.76
625.24	14391.25
625.435	14278.61
625.629	14227.41
625.824	14426.06
626.018	14348.24
626.213	14079.96
626.407	13936.6
626.602	13891.54
626.796	13957.08
626.991	13926.36
627.185	13619.16
627.38	13682.65
627.574	13594.59
627.768	13643.74
627.963	13367.26
628.157	13012.96
628.352	13342.69
628.546	13246.43
628.74	13207.52
628.935	12967.91
629.129	13072.36
629.323	13029.35
629.517	12615.66
629.712	12816.36
629.906	12855.27
630.1	12543.98
630.294	12478.44
630.489	12488.68
630.683	12627.95
630.877	12421.1
631.071	12083.19
631.265	12494.83
631.459	12181.49
631.653	12214.26
631.848	11933.68
632.042	12089.33
632.236	12074.99
632.43	11880.44
632.624	11718.65
632.818	11743.22
633.012	11563
633.206	11511.8
633.4	11782.13
633.594	11382.78
633.788	11638.78
633.982	11505.66
634.176	11433.98
634.369	11341.82
634.563	11153.41
634.757	11083.78
634.951	11046.91
635.145	11173.89
635.339	11169.79
635.533	11040.77
635.726	10870.79
635.92	10833.93
636.114	10784.77
636.308	10725.38
636.501	10723.34
636.695	10475.53
636.889	10532.87
637.083	10512.39
637.276	10401.8
637.47	10328.08
637.664	10543.11
637.857	10403.85
638.051	10293.26
638.244	10340.36
638.438	10149.9
638.632	10217.49
638.825	9891.86
639.019	10004.5
639.212	9752.6
639.406	9801.75
639.599	9834.52
639.793	9932.82
639.986	9590.81
640.18	9654.3
640.373	9699.35
640.567	9599
640.76	9383.96
640.954	9510.94
641.147	9439.26
641.34	9383.96
641.534	9564.18
641.727	9254.94
641.92	9318.43
642.114	9234.46
642.307	9240.61
642.5	9234.46
642.694	9009.19
642.887	8880.16
643.08	9044
643.273	8888.36
643.467	8794.15
643.66	8841.25
643.853	8577.06
644.046	8638.5
644.239	8802.34
644.432	8699.94
644.626	8337.45
644.819	8355.88
645.012	8521.77
645.205	8675.37
645.398	8439.85
645.591	8063.02
645.784	8218.67
645.977	8280.11
646.17	8312.88
646.363	8222.77
646.556	8114.22
646.749	7921.71
646.942	8204.33
647.135	7987.25
647.328	7962.67
647.521	8020.02
647.714	7893.04
647.907	7733.3
648.099	7696.44
648.292	7864.37
648.485	7626.81
648.678	7553.08
648.871	7620.66
649.064	7473.21
649.256	7467.06
649.449	7436.35
649.642	7436.35
649.835	7264.32
650.027	7495.74
650.22	7391.29
650.413	7252.03
650.605	7274.56
650.798	7274.56
650.991	7229.5
651.183	7010.37
651.376	6932.54
651.568	7184.45
651.761	6998.08
651.954	7077.95
652.146	6910.02
652.339	7022.66
652.531	6889.54
652.724	6615.11
652.916	6592.58
653.109	6690.88
653.301	6582.34
653.494	6881.35
653.686	6766.66
653.879	6672.45
654.071	6553.67
654.263	6586.44
654.456	6467.66
654.648	6563.91
654.84	6449.22
655.033	6477.9
655.225	6373.45
655.417	6217.8
655.61	6367.31
655.802	6381.64
655.994	6250.57
656.186	6301.77
656.379	6178.89
656.571	6105.17
656.763	6170.7
656.955	5980.24
657.148	6008.91
657.34	6078.54
657.532	5910.61
657.724	5873.75
657.916	5974.1
658.108	5957.71
658.3	5816.4
658.492	5873.75
658.684	5824.59
658.876	5890.13
659.068	5714
659.26	5675.09
659.452	5568.6
659.644	5701.72
659.836	5742.68
660.028	5451.86
660.22	5523.54
660.412	5578.84
660.604	5433.43
660.796	5419.1
660.988	5421.14
661.18	5449.82
661.372	5314.65
661.563	5369.94
661.755	5179.48
661.947	5234.78
662.139	5353.56
662.331	5242.97
662.522	5146.72
662.714	5267.55
662.906	5134.43
663.097	5079.13
663.289	5017.69
663.481	5062.75
663.673	4982.88
663.864	4837.47
664.056	4843.62
664.247	4960.35
664.439	4890.72
664.631	4923.49
664.822	4935.78
665.014	4823.14
665.205	4905.06
665.397	4790.37
665.588	4753.51
665.78	4665.44
665.971	4794.47
666.163	4759.65
666.354	4612.2
666.546	4759.65
666.737	4663.4
666.929	4800.61
667.12	4667.49
667.311	4599.91
667.503	4591.72
667.694	4573.28
667.885	4614.24
668.077	4499.56
668.268	4497.51
668.459	4524.13
668.651	4489.32
668.842	4481.13
669.033	4407.4
669.224	4274.28
669.416	4309.1
669.607	4247.66
669.798	4184.17
669.989	4280.43
670.18	4255.85
670.371	4173.93
670.563	4169.84
670.754	4216.94
670.945	4128.88
671.136	4092.01
671.327	4272.23
671.518	4161.64
671.709	4153.45
671.9	4143.21
672.091	3934.32
672.282	4040.81
672.473	4073.58
672.664	4112.49
672.855	4036.72
673.046	4061.29
673.237	4079.72
673.428	4137.07
673.619	4014.19
673.809	4018.29
674	3786.86
674.191	3958.89
674.382	3786.86
674.573	3997.81
674.764	3942.51
674.954	4014.19
675.145	3815.54
675.336	3784.82
675.527	3807.34
675.717	3811.44
675.908	3872.88
676.099	3793.01
676.289	3797.1
676.48	3684.47
676.671	3743.86
676.861	3891.31
677.052	3682.42
677.243	3670.13
677.433	3666.03
677.624	3661.94
677.814	3766.39
678.005	3833.97
678.195	3721.33
678.386	3651.7
678.576	3616.88
678.767	3737.71
678.957	3586.16
679.148	3678.32
679.338	3670.13
679.529	3713.14
679.719	3588.21
679.909	3690.61
680.1	3737.71
680.29	3752.05
680.481	3582.07
680.671	3629.17
680.861	3551.35
681.052	3657.84
681.242	3514.49
681.432	3592.31
681.622	3580.02
681.813	3510.39
682.003	3473.53
682.193	3487.86
682.383	3545.2
682.573	3571.83
682.764	3498.1
682.954	3596.4
683.144	3448.95
683.334	3471.48
683.524	3457.14
683.714	3514.49
683.904	3391.61
684.094	3369.08
684.284	3326.07
684.474	3367.03
684.664	3457.14
684.854	3422.33
685.044	3407.99
685.234	3534.96
685.424	3321.98
685.614	3344.5
685.804	3432.57
685.994	3358.84
686.184	3276.92
686.374	3375.22
686.564	3270.78
686.753	3313.78
686.943	3326.07
687.133	3276.92
687.323	3195
687.513	3291.26
687.702	3162.23
687.892	3244.15
688.082	3227.77
688.272	3360.89
688.461	3039.36
688.651	3123.32
688.841	3158.14
689.03	3082.36
689.22	2961.53
689.41	3178.62
689.599	3084.41
689.789	2965.63
689.979	3252.35
690.168	2959.49
690.358	3014.78
690.547	2967.68
690.737	3027.07
690.926	2979.97
691.116	2990.21
691.305	3002.49
691.495	2918.53
691.684	2924.67
691.874	2949.25
692.063	2914.43
692.252	2867.33
692.442	2936.96
692.631	2777.22
692.82	2953.34
693.01	2969.73
693.199	2830.46
693.388	2842.75
693.578	2746.5
693.767	2816.13
693.956	2766.98
694.146	2785.41
694.335	2842.75
694.524	2834.56
694.713	2744.45
694.902	2783.36
695.092	2717.83
695.281	2748.54
695.47	2752.64
695.659	2795.65
695.848	2613.38
696.037	2607.23
696.226	2713.73
696.415	2715.78
696.604	2650.24
696.793	2697.35
696.982	2551.94
697.171	2801.79
697.36	2623.62
697.549	2588.8
697.738	2547.84
697.927	2553.99
698.116	2623.62
698.305	2519.17
698.494	2564.23
698.683	2633.86
698.872	2635.91
699.061	2568.32
699.25	2599.04
699.438	2621.57
699.627	2601.09
699.816	2572.42
700.005	2453.64
700.193	2525.32
700.382	2549.89
700.571	2408.58
700.76	2441.35
700.948	2490.5
701.137	2486.4
701.326	2572.42
701.514	2490.5
701.703	2531.46
701.892	2367.62
702.08	2580.61
702.269	2338.95
702.457	2502.79
702.646	2457.73
702.834	2384.01
703.023	2437.25
703.212	2502.79
703.4	2551.94
703.589	2420.87
703.777	2367.62
703.965	2400.39
704.154	2343.05
704.342	2384.01
704.531	2424.97
704.719	2310.28
704.907	2437.25
705.096	2400.39
705.284	2400.39
705.472	2465.93
705.661	2345.09
705.849	2539.65
706.037	2252.94
706.226	2443.4
706.414	2394.25
706.602	2318.47
706.79	2400.39
706.979	2300.04
707.167	2179.21
707.355	2197.64
707.543	2355.33
707.731	2332.81
707.919	2310.28
708.107	2326.66
708.296	2304.14
708.484	2246.79
708.672	2320.52
708.86	2314.38
709.048	2179.21
709.236	2277.51
709.424	2316.42
709.612	2351.24
709.8	2295.94
709.988	2351.24
710.176	2289.8
710.364	2293.9
710.551	2336.9
710.739	2244.74
710.927	2293.9
711.115	2334.86
711.303	2316.42
711.491	2416.77
711.679	2297.99
711.866	2367.62
712.054	2291.85
712.242	2304.14
712.43	2384.01
712.617	2416.77
712.805	2197.64
712.993	2236.55
713.181	2244.74
713.368	2289.8
713.556	2195.59
713.744	2240.65
713.931	2283.66
714.119	2297.99
714.306	2314.38
714.494	2410.63
714.682	2302.09
714.869	2166.92
715.057	2322.57
715.244	2248.84
715.432	2334.86
715.619	2222.22
715.807	2281.61
715.994	2244.74
716.182	2211.98
716.369	2246.79
716.556	2289.8
716.744	2265.22
716.931	2224.26
717.119	2384.01
717.306	2343.05
717.493	2277.51
717.681	2273.42
717.868	2220.17
718.055	2269.32
718.242	2211.98
718.43	2332.81
718.617	2285.7
718.804	2285.7
718.991	2230.41
719.179	2476.16
719.366	2207.88
719.553	2328.71
719.74	2189.45
719.927	2211.98
720.114	2250.89
720.301	2218.12
720.488	2156.68
720.676	2238.6
720.863	2310.28
721.05	2187.4
721.237	2400.39
721.424	2242.7
721.611	2271.37
721.798	2269.32
721.985	2203.79
722.172	2224.26
722.358	2318.47
722.545	2265.22
722.732	2232.46
722.919	2326.66
723.106	2314.38
723.293	2279.56
723.48	2314.38
723.667	2173.07
723.853	2238.6
724.04	2322.57
724.227	2302.09
724.414	2273.42
724.6	2187.4
724.787	2287.75
724.974	2236.55
725.161	2269.32
725.347	2277.51
725.534	2236.55
725.72	2082.95
725.907	2310.28
726.094	2187.4
726.28	2173.07
726.467	2334.86
726.653	2183.31
726.84	2332.81
727.027	2334.86
727.213	2246.79
727.4	2171.02
727.586	2146.44
727.773	2244.74
727.959	2244.74
728.145	2285.7
728.332	2336.9
728.518	2314.38
728.705	2277.51
728.891	2259.08
729.077	2277.51
729.264	2289.8
729.45	2273.42
729.636	2238.6
729.823	2316.42
730.009	2271.37
730.195	2166.92
730.382	2390.15
730.568	2240.65
730.754	2359.43
730.94	2234.5
731.126	2244.74
731.313	2267.27
731.499	2261.13
731.685	2312.33
731.871	2214.02
732.057	2306.18
732.243	2269.32
732.429	2304.14
732.615	2351.24
732.801	2195.59
732.987	2273.42
733.173	2236.55
733.359	2148.49
733.545	2228.36
733.731	2168.97
733.917	2408.58
734.103	2259.08
734.289	2265.22
734.475	2310.28
734.661	2314.38
734.847	2388.1
735.033	2367.62
735.219	2289.8
735.404	2232.46
735.59	2230.41
735.776	2162.83
735.962	2263.18
736.148	2302.09
736.333	2207.88
736.519	2222.22
736.705	2252.94
736.89	2214.02
737.076	2130.06
737.262	2068.62
737.447	2281.61
737.633	2273.42
737.819	2179.21
738.004	2269.32
738.19	2181.26
738.375	2158.73
738.561	2295.94
738.747	2105.48
738.932	2203.79
739.118	2396.29
739.303	2269.32
739.489	2171.02
739.674	2162.83
739.859	2060.43
740.045	2105.48
740.23	2130.06
740.416	2105.48
740.601	2168.97
740.786	2220.17
740.972	2138.25
741.157	2224.26
741.342	2146.44
741.528	2109.58
741.713	2195.59
741.898	2089.1
742.084	2166.92
742.269	2125.96
742.454	2205.83
742.639	2085
742.824	2097.29
743.01	2064.52
743.195	2066.57
743.38	2029.71
743.565	2138.25
743.75	2048.14
743.935	2019.47
744.12	2119.82
744.305	2113.67
744.49	1978.51
744.675	2042
744.86	1912.97
745.045	1937.55
745.23	1941.65
745.415	1998.99
745.6	2066.57
745.785	2017.42
745.97	2023.56
746.155	1849.49
746.34	2023.56
746.525	1886.35
746.71	1955.98
746.895	1908.88
747.079	1859.73
747.264	1867.92
747.449	1929.36
747.634	1837.2
747.819	1900.69
748.003	1859.73
748.188	1927.31
748.373	1839.25
748.557	1796.24
748.742	1919.12
748.927	1859.73
749.111	1777.81
749.296	1757.33
749.481	1796.24
749.665	1777.81
749.85	1570.96
750.034	1616.02
750.219	1786
750.404	1626.26
750.588	1689.74
750.773	1622.16
750.957	1646.74
751.141	1679.51
751.326	1714.32
751.51	1616.02
751.695	1550.48
751.879	1630.35
752.064	1624.21
752.248	1534.1
752.432	1622.16
752.617	1597.59
752.801	1697.94
752.985	1577.11
753.17	1556.63
753.354	1583.25
753.538	1564.82
753.722	1548.44
753.907	1400.98
754.091	1540.24
754.275	1622.16
754.459	1534.1
754.643	1403.03
754.828	1400.98
755.012	1493.14
755.196	1435.8
755.38	1468.56
755.564	1415.32
755.748	1409.17
755.932	1433.75
756.116	1343.64
756.3	1405.08
756.484	1294.49
756.668	1396.89
756.852	1249.43
757.036	1267.86
757.22	1343.64
757.404	1388.69
757.588	1212.57
757.772	1388.69
757.956	1306.77
758.14	1261.72
758.323	1382.55
758.507	1327.25
758.691	1312.92
758.875	1343.64
759.059	1200.28
759.242	1204.38
759.426	1317.01
759.61	1220.76
759.794	1245.34
759.977	1269.91
760.161	1163.42
760.345	1269.91
760.528	1239.19
760.712	1226.9
760.895	1163.42
761.079	1114.27
761.263	1122.46
761.446	1200.28
761.63	1206.42
761.813	1231
761.997	1079.45
762.18	1054.87
762.364	1118.36
762.547	1065.11
762.731	1085.59
762.914	1058.97
763.098	1011.87
763.281	1122.46
763.464	1073.31
763.648	1034.39
763.831	1026.2
764.015	1165.46
764.198	1122.46
764.381	1054.87
764.564	1122.46
764.748	1034.39
764.931	1085.59
765.114	989.34
765.297	1018.01
765.481	987.29
765.664	1058.97
765.847	1001.63
766.03	1071.26
766.213	989.34
766.397	886.94
766.58	991.39
766.763	952.48
766.946	929.95
767.129	1011.87
767.312	958.62
767.495	1003.68
767.678	936.09
767.861	979.1
768.044	975
768.227	985.24
768.41	970.91
768.593	886.94
768.776	878.75
768.959	901.28
769.142	903.32
769.324	870.56
769.507	942.24
769.69	925.85
769.873	905.37
770.056	1009.82
770.239	833.69
770.421	909.47
770.604	925.85
770.787	923.8
770.97	921.76
771.152	815.26
771.335	925.85
771.518	764.06
771.7	845.98
771.883	901.28
772.066	899.23
772.248	868.51
772.431	872.61
772.613	819.36
772.796	827.55
772.978	837.79
773.161	905.37
773.343	778.4
773.526	780.45
773.708	815.26
773.891	843.93
774.073	745.63
774.256	788.64
774.438	856.22
774.621	714.91
774.803	780.45
774.985	788.64
775.168	794.78
775.35	708.77
775.532	696.48
775.715	712.86
775.897	772.25
776.079	745.63
776.261	729.25
776.444	657.57
776.626	700.58
776.808	688.29
776.99	764.06
777.173	719.01
777.355	676
777.537	698.53
777.719	698.53
777.901	690.34
778.083	643.23
778.265	692.38
778.447	632.99
778.629	610.47
778.811	632.99
778.993	649.38
779.175	684.19
779.357	573.6
779.539	596.13
779.721	626.85
779.903	688.29
780.085	532.64
780.267	628.9
780.449	598.18
780.631	630.95
780.812	557.22
780.994	647.33
781.176	587.94
781.358	483.49
781.54	491.68
781.721	565.41
781.903	600.23
782.085	577.7
782.267	561.31
782.448	524.45
782.63	553.12
782.812	530.59
782.993	524.45
783.175	598.18
783.357	499.88
783.538	501.92
783.72	551.07
783.901	497.83
784.083	565.41
784.264	614.56
784.446	465.06
784.627	458.92
784.809	526.5
784.99	458.92
785.172	491.68
785.353	436.39
785.535	510.11
785.716	401.57
785.897	426.15
786.079	424.1
786.26	442.53
786.441	422.05
786.623	397.48
786.804	417.96
786.985	426.15
787.167	424.1
787.348	430.24
787.529	422.05
787.71	422.05
787.891	434.34
788.073	397.48
788.254	393.38
788.435	344.23
788.616	393.38
788.797	387.24
788.978	368.81
789.159	381.09
789.34	356.52
789.522	467.11
789.703	393.38
789.884	340.13
790.065	401.57
790.246	430.24
790.427	409.76
790.607	458.92
790.788	352.42
790.969	348.33
791.15	301.22
791.331	305.32
791.512	352.42
791.693	327.85
791.874	381.09
792.054	442.53
792.235	344.23
792.416	307.37
792.597	368.81
792.778	323.75
792.958	381.09
793.139	311.46
793.32	313.51
793.5	278.69
793.681	352.42
793.862	280.74
794.042	313.51
794.223	245.93
794.404	290.98
794.584	284.84
794.765	297.13
794.945	327.85
795.126	409.76
795.306	315.56
795.487	280.74
795.667	270.5
795.848	272.55
796.028	360.61
796.209	319.65
796.389	297.13
796.57	286.89
796.75	282.79
796.93	293.03
797.111	260.26
797.291	272.55
797.471	288.93
797.652	237.74
797.832	221.35
798.012	377
798.192	278.69
798.373	256.17
798.553	319.65
798.733	237.74
798.913	272.55
799.093	245.93
799.274	288.93
799.454	192.68
799.634	215.21
799.814	207.02
799.994	258.21
800.174	280.74
800.354	286.89
800.534	204.97
800.714	221.35
800.894	217.26
801.074	295.08
801.254	182.44
801.434	268.45
801.614	245.93
801.794	239.78
801.974	688.29
802.154	213.16
802.334	209.06
802.514	245.93
802.693	241.83
802.873	188.58
803.053	221.35
803.233	274.6
803.413	204.97
803.592	209.06
803.772	223.4
803.952	180.39
804.131	217.26
804.311	180.39
804.491	270.5
804.67	190.63
804.85	190.63
805.03	188.58
805.209	278.69
805.389	108.71
805.568	174.25
805.748	192.68
805.928	84.14
806.107	245.93
806.287	194.73
806.466	127.14
806.646	180.39
806.825	149.67
807.004	196.78
807.184	254.12
807.363	182.44
807.543	209.06
807.722	223.4
807.901	180.39
808.081	149.67
808.26	198.82
808.439	243.88
808.619	198.82
808.798	239.78
808.977	174.25
809.156	198.82
809.336	196.78
809.515	237.74
809.694	196.78
809.873	178.34
810.052	168.1
810.231	147.62
810.411	223.4
810.59	293.03
810.769	166.06
810.948	200.87
811.127	114.86
811.306	147.62
811.485	149.67
811.664	233.64
811.843	174.25
812.022	139.43
812.201	131.24
812.38	204.97
812.559	147.62
812.737	245.93
812.916	149.67
813.095	127.14
813.274	256.17
813.453	135.34
813.632	192.68
813.811	161.96
813.989	147.62
814.168	59.56
814.347	90.28
814.526	137.38
814.704	190.63
814.883	159.91
815.062	219.3
815.24	108.71
815.419	92.33
815.598	84.14
815.776	106.67
815.955	67.75
816.133	188.58
816.312	200.87
816.49	114.86
816.669	102.57
816.847	98.47
817.026	75.95
817.204	100.52
817.383	116.9
817.561	88.23
817.74	108.71
817.918	82.09
818.097	102.57
818.275	106.67
818.453	161.96
818.632	84.14
818.81	94.38
818.988	112.81
819.167	98.47
819.345	98.47
819.523	106.67
819.701	71.85
819.879	110.76
820.058	90.28
820.236	75.95
820.414	225.45
820.592	69.8
820.77	166.06
820.948	139.43
821.127	82.09
821.305	147.62
821.483	96.43
821.661	147.62
821.839	157.86
822.017	32.94
822.195	114.86
822.373	157.86
822.551	123.05
822.729	106.67
822.907	49.32
823.085	131.24
823.262	-1.88
823.44	65.71
823.618	90.28
823.796	106.67
823.974	135.34
824.152	149.67
824.329	28.84
824.507	121
824.685	141.48
824.863	102.57
825.04	92.33
825.218	104.62
825.396	149.67
825.574	73.9
825.751	94.38
825.929	145.58
826.107	84.14
826.284	114.86
826.462	127.14
826.639	98.47
826.817	96.43
826.994	73.9
827.172	47.27
827.349	198.82
827.527	18.6
827.704	106.67
827.882	114.86
828.059	106.67
828.237	0.17
828.414	65.71
828.591	98.47
828.769	65.71
828.946	69.8
829.124	153.77
829.301	57.51
829.478	59.56
829.655	28.84
829.833	131.24
830.01	26.79
830.187	106.67
830.364	94.38
830.542	102.57
830.719	139.43
830.896	92.33
831.073	73.9
831.25	61.61
831.427	61.61
831.604	37.03
831.782	75.95
831.959	61.61
832.136	51.37
832.313	32.94
832.49	32.94
832.667	102.57
832.844	32.94
833.021	86.19
833.198	8.36
833.374	82.09
833.551	47.27
833.728	47.27
833.905	102.57
834.082	37.03
834.259	10.41
834.436	114.86
834.612	121
834.789	61.61
834.966	8.36
835.143	73.9
835.319	77.99
835.496	4.27
835.673	139.43
835.85	121
836.026	73.9
836.203	106.67
836.38	16.55
836.556	43.18
836.733	118.95
836.909	65.71
837.086	10.41
837.262	37.03
837.439	112.81
837.616	24.75
837.792	45.23
837.968	67.75
838.145	41.13
838.321	69.8
838.498	4.27
838.674	26.79
838.851	28.84
839.027	-8.02
839.203	12.46
839.38	32.94
839.556	30.89
839.732	110.76
839.909	65.71
840.085	92.33
840.261	37.03
840.437	16.55
840.614	2.22
840.79	84.14
840.966	77.99
841.142	69.8
841.318	0.17
841.494	18.6
841.671	116.9
841.847	16.55
842.023	-1.88
842.199	75.95
842.375	49.32
842.551	-10.07
842.727	34.99
842.903	65.71
843.079	59.56
843.255	49.32
843.431	41.13
843.607	147.62
843.783	4.27
843.959	32.94
844.134	6.31
844.31	69.8
844.486	-8.02
844.662	-1.88
844.838	77.99
845.013	71.85
845.189	2.22
845.365	123.05
845.541	41.13
845.716	73.9
845.892	18.6
846.068	34.99
846.244	16.55
846.419	39.08
846.595	-24.4
846.77	57.51
846.946	32.94
847.122	86.19
847.297	53.42
847.473	41.13
847.648	57.51
847.824	4.27
847.999	-22.36
848.175	-5.97
848.35	53.42
848.526	32.94
848.701	24.75
848.876	98.47
849.052	53.42
849.227	12.46
849.403	77.99
849.578	22.7
849.753	10.41
849.929	65.71
850.104	49.32
850.279	57.51
850.454	24.75
850.63	18.6
850.805	22.7
850.98	125.1
851.155	-65.36
851.33	-3.93
851.505	2.22
851.681	168.1
851.856	-22.36
852.031	108.71
852.206	55.47
852.381	98.47
852.556	65.71
852.731	90.28
852.906	24.75
853.081	57.51
853.256	57.51
853.431	18.6
853.606	-5.97
853.781	69.8
853.956	-40.79
854.131	90.28
854.305	32.94
854.48	34.99
854.655	43.18
854.83	37.03
855.005	43.18
855.18	51.37
855.354	-5.97
855.529	84.14
855.704	-22.36
855.879	82.09
856.053	63.66
856.228	24.75
856.403	-22.36
856.577	-14.17
856.752	65.71
856.926	-24.4
857.101	-28.5
857.276	-16.21
857.45	-14.17
857.625	45.23
857.799	0.17
857.974	90.28
858.148	-40.79
858.323	16.55
858.497	-28.5
858.672	8.36
858.846	30.89
859.02	69.8
859.195	-28.5
859.369	4.27
859.543	8.36
859.718	34.99
859.892	-3.93
860.066	45.23
860.241	24.75
860.415	73.9
860.589	86.19
860.763	32.94
860.938	-24.4
861.112	24.75
861.286	16.55
861.46	-3.93
861.634	49.32
861.808	90.28
861.982	18.6
862.157	43.18
862.331	82.09
862.505	2.22
862.679	-36.69
862.853	51.37
863.027	-46.93
863.201	49.32
863.375	-3.93
863.549	-69.46
863.722	16.55
863.896	-34.64
864.07	-3.93
864.244	-77.65
864.418	16.55
864.592	45.23
864.766	-36.69
864.939	41.13
865.113	-8.02
865.287	16.55
865.461	-5.97
865.634	26.79
865.808	26.79
865.982	32.94
866.156	-34.64
866.329	-28.5
866.503	14.51
866.676	-34.64
866.85	34.99
867.024	26.79
867.197	41.13
867.371	61.61
867.544	-16.21
867.718	-10.07
867.891	45.23
868.065	-14.17
868.238	-55.12
868.412	43.18
868.585	37.03
868.759	16.55
868.932	-28.5
869.105	0.17
869.279	34.99
869.452	-18.26
869.625	16.55
869.799	-36.69
869.972	14.51
870.145	49.32
870.319	61.61
870.492	18.6
870.665	43.18
870.838	-20.31
871.011	-130.9
871.185	-32.6
871.358	26.79
871.531	-38.74
871.704	-12.12
871.877	57.51
872.05	-12.12
872.223	-94.04
872.396	102.57
872.569	-5.97
872.742	-61.27
872.915	-34.64
873.088	26.79
873.261	-44.88
873.434	-24.4
873.607	-59.22
873.78	-5.97
873.953	-8.02
874.126	0.17
874.299	16.55
874.471	57.51
874.644	65.71
874.817	37.03
874.99	69.8
875.163	-40.79
875.335	-5.97
875.508	20.65
875.681	75.95
875.853	-20.31
876.026	-12.12
876.199	65.71
876.371	28.84
876.544	-44.88
876.717	-24.4
876.889	-57.17
877.062	-5.97
877.234	-38.74
877.407	-20.31
877.579	30.89
877.752	-16.21
877.924	-24.4
878.097	-40.79
878.269	43.18
878.442	0.17
878.614	-8.02
878.786	10.41
878.959	26.79
879.131	39.08
879.303	-108.37
879.476	-8.02
879.648	10.41
879.82	-18.26
879.993	10.41
880.165	-40.79
880.337	-22.36
880.509	10.41
880.681	18.6
880.854	61.61
881.026	-48.98
881.198	16.55
881.37	-57.17
881.542	-94.04
881.714	-5.97
881.886	-34.64
882.058	-34.64
882.23	10.41
882.402	-36.69
882.574	2.22
882.746	82.09
882.918	57.51
883.09	-38.74
883.262	-16.21
883.434	67.75
883.606	-14.17
883.778	108.71
883.95	-14.17
884.122	2.22
884.293	16.55
884.465	-5.97
884.637	24.75
884.809	28.84
884.98	65.71
885.152	24.75
885.324	57.51
885.496	-44.88
885.667	0.17
885.839	-89.94
886.011	41.13
886.182	34.99
886.354	0.17
886.525	-71.51
886.697	16.55
886.869	-30.55
887.04	18.6
887.212	43.18
887.383	49.32
887.555	-20.31
887.726	-79.7
887.897	-8.02
888.069	37.03
888.24	-5.97
888.412	-8.02
888.583	-14.17
888.754	75.95
888.926	-83.8
889.097	32.94
889.268	-12.12
889.44	2.22
889.611	-77.65
889.782	-102.23
889.953	26.79
890.125	8.36
890.296	-8.02
890.467	-46.93
890.638	-51.03
890.809	-28.5
890.98	69.8
891.151	49.32
891.323	-5.97
891.494	18.6
891.665	-3.93
891.836	-81.75
892.007	-26.45
892.178	4.27
892.349	-46.93
892.52	-24.4
892.691	-24.4
892.862	-61.27
893.032	-63.32
893.203	8.36
893.374	-14.17
893.545	30.89
893.716	-32.6
893.887	-5.97
894.057	0.17
894.228	-51.03
894.399	10.41
894.57	-18.26
894.74	-32.6
894.911	-61.27
895.082	-12.12
895.253	-8.02
895.423	-3.93
895.594	32.94
895.764	-5.97
895.935	18.6
896.106	32.94
896.276	22.7
896.447	-16.21
896.617	12.46
896.788	-5.97
896.958	90.28
897.129	-69.46
897.299	-20.31
897.47	-32.6
897.64	43.18
897.81	-30.55
897.981	43.18
898.151	-12.12
898.322	-28.5
898.492	-40.79
898.662	18.6
898.832	-8.02
899.003	-75.6
899.173	57.51
899.343	-67.41
899.513	-71.51
