Data from USB4F104151__136__14-44-08-046.txt Node

Date: Thu Mar 13 14:44:08 EDT 2025
User: louis
Spectrometer: USB4F10415
Trigger mode: 4
Integration Time (sec): 2.000000E-2
Scans to average: 1
Electric dark correction enabled: true
Nonlinearity correction enabled: false
Boxcar width: 0
XAxis mode: Wavelengths
Number of Pixels in Spectrum: 3648
>>>>>Begin Spectral Data<<<<<
178.204	-110.42
178.424	-110.42
178.644	-110.42
178.864	-110.42
179.084	-34.64
179.304	34.99
179.524	-51.03
179.744	-24.4
179.964	26.79
180.184	-3.93
180.404	-3.93
180.624	67.75
180.844	-30.55
181.064	10.41
181.283	10.41
181.503	-71.51
181.723	34.99
181.943	-69.46
182.163	43.18
182.383	34.99
182.602	26.79
182.822	65.71
183.042	86.19
183.262	10.41
183.482	53.42
183.701	26.79
183.921	8.36
184.141	4.27
184.361	-28.5
184.58	-24.4
184.8	63.66
185.02	59.56
185.239	51.37
185.459	-3.93
185.679	92.33
185.898	-42.84
186.118	63.66
186.338	-1.88
186.557	18.6
186.777	4.27
186.997	-91.99
187.216	18.6
187.436	-5.97
187.655	47.27
187.875	10.41
188.095	14.51
188.314	34.99
188.534	118.95
188.753	69.8
188.973	26.79
189.192	55.47
189.412	37.03
189.631	26.79
189.851	-20.31
190.07	59.56
190.29	10.41
190.509	43.18
190.729	-53.08
190.948	24.75
191.168	100.52
191.387	102.57
191.607	-16.21
191.826	34.99
192.045	26.79
192.265	-100.18
192.484	77.99
192.704	10.41
192.923	73.9
193.142	61.61
193.362	26.79
193.581	57.51
193.8	26.79
194.02	37.03
194.239	-28.5
194.458	20.65
194.678	18.6
194.897	-3.93
195.116	2.22
195.335	28.84
195.555	86.19
195.774	18.6
195.993	20.65
196.212	-28.5
196.432	51.37
196.651	16.55
196.87	-44.88
197.089	110.76
197.308	45.23
197.528	45.23
197.747	6.31
197.966	18.6
198.185	49.32
198.404	61.61
198.623	100.52
198.842	45.23
199.062	39.08
199.281	28.84
199.5	10.41
199.719	-38.74
199.938	59.56
200.157	4.27
200.376	84.14
200.595	-5.97
200.814	6.31
201.033	43.18
201.252	37.03
201.471	37.03
201.69	22.7
201.909	63.66
202.128	51.37
202.347	45.23
202.566	41.13
202.785	43.18
203.004	12.46
203.223	86.19
203.442	61.61
203.661	71.85
203.879	-22.36
204.098	-44.88
204.317	-30.55
204.536	75.95
204.755	-12.12
204.974	20.65
205.193	20.65
205.411	98.47
205.63	4.27
205.849	100.52
206.068	63.66
206.287	57.51
206.505	18.6
206.724	51.37
206.943	47.27
207.162	18.6
207.381	98.47
207.599	61.61
207.818	61.61
208.037	47.27
208.255	-5.97
208.474	-36.69
208.693	45.23
208.911	6.31
209.13	41.13
209.349	28.84
209.567	77.99
209.786	43.18
210.005	6.31
210.223	26.79
210.442	30.89
210.661	26.79
210.879	73.9
211.098	-18.26
211.316	0.17
211.535	108.71
211.753	-3.93
211.972	104.62
212.191	96.43
212.409	34.99
212.628	28.84
212.846	-5.97
213.065	133.29
213.283	2.22
213.502	41.13
213.72	26.79
213.938	69.8
214.157	69.8
214.375	2.22
214.594	77.99
214.812	24.75
215.031	28.84
215.249	8.36
215.467	-44.88
215.686	73.9
215.904	20.65
216.122	92.33
216.341	127.14
216.559	18.6
216.778	0.17
216.996	43.18
217.214	53.42
217.432	51.37
217.651	-71.51
217.869	18.6
218.087	26.79
218.306	10.41
218.524	61.61
218.742	-22.36
218.96	53.42
219.179	75.95
219.397	-30.55
219.615	75.95
219.833	-12.12
220.051	59.56
220.27	0.17
220.488	80.04
220.706	-10.07
220.924	6.31
221.142	30.89
221.36	-1.88
221.578	-3.93
221.796	-1.88
222.015	16.55
222.233	30.89
222.451	39.08
222.669	47.27
222.887	2.22
223.105	-14.17
223.323	-1.88
223.541	2.22
223.759	100.52
223.977	61.61
224.195	75.95
224.413	30.89
224.631	10.41
224.849	10.41
225.067	59.56
225.285	51.37
225.503	20.65
225.721	-34.64
225.939	-1.88
226.157	-26.45
226.375	61.61
226.592	2.22
226.81	69.8
227.028	26.79
227.246	143.53
227.464	49.32
227.682	59.56
227.9	51.37
228.117	71.85
228.335	53.42
228.553	59.56
228.771	34.99
228.989	84.14
229.206	-34.64
229.424	10.41
229.642	12.46
229.86	8.36
230.077	71.85
230.295	14.51
230.513	20.65
230.731	30.89
230.948	59.56
231.166	71.85
231.384	-12.12
231.601	34.99
231.819	71.85
232.037	-61.27
232.254	10.41
232.472	30.89
232.689	-10.07
232.907	71.85
233.125	26.79
233.342	34.99
233.56	30.89
233.777	22.7
233.995	-5.97
234.213	26.79
234.43	-26.45
234.648	12.46
234.865	0.17
235.083	20.65
235.3	10.41
235.518	59.56
235.735	53.42
235.953	4.27
236.17	-3.93
236.388	67.75
236.605	10.41
236.822	47.27
237.04	-63.32
237.257	34.99
237.475	-28.5
237.692	14.51
237.909	41.13
238.127	-38.74
238.344	14.51
238.562	-5.97
238.779	12.46
238.996	51.37
239.214	39.08
239.431	92.33
239.648	-30.55
239.865	80.04
240.083	71.85
240.3	67.75
240.517	26.79
240.735	-3.93
240.952	118.95
241.169	18.6
241.386	14.51
241.603	28.84
241.821	6.31
242.038	57.51
242.255	20.65
242.472	28.84
242.689	104.62
242.907	8.36
243.124	45.23
243.341	26.79
243.558	-104.28
243.775	30.89
243.992	-5.97
244.209	125.1
244.426	61.61
244.643	59.56
244.86	-10.07
245.078	34.99
245.295	41.13
245.512	-14.17
245.729	-28.5
245.946	37.03
246.163	-10.07
246.38	10.41
246.597	-18.26
246.814	34.99
247.031	-22.36
247.248	-12.12
247.464	32.94
247.681	16.55
247.898	18.6
248.115	26.79
248.332	34.99
248.549	71.85
248.766	67.75
248.983	18.6
249.2	-8.02
249.417	20.65
249.633	-28.5
249.85	18.6
250.067	39.08
250.284	51.37
250.501	-32.6
250.717	137.38
250.934	20.65
251.151	-12.12
251.368	67.75
251.585	73.9
251.801	6.31
252.018	6.31
252.235	51.37
252.451	20.65
252.668	100.52
252.885	43.18
253.102	73.9
253.318	110.76
253.535	-34.64
253.752	10.41
253.968	-26.45
254.185	59.56
254.401	-18.26
254.618	53.42
254.835	47.27
255.051	67.75
255.268	34.99
255.484	-5.97
255.701	55.47
255.917	84.14
256.134	10.41
256.351	-40.79
256.567	22.7
256.784	37.03
257	-26.45
257.217	80.04
257.433	69.8
257.65	69.8
257.866	102.57
258.082	-57.17
258.299	-14.17
258.515	59.56
258.732	34.99
258.948	16.55
259.165	55.47
259.381	69.8
259.597	47.27
259.814	77.99
260.03	14.51
260.246	4.27
260.463	14.51
260.679	12.46
260.895	63.66
261.112	43.18
261.328	-38.74
261.544	10.41
261.761	108.71
261.977	-3.93
262.193	-46.93
262.409	75.95
262.626	43.18
262.842	-22.36
263.058	-36.69
263.274	69.8
263.49	24.75
263.707	14.51
263.923	12.46
264.139	-55.12
264.355	-3.93
264.571	69.8
264.787	47.27
265.004	39.08
265.22	34.99
265.436	4.27
265.652	22.7
265.868	-32.6
266.084	24.75
266.3	-22.36
266.516	34.99
266.732	51.37
266.948	47.27
267.164	69.8
267.38	2.22
267.596	67.75
267.812	47.27
268.028	45.23
268.244	125.1
268.46	32.94
268.676	-38.74
268.892	102.57
269.108	32.94
269.324	-3.93
269.54	-24.4
269.756	34.99
269.972	28.84
270.188	20.65
270.403	0.17
270.619	125.1
270.835	61.61
271.051	-5.97
271.267	28.84
271.483	2.22
271.698	26.79
271.914	92.33
272.13	-18.26
272.346	39.08
272.562	-12.12
272.777	-32.6
272.993	51.37
273.209	18.6
273.425	43.18
273.64	2.22
273.856	49.32
274.072	-22.36
274.287	43.18
274.503	51.37
274.719	24.75
274.934	69.8
275.15	112.81
275.366	-1.88
275.581	22.7
275.797	-30.55
276.012	4.27
276.228	116.9
276.444	39.08
276.659	45.23
276.875	10.41
277.09	-10.07
277.306	-12.12
277.521	18.6
277.737	69.8
277.952	43.18
278.168	34.99
278.383	43.18
278.599	-22.36
278.814	-38.74
279.03	-38.74
279.245	77.99
279.461	-14.17
279.676	67.75
279.892	-36.69
280.107	59.56
280.322	108.71
280.538	73.9
280.753	-3.93
280.969	2.22
281.184	86.19
281.399	22.7
281.615	84.14
281.83	-3.93
282.045	20.65
282.26	-44.88
282.476	39.08
282.691	39.08
282.906	6.31
283.122	-12.12
283.337	34.99
283.552	92.33
283.767	39.08
283.983	47.27
284.198	63.66
284.413	77.99
284.628	-16.21
284.843	67.75
285.058	63.66
285.274	-22.36
285.489	39.08
285.704	39.08
285.919	-12.12
286.134	75.95
286.349	28.84
286.564	84.14
286.779	20.65
286.995	6.31
287.21	-1.88
287.425	94.38
287.64	2.22
287.855	118.95
288.07	43.18
288.285	61.61
288.5	39.08
288.715	125.1
288.93	-46.93
289.145	26.79
289.36	-22.36
289.575	92.33
289.79	2.22
290.004	39.08
290.219	84.14
290.434	92.33
290.649	28.84
290.864	20.65
291.079	43.18
291.294	-18.26
291.509	116.9
291.724	73.9
291.938	51.37
292.153	51.37
292.368	-22.36
292.583	16.55
292.798	39.08
293.012	108.71
293.227	51.37
293.442	55.47
293.657	55.47
293.871	-5.97
294.086	53.42
294.301	51.37
294.516	45.23
294.73	71.85
294.945	-22.36
295.16	53.42
295.374	45.23
295.589	28.84
295.804	-63.32
296.018	34.99
296.233	55.47
296.447	22.7
296.662	57.51
296.877	20.65
297.091	2.22
297.306	92.33
297.52	-10.07
297.735	45.23
297.949	28.84
298.164	-14.17
298.378	34.99
298.593	12.46
298.807	96.43
299.022	59.56
299.236	127.14
299.451	-44.88
299.665	39.08
299.88	2.22
300.094	34.99
300.309	-14.17
300.523	43.18
300.737	20.65
300.952	-10.07
301.166	94.38
301.381	-1.88
301.595	43.18
301.809	45.23
302.024	-44.88
302.238	16.55
302.452	90.28
302.667	90.28
302.881	84.14
303.095	18.6
303.309	28.84
303.524	90.28
303.738	61.61
303.952	-20.31
304.166	-12.12
304.381	-71.51
304.595	34.99
304.809	-12.12
305.023	51.37
305.237	-38.74
305.452	47.27
305.666	53.42
305.88	59.56
306.094	84.14
306.308	59.56
306.522	121
306.736	26.79
306.95	4.27
307.164	43.18
307.379	-61.27
307.593	51.37
307.807	67.75
308.021	84.14
308.235	-26.45
308.449	61.61
308.663	88.23
308.877	71.85
309.091	55.47
309.305	65.71
309.519	-63.32
309.733	67.75
309.947	53.42
310.161	75.95
310.374	30.89
310.588	67.75
310.802	-8.02
311.016	-12.12
311.23	67.75
311.444	10.41
311.658	55.47
311.872	102.57
312.085	114.86
312.299	-1.88
312.513	104.62
312.727	86.19
312.941	30.89
313.154	-8.02
313.368	12.46
313.582	-48.98
313.796	18.6
314.009	6.31
314.223	34.99
314.437	51.37
314.651	26.79
314.864	39.08
315.078	65.71
315.292	63.66
315.505	98.47
315.719	26.79
315.933	18.6
316.146	26.79
316.36	-3.93
316.573	67.75
316.787	28.84
317.001	59.56
317.214	37.03
317.428	59.56
317.641	10.41
317.855	-5.97
318.068	8.36
318.282	-20.31
318.495	125.1
318.709	75.95
318.922	-5.97
319.136	63.66
319.349	133.29
319.563	34.99
319.776	45.23
319.99	-24.4
320.203	-28.5
320.417	94.38
320.63	108.71
320.843	102.57
321.057	24.75
321.27	-3.93
321.483	39.08
321.697	61.61
321.91	59.56
322.124	16.55
322.337	30.89
322.55	-16.21
322.763	69.8
322.977	-5.97
323.19	18.6
323.403	28.84
323.617	8.36
323.83	69.8
324.043	-8.02
324.256	18.6
324.469	39.08
324.683	53.42
324.896	2.22
325.109	41.13
325.322	-36.69
325.535	75.95
325.748	55.47
325.962	12.46
326.175	-40.79
326.388	71.85
326.601	-22.36
326.814	0.17
327.027	-20.31
327.24	37.03
327.453	-30.55
327.666	75.95
327.879	100.52
328.092	61.61
328.305	6.31
328.518	43.18
328.731	-5.97
328.944	75.95
329.157	34.99
329.37	-46.93
329.583	82.09
329.796	108.71
330.009	-38.74
330.222	-3.93
330.435	22.7
330.648	-5.97
330.861	45.23
331.073	30.89
331.286	92.33
331.499	121
331.712	-20.31
331.925	75.95
332.138	37.03
332.35	43.18
332.563	14.51
332.776	18.6
332.989	-67.41
333.202	49.32
333.414	18.6
333.627	-8.02
333.84	37.03
334.053	67.75
334.265	51.37
334.478	12.46
334.691	14.51
334.903	80.04
335.116	4.27
335.329	71.85
335.541	39.08
335.754	149.67
335.966	32.94
336.179	110.76
336.392	18.6
336.604	110.76
336.817	45.23
337.029	84.14
337.242	-32.6
337.454	45.23
337.667	80.04
337.88	92.33
338.092	12.46
338.305	12.46
338.517	18.6
338.729	75.95
338.942	34.99
339.154	59.56
339.367	-12.12
339.579	24.75
339.792	22.7
340.004	10.41
340.217	4.27
340.429	16.55
340.641	67.75
340.854	-28.5
341.066	-5.97
341.278	61.61
341.491	63.66
341.703	135.34
341.915	32.94
342.128	51.37
342.34	125.1
342.552	59.56
342.764	75.95
342.977	10.41
343.189	116.9
343.401	14.51
343.613	63.66
343.826	26.79
344.038	94.38
344.25	34.99
344.462	88.23
344.674	-3.93
344.886	61.61
345.099	53.42
345.311	34.99
345.523	47.27
345.735	-14.17
345.947	59.56
346.159	18.6
346.371	-18.26
346.583	37.03
346.795	80.04
347.007	-10.07
347.219	77.99
347.431	55.47
347.643	61.61
347.855	-38.74
348.067	73.9
348.279	-20.31
348.491	75.95
348.703	55.47
348.915	61.61
349.127	26.79
349.339	65.71
349.551	-38.74
349.763	75.95
349.975	30.89
350.187	43.18
350.399	43.18
350.61	53.42
350.822	-63.32
351.034	39.08
351.246	-24.4
351.458	51.37
351.669	2.22
351.881	137.38
352.093	67.75
352.305	90.28
352.517	26.79
352.728	125.1
352.94	55.47
353.152	45.23
353.363	-53.08
353.575	26.79
353.787	59.56
353.999	8.36
354.21	106.67
354.422	18.6
354.633	59.56
354.845	22.7
355.057	-1.88
355.268	26.79
355.48	67.75
355.692	14.51
355.903	-71.51
356.115	43.18
356.326	-42.84
356.538	164.01
356.749	77.99
356.961	-40.79
357.172	12.46
357.384	104.62
357.595	98.47
357.807	-14.17
358.018	-3.93
358.23	30.89
358.441	190.63
358.653	71.85
358.864	43.18
359.075	43.18
359.287	82.09
359.498	59.56
359.709	-18.26
359.921	96.43
360.132	67.75
360.344	59.56
360.555	55.47
360.766	100.52
360.977	28.84
361.189	57.51
361.4	18.6
361.611	110.76
361.823	55.47
362.034	20.65
362.245	12.46
362.456	84.14
362.667	51.37
362.879	4.27
363.09	59.56
363.301	2.22
363.512	43.18
363.723	61.61
363.935	67.75
364.146	125.1
364.357	39.08
364.568	28.84
364.779	-18.26
364.99	129.19
365.201	41.13
365.412	102.57
365.623	100.52
365.834	2.22
366.045	20.65
366.256	88.23
366.467	43.18
366.678	0.17
366.889	20.65
367.1	-12.12
367.311	75.95
367.522	77.99
367.733	12.46
367.944	6.31
368.155	-5.97
368.366	92.33
368.577	-22.36
368.788	71.85
368.999	53.42
369.209	-8.02
369.42	84.14
369.631	92.33
369.842	43.18
370.053	63.66
370.264	121
370.474	63.66
370.685	26.79
370.896	2.22
371.107	18.6
371.317	63.66
371.528	55.47
371.739	59.56
371.95	10.41
372.16	53.42
372.371	26.79
372.582	8.36
372.792	84.14
373.003	32.94
373.214	37.03
373.424	116.9
373.635	-8.02
373.846	47.27
374.056	45.23
374.267	75.95
374.477	92.33
374.688	10.41
374.898	26.79
375.109	14.51
375.319	51.37
375.53	39.08
375.74	39.08
375.951	30.89
376.161	28.84
376.372	108.71
376.582	20.65
376.793	92.33
377.003	-20.31
377.214	4.27
377.424	59.56
377.635	69.8
377.845	-5.97
378.055	86.19
378.266	55.47
378.476	92.33
378.686	88.23
378.897	6.31
379.107	30.89
379.317	-5.97
379.528	-22.36
379.738	67.75
379.948	41.13
380.158	51.37
380.369	100.52
380.579	10.41
380.789	-14.17
380.999	10.41
381.21	108.71
381.42	116.9
381.63	32.94
381.84	59.56
382.05	-12.12
382.261	86.19
382.471	98.47
382.681	-79.7
382.891	67.75
383.101	45.23
383.311	34.99
383.521	39.08
383.731	51.37
383.941	61.61
384.151	43.18
384.361	63.66
384.571	26.79
384.781	45.23
384.991	92.33
385.201	84.14
385.411	80.04
385.621	53.42
385.831	34.99
386.041	-12.12
386.251	6.31
386.461	37.03
386.671	63.66
386.881	43.18
387.091	30.89
387.301	125.1
387.511	75.95
387.72	51.37
387.93	63.66
388.14	-26.45
388.35	63.66
388.56	77.99
388.769	39.08
388.979	80.04
389.189	37.03
389.399	88.23
389.609	57.51
389.818	37.03
390.028	155.82
390.238	18.6
390.447	102.57
390.657	24.75
390.867	55.47
391.076	4.27
391.286	61.61
391.496	14.51
391.705	45.23
391.915	80.04
392.125	63.66
392.334	94.38
392.544	67.75
392.753	67.75
392.963	47.27
393.172	135.34
393.382	69.8
393.591	80.04
393.801	82.09
394.01	57.51
394.22	59.56
394.429	155.82
394.639	57.51
394.848	84.14
395.058	30.89
395.267	135.34
395.477	96.43
395.686	67.75
395.895	127.14
396.105	182.44
396.314	110.76
396.524	151.72
396.733	96.43
396.942	112.81
397.152	43.18
397.361	161.96
397.57	41.13
397.78	116.9
397.989	96.43
398.198	127.14
398.407	82.09
398.617	34.99
398.826	92.33
399.035	69.8
399.244	84.14
399.453	26.79
399.663	102.57
399.872	145.58
400.081	51.37
400.29	112.81
400.499	125.1
400.708	188.58
400.917	18.6
401.127	61.61
401.336	100.52
401.545	129.19
401.754	133.29
401.963	141.48
402.172	116.9
402.381	106.67
402.59	112.81
402.799	118.95
403.008	102.57
403.217	69.8
403.426	121
403.635	131.24
403.844	37.03
404.053	116.9
404.262	198.82
404.471	127.14
404.68	116.9
404.888	157.86
405.097	127.14
405.306	88.23
405.515	190.63
405.724	135.34
405.933	184.49
406.142	182.44
406.35	145.58
406.559	170.15
406.768	196.78
406.977	221.35
407.185	104.62
407.394	100.52
407.603	194.73
407.812	239.78
408.02	239.78
408.229	108.71
408.438	207.02
408.646	215.21
408.855	241.83
409.064	215.21
409.272	252.07
409.481	245.93
409.69	190.63
409.898	329.89
410.107	247.97
410.315	286.89
410.524	305.32
410.733	307.37
410.941	290.98
411.15	422.05
411.358	350.37
411.567	350.37
411.775	295.08
411.984	360.61
412.192	354.47
412.401	305.32
412.609	460.96
412.818	420
413.026	428.2
413.234	508.07
413.443	506.02
413.651	553.12
413.86	411.81
414.068	542.88
414.276	657.57
414.485	520.35
414.693	585.89
414.901	641.18
415.11	600.23
415.318	569.51
415.526	602.27
415.734	669.86
415.943	600.23
416.151	739.49
416.359	757.92
416.567	755.87
416.776	805.02
416.984	805.02
417.192	878.75
417.4	766.11
417.608	788.64
417.817	829.6
418.025	932
418.233	1030.3
418.441	979.1
418.649	1108.12
418.857	1036.44
419.065	1185.94
419.273	1134.75
419.481	1149.08
419.689	1280.15
419.897	1288.34
420.105	1249.43
420.313	1353.88
420.521	1476.76
420.729	1472.66
420.937	1380.5
421.145	1607.83
421.353	1566.87
421.561	1786
421.769	1716.37
421.977	1732.75
422.185	1751.18
422.393	1910.93
422.601	2019.47
422.809	1982.6
423.017	2064.52
423.224	1980.56
423.432	2191.5
423.64	2160.78
423.848	2410.63
424.056	2332.81
424.263	2527.36
424.471	2508.93
424.679	2537.6
424.887	2734.21
425.094	2820.22
425.302	2736.26
425.51	2885.76
425.718	2881.66
425.925	2902.14
426.133	3119.23
426.341	3180.67
426.548	3295.35
426.756	3448.95
426.964	3442.81
427.171	3614.84
427.379	3713.14
427.586	3762.29
427.794	3881.07
428.001	3930.22
428.209	4257.9
428.417	4087.92
428.624	4348.01
428.832	4468.84
429.039	4393.06
429.247	4405.35
429.454	4993.12
429.662	5247.07
429.869	4995.17
430.076	5159
430.284	5032.03
430.491	5185.63
430.699	5402.71
430.906	5421.14
431.114	5785.68
431.321	5771.35
431.528	6068.3
431.736	6373.45
431.943	6572.1
432.15	6408.26
432.358	6453.32
432.565	6828.1
432.772	6869.06
432.979	7161.92
433.187	7352.38
433.394	7284.8
433.601	8011.82
433.808	8065.07
434.016	7694.39
434.223	8097.84
434.43	8489
434.637	8396.84
434.844	9046.05
435.052	9029.66
435.259	8953.89
435.466	9218.08
435.673	9062.43
435.88	9697.3
436.087	10192.91
436.294	10110.99
436.501	9809.94
436.708	10127.38
436.915	10418.19
437.122	10891.27
437.329	10881.03
437.537	11259.9
437.743	11364.35
437.95	11429.88
438.157	11810.81
438.364	12236.78
438.571	12353.52
438.778	12214.26
438.985	13436.89
439.192	13015.01
439.399	13283.3
439.606	13285.34
439.813	13936.6
440.02	14714.83
440.227	14460.88
440.433	14372.82
440.64	14708.68
440.847	14575.56
441.054	14981.06
441.261	16027.57
441.467	15781.82
441.674	16005.05
441.881	16793.51
442.088	16504.75
442.294	16195.51
442.501	16775.08
442.708	17131.43
442.914	17762.2
443.121	18673.55
443.328	18411.41
443.534	19138.44
443.741	18866.06
443.948	18438.03
444.154	19931
444.361	19650.43
444.568	19808.12
444.774	20000.63
444.981	20125.56
445.187	20989.8
445.394	21622.62
445.6	21577.57
445.807	23455.56
446.013	22382.42
446.22	22669.14
446.426	23881.53
446.633	23945.02
446.839	24823.6
447.046	23717.7
447.252	24983.34
447.459	24831.79
447.665	24661.81
447.871	26056.48
448.078	27049.74
448.284	25626.4
448.491	26760.98
448.697	27238.16
448.903	27913.98
449.11	27924.22
449.316	27852.55
449.522	28198.65
449.728	28862.19
449.935	29146.86
450.141	29081.33
450.347	29744.87
450.553	28854
450.76	29394.67
450.966	30004.96
451.172	29961.95
451.378	30447.32
451.584	29890.27
451.791	30766.81
451.997	31094.48
452.203	31033.04
452.409	31252.17
452.615	31059.66
452.821	29961.95
453.027	29400.81
453.233	31602.38
453.44	30095.07
453.646	30678.74
453.852	30787.28
454.058	30930.64
454.264	30295.77
454.47	31147.73
454.676	30295.77
454.882	30854.87
455.088	28075.77
455.294	29036.27
455.5	29318.89
455.705	29755.11
455.911	28356.35
456.117	27959.04
456.323	27449.1
456.529	25835.3
456.735	26957.58
456.941	26674.96
457.147	26289.95
457.352	25421.61
457.558	25235.24
457.764	25237.29
457.97	24903.47
458.176	24487.73
458.381	24284.98
458.587	22722.38
458.793	23228.23
458.999	21911.39
459.204	23365.45
459.41	22587.22
459.616	21432.16
459.821	21485.41
460.027	21325.67
460.233	20952.94
460.438	19675.01
460.644	20049.78
460.85	19128.2
461.055	18888.59
461.261	18917.26
461.466	17309.6
461.672	17010.6
461.878	17958.81
462.083	16854.95
462.289	16537.52
462.494	16439.22
462.7	15863.74
462.905	15370.18
463.111	15955.9
463.316	16039.86
463.522	15546.3
463.727	15624.12
463.932	15640.51
464.138	15273.92
464.343	15210.43
464.549	14999.49
464.754	15419.33
464.959	15282.11
465.165	15196.1
465.37	14434.25
465.575	14254.03
465.781	14526.41
465.986	14774.22
466.191	14444.49
466.397	14141.39
466.602	13191.14
466.807	13557.72
467.012	13668.31
467.218	13739.99
467.423	13791.19
467.628	13684.7
467.833	14260.18
468.038	13776.86
468.244	13125.6
468.449	13883.35
468.654	13492.19
468.859	13328.35
469.064	13285.34
469.269	12840.93
469.474	12906.47
469.679	13017.06
469.885	12707.82
470.09	12945.38
470.295	12759.02
470.5	12681.19
470.705	12566.51
470.91	12126.19
471.115	12011.51
471.32	12384.24
471.525	12050.42
471.73	12015.6
471.935	12015.6
472.139	11499.52
472.344	11608.06
472.549	11505.66
472.754	11513.85
472.959	11227.14
473.164	10989.57
473.369	10823.69
473.574	11507.71
473.778	11169.79
473.983	10967.04
474.188	10883.08
474.393	10688.52
474.598	10723.34
474.802	10426.38
475.007	10463.24
475.212	10424.33
475.417	9816.08
475.621	10072.08
475.826	10031.12
476.031	9764.89
476.235	9695.25
476.44	9705.49
476.645	9631.77
476.849	9537.56
477.054	9644.06
477.259	9293.85
477.463	9424.92
477.668	9185.31
477.872	9226.27
478.077	9123.87
478.282	8560.68
478.486	8828.96
478.691	8710.18
478.895	8888.36
479.1	8759.33
479.304	8785.96
479.509	8599.59
479.713	8595.5
479.918	8425.51
480.122	8362.03
480.326	8421.42
480.531	8407.08
480.735	8181.81
480.94	8265.77
481.144	8398.89
481.348	8034.35
481.553	8296.49
481.757	7964.72
481.961	8044.59
482.166	8151.09
482.37	8034.35
482.574	7712.82
482.778	7876.66
482.983	8095.79
483.187	8276.01
483.391	8142.89
483.595	7995.44
483.8	7952.43
484.004	8071.22
484.208	8058.93
484.412	7911.47
484.616	8017.97
484.821	8005.68
485.025	7878.71
485.229	8054.83
485.433	8001.58
485.637	8071.22
485.841	8007.73
486.045	7966.77
486.249	8022.06
486.453	7958.58
486.657	7987.25
486.861	8155.18
487.065	7768.12
487.269	8044.59
487.473	7938.1
487.677	8081.46
487.881	7942.19
488.085	8007.73
488.289	8026.16
488.493	8159.28
488.697	8095.79
488.901	8101.94
489.105	7960.63
489.309	7972.91
489.512	8161.33
489.716	8140.85
489.92	7942.19
490.124	8063.02
490.328	8149.04
490.531	8214.57
490.735	8226.86
490.939	8138.8
491.143	8136.75
491.346	8099.89
491.55	8507.43
491.754	8196.14
491.958	8259.63
492.161	8405.03
492.365	8388.65
492.569	8327.21
492.772	8267.82
492.976	8482.86
493.18	8558.63
493.383	8712.23
493.587	8536.1
493.79	8767.52
493.994	8661.03
494.197	8747.05
494.401	8839.2
494.605	8693.8
494.808	9121.82
495.012	9095.2
495.215	9037.86
495.419	9058.34
495.622	9142.3
495.825	9439.26
496.029	9220.13
496.232	9564.18
496.436	9441.31
496.639	9486.36
496.843	9627.67
497.046	9572.38
497.249	9811.99
497.453	10022.93
497.656	9861.14
497.859	9965.59
498.063	10084.37
498.266	10319.89
498.469	10246.16
498.673	10309.65
498.876	10539.02
499.079	10582.03
499.282	10680.33
499.485	11065.35
499.689	10868.74
499.892	11001.86
500.095	11192.32
500.298	11384.83
500.501	11458.56
500.705	11329.53
500.908	11732.98
501.111	11761.66
501.314	11995.12
501.517	12044.27
501.72	12259.31
501.923	12306.41
502.126	12437.48
502.329	12552.17
502.532	12847.08
502.735	12609.51
502.938	13121.51
503.141	13150.18
503.344	13205.47
503.547	13125.6
503.75	13504.48
503.953	13639.64
504.156	13901.78
504.359	14059.48
504.562	14002.13
504.765	14139.35
504.968	14507.98
505.17	14739.4
505.373	14446.54
505.576	15085.51
505.779	15118.28
505.982	15175.62
506.185	15503.29
506.387	15404.99
506.59	15683.52
506.793	15851.45
506.996	15959.99
507.198	16525.23
507.401	16228.28
507.604	16576.43
507.807	16750.51
508.009	16951.21
508.212	16969.64
508.415	17172.39
508.617	17377.19
508.82	17528.74
509.022	17469.34
509.225	17903.51
509.428	17893.27
509.63	18208.66
509.833	18061.21
510.035	18780.04
510.238	18450.32
510.44	18581.39
510.643	19138.44
510.845	19492.74
511.048	19074.95
511.25	19728.25
511.453	19480.45
511.655	20424.56
511.858	19986.3
512.06	20266.87
512.262	20473.71
512.465	20541.3
512.667	20793.2
512.87	21268.33
513.072	21090.15
513.274	21645.15
513.477	21999.45
513.679	21761.89
513.881	22347.61
514.084	22505.3
514.286	22237.02
514.488	22443.86
514.69	23152.46
514.893	23191.37
515.095	23498.56
515.297	23406.41
515.499	23529.28
515.701	24211.26
515.904	24074.04
516.106	24321.85
516.308	24588.08
516.51	24940.33
516.712	25046.83
516.914	25116.46
517.116	25204.52
517.318	25870.11
517.52	25499.43
517.722	25771.81
517.925	26195.74
518.127	26441.5
518.329	26550.04
518.531	26545.94
518.733	27041.55
518.935	27455.24
519.136	27369.23
519.338	28026.62
519.54	27823.87
519.742	28321.53
519.944	28378.87
520.146	28618.49
520.348	29042.42
520.55	29159.15
520.752	28995.31
520.954	29480.68
521.155	29398.76
521.357	29769.44
521.559	30232.29
521.761	30742.23
521.963	30512.86
522.164	30416.6
522.366	30871.25
522.568	31041.23
522.77	31426.25
522.971	31827.65
523.173	31690.44
523.375	31731.4
523.576	31667.91
523.778	32005.83
523.98	32507.58
524.181	32515.77
524.383	32429.76
524.584	32855.73
524.786	32962.23
524.988	32802.49
525.189	33410.73
525.391	33408.68
525.592	33453.74
525.794	33412.78
525.995	33900.2
526.197	33945.25
526.398	33781.42
526.6	34356.89
526.801	34524.83
527.003	34782.87
527.204	34705.05
527.406	35090.07
527.607	34881.17
527.808	34911.89
528.01	34528.92
528.211	35133.07
528.412	35597.96
528.614	35409.55
528.815	35585.68
529.016	36165.25
529.218	35253.9
529.419	35774.09
529.62	35587.72
529.822	35868.3
530.023	35806.86
530.224	35679.88
530.425	35911.3
530.626	35546.76
530.828	35698.31
531.029	36521.6
531.23	35835.53
531.431	36075.14
531.632	36847.22
531.833	36703.87
532.035	36359.81
532.236	36298.37
532.437	36634.24
532.638	36279.94
532.839	36619.9
533.04	36486.78
533.241	36241.03
533.442	37023.35
533.643	37109.36
533.844	36849.27
534.045	36800.12
534.246	36699.77
534.447	37092.98
534.648	36628.09
534.849	36736.63
535.05	36368
535.251	36695.67
535.451	36673.15
535.652	37021.3
535.853	36765.31
536.054	36777.59
536.255	36687.48
536.456	36417.15
536.657	36949.62
536.857	37129.84
537.058	36714.11
537.259	36906.62
537.46	36978.29
537.66	36488.83
537.861	36826.74
538.062	36669.05
538.263	37228.15
538.463	36568.7
538.664	36419.2
538.865	36716.15
539.065	36984.44
539.266	36314.75
539.466	36607.61
539.667	35995.27
539.868	37242.48
540.068	36785.79
540.269	36576.89
540.469	36769.4
540.67	36353.66
540.87	36320.9
541.071	36753.02
541.271	36994.68
541.472	36791.93
541.672	36527.74
541.873	36329.09
542.073	35804.81
542.274	36765.31
542.474	36472.45
542.675	36454.01
542.875	37277.3
543.075	36572.8
543.276	36255.36
543.476	36738.68
543.676	36271.75
543.877	36425.34
544.077	36691.58
544.277	36265.6
544.478	36372.1
544.678	36679.29
544.878	36492.93
545.078	36474.49
545.279	36400.77
545.479	36408.96
545.679	36736.63
545.879	36224.64
546.079	36359.81
546.28	36222.59
546.48	36169.35
546.68	36312.7
546.88	36109.96
547.08	36470.4
547.28	36085.38
547.48	36056.71
547.68	35911.3
547.88	36331.14
548.081	36411.01
548.281	36351.62
548.481	36228.74
548.681	36056.71
548.881	36083.33
549.081	36218.5
549.28	36079.24
549.48	36214.4
549.68	36533.89
549.88	36363.9
550.08	35847.82
550.28	36335.23
550.48	36265.6
550.68	36353.66
550.88	35618.44
551.08	35960.45
551.279	36023.94
551.479	35686.03
551.679	36066.95
551.879	35575.44
552.079	36306.56
552.278	35622.54
552.478	35903.11
552.678	36103.81
552.878	36363.9
553.077	35980.93
553.277	35792.52
553.477	36300.42
553.676	35499.66
553.876	35884.68
554.076	35618.44
554.275	35741.32
554.475	35534.48
554.674	35905.16
554.874	35268.24
555.074	35753.61
555.273	35776.14
555.473	35585.68
555.672	35315.34
555.872	35395.21
556.071	35577.48
556.271	35688.07
556.47	35364.5
556.67	35077.78
556.869	35477.13
557.068	35618.44
557.268	35184.27
557.467	35325.58
557.667	35374.73
557.866	35161.75
558.065	34750.1
558.265	35204.75
558.464	34905.75
558.663	35061.4
558.863	34578.08
559.062	35395.21
559.261	34684.57
559.461	35077.78
559.66	34707.1
559.859	34635.42
560.058	34444.96
560.258	34725.53
560.457	34207.39
560.656	34477.72
560.855	34547.36
561.054	34553.5
561.253	34000.55
561.453	34399.9
561.652	34430.62
561.851	34416.29
562.05	33865.38
562.249	33910.44
562.448	34588.31
562.647	34231.97
562.846	33853.09
563.045	33857.19
563.244	33834.66
563.443	34436.77
563.642	33468.08
563.841	33349.29
564.04	33844.9
564.239	33511.08
564.438	33586.86
564.637	33762.98
564.836	33294
565.035	33298.09
565.234	33463.98
565.432	33502.89
565.631	33332.91
565.83	33052.34
566.029	33302.19
566.228	33191.6
566.427	33351.34
566.625	32829.11
566.824	32859.83
567.023	32822.97
567.222	32300.73
567.42	32876.21
567.619	32390.84
567.818	32480.96
568.016	32245.44
568.215	32638.65
568.414	32202.43
568.612	32532.15
568.811	31907.52
569.01	32446.14
569.208	31880.9
569.407	31999.68
569.605	31715.01
569.804	32018.11
570.002	31338.19
570.201	31555.27
570.4	31248.08
570.598	31610.57
570.797	31606.47
570.995	31545.03
571.193	31401.68
571.392	31096.53
571.59	31071.95
571.789	30863.06
571.987	31131.34
572.186	31149.78
572.384	30545.62
572.582	30910.16
572.781	30865.11
572.979	30064.35
573.177	30340.83
573.376	30441.18
573.574	30029.54
573.772	30580.44
573.971	30205.66
574.169	30140.13
574.367	29802.21
574.565	30140.13
574.763	29714.15
574.962	29730.53
575.16	29417.19
575.358	30166.75
575.556	29466.35
575.754	29871.84
575.952	29322.99
576.151	29499.11
576.349	29277.93
576.547	29312.75
576.745	29267.69
576.943	28940.02
577.141	29204.21
577.339	29480.68
577.537	28935.92
577.735	28815.09
577.933	28688.12
578.131	28698.36
578.329	28444.41
578.527	28483.32
578.725	28491.51
578.923	28677.88
579.121	28389.11
579.319	28430.07
579.516	28303.1
579.714	28104.45
579.912	28245.76
580.11	28032.77
580.308	27920.13
580.506	27975.42
580.704	27459.34
580.901	27721.48
581.099	27832.07
581.297	27670.28
581.495	27211.53
581.692	27756.29
581.89	27238.16
582.088	27442.95
582.285	27240.2
582.483	27651.84
582.681	27367.18
582.878	26894.1
583.076	26973.97
583.274	26846.99
583.471	26924.82
583.669	26763.03
583.866	26537.75
584.064	26732.31
584.262	26586.9
584.459	26738.45
584.657	26285.85
584.854	26468.12
585.052	26036
585.249	26320.67
585.447	26054.43
585.644	25720.61
585.841	25939.74
586.039	26271.51
586.236	25646.88
586.434	25595.68
586.631	25589.54
586.828	25718.56
587.026	25481
587.223	25544.48
587.42	25571.11
587.618	25571.11
587.815	25376.55
588.012	24999.73
588.21	25055.02
588.407	25227.05
588.604	25040.68
588.801	24823.6
588.999	24774.45
589.196	24872.75
589.393	24807.22
589.59	24848.18
589.787	24336.18
589.984	24960.81
590.182	24227.64
590.379	24438.58
590.576	24178.49
590.773	24409.91
590.97	24129.34
591.167	24381.24
591.364	23846.72
591.561	24061.76
591.758	23885.63
591.955	23977.79
592.152	23772.99
592.349	23895.87
592.546	23781.18
592.743	23916.35
592.94	23242.57
593.137	23330.63
593.334	23803.71
593.531	23246.66
593.727	23377.73
593.924	23226.18
594.121	22763.34
594.318	23217.99
594.515	23080.78
594.712	23254.86
594.908	23261
595.105	22918.99
595.302	22759.25
595.499	22835.02
595.696	22490.96
595.892	22251.35
596.089	22679.38
596.286	22308.69
596.482	22525.78
596.679	22226.78
596.876	22331.22
597.072	22040.41
597.269	21950.3
597.466	22067.03
597.662	21954.4
597.859	21946.2
598.055	21645.15
598.252	21643.1
598.448	21776.22
598.645	21450.6
598.841	21362.53
599.038	21225.32
599.234	21385.06
599.431	21501.79
599.627	21036.91
599.824	21133.16
600.02	21176.17
600.217	21106.54
600.413	20858.73
600.609	21008.23
600.806	20815.73
601.002	21239.65
601.198	20692.85
601.395	20891.5
601.591	20674.42
601.787	20422.52
601.984	20619.12
602.18	20557.68
602.376	20404.08
602.572	20383.6
602.769	20354.93
602.965	20287.35
603.161	20066.17
603.357	19965.82
603.553	19908.47
603.75	20199.29
603.946	19842.94
604.142	19941.24
604.338	19888
604.534	19871.61
604.73	19617.66
604.926	19459.97
605.122	19623.81
605.318	19359.62
605.514	19132.29
605.71	19654.53
605.906	19179.4
606.102	19154.82
606.298	19226.5
606.494	19140.49
606.69	19013.51
606.886	19228.55
607.082	18990.98
607.278	19189.64
607.474	18937.74
607.67	18681.74
607.866	18780.04
608.062	18859.91
608.257	18814.86
608.453	18814.86
608.649	18747.28
608.845	18573.2
609.041	18581.39
609.236	18646.93
609.432	18368.4
609.628	18493.33
609.824	18450.32
610.019	18399.12
610.215	18417.55
610.411	18212.76
610.606	18476.94
610.802	18196.37
610.998	18493.33
611.193	18311.06
611.389	18149.27
611.584	18126.74
611.78	17973.14
611.976	18159.51
612.171	17940.38
612.367	17850.27
612.562	17721.24
612.758	17926.04
612.953	17641.37
613.149	17942.42
613.344	17600.41
613.539	17887.13
613.735	17528.74
613.93	17923.99
614.126	17524.64
614.321	17586.08
614.517	17672.09
614.712	17651.61
614.907	17491.87
615.103	17489.82
615.298	17325.99
615.493	17627.04
615.688	17192.87
615.884	17502.11
616.079	17244.07
616.274	17438.62
616.47	17047.46
616.665	17237.92
616.86	16717.74
617.055	16928.68
617.25	17090.47
617.445	17205.16
617.641	16721.84
617.836	17229.73
618.031	16828.33
618.226	16816.04
618.421	16818.09
618.616	16613.29
618.811	16340.91
619.006	16678.83
619.201	16269.23
619.396	16525.23
619.591	16187.32
619.786	16523.18
619.981	16095.16
620.176	16443.31
620.371	15972.28
620.566	16113.59
620.761	16050.1
620.956	15959.99
621.151	15755.19
621.346	15953.85
621.541	15493.05
621.735	16027.57
621.93	15550.4
622.125	15404.99
622.32	15304.64
622.515	15290.31
622.709	15282.11
622.904	15124.42
623.099	15132.61
623.294	14991.3
623.488	14786.51
623.683	15112.13
623.878	14589.9
624.072	14895.05
624.267	14804.94
624.462	14546.89
624.656	14299.09
624.851	14665.67
625.046	14409.68
625.24	14315.47
625.435	13975.51
625.629	14217.17
625.824	13750.23
626.018	13998.04
626.213	13623.26
626.407	13922.26
626.602	13742.04
626.796	13619.16
626.991	13719.51
627.185	13567.96
627.38	13547.48
627.574	13576.16
627.768	13289.44
627.963	13084.64
628.157	13094.88
628.352	13133.79
628.546	13043.68
628.74	13228
628.935	12892.13
629.129	12830.69
629.323	12670.95
629.517	12646.38
629.712	12548.08
629.906	12720.1
630.1	12369.9
630.294	12249.07
630.489	12488.68
630.683	12343.28
630.877	12120.05
631.071	12165.11
631.265	12302.32
631.459	11988.98
631.653	11929.59
631.848	11808.76
632.042	11898.87
632.236	11966.45
632.43	11589.63
632.624	11757.56
632.818	11462.65
633.012	11374.59
633.206	11319.29
633.4	11659.26
633.594	11223.04
633.788	11317.25
633.982	11286.53
634.176	11149.31
634.369	11130.88
634.563	11122.69
634.757	10872.84
634.951	11145.22
635.145	10872.84
635.339	11206.66
635.533	10917.89
635.726	10858.5
635.92	10653.7
636.114	10637.32
636.308	10618.89
636.501	10651.66
636.695	10604.55
636.889	10424.33
637.083	10293.26
637.276	10326.03
637.47	10205.2
637.664	10151.95
637.857	10082.32
638.051	10137.62
638.244	10037.27
638.438	9850.9
638.632	9898
638.825	9947.15
639.019	9959.44
639.212	9744.41
639.406	9590.81
639.599	9558.04
639.793	9703.45
639.986	9572.38
640.18	9613.34
640.373	9551.9
640.567	9328.67
640.76	9431.07
640.954	9179.17
641.147	9132.06
641.34	9289.76
641.534	9154.59
641.727	9127.97
641.92	9170.97
642.114	8990.75
642.307	9087.01
642.5	9013.28
642.694	8896.55
642.887	8826.92
643.08	8661.03
643.273	8677.41
643.467	8747.05
643.66	8470.57
643.853	8411.18
644.046	8661.03
644.239	8640.55
644.432	8480.81
644.626	8253.48
644.819	8153.13
645.012	8216.62
645.205	8454.19
645.398	8310.83
645.591	8054.83
645.784	8255.53
645.977	8058.93
646.17	8081.46
646.363	7931.95
646.556	7907.38
646.749	7907.38
646.942	8028.21
647.135	7882.8
647.328	7813.17
647.521	7829.56
647.714	7632.95
647.907	7620.66
648.099	7682.1
648.292	7663.67
648.485	7788.6
648.678	7465.02
648.871	7467.06
649.064	7399.48
649.256	7596.09
649.449	7522.36
649.642	7399.48
649.835	7243.84
650.027	7174.21
650.22	7161.92
650.413	7252.03
650.605	6916.16
650.798	7241.79
650.991	7120.96
651.183	6879.3
651.376	7014.46
651.568	7073.85
651.761	6754.37
651.954	6981.7
652.146	6891.59
652.339	6873.15
652.531	6877.25
652.724	6719.56
652.916	6694.98
653.109	6770.76
653.301	6762.56
653.494	6590.53
653.686	6490.18
653.879	6711.36
654.071	6500.42
654.263	6424.65
654.456	6506.57
654.648	6418.5
654.84	6269
655.033	6455.37
655.225	6178.89
655.417	6273.1
655.61	6434.89
655.802	6264.91
655.994	6228.04
656.186	6178.89
656.379	6113.36
656.571	6156.36
656.763	5992.53
656.955	5867.6
657.148	5904.46
657.34	6002.77
657.532	5939.28
657.724	5908.56
657.916	5970
658.108	5843.03
658.3	5797.97
658.492	5904.46
658.684	5646.42
658.876	5699.67
659.068	5703.76
659.26	5566.55
659.452	5695.57
659.644	5640.28
659.836	5720.15
660.028	5617.75
660.22	5539.93
660.412	5496.92
660.604	5458.01
660.796	5371.99
660.988	5613.65
661.18	5347.42
661.372	5367.9
661.563	5294.17
661.755	5298.27
661.947	5185.63
662.139	5378.14
662.331	5165.15
662.522	5206.11
662.714	5105.76
662.906	5136.48
663.097	5068.89
663.289	5189.72
663.481	5167.2
663.673	5314.65
663.864	4941.92
664.056	5091.42
664.247	5007.45
664.439	4917.34
664.631	5003.36
664.822	5009.5
665.014	4954.21
665.205	4929.63
665.397	4860
665.588	4925.54
665.78	4810.85
665.971	4810.85
666.163	4745.31
666.354	4860
666.546	4755.55
666.737	4780.13
666.929	4761.7
667.12	4726.88
667.311	4647.01
667.503	4581.48
667.694	4624.48
667.885	4548.71
668.077	4501.61
668.268	4522.09
668.459	4520.04
668.651	4438.12
668.842	4511.85
669.033	4409.45
669.224	4450.41
669.416	4548.71
669.607	4395.11
669.798	4434.02
669.989	4474.98
670.18	4436.07
670.371	4313.19
670.563	4208.75
670.754	4339.82
670.945	4163.69
671.136	4294.76
671.327	4325.48
671.518	4126.83
671.709	4284.52
671.9	4243.56
672.091	4163.69
672.282	4188.27
672.473	4157.55
672.664	4163.69
672.855	4089.96
673.046	4186.22
673.237	4165.74
673.428	4032.62
673.619	4106.35
673.809	3979.37
674	4141.16
674.191	4026.48
674.382	4042.86
674.573	4100.2
674.764	4065.39
674.954	4042.86
675.145	3985.52
675.336	3915.89
675.527	3815.54
675.717	3995.76
675.908	3897.46
676.099	4016.24
676.289	3928.17
676.48	3795.06
676.671	3821.68
676.861	3913.84
677.052	3844.21
677.243	3852.4
677.433	3768.43
677.624	3954.8
677.814	3844.21
678.005	3866.74
678.195	3838.06
678.386	3827.82
678.576	3819.63
678.767	3844.21
678.957	3739.76
679.148	3813.49
679.338	3838.06
679.529	3733.62
679.719	3782.77
679.909	3850.35
680.1	3833.97
680.29	3733.62
680.481	3721.33
680.671	3799.15
680.861	3725.43
681.052	3823.73
681.242	3815.54
681.432	3893.36
681.622	3600.5
681.813	3713.14
682.003	3524.72
682.193	3690.61
682.383	3680.37
682.573	3717.23
682.764	3663.99
682.954	3793.01
683.144	3672.18
683.334	3653.75
683.524	3655.79
683.714	3639.41
683.904	3625.08
684.094	3614.84
684.284	3530.87
684.474	3598.45
684.664	3549.3
684.854	3639.41
685.044	3567.73
685.234	3537.01
685.424	3508.34
685.614	3420.28
685.804	3506.29
685.994	3598.45
686.184	3516.53
686.374	3631.22
686.564	3362.94
686.753	3520.63
686.943	3401.85
687.133	3344.5
687.323	3401.85
687.513	3467.38
687.702	3463.29
687.892	3295.35
688.082	3287.16
688.272	3305.59
688.461	3444.85
688.651	3354.74
688.841	3281.02
689.03	3305.59
689.22	3246.2
689.41	3258.49
689.599	3330.17
689.789	3352.7
689.979	3223.67
690.168	3289.21
690.358	3197.05
690.547	3188.86
690.737	3131.51
690.926	3020.92
691.116	3207.29
691.305	3313.78
691.495	3092.6
691.684	3057.79
691.874	2961.53
692.063	3135.61
692.252	3111.04
692.442	3129.47
692.631	3094.65
692.82	3139.71
693.01	3106.94
693.199	3068.03
693.388	2959.49
693.578	2943.1
693.767	2996.35
693.956	3080.32
694.146	2803.84
694.335	2877.57
694.524	2963.58
694.713	2896
694.902	2775.17
695.092	2902.14
695.281	2865.28
695.47	2852.99
695.659	2994.3
695.848	2926.72
696.037	2697.35
696.226	2840.7
696.415	2883.71
696.604	2852.99
696.793	2793.6
696.982	2771.07
697.171	2809.98
697.36	2893.95
697.549	2846.85
697.738	2685.06
697.927	2758.78
698.116	2748.54
698.305	2789.5
698.494	2685.06
698.683	2648.19
698.872	2840.7
699.061	2629.76
699.25	2726.02
699.438	2867.33
699.627	2652.29
699.816	2707.59
700.005	2746.5
700.193	2691.2
700.382	2828.42
700.571	2787.46
700.76	2711.68
700.948	2707.59
701.137	2683.01
701.326	2740.35
701.514	2584.71
701.703	2640
701.892	2689.15
702.08	2742.4
702.269	2670.72
702.457	2728.07
702.646	2656.39
702.834	2652.29
703.023	2672.77
703.212	2642.05
703.4	2779.26
703.589	2652.29
703.777	2576.52
703.965	2703.49
704.154	2611.33
704.342	2644.1
704.531	2582.66
704.719	2705.54
704.907	2721.92
705.096	2674.82
705.284	2738.3
705.472	2603.14
705.661	2541.7
705.849	2648.19
706.037	2656.39
706.226	2586.76
706.414	2670.72
706.602	2683.01
706.79	2648.19
706.979	2476.16
707.167	2640
707.355	2545.8
707.543	2492.55
707.731	2568.32
707.919	2644.1
708.107	2443.4
708.296	2459.78
708.484	2558.08
708.672	2478.21
708.86	2537.6
709.048	2510.98
709.236	2545.8
709.424	2605.19
709.612	2640
709.8	2623.62
709.988	2502.79
710.176	2623.62
710.364	2594.95
710.551	2553.99
710.739	2607.23
710.927	2586.76
711.115	2607.23
711.303	2611.33
711.491	2617.47
711.679	2578.56
711.866	2560.13
712.054	2533.51
712.242	2558.08
712.43	2599.04
712.617	2697.35
712.805	2584.71
712.993	2490.5
713.181	2457.73
713.368	2615.43
713.556	2527.36
713.744	2566.28
713.931	2586.76
714.119	2560.13
714.306	2488.45
714.494	2601.09
714.682	2437.25
714.869	2566.28
715.057	2578.56
715.244	2611.33
715.432	2533.51
715.619	2517.12
715.807	2525.32
715.994	2515.08
716.182	2457.73
716.369	2574.47
716.556	2621.57
716.744	2558.08
716.931	2420.87
717.119	2605.19
717.306	2592.9
717.493	2607.23
717.681	2592.9
717.868	2508.93
718.055	2470.02
718.242	2513.03
718.43	2553.99
718.617	2510.98
718.804	2496.64
718.991	2658.43
719.179	2617.47
719.366	2551.94
719.553	2582.66
719.74	2508.93
719.927	2615.43
720.114	2410.63
720.301	2494.6
720.488	2560.13
720.676	2492.55
720.863	2527.36
721.05	2549.89
721.237	2629.76
721.424	2445.45
721.611	2510.98
721.798	2640
721.985	2410.63
722.172	2474.12
722.358	2435.21
722.545	2439.3
722.732	2599.04
722.919	2545.8
723.106	2574.47
723.293	2582.66
723.48	2553.99
723.667	2263.18
723.853	2541.7
724.04	2588.8
724.227	2674.82
724.414	2541.7
724.6	2570.37
724.787	2533.51
724.974	2629.76
725.161	2570.37
725.347	2476.16
725.534	2429.06
725.72	2648.19
725.907	2551.94
726.094	2621.57
726.28	2510.98
726.467	2594.95
726.653	2467.97
726.84	2541.7
727.027	2599.04
727.213	2437.25
727.4	2627.71
727.586	2467.97
727.773	2435.21
727.959	2580.61
728.145	2578.56
728.332	2451.59
728.518	2545.8
728.705	2545.8
728.891	2537.6
729.077	2474.12
729.264	2486.4
729.45	2599.04
729.636	2633.86
729.823	2480.26
730.009	2560.13
730.195	2515.08
730.382	2656.39
730.568	2484.36
730.754	2543.75
730.94	2427.01
731.126	2564.23
731.313	2560.13
731.499	2721.92
731.685	2502.79
731.871	2599.04
732.057	2541.7
732.243	2543.75
732.429	2570.37
732.615	2519.17
732.801	2470.02
732.987	2431.11
733.173	2502.79
733.359	2576.52
733.545	2560.13
733.731	2547.84
733.917	2592.9
734.103	2615.43
734.289	2470.02
734.475	2533.51
734.661	2494.6
734.847	2492.55
735.033	2549.89
735.219	2496.64
735.404	2486.4
735.59	2560.13
735.776	2525.32
735.962	2418.82
736.148	2504.84
736.333	2640
736.519	2410.63
736.705	2433.16
736.89	2508.93
737.076	2547.84
737.262	2459.78
737.447	2412.68
737.633	2521.22
737.819	2476.16
738.004	2592.9
738.19	2447.49
738.375	2500.74
738.561	2576.52
738.747	2459.78
738.932	2422.92
739.118	2545.8
739.303	2459.78
739.489	2386.05
739.674	2429.06
739.859	2486.4
740.045	2388.1
740.23	2281.61
740.416	2455.69
740.601	2400.39
740.786	2371.72
740.972	2384.01
741.157	2281.61
741.342	2377.86
741.528	2306.18
741.713	2328.71
741.898	2379.91
742.084	2314.38
742.269	2404.49
742.454	2494.6
742.639	2291.85
742.824	2398.34
743.01	2353.29
743.195	2257.03
743.38	2279.56
743.565	2271.37
743.75	2320.52
743.935	2207.88
744.12	2289.8
744.305	2295.94
744.49	2211.98
744.675	2261.13
744.86	2238.6
745.045	2216.07
745.23	2279.56
745.415	2246.79
745.6	2134.15
745.785	2263.18
745.97	2287.75
746.155	2304.14
746.34	2285.7
746.525	2257.03
746.71	2173.07
746.895	2099.34
747.079	2037.9
747.264	2025.61
747.449	2091.15
747.634	2107.53
747.819	2025.61
748.003	1988.75
748.188	1953.93
748.373	2146.44
748.557	1986.7
748.742	1982.6
748.927	1968.27
749.111	1910.93
749.296	1986.7
749.481	1968.27
749.665	1906.83
749.85	1970.32
750.034	1910.93
750.219	1970.32
750.404	1894.54
750.588	1962.12
750.773	1763.47
750.957	1890.45
751.141	1851.53
751.326	1845.39
751.51	1837.2
751.695	1874.06
751.879	1794.19
752.064	1820.81
752.248	1822.86
752.432	1773.71
752.617	1718.42
752.801	1722.51
752.985	1742.99
753.17	1609.87
753.354	1820.81
753.538	1714.32
753.722	1573.01
753.907	1562.77
754.091	1611.92
754.275	1611.92
754.459	1583.25
754.643	1751.18
754.828	1661.07
755.012	1550.48
755.196	1493.14
755.38	1542.29
755.564	1562.77
755.748	1491.09
755.932	1511.57
756.116	1556.63
756.3	1595.54
756.484	1616.02
756.668	1460.37
756.852	1413.27
757.036	1511.57
757.22	1470.61
757.404	1431.7
757.588	1505.43
757.772	1417.37
757.956	1396.89
758.14	1487
758.323	1388.69
758.507	1439.89
758.691	1493.14
758.875	1357.97
759.059	1331.35
759.242	1378.45
759.426	1292.44
759.61	1274.01
759.794	1331.35
759.977	1345.69
760.161	1443.99
760.345	1390.74
760.528	1372.31
760.712	1302.68
760.895	1337.49
761.079	1239.19
761.263	1183.9
761.446	1347.73
761.63	1288.34
761.813	1300.63
761.997	1331.35
762.18	1202.33
762.364	1169.56
762.547	1163.42
762.731	1183.9
762.914	1271.96
763.098	1112.22
763.281	1296.53
763.464	1175.7
763.648	1198.23
763.831	1181.85
764.015	1149.08
764.198	1136.79
764.381	1118.36
764.564	1157.27
764.748	1108.12
764.931	1081.5
765.114	1077.4
765.297	1181.85
765.481	956.57
765.664	1058.97
765.847	1140.89
766.03	1153.18
766.213	1151.13
766.397	1108.12
766.58	1007.77
766.763	1128.6
766.946	1046.68
767.129	1067.16
767.312	985.24
767.495	1009.82
767.678	1038.49
767.861	1054.87
768.044	1108.12
768.227	1075.35
768.41	1009.82
768.593	985.24
768.776	1054.87
768.959	938.14
769.142	1087.64
769.324	927.9
769.507	981.15
769.69	981.15
769.873	981.15
770.056	1034.39
770.239	1042.59
770.421	936.09
770.604	936.09
770.787	923.8
770.97	921.76
771.152	932
771.335	880.8
771.518	864.41
771.7	893.09
771.883	1005.72
772.066	850.08
772.248	977.05
772.431	952.48
772.613	903.32
772.796	938.14
772.978	932
773.161	899.23
773.343	831.65
773.526	891.04
773.708	766.11
773.891	837.79
774.073	845.98
774.256	870.56
774.438	858.27
774.621	852.13
774.803	870.56
774.985	813.21
775.168	798.88
775.35	874.65
775.532	921.76
775.715	774.3
775.897	759.97
776.079	741.54
776.261	768.16
776.444	686.24
776.626	829.6
776.808	671.9
776.99	729.25
777.173	684.19
777.355	649.38
777.537	759.97
777.719	708.77
777.901	731.3
778.083	714.91
778.265	667.81
778.447	768.16
778.629	673.95
778.811	727.2
778.993	688.29
779.175	716.96
779.357	559.27
779.539	632.99
779.721	702.62
779.903	651.42
780.085	614.56
780.267	637.09
780.449	661.66
780.631	733.34
780.812	682.14
780.994	557.22
781.176	632.99
781.358	682.14
781.54	604.32
781.721	649.38
781.903	620.71
782.085	549.03
782.267	542.88
782.448	555.17
782.63	538.79
782.812	608.42
782.993	567.46
783.175	491.68
783.357	536.74
783.538	495.78
783.72	553.12
783.901	645.28
784.083	632.99
784.264	618.66
784.446	510.11
784.627	495.78
784.809	553.12
784.99	487.59
785.172	503.97
785.353	557.22
785.535	557.22
785.716	516.26
785.897	542.88
786.079	518.31
786.26	493.73
786.441	518.31
786.623	428.2
786.804	450.72
786.985	551.07
787.167	428.2
787.348	456.87
787.529	438.44
787.71	493.73
787.891	473.25
788.073	389.28
788.254	471.2
788.435	471.2
788.616	403.62
788.797	366.76
788.978	313.51
789.159	389.28
789.34	450.72
789.522	436.39
789.703	454.82
789.884	383.14
790.065	454.82
790.246	530.59
790.427	446.63
790.607	446.63
790.788	317.61
790.969	395.43
791.15	374.95
791.331	397.48
791.512	309.41
791.693	327.85
791.874	385.19
792.054	415.91
792.235	368.81
792.416	358.57
792.597	379.04
792.778	387.24
792.958	331.94
793.139	467.11
793.32	374.95
793.5	245.93
793.681	323.75
793.862	372.9
794.042	342.18
794.223	280.74
794.404	340.13
794.584	280.74
794.765	278.69
794.945	362.66
795.126	383.14
795.306	260.26
795.487	321.7
795.667	313.51
795.848	317.61
796.028	346.28
796.209	299.17
796.389	315.56
796.57	297.13
796.75	243.88
796.93	276.65
797.111	207.02
797.291	247.97
797.471	280.74
797.652	252.07
797.832	252.07
798.012	252.07
798.192	286.89
798.373	194.73
798.553	272.55
798.733	301.22
798.913	190.63
799.093	293.03
799.274	299.17
799.454	198.82
799.634	288.93
799.814	239.78
799.994	307.37
800.174	323.75
800.354	299.17
800.534	239.78
800.714	344.23
800.894	180.39
801.074	223.4
801.254	264.36
801.434	262.31
801.614	266.41
801.794	239.78
801.974	776.35
802.154	176.3
802.334	307.37
802.514	170.15
802.693	215.21
802.873	245.93
803.053	161.96
803.233	260.26
803.413	223.4
803.592	200.87
803.772	241.83
803.952	280.74
804.131	239.78
804.311	194.73
804.491	243.88
804.67	229.54
804.85	239.78
805.03	243.88
805.209	313.51
805.389	227.5
805.568	207.02
805.748	264.36
805.928	186.54
806.107	200.87
806.287	295.08
806.466	196.78
806.646	166.06
806.825	153.77
807.004	247.97
807.184	145.58
807.363	237.74
807.543	108.71
807.722	200.87
807.901	217.26
808.081	200.87
808.26	172.2
808.439	198.82
808.619	194.73
808.798	159.91
808.977	190.63
809.156	223.4
809.336	202.92
809.515	266.41
809.694	161.96
809.873	186.54
810.052	182.44
810.231	198.82
810.411	207.02
810.59	149.67
810.769	168.1
810.948	211.11
811.127	149.67
811.306	198.82
811.485	202.92
811.664	112.81
811.843	149.67
812.022	157.86
812.201	137.38
812.38	198.82
812.559	182.44
812.737	215.21
812.916	77.99
813.095	198.82
813.274	184.49
813.453	207.02
813.632	166.06
813.811	227.5
813.989	180.39
814.168	153.77
814.347	168.1
814.526	147.62
814.704	223.4
814.883	184.49
815.062	192.68
815.24	204.97
815.419	143.53
815.598	176.3
815.776	116.9
815.955	237.74
816.133	71.85
816.312	182.44
816.49	174.25
816.669	135.34
816.847	192.68
817.026	192.68
817.204	176.3
817.383	67.75
817.561	143.53
817.74	159.91
817.918	86.19
818.097	45.23
818.275	127.14
818.453	137.38
818.632	149.67
818.81	77.99
818.988	96.43
819.167	121
819.345	141.48
819.523	198.82
819.701	129.19
819.879	182.44
820.058	135.34
820.236	143.53
820.414	151.72
820.592	118.95
820.77	135.34
820.948	108.71
821.127	96.43
821.305	98.47
821.483	129.19
821.661	110.76
821.839	100.52
822.017	63.66
822.195	215.21
822.373	159.91
822.551	86.19
822.729	133.29
822.907	159.91
823.085	96.43
823.262	59.56
823.44	114.86
823.618	129.19
823.796	86.19
823.974	102.57
824.152	127.14
824.329	-5.97
824.507	102.57
824.685	135.34
824.863	84.14
825.04	129.19
825.218	92.33
825.396	90.28
825.574	92.33
825.751	92.33
825.929	133.29
826.107	102.57
826.284	129.19
826.462	84.14
826.639	108.71
826.817	67.75
826.994	151.72
827.172	43.18
827.349	194.73
827.527	161.96
827.704	168.1
827.882	141.48
828.059	147.62
828.237	157.86
828.414	67.75
828.591	12.46
828.769	116.9
828.946	112.81
829.124	108.71
829.301	168.1
829.478	49.32
829.655	67.75
829.833	178.34
830.01	-5.97
830.187	108.71
830.364	102.57
830.542	51.37
830.719	75.95
830.896	80.04
831.073	125.1
831.25	112.81
831.427	86.19
831.604	94.38
831.782	61.61
831.959	108.71
832.136	53.42
832.313	73.9
832.49	34.99
832.667	92.33
832.844	86.19
833.021	100.52
833.198	10.41
833.374	86.19
833.551	127.14
833.728	86.19
833.905	77.99
834.082	61.61
834.259	188.58
834.436	69.8
834.612	88.23
834.789	108.71
834.966	84.14
835.143	65.71
835.319	30.89
835.496	71.85
835.673	84.14
835.85	94.38
836.026	116.9
836.203	61.61
836.38	67.75
836.556	59.56
836.733	-1.88
836.909	108.71
837.086	125.1
837.262	-34.64
837.439	45.23
837.616	12.46
837.792	43.18
837.968	45.23
838.145	55.47
838.321	24.75
838.498	84.14
838.674	92.33
838.851	45.23
839.027	67.75
839.203	59.56
839.38	84.14
839.556	-5.97
839.732	118.95
839.909	75.95
840.085	71.85
840.261	43.18
840.437	43.18
840.614	67.75
840.79	125.1
840.966	55.47
841.142	75.95
841.318	4.27
841.494	-5.97
841.671	63.66
841.847	18.6
842.023	-14.17
842.199	-8.02
842.375	69.8
842.551	92.33
842.727	10.41
842.903	71.85
843.079	-10.07
843.255	92.33
843.431	20.65
843.607	116.9
843.783	-40.79
843.959	16.55
844.134	12.46
844.31	61.61
844.486	32.94
844.662	59.56
844.838	43.18
845.013	110.76
845.189	100.52
845.365	12.46
845.541	92.33
845.716	39.08
845.892	127.14
846.068	12.46
846.244	24.75
846.419	112.81
846.595	10.41
846.77	-3.93
846.946	22.7
847.122	59.56
847.297	26.79
847.473	86.19
847.648	26.79
847.824	34.99
847.999	-34.64
848.175	4.27
848.35	108.71
848.526	141.48
848.701	39.08
848.876	51.37
849.052	90.28
849.227	6.31
849.403	55.47
849.578	59.56
849.753	100.52
849.929	102.57
850.104	14.51
850.279	2.22
850.454	94.38
850.63	112.81
850.805	112.81
850.98	61.61
851.155	63.66
851.33	24.75
851.505	-53.08
851.681	137.38
851.856	41.13
852.031	-16.21
852.206	75.95
852.381	69.8
852.556	49.32
852.731	84.14
852.906	53.42
853.081	71.85
853.256	39.08
853.431	51.37
853.606	43.18
853.781	47.27
853.956	-81.75
854.131	108.71
854.305	-30.55
854.48	-5.97
854.655	71.85
854.83	20.65
855.005	-3.93
855.18	47.27
855.354	53.42
855.529	75.95
855.704	32.94
855.879	100.52
856.053	-34.64
856.228	73.9
856.403	-53.08
856.577	116.9
856.752	-67.41
856.926	18.6
857.101	2.22
857.276	20.65
857.45	-12.12
857.625	-5.97
857.799	49.32
857.974	51.37
858.148	32.94
858.323	69.8
858.497	43.18
858.672	-44.88
858.846	-85.84
859.02	59.56
859.195	53.42
859.369	-12.12
859.543	59.56
859.718	32.94
859.892	45.23
860.066	-5.97
860.241	45.23
860.415	-8.02
860.589	20.65
860.763	135.34
860.938	34.99
861.112	10.41
861.286	2.22
861.46	-8.02
861.634	28.84
861.808	51.37
861.982	-53.08
862.157	-5.97
862.331	-30.55
862.505	-46.93
862.679	67.75
862.853	6.31
863.027	0.17
863.201	69.8
863.375	6.31
863.549	30.89
863.722	53.42
863.896	37.03
864.07	8.36
864.244	43.18
864.418	151.72
864.592	43.18
864.766	4.27
864.939	32.94
865.113	-79.7
865.287	92.33
865.461	-14.17
865.634	108.71
865.808	-26.45
865.982	-44.88
866.156	43.18
866.329	75.95
866.503	2.22
866.676	75.95
866.85	73.9
867.024	-24.4
867.197	34.99
867.371	-46.93
867.544	61.61
867.718	43.18
867.891	49.32
868.065	-5.97
868.238	10.41
868.412	45.23
868.585	-1.88
868.759	-42.84
868.932	16.55
869.105	-14.17
869.279	41.13
869.452	8.36
869.625	59.56
869.799	2.22
869.972	-10.07
870.145	-5.97
870.319	4.27
870.492	-26.45
870.665	51.37
870.838	-77.65
871.011	-53.08
871.185	10.41
871.358	-12.12
871.531	10.41
871.704	-8.02
871.877	34.99
872.05	10.41
872.223	-3.93
872.396	10.41
872.569	10.41
872.742	-18.26
872.915	34.99
873.088	22.7
873.261	18.6
873.434	-14.17
873.607	-5.97
873.78	88.23
873.953	30.89
874.126	-30.55
874.299	-12.12
874.471	-18.26
874.644	-3.93
874.817	88.23
874.99	80.04
875.163	30.89
875.335	2.22
875.508	26.79
875.681	20.65
875.853	-10.07
876.026	43.18
876.199	-3.93
876.371	-28.5
876.544	-14.17
876.717	75.95
876.889	28.84
877.062	10.41
877.234	6.31
877.407	-8.02
877.579	12.46
877.752	16.55
877.924	37.03
878.097	-34.64
878.269	-8.02
878.442	141.48
878.614	57.51
878.786	55.47
878.959	-38.74
879.131	30.89
879.303	4.27
879.476	-96.08
879.648	12.46
879.82	-8.02
879.993	-22.36
880.165	-8.02
880.337	-63.32
880.509	-3.93
880.681	28.84
880.854	0.17
881.026	67.75
881.198	63.66
881.37	51.37
881.542	20.65
881.714	-71.51
881.886	51.37
882.058	-20.31
882.23	24.75
882.402	18.6
882.574	37.03
882.746	12.46
882.918	69.8
883.09	10.41
883.262	20.65
883.434	-14.17
883.606	-14.17
883.778	6.31
883.95	-26.45
884.122	-59.22
884.293	53.42
884.465	20.65
884.637	18.6
884.809	30.89
884.98	92.33
885.152	59.56
885.324	61.61
885.496	55.47
885.667	61.61
885.839	84.14
886.011	59.56
886.182	12.46
886.354	84.14
886.525	28.84
886.697	71.85
886.869	-51.03
887.04	-36.69
887.212	8.36
887.383	63.66
887.555	34.99
887.726	-67.41
887.897	-36.69
888.069	61.61
888.24	75.95
888.412	0.17
888.583	-65.36
888.754	59.56
888.926	-46.93
889.097	-30.55
889.268	-34.64
889.44	51.37
889.611	-67.41
889.782	-32.6
889.953	-57.17
890.125	69.8
890.296	-34.64
890.467	-20.31
890.638	-36.69
890.809	57.51
890.98	28.84
891.151	77.99
891.323	-3.93
891.494	75.95
891.665	30.89
891.836	-44.88
892.007	6.31
892.178	75.95
892.349	4.27
892.52	2.22
892.691	67.75
892.862	49.32
893.032	2.22
893.203	14.51
893.374	39.08
893.545	61.61
893.716	-20.31
893.887	8.36
894.057	26.79
894.228	-44.88
894.399	-87.89
894.57	-5.97
894.74	6.31
894.911	63.66
895.082	12.46
895.253	53.42
895.423	-83.8
895.594	2.22
895.764	-61.27
895.935	47.27
896.106	0.17
896.276	0.17
896.447	26.79
896.617	10.41
896.788	-1.88
896.958	-40.79
897.129	-26.45
897.299	26.79
897.47	61.61
897.64	141.48
897.81	-22.36
897.981	8.36
898.151	-67.41
898.322	-38.74
898.492	108.71
898.662	2.22
898.832	4.27
899.003	26.79
899.173	-26.45
899.343	8.36
899.513	4.27
