Data from USB4F104151__247__14-45-51-402.txt Node

Date: Thu Mar 13 14:45:51 EDT 2025
User: louis
Spectrometer: USB4F10415
Trigger mode: 4
Integration Time (sec): 2.000000E-2
Scans to average: 1
Electric dark correction enabled: true
Nonlinearity correction enabled: false
Boxcar width: 0
XAxis mode: Wavelengths
Number of Pixels in Spectrum: 3648
>>>>>Begin Spectral Data<<<<<
178.204	-182.44
178.424	-182.44
178.644	-182.44
178.864	-90.28
179.084	-131.24
179.304	14.17
179.524	-39.08
179.744	83.8
179.964	-10.41
180.184	-26.79
180.404	85.84
180.624	26.45
180.844	-28.84
181.064	-73.9
181.283	24.4
181.503	-59.56
181.723	3.93
181.943	16.21
182.163	1.88
182.383	48.98
182.602	48.98
182.822	59.22
183.042	65.36
183.262	34.64
183.482	38.74
183.701	-2.22
183.921	-18.6
184.141	-6.31
184.361	22.36
184.58	63.32
184.8	30.55
185.02	67.41
185.239	57.17
185.459	48.98
185.679	-8.36
185.898	-57.51
186.118	67.41
186.338	-6.31
186.557	22.36
186.777	63.32
186.997	30.55
187.216	44.88
187.436	55.12
187.655	137.04
187.875	-22.7
188.095	16.21
188.314	69.46
188.534	65.36
188.753	48.98
188.973	57.17
189.192	124.76
189.412	114.52
189.631	-18.6
189.851	100.18
190.07	100.18
190.29	-20.65
190.509	130.9
190.729	-14.51
190.948	57.17
191.168	108.37
191.387	89.94
191.607	16.21
191.826	-12.46
192.045	5.97
192.265	81.75
192.484	-8.36
192.704	46.93
192.923	63.32
193.142	79.7
193.362	10.07
193.581	42.84
193.8	34.64
194.02	112.47
194.239	94.04
194.458	71.51
194.678	-6.31
194.897	57.17
195.116	42.84
195.335	63.32
195.555	96.08
195.774	38.74
195.993	22.36
196.212	30.55
196.432	-43.18
196.651	26.45
196.87	5.97
197.089	112.47
197.308	46.93
197.528	40.79
197.747	42.84
197.966	63.32
198.185	128.85
198.404	59.22
198.623	18.26
198.842	5.97
199.062	112.47
199.281	-0.17
199.5	30.55
199.719	38.74
199.938	30.55
200.157	63.32
200.376	44.88
200.595	87.89
200.814	26.45
201.033	14.17
201.252	38.74
201.471	22.36
201.69	30.55
201.909	30.55
202.128	46.93
202.347	22.36
202.566	55.12
202.785	10.07
203.004	-51.37
203.223	16.21
203.442	40.79
203.661	40.79
203.879	38.74
204.098	26.45
204.317	5.97
204.536	65.36
204.755	106.32
204.974	55.12
205.193	48.98
205.411	120.66
205.63	-18.6
205.849	87.89
206.068	46.93
206.287	55.12
206.505	57.17
206.724	73.56
206.943	-4.27
207.162	67.41
207.381	32.6
207.599	89.94
207.818	-20.65
208.037	18.26
208.255	14.17
208.474	104.28
208.693	-24.75
208.911	-10.41
209.13	14.17
209.349	100.18
209.567	63.32
209.786	71.51
210.005	22.36
210.223	75.6
210.442	5.97
210.661	16.21
210.879	30.55
211.098	59.22
211.316	1.88
211.535	89.94
211.753	34.64
211.972	42.84
212.191	63.32
212.409	55.12
212.628	48.98
212.846	30.55
213.065	38.74
213.283	124.76
213.502	-10.41
213.72	22.36
213.938	8.02
214.157	71.51
214.375	116.56
214.594	-16.55
214.812	53.08
215.031	71.51
215.249	59.22
215.467	55.12
215.686	63.32
215.904	110.42
216.122	38.74
216.341	63.32
216.559	20.31
216.778	-12.46
216.996	44.88
217.214	38.74
217.432	63.32
217.651	18.26
217.869	22.36
218.087	-4.27
218.306	-30.89
218.524	137.04
218.742	24.4
218.96	132.95
219.179	1.88
219.397	14.17
219.615	42.84
219.833	89.94
220.051	71.51
220.27	14.17
220.488	14.17
220.706	3.93
220.924	-18.6
221.142	-2.22
221.36	51.03
221.578	79.7
221.796	1.88
222.015	14.17
222.233	-57.51
222.451	30.55
222.669	20.31
222.887	104.28
223.105	69.46
223.323	38.74
223.541	46.93
223.759	128.85
223.977	30.55
224.195	124.76
224.413	116.56
224.631	91.99
224.849	38.74
225.067	94.04
225.285	-18.6
225.503	48.98
225.721	20.31
225.939	145.24
226.157	8.02
226.375	67.41
226.592	106.32
226.81	-34.99
227.028	26.45
227.246	59.22
227.464	42.84
227.682	98.13
227.9	106.32
228.117	63.32
228.335	28.5
228.553	71.51
228.771	59.22
228.989	40.79
229.206	40.79
229.424	38.74
229.642	46.93
229.86	24.4
230.077	89.94
230.295	-59.56
230.513	53.08
230.731	106.32
230.948	81.75
231.166	102.23
231.384	26.45
231.601	51.03
231.819	48.98
232.037	-16.55
232.254	-10.41
232.472	14.17
232.689	22.36
232.907	22.36
233.125	44.88
233.342	32.6
233.56	46.93
233.777	-4.27
233.995	153.43
234.213	141.14
234.43	57.17
234.648	61.27
234.865	65.36
235.083	24.4
235.3	57.17
235.518	102.23
235.735	36.69
235.953	91.99
236.17	-0.17
236.388	46.93
236.605	26.45
236.822	55.12
237.04	55.12
237.257	22.36
237.475	65.36
237.692	42.84
237.909	34.64
238.127	30.55
238.344	59.22
238.562	73.56
238.779	-18.6
238.996	14.17
239.214	51.03
239.431	112.47
239.648	28.5
239.865	32.6
240.083	91.99
240.3	63.32
240.517	-4.27
240.735	73.56
240.952	30.55
241.169	55.12
241.386	-6.31
241.603	14.17
241.821	-18.6
242.038	40.79
242.255	81.75
242.472	-0.17
242.689	40.79
242.907	26.45
243.124	22.36
243.341	-34.99
243.558	51.03
243.775	14.17
243.992	38.74
244.209	38.74
244.426	128.85
244.643	77.65
244.86	91.99
245.078	38.74
245.295	122.71
245.512	1.88
245.729	73.56
245.946	26.45
246.163	18.26
246.38	16.21
246.597	124.76
246.814	46.93
247.031	20.31
247.248	34.64
247.464	46.93
247.681	46.93
247.898	26.45
248.115	-6.31
248.332	10.07
248.549	-8.36
248.766	61.27
248.983	51.03
249.2	73.56
249.417	83.8
249.633	24.4
249.85	53.08
250.067	-26.79
250.284	-16.55
250.501	63.32
250.717	-20.65
250.934	-2.22
251.151	24.4
251.368	81.75
251.585	96.08
251.801	18.26
252.018	34.64
252.235	67.41
252.451	59.22
252.668	10.07
252.885	114.52
253.102	149.33
253.318	106.32
253.535	14.17
253.752	38.74
253.968	38.74
254.185	128.85
254.401	51.03
254.618	59.22
254.835	-8.36
255.051	157.52
255.268	44.88
255.484	46.93
255.701	79.7
255.917	98.13
256.134	100.18
256.351	79.7
256.567	57.17
256.784	14.17
257	-4.27
257.217	40.79
257.433	57.17
257.65	69.46
257.866	87.89
258.082	-22.7
258.299	26.45
258.515	98.13
258.732	69.46
258.948	40.79
259.165	22.36
259.381	48.98
259.597	116.56
259.814	14.17
260.03	38.74
260.246	28.5
260.463	26.45
260.679	114.52
260.895	22.36
261.112	48.98
261.328	22.36
261.544	20.31
261.761	53.08
261.977	28.5
262.193	-59.56
262.409	71.51
262.626	96.08
262.842	24.4
263.058	71.51
263.274	100.18
263.49	53.08
263.707	94.04
263.923	65.36
264.139	16.21
264.355	36.69
264.571	147.28
264.787	34.64
265.004	87.89
265.22	-47.27
265.436	22.36
265.652	26.45
265.868	83.8
266.084	51.03
266.3	36.69
266.516	38.74
266.732	75.6
266.948	-8.36
267.164	38.74
267.38	100.18
267.596	48.98
267.812	67.41
268.028	67.41
268.244	65.36
268.46	5.97
268.676	-18.6
268.892	26.45
269.108	-18.6
269.324	46.93
269.54	16.21
269.756	55.12
269.972	-14.51
270.188	89.94
270.403	32.6
270.619	-45.23
270.835	135
271.051	96.08
271.267	75.6
271.483	55.12
271.698	77.65
271.914	57.17
272.13	-43.18
272.346	-4.27
272.562	63.32
272.777	79.7
272.993	-2.22
273.209	32.6
273.425	16.21
273.64	-10.41
273.856	75.6
274.072	75.6
274.287	22.36
274.503	30.55
274.719	-10.41
274.934	96.08
275.15	26.45
275.366	48.98
275.581	42.84
275.797	71.51
276.012	-26.79
276.228	-24.75
276.444	38.74
276.659	63.32
276.875	10.07
277.09	137.04
277.306	10.07
277.521	46.93
277.737	-22.7
277.952	65.36
278.168	98.13
278.383	108.37
278.599	75.6
278.814	135
279.03	-10.41
279.245	73.56
279.461	79.7
279.676	22.36
279.892	40.79
280.107	22.36
280.322	98.13
280.538	71.51
280.753	30.55
280.969	91.99
281.184	98.13
281.399	63.32
281.615	57.17
281.83	120.66
282.045	-39.08
282.26	87.89
282.476	26.45
282.691	106.32
282.906	108.37
283.122	30.55
283.337	-28.84
283.552	40.79
283.767	42.84
283.983	65.36
284.198	69.46
284.413	46.93
284.628	-32.94
284.843	-10.41
285.058	89.94
285.274	42.84
285.489	46.93
285.704	87.89
285.919	77.65
286.134	89.94
286.349	98.13
286.564	145.24
286.779	30.55
286.995	51.03
287.21	-20.65
287.425	40.79
287.64	59.22
287.855	55.12
288.07	1.88
288.285	89.94
288.5	57.17
288.715	71.51
288.93	30.55
289.145	51.03
289.36	165.71
289.575	53.08
289.79	81.75
290.004	-18.6
290.219	104.28
290.434	65.36
290.649	51.03
290.864	14.17
291.079	46.93
291.294	104.28
291.509	5.97
291.724	106.32
291.938	53.08
292.153	55.12
292.368	87.89
292.583	32.6
292.798	104.28
293.012	98.13
293.227	137.04
293.442	14.17
293.657	143.19
293.871	87.89
294.086	18.26
294.301	91.99
294.516	71.51
294.73	100.18
294.945	-2.22
295.16	22.36
295.374	128.85
295.589	18.26
295.804	36.69
296.018	22.36
296.233	55.12
296.447	55.12
296.662	26.45
296.877	26.45
297.091	42.84
297.306	46.93
297.52	-6.31
297.735	104.28
297.949	34.64
298.164	-16.55
298.378	57.17
298.593	-8.36
298.807	18.26
299.022	-8.36
299.236	71.51
299.451	65.36
299.665	71.51
299.88	100.18
300.094	112.47
300.309	40.79
300.523	112.47
300.737	36.69
300.952	30.55
301.166	112.47
301.381	87.89
301.595	5.97
301.809	34.64
302.024	24.4
302.238	96.08
302.452	55.12
302.667	63.32
302.881	40.79
303.095	96.08
303.309	-2.22
303.524	22.36
303.738	18.26
303.952	8.02
304.166	53.08
304.381	46.93
304.595	100.18
304.809	75.6
305.023	61.27
305.237	73.56
305.452	18.26
305.666	106.32
305.88	73.56
306.094	75.6
306.308	116.56
306.522	91.99
306.736	-34.99
306.95	38.74
307.164	89.94
307.379	32.6
307.593	55.12
307.807	-2.22
308.021	55.12
308.235	-51.37
308.449	-20.65
308.663	32.6
308.877	40.79
309.091	22.36
309.305	18.26
309.519	-0.17
309.733	75.6
309.947	8.02
310.161	53.08
310.374	98.13
310.588	51.03
310.802	55.12
311.016	57.17
311.23	87.89
311.444	63.32
311.658	-84.14
311.872	87.89
312.085	124.76
312.299	26.45
312.513	28.5
312.727	38.74
312.941	14.17
313.154	-4.27
313.368	96.08
313.582	59.22
313.796	14.17
314.009	94.04
314.223	116.56
314.437	81.75
314.651	55.12
314.864	55.12
315.078	14.17
315.292	32.6
315.505	55.12
315.719	40.79
315.933	55.12
316.146	48.98
316.36	-2.22
316.573	71.51
316.787	128.85
317.001	120.66
317.214	-24.75
317.428	42.84
317.641	14.17
317.855	87.89
318.068	-22.7
318.282	48.98
318.495	73.56
318.709	-10.41
318.922	112.47
319.136	57.17
319.349	48.98
319.563	120.66
319.776	69.46
319.99	-30.89
320.203	-32.94
320.417	108.37
320.63	106.32
320.843	46.93
321.057	46.93
321.27	1.88
321.483	46.93
321.697	71.51
321.91	51.03
322.124	46.93
322.337	63.32
322.55	55.12
322.763	79.7
322.977	48.98
323.19	104.28
323.403	40.79
323.617	75.6
323.83	61.27
324.043	-8.36
324.256	57.17
324.469	10.07
324.683	79.7
324.896	8.02
325.109	38.74
325.322	-69.8
325.535	91.99
325.748	71.51
325.962	63.32
326.175	-10.41
326.388	36.69
326.601	32.6
326.814	73.56
327.027	32.6
327.24	104.28
327.453	5.97
327.666	169.81
327.879	102.23
328.092	1.88
328.305	59.22
328.518	14.17
328.731	22.36
328.944	24.4
329.157	30.55
329.37	32.6
329.583	165.71
329.796	69.46
330.009	71.51
330.222	145.24
330.435	135
330.648	-14.51
330.861	40.79
331.073	79.7
331.286	89.94
331.499	34.64
331.712	22.36
331.925	65.36
332.138	-0.17
332.35	69.46
332.563	-28.84
332.776	104.28
332.989	44.88
333.202	38.74
333.414	59.22
333.627	135
333.84	30.55
334.053	120.66
334.265	89.94
334.478	8.02
334.691	38.74
334.903	96.08
335.116	42.84
335.329	69.46
335.541	65.36
335.754	79.7
335.966	22.36
336.179	26.45
336.392	55.12
336.604	22.36
336.817	14.17
337.029	120.66
337.242	-8.36
337.454	14.17
337.667	96.08
337.88	102.23
338.092	34.64
338.305	96.08
338.517	63.32
338.729	63.32
338.942	89.94
339.154	-6.31
339.367	46.93
339.579	65.36
339.792	20.31
340.004	71.51
340.217	63.32
340.429	55.12
340.641	28.5
340.854	89.94
341.066	-28.84
341.278	55.12
341.491	18.26
341.703	81.75
341.915	5.97
342.128	169.81
342.34	55.12
342.552	14.17
342.764	30.55
342.977	128.85
343.189	67.41
343.401	87.89
343.613	16.21
343.826	-14.51
344.038	28.5
344.25	71.51
344.462	122.71
344.674	16.21
344.886	81.75
345.099	79.7
345.311	55.12
345.523	30.55
345.735	-92.33
345.947	98.13
346.159	71.51
346.371	-14.51
346.583	79.7
346.795	48.98
347.007	114.52
347.219	-2.22
347.431	63.32
347.643	65.36
347.855	71.51
348.067	51.03
348.279	67.41
348.491	55.12
348.703	77.65
348.915	10.07
349.127	46.93
349.339	16.21
349.551	32.6
349.763	55.12
349.975	77.65
350.187	98.13
350.399	91.99
350.61	73.56
350.822	48.98
351.034	75.6
351.246	10.07
351.458	153.43
351.669	-10.41
351.881	65.36
352.093	108.37
352.305	22.36
352.517	26.45
352.728	36.69
352.94	34.64
353.152	96.08
353.363	10.07
353.575	91.99
353.787	89.94
353.999	153.43
354.21	75.6
354.422	-6.31
354.633	48.98
354.845	32.6
355.057	63.32
355.268	139.09
355.48	-8.36
355.692	32.6
355.903	147.28
356.115	89.94
356.326	118.61
356.538	91.99
356.749	22.36
356.961	210.77
357.172	18.26
357.384	30.55
357.595	108.37
357.807	55.12
358.018	63.32
358.23	32.6
358.441	77.65
358.653	59.22
358.864	51.03
359.075	-16.55
359.287	46.93
359.498	120.66
359.709	46.93
359.921	-8.36
360.132	40.79
360.344	1.88
360.555	51.03
360.766	69.46
360.977	122.71
361.189	83.8
361.4	94.04
361.611	100.18
361.823	77.65
362.034	-14.51
362.245	42.84
362.456	59.22
362.667	104.28
362.879	83.8
363.09	69.46
363.301	42.84
363.512	83.8
363.723	46.93
363.935	53.08
364.146	87.89
364.357	57.17
364.568	-2.22
364.779	30.55
364.99	46.93
365.201	18.26
365.412	55.12
365.623	-32.94
365.834	126.8
366.045	-26.79
366.256	51.03
366.467	71.51
366.678	38.74
366.889	36.69
367.1	94.04
367.311	96.08
367.522	106.32
367.733	75.6
367.944	48.98
368.155	5.97
368.366	89.94
368.577	139.09
368.788	112.47
368.999	151.38
369.209	63.32
369.42	122.71
369.631	167.76
369.842	12.12
370.053	-24.75
370.264	120.66
370.474	89.94
370.685	100.18
370.896	79.7
371.107	128.85
371.317	112.47
371.528	71.51
371.739	75.6
371.95	30.55
372.16	118.61
372.371	71.51
372.582	38.74
372.792	65.36
373.003	20.31
373.214	51.03
373.424	118.61
373.635	22.36
373.846	122.71
374.056	63.32
374.267	24.4
374.477	83.8
374.688	-10.41
374.898	-16.55
375.109	51.03
375.319	83.8
375.53	79.7
375.74	112.47
375.951	-10.41
376.161	108.37
376.372	75.6
376.582	46.93
376.793	96.08
377.003	-18.6
377.214	67.41
377.424	57.17
377.635	139.09
377.845	75.6
378.055	89.94
378.266	71.51
378.476	53.08
378.686	89.94
378.897	73.56
379.107	96.08
379.317	79.7
379.528	59.22
379.738	73.56
379.948	38.74
380.158	165.71
380.369	98.13
380.579	63.32
380.789	73.56
380.999	55.12
381.21	55.12
381.42	145.24
381.63	96.08
381.84	182.1
382.05	120.66
382.261	63.32
382.471	63.32
382.681	22.36
382.891	87.89
383.101	18.26
383.311	91.99
383.521	108.37
383.731	173.91
383.941	1.88
384.151	135
384.361	-6.31
384.571	89.94
384.781	104.28
384.991	182.1
385.201	79.7
385.411	100.18
385.621	120.66
385.831	104.28
386.041	38.74
386.251	67.41
386.461	87.89
386.671	71.51
386.881	38.74
387.091	108.37
387.301	24.4
387.511	42.84
387.72	137.04
387.93	116.56
388.14	110.42
388.35	81.75
388.56	112.47
388.769	122.71
388.979	96.08
389.189	98.13
389.399	73.56
389.609	128.85
389.818	157.52
390.028	112.47
390.238	87.89
390.447	38.74
390.657	57.17
390.867	44.88
391.076	79.7
391.286	8.02
391.496	106.32
391.705	79.7
391.915	190.29
392.125	132.95
392.334	157.52
392.544	149.33
392.753	100.18
392.963	157.52
393.172	87.89
393.382	75.6
393.591	161.62
393.801	91.99
394.01	173.91
394.22	194.39
394.429	91.99
394.639	87.89
394.848	153.43
395.058	104.28
395.267	153.43
395.477	112.47
395.686	141.14
395.895	96.08
396.105	194.39
396.314	137.04
396.524	108.37
396.733	104.28
396.942	153.43
397.152	87.89
397.361	165.71
397.57	135
397.78	83.8
397.989	145.24
398.198	204.63
398.407	153.43
398.617	239.44
398.826	61.27
399.035	100.18
399.244	167.76
399.453	100.18
399.663	137.04
399.872	59.22
400.081	69.46
400.29	114.52
400.499	28.5
400.708	171.86
400.917	85.84
401.127	108.37
401.336	137.04
401.545	186.19
401.754	196.43
401.963	143.19
402.172	153.43
402.381	34.64
402.59	155.47
402.799	169.81
403.008	194.39
403.217	206.67
403.426	159.57
403.635	132.95
403.844	175.95
404.053	155.47
404.262	186.19
404.471	245.59
404.68	223.06
404.888	261.97
405.097	165.71
405.306	161.62
405.515	210.77
405.724	247.63
405.933	227.15
406.142	253.78
406.35	227.15
406.559	153.43
406.768	221.01
406.977	223.06
407.185	261.97
407.394	249.68
407.603	180.05
407.812	304.98
408.02	218.96
408.229	251.73
408.438	313.17
408.646	302.93
408.855	329.55
409.064	288.59
409.272	268.11
409.481	341.84
409.69	358.22
409.898	317.26
410.107	358.22
410.315	456.53
410.524	339.79
410.733	411.47
410.941	358.22
411.15	425.81
411.358	468.81
411.567	489.29
411.775	429.9
411.984	544.59
412.192	413.52
412.401	517.97
412.609	569.16
412.818	591.69
413.026	534.35
413.234	585.55
413.443	661.32
413.651	534.35
413.86	614.22
414.068	753.48
414.276	747.34
414.485	771.91
414.693	778.06
414.901	833.35
415.11	714.57
415.318	833.35
415.526	917.32
415.734	997.19
415.943	933.7
416.151	972.61
416.359	933.7
416.567	1056.58
416.776	1032.01
416.984	1040.2
417.192	1087.3
417.4	1144.64
417.608	1130.31
417.817	1179.46
418.025	1187.65
418.233	1433.41
418.441	1279.81
418.649	1451.84
418.857	1521.47
419.065	1507.13
419.273	1435.46
419.481	1619.77
419.689	1640.25
419.897	1701.69
420.105	1806.14
420.313	1795.9
420.521	1924.92
420.729	1912.63
420.937	2092.85
421.145	2076.47
421.353	2123.57
421.561	2299.7
421.769	2176.82
421.977	2379.57
422.185	2342.71
422.393	2504.5
422.601	2637.61
422.809	2565.93
423.017	2801.45
423.224	2832.17
423.432	2914.09
423.64	2901.8
423.848	3319.59
424.056	3063.59
424.263	3323.68
424.471	3428.13
424.679	3372.83
424.887	3663.65
425.094	3661.6
425.302	3741.47
425.51	3831.58
425.718	4011.8
425.925	4085.53
426.133	4167.45
426.341	4396.82
426.548	4527.89
426.756	4560.66
426.964	4712.21
427.171	4871.95
427.379	4978.44
427.586	5254.92
427.794	5256.97
428.001	5447.43
428.209	5846.78
428.417	5730.05
428.624	6141.69
428.832	5967.61
429.039	5965.56
429.247	5871.36
429.454	6696.69
429.662	7042.79
429.869	6543.09
430.076	7063.27
430.284	6846.19
430.491	7403.24
430.699	7577.31
430.906	7395.04
431.114	7667.42
431.321	7915.23
431.528	8197.85
431.736	8681.17
431.943	8847.05
432.15	8830.67
432.358	8906.45
432.565	9428.68
432.772	9434.82
432.979	9938.62
433.187	9825.98
433.394	9983.68
433.601	10720.95
433.808	10786.48
434.016	10718.9
434.223	11214.51
434.43	11744.93
434.637	11536.04
434.844	12273.31
435.052	12613.27
435.259	12402.33
435.466	12813.97
435.673	12422.81
435.88	13280.91
436.087	14186.11
436.294	13964.93
436.501	13629.06
436.708	13801.09
436.915	14634.61
437.122	15070.83
437.329	14988.91
437.537	15294.06
437.743	15631.97
437.95	15685.22
438.157	16526.94
438.364	16948.82
438.571	16864.85
438.778	17045.07
438.985	18587.19
439.192	17782.34
439.399	18507.32
439.606	17987.14
439.813	19080.75
440.02	20055.59
440.227	20284.96
440.433	19633.71
440.64	20710.94
440.847	20477.47
441.054	20663.83
441.261	21851.66
441.467	21827.08
441.674	22248.96
441.881	22984.18
442.088	22767.1
442.294	22918.65
442.501	23248.37
442.708	23641.58
442.914	24995.29
443.121	25871.82
443.328	25288.15
443.534	26795.45
443.741	26019.27
443.948	25998.79
444.154	27807.15
444.361	27610.54
444.568	27649.46
444.774	27704.75
444.981	28274.09
445.187	28691.87
445.394	30307.72
445.6	29754.77
445.807	32636.26
446.013	31225.21
446.22	31919.47
446.426	33224.03
446.633	33686.87
446.839	34301.26
447.046	32804.19
447.252	34891.07
447.459	35343.67
447.665	35020.09
447.871	36472.1
448.078	37676.31
448.284	36367.66
448.491	37317.92
448.697	38626.57
448.903	39060.74
449.11	39711.99
449.316	38989.06
449.522	39533.82
449.728	40570.09
449.935	40905.96
450.141	40877.29
450.347	41780.44
450.553	40838.37
450.76	41235.68
450.966	42540.24
451.172	42271.95
451.378	43465.92
451.584	42259.66
451.791	43621.56
451.997	43461.82
452.203	44571.82
452.409	44174.52
452.615	44063.92
452.821	42523.85
453.027	42282.19
453.233	44379.31
453.44	42468.56
453.646	43377.86
453.852	43648.19
454.058	44256.43
454.264	42745.03
454.47	43910.33
454.676	42882.25
454.882	44321.97
455.088	40391.92
455.294	40957.16
455.5	42013.91
455.705	42511.56
455.911	40670.44
456.117	40035.57
456.323	39558.39
456.529	37575.96
456.735	39066.88
456.941	38079.76
457.147	37932.31
457.352	36615.46
457.558	36050.22
457.764	36379.95
457.97	35558.71
458.176	34999.62
458.381	35016
458.587	33369.43
458.793	33547.61
458.999	31460.73
459.204	34248.01
459.41	32789.86
459.616	30965.12
459.821	31010.17
460.027	31036.8
460.233	30199.18
460.438	28493.22
460.644	29134.23
460.85	27743.66
461.055	27090.36
461.261	27479.47
461.466	25519.57
461.672	24374.75
461.878	26518.98
462.083	24542.69
462.289	24241.64
462.494	23850.47
462.7	23074.29
462.905	22533.63
463.111	22787.58
463.316	23246.32
463.522	22466.05
463.727	22638.08
463.932	22681.08
464.138	22539.77
464.343	22676.99
464.549	21802.5
464.754	22539.77
464.959	22492.67
465.165	22205.95
465.37	20964.89
465.575	20919.83
465.781	21440.01
465.986	21906.95
466.191	21157.39
466.397	20514.33
466.602	19441.2
466.807	20200.99
467.012	20207.14
467.218	20168.23
467.423	19932.71
467.628	20362.78
467.833	21057.04
468.038	19904.04
468.244	19609.13
468.449	20620.83
468.654	19693.1
468.859	19691.05
469.064	19582.51
469.269	18902.58
469.474	18892.34
469.679	19367.47
469.885	18767.41
470.09	19019.32
470.295	18818.61
470.5	18421.31
470.705	18718.26
470.91	18132.54
471.115	17874.5
471.32	18318.91
471.525	18196.03
471.73	17907.27
471.935	17757.77
472.139	17055.31
472.344	17247.82
472.549	17034.83
472.754	16840.28
472.959	16701.01
473.164	16379.48
473.369	16166.49
473.574	16838.23
473.778	16510.55
473.983	16367.2
474.188	16447.07
474.393	15726.18
474.598	15545.96
474.802	15627.88
475.007	15461.99
475.212	15382.12
475.417	14874.23
475.621	14956.15
475.826	15038.06
476.031	14792.31
476.235	14444.15
476.44	14599.8
476.645	14044.8
476.849	14059.13
477.054	13807.23
477.259	14001.79
477.463	13948.54
477.668	13471.37
477.872	14003.84
478.077	13659.78
478.282	13239.95
478.486	13045.39
478.691	13059.73
478.895	13069.97
479.1	12813.97
479.304	13115.02
479.509	12560.02
479.713	12756.63
479.918	12410.52
480.122	12510.87
480.326	12674.71
480.531	12504.73
480.735	12361.37
480.94	12166.81
481.144	12572.31
481.348	11921.06
481.553	12211.87
481.757	12048.03
481.961	12181.15
482.166	12193.44
482.37	12082.84
482.574	11916.96
482.778	12043.93
482.983	12387.99
483.187	12107.42
483.391	12166.81
483.595	11933.34
483.8	11939.49
484.004	11771.55
484.208	12129.95
484.412	11966.11
484.616	11925.15
484.821	12154.52
485.025	11804.32
485.229	12146.33
485.433	11744.93
485.637	12138.14
485.841	11824.8
486.045	12007.07
486.249	11951.77
486.453	11634.34
486.657	11859.62
486.861	11867.81
487.065	11607.72
487.269	12058.27
487.473	11759.27
487.677	12185.24
487.881	12101.28
488.085	11888.29
488.289	12052.13
488.493	11953.82
488.697	12314.27
488.901	12105.37
489.105	12197.53
489.309	12254.87
489.512	12220.06
489.716	12344.98
489.92	12136.09
490.124	12068.51
490.328	12445.34
490.531	12318.36
490.735	12474.01
490.939	12521.11
491.143	12381.85
491.346	12342.94
491.55	12678.8
491.754	12605.08
491.958	12793.49
492.161	12605.08
492.365	12920.46
492.569	12625.56
492.772	12863.12
492.976	13090.45
493.18	12859.03
493.383	13072.01
493.587	13375.11
493.79	13438.6
493.994	13285
494.197	13360.78
494.401	13596.29
494.605	13735.56
494.808	13835.91
495.012	13831.81
495.215	13905.54
495.419	14050.94
495.622	14104.19
495.825	14251.64
496.029	14319.23
496.232	14694.01
496.436	14431.87
496.639	14812.79
496.843	14624.37
497.046	15482.47
497.249	15457.9
497.453	15365.74
497.656	15674.98
497.859	15695.46
498.063	15709.8
498.266	16146.01
498.469	16098.91
498.673	16256.61
498.876	16504.41
499.079	16701.01
499.282	16682.58
499.485	17157.71
499.689	17063.5
499.892	17301.07
500.095	17456.71
500.298	17915.46
500.501	17729.09
500.705	18269.76
500.908	18421.31
501.111	18593.34
501.314	18695.74
501.517	19166.77
501.72	19258.93
501.923	19529.26
502.126	19844.65
502.329	19963.43
502.532	20078.11
502.735	20203.04
502.938	20657.69
503.141	20801.05
503.344	21003.8
503.547	21059.09
503.75	21476.88
503.953	22130.18
504.156	21892.62
504.359	22400.51
504.562	22507.01
504.765	23109.11
504.968	22994.42
505.17	23352.82
505.373	23356.91
505.576	24294.88
505.779	24045.03
505.982	24407.52
506.185	24632.8
506.387	25089.49
506.59	25118.17
506.793	25630.16
506.996	25466.32
507.198	26285.51
507.401	26226.12
507.604	26533.31
507.807	26961.34
508.009	27307.44
508.212	27342.26
508.415	27852.2
508.617	28169.64
508.82	28448.16
509.022	28126.63
509.225	28960.16
509.428	29390.23
509.63	29597.07
509.833	29494.68
510.035	30250.38
510.238	30115.21
510.44	30537.09
510.643	31141.24
510.845	31483.25
511.048	31190.39
511.25	32136.55
511.453	32343.4
511.655	33015.13
511.858	32806.24
512.06	33224.03
512.262	33690.96
512.465	33441.11
512.667	34041.17
512.87	34686.28
513.072	34252.11
513.274	35243.32
513.477	35761.46
513.679	35896.63
513.881	36562.22
514.084	36359.47
514.286	36517.16
514.488	37111.07
514.69	37852.44
514.893	38137.1
515.095	38090
515.297	38604.04
515.499	38995.2
515.701	39292.16
515.904	39986.42
516.106	39922.93
516.308	40328.43
516.51	40508.65
516.712	40649.96
516.914	41297.12
517.116	41516.25
517.318	41721.05
517.52	42306.77
517.722	42355.92
517.925	42896.58
518.127	43871.42
518.329	43924.66
518.531	43445.44
518.733	44711.08
518.935	44666.03
519.136	45141.16
519.338	45493.41
519.54	45808.79
519.742	46245.01
519.944	46118.04
520.146	47484.03
520.348	47256.71
520.55	47459.46
520.752	47512.7
520.954	48544.88
521.155	48184.44
521.357	48880.75
521.559	49622.11
521.761	50021.47
521.963	49802.33
522.164	49693.79
522.366	50302.04
522.568	50461.78
522.77	50816.08
522.971	51485.76
523.173	51299.4
523.375	52126.78
523.576	51844.16
523.778	51465.28
523.98	52952.11
524.181	53109.8
524.383	52988.97
524.584	53437.48
524.786	53275.69
524.988	53396.52
525.189	54045.72
525.391	54535.19
525.592	54426.65
525.794	54823.95
525.995	54813.71
526.197	54584.34
526.398	54766.61
526.6	55331.85
526.801	55280.65
527.003	55780.35
527.204	55804.93
527.406	56288.25
527.607	56378.36
527.808	56286.2
528.01	56040.45
528.211	56589.3
528.412	57521.13
528.614	57066.48
528.815	57342.95
529.016	57861.09
529.218	57363.43
529.419	57211.88
529.62	57719.78
529.822	57746.4
530.023	57721.83
530.224	57388.01
530.425	57902.05
530.626	57017.33
530.828	57682.92
531.029	58776.53
531.23	57867.23
531.431	58010.59
531.632	58149.85
531.833	58559.45
532.035	57838.56
532.236	58731.48
532.437	58854.36
532.638	58649.56
532.839	58866.64
533.04	58366.94
533.241	57983.97
533.442	59345.87
533.643	58915.79
533.844	58545.11
534.045	58455
534.246	58377.18
534.447	58797.01
534.648	58575.83
534.849	59130.83
535.05	58672.09
535.251	58909.65
535.451	58551.26
535.652	59216.85
535.853	58758.1
536.054	59370.44
536.255	59536.33
536.456	58788.82
536.657	59458.51
536.857	58897.36
537.058	58526.68
537.259	59145.17
537.46	58868.69
537.66	59130.83
537.861	59071.44
538.062	58672.09
538.263	59214.8
538.463	59083.73
538.664	59067.34
538.865	59136.97
539.065	59427.79
539.266	58467.29
539.466	59284.43
539.667	58231.77
539.868	59638.73
540.068	58727.38
540.269	58729.43
540.469	59278.28
540.67	58588.12
540.87	58903.51
541.071	59050.96
541.271	59263.95
541.472	58993.62
541.672	58928.08
541.873	58770.39
542.073	58764.24
542.274	59288.52
542.474	58811.35
542.675	58459.1
542.875	59169.74
543.075	58778.58
543.276	58612.69
543.476	58993.62
543.676	58715.09
543.877	58713.05
544.077	58665.94
544.277	58565.59
544.478	58627.03
544.678	58778.58
544.878	58395.61
545.078	58477.53
545.279	58502.1
545.479	58696.66
545.679	58923.99
545.879	58770.39
546.079	58690.52
546.28	58584.02
546.48	58317.79
546.68	58694.61
546.88	58647.51
547.08	59005.9
547.28	58624.98
547.48	58110.94
547.68	59098.06
547.88	58164.19
548.081	58635.22
548.281	58706.9
548.481	58049.5
548.681	58661.85
548.881	58670.04
549.081	58467.29
549.28	57895.91
549.48	58670.04
549.68	58377.18
549.88	59118.54
550.08	58043.36
550.28	58629.08
550.48	58403.8
550.68	58960.85
550.88	58354.65
551.08	58469.34
551.279	58411.99
551.479	57789.41
551.679	58500.06
551.879	58080.22
552.079	58203.1
552.278	58049.5
552.478	58020.83
552.678	58305.5
552.878	58858.45
553.077	58172.38
553.277	57740.26
553.477	58321.88
553.676	58018.78
553.876	57826.27
554.076	57646.05
554.275	57926.63
554.475	57375.72
554.674	58100.7
554.874	57707.49
555.074	58100.7
555.273	58043.36
555.473	58010.59
555.672	57584.61
555.872	57738.21
556.071	57936.87
556.271	58293.21
556.47	57940.96
556.67	56925.17
556.869	57451.5
557.068	57795.56
557.268	57005.04
557.467	57633.77
557.667	57369.58
557.866	57580.52
558.065	57277.42
558.265	57027.57
558.464	57256.94
558.663	57754.6
558.863	56509.43
559.062	57785.32
559.261	57043.95
559.461	57263.08
559.66	56294.39
559.859	56837.11
560.058	56548.34
560.258	56790
560.457	56384.5
560.656	56679.41
560.855	56421.37
561.054	56503.29
561.253	56257.53
561.453	56415.22
561.652	56394.74
561.851	56617.97
562.05	56009.73
562.249	56298.49
562.448	56503.29
562.647	56022.01
562.846	56099.84
563.045	56497.14
563.244	55847.94
563.443	56296.44
563.642	55489.54
563.841	55921.66
564.04	55690.24
564.239	56048.64
564.438	55217.16
564.637	55641.09
564.836	55806.98
565.035	55147.53
565.234	55438.34
565.432	54766.61
565.631	55051.28
565.83	55323.66
566.029	55313.42
566.228	54914.06
566.427	54731.79
566.625	54838.29
566.824	54346.78
567.023	54881.3
567.222	54043.68
567.42	54774.8
567.619	54377.5
567.818	54068.25
568.016	53830.69
568.215	54236.19
568.414	54578.2
568.612	54381.59
568.811	53615.65
569.01	53648.42
569.208	53394.47
569.407	53959.71
569.605	53363.75
569.804	53507.11
570.002	53423.14
570.201	53740.58
570.4	53038.12
570.598	52988.97
570.797	53054.51
570.995	53058.6
571.193	52171.83
571.392	53040.17
571.59	52634.67
571.789	52714.54
571.987	52505.65
572.186	52456.5
572.384	51948.6
572.582	52259.9
572.781	52120.63
572.979	51577.92
573.177	52257.85
573.376	52362.29
573.574	51471.43
573.772	51725.38
573.971	51397.7
574.169	51012.68
574.367	50891.85
574.565	51301.45
574.763	51127.37
574.962	51113.03
575.16	50760.78
575.358	50805.84
575.556	49988.7
575.754	51160.14
575.952	50115.67
576.151	50791.5
576.349	49949.79
576.547	50056.28
576.745	50490.45
576.943	50269.27
577.141	49701.98
577.339	49771.61
577.537	49384.55
577.735	49218.66
577.933	49069.16
578.131	49359.97
578.329	49011.82
578.527	48860.27
578.725	49470.56
578.923	49181.8
579.121	48888.94
579.319	48667.76
579.516	48884.84
579.714	48235.64
579.912	48270.45
580.11	48366.71
580.308	47678.59
580.506	48204.92
580.704	47326.34
580.901	47834.24
581.099	48221.3
581.297	47297.67
581.495	47420.55
581.692	47416.45
581.89	47230.08
582.088	47211.65
582.285	46894.22
582.483	47041.67
582.681	46791.82
582.878	46832.78
583.076	46312.59
583.274	46761.1
583.471	45782.17
583.669	46277.78
583.866	45929.62
584.064	46474.38
584.262	45517.98
584.459	45984.92
584.657	45673.63
584.854	45526.17
585.052	45116.58
585.249	45282.47
585.447	45276.32
585.644	45040.81
585.841	45128.87
586.039	45188.26
586.236	44571.82
586.434	45014.18
586.631	44668.08
586.828	44508.33
587.026	44573.87
587.223	44002.49
587.42	43945.14
587.618	44145.84
587.815	43818.17
588.012	43605.18
588.21	43404.48
588.407	43916.47
588.604	43457.73
588.801	42912.97
588.999	43267.27
589.196	43117.76
589.393	43072.71
589.59	42644.68
589.787	42785.99
589.984	42835.14
590.182	42351.82
590.379	42380.49
590.576	42269.9
590.773	42048.72
590.97	41786.58
591.167	42310.86
591.364	41198.82
591.561	42020.05
591.758	41393.37
591.955	41338.08
592.152	41637.08
592.349	41565.4
592.546	41411.81
592.743	41596.12
592.94	40887.53
593.137	40647.91
593.334	41422.05
593.531	40191.22
593.727	40600.81
593.924	40465.64
594.121	40561.9
594.318	40115.44
594.515	39869.68
594.712	40219.89
594.908	39630.07
595.105	39347.45
595.302	39464.19
595.499	39412.99
595.696	39476.47
595.892	38851.84
596.089	39363.84
596.286	39220.48
596.482	38692.1
596.679	38798.6
596.876	38765.83
597.072	38341.9
597.269	38425.87
597.466	38210.83
597.662	38280.46
597.859	38673.67
598.055	38257.93
598.252	37588.25
598.448	37948.69
598.645	37741.85
598.841	37735.7
599.038	37584.15
599.234	37725.46
599.431	37111.07
599.627	37250.33
599.824	37074.21
600.02	36951.33
600.217	37078.3
600.413	36566.31
600.609	36236.59
600.806	36599.08
601.002	36685.09
601.198	36252.97
601.395	36183.34
601.591	35976.5
601.787	36070.7
601.984	35859.76
602.18	35958.06
602.376	35648.82
602.572	35646.77
602.769	35411.26
602.965	35226.94
603.161	35284.28
603.357	35284.28
603.553	35261.76
603.75	34983.23
603.946	34708.8
604.142	35222.84
604.338	34485.58
604.534	34997.57
604.73	34501.96
604.926	34213.2
605.122	34647.36
605.318	34016.59
605.514	33770.83
605.71	34006.35
605.906	33789.27
606.102	33924.43
606.298	34018.64
606.494	33779.03
606.69	33369.43
606.886	33813.84
607.082	33355.1
607.278	33891.66
607.474	33017.18
607.67	33316.18
607.866	32961.89
608.062	33322.33
608.257	32845.15
608.453	32994.65
608.649	32767.33
608.845	32224.62
609.041	32296.3
609.236	32761.19
609.432	32376.17
609.628	32392.55
609.824	32472.42
610.019	31911.28
610.215	32142.7
610.411	32128.36
610.606	31905.13
610.802	31851.89
610.998	32066.92
611.193	31610.23
611.389	31530.36
611.584	31296.89
611.78	31708.53
611.976	31389.05
612.171	31733.11
612.367	31100.28
612.562	31139.19
612.758	30825.85
612.953	31030.65
613.149	31395.19
613.344	31006.08
613.539	31266.17
613.735	31182.2
613.93	31239.54
614.126	30963.07
614.321	30987.64
614.517	30715.26
614.712	30682.5
614.907	30748.03
615.103	30981.5
615.298	30139.79
615.493	30987.64
615.688	30305.67
615.884	30795.14
616.079	29990.28
616.274	30377.35
616.47	30444.93
616.665	30147.98
616.86	29947.28
617.055	30147.98
617.25	29891.98
617.445	29967.76
617.641	29175.19
617.836	29775.25
618.031	29132.18
618.226	29228.44
618.421	29554.07
618.616	29502.87
618.811	29091.23
619.006	29574.55
619.201	28566.95
619.396	28695.97
619.591	28394.92
619.786	28650.91
619.981	28048.81
620.176	28544.42
620.371	28032.43
620.566	28071.34
620.761	27915.69
620.956	27866.54
621.151	27594.16
621.346	27751.85
621.541	27237.81
621.735	27835.82
621.93	27057.59
622.125	27147.7
622.32	26637.76
622.515	26967.48
622.709	26424.77
622.904	26609.09
623.099	26281.41
623.294	26351.04
623.488	26054.09
623.683	25992.65
623.878	25636.3
624.072	25603.53
624.267	25978.31
624.462	25482.7
624.656	25239
624.851	25435.6
625.046	24903.13
625.24	24911.32
625.435	24651.23
625.629	24671.71
625.824	24704.48
626.018	24442.34
626.213	23791.08
626.407	24247.78
626.602	23938.54
626.796	24075.75
626.991	23807.47
627.185	23700.97
627.38	23506.41
627.574	23248.37
627.768	23367.15
627.963	22922.74
628.157	22896.12
628.352	23068.15
628.546	22580.73
628.74	22713.85
628.935	22398.46
629.129	22441.47
629.323	22357.5
629.517	22056.45
629.712	22056.45
629.906	21966.34
630.1	21751.31
630.294	21962.25
630.489	21358.1
630.683	21397.01
630.877	21112.34
631.071	21284.37
631.265	21458.45
631.459	21143.06
631.653	20745.75
631.848	20620.83
632.042	20559.39
632.236	20985.37
632.43	20530.72
632.624	20438.56
632.818	20299.3
633.012	20002.34
633.206	19961.38
633.4	20184.61
633.594	19801.64
633.788	20082.21
633.982	19895.85
634.176	19703.34
634.369	19338.8
634.563	19383.85
634.757	19119.67
634.951	19291.69
635.145	19244.59
635.339	19115.57
635.533	18576.95
635.726	18900.53
635.92	18789.94
636.114	18787.89
636.308	18718.26
636.501	18603.58
636.695	18499.13
636.889	18355.77
637.083	17993.28
637.276	17958.47
637.47	17884.74
637.664	17692.23
637.857	18064.96
638.051	17643.08
638.244	17438.28
638.438	17176.14
638.632	17378.89
638.825	17280.59
639.019	17176.14
639.212	17100.37
639.406	16887.38
639.599	16844.37
639.793	16891.48
639.986	16631.38
640.18	16696.92
640.373	16594.52
640.567	16399.96
640.76	16402.01
640.954	16189.02
641.147	16170.59
641.34	16268.89
641.534	16016.99
641.727	16107.1
641.92	15789.67
642.114	15545.96
642.307	16051.81
642.5	15621.73
642.694	15175.28
642.887	15191.66
643.08	15470.19
643.273	15193.71
643.467	15171.18
643.66	15185.52
643.853	15113.84
644.046	14722.68
644.239	14642.81
644.432	14546.55
644.626	14706.29
644.819	14448.25
645.012	14366.33
645.205	14560.89
645.398	14399.1
645.591	14122.62
645.784	14161.53
645.977	13942.4
646.17	13907.59
646.363	13915.78
646.556	13710.98
646.749	13794.95
646.942	13717.12
647.135	13645.45
647.328	13448.84
647.521	13411.98
647.714	13295.24
647.907	13260.43
648.099	13317.77
648.292	13237.9
648.485	13178.51
648.678	13008.53
648.871	12764.82
649.064	12785.3
649.256	12998.29
649.449	12521.11
649.642	12492.44
649.835	12322.46
650.027	12697.24
650.22	12494.49
650.413	12322.46
650.605	12080.8
650.798	12220.06
650.991	11986.59
651.183	12103.32
651.376	12097.18
651.568	12162.72
651.761	12099.23
651.954	11687.59
652.146	11644.58
652.339	11683.49
652.531	11583.14
652.724	11490.98
652.916	11374.25
653.109	11544.23
653.301	11304.62
653.494	11253.42
653.686	11097.77
653.879	11384.49
654.071	11105.96
654.263	10890.93
654.456	11132.59
654.648	11015.85
654.84	10720.95
655.033	10714.8
655.225	10725.04
655.417	10534.58
655.61	10649.27
655.802	10622.64
655.994	10362.55
656.186	10364.6
656.379	10360.5
656.571	10374.84
656.763	10077.88
656.955	10217.15
657.148	10280.63
657.34	9924.29
657.532	9981.63
657.724	9967.29
657.916	9860.8
658.108	9696.96
658.3	9645.76
658.492	9584.32
658.684	9672.39
658.876	9463.49
659.068	9574.08
659.26	9393.86
659.452	9588.42
659.644	9297.61
659.836	9211.59
660.028	9404.1
660.22	9154.25
660.412	9266.89
660.604	8902.35
660.796	9043.66
660.988	8974.03
661.18	8781.52
661.372	8799.95
661.563	8820.43
661.755	8484.56
661.947	8681.17
662.139	8662.74
662.331	8527.57
662.522	8421.08
662.714	8574.67
662.906	8431.32
663.097	8292.05
663.289	8238.81
663.481	8494.8
663.673	8107.74
663.864	8072.92
664.056	8017.63
664.247	8072.92
664.439	7929.56
664.631	8050.39
664.822	7939.8
665.014	7859.93
665.205	7874.27
665.397	7735.01
665.588	7784.16
665.78	7669.47
665.971	7673.57
666.163	7579.36
666.354	7438.05
666.546	7536.35
666.737	7522.02
666.929	7491.3
667.12	7474.92
667.311	7165.67
667.503	7165.67
667.694	7266.02
667.885	7198.44
668.077	7284.45
668.268	7042.79
668.459	6952.68
668.651	7026.41
668.842	6921.96
669.033	6831.85
669.224	6878.96
669.416	6897.39
669.607	6756.08
669.798	6792.94
669.989	6881
670.18	6760.17
670.371	6596.34
670.563	6686.45
670.754	6635.25
670.945	6469.36
671.136	6620.91
671.327	6471.41
671.518	6366.96
671.709	6373.11
671.9	6422.26
672.091	6385.4
672.282	6254.33
672.473	6223.61
672.664	6231.8
672.855	6084.34
673.046	6256.37
673.237	6176.5
673.428	6043.39
673.619	6168.31
673.809	6117.11
674	6094.58
674.191	5990.14
674.382	6024.95
674.573	5947.13
674.764	6137.59
674.954	5981.95
675.145	5742.33
675.336	5707.52
675.527	5717.76
675.717	5791.48
675.908	5547.78
676.099	5744.38
676.289	5631.74
676.48	5650.18
676.671	5453.57
676.861	5695.23
677.052	5388.04
677.243	5406.47
677.433	5502.72
677.624	5500.67
677.814	5533.44
678.005	5447.43
678.195	5414.66
678.386	5379.84
678.576	5326.6
678.767	5332.74
678.957	5488.39
679.148	5472
679.338	5285.64
679.529	5238.53
679.719	5306.12
679.909	5340.93
680.1	5287.68
680.29	5166.85
680.481	5244.68
680.671	5242.63
680.861	5009.16
681.052	5244.68
681.242	5162.76
681.432	5175.05
681.622	5152.52
681.813	5066.5
682.003	5082.89
682.193	5027.59
682.383	5052.17
682.573	5146.37
682.764	5080.84
682.954	5052.17
683.144	4861.71
683.334	4988.68
683.524	4873.99
683.714	4900.62
683.904	4824.84
684.094	4884.23
684.284	4861.71
684.474	5066.5
684.664	4896.52
684.854	4859.66
685.044	4849.42
685.234	4675.34
685.424	4763.4
685.614	4701.97
685.804	4855.56
685.994	4726.54
686.184	4751.12
686.374	4630.29
686.564	4579.09
686.753	4654.86
686.943	4667.15
687.133	4591.38
687.323	4556.56
687.513	4673.29
687.702	4564.75
687.892	4615.95
688.082	4628.24
688.272	4493.07
688.461	4495.12
688.651	4554.51
688.841	4474.64
689.03	4445.97
689.22	4445.97
689.41	4407.06
689.599	4478.74
689.789	4468.5
689.979	4488.98
690.168	4337.43
690.358	4249.36
690.547	4249.36
690.737	4343.57
690.926	4286.23
691.116	4292.37
691.305	4364.05
691.495	4331.28
691.684	4282.13
691.874	4290.32
692.063	4380.43
692.252	4323.09
692.442	4341.52
692.631	4208.41
692.82	4101.91
693.01	4142.87
693.199	4265.75
693.388	4091.67
693.578	4298.52
693.767	4069.14
693.956	4142.87
694.146	3942.17
694.335	4192.02
694.524	4005.66
694.713	4130.58
694.902	3964.7
695.092	4011.8
695.281	3962.65
695.47	4159.25
695.659	4005.66
695.848	4040.47
696.037	4069.14
696.226	3974.94
696.415	3972.89
696.604	3954.46
696.793	3860.25
696.982	3987.22
697.171	3913.5
697.36	4036.38
697.549	3905.31
697.738	3833.63
697.927	3790.62
698.116	3946.27
698.305	3915.55
698.494	3888.92
698.683	3823.39
698.872	3913.5
699.061	3733.28
699.25	3831.58
699.438	3669.79
699.627	3759.9
699.816	3790.62
700.005	3659.55
700.193	3727.13
700.382	3583.77
700.571	3655.45
700.76	3637.02
700.948	3686.17
701.137	3618.59
701.326	3735.32
701.514	3571.49
701.703	3663.65
701.892	3659.55
702.08	3630.88
702.269	3602.21
702.457	3520.29
702.646	3508
702.834	3639.07
703.023	3503.9
703.212	3520.29
703.4	3458.85
703.589	3448.61
703.777	3505.95
703.965	3368.74
704.154	3428.13
704.342	3573.53
704.531	3462.94
704.719	3483.42
704.907	3528.48
705.096	3303.2
705.284	3448.61
705.472	3368.74
705.661	3350.31
705.849	3487.52
706.037	3323.68
706.226	3225.38
706.414	3309.35
706.602	3180.32
706.79	3225.38
706.979	3405.6
707.167	3315.49
707.355	3299.11
707.543	3102.5
707.731	3317.54
707.919	3235.62
708.107	3258.15
708.296	3122.98
708.484	3155.75
708.672	3118.89
708.86	3110.69
709.048	3120.93
709.236	3241.76
709.424	3145.51
709.612	3104.55
709.8	3114.79
709.988	3043.11
710.176	3094.31
710.364	3104.55
710.551	3163.94
710.739	3024.68
710.927	3086.12
711.115	3082.02
711.303	3153.7
711.491	3051.3
711.679	3022.63
711.866	2991.91
712.054	2969.38
712.242	2881.32
712.43	3075.88
712.617	3061.54
712.805	2953
712.993	2916.14
713.181	2871.08
713.368	2881.32
713.556	2928.42
713.744	2832.17
713.931	2840.36
714.119	2873.13
714.306	2864.94
714.494	2955.05
714.682	2815.79
714.869	2737.96
715.057	2813.74
715.244	2776.87
715.432	2692.91
715.619	2709.29
715.807	2819.88
715.994	2789.16
716.182	2633.52
716.369	2799.4
716.556	2725.68
716.744	2668.33
716.931	2570.03
717.119	2889.51
717.306	2823.98
717.493	2684.72
717.681	2666.28
717.868	2635.57
718.055	2639.66
718.242	2672.43
718.43	2676.52
718.617	2602.8
718.804	2598.7
718.991	2617.13
719.179	2565.93
719.366	2725.68
719.553	2533.17
719.74	2645.8
719.927	2541.36
720.114	2586.41
720.301	2545.45
720.488	2332.47
720.676	2449.2
720.863	2414.38
721.05	2610.99
721.237	2537.26
721.424	2527.02
721.611	2477.87
721.798	2410.29
721.985	2430.77
722.172	2414.38
722.358	2352.95
722.545	2463.54
722.732	2455.34
722.919	2393.9
723.106	2361.14
723.293	2512.69
723.48	2348.85
723.667	2242.36
723.853	2318.13
724.04	2375.47
724.227	2277.17
724.414	2336.56
724.6	2178.87
724.787	2348.85
724.974	2342.71
725.161	2402.1
725.347	2291.51
725.534	2279.22
725.72	2271.03
725.907	2228.02
726.094	2205.49
726.28	2260.79
726.467	2266.93
726.653	2152.24
726.84	2240.31
727.027	2291.51
727.213	2254.64
727.4	2301.75
727.586	2268.98
727.773	2156.34
727.959	2232.12
728.145	2137.91
728.332	2185.01
728.518	2131.76
728.705	2209.59
728.891	2217.78
729.077	2142
729.264	2019.13
729.45	2131.76
729.636	2142
729.823	2119.48
730.009	2099
730.195	2068.28
730.382	2078.52
730.568	2058.04
730.754	2053.94
730.94	2105.14
731.126	2117.43
731.313	2111.29
731.499	2045.75
731.685	2088.76
731.871	2086.71
732.057	2047.8
732.243	1986.36
732.429	1963.83
732.615	1918.78
732.801	2082.61
732.987	1965.88
733.173	1941.3
733.359	1820.47
733.545	1924.92
733.731	1947.45
733.917	1926.97
734.103	1939.26
734.289	2012.98
734.475	1832.76
734.661	1988.41
734.847	1834.81
735.033	1929.02
735.219	1890.1
735.404	1906.49
735.59	1873.72
735.776	1890.1
735.962	1818.43
736.148	1832.76
736.333	1898.3
736.519	1826.62
736.705	1863.48
736.89	1861.43
737.076	1775.42
737.262	1851.19
737.447	1775.42
737.633	1879.86
737.819	1824.57
738.004	1853.24
738.19	1695.55
738.375	1804.09
738.561	1767.23
738.747	1685.31
738.932	1673.02
739.118	1810.23
739.303	1783.61
739.489	1656.64
739.674	1685.31
739.859	1664.83
740.045	1783.61
740.23	1650.49
740.416	1654.59
740.601	1693.5
740.786	1668.92
740.972	1609.53
741.157	1595.2
741.342	1578.81
741.528	1670.97
741.713	1687.36
741.898	1716.03
742.084	1693.5
742.269	1562.43
742.454	1513.28
742.639	1570.62
742.824	1564.48
743.01	1552.19
743.195	1668.92
743.38	1652.54
743.565	1539.9
743.75	1548.09
743.935	1603.39
744.12	1498.94
744.305	1513.28
744.49	1515.33
744.675	1476.41
744.86	1511.23
745.045	1500.99
745.23	1511.23
745.415	1451.84
745.6	1419.07
745.785	1474.37
745.97	1529.66
746.155	1521.47
746.34	1371.97
746.525	1462.08
746.71	1466.17
746.895	1343.3
747.079	1316.67
747.264	1484.61
747.449	1466.17
747.634	1453.89
747.819	1292.1
748.003	1353.54
748.188	1271.62
748.373	1341.25
748.557	1320.77
748.742	1230.66
748.927	1288
749.111	1234.75
749.296	1267.52
749.481	1310.53
749.665	1275.71
749.85	1193.8
750.034	1255.23
750.219	1294.15
750.404	1212.23
750.588	1240.9
750.773	1201.99
750.957	1300.29
751.141	1244.99
751.326	1212.23
751.51	1146.69
751.695	1136.45
751.879	1187.65
752.064	1261.38
752.248	1310.53
752.432	1283.91
752.617	1140.55
752.801	1214.27
752.985	1072.96
753.17	1212.23
753.354	1128.26
753.538	1111.88
753.722	1169.22
753.907	964.42
754.091	1062.73
754.275	1146.69
754.459	1103.68
754.643	1177.41
754.828	1122.12
755.012	1001.29
755.196	1017.67
755.38	1136.45
755.564	1025.86
755.748	1023.81
755.932	1072.96
756.116	1079.11
756.3	1001.29
756.484	1038.15
756.668	1013.57
756.852	980.81
757.036	1011.53
757.22	1056.58
757.404	1025.86
757.588	1015.62
757.772	984.9
757.956	962.37
758.14	1009.48
758.323	874.31
758.507	923.46
758.691	939.85
758.875	980.81
759.059	915.27
759.242	896.84
759.426	962.37
759.61	878.41
759.794	972.61
759.977	923.46
760.161	1005.38
760.345	919.37
760.528	927.56
760.712	841.54
760.895	884.55
761.079	857.93
761.263	866.12
761.446	845.64
761.63	849.74
761.813	833.35
761.997	837.45
762.18	833.35
762.364	808.78
762.547	776.01
762.731	841.54
762.914	882.5
763.098	915.27
763.281	888.65
763.464	806.73
763.648	798.54
763.831	786.25
764.015	767.82
764.198	790.35
764.381	802.63
764.564	804.68
764.748	784.2
764.931	843.59
765.114	730.95
765.297	786.25
765.481	784.2
765.664	757.58
765.847	726.86
766.03	792.39
766.213	796.49
766.397	737.1
766.58	718.67
766.763	749.39
766.946	673.61
767.129	776.01
767.312	755.53
767.495	733
767.678	677.71
767.861	726.86
768.044	767.82
768.227	698.19
768.41	726.86
768.593	800.59
768.776	694.09
768.959	739.15
769.142	794.44
769.324	653.13
769.507	788.3
769.69	737.1
769.873	685.9
770.056	802.63
770.239	696.14
770.421	698.19
770.604	694.09
770.787	771.91
770.97	685.9
771.152	716.62
771.335	702.28
771.518	614.22
771.7	628.56
771.883	653.13
772.066	630.6
772.248	667.47
772.431	687.95
772.613	722.76
772.796	655.18
772.978	653.13
773.161	685.9
773.343	614.22
773.526	644.94
773.708	636.75
773.891	583.5
774.073	663.37
774.256	671.56
774.438	685.9
774.621	628.56
774.803	628.56
774.985	622.41
775.168	565.07
775.35	632.65
775.532	622.41
775.715	608.08
775.897	661.32
776.079	567.12
776.261	618.32
776.444	511.82
776.626	556.88
776.808	610.12
776.99	565.07
777.173	579.4
777.355	565.07
777.537	589.64
777.719	675.66
777.901	524.11
778.083	499.53
778.265	522.06
778.447	517.97
778.629	542.54
778.811	573.26
778.993	495.44
779.175	542.54
779.357	524.11
779.539	474.96
779.721	567.12
779.903	515.92
780.085	565.07
780.267	536.4
780.449	517.97
780.631	515.92
780.812	546.64
780.994	481.1
781.176	565.07
781.358	491.34
781.54	448.33
781.721	440.14
781.903	333.65
782.085	434
782.267	558.92
782.448	464.72
782.63	499.53
782.812	526.16
782.993	460.62
783.175	393.04
783.357	423.76
783.538	436.05
783.72	390.99
783.901	456.53
784.083	487.25
784.264	425.81
784.446	399.18
784.627	374.61
784.809	528.21
784.99	513.87
785.172	390.99
785.353	374.61
785.535	390.99
785.716	450.38
785.897	384.85
786.079	399.18
786.26	419.66
786.441	374.61
786.623	350.03
786.804	304.98
786.985	390.99
787.167	456.53
787.348	368.46
787.529	313.17
787.71	454.48
787.891	378.7
788.073	341.84
788.254	247.63
788.435	442.19
788.616	325.46
788.797	388.94
788.978	358.22
789.159	292.69
789.34	382.8
789.522	288.59
789.703	335.7
789.884	294.74
790.065	376.66
790.246	362.32
790.427	370.51
790.607	411.47
790.788	292.69
790.969	284.5
791.15	278.35
791.331	362.32
791.512	257.87
791.693	350.03
791.874	247.63
792.054	333.65
792.235	337.74
792.416	292.69
792.597	276.31
792.778	329.55
792.958	366.42
793.139	298.83
793.32	288.59
793.5	218.96
793.681	284.5
793.862	300.88
794.042	288.59
794.223	214.87
794.404	286.54
794.584	206.67
794.765	237.39
794.945	270.16
795.126	235.35
795.306	229.2
795.487	259.92
795.667	311.12
795.848	280.4
796.028	202.58
796.209	294.74
796.389	247.63
796.57	231.25
796.75	237.39
796.93	227.15
797.111	196.43
797.291	245.59
797.471	235.35
797.652	259.92
797.832	221.01
798.012	190.29
798.192	186.19
798.373	218.96
798.553	198.48
798.733	247.63
798.913	204.63
799.093	302.93
799.274	286.54
799.454	190.29
799.634	237.39
799.814	302.93
799.994	321.36
800.174	221.01
800.354	237.39
800.534	204.63
800.714	182.1
800.894	139.09
801.074	124.76
801.254	155.47
801.434	268.11
801.614	229.2
801.794	128.85
801.974	661.32
802.154	214.87
802.334	259.92
802.514	186.19
802.693	278.35
802.873	175.95
803.053	169.81
803.233	257.87
803.413	171.86
803.592	149.33
803.772	243.54
803.952	182.1
804.131	120.66
804.311	155.47
804.491	139.09
804.67	210.77
804.85	110.42
805.03	147.28
805.209	190.29
805.389	227.15
805.568	169.81
805.748	139.09
805.928	141.14
806.107	169.81
806.287	186.19
806.466	159.57
806.646	130.9
806.825	155.47
807.004	182.1
807.184	182.1
807.363	188.24
807.543	147.28
807.722	190.29
807.901	210.77
808.081	147.28
808.26	161.62
808.439	186.19
808.619	196.43
808.798	130.9
808.977	145.24
809.156	212.82
809.336	182.1
809.515	143.19
809.694	96.08
809.873	182.1
810.052	143.19
810.231	184.15
810.411	96.08
810.59	194.39
810.769	106.32
810.948	147.28
811.127	167.76
811.306	124.76
811.485	114.52
811.664	218.96
811.843	89.94
812.022	184.15
812.201	143.19
812.38	124.76
812.559	173.91
812.737	155.47
812.916	149.33
813.095	139.09
813.274	143.19
813.453	163.67
813.632	204.63
813.811	243.54
813.989	63.32
814.168	130.9
814.347	85.84
814.526	190.29
814.704	155.47
814.883	218.96
815.062	96.08
815.24	153.43
815.419	53.08
815.598	161.62
815.776	116.56
815.955	96.08
816.133	85.84
816.312	163.67
816.49	114.52
816.669	137.04
816.847	153.43
817.026	122.71
817.204	126.8
817.383	98.13
817.561	94.04
817.74	137.04
817.918	65.36
818.097	91.99
818.275	141.14
818.453	118.61
818.632	165.71
818.81	122.71
818.988	83.8
819.167	104.28
819.345	124.76
819.523	57.17
819.701	87.89
819.879	161.62
820.058	116.56
820.236	137.04
820.414	102.23
820.592	63.32
820.77	108.37
820.948	137.04
821.127	145.24
821.305	116.56
821.483	38.74
821.661	108.37
821.839	137.04
822.017	18.26
822.195	98.13
822.373	79.7
822.551	112.47
822.729	104.28
822.907	30.55
823.085	104.28
823.262	98.13
823.44	51.03
823.618	180.05
823.796	128.85
823.974	63.32
824.152	106.32
824.329	124.76
824.507	130.9
824.685	157.52
824.863	102.23
825.04	114.52
825.218	100.18
825.396	75.6
825.574	137.04
825.751	96.08
825.929	81.75
826.107	51.03
826.284	114.52
826.462	63.32
826.639	36.69
826.817	124.76
826.994	169.81
827.172	-26.79
827.349	96.08
827.527	87.89
827.704	116.56
827.882	42.84
828.059	63.32
828.237	124.76
828.414	55.12
828.591	67.41
828.769	114.52
828.946	71.51
829.124	130.9
829.301	75.6
829.478	46.93
829.655	75.6
829.833	30.55
830.01	61.27
830.187	141.14
830.364	71.51
830.542	96.08
830.719	112.47
830.896	14.17
831.073	122.71
831.25	26.45
831.427	87.89
831.604	120.66
831.782	96.08
831.959	120.66
832.136	40.79
832.313	79.7
832.49	-10.41
832.667	55.12
832.844	38.74
833.021	124.76
833.198	110.42
833.374	63.32
833.551	57.17
833.728	26.45
833.905	63.32
834.082	46.93
834.259	32.6
834.436	98.13
834.612	18.26
834.789	83.8
834.966	124.76
835.143	147.28
835.319	87.89
835.496	63.32
835.673	65.36
835.85	83.8
836.026	145.24
836.203	57.17
836.38	106.32
836.556	63.32
836.733	77.65
836.909	169.81
837.086	71.51
837.262	96.08
837.439	71.51
837.616	46.93
837.792	85.84
837.968	40.79
838.145	59.22
838.321	61.27
838.498	98.13
838.674	67.41
838.851	67.41
839.027	-26.79
839.203	100.18
839.38	153.43
839.556	40.79
839.732	-0.17
839.909	116.56
840.085	112.47
840.261	22.36
840.437	59.22
840.614	57.17
840.79	-0.17
840.966	63.32
841.142	32.6
841.318	137.04
841.494	75.6
841.671	83.8
841.847	112.47
842.023	40.79
842.199	-18.6
842.375	32.6
842.551	91.99
842.727	-8.36
842.903	73.56
843.079	-2.22
843.255	98.13
843.431	55.12
843.607	139.09
843.783	-10.41
843.959	65.36
844.134	14.17
844.31	57.17
844.486	38.74
844.662	79.7
844.838	91.99
845.013	71.51
845.189	40.79
845.365	32.6
845.541	77.65
845.716	22.36
845.892	63.32
846.068	5.97
846.244	44.88
846.419	102.23
846.595	5.97
846.77	36.69
846.946	42.84
847.122	38.74
847.297	26.45
847.473	38.74
847.648	8.02
847.824	-18.6
847.999	46.93
848.175	-39.08
848.35	61.27
848.526	165.71
848.701	28.5
848.876	14.17
849.052	65.36
849.227	-6.31
849.403	40.79
849.578	34.64
849.753	44.88
849.929	139.09
850.104	79.7
850.279	48.98
850.454	67.41
850.63	81.75
850.805	59.22
850.98	5.97
851.155	-14.51
851.33	116.56
851.505	65.36
851.681	98.13
851.856	116.56
852.031	22.36
852.206	87.89
852.381	75.6
852.556	57.17
852.731	94.04
852.906	34.64
853.081	55.12
853.256	81.75
853.431	67.41
853.606	38.74
853.781	46.93
853.956	-8.36
854.131	106.32
854.305	26.45
854.48	34.64
854.655	22.36
854.83	1.88
855.005	16.21
855.18	83.8
855.354	71.51
855.529	55.12
855.704	-6.31
855.879	106.32
856.053	-6.31
856.228	-10.41
856.403	96.08
856.577	69.46
856.752	102.23
856.926	51.03
857.101	55.12
857.276	48.98
857.45	114.52
857.625	16.21
857.799	34.64
857.974	18.26
858.148	-2.22
858.323	71.51
858.497	79.7
858.672	30.55
858.846	10.07
859.02	48.98
859.195	48.98
859.369	1.88
859.543	63.32
859.718	38.74
859.892	79.7
860.066	75.6
860.241	1.88
860.415	65.36
860.589	-49.32
860.763	-20.65
860.938	-6.31
861.112	108.37
861.286	98.13
861.46	63.32
861.634	-2.22
861.808	30.55
861.982	32.6
862.157	3.93
862.331	59.22
862.505	38.74
862.679	-0.17
862.853	55.12
863.027	79.7
863.201	116.56
863.375	40.79
863.549	51.03
863.722	51.03
863.896	87.89
864.07	24.4
864.244	38.74
864.418	55.12
864.592	-18.6
864.766	42.84
864.939	28.5
865.113	-32.94
865.287	71.51
865.461	1.88
865.634	38.74
865.808	30.55
865.982	36.69
866.156	63.32
866.329	-18.6
866.503	40.79
866.676	14.17
866.85	28.5
867.024	-114.86
867.197	79.7
867.371	42.84
867.544	-10.41
867.718	-12.46
867.891	24.4
868.065	10.07
868.238	71.51
868.412	34.64
868.585	73.56
868.759	42.84
868.932	110.42
869.105	26.45
869.279	-12.46
869.452	46.93
869.625	5.97
869.799	-2.22
869.972	16.21
870.145	32.6
870.319	40.79
870.492	-2.22
870.665	-18.6
870.838	38.74
871.011	-30.89
871.185	63.32
871.358	73.56
871.531	16.21
871.704	40.79
871.877	42.84
872.05	44.88
872.223	16.21
872.396	75.6
872.569	12.12
872.742	12.12
872.915	14.17
873.088	14.17
873.261	67.41
873.434	-14.51
873.607	-18.6
873.78	18.26
873.953	-26.79
874.126	79.7
874.299	-14.51
874.471	81.75
874.644	-18.6
874.817	59.22
874.99	24.4
875.163	38.74
875.335	53.08
875.508	-30.89
875.681	75.6
875.853	-16.55
876.026	-26.79
876.199	5.97
876.371	14.17
876.544	-47.27
876.717	1.88
876.889	-28.84
877.062	-14.51
877.234	-26.79
877.407	5.97
877.579	8.02
877.752	46.93
877.924	22.36
878.097	30.55
878.269	69.46
878.442	59.22
878.614	59.22
878.786	-16.55
878.959	-18.6
879.131	51.03
879.303	-67.75
879.476	48.98
879.648	57.17
879.82	53.08
879.993	10.07
880.165	-43.18
880.337	-10.41
880.509	100.18
880.681	8.02
880.854	46.93
881.026	87.89
881.198	44.88
881.37	120.66
881.542	-22.7
881.714	-16.55
881.886	-18.6
882.058	22.36
882.23	-0.17
882.402	40.79
882.574	55.12
882.746	20.31
882.918	40.79
883.09	40.79
883.262	46.93
883.434	-2.22
883.606	-2.22
883.778	-20.65
883.95	-4.27
884.122	44.88
884.293	139.09
884.465	-16.55
884.637	-39.08
884.809	16.21
884.98	24.4
885.152	71.51
885.324	-24.75
885.496	22.36
885.667	1.88
885.839	55.12
886.011	32.6
886.182	42.84
886.354	104.28
886.525	51.03
886.697	3.93
886.869	-10.41
887.04	38.74
887.212	55.12
887.383	1.88
887.555	-71.85
887.726	32.6
887.897	-53.42
888.069	57.17
888.24	5.97
888.412	-14.51
888.583	-10.41
888.754	42.84
888.926	57.17
889.097	-26.79
889.268	-65.71
889.44	5.97
889.611	-12.46
889.782	34.64
889.953	-47.27
890.125	67.41
890.296	16.21
890.467	-4.27
890.638	22.36
890.809	-20.65
890.98	-4.27
891.151	55.12
891.323	112.47
891.494	28.5
891.665	-2.22
891.836	14.17
892.007	-41.13
892.178	81.75
892.349	79.7
892.52	5.97
892.691	-0.17
892.862	22.36
893.032	8.02
893.203	63.32
893.374	-28.84
893.545	30.55
893.716	-47.27
893.887	-10.41
894.057	-28.84
894.228	-20.65
894.399	-51.37
894.57	-34.99
894.74	24.4
894.911	16.21
895.082	5.97
895.253	-94.38
895.423	22.36
895.594	79.7
895.764	46.93
895.935	59.22
896.106	38.74
896.276	-8.36
896.447	38.74
896.617	81.75
896.788	14.17
896.958	-10.41
897.129	-73.9
897.299	8.02
897.47	5.97
897.64	-16.55
897.81	22.36
897.981	16.21
898.151	30.55
898.322	32.6
898.492	14.17
898.662	-41.13
898.832	-26.79
899.003	48.98
899.173	-20.65
899.343	-32.94
899.513	73.56
