Data from USB4F104151__193__14-45-13-631.txt Node

Date: Thu Mar 13 14:45:13 EDT 2025
User: louis
Spectrometer: USB4F10415
Trigger mode: 4
Integration Time (sec): 2.000000E-2
Scans to average: 1
Electric dark correction enabled: true
Nonlinearity correction enabled: false
Boxcar width: 0
XAxis mode: Wavelengths
Number of Pixels in Spectrum: 3648
>>>>>Begin Spectral Data<<<<<
178.204	-132.95
178.424	-132.95
178.644	-132.95
178.864	-128.85
179.084	-159.57
179.304	-53.08
179.524	0.17
179.744	28.84
179.964	-8.02
180.184	-3.93
180.404	6.31
180.624	-32.6
180.844	12.46
181.064	4.27
181.283	-61.27
181.503	63.66
181.723	43.18
181.943	-48.98
182.163	96.43
182.383	37.03
182.602	57.51
182.822	121
183.042	51.37
183.262	-28.5
183.482	4.27
183.701	-5.97
183.921	90.28
184.141	4.27
184.361	55.47
184.58	73.9
184.8	55.47
185.02	90.28
185.239	41.13
185.459	104.62
185.679	4.27
185.898	32.94
186.118	12.46
186.338	-1.88
186.557	61.61
186.777	28.84
186.997	4.27
187.216	69.8
187.436	104.62
187.655	57.51
187.875	55.47
188.095	69.8
188.314	16.55
188.534	77.99
188.753	6.31
188.973	71.85
189.192	71.85
189.412	61.61
189.631	2.22
189.851	94.38
190.07	143.53
190.29	30.89
190.509	59.56
190.729	34.99
190.948	12.46
191.168	178.34
191.387	110.76
191.607	-38.74
191.826	94.38
192.045	45.23
192.265	-40.79
192.484	47.27
192.704	16.55
192.923	6.31
193.142	139.43
193.362	59.56
193.581	106.67
193.8	12.46
194.02	106.67
194.239	22.7
194.458	77.99
194.678	118.95
194.897	47.27
195.116	41.13
195.335	137.38
195.555	71.85
195.774	4.27
195.993	4.27
196.212	73.9
196.432	30.89
196.651	86.19
196.87	12.46
197.089	110.76
197.308	0.17
197.528	110.76
197.747	-18.26
197.966	-10.07
198.185	22.7
198.404	73.9
198.623	43.18
198.842	8.36
199.062	22.7
199.281	135.34
199.5	24.75
199.719	88.23
199.938	12.46
200.157	86.19
200.376	98.47
200.595	-3.93
200.814	47.27
201.033	55.47
201.252	-1.88
201.471	80.04
201.69	49.32
201.909	61.61
202.128	-10.07
202.347	28.84
202.566	125.1
202.785	45.23
203.004	49.32
203.223	57.51
203.442	47.27
203.661	20.65
203.879	-44.88
204.098	53.42
204.317	92.33
204.536	77.99
204.755	20.65
204.974	20.65
205.193	-16.21
205.411	147.62
205.63	59.56
205.849	80.04
206.068	16.55
206.287	67.75
206.505	104.62
206.724	102.57
206.943	16.55
207.162	49.32
207.381	-36.69
207.599	10.41
207.818	69.8
208.037	0.17
208.255	61.61
208.474	98.47
208.693	71.85
208.911	53.42
209.13	24.75
209.349	0.17
209.567	14.51
209.786	61.61
210.005	30.89
210.223	24.75
210.442	-8.02
210.661	92.33
210.879	34.99
211.098	73.9
211.316	104.62
211.535	39.08
211.753	65.71
211.972	63.66
212.191	55.47
212.409	28.84
212.628	12.46
212.846	-20.31
213.065	45.23
213.283	37.03
213.502	118.95
213.72	6.31
213.938	6.31
214.157	47.27
214.375	94.38
214.594	-5.97
214.812	39.08
215.031	30.89
215.249	-16.21
215.467	102.57
215.686	90.28
215.904	53.42
216.122	-8.02
216.341	63.66
216.559	77.99
216.778	49.32
216.996	30.89
217.214	22.7
217.432	92.33
217.651	30.89
217.869	43.18
218.087	82.09
218.306	-10.07
218.524	55.47
218.742	37.03
218.96	18.6
219.179	-3.93
219.397	30.89
219.615	108.71
219.833	-48.98
220.051	37.03
220.27	47.27
220.488	41.13
220.706	86.19
220.924	12.46
221.142	39.08
221.36	41.13
221.578	100.52
221.796	4.27
222.015	84.14
222.233	28.84
222.451	141.48
222.669	4.27
222.887	80.04
223.105	18.6
223.323	63.66
223.541	61.61
223.759	67.75
223.977	39.08
224.195	77.99
224.413	143.53
224.631	39.08
224.849	14.51
225.067	22.7
225.285	-14.17
225.503	69.8
225.721	8.36
225.939	88.23
226.157	22.7
226.375	184.49
226.592	47.27
226.81	57.51
227.028	32.94
227.246	90.28
227.464	114.86
227.682	51.37
227.9	26.79
228.117	6.31
228.335	84.14
228.553	41.13
228.771	114.86
228.989	110.76
229.206	118.95
229.424	-1.88
229.642	22.7
229.86	41.13
230.077	53.42
230.295	51.37
230.513	63.66
230.731	-1.88
230.948	28.84
231.166	112.81
231.384	131.24
231.601	-10.07
231.819	159.91
232.037	69.8
232.254	-3.93
232.472	24.75
232.689	90.28
232.907	69.8
233.125	8.36
233.342	47.27
233.56	20.65
233.777	53.42
233.995	80.04
234.213	100.52
234.43	80.04
234.648	90.28
234.865	73.9
235.083	-32.6
235.3	80.04
235.518	129.19
235.735	143.53
235.953	49.32
236.17	90.28
236.388	8.36
236.605	39.08
236.822	-26.45
237.04	77.99
237.257	4.27
237.475	-61.27
237.692	41.13
237.909	37.03
238.127	14.51
238.344	-20.31
238.562	12.46
238.779	4.27
238.996	45.23
239.214	43.18
239.431	94.38
239.648	96.43
239.865	63.66
240.083	39.08
240.3	63.66
240.517	73.9
240.735	51.37
240.952	6.31
241.169	6.31
241.386	59.56
241.603	61.61
241.821	8.36
242.038	71.85
242.255	94.38
242.472	28.84
242.689	12.46
242.907	127.14
243.124	67.75
243.341	24.75
243.558	20.65
243.775	-10.07
243.992	47.27
244.209	86.19
244.426	135.34
244.643	39.08
244.86	49.32
245.078	-12.12
245.295	94.38
245.512	55.47
245.729	37.03
245.946	114.86
246.163	30.89
246.38	98.47
246.597	-12.12
246.814	-44.88
247.031	94.38
247.248	88.23
247.464	39.08
247.681	108.71
247.898	32.94
248.115	86.19
248.332	6.31
248.549	73.9
248.766	102.57
248.983	100.52
249.2	28.84
249.417	73.9
249.633	37.03
249.85	-3.93
250.067	26.79
250.284	65.71
250.501	80.04
250.717	71.85
250.934	43.18
251.151	45.23
251.368	-28.5
251.585	102.57
251.801	41.13
252.018	24.75
252.235	57.51
252.451	61.61
252.668	77.99
252.885	90.28
253.102	39.08
253.318	53.42
253.535	34.99
253.752	63.66
253.968	-75.6
254.185	-24.4
254.401	14.51
254.618	-14.17
254.835	-65.36
255.051	137.38
255.268	20.65
255.484	43.18
255.701	12.46
255.917	100.52
256.134	20.65
256.351	41.13
256.567	8.36
256.784	53.42
257	37.03
257.217	20.65
257.433	57.51
257.65	22.7
257.866	94.38
258.082	88.23
258.299	4.27
258.515	61.61
258.732	77.99
258.948	-10.07
259.165	24.75
259.381	6.31
259.597	20.65
259.814	71.85
260.03	75.95
260.246	100.52
260.463	73.9
260.679	69.8
260.895	63.66
261.112	75.95
261.328	71.85
261.544	51.37
261.761	127.14
261.977	-5.97
262.193	102.57
262.409	86.19
262.626	39.08
262.842	69.8
263.058	20.65
263.274	10.41
263.49	39.08
263.707	80.04
263.923	53.42
264.139	30.89
264.355	16.55
264.571	75.95
264.787	61.61
265.004	80.04
265.22	16.55
265.436	45.23
265.652	55.47
265.868	12.46
266.084	24.75
266.3	90.28
266.516	-61.27
266.732	-36.69
266.948	30.89
267.164	94.38
267.38	75.95
267.596	43.18
267.812	102.57
268.028	96.43
268.244	118.95
268.46	77.99
268.676	57.51
268.892	-1.88
269.108	53.42
269.324	30.89
269.54	-8.02
269.756	96.43
269.972	69.8
270.188	53.42
270.403	94.38
270.619	55.47
270.835	-24.4
271.051	49.32
271.267	34.99
271.483	55.47
271.698	116.9
271.914	2.22
272.13	-12.12
272.346	8.36
272.562	53.42
272.777	37.03
272.993	94.38
273.209	-32.6
273.425	32.94
273.64	28.84
273.856	65.71
274.072	12.46
274.287	75.95
274.503	123.05
274.719	82.09
274.934	65.71
275.15	-75.6
275.366	12.46
275.581	20.65
275.797	4.27
276.012	28.84
276.228	-10.07
276.444	53.42
276.659	14.51
276.875	-53.08
277.09	12.46
277.306	77.99
277.521	73.9
277.737	-20.31
277.952	47.27
278.168	28.84
278.383	71.85
278.599	37.03
278.814	30.89
279.03	61.61
279.245	30.89
279.461	108.71
279.676	86.19
279.892	4.27
280.107	41.13
280.322	6.31
280.538	102.57
280.753	61.61
280.969	53.42
281.184	135.34
281.399	51.37
281.615	69.8
281.83	53.42
282.045	12.46
282.26	8.36
282.476	12.46
282.691	86.19
282.906	28.84
283.122	69.8
283.337	30.89
283.552	102.57
283.767	6.31
283.983	98.47
284.198	22.7
284.413	104.62
284.628	73.9
284.843	104.62
285.058	-10.07
285.274	55.47
285.489	41.13
285.704	63.66
285.919	37.03
286.134	12.46
286.349	-26.45
286.564	-12.12
286.779	-10.07
286.995	-1.88
287.21	61.61
287.425	80.04
287.64	24.75
287.855	61.61
288.07	-20.31
288.285	37.03
288.5	73.9
288.715	86.19
288.93	20.65
289.145	61.61
289.36	20.65
289.575	53.42
289.79	53.42
290.004	14.51
290.219	80.04
290.434	-18.26
290.649	47.27
290.864	22.7
291.079	-28.5
291.294	-1.88
291.509	61.61
291.724	14.51
291.938	8.36
292.153	71.85
292.368	53.42
292.583	114.86
292.798	37.03
293.012	20.65
293.227	37.03
293.442	37.03
293.657	110.76
293.871	112.81
294.086	12.46
294.301	77.99
294.516	100.52
294.73	82.09
294.945	4.27
295.16	86.19
295.374	65.71
295.589	106.67
295.804	37.03
296.018	37.03
296.233	139.43
296.447	-5.97
296.662	37.03
296.877	45.23
297.091	104.62
297.306	69.8
297.52	102.57
297.735	77.99
297.949	100.52
298.164	6.31
298.378	-55.12
298.593	-46.93
298.807	69.8
299.022	71.85
299.236	49.32
299.451	24.75
299.665	53.42
299.88	121
300.094	151.72
300.309	12.46
300.523	116.9
300.737	37.03
300.952	80.04
301.166	65.71
301.381	18.6
301.595	43.18
301.809	63.66
302.024	43.18
302.238	94.38
302.452	71.85
302.667	82.09
302.881	114.86
303.095	94.38
303.309	55.47
303.524	2.22
303.738	63.66
303.952	-28.5
304.166	4.27
304.381	-12.12
304.595	61.61
304.809	28.84
305.023	24.75
305.237	47.27
305.452	20.65
305.666	47.27
305.88	20.65
306.094	94.38
306.308	-8.02
306.522	98.47
306.736	41.13
306.95	24.75
307.164	32.94
307.379	55.47
307.593	22.7
307.807	63.66
308.021	112.81
308.235	53.42
308.449	6.31
308.663	18.6
308.877	143.53
309.091	47.27
309.305	-12.12
309.519	6.31
309.733	57.51
309.947	4.27
310.161	96.43
310.374	8.36
310.588	100.52
310.802	37.03
311.016	96.43
311.23	20.65
311.444	57.51
311.658	26.79
311.872	53.42
312.085	-3.93
312.299	88.23
312.513	65.71
312.727	24.75
312.941	55.47
313.154	41.13
313.368	57.51
313.582	71.85
313.796	118.95
314.009	88.23
314.223	118.95
314.437	53.42
314.651	94.38
314.864	102.57
315.078	61.61
315.292	104.62
315.505	39.08
315.719	63.66
315.933	45.23
316.146	88.23
316.36	16.55
316.573	94.38
316.787	92.33
317.001	75.95
317.214	45.23
317.428	86.19
317.641	55.47
317.855	2.22
318.068	65.71
318.282	112.81
318.495	84.14
318.709	6.31
318.922	-34.64
319.136	90.28
319.349	96.43
319.563	82.09
319.776	16.55
319.99	145.58
320.203	102.57
320.417	96.43
320.63	57.51
320.843	127.14
321.057	77.99
321.27	45.23
321.483	-1.88
321.697	32.94
321.91	55.47
322.124	-1.88
322.337	53.42
322.55	53.42
322.763	53.42
322.977	41.13
323.19	108.71
323.403	63.66
323.617	69.8
323.83	-18.26
324.043	16.55
324.256	86.19
324.469	96.43
324.683	69.8
324.896	34.99
325.109	65.71
325.322	22.7
325.535	88.23
325.748	147.62
325.962	28.84
326.175	24.75
326.388	125.1
326.601	20.65
326.814	104.62
327.027	151.72
327.24	129.19
327.453	-36.69
327.666	45.23
327.879	37.03
328.092	69.8
328.305	127.14
328.518	-73.56
328.731	45.23
328.944	34.99
329.157	-32.6
329.37	61.61
329.583	69.8
329.796	88.23
330.009	-26.45
330.222	18.6
330.435	28.84
330.648	12.46
330.861	28.84
331.073	94.38
331.286	4.27
331.499	20.65
331.712	84.14
331.925	53.42
332.138	63.66
332.35	98.47
332.563	53.42
332.776	71.85
332.989	20.65
333.202	88.23
333.414	61.61
333.627	37.03
333.84	39.08
334.053	77.99
334.265	61.61
334.478	129.19
334.691	104.62
334.903	98.47
335.116	45.23
335.329	63.66
335.541	80.04
335.754	69.8
335.966	18.6
336.179	104.62
336.392	135.34
336.604	28.84
336.817	65.71
337.029	4.27
337.242	-16.21
337.454	37.03
337.667	71.85
337.88	41.13
338.092	104.62
338.305	55.47
338.517	49.32
338.729	53.42
338.942	84.14
339.154	86.19
339.367	24.75
339.579	12.46
339.792	45.23
340.004	86.19
340.217	4.27
340.429	12.46
340.641	61.61
340.854	-5.97
341.066	-3.93
341.278	37.03
341.491	28.84
341.703	69.8
341.915	53.42
342.128	147.62
342.34	69.8
342.552	49.32
342.764	41.13
342.977	63.66
343.189	69.8
343.401	61.61
343.613	51.37
343.826	16.55
344.038	77.99
344.25	32.94
344.462	4.27
344.674	73.9
344.886	14.51
345.099	94.38
345.311	57.51
345.523	127.14
345.735	-10.07
345.947	94.38
346.159	86.19
346.371	94.38
346.583	-3.93
346.795	143.53
347.007	47.27
347.219	69.8
347.431	37.03
347.643	57.51
347.855	24.75
348.067	80.04
348.279	12.46
348.491	51.37
348.703	94.38
348.915	-1.88
349.127	65.71
349.339	-42.84
349.551	-1.88
349.763	55.47
349.975	28.84
350.187	98.47
350.399	12.46
350.61	100.52
350.822	14.51
351.034	88.23
351.246	57.51
351.458	45.23
351.669	30.89
351.881	-18.26
352.093	45.23
352.305	82.09
352.517	51.37
352.728	65.71
352.94	69.8
353.152	104.62
353.363	32.94
353.575	30.89
353.787	145.58
353.999	53.42
354.21	37.03
354.422	-20.31
354.633	65.71
354.845	57.51
355.057	32.94
355.268	61.61
355.48	77.99
355.692	69.8
355.903	-5.97
356.115	41.13
356.326	-1.88
356.538	110.76
356.749	22.7
356.961	86.19
357.172	-34.64
357.384	37.03
357.595	71.85
357.807	49.32
358.018	63.66
358.23	53.42
358.441	37.03
358.653	69.8
358.864	4.27
359.075	-12.12
359.287	106.67
359.498	112.81
359.709	45.23
359.921	112.81
360.132	47.27
360.344	37.03
360.555	4.27
360.766	63.66
360.977	53.42
361.189	69.8
361.4	86.19
361.611	90.28
361.823	28.84
362.034	110.76
362.245	57.51
362.456	69.8
362.667	96.43
362.879	77.99
363.09	51.37
363.301	86.19
363.512	45.23
363.723	53.42
363.935	-46.93
364.146	61.61
364.357	75.95
364.568	104.62
364.779	82.09
364.99	20.65
365.201	37.03
365.412	77.99
365.623	-26.45
365.834	86.19
366.045	24.75
366.256	129.19
366.467	80.04
366.678	30.89
366.889	73.9
367.1	-36.69
367.311	61.61
367.522	20.65
367.733	51.37
367.944	57.51
368.155	20.65
368.366	55.47
368.577	67.75
368.788	88.23
368.999	-12.12
369.209	53.42
369.42	37.03
369.631	80.04
369.842	135.34
370.053	32.94
370.264	39.08
370.474	8.36
370.685	39.08
370.896	96.43
371.107	47.27
371.317	22.7
371.528	88.23
371.739	77.99
371.95	104.62
372.16	59.56
372.371	47.27
372.582	53.42
372.792	86.19
373.003	88.23
373.214	14.51
373.424	143.53
373.635	22.7
373.846	63.66
374.056	123.05
374.267	47.27
374.477	4.27
374.688	69.8
374.898	-3.93
375.109	41.13
375.319	63.66
375.53	53.42
375.74	69.8
375.951	63.66
376.161	104.62
376.372	129.19
376.582	88.23
376.793	118.95
377.003	77.99
377.214	102.57
377.424	86.19
377.635	30.89
377.845	24.75
378.055	94.38
378.266	77.99
378.476	45.23
378.686	53.42
378.897	55.47
379.107	153.77
379.317	71.85
379.528	69.8
379.738	102.57
379.948	55.47
380.158	127.14
380.369	80.04
380.579	90.28
380.789	129.19
380.999	104.62
381.21	96.43
381.42	102.57
381.63	6.31
381.84	28.84
382.05	16.55
382.261	77.99
382.471	94.38
382.681	118.95
382.891	94.38
383.101	94.38
383.311	30.89
383.521	4.27
383.731	77.99
383.941	28.84
384.151	84.14
384.361	86.19
384.571	53.42
384.781	86.19
384.991	112.81
385.201	47.27
385.411	39.08
385.621	77.99
385.831	47.27
386.041	26.79
386.251	49.32
386.461	96.43
386.671	53.42
386.881	45.23
387.091	73.9
387.301	71.85
387.511	86.19
387.72	94.38
387.93	90.28
388.14	37.03
388.35	82.09
388.56	102.57
388.769	98.47
388.979	88.23
389.189	6.31
389.399	20.65
389.609	77.99
389.818	28.84
390.028	28.84
390.238	94.38
390.447	49.32
390.657	80.04
390.867	102.57
391.076	45.23
391.286	30.89
391.496	77.99
391.705	2.22
391.915	123.05
392.125	102.57
392.334	14.51
392.544	96.43
392.753	121
392.963	61.61
393.172	90.28
393.382	90.28
393.591	96.43
393.801	100.52
394.01	121
394.22	123.05
394.429	14.51
394.639	47.27
394.848	45.23
395.058	133.29
395.267	104.62
395.477	80.04
395.686	57.51
395.895	61.61
396.105	82.09
396.314	53.42
396.524	20.65
396.733	104.62
396.942	102.57
397.152	65.71
397.361	131.24
397.57	127.14
397.78	65.71
397.989	118.95
398.198	118.95
398.407	121
398.617	100.52
398.826	45.23
399.035	49.32
399.244	127.14
399.453	88.23
399.663	118.95
399.872	118.95
400.081	18.6
400.29	129.19
400.499	28.84
400.708	155.82
400.917	114.86
401.127	73.9
401.336	55.47
401.545	172.2
401.754	137.38
401.963	153.77
402.172	118.95
402.381	125.1
402.59	92.33
402.799	96.43
403.008	102.57
403.217	77.99
403.426	98.47
403.635	77.99
403.844	127.14
404.053	231.59
404.262	100.52
404.471	170.15
404.68	100.52
404.888	153.77
405.097	90.28
405.306	65.71
405.515	168.1
405.724	98.47
405.933	129.19
406.142	149.67
406.35	149.67
406.559	112.81
406.768	69.8
406.977	217.26
407.185	194.73
407.394	170.15
407.603	151.72
407.812	147.62
408.02	198.82
408.229	131.24
408.438	166.06
408.646	116.9
408.855	231.59
409.064	276.65
409.272	159.91
409.481	192.68
409.69	217.26
409.898	209.06
410.107	227.5
410.315	202.92
410.524	282.79
410.733	262.31
410.941	217.26
411.15	379.04
411.358	323.75
411.567	346.28
411.775	342.18
411.984	297.13
412.192	315.56
412.401	317.61
412.609	413.86
412.818	383.14
413.026	436.39
413.234	360.61
413.443	422.05
413.651	393.38
413.86	366.76
414.068	450.72
414.276	463.01
414.485	493.73
414.693	559.27
414.901	528.55
415.11	491.68
415.318	481.44
415.526	551.07
415.734	596.13
415.943	602.27
416.151	647.33
416.359	575.65
416.567	667.81
416.776	702.62
416.984	714.91
417.192	753.82
417.4	729.25
417.608	749.73
417.817	766.11
418.025	802.97
418.233	831.65
418.441	854.17
418.649	829.6
418.857	929.95
419.065	932
419.273	975
419.481	999.58
419.689	1061.02
419.897	1075.35
420.105	1052.83
420.313	1194.14
420.521	1161.37
420.729	1151.13
420.937	1167.51
421.145	1314.97
421.353	1317.01
421.561	1380.5
421.769	1398.93
421.977	1472.66
422.185	1491.09
422.393	1487
422.601	1708.18
422.809	1659.03
423.017	1683.6
423.224	1839.25
423.432	1859.73
423.64	1773.71
423.848	1921.17
424.056	1953.93
424.263	2058.38
424.471	1972.36
424.679	2107.53
424.887	2195.59
425.094	2209.93
425.302	2283.66
425.51	2422.92
425.718	2482.31
425.925	2357.38
426.133	2519.17
426.341	2631.81
426.548	2703.49
426.756	2793.6
426.964	2877.57
427.171	3119.23
427.379	3006.59
427.586	3168.38
427.794	3174.52
428.001	3211.39
428.209	3442.81
428.417	3362.94
428.624	3752.05
428.832	3788.91
429.039	3745.91
429.247	3616.88
429.454	4083.82
429.662	4251.75
429.869	3954.8
430.076	4218.99
430.284	4163.69
430.491	4311.14
430.699	4591.72
430.906	4737.12
431.114	4733.03
431.321	4872.29
431.528	4970.59
431.736	5199.96
431.943	5425.24
432.15	5238.87
432.358	5361.75
432.565	5693.52
432.772	5505.11
432.979	6164.56
433.187	5929.04
433.394	6021.2
433.601	6316.11
433.808	6496.33
434.016	6545.48
434.223	6697.03
434.43	7163.97
434.637	7051.33
434.844	7252.03
435.052	7491.64
435.259	7565.37
435.466	7505.98
435.673	7499.83
435.88	8073.26
436.087	8468.52
436.294	8474.67
436.501	8228.91
436.708	8351.79
436.915	8435.75
437.122	8878.12
437.329	8802.34
437.537	9121.82
437.743	9377.82
437.95	9302.04
438.157	9764.89
438.364	10047.51
438.571	10104.85
438.778	10102.8
438.985	11100.16
439.192	10741.77
439.399	10905.6
439.606	10442.76
439.813	11479.04
440.02	11909.11
440.227	11876.34
440.433	11669.5
440.64	12113.91
440.847	12003.32
441.054	12218.35
441.261	13189.09
441.467	12967.91
441.674	13160.42
441.881	13694.94
442.088	13557.72
442.294	13285.34
442.501	13854.68
442.708	14319.57
442.914	14692.3
443.121	15327.17
443.328	14929.86
443.534	15796.15
443.741	15435.71
443.948	15089.6
444.154	16385.97
444.361	16138.16
444.568	16498.61
444.774	16371.63
444.981	16568.24
445.187	17039.27
445.394	17670.05
445.6	17786.78
445.807	19189.64
446.013	18370.45
446.22	18868.11
446.426	19369.86
446.633	19646.33
446.839	20221.81
447.046	19339.14
447.252	20371.32
447.459	20442.99
447.665	20320.12
447.871	21389.16
448.078	22140.76
448.284	21409.64
448.491	21806.94
448.697	22601.55
448.903	22925.13
449.11	23117.64
449.316	22482.77
449.522	23140.17
449.728	23789.38
449.935	24037.18
450.141	23750.46
450.347	24350.52
450.553	23830.34
450.76	24153.91
450.966	24657.71
451.172	24510.26
451.378	25110.32
451.584	24772.4
451.791	25358.12
451.997	25411.37
452.203	25949.98
452.409	25716.51
452.615	25532.2
452.821	24446.77
453.027	24344.38
453.233	25849.63
453.44	24688.43
453.646	25089.84
453.852	25157.42
454.058	25448.23
454.264	24794.93
454.47	25657.12
454.676	24577.84
454.882	25628.45
455.088	23322.44
455.294	23582.53
455.5	23992.12
455.705	24246.07
455.911	23349.06
456.117	22998.86
456.323	22560.59
456.529	21829.47
456.735	22619.99
456.941	21843.81
457.147	21786.46
457.352	21086.06
457.558	20789.1
457.764	20803.44
457.97	20244.34
458.176	19918.71
458.381	20127.61
458.587	18939.79
458.793	18935.69
458.999	18096.02
459.204	19036.04
459.41	18745.23
459.616	17588.13
459.821	17489.82
460.027	17502.11
460.233	17289.12
460.438	16232.37
460.644	16517.04
460.85	15701.95
461.055	15421.38
461.261	15634.36
461.466	14342.1
461.672	13770.71
461.878	14708.68
462.083	14012.37
462.289	13692.89
462.494	13350.88
462.7	12935.14
462.905	12582.89
463.111	12845.03
463.316	13088.74
463.522	12629.99
463.727	12818.41
463.932	12879.85
464.138	12492.78
464.343	12636.14
464.549	12367.85
464.754	12449.77
464.959	12423.15
465.165	12341.23
465.37	11964.4
465.575	11657.21
465.781	12216.3
465.986	12181.49
466.191	11503.61
466.397	11546.62
466.602	11046.91
466.807	11524.09
467.012	11268.09
467.218	11284.48
467.423	11169.79
467.628	11169.79
467.833	11589.63
468.038	11073.54
468.244	11022.34
468.449	11313.15
468.654	10997.76
468.859	10973.19
469.064	10817.54
469.269	10354.7
469.474	10555.4
469.679	10815.49
469.885	10549.26
470.09	10582.03
470.295	10637.32
470.5	10041.36
470.705	10266.64
470.91	10045.46
471.115	9883.67
471.32	10215.44
471.525	10170.38
471.73	9791.51
471.935	10078.22
472.139	9318.43
472.344	9390.11
472.549	9574.42
472.754	9652.25
472.959	9228.32
473.164	9052.19
473.369	8761.38
473.574	9297.95
473.778	9039.9
473.983	9320.48
474.188	9175.07
474.393	8632.36
474.598	8589.35
474.802	8609.83
475.007	8562.73
475.212	8527.91
475.417	8323.12
475.621	8198.19
475.826	8179.76
476.031	8095.79
476.235	7886.9
476.44	7884.85
476.645	8079.41
476.849	7870.51
477.054	7835.7
477.259	7745.59
477.463	7667.77
477.668	7499.83
477.872	7594.04
478.077	7508.02
478.282	7221.31
478.486	7204.92
478.691	7239.74
478.895	7262.27
479.1	7254.08
479.304	7190.59
479.509	6873.15
479.713	7057.47
479.918	6977.6
480.122	6832.19
480.326	7000.13
480.531	6895.68
480.735	6809.67
480.94	6881.35
481.144	7071.81
481.348	6672.45
481.553	6715.46
481.757	6504.52
481.961	6516.81
482.166	6815.81
482.37	6742.08
482.574	6516.81
482.778	6578.25
482.983	6570.05
483.187	6754.37
483.391	6649.93
483.595	6565.96
483.8	6422.6
484.004	6817.86
484.208	6662.21
484.412	6600.77
484.616	6633.54
484.821	6539.33
485.025	6623.3
485.229	6508.62
485.433	6455.37
485.637	6502.47
485.841	6258.76
486.045	6713.41
486.249	6565.96
486.453	6565.96
486.657	6467.66
486.861	6680.64
487.065	6383.69
487.269	6690.88
487.473	6430.79
487.677	6713.41
487.881	6590.53
488.085	6514.76
488.289	6606.92
488.493	6457.42
488.697	6568.01
488.901	6821.95
489.105	6500.42
489.309	6625.35
489.512	6656.07
489.716	6619.21
489.92	6703.17
490.124	6697.03
490.328	6819.91
490.531	6639.69
490.735	6731.84
490.939	6768.71
491.143	6805.57
491.346	6912.07
491.55	6807.62
491.754	6754.37
491.958	6955.07
492.161	6946.88
492.365	6987.84
492.569	6983.74
492.772	6844.48
492.976	7180.35
493.18	7057.47
493.383	7143.49
493.587	7272.51
493.79	7172.16
493.994	7067.71
494.197	7428.15
494.401	7344.19
494.605	7213.12
494.808	7444.54
495.012	7483.45
495.215	7446.59
495.419	7475.26
495.622	7411.77
495.825	7688.25
496.029	7704.63
496.232	7845.94
496.436	7815.22
496.639	7872.56
496.843	7819.32
497.046	8038.45
497.249	8085.55
497.453	8138.8
497.656	8273.96
497.859	8241.2
498.063	8413.23
498.266	8491.05
498.469	8427.56
498.673	8527.91
498.876	8884.26
499.079	8738.85
499.282	8812.58
499.485	8941.6
499.689	9009.19
499.892	9230.37
500.095	9285.66
500.298	9457.69
500.501	9445.4
500.705	9488.41
500.908	9728.02
501.111	9592.86
501.314	9713.69
501.517	9981.97
501.72	10100.75
501.923	10016.79
502.126	10285.07
502.329	10516.49
502.532	10393.61
502.735	10557.45
502.938	10661.9
503.141	10825.73
503.344	10973.19
503.547	11026.43
503.75	10983.43
503.953	11296.77
504.156	11528.19
504.359	11808.76
504.562	11599.87
504.765	11825.14
504.968	12034.04
505.17	12001.27
505.373	12070.9
505.576	12287.98
505.779	12517.36
505.982	12431.34
506.185	12730.34
506.387	12804.07
506.59	12978.15
506.793	13184.99
506.996	13051.88
507.198	13449.18
507.401	13275.1
507.604	13449.18
507.807	13916.12
508.009	13756.38
508.212	14061.52
508.415	14159.83
508.617	14436.3
508.82	14487.5
509.022	14501.84
509.225	14831.56
509.428	14792.65
509.63	14872.52
509.833	15005.64
510.035	15538.11
510.238	15343.55
510.44	15540.16
510.643	15882.17
510.845	15857.59
511.048	16058.29
511.25	16050.1
511.453	16363.44
511.655	16588.72
511.858	16707.5
512.06	16748.46
512.262	16873.39
512.465	16928.68
512.667	17268.64
512.87	17319.84
513.072	17325.99
513.274	17977.24
513.477	17821.59
513.679	17907.61
513.881	18347.92
514.084	18532.24
514.286	18542.48
514.488	18540.43
514.69	19257.22
514.893	19138.44
515.095	19259.27
515.297	19376
515.499	19658.62
515.701	19781.5
515.904	20080.5
516.106	20064.12
516.308	20232.05
516.51	20453.23
516.712	20455.28
516.914	20873.07
517.116	21108.58
517.318	21157.74
517.52	21917.53
517.722	21415.78
517.925	21706.59
518.127	21667.68
518.329	21860.19
518.531	22110.04
518.733	22230.87
518.935	22589.27
519.136	22544.21
519.338	22814.54
519.54	22892.37
519.742	23156.55
519.944	23301.96
520.146	23627.59
520.348	23883.58
520.55	23985.98
520.752	23945.02
520.954	24260.41
521.155	24231.74
521.357	24635.19
521.559	24817.46
521.761	24862.51
521.963	25141.04
522.164	25087.79
522.366	25491.24
522.568	25732.9
522.77	25769.76
522.971	26099.48
523.173	25872.16
523.375	26029.85
523.576	26021.66
523.778	26244.89
523.98	26816.27
524.181	26943.25
524.383	26662.68
524.584	27023.12
524.786	27279.11
524.988	27289.35
525.189	27363.08
525.391	27571.97
525.592	27873.03
525.794	28104.45
525.995	28317.43
526.197	28051.2
526.398	27948.8
526.6	28362.49
526.801	28360.44
527.003	28264.19
527.204	28243.71
527.406	29005.55
527.607	28876.53
527.808	28792.56
528.01	28487.42
528.211	28770.04
528.412	29396.71
528.614	28921.59
528.815	29394.67
529.016	29558.5
529.218	29200.11
529.419	29433.58
529.62	29828.84
529.822	29540.07
530.023	29605.61
530.224	29484.78
530.425	29656.81
530.626	29296.36
530.828	29378.28
531.029	29843.17
531.23	29775.59
531.431	29761.25
531.632	29820.64
531.833	29927.14
532.035	29910.75
532.236	30093.02
532.437	30402.27
532.638	30062.3
532.839	30019.3
533.04	30260.96
533.241	30035.68
533.442	30586.58
533.643	30281.44
533.844	30285.53
534.045	30357.21
534.246	29970.15
534.447	30570.2
534.648	30133.98
534.849	30299.87
535.05	30027.49
535.251	30164.7
535.451	30432.99
535.652	30203.61
535.853	30236.38
536.054	30369.5
536.255	30467.8
536.456	30170.85
536.657	30492.38
536.857	30367.45
537.058	29980.39
537.259	30381.79
537.46	30265.05
537.66	30168.8
537.861	30344.92
538.062	30213.85
538.263	30519
538.463	30324.44
538.664	30330.59
538.865	30502.62
539.065	30738.13
539.266	30162.65
539.466	30455.51
539.667	30168.8
539.868	30465.75
540.068	30029.54
540.269	30201.57
540.469	30242.53
540.67	30336.73
540.87	30263
541.071	29880.03
541.271	30412.51
541.472	30263
541.672	30183.13
541.873	30359.26
542.073	29697.77
542.274	30207.71
542.474	30295.77
542.675	30203.61
542.875	30394.07
543.075	30381.79
543.276	29732.58
543.476	30150.37
543.676	29945.57
543.877	30240.48
544.077	30183.13
544.277	30105.31
544.478	30121.7
544.678	30009.06
544.878	30148.32
545.078	30060.26
545.279	29558.5
545.479	30062.3
545.679	29961.95
545.879	30287.58
546.079	29955.81
546.28	29884.13
546.48	29730.53
546.68	29863.65
546.88	29873.89
547.08	29945.57
547.28	30121.7
547.48	29904.61
547.68	29984.48
547.88	29595.37
548.081	30050.02
548.281	29714.15
548.481	30015.2
548.681	29900.51
548.881	29730.53
549.081	29697.77
549.28	29492.97
549.48	29955.81
549.68	29650.66
549.88	30103.26
550.08	29656.81
550.28	29843.17
550.48	30017.25
550.68	29765.35
550.88	29544.17
551.08	29834.98
551.279	29882.08
551.479	29714.15
551.679	29429.48
551.879	29296.36
552.079	29693.67
552.278	29343.47
552.478	29673.19
552.678	29349.61
552.878	29701.86
553.077	29621.99
553.277	29628.13
553.477	29689.57
553.676	29413.1
553.876	29683.43
554.076	29562.6
554.275	29308.65
554.475	29200.11
554.674	29728.49
554.874	29327.08
555.074	29621.99
555.273	29482.73
555.473	29355.75
555.672	28978.93
555.872	29101.81
556.071	29087.47
556.271	29488.87
556.47	29144.81
556.67	29157.1
556.869	29232.88
557.068	29142.77
557.268	28651.25
557.467	28821.23
557.667	29038.32
557.866	29191.92
558.065	29097.71
558.265	28737.27
558.464	28550.9
558.663	29066.99
558.863	28600.05
559.062	29222.64
559.261	28440.31
559.461	28917.49
559.66	28464.89
559.859	28538.62
560.058	28407.55
560.258	28335.87
560.457	28129.02
560.656	28847.86
560.855	28432.12
561.054	28530.42
561.253	27993.86
561.453	28315.39
561.652	28262.14
561.851	28258.04
562.05	27973.38
562.249	28053.25
562.448	28325.63
562.647	27846.4
562.846	27956.99
563.045	27862.79
563.244	27703.04
563.443	28217.08
563.642	27602.69
563.841	27608.84
564.04	27291.4
564.239	28358.39
564.438	27629.32
564.637	27373.32
564.836	27737.86
565.035	27164.43
565.234	27285.26
565.432	27463.43
565.631	27229.96
565.83	27334.41
566.029	26844.95
566.228	27301.64
566.427	27094.8
566.625	26994.45
566.824	26748.69
567.023	26976.02
567.222	26711.83
567.42	26828.56
567.619	26730.26
567.818	26595.09
568.016	26736.4
568.215	26687.25
568.414	26617.62
568.612	26421.02
568.811	26498.84
569.01	26109.72
569.208	25902.88
569.407	26410.78
569.605	26060.57
569.804	26117.92
570.002	25894.69
570.201	26236.7
570.4	26212.12
570.598	25562.92
570.797	25743.14
570.995	25769.76
571.193	25601.83
571.392	25509.67
571.59	25427.75
571.789	25495.33
571.987	25415.46
572.186	25302.82
572.384	25321.26
572.582	25370.41
572.781	25509.67
572.979	24948.53
573.177	25321.26
573.376	24960.81
573.574	24866.61
573.772	25220.91
573.971	24696.63
574.169	24641.33
574.367	24610.61
574.565	24416.05
574.763	24512.31
574.962	24272.7
575.16	24317.75
575.358	24545.08
575.556	24323.9
575.754	24530.74
575.952	24002.36
576.151	24276.79
576.349	23822.14
576.547	24065.85
576.745	23813.95
576.943	24094.52
577.141	23609.15
577.339	23816
577.537	23928.64
577.735	23732.03
577.933	23304.01
578.131	23502.66
578.329	23643.97
578.527	23568.2
578.725	23285.58
578.923	23312.2
579.121	23217.99
579.319	23197.51
579.516	23330.63
579.714	23009.1
579.912	22982.48
580.11	22708.05
580.308	22941.52
580.506	22845.26
580.704	22777.68
580.901	22802.25
581.099	22632.27
581.297	22400.85
581.495	22597.46
581.692	22624.08
581.89	22480.72
582.088	22482.77
582.285	22298.45
582.483	22445.91
582.681	22417.24
582.878	22079.32
583.076	22011.74
583.274	22230.87
583.471	21995.36
583.669	22245.21
583.866	21950.3
584.064	21688.16
584.262	21569.38
584.459	21786.46
584.657	21573.47
584.854	21884.76
585.052	21213.03
585.249	21442.4
585.447	21555.04
585.644	21190.5
585.841	21530.47
586.039	21630.82
586.236	20989.8
586.434	21317.48
586.631	21081.96
586.828	20920.17
587.026	20846.44
587.223	21235.56
587.42	20868.97
587.618	21143.4
587.815	20565.87
588.012	20725.61
588.21	20402.04
588.407	20983.66
588.604	20490.1
588.801	20471.67
588.999	20264.82
589.196	20459.38
589.393	20281.21
589.59	20105.08
589.787	20158.33
589.984	20119.42
590.182	20117.37
590.379	19773.31
590.576	19955.58
590.773	20049.78
590.97	19726.21
591.167	19853.18
591.364	19613.57
591.561	19617.66
591.758	19533.7
591.955	19570.56
592.152	19683.2
592.349	19451.78
592.546	19314.56
592.743	19429.25
592.94	19128.2
593.137	19447.68
593.334	19158.92
593.531	18876.3
593.727	18931.59
593.924	19101.58
594.121	18708.37
594.318	19056.52
594.515	18767.76
594.712	18907.02
594.908	18536.34
595.105	18839.44
595.302	18644.88
595.499	18593.68
595.696	18282.39
595.892	18177.94
596.089	18603.92
596.286	18282.39
596.482	18177.94
596.679	18276.24
596.876	18476.94
597.072	18223
597.269	18235.28
597.466	17817.5
597.662	17690.52
597.859	17958.81
598.055	18044.82
598.252	17637.28
598.448	17633.18
598.645	17805.21
598.841	17756.06
599.038	17491.87
599.234	17416.1
599.431	17412
599.627	17598.37
599.824	17448.86
600.02	17287.07
600.217	17383.33
600.413	17412
600.609	17074.09
600.806	16904.1
601.002	17291.17
601.198	16971.69
601.395	16951.21
601.591	16854.95
601.787	16652.2
601.984	16889.77
602.18	17102.76
602.376	16588.72
602.572	16537.52
602.769	16699.31
602.965	16449.46
603.161	16467.89
603.357	16283.57
603.553	16584.62
603.75	16189.36
603.946	16365.49
604.142	16160.69
604.338	16117.68
604.534	16035.77
604.73	15970.23
604.926	15992.76
605.122	16164.79
605.318	15916.98
605.514	15736.76
605.71	15761.34
605.906	15693.76
606.102	15718.33
606.298	15757.24
606.494	15648.7
606.69	15892.41
606.886	15663.04
607.082	15306.69
607.278	15603.64
607.474	15531.97
607.67	15599.55
607.866	15316.93
608.062	15413.18
608.257	15521.73
608.453	15198.15
608.649	15292.35
608.845	15212.48
609.041	15349.7
609.236	15302.59
609.432	15282.11
609.628	15292.35
609.824	15118.28
610.019	14880.71
610.215	14856.14
610.411	14884.81
610.606	15028.17
610.802	14821.32
610.998	14913.48
611.193	14778.31
611.389	14739.4
611.584	14763.98
611.78	14569.42
611.976	14659.53
612.171	14946.25
612.367	14766.03
612.562	14596.04
612.758	14352.34
612.953	14268.37
613.149	14579.66
613.344	14497.74
613.539	14557.13
613.735	14286.8
613.93	14555.08
614.126	14479.31
614.321	14462.93
614.517	14266.32
614.712	14266.32
614.907	14249.94
615.103	14413.77
615.298	14045.14
615.493	14051.28
615.688	13836.25
615.884	14495.69
616.079	13934.55
616.274	13989.85
616.47	14211.03
616.665	13995.99
616.86	14077.91
617.055	14047.19
617.25	13772.76
617.445	13774.81
617.641	13649.88
617.836	13948.89
618.031	13629.4
618.226	13783
618.421	13746.14
618.616	13809.62
618.811	13455.33
619.006	13621.21
619.201	13350.88
619.396	13246.43
619.591	13152.23
619.786	13395.93
619.981	13139.94
620.176	13205.47
620.371	13078.5
620.566	13062.12
620.761	13287.39
620.956	13244.38
621.151	13019.11
621.346	13086.69
621.541	12972
621.735	12939.24
621.93	12662.76
622.125	12625.9
622.32	12609.51
622.515	12560.36
622.709	12425.2
622.904	12521.45
623.099	12294.13
623.294	12498.92
623.488	12341.23
623.683	12269.55
623.878	12066.8
624.072	12017.65
624.267	12099.57
624.462	11831.29
624.656	11948.02
624.851	11616.25
625.046	11708.41
625.24	11642.87
625.435	11646.97
625.629	11597.82
625.824	11743.22
626.018	11446.27
626.213	11354.11
626.407	11345.92
626.602	10948.61
626.796	11354.11
626.991	11302.91
627.185	11198.46
627.38	11001.86
627.574	11116.55
627.768	10819.59
627.963	10770.44
628.157	10543.11
628.352	10805.25
628.546	10569.74
628.74	10629.13
628.935	10596.36
629.129	10506.25
629.323	10493.96
629.517	10440.72
629.712	10383.37
629.906	10276.88
630.1	10131.47
630.294	10084.37
630.489	10072.08
630.683	10049.55
630.877	9859.09
631.071	9898
631.265	10094.61
631.459	9809.94
631.653	9900.05
631.848	9797.65
632.042	9725.97
632.236	9570.33
632.43	9390.11
632.624	9465.88
632.818	9445.4
633.012	9306.14
633.206	9506.84
633.4	9402.4
633.594	9336.86
633.788	9166.88
633.982	9252.89
634.176	9285.66
634.369	9039.9
634.563	9076.77
634.757	8988.71
634.951	8845.35
635.145	9035.81
635.339	8888.36
635.533	8984.61
635.726	8835.11
635.92	8728.61
636.114	8550.44
636.308	8720.42
636.501	8957.99
636.695	8507.43
636.889	8566.82
637.083	8370.22
637.276	8441.9
637.47	8470.57
637.664	8321.07
637.857	8425.51
638.051	8384.55
638.244	8196.14
638.438	8206.38
638.632	8230.96
638.825	8241.2
639.019	7981.1
639.212	7989.3
639.406	7979.06
639.599	7942.19
639.793	7790.64
639.986	7831.6
640.18	7721.01
640.373	7620.66
640.567	7620.66
640.76	7581.75
640.954	7577.66
641.147	7450.68
641.34	7446.59
641.534	7573.56
641.727	7368.76
641.92	7462.97
642.114	7243.84
642.307	7178.3
642.5	7344.19
642.694	7082.05
642.887	7262.27
643.08	7125.05
643.273	7131.2
643.467	7245.88
643.66	7051.33
643.853	7065.66
644.046	7010.37
644.239	6950.98
644.432	6922.31
644.626	6742.08
644.819	6766.66
645.012	6848.58
645.205	6789.19
645.398	6711.36
645.591	6576.2
645.784	6504.52
645.977	6582.34
646.17	6649.93
646.363	6520.9
646.556	6488.14
646.749	6525
646.942	6477.9
647.135	6326.35
647.328	6416.46
647.521	6312.01
647.714	6316.11
647.907	6228.04
648.099	6111.31
648.292	6293.58
648.485	6187.08
648.678	6160.46
648.871	5949.52
649.064	6142.03
649.256	6090.83
649.449	5967.95
649.642	6013.01
649.835	5855.31
650.027	5673.04
650.22	6049.87
650.413	5881.94
650.605	5967.95
650.798	5746.77
650.991	5894.22
651.183	5593.17
651.376	5652.56
651.568	5789.78
651.761	5709.91
651.954	5673.04
652.146	5546.07
652.339	5597.27
652.531	5771.35
652.724	5464.15
652.916	5341.27
653.109	5365.85
653.301	5501.01
653.494	5490.77
653.686	5345.37
653.879	5347.42
654.071	5476.44
654.263	5427.29
654.456	5099.61
654.648	5326.94
654.84	5083.23
655.033	5079.13
655.225	5050.46
655.417	4952.16
655.61	5087.33
655.802	5068.89
655.994	4913.25
656.186	4919.39
656.379	5017.69
656.571	4952.16
656.763	4995.17
656.955	4819.04
657.148	4972.64
657.34	4925.54
657.532	4630.63
657.724	4651.11
657.916	4952.16
658.108	4651.11
658.3	4599.91
658.492	4780.13
658.684	4601.96
658.876	4624.48
659.068	4624.48
659.26	4624.48
659.452	4700.26
659.644	4579.43
659.836	4608.1
660.028	4550.76
660.22	4423.78
660.412	4481.13
660.604	4460.65
660.796	4378.73
660.988	4419.69
661.18	4370.54
661.372	4370.54
661.563	4313.19
661.755	4358.25
661.947	4251.75
662.139	4218.99
662.331	4300.91
662.522	4194.41
662.714	4186.22
662.906	4192.36
663.097	4214.89
663.289	4100.2
663.481	4112.49
663.673	4120.68
663.864	3991.66
664.056	4114.54
664.247	3924.08
664.439	3944.56
664.631	4012.14
664.822	4001.9
665.014	3813.49
665.205	3997.81
665.397	3965.04
665.588	3887.22
665.78	3838.06
665.971	3874.93
666.163	3770.48
666.354	3774.58
666.546	3793.01
666.737	3803.25
666.929	3676.27
667.12	3903.6
667.311	3567.73
667.503	3608.69
667.694	3678.32
667.885	3661.94
668.077	3627.12
668.268	3627.12
668.459	3637.36
668.651	3584.12
668.842	3612.79
669.033	3457.14
669.224	3625.08
669.416	3637.36
669.607	3586.16
669.798	3453.05
669.989	3602.55
670.18	3522.68
670.371	3428.47
670.563	3494.01
670.754	3412.09
670.945	3504.25
671.136	3537.01
671.327	3299.45
671.518	3416.18
671.709	3383.42
671.9	3395.7
672.091	3264.63
672.282	3270.78
672.473	3291.26
672.664	3240.06
672.855	3264.63
673.046	3317.88
673.237	3309.69
673.428	3250.3
673.619	3256.44
673.809	3215.48
674	3158.14
674.191	3104.89
674.382	3174.52
674.573	3125.37
674.764	3184.76
674.954	3125.37
675.145	3141.75
675.336	3113.08
675.527	3145.85
675.717	3113.08
675.908	3043.45
676.099	3123.32
676.289	3059.84
676.48	3100.8
676.671	3115.13
676.861	2979.97
677.052	2955.39
677.243	2887.81
677.433	3068.03
677.624	3055.74
677.814	2891.9
678.005	3035.26
678.195	3053.69
678.386	2943.1
678.576	2883.71
678.767	2838.66
678.957	2926.72
679.148	2875.52
679.338	2801.79
679.529	2930.81
679.719	2865.28
679.909	2863.23
680.1	2760.83
680.29	2916.48
680.481	2809.98
680.671	2986.11
680.861	2914.43
681.052	2857.09
681.242	2855.04
681.432	2916.48
681.622	2855.04
681.813	2781.31
682.003	2803.84
682.193	2750.59
682.383	2791.55
682.573	2717.83
682.764	2898.05
682.954	2607.23
683.144	2805.89
683.334	2699.39
683.524	2728.07
683.714	2730.11
683.904	2693.25
684.094	2695.3
684.284	2621.57
684.474	2805.89
684.664	2732.16
684.854	2650.24
685.044	2609.28
685.234	2699.39
685.424	2613.38
685.614	2650.24
685.804	2601.09
685.994	2646.15
686.184	2644.1
686.374	2551.94
686.564	2527.36
686.753	2543.75
686.943	2709.63
687.133	2584.71
687.323	2742.4
687.513	2556.04
687.702	2568.32
687.892	2597
688.082	2494.6
688.272	2580.61
688.461	2478.21
688.651	2488.45
688.841	2422.92
689.03	2451.59
689.22	2388.1
689.41	2474.12
689.599	2439.3
689.789	2435.21
689.979	2431.11
690.168	2429.06
690.358	2297.99
690.547	2287.75
690.737	2263.18
690.926	2443.4
691.116	2312.33
691.305	2222.22
691.495	2291.85
691.684	2168.97
691.874	2324.62
692.063	2363.53
692.252	2214.02
692.442	2252.94
692.631	2095.24
692.82	2144.39
693.01	2332.81
693.199	2207.88
693.388	2302.09
693.578	2195.59
693.767	2357.38
693.956	2199.69
694.146	2201.74
694.335	2125.96
694.524	2134.15
694.713	2105.48
694.902	2101.39
695.092	2160.78
695.281	2134.15
695.47	2099.34
695.659	2085
695.848	2017.42
696.037	2109.58
696.226	2154.63
696.415	2005.13
696.604	2066.57
696.793	2070.67
696.982	2144.39
697.171	2054.28
697.36	2033.8
697.549	2021.52
697.738	1958.03
697.927	2052.24
698.116	2035.85
698.305	2013.32
698.494	2011.28
698.683	1929.36
698.872	2029.71
699.061	2025.61
699.25	2001.04
699.438	2023.56
699.627	2037.9
699.816	1986.7
700.005	1962.12
700.193	1882.25
700.382	1925.26
700.571	1992.84
700.76	1978.51
700.948	1945.74
701.137	1847.44
701.326	1906.83
701.514	1882.25
701.703	1953.93
701.892	1894.54
702.08	1915.02
702.269	1906.83
702.457	2052.24
702.646	1824.91
702.834	1835.15
703.023	1783.95
703.212	1947.79
703.4	1949.84
703.589	1802.38
703.777	1863.82
703.965	2029.71
704.154	1867.92
704.342	1892.49
704.531	1929.36
704.719	1935.5
704.907	1931.41
705.096	1941.65
705.284	1910.93
705.472	1808.53
705.661	1767.57
705.849	2021.52
706.037	1898.64
706.226	1962.12
706.414	1978.51
706.602	1876.11
706.79	1847.44
706.979	1882.25
707.167	1974.41
707.355	1753.23
707.543	1820.81
707.731	1937.55
707.919	1904.78
708.107	1781.9
708.296	1863.82
708.484	1888.4
708.672	1910.93
708.86	1888.4
709.048	1779.86
709.236	1839.25
709.424	1904.78
709.612	1896.59
709.8	1822.86
709.988	1884.3
710.176	1996.94
710.364	1822.86
710.551	1812.62
710.739	1822.86
710.927	1880.21
711.115	1765.52
711.303	1808.53
711.491	1933.45
711.679	1794.19
711.866	1919.12
712.054	1867.92
712.242	1675.41
712.43	1986.7
712.617	1831.05
712.805	1845.39
712.993	1839.25
713.181	1906.83
713.368	1839.25
713.556	1915.02
713.744	1798.29
713.931	1900.69
714.119	1880.21
714.306	1929.36
714.494	1859.73
714.682	1921.17
714.869	1888.4
715.057	1896.59
715.244	1781.9
715.432	1933.45
715.619	1855.63
715.807	1923.21
715.994	1839.25
716.182	1849.49
716.369	1904.78
716.556	1908.88
716.744	1820.81
716.931	1869.97
717.119	1921.17
717.306	1845.39
717.493	1781.9
717.681	1857.68
717.868	1857.68
718.055	1822.86
718.242	1888.4
718.43	1966.22
718.617	1970.32
718.804	1843.34
718.991	1880.21
719.179	1880.21
719.366	1802.38
719.553	1855.63
719.74	1923.21
719.927	1855.63
720.114	1867.92
720.301	1765.52
720.488	1831.05
720.676	1921.17
720.863	1863.82
721.05	1888.4
721.237	1888.4
721.424	1867.92
721.611	1898.64
721.798	1863.82
721.985	1745.04
722.172	1880.21
722.358	1869.97
722.545	1992.84
722.732	1786
722.919	1906.83
723.106	1806.48
723.293	1822.86
723.48	1869.97
723.667	1718.42
723.853	1802.38
724.04	1818.77
724.227	1876.11
724.414	1833.1
724.6	1863.82
724.787	1915.02
724.974	1921.17
725.161	1794.19
725.347	1872.01
725.534	1781.9
725.72	1826.96
725.907	1831.05
726.094	1931.41
726.28	1843.34
726.467	1884.3
726.653	1927.31
726.84	1865.87
727.027	1904.78
727.213	1831.05
727.4	1949.84
727.586	1867.92
727.773	1831.05
727.959	1937.55
728.145	1927.31
728.332	1814.67
728.518	1878.16
728.705	1890.45
728.891	1661.07
729.077	1865.87
729.264	1882.25
729.45	2005.13
729.636	2017.42
729.823	1869.97
730.009	1947.79
730.195	1945.74
730.382	2023.56
730.568	1818.77
730.754	1872.01
730.94	1933.45
731.126	1855.63
731.313	1839.25
731.499	1904.78
731.685	1781.9
731.871	1939.6
732.057	2017.42
732.243	1906.83
732.429	1917.07
732.615	1896.59
732.801	1847.44
732.987	1921.17
733.173	1833.1
733.359	1790.1
733.545	1818.77
733.731	1831.05
733.917	1855.63
734.103	1953.93
734.289	1970.32
734.475	1857.68
734.661	1994.89
734.847	1888.4
735.033	1929.36
735.219	1843.34
735.404	1831.05
735.59	1947.79
735.776	1890.45
735.962	1839.25
736.148	1888.4
736.333	1953.93
736.519	1839.25
736.705	1808.53
736.89	1810.58
737.076	2003.08
737.262	1896.59
737.447	1872.01
737.633	1921.17
737.819	1822.86
738.004	1853.58
738.19	1955.98
738.375	1849.49
738.561	1794.19
738.747	1759.38
738.932	1835.15
739.118	1882.25
739.303	1853.58
739.489	1822.86
739.674	1712.27
739.859	1736.85
740.045	1773.71
740.23	1663.12
740.416	1757.33
740.601	1833.1
740.786	1714.32
740.972	1765.52
741.157	1767.57
741.342	1773.71
741.528	1765.52
741.713	1781.9
741.898	1775.76
742.084	1783.95
742.269	1728.66
742.454	1726.61
742.639	1728.66
742.824	1712.27
743.01	1816.72
743.195	1732.75
743.38	1781.9
743.565	1708.18
743.75	1769.62
743.935	1671.31
744.12	1794.19
744.305	1675.41
744.49	1710.22
744.675	1661.07
744.86	1773.71
745.045	1681.55
745.23	1695.89
745.415	1669.27
745.6	1740.94
745.785	1675.41
745.97	1618.07
746.155	1654.93
746.34	1726.61
746.525	1495.19
746.71	1732.75
746.895	1542.29
747.079	1591.44
747.264	1546.39
747.449	1552.53
747.634	1599.63
747.819	1661.07
748.003	1575.06
748.188	1487
748.373	1511.57
748.557	1597.59
748.742	1589.39
748.927	1552.53
749.111	1511.57
749.296	1478.8
749.481	1454.23
749.665	1497.24
749.85	1339.54
750.034	1523.86
750.219	1462.42
750.404	1380.5
750.588	1409.17
750.773	1456.28
750.957	1489.04
751.141	1439.89
751.326	1364.12
751.51	1433.75
751.695	1368.21
751.879	1372.31
752.064	1398.93
752.248	1405.08
752.432	1364.12
752.617	1364.12
752.801	1312.92
752.985	1302.68
753.17	1296.53
753.354	1353.88
753.538	1380.5
753.722	1226.9
753.907	1183.9
754.091	1306.77
754.275	1286.3
754.459	1269.91
754.643	1274.01
754.828	1251.48
755.012	1259.67
755.196	1212.57
755.38	1247.38
755.564	1142.94
755.748	1175.7
755.932	1126.55
756.116	1257.62
756.3	1257.62
756.484	1144.99
756.668	1228.95
756.852	1173.66
757.036	1181.85
757.22	1216.66
757.404	1126.55
757.588	1112.22
757.772	1196.18
757.956	1056.92
758.14	1083.55
758.323	1077.4
758.507	1036.44
758.691	1110.17
758.875	1005.72
759.059	1110.17
759.242	1022.11
759.426	1081.5
759.61	1085.59
759.794	1075.35
759.977	1048.73
760.161	1069.21
760.345	1073.31
760.528	1101.98
760.712	1022.11
760.895	1192.09
761.079	993.44
761.263	1044.63
761.446	936.09
761.63	864.41
761.813	960.67
761.997	962.72
762.18	954.52
762.364	1061.02
762.547	897.18
762.731	923.8
762.914	907.42
763.098	972.96
763.281	858.27
763.464	991.39
763.648	989.34
763.831	944.28
764.015	882.85
764.198	981.15
764.381	1028.25
764.564	884.89
764.748	929.95
764.931	888.99
765.114	929.95
765.297	880.8
765.481	850.08
765.664	938.14
765.847	950.43
766.03	882.85
766.213	792.73
766.397	792.73
766.58	880.8
766.763	837.79
766.946	850.08
767.129	751.78
767.312	800.93
767.495	856.22
767.678	802.97
767.861	905.37
768.044	891.04
768.227	782.49
768.41	833.69
768.593	807.07
768.776	884.89
768.959	827.55
769.142	891.04
769.324	888.99
769.507	757.92
769.69	798.88
769.873	798.88
770.056	866.46
770.239	815.26
770.421	843.93
770.604	848.03
770.787	778.4
770.97	831.65
771.152	735.39
771.335	831.65
771.518	725.15
771.7	823.45
771.883	886.94
772.066	856.22
772.248	688.29
772.431	733.34
772.613	766.11
772.796	757.92
772.978	802.97
773.161	710.82
773.343	768.16
773.526	733.34
773.708	774.3
773.891	696.48
774.073	762.02
774.256	682.14
774.438	749.73
774.621	647.33
774.803	688.29
774.985	649.38
775.168	655.52
775.35	792.73
775.532	635.04
775.715	688.29
775.897	686.24
776.079	684.19
776.261	667.81
776.444	567.46
776.626	651.42
776.808	637.09
776.99	610.47
777.173	643.23
777.355	612.51
777.537	667.81
777.719	721.06
777.901	643.23
778.083	667.81
778.265	561.31
778.447	612.51
778.629	596.13
778.811	618.66
778.993	618.66
779.175	635.04
779.357	585.89
779.539	532.64
779.721	573.6
779.903	612.51
780.085	573.6
780.267	536.74
780.449	618.66
780.631	553.12
780.812	581.79
780.994	581.79
781.176	506.02
781.358	587.94
781.54	557.22
781.721	469.16
781.903	553.12
782.085	512.16
782.267	577.7
782.448	399.52
782.63	577.7
782.812	495.78
782.993	553.12
783.175	463.01
783.357	506.02
783.538	514.21
783.72	518.31
783.901	487.59
784.083	495.78
784.264	598.18
784.446	333.99
784.627	450.72
784.809	467.11
784.99	411.81
785.172	487.59
785.353	491.68
785.535	497.83
785.716	442.53
785.897	481.44
786.079	520.35
786.26	430.24
786.441	491.68
786.623	424.1
786.804	372.9
786.985	440.48
787.167	417.96
787.348	368.81
787.529	458.92
787.71	479.4
787.891	424.1
788.073	393.38
788.254	374.95
788.435	336.04
788.616	438.44
788.797	391.33
788.978	366.76
789.159	379.04
789.34	364.71
789.522	315.56
789.703	364.71
789.884	303.27
790.065	413.86
790.246	323.75
790.427	327.85
790.607	352.42
790.788	342.18
790.969	329.89
791.15	348.33
791.331	403.62
791.512	327.85
791.693	241.83
791.874	315.56
792.054	348.33
792.235	340.13
792.416	315.56
792.597	364.71
792.778	348.33
792.958	331.94
793.139	344.23
793.32	229.54
793.5	266.41
793.681	340.13
793.862	315.56
794.042	327.85
794.223	319.65
794.404	282.79
794.584	297.13
794.765	290.98
794.945	278.69
795.126	290.98
795.306	315.56
795.487	250.02
795.667	245.93
795.848	309.41
796.028	282.79
796.209	245.93
796.389	235.69
796.57	258.21
796.75	323.75
796.93	307.37
797.111	213.16
797.291	307.37
797.471	250.02
797.652	315.56
797.832	229.54
798.012	290.98
798.192	295.08
798.373	270.5
798.553	360.61
798.733	333.99
798.913	293.03
799.093	225.45
799.274	207.02
799.454	286.89
799.634	327.85
799.814	284.84
799.994	280.74
800.174	266.41
800.354	225.45
800.534	188.58
800.714	258.21
800.894	274.6
801.074	241.83
801.254	254.12
801.434	213.16
801.614	266.41
801.794	254.12
801.974	872.61
802.154	194.73
802.334	190.63
802.514	192.68
802.693	252.07
802.873	192.68
803.053	159.91
803.233	200.87
803.413	276.65
803.592	188.58
803.772	266.41
803.952	174.25
804.131	194.73
804.311	202.92
804.491	213.16
804.67	233.64
804.85	176.3
805.03	266.41
805.209	315.56
805.389	209.06
805.568	235.69
805.748	194.73
805.928	301.22
806.107	250.02
806.287	250.02
806.466	184.49
806.646	166.06
806.825	209.06
807.004	217.26
807.184	233.64
807.363	219.3
807.543	164.01
807.722	170.15
807.901	221.35
808.081	225.45
808.26	202.92
808.439	211.11
808.619	186.54
808.798	227.5
808.977	153.77
809.156	272.55
809.336	164.01
809.515	194.73
809.694	202.92
809.873	139.43
810.052	157.86
810.231	77.99
810.411	235.69
810.59	233.64
810.769	94.38
810.948	188.58
811.127	161.96
811.306	192.68
811.485	178.34
811.664	217.26
811.843	180.39
812.022	153.77
812.201	149.67
812.38	184.49
812.559	133.29
812.737	204.97
812.916	112.81
813.095	176.3
813.274	221.35
813.453	141.48
813.632	135.34
813.811	202.92
813.989	157.86
814.168	180.39
814.347	47.27
814.526	135.34
814.704	198.82
814.883	213.16
815.062	188.58
815.24	127.14
815.419	63.66
815.598	176.3
815.776	155.82
815.955	123.05
816.133	49.32
816.312	139.43
816.49	127.14
816.669	151.72
816.847	151.72
817.026	155.82
817.204	182.44
817.383	147.62
817.561	63.66
817.74	100.52
817.918	110.76
818.097	188.58
818.275	123.05
818.453	121
818.632	129.19
818.81	168.1
818.988	86.19
819.167	94.38
819.345	84.14
819.523	147.62
819.701	96.43
819.879	188.58
820.058	114.86
820.236	155.82
820.414	104.62
820.592	94.38
820.77	139.43
820.948	118.95
821.127	121
821.305	123.05
821.483	86.19
821.661	110.76
821.839	98.47
822.017	129.19
822.195	108.71
822.373	80.04
822.551	112.81
822.729	104.62
822.907	116.9
823.085	161.96
823.262	118.95
823.44	145.58
823.618	86.19
823.796	129.19
823.974	100.52
824.152	73.9
824.329	143.53
824.507	129.19
824.685	135.34
824.863	30.89
825.04	217.26
825.218	86.19
825.396	166.06
825.574	131.24
825.751	77.99
825.929	157.86
826.107	137.38
826.284	61.61
826.462	153.77
826.639	94.38
826.817	104.62
826.994	77.99
827.172	37.03
827.349	73.9
827.527	90.28
827.704	102.57
827.882	69.8
828.059	12.46
828.237	110.76
828.414	151.72
828.591	90.28
828.769	86.19
828.946	121
829.124	63.66
829.301	98.47
829.478	178.34
829.655	135.34
829.833	114.86
830.01	2.22
830.187	80.04
830.364	80.04
830.542	118.95
830.719	133.29
830.896	37.03
831.073	90.28
831.25	86.19
831.427	143.53
831.604	49.32
831.782	51.37
831.959	71.85
832.136	100.52
832.313	-3.93
832.49	45.23
832.667	141.48
832.844	80.04
833.021	55.47
833.198	139.43
833.374	45.23
833.551	63.66
833.728	4.27
833.905	155.82
834.082	69.8
834.259	-8.02
834.436	135.34
834.612	57.51
834.789	88.23
834.966	37.03
835.143	63.66
835.319	41.13
835.496	75.95
835.673	39.08
835.85	90.28
836.026	71.85
836.203	96.43
836.38	59.56
836.556	104.62
836.733	73.9
836.909	53.42
837.086	77.99
837.262	73.9
837.439	73.9
837.616	155.82
837.792	77.99
837.968	90.28
838.145	-8.02
838.321	24.75
838.498	121
838.674	65.71
838.851	92.33
839.027	49.32
839.203	57.51
839.38	61.61
839.556	86.19
839.732	102.57
839.909	43.18
840.085	112.81
840.261	-55.12
840.437	131.24
840.614	80.04
840.79	133.29
840.966	137.38
841.142	102.57
841.318	108.71
841.494	30.89
841.671	92.33
841.847	121
842.023	118.95
842.199	123.05
842.375	131.24
842.551	77.99
842.727	-26.45
842.903	61.61
843.079	137.38
843.255	90.28
843.431	88.23
843.607	80.04
843.783	30.89
843.959	53.42
844.134	12.46
844.31	32.94
844.486	67.75
844.662	110.76
844.838	88.23
845.013	63.66
845.189	75.95
845.365	84.14
845.541	102.57
845.716	94.38
845.892	96.43
846.068	61.61
846.244	73.9
846.419	37.03
846.595	28.84
846.77	37.03
846.946	61.61
847.122	143.53
847.297	57.51
847.473	94.38
847.648	-20.31
847.824	123.05
847.999	28.84
848.175	37.03
848.35	65.71
848.526	86.19
848.701	12.46
848.876	18.6
849.052	47.27
849.227	80.04
849.403	61.61
849.578	88.23
849.753	80.04
849.929	65.71
850.104	43.18
850.279	77.99
850.454	86.19
850.63	94.38
850.805	53.42
850.98	127.14
851.155	55.47
851.33	80.04
851.505	-36.69
851.681	90.28
851.856	8.36
852.031	94.38
852.206	37.03
852.381	63.66
852.556	14.51
852.731	86.19
852.906	80.04
853.081	-3.93
853.256	47.27
853.431	53.42
853.606	43.18
853.781	12.46
853.956	-8.02
854.131	32.94
854.305	77.99
854.48	51.37
854.655	30.89
854.83	37.03
855.005	55.47
855.18	102.57
855.354	118.95
855.529	63.66
855.704	-8.02
855.879	41.13
856.053	0.17
856.228	61.61
856.403	57.51
856.577	110.76
856.752	26.79
856.926	16.55
857.101	98.47
857.276	49.32
857.45	45.23
857.625	41.13
857.799	-1.88
857.974	28.84
858.148	20.65
858.323	57.51
858.497	-1.88
858.672	-8.02
858.846	71.85
859.02	92.33
859.195	-36.69
859.369	18.6
859.543	61.61
859.718	-8.02
859.892	24.75
860.066	45.23
860.241	14.51
860.415	-40.79
860.589	43.18
860.763	57.51
860.938	10.41
861.112	121
861.286	24.75
861.46	94.38
861.634	24.75
861.808	14.51
861.982	8.36
862.157	39.08
862.331	59.56
862.505	43.18
862.679	43.18
862.853	-36.69
863.027	-3.93
863.201	135.34
863.375	30.89
863.549	-32.6
863.722	100.52
863.896	61.61
864.07	37.03
864.244	55.47
864.418	69.8
864.592	63.66
864.766	16.55
864.939	77.99
865.113	-57.17
865.287	-44.88
865.461	41.13
865.634	-24.4
865.808	96.43
865.982	96.43
866.156	-18.26
866.329	45.23
866.503	41.13
866.676	86.19
866.85	86.19
867.024	80.04
867.197	53.42
867.371	39.08
867.544	37.03
867.718	2.22
867.891	75.95
868.065	2.22
868.238	-26.45
868.412	59.56
868.585	71.85
868.759	24.75
868.932	-22.36
869.105	-30.55
869.279	45.23
869.452	71.85
869.625	24.75
869.799	53.42
869.972	-77.65
870.145	96.43
870.319	14.51
870.492	12.46
870.665	20.65
870.838	28.84
871.011	28.84
871.185	49.32
871.358	45.23
871.531	102.57
871.704	45.23
871.877	-12.12
872.05	4.27
872.223	-20.31
872.396	22.7
872.569	51.37
872.742	41.13
872.915	77.99
873.088	0.17
873.261	-12.12
873.434	41.13
873.607	20.65
873.78	102.57
873.953	12.46
874.126	-20.31
874.299	20.65
874.471	-57.17
874.644	73.9
874.817	147.62
874.99	86.19
875.163	-5.97
875.335	41.13
875.508	84.14
875.681	94.38
875.853	-28.5
876.026	49.32
876.199	45.23
876.371	6.31
876.544	-81.75
876.717	55.47
876.889	-26.45
877.062	49.32
877.234	20.65
877.407	16.55
877.579	-61.27
877.752	43.18
877.924	45.23
878.097	135.34
878.269	-46.93
878.442	94.38
878.614	57.51
878.786	34.99
878.959	28.84
879.131	37.03
879.303	-10.07
879.476	30.89
879.648	57.51
879.82	53.42
879.993	-20.31
880.165	47.27
880.337	-40.79
880.509	112.81
880.681	65.71
880.854	32.94
881.026	90.28
881.198	75.95
881.37	-32.6
881.542	6.31
881.714	-18.26
881.886	30.89
882.058	14.51
882.23	69.8
882.402	-16.21
882.574	20.65
882.746	63.66
882.918	45.23
883.09	-1.88
883.262	110.76
883.434	28.84
883.606	-16.21
883.778	18.6
883.95	34.99
884.122	22.7
884.293	22.7
884.465	51.37
884.637	51.37
884.809	-28.5
884.98	24.75
885.152	12.46
885.324	-24.4
885.496	-28.5
885.667	-18.26
885.839	-5.97
886.011	59.56
886.182	39.08
886.354	32.94
886.525	32.94
886.697	61.61
886.869	14.51
887.04	32.94
887.212	125.1
887.383	47.27
887.555	32.94
887.726	30.89
887.897	2.22
888.069	22.7
888.24	94.38
888.412	47.27
888.583	37.03
888.754	28.84
888.926	-44.88
889.097	88.23
889.268	-18.26
889.44	-8.02
889.611	-3.93
889.782	-3.93
889.953	123.05
890.125	37.03
890.296	4.27
890.467	34.99
890.638	32.94
890.809	28.84
890.98	-18.26
891.151	-55.12
891.323	61.61
891.494	6.31
891.665	-59.22
891.836	61.61
892.007	63.66
892.178	-18.26
892.349	-1.88
892.52	20.65
892.691	53.42
892.862	34.99
893.032	-12.12
893.203	28.84
893.374	84.14
893.545	41.13
893.716	41.13
893.887	63.66
894.057	-51.03
894.228	61.61
894.399	-65.36
894.57	61.61
894.74	12.46
894.911	53.42
895.082	-12.12
895.253	-69.46
895.423	6.31
895.594	61.61
895.764	12.46
895.935	37.03
896.106	39.08
896.276	8.36
896.447	20.65
896.617	-55.12
896.788	-3.93
896.958	12.46
897.129	34.99
897.299	-16.21
897.47	43.18
897.64	37.03
897.81	0.17
897.981	73.9
898.151	12.46
898.322	-14.17
898.492	16.55
898.662	45.23
898.832	28.84
899.003	125.1
899.173	43.18
899.343	20.65
899.513	14.51
