Data from USB4F104151__201__14-45-19-929.txt Node

Date: Thu Mar 13 14:45:19 EDT 2025
User: louis
Spectrometer: USB4F10415
Trigger mode: 4
Integration Time (sec): 2.000000E-2
Scans to average: 1
Electric dark correction enabled: true
Nonlinearity correction enabled: false
Boxcar width: 0
XAxis mode: Wavelengths
Number of Pixels in Spectrum: 3648
>>>>>Begin Spectral Data<<<<<
178.204	-185.51
178.424	-185.51
178.644	-185.51
178.864	-128.17
179.084	-95.4
179.304	-68.78
179.524	23.38
179.744	11.09
179.964	43.86
180.184	9.05
180.404	-13.48
180.624	21.33
180.844	-42.15
181.064	-52.39
181.283	21.33
181.503	-13.48
181.723	60.24
181.943	-46.25
182.163	29.52
182.383	11.09
182.602	23.38
182.822	31.57
183.042	56.15
183.262	60.24
183.482	27.48
183.701	-17.58
183.921	-1.19
184.141	-50.35
184.361	35.67
184.58	2.9
184.8	43.86
185.02	-7.34
185.239	23.38
185.459	54.1
185.679	4.95
185.898	23.38
186.118	21.33
186.338	-40.11
186.557	97.11
186.777	-13.48
186.997	23.38
187.216	-38.06
187.436	-3.24
187.655	13.14
187.875	54.1
188.095	-9.39
188.314	19.29
188.534	56.15
188.753	11.09
188.973	17.24
189.192	119.64
189.412	68.44
189.631	45.91
189.851	-25.77
190.07	-5.29
190.29	-38.06
190.509	17.24
190.729	23.38
190.948	45.91
191.168	176.98
191.387	62.29
191.607	23.38
191.826	76.63
192.045	47.96
192.265	13.14
192.484	21.33
192.704	76.63
192.923	-15.53
193.142	136.02
193.362	72.53
193.581	-5.29
193.8	-13.48
194.02	39.76
194.239	-17.58
194.458	33.62
194.678	70.48
194.897	45.91
195.116	-42.15
195.335	86.87
195.555	37.72
195.774	7
195.993	4.95
196.212	-11.43
196.432	11.09
196.651	23.38
196.87	-38.06
197.089	60.24
197.308	56.15
197.528	99.16
197.747	-3.24
197.966	15.19
198.185	-5.29
198.404	-3.24
198.623	45.91
198.842	27.48
199.062	70.48
199.281	93.01
199.5	-9.39
199.719	-44.2
199.938	35.67
200.157	47.96
200.376	-60.59
200.595	111.44
200.814	84.82
201.033	62.29
201.252	29.52
201.471	43.86
201.69	88.92
201.909	2.9
202.128	2.9
202.347	47.96
202.566	-19.63
202.785	21.33
203.004	52.05
203.223	52.05
203.442	-29.87
203.661	-1.19
203.879	15.19
204.098	52.05
204.317	-27.82
204.536	35.67
204.755	4.95
204.974	45.91
205.193	13.14
205.411	88.92
205.63	93.01
205.849	-38.06
206.068	27.48
206.287	27.48
206.505	54.1
206.724	68.44
206.943	-87.21
207.162	19.29
207.381	29.52
207.599	29.52
207.818	43.86
208.037	31.57
208.255	-95.4
208.474	43.86
208.693	27.48
208.911	7
209.13	2.9
209.349	2.9
209.567	-11.43
209.786	52.05
210.005	35.67
210.223	29.52
210.442	-38.06
210.661	29.52
210.879	29.52
211.098	23.38
211.316	15.19
211.535	21.33
211.753	-9.39
211.972	45.91
212.191	58.2
212.409	58.2
212.628	60.24
212.846	-38.06
213.065	7
213.283	60.24
213.502	27.48
213.72	-27.82
213.938	47.96
214.157	13.14
214.375	33.62
214.594	-38.06
214.812	76.63
215.031	25.43
215.249	47.96
215.467	25.43
215.686	-38.06
215.904	-25.77
216.122	64.34
216.341	52.05
216.559	74.58
216.778	39.76
216.996	58.2
217.214	33.62
217.432	70.48
217.651	0.85
217.869	88.92
218.087	-7.34
218.306	-46.25
218.524	56.15
218.742	-29.87
218.96	29.52
219.179	-9.39
219.397	-19.63
219.615	35.67
219.833	35.67
220.051	11.09
220.27	68.44
220.488	31.57
220.706	93.01
220.924	19.29
221.142	-36.01
221.36	35.67
221.578	50
221.796	43.86
222.015	-9.39
222.233	31.57
222.451	-27.82
222.669	52.05
222.887	23.38
223.105	4.95
223.323	43.86
223.541	35.67
223.759	56.15
223.977	13.14
224.195	60.24
224.413	-44.2
224.631	84.82
224.849	15.19
225.067	-5.29
225.285	19.29
225.503	54.1
225.721	-19.63
225.939	-9.39
226.157	-44.2
226.375	117.59
226.592	-5.29
226.81	-27.82
227.028	21.33
227.246	37.72
227.464	-70.83
227.682	21.33
227.9	97.11
228.117	-5.29
228.335	19.29
228.553	27.48
228.771	2.9
228.989	15.19
229.206	13.14
229.424	-27.82
229.642	-52.39
229.86	2.9
230.077	-11.43
230.295	43.86
230.513	17.24
230.731	66.39
230.948	35.67
231.166	45.91
231.384	-13.48
231.601	15.19
231.819	21.33
232.037	88.92
232.254	23.38
232.472	23.38
232.689	23.38
232.907	117.59
233.125	-17.58
233.342	23.38
233.56	-50.35
233.777	2.9
233.995	21.33
234.213	56.15
234.43	-38.06
234.648	23.38
234.865	-1.19
235.083	-3.24
235.3	17.24
235.518	-19.63
235.735	111.44
235.953	9.05
236.17	2.9
236.388	4.95
236.605	64.34
236.822	-52.39
237.04	7
237.257	-17.58
237.475	43.86
237.692	41.81
237.909	-27.82
238.127	27.48
238.344	60.24
238.562	68.44
238.779	33.62
238.996	52.05
239.214	-17.58
239.431	43.86
239.648	-3.24
239.865	11.09
240.083	27.48
240.3	-13.48
240.517	2.9
240.735	54.1
240.952	19.29
241.169	-21.67
241.386	-13.48
241.603	7
241.821	60.24
242.038	41.81
242.255	76.63
242.472	19.29
242.689	52.05
242.907	52.05
243.124	27.48
243.341	76.63
243.558	7
243.775	23.38
243.992	-54.44
244.209	13.14
244.426	60.24
244.643	43.86
244.86	-21.67
245.078	47.96
245.295	80.72
245.512	68.44
245.729	47.96
245.946	88.92
246.163	33.62
246.38	-1.19
246.597	-23.72
246.814	29.52
247.031	-3.24
247.248	27.48
247.464	66.39
247.681	35.67
247.898	62.29
248.115	9.05
248.332	21.33
248.549	25.43
248.766	47.96
248.983	27.48
249.2	-9.39
249.417	54.1
249.633	-48.3
249.85	82.77
250.067	-33.96
250.284	39.76
250.501	2.9
250.717	19.29
250.934	50
251.151	31.57
251.368	-23.72
251.585	37.72
251.801	31.57
252.018	33.62
252.235	95.06
252.451	41.81
252.668	11.09
252.885	-58.54
253.102	-5.29
253.318	-5.29
253.535	2.9
253.752	-17.58
253.968	-17.58
254.185	17.24
254.401	2.9
254.618	23.38
254.835	-36.01
255.051	111.44
255.268	39.76
255.484	-60.59
255.701	35.67
255.917	-9.39
256.134	35.67
256.351	52.05
256.567	2.9
256.784	13.14
257	-76.97
257.217	11.09
257.433	56.15
257.65	127.83
257.866	58.2
258.082	-19.63
258.299	-23.72
258.515	56.15
258.732	47.96
258.948	19.29
259.165	47.96
259.381	13.14
259.597	-13.48
259.814	2.9
260.03	4.95
260.246	19.29
260.463	21.33
260.679	64.34
260.895	76.63
261.112	27.48
261.328	80.72
261.544	-21.67
261.761	93.01
261.977	23.38
262.193	-23.72
262.409	27.48
262.626	90.96
262.842	21.33
263.058	11.09
263.274	4.95
263.49	41.81
263.707	11.09
263.923	56.15
264.139	11.09
264.355	54.1
264.571	52.05
264.787	27.48
265.004	41.81
265.22	-3.24
265.436	103.25
265.652	29.52
265.868	-25.77
266.084	-21.67
266.3	-21.67
266.516	-9.39
266.732	11.09
266.948	-3.24
267.164	21.33
267.38	21.33
267.596	29.52
267.812	52.05
268.028	101.2
268.244	-29.87
268.46	11.09
268.676	-1.19
268.892	31.57
269.108	-33.96
269.324	35.67
269.54	-36.01
269.756	21.33
269.972	-5.29
270.188	7
270.403	-3.24
270.619	86.87
270.835	2.9
271.051	2.9
271.267	-3.24
271.483	17.24
271.698	76.63
271.914	0.85
272.13	68.44
272.346	-19.63
272.562	23.38
272.777	35.67
272.993	-76.97
273.209	7
273.425	19.29
273.64	-9.39
273.856	2.9
274.072	-17.58
274.287	9.05
274.503	60.24
274.719	-29.87
274.934	29.52
275.15	27.48
275.366	31.57
275.581	-1.19
275.797	19.29
276.012	-11.43
276.228	43.86
276.444	76.63
276.659	58.2
276.875	-1.19
277.09	-3.24
277.306	37.72
277.521	47.96
277.737	27.48
277.952	45.91
278.168	39.76
278.383	47.96
278.599	19.29
278.814	158.55
279.03	19.29
279.245	33.62
279.461	4.95
279.676	62.29
279.892	29.52
280.107	11.09
280.322	-13.48
280.538	41.81
280.753	-9.39
280.969	97.11
281.184	29.52
281.399	0.85
281.615	50
281.83	25.43
282.045	-66.73
282.26	-38.06
282.476	72.53
282.691	29.52
282.906	-9.39
283.122	2.9
283.337	74.58
283.552	68.44
283.767	-38.06
283.983	11.09
284.198	-33.96
284.413	78.68
284.628	-25.77
284.843	60.24
285.058	50
285.274	-29.87
285.489	35.67
285.704	23.38
285.919	19.29
286.134	-44.2
286.349	11.09
286.564	37.72
286.779	125.78
286.995	-3.24
287.21	4.95
287.425	90.96
287.64	-15.53
287.855	35.67
288.07	11.09
288.285	95.06
288.5	13.14
288.715	39.76
288.93	-19.63
289.145	4.95
289.36	9.05
289.575	93.01
289.79	72.53
290.004	35.67
290.219	68.44
290.434	-19.63
290.649	27.48
290.864	-31.91
291.079	-21.67
291.294	88.92
291.509	11.09
291.724	-44.2
291.938	0.85
292.153	-38.06
292.368	13.14
292.583	-62.63
292.798	101.2
293.012	70.48
293.227	15.19
293.442	-58.54
293.657	-27.82
293.871	-3.24
294.086	-36.01
294.301	95.06
294.516	-13.48
294.73	-36.01
294.945	15.19
295.16	-13.48
295.374	37.72
295.589	41.81
295.804	47.96
296.018	29.52
296.233	117.59
296.447	78.68
296.662	-50.35
296.877	33.62
297.091	62.29
297.306	41.81
297.52	41.81
297.735	29.52
297.949	2.9
298.164	0.85
298.378	13.14
298.593	2.9
298.807	-5.29
299.022	86.87
299.236	50
299.451	-50.35
299.665	-21.67
299.88	43.86
300.094	35.67
300.309	27.48
300.523	11.09
300.737	35.67
300.952	4.95
301.166	19.29
301.381	-3.24
301.595	68.44
301.809	80.72
302.024	-1.19
302.238	-23.72
302.452	52.05
302.667	-50.35
302.881	19.29
303.095	-5.29
303.309	7
303.524	-3.24
303.738	4.95
303.952	35.67
304.166	31.57
304.381	-5.29
304.595	68.44
304.809	90.96
305.023	7
305.237	4.95
305.452	31.57
305.666	11.09
305.88	70.48
306.094	9.05
306.308	-11.43
306.522	19.29
306.736	64.34
306.95	9.05
307.164	72.53
307.379	-54.44
307.593	82.77
307.807	37.72
308.021	60.24
308.235	-1.19
308.449	-48.3
308.663	27.48
308.877	-25.77
309.091	43.86
309.305	56.15
309.519	35.67
309.733	88.92
309.947	37.72
310.161	-1.19
310.374	80.72
310.588	39.76
310.802	-21.67
311.016	17.24
311.23	47.96
311.444	-68.78
311.658	68.44
311.872	60.24
312.085	70.48
312.299	105.3
312.513	13.14
312.727	-15.53
312.941	43.86
313.154	60.24
313.368	-58.54
313.582	72.53
313.796	-25.77
314.009	58.2
314.223	93.01
314.437	-5.29
314.651	31.57
314.864	23.38
315.078	13.14
315.292	-21.67
315.505	-13.48
315.719	64.34
315.933	21.33
316.146	4.95
316.36	84.82
316.573	70.48
316.787	2.9
317.001	-19.63
317.214	13.14
317.428	35.67
317.641	43.86
317.855	43.86
318.068	64.34
318.282	62.29
318.495	11.09
318.709	62.29
318.922	52.05
319.136	113.49
319.349	35.67
319.563	29.52
319.776	33.62
319.99	-13.48
320.203	62.29
320.417	31.57
320.63	-38.06
320.843	93.01
321.057	-9.39
321.27	-54.44
321.483	37.72
321.697	31.57
321.91	19.29
322.124	86.87
322.337	37.72
322.55	13.14
322.763	-52.39
322.977	13.14
323.19	19.29
323.403	54.1
323.617	23.38
323.83	13.14
324.043	35.67
324.256	29.52
324.469	52.05
324.683	47.96
324.896	45.91
325.109	45.91
325.322	2.9
325.535	101.2
325.748	-21.67
325.962	-25.77
326.175	27.48
326.388	13.14
326.601	31.57
326.814	-46.25
327.027	4.95
327.24	45.91
327.453	64.34
327.666	29.52
327.879	19.29
328.092	52.05
328.305	23.38
328.518	72.53
328.731	35.67
328.944	7
329.157	70.48
329.37	70.48
329.583	39.76
329.796	86.87
330.009	-19.63
330.222	125.78
330.435	27.48
330.648	50
330.861	35.67
331.073	78.68
331.286	76.63
331.499	-33.96
331.712	13.14
331.925	41.81
332.138	-33.96
332.35	70.48
332.563	-36.01
332.776	95.06
332.989	11.09
333.202	35.67
333.414	-7.34
333.627	2.9
333.84	-19.63
334.053	23.38
334.265	-23.72
334.478	23.38
334.691	43.86
334.903	105.3
335.116	29.52
335.329	60.24
335.541	19.29
335.754	60.24
335.966	62.29
336.179	2.9
336.392	50
336.604	-42.15
336.817	54.1
337.029	101.2
337.242	-56.49
337.454	123.73
337.667	62.29
337.88	37.72
338.092	-1.19
338.305	11.09
338.517	-33.96
338.729	31.57
338.942	39.76
339.154	-5.29
339.367	15.19
339.579	101.2
339.792	60.24
340.004	39.76
340.217	-5.29
340.429	21.33
340.641	-64.68
340.854	70.48
341.066	-46.25
341.278	27.48
341.491	121.68
341.703	23.38
341.915	-23.72
342.128	88.92
342.34	-9.39
342.552	29.52
342.764	50
342.977	-1.19
343.189	35.67
343.401	45.91
343.613	-5.29
343.826	52.05
344.038	-21.67
344.25	2.9
344.462	52.05
344.674	95.06
344.886	52.05
345.099	47.96
345.311	35.67
345.523	41.81
345.735	-46.25
345.947	-5.29
346.159	136.02
346.371	35.67
346.583	43.86
346.795	47.96
347.007	35.67
347.219	35.67
347.431	45.91
347.643	-70.83
347.855	54.1
348.067	23.38
348.279	2.9
348.491	-25.77
348.703	35.67
348.915	31.57
349.127	27.48
349.339	31.57
349.551	45.91
349.763	78.68
349.975	66.39
350.187	35.67
350.399	56.15
350.61	54.1
350.822	-1.19
351.034	52.05
351.246	138.07
351.458	117.59
351.669	50
351.881	-9.39
352.093	41.81
352.305	72.53
352.517	109.4
352.728	123.73
352.94	-13.48
353.152	43.86
353.363	29.52
353.575	95.06
353.787	93.01
353.999	2.9
354.21	27.48
354.422	13.14
354.633	-21.67
354.845	78.68
355.057	27.48
355.268	-29.87
355.48	45.91
355.692	21.33
355.903	109.4
356.115	4.95
356.326	7
356.538	37.72
356.749	95.06
356.961	70.48
357.172	29.52
357.384	37.72
357.595	74.58
357.807	2.9
358.018	-11.43
358.23	27.48
358.441	47.96
358.653	88.92
358.864	31.57
359.075	19.29
359.287	88.92
359.498	-25.77
359.709	37.72
359.921	31.57
360.132	39.76
360.344	111.44
360.555	0.85
360.766	109.4
360.977	15.19
361.189	125.78
361.4	-38.06
361.611	-19.63
361.823	84.82
362.034	88.92
362.245	11.09
362.456	9.05
362.667	60.24
362.879	56.15
363.09	4.95
363.301	13.14
363.512	64.34
363.723	27.48
363.935	52.05
364.146	62.29
364.357	-15.53
364.568	93.01
364.779	-38.06
364.99	101.2
365.201	-48.3
365.412	2.9
365.623	21.33
365.834	47.96
366.045	35.67
366.256	86.87
366.467	64.34
366.678	84.82
366.889	2.9
367.1	35.67
367.311	45.91
367.522	4.95
367.733	125.78
367.944	60.24
368.155	-19.63
368.366	62.29
368.577	52.05
368.788	52.05
368.999	-3.24
369.209	27.48
369.42	84.82
369.631	95.06
369.842	60.24
370.053	80.72
370.264	43.86
370.474	39.76
370.685	86.87
370.896	-29.87
371.107	95.06
371.317	27.48
371.528	7
371.739	60.24
371.95	148.31
372.16	21.33
372.371	-21.67
372.582	31.57
372.792	37.72
373.003	52.05
373.214	64.34
373.424	70.48
373.635	7
373.846	109.4
374.056	37.72
374.267	19.29
374.477	68.44
374.688	4.95
374.898	95.06
375.109	52.05
375.319	68.44
375.53	19.29
375.74	109.4
375.951	43.86
376.161	66.39
376.372	31.57
376.582	-5.29
376.793	72.53
377.003	-38.06
377.214	29.52
377.424	68.44
377.635	50
377.845	31.57
378.055	-13.48
378.266	35.67
378.476	31.57
378.686	80.72
378.897	39.76
379.107	19.29
379.317	13.14
379.528	78.68
379.738	62.29
379.948	21.33
380.158	113.49
380.369	60.24
380.579	52.05
380.789	58.2
380.999	99.16
381.21	62.29
381.42	78.68
381.63	25.43
381.84	76.63
382.05	123.73
382.261	164.69
382.471	13.14
382.681	27.48
382.891	56.15
383.101	29.52
383.311	56.15
383.521	13.14
383.731	35.67
383.941	99.16
384.151	86.87
384.361	35.67
384.571	111.44
384.781	84.82
384.991	78.68
385.201	119.64
385.411	19.29
385.621	72.53
385.831	43.86
386.041	45.91
386.251	27.48
386.461	129.88
386.671	88.92
386.881	60.24
387.091	97.11
387.301	103.25
387.511	23.38
387.72	13.14
387.93	72.53
388.14	-74.92
388.35	105.3
388.56	64.34
388.769	66.39
388.979	47.96
389.189	68.44
389.399	13.14
389.609	86.87
389.818	74.58
390.028	62.29
390.238	35.67
390.447	45.91
390.657	2.9
390.867	60.24
391.076	-13.48
391.286	78.68
391.496	78.68
391.705	13.14
391.915	62.29
392.125	88.92
392.334	35.67
392.544	35.67
392.753	74.58
392.963	-3.24
393.172	56.15
393.382	62.29
393.591	95.06
393.801	45.91
394.01	129.88
394.22	62.29
394.429	150.36
394.639	11.09
394.848	21.33
395.058	93.01
395.267	17.24
395.477	76.63
395.686	101.2
395.895	166.74
396.105	162.64
396.314	39.76
396.524	90.96
396.733	17.24
396.942	125.78
397.152	133.97
397.361	101.2
397.57	150.36
397.78	117.59
397.989	68.44
398.198	152.4
398.407	54.1
398.617	158.55
398.826	129.88
399.035	60.24
399.244	80.72
399.453	82.77
399.663	111.44
399.872	142.16
400.081	103.25
400.29	125.78
400.499	84.82
400.708	62.29
400.917	74.58
401.127	101.2
401.336	43.86
401.545	197.46
401.754	166.74
401.963	203.6
402.172	95.06
402.381	117.59
402.59	117.59
402.799	72.53
403.008	199.51
403.217	109.4
403.426	119.64
403.635	35.67
403.844	133.97
404.053	117.59
404.262	105.3
404.471	156.5
404.68	78.68
404.888	129.88
405.097	146.26
405.306	125.78
405.515	224.08
405.724	93.01
405.933	113.49
406.142	142.16
406.35	205.65
406.559	172.88
406.768	187.22
406.977	219.99
407.185	168.79
407.394	174.93
407.603	179.03
407.812	314.19
408.02	222.03
408.229	211.79
408.438	189.27
408.646	242.51
408.855	248.66
409.064	275.28
409.272	269.14
409.481	254.8
409.69	224.08
409.898	226.13
410.107	371.54
410.315	306
410.524	238.42
410.733	394.06
410.941	215.89
411.15	439.12
411.358	375.63
411.567	416.59
411.775	322.38
411.984	314.19
412.192	428.88
412.401	486.22
412.609	516.94
412.818	453.45
413.026	478.03
413.234	516.94
413.443	494.41
413.651	564.04
413.86	576.33
414.068	598.86
414.276	662.35
414.485	637.77
414.693	568.14
414.901	740.17
415.11	715.59
415.318	731.98
415.526	811.85
415.734	801.61
415.943	826.18
416.151	844.62
416.359	895.82
416.567	979.78
416.776	904.01
416.984	1004.36
417.192	959.3
417.4	1018.69
417.608	1049.41
417.817	1028.93
418.025	1041.22
418.233	1168.2
418.441	1071.94
418.649	1233.73
418.857	1258.31
419.065	1313.6
419.273	1364.8
419.481	1325.89
419.689	1364.8
419.897	1512.25
420.105	1592.13
420.313	1682.24
420.521	1682.24
420.729	1735.48
420.937	1706.81
421.145	1796.92
421.353	1874.74
421.561	2050.87
421.769	2020.15
421.977	2100.02
422.185	2048.82
422.393	2202.42
422.601	2353.97
422.809	2450.22
423.017	2394.93
423.224	2444.08
423.432	2566.96
423.64	2644.78
423.848	2730.8
424.056	2710.32
424.263	2878.25
424.471	2831.15
424.679	3033.9
424.887	2943.78
425.094	3222.31
425.302	3238.69
425.51	3398.43
425.718	3427.11
425.925	3574.56
426.133	3619.61
426.341	3812.12
426.548	3926.81
426.756	4203.29
426.964	4090.65
427.171	4156.18
427.379	4313.88
427.586	4395.79
427.794	4553.49
428.001	4934.41
428.209	5063.43
428.417	4893.45
428.624	5231.37
428.832	5231.37
429.039	5294.85
429.247	5282.56
429.454	5765.89
429.662	6159.1
429.869	5618.43
430.076	6271.73
430.284	6050.55
430.491	6339.32
430.699	6499.06
430.906	6525.68
431.114	6718.19
431.321	6828.78
431.528	7129.83
431.736	7584.48
431.943	7920.35
432.15	7645.92
432.358	7774.94
432.565	8377.05
432.772	8059.61
432.979	8585.94
433.187	8798.93
433.394	8829.65
433.601	9341.64
433.808	9493.19
434.016	9272.01
434.223	9761.47
434.43	10252.98
434.637	10201.79
434.844	10775.22
435.052	10988.21
435.259	10760.88
435.466	10932.91
435.673	10687.15
435.88	11242.15
436.087	12047.01
436.294	12309.15
436.501	11852.45
436.708	11936.42
436.915	12446.36
437.122	13038.22
437.329	12997.26
437.537	13382.28
437.743	13795.97
437.95	13752.96
438.157	14432.89
438.364	14846.58
438.571	14602.87
438.778	14682.74
438.985	15970.91
439.192	15641.19
439.399	15985.25
439.606	15696.49
439.813	16652.89
440.02	17437.26
440.227	17148.5
440.433	17013.33
440.64	17519.18
440.847	17578.57
441.054	17977.92
441.261	18932.28
441.467	18631.23
441.674	19421.74
441.881	20159.01
442.088	19892.77
442.294	19747.37
442.501	20353.57
442.708	20539.93
442.914	21369.36
443.121	22475.26
443.328	21838.34
443.534	23484.91
443.741	22608.38
443.948	22215.17
444.154	24087.01
444.361	23859.69
444.568	23806.44
444.774	24080.87
444.981	24386.02
445.187	24857.05
445.394	26130.89
445.6	25842.12
445.807	28289.45
446.013	27191.73
446.22	27476.4
446.426	28551.59
446.633	29047.19
446.839	29913.48
447.046	28717.47
447.252	30503.3
447.459	30355.85
447.665	30200.2
447.871	31631.73
448.078	33038.69
448.284	31334.78
448.491	32471.4
448.697	33442.14
448.903	33986.89
449.11	34218.32
449.316	33575.25
449.522	34038.09
449.728	35258.68
449.935	35612.98
450.141	35555.64
450.347	36604.2
450.553	34971.97
450.76	35555.64
450.966	37017.89
451.172	36518.18
451.378	37472.54
451.584	36940.07
451.791	37779.73
451.997	37302.56
452.203	38248.72
452.409	38426.89
452.615	38289.68
452.821	36890.91
453.027	36358.44
453.233	38508.81
453.44	36688.17
453.646	37411.1
453.852	37421.34
454.058	38025.49
454.264	36776.23
454.47	37794.07
454.676	36964.64
454.882	38002.96
455.088	34996.54
455.294	35305.79
455.5	36227.37
455.705	36190.51
455.911	34758.98
456.117	34298.19
456.323	33806.67
456.529	32127.34
456.735	33528.15
456.941	32584.04
457.147	32057.71
457.352	31641.97
457.558	30951.81
457.764	30876.03
457.97	30833.02
458.176	29903.25
458.381	29686.16
458.587	28279.21
458.793	28334.5
458.999	26837.44
459.204	29225.37
459.41	28295.59
459.616	26503.62
459.821	26591.68
460.027	26487.23
460.233	25893.32
460.438	24627.68
460.644	24918.49
460.85	23833.07
461.055	23220.72
461.261	23179.76
461.466	21600.78
461.672	20965.91
461.878	22436.35
462.083	21170.71
462.289	20558.36
462.494	20404.77
462.7	19262
462.905	18913.84
463.111	20007.46
463.316	19851.81
463.522	19335.73
463.727	19257.9
463.932	19503.66
464.138	18967.09
464.343	19296.81
464.549	18655.8
464.754	19257.9
464.959	19182.13
465.165	18928.18
465.37	18164.29
465.575	17771.08
465.781	18520.63
465.986	18487.87
466.191	17742.41
466.397	17504.84
466.602	16601.69
466.807	17363.53
467.012	17472.07
467.218	17226.32
467.423	16818.77
467.628	17185.36
467.833	17764.93
468.038	17134.16
468.244	16773.72
468.449	17259.09
468.654	16898.64
468.859	16482.91
469.064	16611.93
469.269	15964.77
469.474	16218.72
469.679	16575.06
469.885	15802.98
470.09	16165.47
470.295	16020.06
470.5	15813.22
470.705	15774.31
470.91	15403.63
471.115	15438.44
471.32	15682.15
471.525	15651.43
471.73	15211.12
471.935	15211.12
472.139	14533.24
472.344	14883.44
472.549	14625.4
472.754	14547.58
472.959	14129.79
473.164	13939.33
473.369	13724.29
473.574	14291.58
473.778	13789.83
473.983	13884.03
474.188	14000.77
474.393	13388.43
474.598	13453.96
474.802	13159.05
475.007	12898.96
475.212	13257.36
475.417	12589.72
475.621	12475.03
475.826	12513.94
476.031	12259.99
476.235	12090.01
476.44	12368.54
476.645	12118.68
476.849	12075.68
477.054	12024.48
477.259	11801.25
477.463	11840.16
477.668	11643.56
477.872	11776.67
478.077	11442.85
478.282	11287.21
478.486	11090.6
478.691	11180.71
478.895	11063.98
479.1	10900.14
479.304	10865.33
479.509	10621.62
479.713	11029.17
479.918	10506.93
480.122	10386.1
480.326	10586.8
480.531	10754.74
480.735	10504.89
480.94	10332.86
481.144	10887.86
481.348	10351.29
481.553	10420.92
481.757	10062.52
481.961	10154.68
482.166	10513.08
482.37	10513.08
482.574	10169.02
482.778	10242.75
482.983	10289.85
483.187	10320.57
483.391	10201.79
483.595	10187.45
483.8	9935.55
484.004	10214.07
484.208	10283.7
484.412	10185.4
484.616	10457.78
484.821	10334.9
485.025	10029.76
485.229	10396.34
485.433	10089.15
485.637	10322.62
485.841	10144.44
486.045	10025.66
486.249	10154.68
486.453	10119.87
486.657	10121.91
486.861	10222.27
487.065	9829.06
487.269	10166.97
487.473	9986.75
487.677	10179.26
487.881	10312.38
488.085	10328.76
488.289	10144.44
488.493	10097.34
488.697	10295.99
488.901	10275.51
489.105	10330.81
489.309	10371.77
489.512	10406.58
489.716	10308.28
489.92	10422.97
490.124	10345.14
490.328	10638
490.531	10451.64
490.735	10484.41
490.939	10734.26
491.143	10439.35
491.346	10580.66
491.55	10889.9
491.754	10666.67
491.958	10760.88
492.161	10818.22
492.365	10711.73
492.569	10676.91
492.772	10795.7
492.976	10973.87
493.18	11324.07
493.383	11066.03
493.587	11266.73
493.79	11449
493.994	11176.62
494.197	11285.16
494.401	11512.49
494.605	11618.98
494.808	11690.66
495.012	11737.76
495.215	11774.63
495.419	11971.23
495.622	11741.86
495.825	11973.28
496.029	12024.48
496.232	12178.08
496.436	12374.68
496.639	12708.5
496.843	12425.88
497.046	12728.98
497.249	12741.27
497.453	12980.88
497.656	13052.56
497.859	13183.63
498.063	13154.96
498.266	13781.64
498.469	13580.93
498.673	13599.37
498.876	13904.51
499.079	14029.44
499.282	14125.69
499.485	14602.87
499.689	14445.18
499.892	14789.24
500.095	14854.77
500.298	15266.41
500.501	15168.11
500.705	15501.93
500.908	15762.02
501.111	15583.85
501.314	16097.89
501.517	16241.25
501.72	16239.2
501.923	16142.94
502.126	16706.13
502.329	17001.04
502.532	16988.75
502.735	17187.41
502.938	17484.36
503.141	17715.78
503.344	17764.93
503.547	18033.22
503.75	18158.14
503.953	18553.4
504.156	18721.34
504.359	18713.14
504.562	18885.17
504.765	19495.47
504.968	19548.72
505.17	19847.72
505.373	19923.49
505.576	20138.53
505.779	20380.19
505.982	20644.38
506.185	21027.35
506.387	21021.2
506.59	21164.56
506.793	21494.29
506.996	21477.9
507.198	22321.66
507.401	22477.31
507.604	22346.24
507.807	22860.28
508.009	23044.6
508.212	23192.05
508.415	23527.92
508.617	24160.74
508.82	24216.04
509.022	23837.16
509.225	24285.67
509.428	24533.47
509.63	25018.84
509.833	25227.73
510.035	25823.69
510.238	25514.45
510.44	25856.46
510.643	26433.99
510.845	26454.47
511.048	26771.9
511.25	27220.41
511.453	27077.05
511.655	28260.77
511.858	27668.91
512.06	27943.34
512.262	28549.54
512.465	28740
512.667	28971.42
512.87	29555.09
513.072	29245.85
513.274	29864.33
513.477	30237.06
513.679	30644.61
513.881	30716.29
514.084	30947.71
514.286	31189.37
514.488	31465.85
514.69	32149.87
514.893	31981.93
515.095	32258.41
515.297	32498.02
515.499	32782.69
515.701	33366.36
515.904	33479
516.106	33657.17
516.308	34169.16
516.51	34578.76
516.712	34746.69
516.914	35203.39
517.116	35707.19
517.318	35592.5
517.52	35635.51
517.722	36458.79
517.925	36569.38
518.127	36909.35
518.329	37456.15
518.531	37450.01
518.733	37941.52
518.935	37902.61
519.136	37914.9
519.338	38535.43
519.54	38801.67
519.742	39231.74
519.944	39418.11
520.146	40253.68
520.348	40288.49
520.55	40349.93
520.752	40747.24
520.954	41779.42
521.155	41189.6
521.357	41654.49
521.559	41806.04
521.761	42651.85
521.963	42526.92
522.164	42516.68
522.366	42901.7
522.568	43374.78
522.77	43583.68
522.971	43923.64
523.173	43913.4
523.375	44105.91
523.576	44155.06
523.778	44535.98
523.98	44824.75
524.181	45269.15
524.383	45361.31
524.584	45768.86
524.786	45736.09
524.988	45684.89
525.189	46272.66
525.391	46553.23
525.592	47020.17
525.794	46743.69
525.995	46710.92
526.197	47143.05
526.398	46993.54
526.6	47327.36
526.801	47478.91
527.003	47577.22
527.204	47759.48
527.406	48144.5
527.607	48482.42
527.808	48861.29
528.01	47759.48
528.211	48609.39
528.412	49307.75
528.614	49111.14
528.815	48965.74
529.016	49332.32
529.218	49166.44
529.419	48982.12
529.62	49545.31
529.822	49389.67
530.023	50094.17
530.224	49616.99
530.425	49537.12
530.626	49115.24
530.828	49567.84
531.029	50204.76
531.23	50110.55
531.431	49786.97
531.632	49948.76
531.833	50501.71
532.035	50065.5
532.236	50051.16
532.437	50182.23
532.638	49635.42
532.839	50516.05
533.04	50331.73
533.241	50184.28
533.442	51052.62
533.643	50518.1
533.844	50270.29
534.045	50946.12
534.246	50704.46
534.447	50876.49
534.648	50337.88
534.849	50489.43
535.05	50262.1
535.251	50626.64
535.451	50765.9
535.652	50675.79
535.853	50706.51
536.054	51060.81
536.255	50679.89
536.456	50339.93
536.657	50974.8
536.857	50425.94
537.058	50341.97
537.259	50944.08
537.46	50765.9
537.66	50368.6
537.861	50985.04
538.062	50683.98
538.263	50839.63
538.463	50679.89
538.664	50671.7
538.865	50741.33
539.065	50716.75
539.266	50198.62
539.466	51187.78
539.667	50290.77
539.868	51214.41
540.068	50741.33
540.269	50587.73
540.469	51021.9
540.67	50561.11
540.87	50718.8
541.071	50690.13
541.271	50872.4
541.472	50874.45
541.672	50210.9
541.873	50499.67
542.073	50329.69
542.274	50987.08
542.474	50694.22
542.675	50438.23
542.875	51181.64
543.075	50460.76
543.276	49840.22
543.476	50751.57
543.676	50335.83
543.877	50722.9
544.077	50587.73
544.277	50298.97
544.478	50487.38
544.678	50618.45
544.878	50137.18
545.078	50118.74
545.279	49776.73
545.479	50200.66
545.679	50282.58
545.879	50124.89
546.079	50319.45
546.28	50141.27
546.48	49848.41
546.68	50534.48
546.88	50552.91
547.08	50454.61
547.28	50417.75
547.48	49832.03
547.68	50731.09
547.88	49588.32
548.081	50223.19
548.281	50397.27
548.481	50100.31
548.681	50380.88
548.881	50151.51
549.081	50114.65
549.28	49889.37
549.48	50268.25
549.68	50145.37
549.88	50417.75
550.08	49825.89
550.28	49881.18
550.48	49961.05
550.68	50327.64
550.88	49676.38
551.08	49987.67
551.279	49756.25
551.479	49725.53
551.679	49928.28
551.879	49707.1
552.079	49668.19
552.278	49913.95
552.478	50348.12
552.678	49688.67
552.878	50266.2
553.077	49815.65
553.277	49578.08
553.477	50632.78
553.676	49860.7
553.876	49528.93
554.076	49225.83
554.275	49723.49
554.475	49215.59
554.674	49635.42
554.874	49674.34
555.074	49565.79
555.273	49508.45
555.473	50141.27
555.672	49631.33
555.872	49533.03
556.071	49567.84
556.271	49756.25
556.47	49094.76
556.67	48789.61
556.869	48951.4
557.068	49836.12
557.268	48935.02
557.467	49068.14
557.667	48992.36
557.866	49217.64
558.065	49010.79
558.265	48765.04
558.464	48795.76
558.663	49404
558.863	48240.76
559.062	49086.57
559.261	48138.36
559.461	48584.82
559.66	47849.6
559.859	48269.43
560.058	47988.86
560.258	48543.86
560.457	47964.28
560.656	48011.38
560.855	48265.33
561.054	48357.49
561.253	47841.4
561.453	48248.95
561.652	48365.68
561.851	48212.09
562.05	48257.14
562.249	47870.07
562.448	48173.17
562.647	48107.64
562.846	47632.51
563.045	48124.02
563.244	47648.89
563.443	47874.17
563.642	46971.02
563.841	47437.95
564.04	47009.93
564.239	47339.65
564.438	47288.45
564.637	47267.97
564.836	47593.6
565.035	46471.31
565.234	47306.88
565.432	46932.11
565.631	47028.36
565.83	46899.34
566.029	46436.5
566.228	46864.52
566.427	46903.43
566.625	46176.4
566.824	45985.94
567.023	46428.3
567.222	45813.91
567.42	46432.4
567.619	46305.43
567.818	46000.28
568.016	45709.47
568.215	45686.94
568.414	45482.14
568.612	46043.29
568.811	45635.74
569.01	45713.56
569.208	45004.97
569.407	45645.98
569.605	44660.91
569.804	45674.65
570.002	44906.66
570.201	45283.49
570.4	44847.27
570.598	44662.96
570.797	44845.23
570.995	44380.34
571.193	44585.13
571.392	44832.94
571.59	44781.74
571.789	44435.63
571.987	44318.9
572.186	44185.78
572.384	44296.37
572.582	44011.7
572.781	44374.19
572.979	43270.34
573.177	43342.02
573.376	43522.24
573.574	43696.31
573.772	43477.18
573.971	43135.17
574.169	43253.95
574.367	43065.54
574.565	43528.38
574.763	42913.99
574.962	42756.3
575.16	42393.81
575.358	42600.65
575.556	42291.41
575.754	43026.63
575.952	41785.56
576.151	42647.75
576.349	42121.43
576.547	41957.59
576.745	41818.33
576.943	42197.2
577.141	42232.02
577.339	42244.3
577.537	41173.22
577.735	41638.11
577.933	41218.27
578.131	41470.17
578.329	41031.91
578.527	40954.08
578.725	40952.04
578.923	41337.05
579.121	41079.01
579.319	40823.01
579.516	41033.96
579.714	40773.86
579.912	40995.04
580.11	40550.63
580.308	40376.56
580.506	40261.87
580.704	39792.89
580.901	40124.66
581.099	40386.8
581.297	40339.69
581.495	39751.93
581.692	40059.12
581.89	39231.74
582.088	40104.18
582.285	39508.22
582.483	39762.17
582.681	39399.68
582.878	39268.61
583.076	38838.53
583.274	39383.29
583.471	38566.15
583.669	38924.55
583.866	38492.43
584.064	38854.92
584.262	38428.94
584.459	38402.32
584.657	38277.39
584.854	38447.37
585.052	37910.8
585.249	38265.1
585.447	38066.45
585.644	37407
585.841	37837.08
586.039	37773.59
586.236	37447.96
586.434	37349.66
586.631	37126.43
586.828	37093.66
587.026	37257.5
587.223	36817.19
587.42	37108
587.618	36927.78
587.815	36337.96
588.012	36618.53
588.21	36481.32
588.407	36862.24
588.604	36311.34
588.801	35801.4
588.999	36282.67
589.196	35805.49
589.393	36167.98
589.59	35901.75
589.787	35803.44
589.984	35594.55
590.182	35215.68
590.379	35389.75
590.576	35068.22
590.773	34963.78
590.97	34961.73
591.167	35404.09
591.364	34758.98
591.561	35086.65
591.758	34402.63
591.955	34638.15
592.152	34654.53
592.349	34537.8
592.546	34611.53
592.743	34275.66
592.94	33755.47
593.137	34179.4
593.334	34099.53
593.531	33761.62
593.727	33743.19
593.924	33575.25
594.121	33311.07
594.318	33538.39
594.515	33104.22
594.712	33489.24
594.908	33694.04
595.105	33149.28
595.302	32870.75
595.499	32952.67
595.696	32739.68
595.892	32506.21
596.089	32944.48
596.286	32530.79
596.482	32330.09
596.679	32442.73
596.876	32362.86
597.072	32133.48
597.269	32115.05
597.466	31902.06
597.662	32082.28
597.859	31689.07
598.055	32043.37
598.252	31523.19
598.448	31424.89
598.645	31963.5
598.841	31297.91
599.038	31601.01
599.234	31195.51
599.431	30927.23
599.627	30949.76
599.824	31086.97
600.02	30953.85
600.217	30740.86
600.413	30665.09
600.609	30497.16
600.806	30536.07
601.002	30544.26
601.198	30245.26
601.395	30101.9
601.591	30159.24
601.787	30237.06
601.984	29841.81
602.18	30013.84
602.376	30003.6
602.572	29858.19
602.769	29581.71
602.965	29297.05
603.161	29718.93
603.357	29307.29
603.553	29133.21
603.75	29450.64
603.946	28725.66
604.142	29192.6
604.338	28520.87
604.534	28930.46
604.73	28619.17
604.926	28326.31
605.122	28518.82
605.318	28494.24
605.514	28426.66
605.71	28191.14
605.906	28217.77
606.102	28086.7
606.298	28225.96
606.494	28004.78
606.69	27859.37
606.886	27718.06
607.082	27435.44
607.278	28045.74
607.474	27230.65
607.67	27586.99
607.866	27249.08
608.062	27711.92
608.257	27460.02
608.453	27240.89
608.649	27027.9
608.845	27396.53
609.041	26993.08
609.236	27210.17
609.432	26866.11
609.628	26857.92
609.824	26505.66
610.019	26782.14
610.215	26538.43
610.411	26843.58
610.606	26825.15
610.802	26819
610.998	26425.79
611.193	26706.37
611.389	26307.01
611.584	26358.21
611.78	26184.13
611.976	26167.75
612.171	26194.37
612.367	26063.3
612.562	26233.29
612.758	25694.67
612.953	25657.81
613.149	26108.36
613.344	25805.26
613.539	25919.95
613.735	25897.42
613.93	25819.6
614.126	25594.32
614.321	25747.92
614.517	25481.68
614.712	25635.28
614.907	25188.82
615.103	25358.8
615.298	25350.61
615.493	25754.06
615.688	25209.3
615.884	25672.14
616.079	25041.37
616.274	25272.79
616.47	24891.87
616.665	24986.07
616.86	25106.9
617.055	24506.85
617.25	24639.97
617.445	24877.53
617.641	24490.46
617.836	24510.94
618.031	24373.73
618.226	24504.8
618.421	23978.47
618.616	24521.18
618.811	24170.98
619.006	24185.32
619.201	23947.75
619.396	23953.9
619.591	23656.94
619.786	23892.46
619.981	23507.44
620.176	23718.38
620.371	23347.7
620.566	23273.97
620.761	23167.48
620.956	23063.03
621.151	22694.4
621.346	23026.17
621.541	22610.43
621.735	22772.22
621.93	22671.87
622.125	22714.87
622.32	22278.66
622.515	22229.51
622.709	22075.91
622.904	22317.57
623.099	21996.04
623.294	22123.01
623.488	21678.6
623.683	21668.36
623.878	21473.81
624.072	21295.63
624.267	21314.06
624.462	21178.9
624.656	20920.85
624.851	20918.81
625.046	20877.85
625.24	20589.08
625.435	20335.14
625.629	20462.11
625.824	20392.48
626.018	20245.02
626.213	20038.18
626.407	19884.58
626.602	19561
626.796	20046.37
626.991	19984.93
627.185	19632.68
627.38	19810.86
627.574	19329.58
627.768	19094.07
627.963	19388.97
628.157	18831.93
628.352	19075.63
628.546	18620.99
628.74	18756.15
628.935	18422.33
629.129	18700.86
629.323	18510.39
629.517	18555.45
629.712	18344.51
629.906	18205.25
630.1	18065.99
630.294	17986.11
630.489	17820.23
630.683	17951.3
630.877	17527.37
631.071	17599.05
631.265	17648.2
631.459	17406.54
631.653	17209.93
631.848	17543.75
632.042	17341
632.236	17107.54
632.43	16878.16
632.624	17261.13
632.818	16740.95
633.012	16456.28
633.206	16505.43
633.4	16826.96
633.594	16654.94
633.788	16468.57
633.982	16157.28
634.176	15977.06
634.369	16101.98
634.563	15850.08
634.757	15952.48
634.951	16288.35
635.145	15913.57
635.339	16013.92
635.533	15553.13
635.726	15661.67
635.92	15602.28
636.114	15522.41
636.308	15192.69
636.501	15067.76
636.695	15268.46
636.889	14879.35
637.083	14928.5
637.276	15010.42
637.47	14787.19
637.664	14709.36
637.857	14529.14
638.051	14486.14
638.244	14410.36
638.438	14307.96
638.632	14303.87
638.825	14439.03
639.019	14297.72
639.212	13884.03
639.406	14117.5
639.599	13990.53
639.793	13974.14
639.986	13748.87
640.18	13734.53
640.373	13720.2
640.567	13298.31
640.76	13683.33
640.954	13380.23
641.147	13595.27
641.34	13183.63
641.534	13277.83
641.727	13326.99
641.92	13001.36
642.114	12855.95
642.307	13081.23
642.5	12921.49
642.694	12896.91
642.887	12606.1
643.08	12626.58
643.273	12593.81
643.467	12634.77
643.66	12423.83
643.853	12552.85
644.046	12098.2
644.239	12464.79
644.432	12352.15
644.626	11995.81
644.819	12145.31
645.012	12231.32
645.205	11856.54
645.398	11958.94
645.591	11666.08
645.784	11756.19
645.977	11649.7
646.17	11711.14
646.363	11420.33
646.556	11440.81
646.749	11582.12
646.942	11346.6
647.135	11260.59
647.328	11168.43
647.521	11053.74
647.714	11104.94
647.907	11051.69
648.099	10896.05
648.292	10783.41
648.485	10842.8
648.678	10578.61
648.871	10640.05
649.064	10531.51
649.256	10611.38
649.449	10406.58
649.642	10375.86
649.835	10101.44
650.027	10162.87
650.22	10259.13
650.413	10105.53
650.605	10230.46
650.798	10189.5
650.991	10017.47
651.183	10156.73
651.376	10017.47
651.568	9908.93
651.761	9718.47
651.954	9792.19
652.146	9814.72
652.339	9870.01
652.531	9538.24
652.724	9454.28
652.916	9441.99
653.109	9478.85
653.301	9663.17
653.494	9390.79
653.686	9140.94
653.879	9448.13
654.071	9308.87
654.263	9028.3
654.456	9124.55
654.648	9177.8
654.84	8950.48
655.033	8721.1
655.225	8782.54
655.417	8772.3
655.61	8803.02
655.802	8764.11
655.994	8788.69
656.186	8585.94
656.379	8651.47
656.571	8614.61
656.763	8452.82
656.955	8633.04
657.148	8360.66
657.34	8377.05
657.532	8284.89
657.724	8219.35
657.916	8039.13
658.108	8250.07
658.3	7949.02
658.492	7934.68
658.684	8073.95
658.876	7912.16
659.068	7752.42
659.26	7750.37
659.452	7803.61
659.644	7729.89
659.836	7690.98
660.028	7776.99
660.22	7445.22
660.412	7512.8
660.604	7475.94
660.796	7557.86
660.988	7424.74
661.18	7420.64
661.372	7049.96
661.563	7412.45
661.755	7181.03
661.947	7172.84
662.139	7015.15
662.331	7021.29
662.522	7031.53
662.714	7168.74
662.906	6970.09
663.097	7072.49
663.289	6787.82
663.481	6859.5
663.673	6861.55
663.864	6875.88
664.056	6783.73
664.247	6660.85
664.439	6574.83
664.631	6613.74
664.822	6589.17
665.014	6671.09
665.205	6376.18
665.397	6456.05
665.588	6640.37
665.78	6253.3
665.971	6161.14
666.163	6292.21
666.354	6189.81
666.546	6171.38
666.737	6124.28
666.929	6134.52
667.12	6181.62
667.311	6148.86
667.503	5970.68
667.694	5903.1
667.885	5995.26
668.077	5800.7
668.268	5829.37
668.459	6050.55
668.651	5786.37
668.842	5688.06
669.033	5831.42
669.224	5739.26
669.416	5831.42
669.607	5651.2
669.798	5503.75
669.989	5698.3
670.18	5573.38
670.371	5436.16
670.563	5417.73
670.754	5458.69
670.945	5432.07
671.136	5460.74
671.327	5434.11
671.518	5329.67
671.709	5360.39
671.9	5378.82
672.091	5323.52
672.282	5282.56
672.473	5137.16
672.664	5217.03
672.855	5200.65
673.046	5208.84
673.237	5188.36
673.428	5112.58
673.619	5077.77
673.809	5065.48
674	5036.81
674.191	4958.99
674.382	5100.3
674.573	4944.65
674.764	5065.48
674.954	4985.61
675.145	4889.35
675.336	4780.81
675.527	4838.16
675.717	4977.42
675.908	4789
676.099	4803.34
676.289	4678.41
676.48	4731.66
676.671	4770.57
676.861	4688.65
677.052	4770.57
677.243	4789
677.433	4643.6
677.624	4748.04
677.814	4619.02
678.005	4639.5
678.195	4543.25
678.386	4465.43
678.576	4559.63
678.767	4487.95
678.957	4680.46
679.148	4549.39
679.338	4672.27
679.529	4473.62
679.719	4487.95
679.909	4625.17
680.1	4475.67
680.29	4510.48
680.481	4260.63
680.671	4287.25
680.861	4393.75
681.052	4410.13
681.242	4324.12
681.432	4393.75
681.622	4147.99
681.813	4180.76
682.003	4199.19
682.193	4197.14
682.383	4291.35
682.573	4250.39
682.764	4244.24
682.954	4221.72
683.144	4246.29
683.334	4180.76
683.524	4203.29
683.714	4123.41
683.904	4107.03
684.094	4123.41
684.284	4127.51
684.474	4131.61
684.664	4225.81
684.854	4182.81
685.044	4182.81
685.234	3869.47
685.424	3982.1
685.614	4115.22
685.804	4119.32
685.994	3738.4
686.184	3863.32
686.374	4064.02
686.564	4096.79
686.753	3959.58
686.943	3900.19
687.133	3998.49
687.323	3910.43
687.513	3992.34
687.702	3795.74
687.892	4047.64
688.082	3918.62
688.272	3937.05
688.461	3805.98
688.651	3894.04
688.841	3631.9
689.03	3816.22
689.22	3652.38
689.41	3715.87
689.599	3722.01
689.789	3828.51
689.979	3773.21
690.168	3740.44
690.358	3779.36
690.547	3787.55
690.737	3808.03
690.926	3617.57
691.116	3644.19
691.305	3662.62
691.495	3533.6
691.684	3754.78
691.874	3601.18
692.063	3537.7
692.252	3476.26
692.442	3638.05
692.631	3470.11
692.82	3504.93
693.01	3388.19
693.199	3582.75
693.388	3459.87
693.578	3517.22
693.767	3459.87
693.956	3414.82
694.146	3427.11
694.335	3281.7
694.524	3330.85
694.713	3455.78
694.902	3468.06
695.092	3359.52
695.281	3386.15
695.47	3269.41
695.659	3298.08
695.848	3359.52
696.037	3455.78
696.226	3478.3
696.415	3279.65
696.604	3320.61
696.793	3248.93
696.982	3324.71
697.171	3226.4
697.36	3242.79
697.549	3232.55
697.738	3171.11
697.927	3132.2
698.116	3259.17
698.305	3218.21
698.494	3132.2
698.683	3175.2
698.872	3173.16
699.061	3281.7
699.25	3089.19
699.438	3148.58
699.627	3205.92
699.816	3173.16
700.005	3197.73
700.193	3083.05
700.382	3138.34
700.571	2984.74
700.76	3173.16
700.948	3035.94
701.137	2992.94
701.326	3201.83
701.514	2960.17
701.703	3019.56
701.892	3035.94
702.08	3035.94
702.269	3087.14
702.457	3074.85
702.646	2988.84
702.834	2999.08
703.023	2939.69
703.212	3015.46
703.4	2997.03
703.589	2906.92
703.777	3029.8
703.965	2968.36
704.154	2927.4
704.342	2990.89
704.531	2822.95
704.719	2911.02
704.907	2902.83
705.096	2935.59
705.284	2882.35
705.472	2919.21
705.661	2724.65
705.849	2960.17
706.037	2888.49
706.226	2919.21
706.414	2851.63
706.602	2773.8
706.79	2800.43
706.979	2890.54
707.167	2755.37
707.355	2792.23
707.543	2808.62
707.731	2857.77
707.919	2716.46
708.107	2747.18
708.296	2698.03
708.484	2708.27
708.672	2798.38
708.86	2710.32
709.048	2638.64
709.236	2724.65
709.424	2771.76
709.612	2693.93
709.8	2784.04
709.988	2642.73
710.176	2695.98
710.364	2763.56
710.551	2657.07
710.739	2552.62
710.927	2706.22
711.115	2708.27
711.303	2675.5
711.491	2757.42
711.679	2517.81
711.866	2614.06
712.054	2693.93
712.242	2526
712.43	2665.26
712.617	2521.9
712.805	2521.9
712.993	2585.39
713.181	2569.01
713.368	2501.42
713.556	2577.2
713.744	2419.5
713.931	2534.19
714.119	2470.7
714.306	2560.81
714.494	2534.19
714.682	2513.71
714.869	2454.32
715.057	2517.81
715.244	2401.07
715.432	2456.37
715.619	2388.78
715.807	2382.64
715.994	2374.45
716.182	2362.16
716.369	2419.5
716.556	2493.23
716.744	2468.66
716.931	2435.89
717.119	2542.38
717.306	2360.11
717.493	2255.67
717.681	2515.76
717.868	2362.16
718.055	2315.06
718.242	2304.82
718.43	2446.13
718.617	2372.4
718.804	2388.78
718.991	2345.78
719.179	2306.87
719.366	2317.11
719.553	2216.76
719.74	2315.06
719.927	2337.59
720.114	2313.01
720.301	2313.01
720.488	2323.25
720.676	2306.87
720.863	2274.1
721.05	2321.2
721.237	2272.05
721.424	2300.72
721.611	2372.4
721.798	2124.6
721.985	2296.63
722.172	2358.07
722.358	2175.8
722.545	2243.38
722.732	2218.8
722.919	2282.29
723.106	2140.98
723.293	2216.76
723.48	2274.1
723.667	2179.89
723.853	2190.13
724.04	2206.52
724.227	2151.22
724.414	2161.46
724.6	2102.07
724.787	2136.88
724.974	2200.37
725.161	2104.12
725.347	2165.56
725.534	2106.17
725.72	2116.41
725.907	2149.17
726.094	2167.6
726.28	2054.97
726.467	2132.79
726.653	2173.75
726.84	2165.56
727.027	2128.69
727.213	1903.42
727.4	2106.17
727.586	2118.45
727.773	2069.3
727.959	2032.44
728.145	2071.35
728.332	1950.52
728.518	2042.68
728.705	2075.45
728.891	2034.49
729.077	2077.49
729.264	2059.06
729.45	2063.16
729.636	2009.91
729.823	1903.42
730.009	2038.58
730.195	2001.72
730.382	2003.77
730.568	1973.05
730.754	2028.34
730.94	2030.39
731.126	2009.91
731.313	1927.99
731.499	2020.15
731.685	2085.69
731.871	2059.06
732.057	1985.34
732.243	1938.23
732.429	1919.8
732.615	1997.62
732.801	1930.04
732.987	1934.14
733.173	1944.38
733.359	1930.04
733.545	1915.7
733.731	1796.92
733.917	1930.04
734.103	1874.74
734.289	1952.57
734.475	1899.32
734.661	1844.03
734.847	1878.84
735.033	1862.46
735.219	1913.66
735.404	1841.98
735.59	1854.27
735.776	1880.89
735.962	1839.93
736.148	1831.74
736.333	1893.18
736.519	1839.93
736.705	1837.88
736.89	1805.11
737.076	1766.2
737.262	1823.55
737.447	1747.77
737.633	1801.02
737.819	1925.94
738.004	1690.43
738.19	1727.29
738.375	1780.54
738.561	1772.35
738.747	1723.2
738.932	1708.86
739.118	1837.88
739.303	1758.01
739.489	1788.73
739.674	1725.24
739.859	1782.59
740.045	1706.81
740.23	1805.11
740.416	1596.22
740.601	1798.97
740.786	1626.94
740.972	1686.33
741.157	1669.95
741.342	1567.55
741.528	1624.89
741.713	1577.79
741.898	1633.08
742.084	1633.08
742.269	1637.18
742.454	1715
742.639	1643.32
742.824	1633.08
743.01	1622.84
743.195	1606.46
743.38	1600.32
743.565	1526.59
743.75	1592.13
743.935	1667.9
744.12	1631.04
744.305	1493.82
744.49	1596.22
744.675	1577.79
744.86	1545.02
745.045	1516.35
745.23	1516.35
745.415	1565.5
745.6	1559.36
745.785	1532.73
745.97	1579.84
746.155	1438.53
746.34	1510.21
746.525	1512.25
746.71	1420.1
746.895	1536.83
747.079	1416
747.264	1432.38
747.449	1413.95
747.634	1485.63
747.819	1452.86
748.003	1430.34
748.188	1366.85
748.373	1405.76
748.557	1348.42
748.742	1370.94
748.927	1446.72
749.111	1297.22
749.296	1303.36
749.481	1426.24
749.665	1459.01
749.85	1362.75
750.034	1334.08
750.219	1256.26
750.404	1399.62
750.588	1325.89
750.773	1301.31
750.957	1203.01
751.141	1225.54
751.326	1434.43
751.51	1117
751.695	1329.99
751.879	1178.44
752.064	1223.49
752.248	1137.48
752.432	1168.2
752.617	1229.63
752.801	1235.78
752.985	1254.21
753.17	1188.68
753.354	1217.35
753.538	1157.96
753.722	1125.19
753.907	1143.62
754.091	1086.28
754.275	1241.92
754.459	1100.61
754.643	1100.61
754.828	1045.32
755.012	1157.96
755.196	998.21
755.38	1057.61
755.564	1088.32
755.748	1127.24
755.932	1084.23
756.116	1102.66
756.3	1076.04
756.484	1024.84
756.668	1012.55
756.852	1000.26
757.036	1026.89
757.22	1069.89
757.404	994.12
757.588	957.25
757.772	936.78
757.956	949.06
758.14	1065.8
758.323	914.25
758.507	944.97
758.691	971.59
758.875	1063.75
759.059	1010.5
759.242	904.01
759.426	953.16
759.61	932.68
759.794	932.68
759.977	889.67
760.161	1022.79
760.345	918.34
760.528	1028.93
760.712	957.25
760.895	936.78
761.079	832.33
761.263	961.35
761.446	883.53
761.63	947.01
761.813	838.47
761.997	805.71
762.18	985.93
762.364	938.82
762.547	805.71
762.731	830.28
762.914	842.57
763.098	873.29
763.281	838.47
763.464	772.94
763.648	830.28
763.831	756.55
764.015	725.83
764.198	846.66
764.381	797.51
764.564	887.62
764.748	772.94
764.931	764.75
765.114	789.32
765.297	865.1
765.481	750.41
765.664	723.79
765.847	748.36
766.03	826.18
766.213	750.41
766.397	764.75
766.58	815.94
766.763	695.11
766.946	781.13
767.129	858.95
767.312	707.4
767.495	693.07
767.678	809.8
767.861	731.98
768.044	699.21
768.227	736.07
768.41	709.45
768.593	744.27
768.776	738.12
768.959	707.4
769.142	744.27
769.324	674.64
769.507	777.03
769.69	770.89
769.873	785.23
770.056	774.99
770.239	768.84
770.421	744.27
770.604	756.55
770.787	672.59
770.97	643.92
771.152	684.87
771.335	723.79
771.518	643.92
771.7	727.88
771.883	789.32
772.066	691.02
772.248	703.31
772.431	727.88
772.613	723.79
772.796	723.79
772.978	676.68
773.161	723.79
773.343	709.45
773.526	658.25
773.708	602.96
773.891	584.52
774.073	680.78
774.256	588.62
774.438	662.35
774.621	713.55
774.803	668.49
774.985	645.96
775.168	594.76
775.35	625.48
775.532	641.87
775.715	633.68
775.897	650.06
776.079	617.29
776.261	654.16
776.444	588.62
776.626	605
776.808	564.04
776.99	570.19
777.173	564.04
777.355	625.48
777.537	600.91
777.719	570.19
777.901	551.76
778.083	559.95
778.265	527.18
778.447	551.76
778.629	529.23
778.811	535.37
778.993	523.09
779.175	584.52
779.357	445.26
779.539	502.61
779.721	584.52
779.903	617.29
780.085	537.42
780.267	445.26
780.449	416.59
780.631	523.09
780.812	559.95
780.994	568.14
781.176	469.84
781.358	570.19
781.54	447.31
781.721	457.55
781.903	420.69
782.085	445.26
782.267	486.22
782.448	412.5
782.63	510.8
782.812	539.47
782.993	373.58
783.175	494.41
783.357	428.88
783.538	365.39
783.72	435.02
783.901	441.17
784.083	377.68
784.264	396.11
784.446	435.02
784.627	355.15
784.809	387.92
784.99	430.93
785.172	396.11
785.353	447.31
785.535	392.02
785.716	400.21
785.897	316.24
786.079	412.5
786.26	445.26
786.441	465.74
786.623	355.15
786.804	408.4
786.985	267.09
787.167	426.83
787.348	322.38
787.529	363.34
787.71	473.93
787.891	424.78
788.073	332.62
788.254	297.81
788.435	338.77
788.616	342.86
788.797	312.14
788.978	322.38
789.159	314.19
789.34	471.89
789.522	349.01
789.703	267.09
789.884	326.48
790.065	262.99
790.246	275.28
790.427	297.81
790.607	402.26
790.788	269.14
790.969	285.52
791.15	379.73
791.331	281.43
791.512	295.76
791.693	242.51
791.874	289.62
792.054	328.53
792.235	306
792.416	267.09
792.597	297.81
792.778	265.04
792.958	265.04
793.139	252.75
793.32	314.19
793.5	254.8
793.681	306
793.862	299.86
794.042	330.58
794.223	174.93
794.404	289.62
794.584	209.75
794.765	299.86
794.945	279.38
795.126	213.84
795.306	295.76
795.487	193.36
795.667	252.75
795.848	332.62
796.028	308.05
796.209	275.28
796.389	248.66
796.57	258.9
796.75	232.27
796.93	215.89
797.111	191.31
797.291	277.33
797.471	191.31
797.652	297.81
797.832	215.89
798.012	242.51
798.192	228.18
798.373	187.22
798.553	215.89
798.733	236.37
798.913	217.94
799.093	226.13
799.274	224.08
799.454	246.61
799.634	265.04
799.814	248.66
799.994	152.4
800.174	357.2
800.354	142.16
800.534	201.55
800.714	240.47
800.894	201.55
801.074	115.54
801.254	166.74
801.434	224.08
801.614	164.69
801.794	131.92
801.974	795.47
802.154	174.93
802.334	219.99
802.514	152.4
802.693	207.7
802.873	215.89
803.053	232.27
803.233	228.18
803.413	205.65
803.592	242.51
803.772	224.08
803.952	162.64
804.131	152.4
804.311	252.75
804.491	240.47
804.67	99.16
804.85	101.2
805.03	209.75
805.209	230.23
805.389	158.55
805.568	142.16
805.748	142.16
805.928	191.31
806.107	211.79
806.287	127.83
806.466	160.59
806.646	228.18
806.825	117.59
807.004	174.93
807.184	158.55
807.363	154.45
807.543	226.13
807.722	105.3
807.901	144.21
808.081	150.36
808.26	172.88
808.439	201.55
808.619	125.78
808.798	224.08
808.977	168.79
809.156	207.7
809.336	113.49
809.515	166.74
809.694	56.15
809.873	109.4
810.052	174.93
810.231	146.26
810.411	193.36
810.59	158.55
810.769	86.87
810.948	142.16
811.127	111.44
811.306	125.78
811.485	185.17
811.664	170.83
811.843	133.97
812.022	117.59
812.201	78.68
812.38	133.97
812.559	117.59
812.737	154.45
812.916	97.11
813.095	93.01
813.274	199.51
813.453	88.92
813.632	207.7
813.811	60.24
813.989	90.96
814.168	84.82
814.347	68.44
814.526	162.64
814.704	68.44
814.883	117.59
815.062	-7.34
815.24	121.68
815.419	125.78
815.598	95.06
815.776	68.44
815.955	111.44
816.133	101.2
816.312	154.45
816.49	121.68
816.669	95.06
816.847	117.59
817.026	234.32
817.204	125.78
817.383	39.76
817.561	154.45
817.74	144.21
817.918	117.59
818.097	105.3
818.275	101.2
818.453	136.02
818.632	133.97
818.81	176.98
818.988	129.88
819.167	25.43
819.345	97.11
819.523	72.53
819.701	66.39
819.879	80.72
820.058	-5.29
820.236	129.88
820.414	45.91
820.592	45.91
820.77	95.06
820.948	99.16
821.127	52.05
821.305	109.4
821.483	11.09
821.661	111.44
821.839	76.63
822.017	117.59
822.195	90.96
822.373	93.01
822.551	68.44
822.729	19.29
822.907	54.1
823.085	129.88
823.262	27.48
823.44	86.87
823.618	80.72
823.796	52.05
823.974	29.52
824.152	93.01
824.329	7
824.507	95.06
824.685	133.97
824.863	58.2
825.04	-11.43
825.218	64.34
825.396	144.21
825.574	76.63
825.751	64.34
825.929	11.09
826.107	23.38
826.284	25.43
826.462	95.06
826.639	64.34
826.817	-23.72
826.994	60.24
827.172	2.9
827.349	54.1
827.527	29.52
827.704	7
827.882	56.15
828.059	21.33
828.237	27.48
828.414	88.92
828.591	-5.29
828.769	84.82
828.946	-5.29
829.124	45.91
829.301	88.92
829.478	97.11
829.655	88.92
829.833	97.11
830.01	52.05
830.187	60.24
830.364	50
830.542	4.95
830.719	27.48
830.896	105.3
831.073	13.14
831.25	136.02
831.427	68.44
831.604	74.58
831.782	15.19
831.959	37.72
832.136	21.33
832.313	103.25
832.49	41.81
832.667	129.88
832.844	27.48
833.021	29.52
833.198	72.53
833.374	68.44
833.551	54.1
833.728	95.06
833.905	121.68
834.082	0.85
834.259	80.72
834.436	52.05
834.612	54.1
834.789	31.57
834.966	2.9
835.143	123.73
835.319	-42.15
835.496	64.34
835.673	35.67
835.85	193.36
836.026	31.57
836.203	84.82
836.38	23.38
836.556	37.72
836.733	62.29
836.909	93.01
837.086	-29.87
837.262	2.9
837.439	29.52
837.616	80.72
837.792	45.91
837.968	72.53
838.145	-56.49
838.321	103.25
838.498	50
838.674	60.24
838.851	52.05
839.027	52.05
839.203	52.05
839.38	101.2
839.556	43.86
839.732	35.67
839.909	-3.24
840.085	131.92
840.261	43.86
840.437	21.33
840.614	11.09
840.79	31.57
840.966	-40.11
841.142	25.43
841.318	56.15
841.494	119.64
841.671	62.29
841.847	66.39
842.023	68.44
842.199	15.19
842.375	43.86
842.551	11.09
842.727	-7.34
842.903	76.63
843.079	-7.34
843.255	68.44
843.431	39.76
843.607	76.63
843.783	7
843.959	-13.48
844.134	-70.83
844.31	101.2
844.486	37.72
844.662	-11.43
844.838	19.29
845.013	-42.15
845.189	23.38
845.365	72.53
845.541	15.19
845.716	41.81
845.892	113.49
846.068	35.67
846.244	-11.43
846.419	127.83
846.595	17.24
846.77	-56.49
846.946	13.14
847.122	56.15
847.297	37.72
847.473	90.96
847.648	37.72
847.824	35.67
847.999	-38.06
848.175	-50.35
848.35	27.48
848.526	101.2
848.701	64.34
848.876	43.86
849.052	76.63
849.227	37.72
849.403	64.34
849.578	62.29
849.753	78.68
849.929	27.48
850.104	-3.24
850.279	54.1
850.454	15.19
850.63	41.81
850.805	84.82
850.98	21.33
851.155	37.72
851.33	56.15
851.505	-23.72
851.681	95.06
851.856	-33.96
852.031	35.67
852.206	35.67
852.381	-21.67
852.556	4.95
852.731	56.15
852.906	-52.39
853.081	0.85
853.256	31.57
853.431	29.52
853.606	-44.2
853.781	17.24
853.956	-29.87
854.131	45.91
854.305	-33.96
854.48	11.09
854.655	-62.63
854.83	13.14
855.005	-21.67
855.18	54.1
855.354	-5.29
855.529	29.52
855.704	45.91
855.879	131.92
856.053	-5.29
856.228	-5.29
856.403	-29.87
856.577	-33.96
856.752	-99.5
856.926	72.53
857.101	7
857.276	-54.44
857.45	13.14
857.625	54.1
857.799	11.09
857.974	-15.53
858.148	-46.25
858.323	4.95
858.497	-62.63
858.672	21.33
858.846	-13.48
859.02	27.48
859.195	-1.19
859.369	-11.43
859.543	86.87
859.718	68.44
859.892	-13.48
860.066	-21.67
860.241	45.91
860.415	23.38
860.589	11.09
860.763	-27.82
860.938	-17.58
861.112	35.67
861.286	-38.06
861.46	2.9
861.634	-7.34
861.808	23.38
861.982	-3.24
862.157	-3.24
862.331	19.29
862.505	-29.87
862.679	37.72
862.853	15.19
863.027	-7.34
863.201	21.33
863.375	37.72
863.549	-27.82
863.722	23.38
863.896	4.95
864.07	19.29
864.244	-38.06
864.418	-1.19
864.592	-1.19
864.766	-9.39
864.939	-21.67
865.113	-29.87
865.287	7
865.461	-1.19
865.634	7
865.808	23.38
865.982	39.76
866.156	-50.35
866.329	-13.48
866.503	15.19
866.676	11.09
866.85	13.14
867.024	-58.54
867.197	47.96
867.371	2.9
867.544	9.05
867.718	-21.67
867.891	54.1
868.065	-3.24
868.238	11.09
868.412	76.63
868.585	27.48
868.759	-64.68
868.932	-27.82
869.105	-9.39
869.279	23.38
869.452	2.9
869.625	52.05
869.799	19.29
869.972	-5.29
870.145	27.48
870.319	-62.63
870.492	-74.92
870.665	70.48
870.838	33.62
871.011	-74.92
871.185	13.14
871.358	-42.15
871.531	101.2
871.704	-42.15
871.877	-52.39
872.05	54.1
872.223	-21.67
872.396	43.86
872.569	21.33
872.742	27.48
872.915	-1.19
873.088	2.9
873.261	-38.06
873.434	0.85
873.607	-29.87
873.78	60.24
873.953	33.62
874.126	17.24
874.299	80.72
874.471	-27.82
874.644	-15.53
874.817	9.05
874.99	45.91
875.163	-68.78
875.335	37.72
875.508	64.34
875.681	43.86
875.853	-46.25
876.026	-15.53
876.199	-21.67
876.371	-44.2
876.544	-38.06
876.717	39.76
876.889	-33.96
877.062	41.81
877.234	-54.44
877.407	11.09
877.579	-1.19
877.752	-54.44
877.924	37.72
878.097	7
878.269	29.52
878.442	4.95
878.614	31.57
878.786	-7.34
878.959	62.29
879.131	-36.01
879.303	-62.63
879.476	-62.63
879.648	-1.19
879.82	-25.77
879.993	68.44
880.165	47.96
880.337	-48.3
880.509	-11.43
880.681	-1.19
880.854	-36.01
881.026	2.9
881.198	37.72
881.37	-21.67
881.542	2.9
881.714	-1.19
881.886	-33.96
882.058	-68.78
882.23	21.33
882.402	43.86
882.574	-1.19
882.746	2.9
882.918	11.09
883.09	19.29
883.262	-38.06
883.434	13.14
883.606	-48.3
883.778	-54.44
883.95	35.67
884.122	-42.15
884.293	21.33
884.465	56.15
884.637	35.67
884.809	-25.77
884.98	-46.25
885.152	4.95
885.324	-19.63
885.496	-38.06
885.667	29.52
885.839	-19.63
886.011	-13.48
886.182	74.58
886.354	-9.39
886.525	31.57
886.697	2.9
886.869	35.67
887.04	4.95
887.212	2.9
887.383	17.24
887.555	37.72
887.726	-19.63
887.897	-11.43
888.069	-19.63
888.24	-42.15
888.412	15.19
888.583	-79.02
888.754	52.05
888.926	-9.39
889.097	-11.43
889.268	-17.58
889.44	29.52
889.611	-36.01
889.782	37.72
889.953	-52.39
890.125	-38.06
890.296	-93.35
890.467	-44.2
890.638	-25.77
890.809	-36.01
890.98	7
891.151	27.48
891.323	50
891.494	45.91
891.665	9.05
891.836	52.05
892.007	13.14
892.178	-29.87
892.349	-27.82
892.52	-29.87
892.691	2.9
892.862	-3.24
893.032	-85.16
893.203	-5.29
893.374	-46.25
893.545	37.72
893.716	-3.24
893.887	7
894.057	-9.39
894.228	68.44
894.399	9.05
894.57	7
894.74	-44.2
894.911	-52.39
895.082	-19.63
895.253	68.44
895.423	-54.44
895.594	-3.24
895.764	11.09
895.935	-79.02
896.106	72.53
896.276	-99.5
896.447	-21.67
896.617	-36.01
896.788	-27.82
896.958	7
897.129	-25.77
897.299	29.52
897.47	37.72
897.64	-9.39
897.81	-87.21
897.981	21.33
898.151	-44.2
898.322	-9.39
898.492	-33.96
898.662	-29.87
898.832	-19.63
899.003	-62.63
899.173	27.48
899.343	-29.87
899.513	-36.01
