Data from USB4F104151__218__14-45-30-227.txt Node

Date: Thu Mar 13 14:45:30 EDT 2025
User: louis
Spectrometer: USB4F10415
Trigger mode: 4
Integration Time (sec): 2.000000E-2
Scans to average: 1
Electric dark correction enabled: true
Nonlinearity correction enabled: false
Boxcar width: 0
XAxis mode: Wavelengths
Number of Pixels in Spectrum: 3648
>>>>>Begin Spectral Data<<<<<
178.204	-150.01
178.424	-150.01
178.644	-150.01
178.864	-133.63
179.084	-86.53
179.304	-35.33
179.524	-31.23
179.744	42.5
179.964	15.87
180.184	-66.05
180.404	48.64
180.624	22.02
180.844	-14.85
181.064	-14.85
181.283	44.54
181.503	11.78
181.723	-23.04
181.943	52.74
182.163	79.36
182.383	-6.66
182.602	42.5
182.822	32.26
183.042	75.26
183.262	-8.7
183.482	-12.8
183.701	-25.09
183.921	-41.47
184.141	26.11
184.361	-45.57
184.58	-4.61
184.8	17.92
185.02	9.73
185.239	46.59
185.459	-43.52
185.679	15.87
185.898	-25.09
186.118	83.45
186.338	48.64
186.557	40.45
186.777	7.68
186.997	28.16
187.216	-57.86
187.436	15.87
187.655	22.02
187.875	46.59
188.095	42.5
188.314	38.4
188.534	69.12
188.753	46.59
188.973	48.64
189.192	15.87
189.412	22.02
189.631	30.21
189.851	-16.9
190.07	65.02
190.29	17.92
190.509	54.78
190.729	9.73
190.948	138.75
191.168	122.37
191.387	97.79
191.607	132.61
191.826	-31.23
192.045	-6.66
192.265	32.26
192.484	73.21
192.704	17.92
192.923	-43.52
193.142	38.4
193.362	110.08
193.581	101.89
193.8	3.58
194.02	128.51
194.239	-8.7
194.458	15.87
194.678	85.5
194.897	38.4
195.116	69.12
195.335	-0.51
195.555	50.69
195.774	22.02
195.993	32.26
196.212	38.4
196.432	56.83
196.651	19.97
196.87	-35.33
197.089	91.65
197.308	114.17
197.528	91.65
197.747	-18.94
197.966	75.26
198.185	38.4
198.404	-33.28
198.623	81.41
198.842	48.64
199.062	83.45
199.281	62.98
199.5	46.59
199.719	-2.56
199.938	118.27
200.157	32.26
200.376	101.89
200.595	-6.66
200.814	17.92
201.033	30.21
201.252	89.6
201.471	30.21
201.69	67.07
201.909	17.92
202.128	3.58
202.347	32.26
202.566	-14.85
202.785	-37.38
203.004	38.4
203.223	-10.75
203.442	9.73
203.661	15.87
203.879	-76.29
204.098	-2.56
204.317	13.82
204.536	99.84
204.755	46.59
204.974	28.16
205.193	30.21
205.411	79.36
205.63	-4.61
205.849	30.21
206.068	56.83
206.287	22.02
206.505	50.69
206.724	-47.62
206.943	7.68
207.162	73.21
207.381	-2.56
207.599	5.63
207.818	50.69
208.037	-51.71
208.255	26.11
208.474	58.88
208.693	24.06
208.911	71.17
209.13	65.02
209.349	71.17
209.567	-6.66
209.786	75.26
210.005	42.5
210.223	54.78
210.442	22.02
210.661	71.17
210.879	46.59
211.098	9.73
211.316	50.69
211.535	60.93
211.753	-0.51
211.972	38.4
212.191	50.69
212.409	-14.85
212.628	50.69
212.846	13.82
213.065	13.82
213.283	130.56
213.502	38.4
213.72	79.36
213.938	28.16
214.157	-43.52
214.375	3.58
214.594	24.06
214.812	73.21
215.031	62.98
215.249	17.92
215.467	-6.66
215.686	7.68
215.904	-2.56
216.122	-49.66
216.341	19.97
216.559	71.17
216.778	65.02
216.996	30.21
217.214	-23.04
217.432	13.82
217.651	38.4
217.869	52.74
218.087	24.06
218.306	38.4
218.524	-45.57
218.742	13.82
218.96	114.17
219.179	-16.9
219.397	54.78
219.615	71.17
219.833	-27.14
220.051	69.12
220.27	79.36
220.488	52.74
220.706	9.73
220.924	-14.85
221.142	7.68
221.36	54.78
221.578	60.93
221.796	42.5
222.015	-10.75
222.233	7.68
222.451	22.02
222.669	48.64
222.887	32.26
223.105	114.17
223.323	32.26
223.541	24.06
223.759	46.59
223.977	46.59
224.195	73.21
224.413	87.55
224.631	32.26
224.849	-6.66
225.067	75.26
225.285	7.68
225.503	56.83
225.721	-0.51
225.939	-16.9
226.157	22.02
226.375	89.6
226.592	-14.85
226.81	75.26
227.028	95.74
227.246	62.98
227.464	73.21
227.682	30.21
227.9	38.4
228.117	54.78
228.335	-4.61
228.553	26.11
228.771	-35.33
228.989	13.82
229.206	24.06
229.424	11.78
229.642	-2.56
229.86	-33.28
230.077	93.69
230.295	81.41
230.513	30.21
230.731	26.11
230.948	93.69
231.166	7.68
231.384	-0.51
231.601	26.11
231.819	79.36
232.037	91.65
232.254	-55.81
232.472	-0.51
232.689	13.82
232.907	54.78
233.125	-64
233.342	-49.66
233.56	-70.14
233.777	32.26
233.995	17.92
234.213	54.78
234.43	54.78
234.648	42.5
234.865	15.87
235.083	9.73
235.3	15.87
235.518	71.17
235.735	40.45
235.953	73.21
236.17	56.83
236.388	19.97
236.605	7.68
236.822	108.03
237.04	89.6
237.257	19.97
237.475	30.21
237.692	136.7
237.909	-55.81
238.127	36.35
238.344	-10.75
238.562	-31.23
238.779	-23.04
238.996	-82.43
239.214	7.68
239.431	-2.56
239.648	89.6
239.865	42.5
240.083	22.02
240.3	56.83
240.517	58.88
240.735	48.64
240.952	97.79
241.169	38.4
241.386	22.02
241.603	89.6
241.821	-6.66
242.038	15.87
242.255	105.98
242.472	-88.57
242.689	22.02
242.907	65.02
243.124	-10.75
243.341	48.64
243.558	-20.99
243.775	-0.51
243.992	24.06
244.209	48.64
244.426	60.93
244.643	13.82
244.86	24.06
245.078	79.36
245.295	46.59
245.512	22.02
245.729	89.6
245.946	79.36
246.163	65.02
246.38	-16.9
246.597	-20.99
246.814	-8.7
247.031	97.79
247.248	46.59
247.464	75.26
247.681	19.97
247.898	79.36
248.115	132.61
248.332	-18.94
248.549	52.74
248.766	105.98
248.983	9.73
249.2	38.4
249.417	87.55
249.633	40.45
249.85	46.59
250.067	30.21
250.284	24.06
250.501	87.55
250.717	79.36
250.934	1.54
251.151	99.84
251.368	-66.05
251.585	48.64
251.801	-8.7
252.018	3.58
252.235	56.83
252.451	11.78
252.668	-66.05
252.885	83.45
253.102	38.4
253.318	79.36
253.535	-61.95
253.752	-10.75
253.968	-12.8
254.185	36.35
254.401	40.45
254.618	91.65
254.835	-8.7
255.051	112.13
255.268	95.74
255.484	73.21
255.701	32.26
255.917	54.78
256.134	-2.56
256.351	65.02
256.567	13.82
256.784	-10.75
257	-90.62
257.217	54.78
257.433	11.78
257.65	71.17
257.866	138.75
258.082	11.78
258.299	-2.56
258.515	71.17
258.732	89.6
258.948	73.21
259.165	97.79
259.381	65.02
259.597	110.08
259.814	-72.19
260.03	15.87
260.246	71.17
260.463	56.83
260.679	65.02
260.895	87.55
261.112	46.59
261.328	-23.04
261.544	95.74
261.761	79.36
261.977	46.59
262.193	-25.09
262.409	54.78
262.626	112.13
262.842	30.21
263.058	22.02
263.274	87.55
263.49	93.69
263.707	-2.56
263.923	81.41
264.139	-33.28
264.355	73.21
264.571	71.17
264.787	24.06
265.004	13.82
265.22	91.65
265.436	-25.09
265.652	-20.99
265.868	124.41
266.084	-49.66
266.3	19.97
266.516	-2.56
266.732	-31.23
266.948	7.68
267.164	54.78
267.38	-6.66
267.596	62.98
267.812	11.78
268.028	24.06
268.244	13.82
268.46	93.69
268.676	26.11
268.892	-16.9
269.108	-43.52
269.324	-43.52
269.54	34.3
269.756	71.17
269.972	17.92
270.188	9.73
270.403	-18.94
270.619	38.4
270.835	-25.09
271.051	58.88
271.267	-29.18
271.483	40.45
271.698	75.26
271.914	62.98
272.13	30.21
272.346	69.12
272.562	9.73
272.777	71.17
272.993	103.93
273.209	36.35
273.425	-51.71
273.64	-51.71
273.856	-6.66
274.072	38.4
274.287	-39.42
274.503	60.93
274.719	36.35
274.934	13.82
275.15	-25.09
275.366	42.5
275.581	-35.33
275.797	62.98
276.012	38.4
276.228	40.45
276.444	30.21
276.659	13.82
276.875	13.82
277.09	19.97
277.306	-10.75
277.521	17.92
277.737	56.83
277.952	56.83
278.168	-2.56
278.383	91.65
278.599	-31.23
278.814	83.45
279.03	32.26
279.245	144.89
279.461	91.65
279.676	62.98
279.892	-0.51
280.107	-25.09
280.322	22.02
280.538	26.11
280.753	22.02
280.969	50.69
281.184	97.79
281.399	136.7
281.615	32.26
281.83	56.83
282.045	-2.56
282.26	7.68
282.476	-18.94
282.691	56.83
282.906	24.06
283.122	13.82
283.337	-10.75
283.552	46.59
283.767	65.02
283.983	83.45
284.198	13.82
284.413	-33.28
284.628	7.68
284.843	26.11
285.058	79.36
285.274	-33.28
285.489	-0.51
285.704	56.83
285.919	-39.42
286.134	5.63
286.349	60.93
286.564	30.21
286.779	38.4
286.995	73.21
287.21	83.45
287.425	65.02
287.64	-0.51
287.855	24.06
288.07	-78.33
288.285	36.35
288.5	79.36
288.715	56.83
288.93	42.5
289.145	36.35
289.36	136.7
289.575	11.78
289.79	50.69
290.004	-35.33
290.219	58.88
290.434	52.74
290.649	62.98
290.864	22.02
291.079	7.68
291.294	19.97
291.509	15.87
291.724	48.64
291.938	44.54
292.153	-6.66
292.368	30.21
292.583	30.21
292.798	26.11
293.012	40.45
293.227	-39.42
293.442	22.02
293.657	48.64
293.871	105.98
294.086	17.92
294.301	136.7
294.516	34.3
294.73	58.88
294.945	-16.9
295.16	-4.61
295.374	134.65
295.589	56.83
295.804	-10.75
296.018	44.54
296.233	34.3
296.447	140.8
296.662	7.68
296.877	22.02
297.091	22.02
297.306	58.88
297.52	13.82
297.735	75.26
297.949	-2.56
298.164	79.36
298.378	30.21
298.593	-35.33
298.807	-35.33
299.022	32.26
299.236	124.41
299.451	46.59
299.665	54.78
299.88	56.83
300.094	-10.75
300.309	87.55
300.523	50.69
300.737	95.74
300.952	22.02
301.166	30.21
301.381	-18.94
301.595	50.69
301.809	42.5
302.024	32.26
302.238	-14.85
302.452	65.02
302.667	7.68
302.881	50.69
303.095	30.21
303.309	95.74
303.524	108.03
303.738	13.82
303.952	-33.28
304.166	81.41
304.381	-39.42
304.595	108.03
304.809	26.11
305.023	38.4
305.237	-27.14
305.452	5.63
305.666	108.03
305.88	17.92
306.094	62.98
306.308	81.41
306.522	128.51
306.736	42.5
306.95	79.36
307.164	58.88
307.379	56.83
307.593	77.31
307.807	79.36
308.021	38.4
308.235	-2.56
308.449	24.06
308.663	-45.57
308.877	138.75
309.091	30.21
309.305	89.6
309.519	-27.14
309.733	128.51
309.947	-64
310.161	36.35
310.374	58.88
310.588	40.45
310.802	44.54
311.016	38.4
311.23	50.69
311.444	46.59
311.658	42.5
311.872	67.07
312.085	5.63
312.299	32.26
312.513	44.54
312.727	54.78
312.941	95.74
313.154	46.59
313.368	58.88
313.582	67.07
313.796	103.93
314.009	62.98
314.223	83.45
314.437	-2.56
314.651	-10.75
314.864	38.4
315.078	-14.85
315.292	9.73
315.505	32.26
315.719	56.83
315.933	32.26
316.146	46.59
316.36	-43.52
316.573	69.12
316.787	13.82
317.001	95.74
317.214	-10.75
317.428	44.54
317.641	15.87
317.855	124.41
318.068	-2.56
318.282	34.3
318.495	22.02
318.709	67.07
318.922	79.36
319.136	67.07
319.349	79.36
319.563	87.55
319.776	95.74
319.99	32.26
320.203	58.88
320.417	19.97
320.63	38.4
320.843	161.28
321.057	34.3
321.27	-2.56
321.483	13.82
321.697	103.93
321.91	54.78
322.124	130.56
322.337	71.17
322.55	62.98
322.763	54.78
322.977	79.36
323.19	46.59
323.403	30.21
323.617	62.98
323.83	62.98
324.043	-20.99
324.256	15.87
324.469	-33.28
324.683	65.02
324.896	-12.8
325.109	83.45
325.322	-39.42
325.535	46.59
325.748	105.98
325.962	26.11
326.175	5.63
326.388	26.11
326.601	22.02
326.814	105.98
327.027	24.06
327.24	130.56
327.453	-2.56
327.666	5.63
327.879	120.32
328.092	38.4
328.305	114.17
328.518	81.41
328.731	-39.42
328.944	17.92
329.157	99.84
329.37	15.87
329.583	44.54
329.796	87.55
330.009	-37.38
330.222	103.93
330.435	50.69
330.648	69.12
330.861	46.59
331.073	38.4
331.286	69.12
331.499	30.21
331.712	36.35
331.925	89.6
332.138	-4.61
332.35	34.3
332.563	-12.8
332.776	79.36
332.989	-0.51
333.202	40.45
333.414	54.78
333.627	11.78
333.84	54.78
334.053	50.69
334.265	36.35
334.478	65.02
334.691	65.02
334.903	79.36
335.116	-20.99
335.329	62.98
335.541	54.78
335.754	30.21
335.966	-18.94
336.179	30.21
336.392	30.21
336.604	71.17
336.817	50.69
337.029	48.64
337.242	103.93
337.454	134.65
337.667	-4.61
337.88	144.89
338.092	3.58
338.305	46.59
338.517	34.3
338.729	120.32
338.942	62.98
339.154	26.11
339.367	-49.66
339.579	-0.51
339.792	56.83
340.004	-6.66
340.217	71.17
340.429	54.78
340.641	15.87
340.854	62.98
341.066	40.45
341.278	38.4
341.491	128.51
341.703	128.51
341.915	7.68
342.128	32.26
342.34	67.07
342.552	15.87
342.764	50.69
342.977	1.54
343.189	32.26
343.401	50.69
343.613	42.5
343.826	-0.51
344.038	24.06
344.25	22.02
344.462	-2.56
344.674	38.4
344.886	40.45
345.099	58.88
345.311	28.16
345.523	-10.75
345.735	28.16
345.947	38.4
346.159	5.63
346.371	50.69
346.583	-0.51
346.795	138.75
347.007	93.69
347.219	26.11
347.431	73.21
347.643	44.54
347.855	54.78
348.067	73.21
348.279	81.41
348.491	44.54
348.703	3.58
348.915	30.21
349.127	26.11
349.339	30.21
349.551	-10.75
349.763	30.21
349.975	62.98
350.187	19.97
350.399	67.07
350.61	-2.56
350.822	30.21
351.034	28.16
351.246	75.26
351.458	38.4
351.669	65.02
351.881	112.13
352.093	46.59
352.305	179.71
352.517	71.17
352.728	79.36
352.94	17.92
353.152	60.93
353.363	73.21
353.575	89.6
353.787	50.69
353.999	42.5
354.21	114.17
354.422	71.17
354.633	54.78
354.845	136.7
355.057	108.03
355.268	34.3
355.48	89.6
355.692	38.4
355.903	-27.14
356.115	1.54
356.326	9.73
356.538	99.84
356.749	83.45
356.961	99.84
357.172	-18.94
357.384	-6.66
357.595	122.37
357.807	83.45
358.018	9.73
358.23	112.13
358.441	77.31
358.653	112.13
358.864	42.5
359.075	9.73
359.287	56.83
359.498	114.17
359.709	32.26
359.921	132.61
360.132	71.17
360.344	114.17
360.555	95.74
360.766	46.59
360.977	50.69
361.189	79.36
361.4	95.74
361.611	1.54
361.823	30.21
362.034	71.17
362.245	-49.66
362.456	32.26
362.667	114.17
362.879	58.88
363.09	38.4
363.301	132.61
363.512	30.21
363.723	-33.28
363.935	-33.28
364.146	48.64
364.357	71.17
364.568	71.17
364.779	13.82
364.99	40.45
365.201	42.5
365.412	71.17
365.623	58.88
365.834	73.21
366.045	87.55
366.256	13.82
366.467	50.69
366.678	128.51
366.889	-29.18
367.1	9.73
367.311	58.88
367.522	-6.66
367.733	9.73
367.944	71.17
368.155	1.54
368.366	101.89
368.577	62.98
368.788	44.54
368.999	5.63
369.209	13.82
369.42	151.04
369.631	73.21
369.842	120.32
370.053	60.93
370.264	24.06
370.474	38.4
370.685	97.79
370.896	54.78
371.107	79.36
371.317	38.4
371.528	48.64
371.739	108.03
371.95	30.21
372.16	97.79
372.371	-6.66
372.582	95.74
372.792	-16.9
373.003	87.55
373.214	71.17
373.424	54.78
373.635	48.64
373.846	30.21
374.056	62.98
374.267	97.79
374.477	71.17
374.688	30.21
374.898	13.82
375.109	48.64
375.319	54.78
375.53	103.93
375.74	79.36
375.951	48.64
376.161	85.5
376.372	89.6
376.582	46.59
376.793	62.98
377.003	34.3
377.214	34.3
377.424	46.59
377.635	79.36
377.845	-4.61
378.055	105.98
378.266	28.16
378.476	58.88
378.686	54.78
378.897	67.07
379.107	44.54
379.317	30.21
379.528	48.64
379.738	81.41
379.948	128.51
380.158	56.83
380.369	32.26
380.579	52.74
380.789	42.5
380.999	81.41
381.21	83.45
381.42	54.78
381.63	-2.56
381.84	77.31
382.05	5.63
382.261	50.69
382.471	17.92
382.681	-8.7
382.891	22.02
383.101	54.78
383.311	38.4
383.521	-31.23
383.731	128.51
383.941	185.85
384.151	13.82
384.361	75.26
384.571	75.26
384.781	95.74
384.991	13.82
385.201	103.93
385.411	62.98
385.621	112.13
385.831	50.69
386.041	79.36
386.251	108.03
386.461	122.37
386.671	71.17
386.881	50.69
387.091	-10.75
387.301	120.32
387.511	99.84
387.72	108.03
387.93	-61.95
388.14	34.3
388.35	38.4
388.56	171.52
388.769	65.02
388.979	13.82
389.189	50.69
389.399	-12.8
389.609	38.4
389.818	130.56
390.028	118.27
390.238	79.36
390.447	-8.7
390.657	-6.66
390.867	22.02
391.076	65.02
391.286	75.26
391.496	22.02
391.705	34.3
391.915	112.13
392.125	144.89
392.334	87.55
392.544	79.36
392.753	99.84
392.963	93.69
393.172	54.78
393.382	36.35
393.591	79.36
393.801	89.6
394.01	73.21
394.22	89.6
394.429	34.3
394.639	112.13
394.848	108.03
395.058	144.89
395.267	85.5
395.477	103.93
395.686	165.37
395.895	155.13
396.105	140.8
396.314	54.78
396.524	38.4
396.733	56.83
396.942	62.98
397.152	54.78
397.361	112.13
397.57	99.84
397.78	71.17
397.989	71.17
398.198	142.85
398.407	81.41
398.617	89.6
398.826	93.69
399.035	13.82
399.244	95.74
399.453	97.79
399.663	97.79
399.872	155.13
400.081	73.21
400.29	132.61
400.499	24.06
400.708	144.89
400.917	65.02
401.127	11.78
401.336	7.68
401.545	161.28
401.754	132.61
401.963	79.36
402.172	46.59
402.381	136.7
402.59	30.21
402.799	71.17
403.008	169.47
403.217	134.65
403.426	124.41
403.635	46.59
403.844	161.28
404.053	65.02
404.262	81.41
404.471	103.93
404.68	163.33
404.888	181.76
405.097	138.75
405.306	187.9
405.515	126.46
405.724	155.13
405.933	128.51
406.142	148.99
406.35	140.8
406.559	202.24
406.768	161.28
406.977	146.94
407.185	130.56
407.394	157.18
407.603	89.6
407.812	210.43
408.02	249.34
408.229	237.05
408.438	202.24
408.646	185.85
408.855	140.8
409.064	280.06
409.272	243.2
409.481	243.2
409.69	280.06
409.898	259.58
410.107	298.49
410.315	308.73
410.524	206.33
410.733	269.82
410.941	247.29
411.15	292.35
411.358	325.12
411.567	421.37
411.775	370.17
411.984	386.55
412.192	376.31
412.401	452.09
412.609	366.07
412.818	441.85
413.026	425.47
413.234	407.03
413.443	488.95
413.651	480.76
413.86	572.92
414.068	542.2
414.276	574.97
414.485	548.34
414.693	615.93
414.901	589.3
415.11	622.07
415.318	638.45
415.526	579.06
415.734	693.75
415.943	630.26
416.151	726.52
416.359	663.03
416.567	833.01
416.776	785.91
416.984	738.8
417.192	914.93
417.4	800.24
417.608	826.87
417.817	761.33
418.025	855.54
418.233	988.66
418.441	959.99
418.649	921.07
418.857	1162.73
419.065	1140.21
419.273	1046
419.481	1195.5
419.689	1201.65
419.897	1213.93
420.105	1238.51
420.313	1299.95
420.521	1381.87
420.729	1390.06
420.937	1431.02
421.145	1402.35
421.353	1549.8
421.561	1644.01
421.769	1607.14
421.977	1668.58
422.185	1783.27
422.393	1824.23
422.601	2029.03
422.809	1924.58
423.017	1932.77
423.224	2035.17
423.432	2086.37
423.64	2080.22
423.848	2254.3
424.056	2227.68
424.263	2336.22
424.471	2391.52
424.679	2455
424.887	2465.24
425.094	2815.45
425.302	2602.46
425.51	2620.89
425.718	2807.25
425.925	2741.72
426.133	2893.27
426.341	3159.5
426.548	3306.96
426.756	3245.52
426.964	3317.2
427.171	3478.99
427.379	3585.48
427.586	3642.82
427.794	3880.39
428.001	3976.64
428.209	4128.19
428.417	3978.69
428.624	4298.17
428.832	4265.41
429.039	4244.93
429.247	4294.08
429.454	4740.54
429.662	4980.15
429.869	4810.17
430.076	5031.35
430.284	4969.91
430.491	5146.03
430.699	5455.28
430.906	5297.58
431.114	5451.18
431.321	5651.88
431.528	5633.45
431.736	6133.15
431.943	6440.35
432.15	6135.2
432.358	6364.57
432.565	6516.12
432.772	6655.39
432.979	6944.15
433.187	7230.87
433.394	7038.36
433.601	7533.97
433.808	7462.29
434.016	7554.44
434.223	7681.42
434.43	8197.51
434.637	8181.12
434.844	8508.8
435.052	8805.75
435.259	8869.24
435.466	8815.99
435.673	8672.64
435.88	9229.68
436.087	9766.25
436.294	9837.93
436.501	9481.58
436.708	9624.94
436.915	10040.68
437.122	10405.22
437.329	10501.47
437.537	10747.23
437.743	11001.18
437.95	10771.8
438.157	11511.12
438.364	11806.03
438.571	11783.5
438.778	11658.57
438.985	12918.07
439.192	12754.24
439.399	12791.1
439.606	12586.3
439.813	13430.07
440.02	14157.1
440.227	13808.94
440.433	13901.1
440.64	14079.27
440.847	13952.3
441.054	14540.07
441.261	15246.62
441.467	15369.49
441.674	15463.7
441.881	15922.45
442.088	16004.36
442.294	15688.98
442.501	16268.55
442.708	16545.03
442.914	17396.98
443.121	17782
443.328	17609.97
443.534	18498.79
443.741	17970.41
443.948	18298.09
444.154	19317.98
444.361	19084.51
444.568	19115.23
444.774	19127.52
444.981	19213.53
445.187	20036.81
445.394	20720.84
445.6	20427.98
445.807	22422.7
446.013	21597.37
446.22	21810.36
446.426	22928.55
446.633	22951.07
446.839	23856.28
447.046	22647.97
447.252	24110.22
447.459	24110.22
447.665	23852.18
447.871	24874.12
448.078	26000.5
448.284	24949.89
448.491	25793.65
448.697	26354.8
448.903	27231.33
449.11	27235.42
449.316	26733.67
449.522	26895.46
449.728	28011.6
449.935	28163.15
450.141	28230.74
450.347	28730.44
450.553	27688.03
450.76	28496.97
450.966	29152.32
451.172	29094.98
451.378	29553.73
451.584	28793.93
451.791	30053.43
451.997	29740.09
452.203	30121.01
452.409	29940.79
452.615	30307.38
452.821	29219.91
453.027	28456.01
453.233	30309.43
453.44	28992.58
453.646	29340.74
453.852	29271.11
454.058	30243.89
454.264	29035.59
454.47	29652.03
454.676	28722.25
454.882	30071.86
455.088	27665.5
455.294	27753.56
455.5	28372.05
455.705	28376.14
455.911	27503.71
456.117	26860.65
456.323	26719.34
456.529	25056.39
456.735	26647.66
456.941	25842.81
457.147	25433.21
457.352	24663.18
457.558	24085.65
457.764	24239.25
457.97	24018.07
458.176	23493.79
458.381	23424.15
458.587	22246.57
458.793	22555.82
458.999	20997.31
459.204	22674.6
459.41	22002.86
459.616	20817.09
459.821	20501.7
460.027	20335.82
460.233	20264.14
460.438	19113.18
460.644	19377.37
460.85	18521.32
461.055	18242.79
461.261	18101.48
461.466	16686.34
461.672	16106.76
461.878	17513.72
462.083	16438.53
462.289	16047.37
462.494	15865.1
462.7	15183.13
462.905	14677.28
463.111	15234.33
463.316	15320.34
463.522	15066.39
463.727	14912.8
463.932	14998.81
464.138	14636.32
464.343	14771.49
464.549	14669.09
464.754	14869.79
464.959	14685.47
465.165	14646.56
465.37	14028.07
465.575	13792.56
465.781	14140.71
465.986	14363.94
466.191	13743.41
466.397	13593.9
466.602	12977.47
466.807	13198.65
467.012	13292.85
467.218	13221.17
467.423	12735.81
467.628	13215.03
467.833	13567.28
468.038	13323.57
468.244	13045.05
468.449	13350.2
468.654	12815.68
468.859	13024.57
469.064	12758.33
469.269	12242.25
469.474	12348.74
469.679	12559.68
469.885	12178.76
470.09	12485.95
470.295	12186.95
470.5	11801.93
470.705	12162.37
470.91	12055.88
471.115	11543.89
471.32	11654.48
471.525	11568.46
471.73	11638.09
471.935	11351.38
472.139	11091.29
472.344	11378
472.549	11476.3
472.754	11244.88
472.959	10706.27
473.164	10646.88
473.369	10503.52
473.574	10794.33
473.778	10644.83
473.983	10583.39
474.188	10763.61
474.393	10106.21
474.598	10225
474.802	10364.26
475.007	9928.04
475.212	9991.53
475.417	9735.53
475.621	9700.72
475.826	9665.9
476.031	9600.37
476.235	9229.68
476.44	9508.21
476.645	9078.13
476.849	9160.05
477.054	9033.08
477.259	9033.08
477.463	9063.8
477.668	8717.69
477.872	8934.78
478.077	8631.68
478.282	8545.66
478.486	8529.28
478.691	8381.82
478.895	8377.73
479.1	8414.59
479.304	8310.15
479.509	8127.88
479.713	8355.2
479.918	7972.23
480.122	8082.82
480.326	8054.15
480.531	8058.25
480.735	8074.63
480.94	7818.63
481.144	8140.16
481.348	7820.68
481.553	7974.28
481.757	7779.72
481.961	7749
482.166	7927.18
482.37	7660.94
482.574	7873.93
482.778	7763.34
482.983	7996.81
483.187	7746.95
483.391	7781.77
483.595	7722.38
483.8	7628.17
484.004	7619.98
484.208	7794.06
484.412	7751.05
484.616	7650.7
484.821	7789.96
485.025	7478.67
485.229	7857.54
485.433	7701.9
485.637	7544.2
485.841	7589.26
486.045	7781.77
486.249	7701.9
486.453	7585.16
486.657	7568.78
486.861	7626.12
487.065	7605.64
487.269	7744.91
487.473	7495.05
487.677	7742.86
487.881	7961.99
488.085	7730.57
488.289	7802.25
488.493	7705.99
488.697	7632.27
488.901	7558.54
489.105	7757.19
489.309	7839.11
489.512	7771.53
489.716	7974.28
489.92	7693.71
490.124	7650.7
490.328	8005
490.531	7822.73
490.735	7923.08
490.939	7929.22
491.143	8000.9
491.346	7787.91
491.55	8027.53
491.754	8019.33
491.958	8127.88
492.161	8050.05
492.365	8453.5
492.569	8045.96
492.772	8174.98
492.976	8134.02
493.18	8240.51
493.383	8347.01
493.587	8277.38
493.79	8603
493.994	8447.36
494.197	8467.84
494.401	8484.22
494.605	8547.71
494.808	8590.72
495.012	8682.88
495.215	8852.86
495.419	8725.88
495.622	8721.79
495.825	8844.67
496.029	8809.85
496.232	9307.51
496.436	8975.74
496.639	9448.82
496.843	9203.06
497.046	9694.57
497.249	9571.69
497.453	9756.01
497.656	9743.72
497.859	9817.45
498.063	9729.39
498.266	10081.64
498.469	9864.55
498.673	9796.97
498.876	10026.34
499.079	10177.89
499.282	10298.72
499.485	10548.58
499.689	10452.32
499.892	10730.84
500.095	10818.91
500.298	10917.21
500.501	10681.69
500.705	11195.73
500.908	11380.05
501.111	11449.68
501.314	11410.77
501.517	11470.16
501.72	11791.69
501.923	11773.26
502.126	12236.1
502.329	12365.12
502.532	12260.68
502.735	12322.12
502.938	12606.78
503.141	12635.46
503.344	12764.48
503.547	12784.96
503.75	13081.91
503.953	13346.1
504.156	13120.82
504.359	13550.9
504.562	13409.59
504.765	13825.33
504.968	13800.75
505.17	14079.27
505.373	13940.01
505.576	14187.82
505.779	14581.03
505.982	14509.35
506.185	14816.54
506.387	14837.02
506.59	14951.71
506.793	15455.51
506.996	15285.53
507.198	15701.26
507.401	15537.43
507.604	15615.25
507.807	16127.24
508.009	16225.54
508.212	16149.77
508.415	16401.67
508.617	16620.8
508.82	17011.96
509.022	16889.09
509.225	17249.53
509.428	17554.68
509.63	17536.24
509.833	17530.1
510.035	18154.73
510.238	17962.22
510.44	18167.02
510.643	18384.1
510.845	18535.65
511.048	18642.15
511.25	18838.75
511.453	18851.04
511.655	19502.29
511.858	19477.72
512.06	19516.63
512.262	19694.8
512.465	19473.62
512.667	20192.46
512.87	20092.11
513.072	20337.87
513.274	21001.41
513.477	20747.46
513.679	20923.58
513.881	21279.93
514.084	21654.71
514.286	21580.98
514.488	21720.24
514.69	22062.26
514.893	22521
515.095	22373.55
515.297	22686.89
515.499	22854.82
515.701	22887.59
515.904	23313.56
516.106	23229.6
516.308	23485.59
516.51	23827.6
516.712	24040.59
516.914	24233.1
517.116	24501.39
517.318	24802.44
517.52	24601.74
517.722	24933.51
517.925	25027.71
518.127	25228.42
518.329	25764.98
518.531	25527.42
518.733	25961.59
518.935	26160.24
519.136	26248.3
519.338	26584.17
519.54	26496.11
519.742	26946.66
519.944	26825.83
520.146	27595.87
520.348	28009.56
520.55	28036.18
520.752	27632.73
520.954	28320.85
521.155	28320.85
521.357	28742.73
521.559	28527.69
521.761	29185.09
521.963	29363.26
522.164	29365.31
522.366	29105.22
522.568	29848.63
522.77	29858.87
522.971	30391.34
523.173	30362.67
523.375	30485.55
523.576	30424.11
523.778	30635.05
523.98	31028.26
524.181	30843.95
524.383	31228.96
524.584	31640.61
524.786	31628.32
524.988	31550.49
525.189	32007.19
525.391	32257.04
525.592	32136.21
525.794	32467.98
525.995	32422.93
526.197	32838.67
526.398	32588.81
526.6	32791.56
526.801	32926.73
527.003	33094.66
527.204	32728.08
527.406	33399.81
527.607	33401.86
527.808	33614.85
528.01	33102.85
528.211	33162.25
528.412	33620.99
528.614	33754.11
528.815	33670.14
529.016	33975.29
529.218	33786.88
529.419	34083.83
529.62	34094.07
529.822	33985.53
530.023	34450.42
530.224	34345.97
530.425	34180.09
530.626	34264.05
530.828	34096.12
531.029	34696.17
531.23	34509.81
531.431	34374.64
531.632	34923.5
531.833	34698.22
532.035	34671.6
532.236	34939.88
532.437	34694.13
532.638	34769.9
532.839	34943.98
533.04	34989.03
533.241	34599.92
533.442	35249.13
533.643	34931.69
533.844	35142.63
534.045	35029.99
534.246	34790.38
534.447	35212.26
534.648	34849.77
534.849	34991.08
535.05	35042.28
535.251	35163.11
535.451	34796.53
535.652	34966.51
535.853	34714.61
536.054	35019.75
536.255	35136.49
536.456	34636.78
536.657	35195.88
536.857	35013.61
537.058	34622.45
537.259	34937.83
537.46	34874.35
537.66	35095.53
537.861	35171.3
538.062	34935.79
538.263	35148.78
538.463	34683.89
538.664	34745.33
538.865	34833.39
539.065	35404.77
539.266	34442.23
539.466	35257.32
539.667	34626.54
539.868	35095.53
540.068	34819.05
540.269	35034.09
540.469	35073
540.67	34907.12
540.87	34792.43
541.071	34632.69
541.271	34757.61
541.472	34581.49
541.672	34894.83
541.873	34626.54
542.073	34440.18
542.274	34886.64
542.474	34874.35
542.675	34755.57
542.875	35073
543.075	34649.07
543.276	34589.68
543.476	34870.25
543.676	34548.72
543.877	34952.17
544.077	34614.26
544.277	34610.16
544.478	34661.36
544.678	35179.5
544.878	34509.81
545.078	34534.39
545.279	34501.62
545.479	34415.6
545.679	35017.71
545.879	34556.91
546.079	34692.08
546.28	34526.19
546.48	34429.94
546.68	34708.46
546.88	34673.65
547.08	34331.64
547.28	34278.39
547.48	34108.41
547.68	34718.7
547.88	34550.77
548.081	34604.02
548.281	34132.98
548.481	34538.48
548.681	34483.19
548.881	34405.36
549.081	34878.44
549.28	34444.27
549.48	34718.7
549.68	34270.2
549.88	34806.76
550.08	34175.99
550.28	34452.47
550.48	34196.47
550.68	34800.62
550.88	34032.63
551.08	34331.64
551.279	34458.61
551.479	34069.5
551.679	34362.36
551.879	33735.68
552.079	34288.63
552.278	34368.5
552.478	34311.16
552.678	34231.29
552.878	34210.81
553.077	33903.61
553.277	34028.54
553.477	34534.39
553.676	34094.07
553.876	34141.18
554.076	33979.39
554.275	33944.57
554.475	33641.47
554.674	33768.44
554.874	34022.39
555.074	33956.86
555.273	33895.42
555.473	34026.49
555.672	33707.01
555.872	34001.91
556.071	33926.14
556.271	33938.43
556.47	33616.9
556.67	33461.25
556.869	33600.51
557.068	33684.48
557.268	33524.74
557.467	33358.85
557.667	33532.93
557.866	33666.05
558.065	33348.61
558.265	33180.68
558.464	33328.13
558.663	33676.29
558.863	32994.31
559.062	33377.28
559.261	32986.12
559.461	33440.77
559.66	33190.92
559.859	33143.81
560.058	33010.7
560.258	32908.3
560.457	32615.44
560.656	33109
560.855	32799.76
561.054	32885.77
561.253	32711.69
561.453	32824.33
561.652	32361.49
561.851	33070.09
562.05	32535.57
562.249	32568.34
562.448	32615.44
562.647	32357.39
562.846	32603.15
563.045	32197.65
563.244	32138.26
563.443	32355.35
563.642	31894.55
563.841	32134.17
564.04	31810.59
564.239	32490.51
564.438	31769.63
564.637	31763.48
564.836	31917.08
565.035	31693.85
565.234	32082.97
565.432	31630.37
565.631	31470.62
565.83	31757.34
566.029	31220.77
566.228	31530.01
566.427	31200.29
566.625	31151.14
566.824	30903.34
567.023	31515.68
567.222	30809.13
567.42	31163.43
567.619	30981.16
567.818	30845.99
568.016	31083.56
568.215	30710.83
568.414	30567.47
568.612	31177.76
568.811	30452.78
569.01	30870.57
569.208	30598.19
569.407	30422.06
569.605	30241.84
569.804	30454.83
570.002	30139.44
570.201	30510.13
570.4	29998.13
570.598	29881.4
570.797	30110.77
570.995	29918.26
571.193	29811.77
571.392	29883.45
571.59	29684.8
571.789	29723.71
571.987	29389.89
572.186	29568.06
572.384	29328.45
572.582	29699.13
572.781	29525.05
572.979	28957.77
573.177	29353.02
573.376	29355.07
573.574	29099.08
573.772	28906.57
573.971	28843.08
574.169	28484.69
574.367	28464.21
574.565	28863.56
574.763	28619.85
574.962	28775.5
575.16	28247.12
575.358	28767.31
575.556	28075.09
575.754	28472.4
575.952	28187.73
576.151	28484.69
576.349	27804.76
576.547	27919.45
576.745	27941.97
576.943	27769.94
577.141	27743.32
577.339	27722.84
577.537	27489.37
577.735	27544.67
577.933	27485.28
578.131	27401.31
578.329	27325.54
578.527	27159.65
578.725	27272.29
578.923	27374.69
579.121	27128.93
579.319	27229.28
579.516	27053.16
579.714	27298.91
579.912	26936.42
580.11	26915.94
580.308	26885.22
580.506	26922.09
580.704	25957.49
580.901	26555.5
581.099	26627.18
581.297	26217.58
581.495	26346.61
581.692	26289.26
581.89	25914.48
582.088	26551.4
582.285	25980.02
582.483	25945.2
582.681	26195.06
582.878	26055.79
583.076	25664.63
583.274	25875.57
583.471	25664.63
583.669	25726.07
583.866	25455.74
584.064	25609.34
584.262	25275.52
584.459	25453.69
584.657	25238.65
584.854	25572.47
585.052	24941.7
585.249	25367.68
585.447	25107.58
585.644	24743.05
585.841	24910.98
586.039	25025.67
586.236	24560.78
586.434	24697.99
586.631	24720.52
586.828	24450.19
587.026	24347.79
587.223	24444.04
587.42	24405.13
587.618	24186
587.815	24022.16
588.012	24423.56
588.21	24175.76
588.407	24028.31
588.604	23925.91
588.801	23907.48
588.999	23837.84
589.196	23561.37
589.393	23829.65
589.59	23530.65
589.787	23608.47
589.984	23383.2
590.182	23315.61
590.379	23131.3
590.576	23260.32
590.773	23278.75
590.97	22994.08
591.167	23205.02
591.364	22705.32
591.561	23004.32
591.758	22811.81
591.955	22791.33
592.152	23094.43
592.349	22369.45
592.546	22885.54
592.743	22777
592.94	22123.69
593.137	22727.85
593.334	22590.63
593.531	22135.98
593.727	22068.4
593.924	22332.59
594.121	21773.49
594.318	22066.35
594.515	21886.13
594.712	22054.06
594.908	21746.87
595.105	21955.76
595.302	21562.55
595.499	21574.84
595.696	21576.89
595.892	21322.94
596.089	21576.89
596.286	21447.86
596.482	21521.59
596.679	21454.01
596.876	21267.64
597.072	21306.55
597.269	21152.96
597.466	20909.25
597.662	21357.75
597.859	20982.98
598.055	21144.77
598.252	20624.58
598.448	20808.9
598.645	20804.8
598.841	20962.5
599.038	20464.84
599.234	20589.77
599.431	20372.68
599.627	20192.46
599.824	20366.54
600.02	20061.39
600.217	20346.06
600.413	19952.85
600.609	20094.16
600.806	20079.82
601.002	20133.07
601.198	19893.46
601.395	19784.91
601.591	19719.38
601.787	19913.94
601.984	19690.71
602.18	19870.93
602.376	19430.62
602.572	19494.1
602.769	19406.04
602.965	19123.42
603.161	19322.07
603.357	19217.63
603.553	19086.56
603.75	19406.04
603.946	19096.8
604.142	19162.33
604.338	18758.88
604.534	19100.89
604.73	18619.62
604.926	18732.26
605.122	18709.73
605.318	18435.3
605.514	18554.08
605.71	18549.99
605.906	18795.75
606.102	18691.3
606.298	18382.06
606.494	18289.9
606.69	18306.28
606.886	18359.53
607.082	18171.11
607.278	18199.79
607.474	17790.19
607.67	18138.35
607.866	17915.12
608.062	18042.09
608.257	17818.86
608.453	18111.72
608.649	18019.57
608.845	17644.79
609.041	17753.33
609.236	17902.83
609.432	17663.22
609.628	17704.18
609.824	17519.86
610.019	17579.25
610.215	17751.28
610.411	17695.99
610.606	17728.75
610.802	17366.26
610.998	17429.75
611.193	17499.38
611.389	17591.54
611.584	17143.03
611.78	17124.6
611.976	17177.85
612.171	17333.5
612.367	17116.41
612.562	17052.92
612.758	16991.48
612.953	16940.29
613.149	17161.47
613.344	16944.38
613.539	17091.84
613.735	17052.92
613.93	17065.21
614.126	16915.71
614.321	16999.68
614.517	16850.17
614.712	16952.57
614.907	16545.03
615.103	16813.31
615.298	16872.7
615.493	16819.46
615.688	16153.87
615.884	16899.33
616.079	16329.99
616.274	16590.08
616.47	16573.7
616.665	16520.45
616.86	16356.61
617.055	16635.14
617.25	16409.86
617.445	16467.2
617.641	16061.71
617.836	16020.75
618.031	15961.36
618.226	16256.26
618.421	15873.29
618.616	16246.02
618.811	15871.25
619.006	16033.04
619.201	15504.66
619.396	15637.78
619.591	15516.95
619.786	15987.98
619.981	15490.32
620.176	15439.12
620.371	15504.66
620.566	15389.97
620.761	15445.27
620.956	15432.98
621.151	15164.7
621.346	15088.92
621.541	15080.73
621.735	14847.26
621.93	14824.73
622.125	15009.05
622.32	14832.93
622.515	14826.78
622.709	14556.45
622.904	14599.46
623.099	14562.59
623.294	14556.45
623.488	14279.97
623.683	14062.89
623.878	14042.41
624.072	14220.58
624.267	14005.55
624.462	13903.15
624.656	13870.38
624.851	14083.37
625.046	13827.37
625.24	13702.45
625.435	13630.77
625.629	13587.76
625.824	13309.24
626.018	13534.51
626.213	13092.15
626.407	13387.06
626.602	13282.61
626.796	13325.62
626.991	13096.25
627.185	13131.06
627.38	13049.14
627.574	12694.85
627.768	12868.92
627.963	12752.19
628.157	12502.34
628.352	12643.65
628.546	12414.27
628.74	12387.65
628.935	12367.17
629.129	12086.6
629.323	12244.29
629.517	12279.11
629.712	12049.74
629.906	11957.58
630.1	11838.8
630.294	12039.5
630.489	11916.62
630.683	11709.77
630.877	11629.9
631.071	11797.84
631.265	11588.94
631.459	11664.72
631.653	11533.65
631.848	11441.49
632.042	11304.28
632.236	11353.43
632.43	11232.6
632.624	11095.38
632.818	11081.05
633.012	10941.79
633.206	10960.22
633.4	10947.93
633.594	10970.46
633.788	10825.05
633.982	10704.22
634.176	10679.65
634.369	10720.6
634.563	10661.21
634.757	10349.92
634.951	10624.35
635.145	10433.89
635.339	10483.04
635.533	10220.9
635.726	10515.81
635.92	10102.12
636.114	10437.98
636.308	10132.84
636.501	10052.97
636.695	10100.07
636.889	10065.25
637.083	10102.12
637.276	9923.94
637.47	9954.66
637.664	9532.78
637.857	9745.77
638.051	9649.52
638.244	9463.15
638.438	9457.01
638.632	9452.91
638.825	9516.4
639.019	9467.25
639.212	9258.35
639.406	9205.11
639.599	9262.45
639.793	9207.16
639.986	9088.37
640.18	9000.31
640.373	8959.35
640.567	9074.04
640.76	9082.23
640.954	8879.48
641.147	8781.18
641.34	8629.63
641.534	8674.68
641.727	8981.88
641.92	8813.95
642.114	8568.19
642.307	8588.67
642.5	8596.86
642.694	8525.18
642.887	8445.31
643.08	8453.5
643.273	8541.57
643.467	8447.36
643.66	8217.99
643.853	8179.08
644.046	8107.4
644.239	8201.6
644.432	8017.29
644.626	7943.56
644.819	8150.4
645.012	8045.96
645.205	7984.52
645.398	7945.61
645.591	7853.45
645.784	7792.01
645.977	7687.56
646.17	7697.8
646.363	7689.61
646.556	7476.62
646.749	7710.09
646.942	7742.86
647.135	7669.13
647.328	7361.94
647.521	7484.81
647.714	7310.74
647.907	7255.44
648.099	7263.63
648.292	7411.09
648.485	7138.71
648.678	7175.57
648.871	7159.19
649.064	7267.73
649.256	7196.05
649.449	7026.07
649.642	7026.07
649.835	6972.82
650.027	6995.35
650.22	6825.37
650.413	6925.72
650.605	6927.77
650.798	6614.43
650.991	6747.55
651.183	6780.31
651.376	6698.39
651.568	6657.43
651.761	6751.64
651.954	6675.87
652.146	6636.95
652.339	6573.47
652.531	6419.87
652.724	6550.94
652.916	6407.58
653.109	6264.22
653.301	6391.2
653.494	6421.92
653.686	6145.44
653.879	6288.8
654.071	6194.59
654.263	6014.37
654.456	6208.93
654.648	6227.36
654.84	6161.83
655.033	5983.65
655.225	5993.89
655.417	5944.74
655.61	6075.81
655.802	5981.6
655.994	5856.68
656.186	5809.58
656.379	5922.21
656.571	5805.48
656.763	5574.06
656.955	5694.89
657.148	5701.03
657.34	5672.36
657.532	5608.87
657.724	5567.92
657.916	5576.11
658.108	5442.99
658.3	5557.68
658.492	5535.15
658.684	5600.68
658.876	5436.85
659.068	5389.74
659.26	5488.04
659.452	5371.31
659.644	5399.98
659.836	5186.99
660.028	5287.34
660.22	5248.43
660.412	5209.52
660.604	5178.8
660.796	5191.09
660.988	5309.87
661.18	5027.25
661.372	5182.9
661.563	5195.18
661.755	5012.92
661.947	5025.2
662.139	5002.68
662.331	4857.27
662.522	4756.92
662.714	4926.9
662.906	4707.77
663.097	4695.48
663.289	4711.86
663.481	4675
663.673	4896.18
663.864	4724.15
664.056	4744.63
664.247	4652.47
664.439	4605.37
664.631	4715.96
664.822	4642.23
665.014	4791.73
665.205	4535.74
665.397	4548.03
665.588	4568.51
665.78	4535.74
665.971	4492.73
666.163	4468.16
666.354	4453.82
666.546	4486.59
666.737	4281.79
666.929	4302.27
667.12	4400.57
667.311	4335.04
667.503	4287.93
667.694	4318.65
667.885	4257.22
668.077	4246.98
668.268	4169.15
668.459	4322.75
668.651	4320.7
668.842	4031.94
669.033	4064.71
669.224	4134.34
669.416	4099.52
669.607	4146.62
669.798	3970.5
669.989	4203.97
670.18	4072.9
670.371	4052.42
670.563	4019.65
670.754	4019.65
670.945	3925.44
671.136	4130.24
671.327	3919.3
671.518	3835.33
671.709	3909.06
671.9	3933.64
672.091	3898.82
672.282	3741.13
672.473	3753.41
672.664	3835.33
672.855	3866.05
673.046	3868.1
673.237	3833.29
673.428	3775.94
673.619	3614.15
673.809	3675.59
674	3655.11
674.191	3761.61
674.382	3679.69
674.573	3585.48
674.764	3638.73
674.954	3618.25
675.145	3483.08
675.336	3491.27
675.527	3663.3
675.717	3675.59
675.908	3659.21
676.099	3599.82
676.289	3517.9
676.48	3487.18
676.671	3456.46
676.861	3505.61
677.052	3513.8
677.243	3528.14
677.433	3495.37
677.624	3495.37
677.814	3438.03
678.005	3364.3
678.195	3335.63
678.386	3401.16
678.576	3374.54
678.767	3352.01
678.957	3601.87
679.148	3386.83
679.338	3468.75
679.529	3309.01
679.719	3220.94
679.909	3315.15
680.1	3266
680.29	3237.33
680.481	3403.21
680.671	3229.13
680.861	3200.46
681.052	3315.15
681.242	3229.13
681.432	3259.85
681.622	3249.61
681.813	3282.38
682.003	3235.28
682.193	3149.26
682.383	3352.01
682.573	3311.05
682.764	3116.5
682.954	3161.55
683.144	3177.94
683.334	3171.79
683.524	3177.94
683.714	3145.17
683.904	3200.46
684.094	3083.73
684.284	3061.2
684.474	2987.47
684.664	3079.63
684.854	3044.82
685.044	3159.5
685.234	3128.78
685.424	2960.85
685.614	3020.24
685.804	3063.25
685.994	2870.74
686.184	2913.75
686.374	3143.12
686.564	2840.02
686.753	2954.71
686.943	2897.36
687.133	2889.17
687.323	2923.99
687.513	2893.27
687.702	2866.64
687.892	2817.49
688.082	2895.32
688.272	2876.88
688.461	2756.05
688.651	2893.27
688.841	2786.77
689.03	2893.27
689.22	2780.63
689.41	2813.4
689.599	2864.6
689.789	2846.16
689.979	2790.87
690.168	2665.94
690.358	2786.77
690.547	2663.9
690.737	2784.73
690.926	2702.81
691.116	2547.16
691.305	2596.31
691.495	2606.55
691.684	2596.31
691.874	2571.74
692.063	2553.31
692.252	2586.07
692.442	2594.26
692.631	2614.74
692.82	2614.74
693.01	2627.03
693.199	2586.07
693.388	2469.34
693.578	2489.82
693.767	2471.39
693.956	2463.19
694.146	2397.66
694.335	2551.26
694.524	2391.52
694.713	2471.39
694.902	2364.89
695.092	2424.28
695.281	2278.88
695.47	2469.34
695.659	2366.94
695.848	2391.52
696.037	2430.43
696.226	2418.14
696.415	2325.98
696.604	2426.33
696.793	2356.7
696.982	2340.32
697.171	2270.69
697.36	2328.03
697.549	2364.89
697.738	2201.05
697.927	2266.59
698.116	2213.34
698.305	2412
698.494	2117.09
698.683	2332.12
698.872	2280.93
699.061	2217.44
699.25	2225.63
699.438	2211.29
699.627	2143.71
699.816	2356.7
700.005	2229.73
700.193	2237.92
700.382	2180.57
700.571	2209.25
700.76	2233.82
700.948	2192.86
701.137	2260.45
701.326	2233.82
701.514	2166.24
701.703	2217.44
701.892	2196.96
702.08	2143.71
702.269	2192.86
702.457	2135.52
702.646	2256.35
702.834	2102.75
703.023	2164.19
703.212	2211.29
703.4	2237.92
703.589	2186.72
703.777	2127.33
703.965	2072.03
704.154	2096.61
704.342	2156
704.531	2131.42
704.719	2069.98
704.907	2205.15
705.096	2119.14
705.284	2176.48
705.472	2168.29
705.661	2235.87
705.849	2110.94
706.037	2135.52
706.226	2119.14
706.414	2088.42
706.602	2100.7
706.79	2094.56
706.979	2110.94
707.167	2110.94
707.355	2178.53
707.543	2096.61
707.731	2125.28
707.919	2059.74
708.107	2094.56
708.296	2053.6
708.484	2145.76
708.672	2102.75
708.86	2086.37
709.048	2106.85
709.236	2020.83
709.424	2082.27
709.612	2135.52
709.8	2123.23
709.988	1959.39
710.176	2110.94
710.364	2098.66
710.551	2012.64
710.739	2069.98
710.927	2078.18
711.115	2065.89
711.303	2074.08
711.491	2127.33
711.679	2153.95
711.866	2176.48
712.054	2061.79
712.242	2098.66
712.43	2055.65
712.617	2014.69
712.805	2080.22
712.993	2106.85
713.181	2055.65
713.368	2022.88
713.556	2104.8
713.744	2045.41
713.931	2074.08
714.119	2135.52
714.306	1996.26
714.494	1832.42
714.682	2057.7
714.869	1990.11
715.057	2020.83
715.244	2010.59
715.432	2209.25
715.619	2074.08
715.807	2053.6
715.994	2012.64
716.182	2078.18
716.369	2055.65
716.556	2156
716.744	2014.69
716.931	2033.12
717.119	2090.46
717.306	1981.92
717.493	2063.84
717.681	2072.03
717.868	1975.78
718.055	2106.85
718.242	2080.22
718.43	1998.31
718.617	2121.18
718.804	2008.55
718.991	2012.64
719.179	2008.55
719.366	2121.18
719.553	2020.83
719.74	2026.98
719.927	2031.07
720.114	1990.11
720.301	2102.75
720.488	2014.69
720.676	2033.12
720.863	1971.68
721.05	2080.22
721.237	2102.75
721.424	1971.68
721.611	2026.98
721.798	1922.53
721.985	2201.05
722.172	2035.17
722.358	2026.98
722.545	2082.27
722.732	2039.26
722.919	2084.32
723.106	2096.61
723.293	1963.49
723.48	2043.36
723.667	1994.21
723.853	2031.07
724.04	1990.11
724.227	2041.31
724.414	2063.84
724.6	2057.7
724.787	2045.41
724.974	2076.13
725.161	2168.29
725.347	1963.49
725.534	2069.98
725.72	1992.16
725.907	2080.22
726.094	2080.22
726.28	2010.59
726.467	2053.6
726.653	2080.22
726.84	2127.33
727.027	2110.94
727.213	2012.64
727.4	2000.35
727.586	2186.72
727.773	2094.56
727.959	2037.22
728.145	1963.49
728.332	1943.01
728.518	2024.93
728.705	2008.55
728.891	2102.75
729.077	2108.9
729.264	2037.22
729.45	2053.6
729.636	2041.31
729.823	2004.45
730.009	2041.31
730.195	2043.36
730.382	2106.85
730.568	2012.64
730.754	2065.89
730.94	2063.84
731.126	2106.85
731.313	2164.19
731.499	2049.5
731.685	2061.79
731.871	2072.03
732.057	1998.31
732.243	1979.87
732.429	1969.63
732.615	2090.46
732.801	1998.31
732.987	1990.11
733.173	2055.65
733.359	2090.46
733.545	1971.68
733.731	2039.26
733.917	2010.59
734.103	2074.08
734.289	2112.99
734.475	1981.92
734.661	2020.83
734.847	2076.13
735.033	1979.87
735.219	1918.43
735.404	2104.8
735.59	2006.5
735.776	1979.87
735.962	2063.84
736.148	2072.03
736.333	1940.96
736.519	1965.54
736.705	1957.35
736.89	1936.87
737.076	2112.99
737.262	2035.17
737.447	2094.56
737.633	1900
737.819	1992.16
738.004	1975.78
738.19	1953.25
738.375	1983.97
738.561	2055.65
738.747	1965.54
738.932	2035.17
739.118	2014.69
739.303	1918.43
739.489	2053.6
739.674	1830.37
739.859	1820.13
740.045	1943.01
740.23	1924.58
740.416	1840.61
740.601	1943.01
740.786	1930.72
740.972	1828.32
741.157	1857
741.342	1779.17
741.528	1938.91
741.713	1922.53
741.898	1891.81
742.084	1883.62
742.269	1914.34
742.454	1977.83
742.639	1848.8
742.824	1873.38
743.01	1840.61
743.195	1818.08
743.38	1881.57
743.565	1768.93
743.75	1850.85
743.935	1801.7
744.12	1859.04
744.305	1818.08
744.49	1816.04
744.675	1816.04
744.86	1644.01
745.045	1742.31
745.23	1670.63
745.415	1713.64
745.6	1766.89
745.785	1693.16
745.97	1719.78
746.155	1840.61
746.34	1672.68
746.525	1689.06
746.71	1709.54
746.895	1656.29
747.079	1586.66
747.264	1596.9
747.449	1607.14
747.634	1629.67
747.819	1566.18
748.003	1652.2
748.188	1787.36
748.373	1703.4
748.557	1588.71
748.742	1619.43
748.927	1566.18
749.111	1580.52
749.296	1498.6
749.481	1644.01
749.665	1586.66
749.85	1508.84
750.034	1490.41
750.219	1566.18
750.404	1488.36
750.588	1484.27
750.773	1527.27
750.957	1537.51
751.141	1441.26
751.326	1482.22
751.51	1547.75
751.695	1363.44
751.879	1416.68
752.064	1431.02
752.248	1398.25
752.432	1469.93
752.617	1467.88
752.801	1422.83
752.985	1302
753.17	1390.06
753.354	1412.59
753.538	1371.63
753.722	1357.29
753.907	1334.76
754.091	1295.85
754.275	1351.15
754.459	1277.42
754.643	1316.33
754.828	1236.46
755.012	1203.69
755.196	1349.1
755.38	1261.04
755.564	1256.94
755.748	1242.61
755.932	1228.27
756.116	1287.66
756.3	1211.89
756.484	1232.37
756.668	1240.56
756.852	1140.21
757.036	1351.15
757.22	1136.11
757.404	1095.15
757.588	1263.08
757.772	1172.97
757.956	1103.34
758.14	1242.61
758.323	1046
758.507	1146.35
758.691	1086.96
758.875	1121.77
759.059	1168.88
759.242	1095.15
759.426	1109.49
759.61	1117.68
759.794	1185.26
759.977	1080.82
760.161	1193.45
760.345	1144.3
760.528	1019.38
760.712	1119.73
760.895	1017.33
761.079	1148.4
761.263	1136.11
761.446	1015.28
761.63	1062.38
761.813	1127.92
761.997	959.99
762.18	990.7
762.364	1046
762.547	935.41
762.731	1005.04
762.914	914.93
763.098	1000.94
763.281	992.75
763.464	970.23
763.648	972.27
763.831	972.27
764.015	947.7
764.198	984.56
764.381	908.79
764.564	955.89
764.748	964.08
764.931	955.89
765.114	959.99
765.297	968.18
765.481	878.07
765.664	945.65
765.847	861.68
766.03	962.03
766.213	857.59
766.397	886.26
766.58	931.31
766.763	859.63
766.946	998.9
767.129	845.3
767.312	833.01
767.495	916.98
767.678	863.73
767.861	865.78
768.044	964.08
768.227	906.74
768.41	843.25
768.593	824.82
768.776	863.73
768.959	822.77
769.142	839.16
769.324	906.74
769.507	810.48
769.69	892.4
769.873	873.97
770.056	865.78
770.239	923.12
770.421	919.03
770.604	751.09
770.787	876.02
770.97	818.68
771.152	736.76
771.335	779.76
771.518	824.82
771.7	804.34
771.883	927.22
772.066	777.72
772.248	790
772.431	892.4
772.613	775.67
772.796	712.18
772.978	751.09
773.161	824.82
773.343	800.24
773.526	749.04
773.708	783.86
773.891	765.43
774.073	792.05
774.256	658.93
774.438	732.66
774.621	677.37
774.803	851.44
774.985	753.14
775.168	677.37
775.35	783.86
775.532	579.06
775.715	689.65
775.897	622.07
776.079	693.75
776.261	759.28
776.444	775.67
776.626	718.33
776.808	671.22
776.99	577.02
777.173	611.83
777.355	638.45
777.537	646.65
777.719	652.79
777.901	636.41
778.083	579.06
778.265	695.8
778.447	710.13
778.629	591.35
778.811	550.39
778.993	632.31
779.175	660.98
779.357	628.21
779.539	583.16
779.721	595.45
779.903	660.98
780.085	620.02
780.267	579.06
780.449	562.68
780.631	562.68
780.812	581.11
780.994	546.3
781.176	534.01
781.358	540.15
781.54	515.58
781.721	566.78
781.903	562.68
782.085	570.87
782.267	534.01
782.448	482.81
782.63	534.01
782.812	509.43
782.993	554.49
783.175	478.71
783.357	527.86
783.538	562.68
783.72	546.3
783.901	615.93
784.083	423.42
784.264	521.72
784.446	435.71
784.627	509.43
784.809	441.85
784.99	411.13
785.172	505.34
785.353	423.42
785.535	458.23
785.716	515.58
785.897	394.75
786.079	470.52
786.26	484.86
786.441	460.28
786.623	361.98
786.804	439.8
786.985	378.36
787.167	402.94
787.348	409.08
787.529	480.76
787.71	450.04
787.891	390.65
788.073	374.27
788.254	456.19
788.435	361.98
788.616	480.76
788.797	321.02
788.978	376.31
789.159	341.5
789.34	361.98
789.522	374.27
789.703	386.55
789.884	359.93
790.065	353.79
790.246	411.13
790.427	312.83
790.607	349.69
790.788	325.12
790.969	366.07
791.15	386.55
791.331	351.74
791.512	378.36
791.693	259.58
791.874	386.55
792.054	364.03
792.235	329.21
792.416	251.39
792.597	325.12
792.778	251.39
792.958	318.97
793.139	343.55
793.32	364.03
793.5	306.68
793.681	380.41
793.862	370.17
794.042	300.54
794.223	294.4
794.404	261.63
794.584	273.92
794.765	265.72
794.945	318.97
795.126	302.59
795.306	351.74
795.487	306.68
795.667	230.91
795.848	316.92
796.028	284.16
796.209	321.02
796.389	349.69
796.57	275.96
796.75	325.12
796.93	278.01
797.111	263.68
797.291	267.77
797.471	296.44
797.652	206.33
797.832	292.35
798.012	312.83
798.192	251.39
798.373	294.4
798.553	216.57
798.733	251.39
798.913	185.85
799.093	308.73
799.274	296.44
799.454	218.62
799.634	306.68
799.814	364.03
799.994	267.77
800.174	204.28
800.354	275.96
800.534	202.24
800.714	292.35
800.894	253.44
801.074	206.33
801.254	210.43
801.434	263.68
801.614	157.18
801.794	194.05
801.974	783.86
802.154	204.28
802.334	179.71
802.514	214.52
802.693	196.09
802.873	257.53
803.053	271.87
803.233	218.62
803.413	296.44
803.592	208.38
803.772	237.05
803.952	300.54
804.131	171.52
804.311	198.14
804.491	204.28
804.67	196.09
804.85	148.99
805.03	187.9
805.209	245.24
805.389	214.52
805.568	187.9
805.748	198.14
805.928	181.76
806.107	153.09
806.287	257.53
806.466	202.24
806.646	247.29
806.825	103.93
807.004	275.96
807.184	148.99
807.363	169.47
807.543	163.33
807.722	171.52
807.901	202.24
808.081	212.48
808.26	142.85
808.439	206.33
808.619	140.8
808.798	212.48
808.977	214.52
809.156	198.14
809.336	91.65
809.515	173.57
809.694	120.32
809.873	153.09
810.052	183.81
810.231	230.91
810.411	189.95
810.59	165.37
810.769	146.94
810.948	103.93
811.127	128.51
811.306	179.71
811.485	198.14
811.664	153.09
811.843	165.37
812.022	179.71
812.201	153.09
812.38	167.42
812.559	194.05
812.737	153.09
812.916	194.05
813.095	50.69
813.274	97.79
813.453	189.95
813.632	132.61
813.811	228.86
813.989	161.28
814.168	173.57
814.347	75.26
814.526	177.66
814.704	163.33
814.883	169.47
815.062	112.13
815.24	251.39
815.419	116.22
815.598	163.33
815.776	81.41
815.955	161.28
816.133	128.51
816.312	124.41
816.49	95.74
816.669	122.37
816.847	71.17
817.026	128.51
817.204	87.55
817.383	128.51
817.561	151.04
817.74	235
817.918	62.98
818.097	118.27
818.275	54.78
818.453	144.89
818.632	187.9
818.81	136.7
818.988	134.65
819.167	116.22
819.345	103.93
819.523	126.46
819.701	130.56
819.879	116.22
820.058	87.55
820.236	163.33
820.414	87.55
820.592	122.37
820.77	161.28
820.948	144.89
821.127	85.5
821.305	124.41
821.483	118.27
821.661	108.03
821.839	153.09
822.017	103.93
822.195	67.07
822.373	185.85
822.551	67.07
822.729	128.51
822.907	108.03
823.085	124.41
823.262	81.41
823.44	83.45
823.618	144.89
823.796	118.27
823.974	19.97
824.152	32.26
824.329	120.32
824.507	130.56
824.685	87.55
824.863	120.32
825.04	120.32
825.218	128.51
825.396	95.74
825.574	75.26
825.751	95.74
825.929	144.89
826.107	116.22
826.284	116.22
826.462	108.03
826.639	87.55
826.817	105.98
826.994	108.03
827.172	67.07
827.349	79.36
827.527	71.17
827.704	30.21
827.882	97.79
828.059	44.54
828.237	67.07
828.414	40.45
828.591	5.63
828.769	140.8
828.946	95.74
829.124	153.09
829.301	83.45
829.478	122.37
829.655	79.36
829.833	32.26
830.01	91.65
830.187	128.51
830.364	95.74
830.542	58.88
830.719	112.13
830.896	122.37
831.073	95.74
831.25	171.52
831.427	140.8
831.604	99.84
831.782	122.37
831.959	128.51
832.136	54.78
832.313	91.65
832.49	89.6
832.667	112.13
832.844	87.55
833.021	58.88
833.198	124.41
833.374	85.5
833.551	91.65
833.728	140.8
833.905	89.6
834.082	40.45
834.259	65.02
834.436	116.22
834.612	71.17
834.789	112.13
834.966	110.08
835.143	128.51
835.319	71.17
835.496	67.07
835.673	75.26
835.85	87.55
836.026	48.64
836.203	58.88
836.38	103.93
836.556	44.54
836.733	48.64
836.909	91.65
837.086	34.3
837.262	9.73
837.439	65.02
837.616	71.17
837.792	17.92
837.968	77.31
838.145	24.06
838.321	9.73
838.498	-6.66
838.674	40.45
838.851	50.69
839.027	105.98
839.203	24.06
839.38	112.13
839.556	13.82
839.732	54.78
839.909	73.21
840.085	95.74
840.261	114.17
840.437	83.45
840.614	38.4
840.79	95.74
840.966	95.74
841.142	132.61
841.318	1.54
841.494	83.45
841.671	56.83
841.847	42.5
842.023	13.82
842.199	50.69
842.375	54.78
842.551	65.02
842.727	5.63
842.903	34.3
843.079	-10.75
843.255	75.26
843.431	22.02
843.607	122.37
843.783	30.21
843.959	32.26
844.134	108.03
844.31	54.78
844.486	-2.56
844.662	81.41
844.838	5.63
845.013	40.45
845.189	65.02
845.365	19.97
845.541	-8.7
845.716	65.02
845.892	71.17
846.068	110.08
846.244	65.02
846.419	79.36
846.595	13.82
846.77	38.4
846.946	-10.75
847.122	73.21
847.297	103.93
847.473	103.93
847.648	79.36
847.824	50.69
847.999	7.68
848.175	112.13
848.35	114.17
848.526	60.93
848.701	128.51
848.876	75.26
849.052	65.02
849.227	19.97
849.403	42.5
849.578	30.21
849.753	24.06
849.929	97.79
850.104	95.74
850.279	75.26
850.454	26.11
850.63	103.93
850.805	38.4
850.98	67.07
851.155	3.58
851.33	46.59
851.505	3.58
851.681	120.32
851.856	19.97
852.031	40.45
852.206	9.73
852.381	77.31
852.556	54.78
852.731	71.17
852.906	30.21
853.081	71.17
853.256	15.87
853.431	118.27
853.606	38.4
853.781	40.45
853.956	32.26
854.131	89.6
854.305	13.82
854.48	62.98
854.655	36.35
854.83	71.17
855.005	42.5
855.18	-27.14
855.354	9.73
855.529	48.64
855.704	58.88
855.879	13.82
856.053	-2.56
856.228	71.17
856.403	15.87
856.577	71.17
856.752	71.17
856.926	54.78
857.101	116.22
857.276	65.02
857.45	73.21
857.625	58.88
857.799	-4.61
857.974	89.6
858.148	30.21
858.323	-4.61
858.497	46.59
858.672	95.74
858.846	50.69
859.02	40.45
859.195	32.26
859.369	87.55
859.543	5.63
859.718	56.83
859.892	93.69
860.066	71.17
860.241	-51.71
860.415	7.68
860.589	-43.52
860.763	-37.38
860.938	32.26
861.112	62.98
861.286	-10.75
861.46	-51.71
861.634	22.02
861.808	44.54
861.982	34.3
862.157	32.26
862.331	-16.9
862.505	38.4
862.679	22.02
862.853	5.63
863.027	32.26
863.201	73.21
863.375	65.02
863.549	54.78
863.722	15.87
863.896	-4.61
864.07	22.02
864.244	46.59
864.418	46.59
864.592	67.07
864.766	56.83
864.939	-51.71
865.113	-45.57
865.287	87.55
865.461	42.5
865.634	-14.85
865.808	-12.8
865.982	22.02
866.156	36.35
866.329	9.73
866.503	-37.38
866.676	-14.85
866.85	1.54
867.024	7.68
867.197	95.74
867.371	30.21
867.544	-35.33
867.718	-0.51
867.891	-25.09
868.065	30.21
868.238	1.54
868.412	30.21
868.585	56.83
868.759	38.4
868.932	-23.04
869.105	-6.66
869.279	5.63
869.452	-41.47
869.625	-35.33
869.799	54.78
869.972	-25.09
870.145	1.54
870.319	15.87
870.492	-6.66
870.665	54.78
870.838	38.4
871.011	-35.33
871.185	13.82
871.358	54.78
871.531	13.82
871.704	-27.14
871.877	5.63
872.05	22.02
872.223	-0.51
872.396	71.17
872.569	46.59
872.742	-51.71
872.915	11.78
873.088	-16.9
873.261	-43.52
873.434	71.17
873.607	-18.94
873.78	22.02
873.953	-18.94
874.126	54.78
874.299	15.87
874.471	-0.51
874.644	56.83
874.817	42.5
874.99	36.35
875.163	-37.38
875.335	-49.66
875.508	-27.14
875.681	42.5
875.853	-8.7
876.026	-10.75
876.199	13.82
876.371	60.93
876.544	7.68
876.717	5.63
876.889	28.16
877.062	5.63
877.234	38.4
877.407	-25.09
877.579	-18.94
877.752	52.74
877.924	-39.42
878.097	81.41
878.269	46.59
878.442	-14.85
878.614	42.5
878.786	-49.66
878.959	13.82
879.131	5.63
879.303	-55.81
879.476	28.16
879.648	42.5
879.82	91.65
879.993	-57.86
880.165	-12.8
880.337	-35.33
880.509	97.79
880.681	-8.7
880.854	34.3
881.026	54.78
881.198	28.16
881.37	9.73
881.542	42.5
881.714	-23.04
881.886	-43.52
882.058	13.82
882.23	-31.23
882.402	-55.81
882.574	-0.51
882.746	13.82
882.918	110.08
883.09	-2.56
883.262	-84.48
883.434	5.63
883.606	38.4
883.778	56.83
883.95	24.06
884.122	54.78
884.293	30.21
884.465	30.21
884.637	46.59
884.809	-18.94
884.98	65.02
885.152	79.36
885.324	-23.04
885.496	19.97
885.667	36.35
885.839	5.63
886.011	9.73
886.182	56.83
886.354	89.6
886.525	-14.85
886.697	65.02
886.869	-18.94
887.04	30.21
887.212	93.69
887.383	62.98
887.555	-16.9
887.726	30.21
887.897	-23.04
888.069	52.74
888.24	7.68
888.412	9.73
888.583	15.87
888.754	-55.81
888.926	-10.75
889.097	9.73
889.268	-41.47
889.44	-39.42
889.611	67.07
889.782	13.82
889.953	-18.94
890.125	-0.51
890.296	5.63
890.467	-27.14
890.638	5.63
890.809	-10.75
890.98	34.3
891.151	44.54
891.323	79.36
891.494	48.64
891.665	105.98
891.836	79.36
892.007	32.26
892.178	83.45
892.349	-18.94
892.52	-20.99
892.691	7.68
892.862	-12.8
893.032	5.63
893.203	9.73
893.374	-2.56
893.545	-4.61
893.716	28.16
893.887	24.06
894.057	28.16
894.228	7.68
894.399	5.63
894.57	-10.75
894.74	-68.09
894.911	9.73
895.082	11.78
895.253	-41.47
895.423	5.63
895.594	30.21
895.764	22.02
895.935	62.98
896.106	42.5
896.276	42.5
896.447	-6.66
896.617	46.59
896.788	-80.38
896.958	-51.71
897.129	22.02
897.299	13.82
897.47	-14.85
897.64	42.5
897.81	-0.51
897.981	-45.57
898.151	-2.56
898.322	-25.09
898.492	62.98
898.662	-16.9
898.832	62.98
899.003	-6.66
899.173	32.26
899.343	-31.23
899.513	-51.71
