Data from USB4F104151__38__14-42-53-504.txt Node

Date: Thu Mar 13 14:42:53 EDT 2025
User: louis
Spectrometer: USB4F10415
Trigger mode: 4
Integration Time (sec): 2.000000E-2
Scans to average: 1
Electric dark correction enabled: true
Nonlinearity correction enabled: false
Boxcar width: 0
XAxis mode: Wavelengths
Number of Pixels in Spectrum: 3648
>>>>>Begin Spectral Data<<<<<
178.204	-89.09
178.424	-89.09
178.644	-89.09
178.864	-91.13
179.084	-117.76
179.304	62.46
179.524	3.07
179.744	1.02
179.964	5.12
180.184	-23.55
180.404	19.46
180.624	54.27
180.844	-39.94
181.064	-5.12
181.283	-21.5
181.503	-56.32
181.723	1.02
181.943	-46.08
182.163	27.65
182.383	119.81
182.602	56.32
182.822	113.66
183.042	41.98
183.262	9.22
183.482	-9.22
183.701	-17.41
183.921	23.55
184.141	-48.13
184.361	58.37
184.58	91.13
184.8	60.42
185.02	-7.17
185.239	91.13
185.459	5.12
185.679	66.56
185.898	82.94
186.118	25.6
186.338	66.56
186.557	13.31
186.777	5.12
186.997	29.7
187.216	5.12
187.436	50.18
187.655	46.08
187.875	44.03
188.095	58.37
188.314	60.42
188.534	70.65
188.753	41.98
188.973	13.31
189.192	66.56
189.412	13.31
189.631	62.46
189.851	-1.02
190.07	54.27
190.29	-7.17
190.509	89.09
190.729	48.13
190.948	44.03
191.168	152.57
191.387	91.13
191.607	9.22
191.826	-25.6
192.045	44.03
192.265	25.6
192.484	91.13
192.704	54.27
192.923	72.7
193.142	84.99
193.362	33.79
193.581	58.37
193.8	58.37
194.02	91.13
194.239	17.41
194.458	54.27
194.678	41.98
194.897	97.28
195.116	44.03
195.335	93.18
195.555	50.18
195.774	27.65
195.993	87.04
196.212	44.03
196.432	-15.36
196.651	35.84
196.87	-9.22
197.089	146.43
197.308	66.56
197.528	109.57
197.747	-5.12
197.966	29.7
198.185	84.99
198.404	41.98
198.623	58.37
198.842	50.18
199.062	105.47
199.281	80.89
199.5	35.84
199.719	60.42
199.938	91.13
200.157	140.29
200.376	17.41
200.595	60.42
200.814	11.26
201.033	52.22
201.252	91.13
201.471	84.99
201.69	66.56
201.909	21.5
202.128	-11.26
202.347	41.98
202.566	-5.12
202.785	46.08
203.004	1.02
203.223	119.81
203.442	46.08
203.661	21.5
203.879	17.41
204.098	66.56
204.317	62.46
204.536	37.89
204.755	52.22
204.974	123.9
205.193	78.85
205.411	125.95
205.63	5.12
205.849	21.5
206.068	62.46
206.287	1.02
206.505	58.37
206.724	25.6
206.943	23.55
207.162	-56.32
207.381	60.42
207.599	-48.13
207.818	107.52
208.037	99.33
208.255	76.8
208.474	-7.17
208.693	50.18
208.911	-3.07
209.13	35.84
209.349	37.89
209.567	21.5
209.786	54.27
210.005	93.18
210.223	60.42
210.442	-7.17
210.661	58.37
210.879	80.89
211.098	41.98
211.316	44.03
211.535	25.6
211.753	11.26
211.972	52.22
212.191	87.04
212.409	-15.36
212.628	46.08
212.846	74.75
213.065	-3.07
213.283	70.65
213.502	46.08
213.72	33.79
213.938	41.98
214.157	11.26
214.375	27.65
214.594	11.26
214.812	50.18
215.031	9.22
215.249	27.65
215.467	41.98
215.686	-23.55
215.904	74.75
216.122	-39.94
216.341	107.52
216.559	84.99
216.778	52.22
216.996	152.57
217.214	41.98
217.432	50.18
217.651	50.18
217.869	31.74
218.087	25.6
218.306	44.03
218.524	33.79
218.742	44.03
218.96	74.75
219.179	33.79
219.397	37.89
219.615	152.57
219.833	31.74
220.051	72.7
220.27	56.32
220.488	7.17
220.706	56.32
220.924	27.65
221.142	17.41
221.36	-31.74
221.578	93.18
221.796	9.22
222.015	60.42
222.233	-3.07
222.451	95.23
222.669	-70.65
222.887	52.22
223.105	-39.94
223.323	87.04
223.541	9.22
223.759	52.22
223.977	9.22
224.195	17.41
224.413	21.5
224.631	35.84
224.849	41.98
225.067	58.37
225.285	-5.12
225.503	117.76
225.721	31.74
225.939	84.99
226.157	39.94
226.375	66.56
226.592	37.89
226.81	33.79
227.028	41.98
227.246	87.04
227.464	-9.22
227.682	89.09
227.9	37.89
228.117	80.89
228.335	37.89
228.553	60.42
228.771	54.27
228.989	130.05
229.206	50.18
229.424	35.84
229.642	25.6
229.86	-56.32
230.077	140.29
230.295	60.42
230.513	46.08
230.731	101.37
230.948	70.65
231.166	101.37
231.384	46.08
231.601	1.02
231.819	25.6
232.037	-13.31
232.254	13.31
232.472	84.99
232.689	52.22
232.907	99.33
233.125	76.8
233.342	-27.65
233.56	-21.5
233.777	-31.74
233.995	50.18
234.213	44.03
234.43	37.89
234.648	27.65
234.865	50.18
235.083	74.75
235.3	-13.31
235.518	123.9
235.735	9.22
235.953	33.79
236.17	91.13
236.388	1.02
236.605	-9.22
236.822	66.56
237.04	21.5
237.257	46.08
237.475	46.08
237.692	46.08
237.909	33.79
238.127	-31.74
238.344	87.04
238.562	93.18
238.779	5.12
238.996	91.13
239.214	19.46
239.431	74.75
239.648	-19.46
239.865	13.31
240.083	56.32
240.3	-7.17
240.517	52.22
240.735	41.98
240.952	74.75
241.169	82.94
241.386	58.37
241.603	41.98
241.821	-11.26
242.038	70.65
242.255	-5.12
242.472	5.12
242.689	37.89
242.907	121.85
243.124	50.18
243.341	17.41
243.558	15.36
243.775	-21.5
243.992	-23.55
244.209	50.18
244.426	95.23
244.643	41.98
244.86	125.95
245.078	19.46
245.295	27.65
245.512	1.02
245.729	-39.94
245.946	35.84
246.163	27.65
246.38	58.37
246.597	54.27
246.814	44.03
247.031	-15.36
247.248	1.02
247.464	25.6
247.681	-1.02
247.898	56.32
248.115	-3.07
248.332	9.22
248.549	66.56
248.766	76.8
248.983	46.08
249.2	123.9
249.417	58.37
249.633	13.31
249.85	44.03
250.067	62.46
250.284	58.37
250.501	52.22
250.717	50.18
250.934	21.5
251.151	13.31
251.368	29.7
251.585	27.65
251.801	-74.75
252.018	25.6
252.235	35.84
252.451	-27.65
252.668	-15.36
252.885	84.99
253.102	19.46
253.318	107.52
253.535	3.07
253.752	70.65
253.968	113.66
254.185	33.79
254.401	-15.36
254.618	11.26
254.835	3.07
255.051	119.81
255.268	74.75
255.484	84.99
255.701	74.75
255.917	41.98
256.134	-44.03
256.351	52.22
256.567	31.74
256.784	33.79
257	-15.36
257.217	35.84
257.433	76.8
257.65	17.41
257.866	17.41
258.082	33.79
258.299	13.31
258.515	58.37
258.732	13.31
258.948	-39.94
259.165	31.74
259.381	17.41
259.597	103.42
259.814	-5.12
260.03	58.37
260.246	-39.94
260.463	95.23
260.679	54.27
260.895	19.46
261.112	-15.36
261.328	21.5
261.544	-5.12
261.761	91.13
261.977	66.56
262.193	17.41
262.409	66.56
262.626	44.03
262.842	87.04
263.058	19.46
263.274	9.22
263.49	48.13
263.707	37.89
263.923	25.6
264.139	-60.42
264.355	37.89
264.571	50.18
264.787	1.02
265.004	60.42
265.22	-15.36
265.436	136.19
265.652	25.6
265.868	50.18
266.084	33.79
266.3	27.65
266.516	35.84
266.732	25.6
266.948	-31.74
267.164	35.84
267.38	33.79
267.596	58.37
267.812	82.94
268.028	68.61
268.244	17.41
268.46	115.71
268.676	123.9
268.892	1.02
269.108	50.18
269.324	15.36
269.54	-13.31
269.756	166.91
269.972	-37.89
270.188	54.27
270.403	9.22
270.619	27.65
270.835	25.6
271.051	189.44
271.267	-29.7
271.483	25.6
271.698	64.51
271.914	121.85
272.13	107.52
272.346	25.6
272.562	41.98
272.777	52.22
272.993	-21.5
273.209	1.02
273.425	60.42
273.64	37.89
273.856	72.7
274.072	-15.36
274.287	-7.17
274.503	111.61
274.719	58.37
274.934	-29.7
275.15	1.02
275.366	82.94
275.581	31.74
275.797	82.94
276.012	41.98
276.228	91.13
276.444	-9.22
276.659	78.85
276.875	-25.6
277.09	1.02
277.306	5.12
277.521	44.03
277.737	33.79
277.952	50.18
278.168	17.41
278.383	3.07
278.599	17.41
278.814	19.46
279.03	11.26
279.245	68.61
279.461	5.12
279.676	21.5
279.892	-7.17
280.107	-13.31
280.322	58.37
280.538	89.09
280.753	3.07
280.969	-1.02
281.184	97.28
281.399	95.23
281.615	9.22
281.83	50.18
282.045	9.22
282.26	27.65
282.476	58.37
282.691	21.5
282.906	56.32
283.122	33.79
283.337	62.46
283.552	41.98
283.767	-31.74
283.983	54.27
284.198	54.27
284.413	115.71
284.628	52.22
284.843	87.04
285.058	17.41
285.274	99.33
285.489	-39.94
285.704	76.8
285.919	44.03
286.134	-7.17
286.349	-7.17
286.564	93.18
286.779	54.27
286.995	44.03
287.21	3.07
287.425	19.46
287.64	62.46
287.855	82.94
288.07	66.56
288.285	99.33
288.5	46.08
288.715	9.22
288.93	17.41
289.145	58.37
289.36	64.51
289.575	99.33
289.79	66.56
290.004	13.31
290.219	99.33
290.434	41.98
290.649	33.79
290.864	107.52
291.079	41.98
291.294	121.85
291.509	84.99
291.724	70.65
291.938	74.75
292.153	50.18
292.368	33.79
292.583	35.84
292.798	29.7
293.012	5.12
293.227	82.94
293.442	17.41
293.657	52.22
293.871	56.32
294.086	64.51
294.301	74.75
294.516	82.94
294.73	68.61
294.945	-70.65
295.16	68.61
295.374	74.75
295.589	142.33
295.804	9.22
296.018	33.79
296.233	21.5
296.447	46.08
296.662	-19.46
296.877	15.36
297.091	87.04
297.306	41.98
297.52	-19.46
297.735	78.85
297.949	17.41
298.164	25.6
298.378	9.22
298.593	68.61
298.807	-21.5
299.022	91.13
299.236	70.65
299.451	19.46
299.665	82.94
299.88	21.5
300.094	52.22
300.309	-7.17
300.523	3.07
300.737	23.55
300.952	41.98
301.166	82.94
301.381	-19.46
301.595	27.65
301.809	82.94
302.024	17.41
302.238	29.7
302.452	74.75
302.667	50.18
302.881	50.18
303.095	78.85
303.309	21.5
303.524	11.26
303.738	58.37
303.952	93.18
304.166	123.9
304.381	-31.74
304.595	41.98
304.809	-23.55
305.023	66.56
305.237	66.56
305.452	44.03
305.666	91.13
305.88	27.65
306.094	11.26
306.308	37.89
306.522	54.27
306.736	50.18
306.95	11.26
307.164	66.56
307.379	66.56
307.593	109.57
307.807	78.85
308.021	101.37
308.235	52.22
308.449	17.41
308.663	3.07
308.877	179.2
309.091	101.37
309.305	70.65
309.519	-3.07
309.733	78.85
309.947	-23.55
310.161	70.65
310.374	80.89
310.588	41.98
310.802	-44.03
311.016	50.18
311.23	44.03
311.444	33.79
311.658	52.22
311.872	82.94
312.085	76.8
312.299	89.09
312.513	50.18
312.727	103.42
312.941	25.6
313.154	97.28
313.368	-23.55
313.582	39.94
313.796	-25.6
314.009	-39.94
314.223	33.79
314.437	33.79
314.651	50.18
314.864	125.95
315.078	70.65
315.292	19.46
315.505	46.08
315.719	-46.08
315.933	13.31
316.146	107.52
316.36	74.75
316.573	68.61
316.787	78.85
317.001	37.89
317.214	-15.36
317.428	72.7
317.641	9.22
317.855	50.18
318.068	-23.55
318.282	25.6
318.495	35.84
318.709	64.51
318.922	66.56
319.136	109.57
319.349	1.02
319.563	-52.22
319.776	119.81
319.99	52.22
320.203	121.85
320.417	48.13
320.63	62.46
320.843	119.81
321.057	11.26
321.27	15.36
321.483	93.18
321.697	162.81
321.91	33.79
322.124	64.51
322.337	62.46
322.55	21.5
322.763	-3.07
322.977	66.56
323.19	17.41
323.403	-13.31
323.617	68.61
323.83	95.23
324.043	35.84
324.256	70.65
324.469	27.65
324.683	111.61
324.896	3.07
325.109	89.09
325.322	-56.32
325.535	70.65
325.748	99.33
325.962	74.75
326.175	35.84
326.388	64.51
326.601	91.13
326.814	66.56
327.027	82.94
327.24	117.76
327.453	-48.13
327.666	101.37
327.879	80.89
328.092	115.71
328.305	50.18
328.518	-23.55
328.731	80.89
328.944	103.42
329.157	93.18
329.37	33.79
329.583	140.29
329.796	82.94
330.009	41.98
330.222	58.37
330.435	54.27
330.648	35.84
330.861	78.85
331.073	35.84
331.286	41.98
331.499	-35.84
331.712	17.41
331.925	29.7
332.138	84.99
332.35	93.18
332.563	50.18
332.776	66.56
332.989	33.79
333.202	27.65
333.414	-15.36
333.627	44.03
333.84	-15.36
334.053	33.79
334.265	35.84
334.478	39.94
334.691	3.07
334.903	-15.36
335.116	7.17
335.329	66.56
335.541	82.94
335.754	87.04
335.966	13.31
336.179	87.04
336.392	76.8
336.604	39.94
336.817	-37.89
337.029	107.52
337.242	56.32
337.454	128
337.667	50.18
337.88	74.75
338.092	80.89
338.305	27.65
338.517	33.79
338.729	-7.17
338.942	68.61
339.154	-48.13
339.367	54.27
339.579	123.9
339.792	25.6
340.004	74.75
340.217	25.6
340.429	58.37
340.641	-13.31
340.854	70.65
341.066	27.65
341.278	50.18
341.491	109.57
341.703	68.61
341.915	37.89
342.128	9.22
342.34	-13.31
342.552	66.56
342.764	-1.02
342.977	107.52
343.189	25.6
343.401	109.57
343.613	-5.12
343.826	11.26
344.038	72.7
344.25	82.94
344.462	15.36
344.674	50.18
344.886	68.61
345.099	117.76
345.311	48.13
345.523	33.79
345.735	9.22
345.947	58.37
346.159	41.98
346.371	82.94
346.583	-13.31
346.795	66.56
347.007	56.32
347.219	11.26
347.431	95.23
347.643	117.76
347.855	17.41
348.067	103.42
348.279	37.89
348.491	11.26
348.703	199.68
348.915	-15.36
349.127	31.74
349.339	44.03
349.551	17.41
349.763	58.37
349.975	66.56
350.187	44.03
350.399	41.98
350.61	-37.89
350.822	-13.31
351.034	-64.51
351.246	33.79
351.458	107.52
351.669	136.19
351.881	74.75
352.093	27.65
352.305	68.61
352.517	46.08
352.728	142.33
352.94	41.98
353.152	13.31
353.363	70.65
353.575	58.37
353.787	76.8
353.999	66.56
354.21	52.22
354.422	11.26
354.633	44.03
354.845	91.13
355.057	101.37
355.268	91.13
355.48	44.03
355.692	60.42
355.903	17.41
356.115	9.22
356.326	-70.65
356.538	132.09
356.749	82.94
356.961	70.65
357.172	-27.65
357.384	35.84
357.595	128
357.807	89.09
358.018	19.46
358.23	9.22
358.441	89.09
358.653	25.6
358.864	107.52
359.075	136.19
359.287	66.56
359.498	115.71
359.709	35.84
359.921	25.6
360.132	95.23
360.344	21.5
360.555	95.23
360.766	62.46
360.977	23.55
361.189	68.61
361.4	-31.74
361.611	60.42
361.823	76.8
362.034	33.79
362.245	-7.17
362.456	27.65
362.667	44.03
362.879	-7.17
363.09	99.33
363.301	50.18
363.512	27.65
363.723	33.79
363.935	17.41
364.146	68.61
364.357	82.94
364.568	5.12
364.779	-13.31
364.99	74.75
365.201	-23.55
365.412	78.85
365.623	1.02
365.834	33.79
366.045	48.13
366.256	115.71
366.467	56.32
366.678	35.84
366.889	117.76
367.1	3.07
367.311	74.75
367.522	41.98
367.733	23.55
367.944	84.99
368.155	23.55
368.366	128
368.577	48.13
368.788	46.08
368.999	-7.17
369.209	27.65
369.42	156.67
369.631	183.29
369.842	37.89
370.053	50.18
370.264	76.8
370.474	82.94
370.685	64.51
370.896	113.66
371.107	123.9
371.317	21.5
371.528	27.65
371.739	128
371.95	54.27
372.16	17.41
372.371	33.79
372.582	25.6
372.792	107.52
373.003	58.37
373.214	74.75
373.424	87.04
373.635	-7.17
373.846	111.61
374.056	25.6
374.267	41.98
374.477	25.6
374.688	15.36
374.898	91.13
375.109	-15.36
375.319	25.6
375.53	70.65
375.74	91.13
375.951	33.79
376.161	58.37
376.372	80.89
376.582	54.27
376.793	17.41
377.003	1.02
377.214	-48.13
377.424	27.65
377.635	37.89
377.845	101.37
378.055	101.37
378.266	50.18
378.476	50.18
378.686	93.18
378.897	117.76
379.107	66.56
379.317	95.23
379.528	25.6
379.738	9.22
379.948	3.07
380.158	66.56
380.369	91.13
380.579	58.37
380.789	66.56
380.999	125.95
381.21	123.9
381.42	66.56
381.63	33.79
381.84	58.37
382.05	46.08
382.261	68.61
382.471	21.5
382.681	-52.22
382.891	107.52
383.101	29.7
383.311	-27.65
383.521	-7.17
383.731	33.79
383.941	3.07
384.151	9.22
384.361	44.03
384.571	76.8
384.781	66.56
384.991	62.46
385.201	82.94
385.411	58.37
385.621	91.13
385.831	91.13
386.041	117.76
386.251	33.79
386.461	132.09
386.671	99.33
386.881	58.37
387.091	25.6
387.301	101.37
387.511	13.31
387.72	35.84
387.93	35.84
388.14	-17.41
388.35	48.13
388.56	132.09
388.769	68.61
388.979	31.74
389.189	25.6
389.399	95.23
389.609	50.18
389.818	80.89
390.028	27.65
390.238	50.18
390.447	103.42
390.657	144.38
390.867	56.32
391.076	1.02
391.286	123.9
391.496	60.42
391.705	37.89
391.915	82.94
392.125	93.18
392.334	121.85
392.544	150.53
392.753	39.94
392.963	7.17
393.172	21.5
393.382	58.37
393.591	103.42
393.801	33.79
394.01	99.33
394.22	41.98
394.429	58.37
394.639	99.33
394.848	74.75
395.058	168.96
395.267	27.65
395.477	84.99
395.686	41.98
395.895	146.43
396.105	132.09
396.314	105.47
396.524	44.03
396.733	11.26
396.942	99.33
397.152	144.38
397.361	150.53
397.57	62.46
397.78	119.81
397.989	119.81
398.198	115.71
398.407	87.04
398.617	89.09
398.826	117.76
399.035	142.33
399.244	115.71
399.453	70.65
399.663	132.09
399.872	140.29
400.081	50.18
400.29	134.14
400.499	99.33
400.708	76.8
400.917	17.41
401.127	95.23
401.336	93.18
401.545	101.37
401.754	111.61
401.963	117.76
402.172	150.53
402.381	82.94
402.59	121.85
402.799	103.42
403.008	148.48
403.217	44.03
403.426	99.33
403.635	103.42
403.844	52.22
404.053	123.9
404.262	107.52
404.471	222.2
404.68	164.86
404.888	93.18
405.097	107.52
405.306	125.95
405.515	164.86
405.724	156.67
405.933	226.3
406.142	152.57
406.35	181.25
406.559	218.11
406.768	128
406.977	230.4
407.185	211.96
407.394	283.64
407.603	156.67
407.812	173.05
408.02	144.38
408.229	240.64
408.438	136.19
408.646	193.53
408.855	150.53
409.064	242.68
409.272	320.51
409.481	295.93
409.69	205.82
409.898	295.93
410.107	230.4
410.315	328.7
410.524	281.6
410.733	291.84
410.941	306.17
411.15	306.17
411.358	386.04
411.567	414.71
411.775	353.27
411.984	373.75
412.192	402.43
412.401	400.38
412.609	490.49
412.818	531.45
413.026	402.43
413.234	504.82
413.443	476.15
413.651	470.01
413.86	553.98
414.068	533.5
414.276	541.69
414.485	533.5
414.693	586.74
414.901	623.61
415.11	574.46
415.318	623.61
415.526	574.46
415.734	781.3
415.943	769.01
416.151	707.57
416.359	691.19
416.567	812.02
416.776	793.59
416.984	859.12
417.192	926.71
417.4	816.12
417.608	885.75
417.817	877.55
418.025	1043.44
418.233	1065.97
418.441	1020.91
418.649	1022.96
418.857	1082.35
419.065	1133.55
419.273	1151.98
419.481	1135.6
419.689	1192.94
419.897	1205.23
420.105	1332.2
420.313	1352.68
420.521	1311.72
420.729	1450.99
420.937	1442.79
421.145	1608.68
421.353	1649.64
421.561	1639.4
421.769	1715.17
421.977	1786.85
422.185	1745.89
422.393	1821.67
422.601	2073.57
422.809	1934.31
423.017	2008.03
423.224	2051.04
423.432	2151.39
423.64	2225.12
423.848	2337.76
424.056	2307.04
424.263	2354.14
424.471	2481.11
424.679	2577.37
424.887	2499.55
425.094	2759.64
425.302	2849.75
425.51	2915.28
425.718	2941.91
425.925	2980.82
426.133	3050.45
426.341	3361.74
426.548	3443.66
426.756	3386.32
426.964	3515.34
427.171	3556.3
427.379	3718.09
427.586	3785.67
427.794	3697.61
428.001	4127.68
428.209	4316.09
428.417	4117.44
428.624	4572.09
428.832	4559.8
429.039	4535.23
429.247	4510.65
429.454	4850.61
429.662	5241.78
429.869	4795.32
430.076	5305.26
430.284	4899.77
430.491	5282.74
430.699	5657.51
430.906	5524.4
431.114	5706.66
431.321	5829.54
431.528	5991.33
431.736	6124.45
431.943	6575
432.15	6316.96
432.358	6450.08
432.565	6908.82
432.772	6947.73
432.979	7197.59
433.187	7328.66
433.394	7342.99
433.601	7883.66
433.808	7734.15
434.016	7697.29
434.223	8084.36
434.43	8672.12
434.637	8293.25
434.844	8897.4
435.052	9257.84
435.259	9102.2
435.466	9112.44
435.673	9196.4
435.88	9540.46
436.087	10167.14
436.294	10267.49
436.501	10040.17
436.708	10216.29
436.915	10412.9
437.122	11053.91
437.329	10994.52
437.537	11408.21
437.743	11504.46
437.95	11354.96
438.157	12034.89
438.364	12372.8
438.571	12235.59
438.778	12378.95
438.985	13396.79
439.192	12979
439.399	13624.11
439.606	13222.71
439.813	13763.37
440.02	14709.54
440.227	14439.2
440.433	14172.97
440.64	14787.36
440.847	14627.62
441.054	15145.75
441.261	16210.7
441.467	15868.69
441.674	16034.57
441.881	16685.83
442.088	16696.07
442.294	16503.56
442.501	17060.6
442.708	17359.61
442.914	18082.54
443.121	19024.61
443.328	18170.6
443.534	19276.51
443.741	18830.05
443.948	18698.98
444.154	19860.18
444.361	20046.54
444.568	20118.22
444.774	19964.62
444.981	20376.27
445.187	20841.15
445.394	21523.13
445.6	21471.93
445.807	23513.75
446.013	22438.57
446.22	23005.86
446.426	23650.97
446.633	24386.19
446.839	24707.72
447.046	23837.33
447.252	25133.7
447.459	25389.69
447.665	25037.44
447.871	26251.89
448.078	27241.06
448.284	25756.28
448.491	26655.34
448.697	27712.09
448.903	28219.99
449.11	28654.15
449.316	27927.13
449.522	28394.06
449.728	29297.22
449.935	29555.26
450.141	29278.79
450.347	29753.91
450.553	29241.92
450.76	29491.77
450.966	30583.34
451.172	30298.67
451.378	31011.37
451.584	30261.81
451.791	31402.53
451.997	31050.28
452.203	31601.18
452.409	31887.9
452.615	31492.64
452.821	30370.35
453.027	30177.84
453.233	31466.02
453.44	30308.91
453.646	30652.97
453.852	30931.5
454.058	31543.84
454.264	30601.77
454.47	31154.72
454.676	30095.92
454.882	31273.51
455.088	29022.79
455.294	29078.08
455.5	30065.21
455.705	30083.64
455.911	28662.35
456.117	28320.34
456.323	27837.02
456.529	26530.41
456.735	27576.92
456.941	27040.36
457.147	26305.13
457.352	25735.8
457.558	25406.08
457.764	25549.43
457.97	24976
458.176	24623.75
458.381	24816.26
458.587	23286.43
458.793	23372.44
458.999	22053.55
459.204	23784.09
459.41	22966.95
459.616	21367.48
459.821	21619.38
460.027	21570.23
460.233	21199.55
460.438	20161.23
460.644	20189.9
460.85	19251.93
461.055	19245.79
461.261	19004.13
461.466	17529.59
461.672	16866.05
461.878	18600.68
462.083	17437.43
462.289	16485.12
462.494	16526.08
462.7	16001.8
462.905	15434.52
463.111	16073.48
463.316	15919.89
463.522	15559.44
463.727	15622.93
463.932	15627.03
464.138	15463.19
464.343	15493.91
464.549	15053.59
464.754	15504.15
464.959	15487.76
465.165	15319.83
465.37	14996.25
465.575	14435.11
465.781	14764.83
465.986	15174.42
466.191	14404.39
466.397	14209.83
466.602	13288.25
466.807	14066.47
467.012	14039.85
467.218	13923.12
467.423	13730.61
467.628	13982.51
467.833	14097.19
468.038	13878.06
468.244	13345.59
468.449	13931.31
468.654	13550.39
468.859	13380.4
469.064	13427.51
469.269	12645.18
469.474	12979
469.679	13490.99
469.885	12809.02
470.09	13065.02
470.295	12872.51
470.5	12237.64
470.705	12700.48
470.91	12432.19
471.115	12307.27
471.32	12569.41
471.525	12358.47
471.73	12229.45
471.935	11723.6
472.139	11711.31
472.344	11854.67
472.549	11512.66
472.754	11459.41
472.959	11201.37
473.164	11035.48
473.369	10994.52
473.574	11289.43
473.778	11148.12
473.983	11166.55
474.188	11203.41
474.393	10359.65
474.598	10818.39
474.802	10654.56
475.007	10337.12
475.212	10414.95
475.417	9958.25
475.621	10060.65
475.826	10382.18
476.031	10101.61
476.235	9818.99
476.44	9913.19
476.645	9814.89
476.849	9788.27
477.054	9798.51
477.259	9585.52
477.463	9464.69
477.668	9261.94
477.872	9343.86
478.077	9112.44
478.282	9020.28
478.486	9147.25
478.691	9057.14
478.895	8881.02
479.1	8823.67
479.304	8457.09
479.509	8639.36
479.713	8715.13
479.918	8569.73
480.122	8567.68
480.326	8399.74
480.531	8424.32
480.735	8467.33
480.94	8317.83
481.144	8561.53
481.348	8166.28
481.553	8194.95
481.757	8119.17
481.961	8358.78
482.166	8397.7
482.37	8127.36
482.574	8053.64
482.778	8113.03
482.983	8315.78
483.187	8280.96
483.391	8067.97
483.595	8184.71
483.8	7981.96
484.004	8049.54
484.208	8336.26
484.412	8158.08
484.616	8061.83
484.821	8186.76
485.025	7971.72
485.229	8119.17
485.433	8053.64
485.637	7926.66
485.841	8020.87
486.045	8084.36
486.249	8061.83
486.453	7795.59
486.657	7981.96
486.861	7961.48
487.065	7979.91
487.269	8037.25
487.473	7908.23
487.677	8033.16
487.881	8344.45
488.085	7887.75
488.289	8209.28
488.493	7928.71
488.697	8162.18
488.901	8110.98
489.105	8209.28
489.309	8051.59
489.512	8244.1
489.716	8205.19
489.92	8080.26
490.124	8168.32
490.328	8240
490.531	8237.95
490.735	8416.13
490.939	8342.4
491.143	8354.69
491.346	8428.42
491.55	8303.49
491.754	8342.4
491.958	8561.53
492.161	8307.59
492.365	8496
492.569	8471.42
492.772	8500.09
492.976	8600.44
493.18	8700.8
493.383	8735.61
493.587	8934.26
493.79	8795
493.994	8633.21
494.197	8758.14
494.401	8889.21
494.605	9030.52
494.808	9116.53
495.012	9134.96
495.215	9241.46
495.419	9145.2
495.622	9145.2
495.825	9388.91
496.029	9186.16
496.232	9687.92
496.436	9442.16
496.639	9689.96
496.843	9685.87
497.046	9814.89
497.249	9823.08
497.453	10044.26
497.656	10117.99
497.859	9976.68
498.063	10079.08
498.266	10462.05
498.469	10464.1
498.673	10580.83
498.876	10820.44
499.079	10908.51
499.282	10883.93
499.485	11094.87
499.689	10961.75
499.892	11248.47
500.095	11295.57
500.298	11524.94
500.501	11473.74
500.705	11940.68
500.908	11658.06
501.111	12133.19
501.314	12098.38
501.517	12208.97
501.72	12405.57
501.923	12493.63
502.126	12507.97
502.329	12854.08
502.532	12872.51
502.735	12854.08
502.938	13447.99
503.141	13474.61
503.344	13261.62
503.547	13329.2
503.75	13613.87
503.953	13714.22
504.156	13804.33
504.359	14136.1
504.562	14154.54
504.765	14523.17
504.968	14566.18
505.17	14672.67
505.373	14836.51
505.576	14943
505.779	15065.88
505.982	15536.91
506.185	15549.2
506.387	15551.25
506.59	15786.77
506.793	16134.92
506.996	16139.02
507.198	16491.27
507.401	16593.67
507.604	16532.23
507.807	16646.91
508.009	17261.3
508.212	16995.07
508.415	17349.37
508.617	17621.75
508.82	17593.08
509.022	17703.67
509.225	18346.73
509.428	18191.08
509.63	18539.24
509.833	18678.5
510.035	19098.33
510.238	18637.54
510.44	18830.05
510.643	19139.29
510.845	19518.17
511.048	19516.12
511.25	19718.87
511.453	19948.24
511.655	20890.31
511.858	20366.03
512.06	20587.21
512.262	20511.43
512.465	20798.15
512.667	21129.92
512.87	21623.48
513.072	21226.17
513.274	21899.95
513.477	22039.22
513.679	22188.72
513.881	22366.89
514.084	22702.76
514.286	22506.15
514.488	22915.75
514.69	23364.25
514.893	23593.62
515.095	23601.82
515.297	23988.88
515.499	23722.65
515.701	24638.09
515.904	24378
516.106	24486.54
516.308	25062.02
516.51	24822.41
516.712	25361.02
516.914	25799.29
517.116	25758.33
517.318	25903.73
517.52	26124.91
517.722	26468.97
517.925	26528.36
518.127	26888.81
518.329	27232.86
518.531	26872.42
518.733	27304.54
518.935	27912.79
519.136	27691.61
519.338	28197.46
519.54	28322.38
519.742	28754.51
519.944	28666.44
520.146	29252.16
520.348	29475.39
520.55	29766.2
520.752	29475.39
520.954	30106.16
521.155	29973.05
521.357	30382.64
521.559	30480.94
521.761	30945.83
521.963	31269.41
522.164	31113.77
522.366	31330.85
522.568	31668.76
522.77	31646.24
522.971	32518.67
523.173	32107.03
523.375	32401.94
523.576	32414.23
523.778	32811.53
523.98	33153.54
524.181	33042.95
524.383	33249.8
524.584	33432.07
524.786	33264.13
524.988	33563.14
525.189	33759.74
525.391	34503.15
525.592	34046.46
525.794	34267.64
525.995	34138.62
526.197	34365.94
526.398	34431.47
526.6	34998.76
526.801	35181.03
527.003	35068.39
527.204	35172.84
527.406	35895.77
527.607	35324.39
527.808	35998.17
528.01	35480.03
528.211	35353.06
528.412	36567.51
528.614	35973.6
528.815	35832.29
529.016	36497.88
529.218	36198.87
529.419	36301.27
529.62	36616.66
529.822	36479.44
530.023	36569.55
530.224	36776.4
530.425	36721.1
530.626	36700.62
530.828	36536.79
531.029	37597.63
531.23	37110.22
531.431	36747.73
531.632	37198.28
531.833	37317.06
532.035	37050.83
532.236	37095.88
532.437	37427.65
532.638	37263.82
532.839	37763.52
533.04	37337.54
533.241	36925.9
533.442	37677.51
533.643	37292.49
533.844	37628.35
534.045	37636.55
534.246	37165.51
534.447	37835.2
534.648	37714.37
534.849	37831.1
535.05	37122.51
535.251	37769.66
535.451	37151.18
535.652	37497.28
535.853	37722.56
536.054	37626.31
536.255	37777.86
536.456	37480.9
536.657	38201.79
536.857	37345.73
537.058	37091.79
537.259	37507.52
537.46	37775.81
537.66	37732.8
537.861	37499.33
538.062	37364.17
538.263	37583.3
538.463	37521.86
538.664	37697.98
538.865	37560.77
539.065	38060.48
539.266	37124.55
539.466	37747.14
539.667	37265.86
539.868	37554.63
540.068	37718.46
540.269	37706.18
540.469	37812.67
540.67	37482.95
540.87	37620.16
541.071	37749.18
541.271	37810.62
541.472	37767.62
541.672	37366.21
541.873	37632.45
542.073	37161.42
542.274	37970.36
542.474	37550.53
542.675	37089.74
542.875	37859.77
543.075	37229
543.276	37185.99
543.476	37876.16
543.676	37177.8
543.877	37267.91
544.077	37435.84
544.277	37140.94
544.478	37159.37
544.678	37728.7
544.878	37521.86
545.078	37038.54
545.279	37192.14
545.479	37419.46
545.679	37470.66
545.879	37360.07
546.079	37632.45
546.28	37345.73
546.48	37081.55
546.68	37489.09
546.88	37530.05
547.08	37560.77
547.28	37249.48
547.48	37071.31
547.68	37372.36
547.88	36807.12
548.081	37417.41
548.281	37054.92
548.481	37335.49
548.681	37239.24
548.881	37370.31
549.081	37212.62
549.28	37386.69
549.48	37609.92
549.68	37243.34
549.88	37355.97
550.08	36901.32
550.28	36962.76
550.48	37460.42
550.68	37302.73
550.88	37104.07
551.08	37204.42
551.279	37067.21
551.479	36567.51
551.679	36991.44
551.879	37009.87
552.079	37220.81
552.278	37009.87
552.478	37429.7
552.678	37224.9
552.878	36948.43
553.077	37106.12
553.277	36594.13
553.477	37087.69
553.676	36942.28
553.876	37001.68
554.076	36696.53
554.275	36913.61
554.475	36256.21
554.674	37020.11
554.874	37128.65
555.074	36823.5
555.273	36614.61
555.473	36893.13
555.672	36544.98
555.872	36522.45
556.071	36411.86
556.271	36706.77
556.47	36368.85
556.67	35854.81
556.869	36385.24
557.068	36524.5
557.268	36276.69
557.467	36317.65
557.667	36151.77
557.866	36506.07
558.065	36219.35
558.265	36090.33
558.464	35908.06
558.663	36418
558.863	35568.1
559.062	36592.08
559.261	35858.91
559.461	36012.51
559.66	35473.89
559.859	35545.57
560.058	35314.15
560.258	35566.05
560.457	35656.16
560.656	35660.26
560.855	35672.54
561.054	35592.67
561.253	35267.05
561.453	35408.36
561.652	35269.09
561.851	35678.69
562.05	35195.37
562.249	35090.92
562.448	35168.74
562.647	35428.84
562.846	35099.11
563.045	34996.71
563.244	34773.49
563.443	35148.26
563.642	34593.26
563.841	34732.53
564.04	34533.87
564.239	34914.8
564.438	34607.6
564.637	34576.88
564.836	34554.35
565.035	34157.05
565.234	34284.02
565.432	34396.66
565.631	33991.16
565.83	34261.49
566.029	33978.87
566.228	33894.91
566.427	34042.36
566.625	33628.67
566.824	33395.2
567.023	33706.49
567.222	33401.35
567.42	33995.26
567.619	33827.32
567.818	33274.37
568.016	33372.67
568.215	33839.61
568.414	33249.8
568.612	33260.04
568.811	32987.66
569.01	33012.23
569.208	32619.02
569.407	33092.1
569.605	32645.65
569.804	33038.86
570.002	32508.43
570.201	32674.32
570.4	32340.5
570.598	32272.92
570.797	32266.77
570.995	32252.44
571.193	31924.76
571.392	32504.34
571.59	31744.54
571.789	31994.39
571.987	31859.23
572.186	31842.84
572.384	31738.4
572.582	32014.87
572.781	31365.67
572.979	31554.08
573.177	31658.52
573.376	31603.23
573.574	30767.66
573.772	31396.38
573.971	31279.65
574.169	31056.42
574.367	31056.42
574.565	31103.53
574.763	30499.37
574.962	30911.02
575.16	30626.35
575.358	30837.29
575.556	30458.42
575.754	30577.2
575.952	30356.02
576.151	30497.33
576.349	30360.11
576.547	30267.95
576.745	30261.81
576.943	30177.84
577.141	29753.91
577.339	30126.64
577.537	29772.35
577.735	29887.03
577.933	29338.18
578.131	29770.3
578.329	29682.24
578.527	29438.53
578.725	29504.06
578.923	29510.21
579.121	29041.22
579.319	29145.67
579.516	29372.99
579.714	29049.41
579.912	28717.64
580.11	28652.11
580.308	28961.35
580.506	28674.63
580.704	28488.27
580.901	28707.4
581.099	28996.17
581.297	28486.22
581.495	28260.94
581.692	28183.12
581.89	28082.77
582.088	28467.79
582.285	27953.75
582.483	28340.82
582.681	27972.18
582.878	27830.87
583.076	27646.55
583.274	27603.55
583.471	27417.18
583.669	27703.9
583.866	27009.64
584.064	27816.54
584.262	27089.51
584.459	27161.19
584.657	26960.48
584.854	27314.78
585.052	26747.5
585.249	26907.24
585.447	26989.16
585.644	26522.22
585.841	26989.16
586.039	27206.24
586.236	26520.17
586.434	26561.13
586.631	26421.87
586.828	26575.47
587.026	26575.47
587.223	26270.32
587.42	26305.13
587.618	26260.08
587.815	25971.32
588.012	25725.56
588.21	25815.67
588.407	25875.06
588.604	26139.25
588.801	25381.5
588.999	25614.97
589.196	25739.9
589.393	25748.09
589.59	25184.9
589.787	25131.65
589.984	25227.9
590.182	25068.16
590.379	25211.52
590.576	24967.81
590.773	24863.36
590.97	24717.96
591.167	25004.67
591.364	24541.83
591.561	25070.21
591.758	24240.78
591.955	24568.46
592.152	24799.88
592.349	24445.58
592.546	24464.01
592.743	24324.75
592.94	24081.04
593.137	24097.42
593.334	24588.94
593.531	23841.43
593.727	23636.63
593.924	24122
594.121	23786.13
594.318	23827.09
594.515	23507.61
594.712	23507.61
594.908	23765.65
595.105	23415.45
595.302	23098.02
595.499	23734.93
595.696	23175.84
595.892	22985.38
596.089	23124.64
596.286	23337.63
596.482	23044.77
596.679	22893.22
596.876	22465.19
597.072	22702.76
597.269	22721.19
597.466	22450.86
597.662	22622.89
597.859	22526.63
598.055	22555.3
598.252	22659.75
598.448	22293.16
598.645	22201.01
598.841	22225.58
599.038	22192.81
599.234	22158
599.431	21850.8
599.627	21775.03
599.824	21881.52
600.02	21736.12
600.217	21791.41
600.413	21639.86
600.609	21355.19
600.806	21637.81
601.002	21668.53
601.198	21328.57
601.395	21265.08
601.591	21473.98
601.787	21146.3
601.984	21291.71
602.18	21326.52
602.376	20941.5
602.572	21119.68
602.769	20839.11
602.965	20804.29
603.161	20923.07
603.357	20716.23
603.553	20558.53
603.75	20476.62
603.946	20400.84
604.142	20359.88
604.338	20138.7
604.534	20183.76
604.73	20226.76
604.926	20185.8
605.122	20087.5
605.318	19921.62
605.514	19860.18
605.71	19950.29
605.906	19815.12
606.102	19983.06
606.298	20005.58
606.494	19710.68
606.69	19958.48
606.886	19774.16
607.082	19530.45
607.278	19720.92
607.474	19643.09
607.67	19567.32
607.866	19264.22
608.062	19532.5
608.257	19399.38
608.453	19546.84
608.649	19165.92
608.845	19215.07
609.041	19063.52
609.236	19182.3
609.432	18989.79
609.628	19118.81
609.824	18961.12
610.019	18952.93
610.215	19172.06
610.411	18883.3
610.606	18856.67
610.802	18924.26
610.998	18848.48
611.193	18723.55
611.389	18748.13
611.584	18727.65
611.78	18748.13
611.976	18555.62
612.171	18641.64
612.367	18584.29
612.562	18383.59
612.758	18100.97
612.953	18055.92
613.149	18332.39
613.344	18164.46
613.539	18418.41
613.735	18363.11
613.93	18301.67
614.126	18076.4
614.321	18318.06
614.517	18293.48
614.712	17980.14
614.907	18080.49
615.103	18115.31
615.298	17881.84
615.493	18375.4
615.688	17783.54
615.884	18178.79
616.079	17515.25
616.274	17838.83
616.47	17466.1
616.665	17713.91
616.86	17605.36
617.055	17638.13
617.25	17310.46
617.445	17789.68
617.641	17042.17
617.836	17566.45
618.031	17160.95
618.226	17412.85
618.421	17402.61
618.616	17257.21
618.811	16796.42
619.006	17431.29
619.201	16835.33
619.396	17244.92
619.591	16614.15
619.786	16907.01
619.981	16585.47
620.176	16747.26
620.371	16483.08
620.566	16691.97
620.761	16311.05
620.956	16589.57
621.151	16292.62
621.346	16163.59
621.541	16012.04
621.735	16171.79
621.93	16188.17
622.125	16118.54
622.32	15782.67
622.515	15891.21
622.709	15536.91
622.904	15794.96
623.099	15510.29
623.294	15606.55
623.488	15379.22
623.683	15358.74
623.878	15389.46
624.072	15266.58
624.267	15305.49
624.462	15004.44
624.656	14854.94
624.851	14938.91
625.046	14748.45
625.24	14734.11
625.435	14580.51
625.629	14750.49
625.824	14441.25
626.018	14527.27
626.213	14000.94
626.407	14152.49
626.602	14138.15
626.796	14213.93
626.991	14154.54
627.185	14050.09
627.38	13632.3
627.574	13767.47
627.768	13611.82
627.963	13501.23
628.157	13484.85
628.352	13497.14
628.546	13505.33
628.74	13431.6
628.935	13146.94
629.129	12948.28
629.323	13278.01
629.517	13314.87
629.712	12997.43
629.906	12929.85
630.1	12757.82
630.294	12905.28
630.489	12706.62
630.683	12776.25
630.877	12735.29
631.071	12510.02
631.265	12354.37
631.459	12346.18
631.653	12229.45
631.848	12211.01
632.042	12264.26
632.236	12249.93
632.43	12010.31
632.624	12174.15
632.818	11993.93
633.012	11852.62
633.206	11803.47
633.4	11723.6
633.594	11797.32
633.788	11559.76
633.982	11660.11
634.176	11502.42
634.369	11375.44
634.563	11418.45
634.757	11516.75
634.951	11391.83
635.145	11350.87
635.339	11332.44
635.533	10967.9
635.726	11129.69
635.92	10871.64
636.114	10928.99
636.308	10902.36
636.501	10881.88
636.695	10963.8
636.889	10681.18
637.083	10503.01
637.276	10650.46
637.47	10646.37
637.664	10683.23
637.857	10406.75
638.051	10363.75
638.244	10390.37
638.438	10228.58
638.632	10247.01
638.825	10150.76
639.019	10023.78
639.212	10169.19
639.406	9958.25
639.599	10083.17
639.793	9952.1
639.986	9763.69
640.18	9730.92
640.373	9837.42
640.567	9640.81
640.76	9782.12
640.954	9649
641.147	9726.83
641.34	9503.6
641.534	9446.26
641.727	9255.79
641.92	9347.95
642.114	9296.75
642.307	9204.6
642.5	9180.02
642.694	9046.9
642.887	8848.25
643.08	9151.35
643.273	9104.25
643.467	8954.74
643.66	8835.96
643.853	8876.92
644.046	8831.87
644.239	8657.79
644.432	8776.57
644.626	8516.48
644.819	8448.9
645.012	8596.35
645.205	8539.01
645.398	8489.85
645.591	8405.89
645.784	8547.2
645.977	8350.59
646.17	8235.91
646.363	8209.28
646.556	8000.39
646.749	8213.38
646.942	8223.62
647.135	8022.92
647.328	8051.59
647.521	8072.07
647.714	7881.61
647.907	7994.25
648.099	7873.42
648.292	7832.46
648.485	7811.98
648.678	7685
648.871	7738.25
649.064	7572.36
649.256	7580.56
649.449	7537.55
649.642	7457.68
649.835	7435.15
650.027	7283.6
650.22	7500.69
650.413	7435.15
650.605	7357.33
650.798	7390.1
650.991	7234.45
651.183	7259.03
651.376	7125.91
651.568	7119.76
651.761	7003.03
651.954	6996.89
652.146	7091.09
652.339	6824.86
652.531	7037.84
652.724	6931.35
652.916	6816.66
653.109	6644.63
653.301	6849.43
653.494	6665.11
653.686	6423.45
653.879	6656.92
654.071	6810.52
654.263	6589.34
654.456	6521.76
654.648	6595.48
654.84	6374.3
655.033	6497.18
655.225	6456.22
655.417	6165.41
655.61	6448.03
655.802	6290.34
655.994	6269.86
656.186	6431.65
656.379	6083.49
656.571	6220.71
656.763	6163.36
656.955	6046.63
657.148	5991.33
657.34	6116.26
657.532	5997.48
657.724	6044.58
657.916	5985.19
658.108	6034.34
658.3	6001.57
658.492	5811.11
658.684	5731.24
658.876	5866.41
659.068	5800.87
659.26	5737.38
659.452	5546.92
659.644	5686.19
659.836	5573.55
660.028	5546.92
660.22	5604.27
660.412	5499.82
660.604	5573.55
660.796	5465
660.988	5456.81
661.18	5579.69
661.372	5495.72
661.563	5256.11
661.755	5321.65
661.947	5436.33
662.139	5155.76
662.331	5249.97
662.522	5184.43
662.714	5381.04
662.906	5280.69
663.097	5249.97
663.289	5186.48
663.481	5096.37
663.673	4983.73
663.864	4848.57
664.056	4830.13
664.247	5047.22
664.439	4959.16
664.631	4983.73
664.822	4867
665.014	4916.15
665.205	4875.19
665.397	4828.09
665.588	4875.19
665.78	4711.35
665.971	4877.24
666.163	4776.89
666.354	4762.55
666.546	4658.1
666.737	4627.39
666.929	4637.63
667.12	4615.1
667.311	4535.23
667.503	4492.22
667.694	4539.32
667.885	4373.44
668.077	4504.51
668.268	4443.07
668.459	4498.36
668.651	4516.8
668.842	4461.5
669.033	4332.48
669.224	4391.87
669.416	4363.2
669.607	4367.29
669.798	4326.33
669.989	4180.93
670.18	4318.14
670.371	4293.57
670.563	4207.55
670.754	4260.8
670.945	4228.03
671.136	4015.04
671.327	3996.61
671.518	4178.88
671.709	4072.39
671.9	4064.19
672.091	4000.71
672.282	3992.52
672.473	3943.36
672.664	3972.04
672.855	3924.93
673.046	3945.41
673.237	4039.62
673.428	3908.55
673.619	3972.04
673.809	3886.02
674	3834.82
674.191	3711.94
674.382	3703.75
674.573	3703.75
674.764	3810.25
674.954	3736.52
675.145	3630.02
675.336	3679.18
675.527	3617.74
675.717	3861.45
675.908	3740.61
676.099	3601.35
676.289	3654.6
676.48	3550.15
676.671	3568.59
676.861	3703.75
677.052	3503.05
677.243	3486.67
677.433	3544.01
677.624	3429.32
677.814	3599.31
678.005	3425.23
678.195	3521.48
678.386	3494.86
678.576	3376.08
678.767	3392.46
678.957	3468.24
679.148	3523.53
679.338	3468.24
679.529	3396.56
679.719	3285.97
679.909	3466.19
680.1	3472.33
680.29	3408.84
680.481	3351.5
680.671	3388.36
680.861	3285.97
681.052	3343.31
681.242	3304.4
681.432	3347.4
681.622	3232.72
681.813	3183.57
682.003	3179.47
682.193	3212.24
682.383	3224.53
682.573	3154.9
682.764	3257.29
682.954	3238.86
683.144	3085.26
683.334	3081.17
683.524	3181.52
683.714	3148.75
683.904	3072.98
684.094	3058.64
684.284	3079.12
684.474	3105.74
684.664	2952.15
684.854	3011.54
685.044	3007.44
685.234	2900.95
685.424	2958.29
685.614	2935.76
685.804	3032.02
685.994	2991.06
686.184	2993.11
686.374	2773.97
686.564	2943.96
686.753	2874.32
686.943	2927.57
687.133	2786.26
687.323	2984.91
687.513	2888.66
687.702	2855.89
687.892	2868.18
688.082	2868.18
688.272	2753.49
688.461	2798.55
688.651	2855.89
688.841	2704.34
689.03	2755.54
689.22	2638.81
689.41	2798.55
689.599	2745.3
689.789	2716.63
689.979	2769.88
690.168	2753.49
690.358	2765.78
690.547	2634.71
690.737	2827.22
690.926	2698.2
691.116	2513.88
691.305	2696.15
691.495	2706.39
691.684	2651.1
691.874	2470.87
692.063	2657.24
692.252	2565.08
692.442	2532.31
692.631	2548.7
692.82	2501.59
693.01	2575.32
693.199	2524.12
693.388	2479.07
693.578	2581.46
693.767	2724.82
693.956	2483.16
694.146	2499.55
694.335	2331.61
694.524	2501.59
694.713	2503.64
694.902	2454.49
695.092	2493.4
695.281	2458.59
695.47	2526.17
695.659	2429.91
695.848	2542.55
696.037	2438.11
696.226	2417.63
696.415	2388.96
696.604	2313.18
696.793	2450.39
696.982	2319.32
697.171	2423.77
697.36	2495.45
697.549	2393.05
697.738	2427.87
697.927	2429.91
698.116	2272.22
698.305	2313.18
698.494	2378.72
698.683	2315.23
698.872	2419.68
699.061	2298.84
699.25	2327.52
699.438	2325.47
699.627	2427.87
699.816	2278.37
700.005	2327.52
700.193	2335.71
700.382	2372.57
700.571	2372.57
700.76	2444.25
700.948	2436.06
701.137	2278.37
701.326	2401.24
701.514	2335.71
701.703	2286.56
701.892	2372.57
702.08	2393.05
702.269	2321.37
702.457	2409.44
702.646	2255.84
702.834	2327.52
703.023	2261.98
703.212	2331.61
703.4	2270.17
703.589	2159.58
703.777	2327.52
703.965	2290.65
704.154	2354.14
704.342	2274.27
704.531	2272.22
704.719	2237.41
704.907	2311.13
705.096	2218.97
705.284	2331.61
705.472	2343.9
705.661	2239.45
705.849	2380.76
706.037	2237.41
706.226	2167.77
706.414	2229.21
706.602	2302.94
706.79	2294.75
706.979	2204.64
707.167	2188.25
707.355	2272.22
707.543	2298.84
707.731	2296.8
707.919	2413.53
708.107	2261.98
708.296	2280.41
708.484	2223.07
708.672	2270.17
708.86	2206.69
709.048	2245.6
709.236	2284.51
709.424	2261.98
709.612	2223.07
709.8	2145.25
709.988	2259.93
710.176	2264.03
710.364	2249.69
710.551	2116.58
710.739	2182.11
710.927	2192.35
711.115	2282.46
711.303	2202.59
711.491	2235.36
711.679	2259.93
711.866	2173.92
712.054	2296.8
712.242	2247.65
712.43	2204.64
712.617	2259.93
712.805	2395.1
712.993	2286.56
713.181	2178.01
713.368	2231.26
713.556	2165.73
713.744	2212.83
713.931	2278.37
714.119	2118.62
714.306	2098.14
714.494	2180.06
714.682	2175.97
714.869	2149.34
715.057	2233.31
715.244	2249.69
715.432	2321.37
715.619	2178.01
715.807	2059.23
715.994	2313.18
716.182	2165.73
716.369	2155.49
716.556	2278.37
716.744	2163.68
716.931	2196.45
717.119	2212.83
717.306	2126.82
717.493	2261.98
717.681	2147.3
717.868	2235.36
718.055	2151.39
718.242	2198.49
718.43	2221.02
718.617	2196.45
718.804	2061.28
718.991	2223.07
719.179	2212.83
719.366	2239.45
719.553	2116.58
719.74	2208.73
719.927	2141.15
720.114	2110.43
720.301	2192.35
720.488	2122.72
720.676	2178.01
720.863	2221.02
721.05	2182.11
721.237	2159.58
721.424	2223.07
721.611	2266.08
721.798	2114.53
721.985	2171.87
722.172	2165.73
722.358	2135.01
722.545	2126.82
722.732	2188.25
722.919	2171.87
723.106	2100.19
723.293	2153.44
723.48	2124.77
723.667	2098.14
723.853	2143.2
724.04	2190.3
724.227	2057.18
724.414	2139.1
724.6	2114.53
724.787	2104.29
724.974	2163.68
725.161	2114.53
725.347	1995.75
725.534	2057.18
725.72	2253.79
725.907	2161.63
726.094	2204.64
726.28	2114.53
726.467	2081.76
726.653	1942.5
726.84	2270.17
727.027	2161.63
727.213	2173.92
727.4	2192.35
727.586	2098.14
727.773	1958.88
727.959	2083.81
728.145	2067.42
728.332	2055.14
728.518	1975.27
728.705	2151.39
728.891	2116.58
729.077	1993.7
729.264	1991.65
729.45	2092
729.636	2157.54
729.823	2124.77
730.009	2003.94
730.195	2069.47
730.382	2089.95
730.568	2100.19
730.754	2098.14
730.94	1999.84
731.126	2155.49
731.313	2161.63
731.499	2044.9
731.685	2116.58
731.871	2057.18
732.057	2071.52
732.243	1962.98
732.429	2026.47
732.615	2155.49
732.801	1975.27
732.987	2124.77
733.173	2110.43
733.359	1981.41
733.545	2048.99
733.731	1979.36
733.917	1893.35
734.103	1999.84
734.289	2098.14
734.475	1995.75
734.661	2132.96
734.847	1962.98
735.033	2001.89
735.219	2024.42
735.404	2024.42
735.59	2044.9
735.776	1948.64
735.962	1917.92
736.148	2067.42
736.333	2092
736.519	2034.66
736.705	2016.23
736.89	1905.63
737.076	1852.39
737.262	1928.16
737.447	1954.79
737.633	1962.98
737.819	2008.03
738.004	2032.61
738.19	1936.35
738.375	1983.46
738.561	1991.65
738.747	1809.38
738.932	1895.4
739.118	1901.54
739.303	1901.54
739.489	1975.27
739.674	1809.38
739.859	1895.4
740.045	1868.77
740.23	1876.96
740.416	1723.37
740.601	1885.16
740.786	1879.01
740.972	1745.89
741.157	1829.86
741.342	1852.39
741.528	1879.01
741.713	1852.39
741.898	1889.25
742.084	1934.31
742.269	1868.77
742.454	1876.96
742.639	1829.86
742.824	1784.8
743.01	1795.04
743.195	1733.61
743.38	1561.58
743.565	1788.9
743.75	1678.31
743.935	1747.94
744.12	1639.4
744.305	1764.33
744.49	1756.13
744.675	1666.02
744.86	1729.51
745.045	1715.17
745.23	1643.49
745.415	1696.74
745.6	1663.97
745.785	1668.07
745.97	1739.75
746.155	1713.13
746.34	1666.02
746.525	1688.55
746.71	1600.49
746.895	1690.6
747.079	1553.38
747.264	1567.72
747.449	1577.96
747.634	1604.58
747.819	1577.96
748.003	1469.42
748.188	1461.23
748.373	1647.59
748.557	1592.3
748.742	1575.91
748.927	1498.09
749.111	1545.19
749.296	1500.14
749.481	1541.1
749.665	1510.38
749.85	1469.42
750.034	1432.55
750.219	1467.37
750.404	1524.71
750.588	1371.12
750.773	1354.73
750.957	1541.1
751.141	1420.27
751.326	1418.22
751.51	1358.83
751.695	1471.47
751.879	1395.69
752.064	1412.07
752.248	1352.68
752.432	1442.79
752.617	1405.93
752.801	1289.2
752.985	1340.4
753.17	1330.16
753.354	1328.11
753.538	1266.67
753.722	1303.53
753.907	1278.96
754.091	1270.76
754.275	1252.33
754.459	1254.38
754.643	1180.65
754.828	1272.81
755.012	1221.61
755.196	1250.28
755.38	1248.24
755.564	1287.15
755.748	1231.85
755.932	1238
756.116	1238
756.3	1123.31
756.484	1223.66
756.668	1199.09
756.852	1061.87
757.036	1164.27
757.22	1168.37
757.404	1147.89
757.588	1068.02
757.772	1086.45
757.956	1117.17
758.14	1131.5
758.323	1098.74
758.507	1111.02
758.691	1057.78
758.875	1192.94
759.059	1094.64
759.242	998.38
759.426	1147.89
759.61	1045.49
759.794	1076.21
759.977	957.43
760.161	1168.37
760.345	1041.39
760.528	1053.68
760.712	1025.01
760.895	1033.2
761.079	967.67
761.263	1020.91
761.446	938.99
761.63	1051.63
761.813	1016.82
761.997	918.51
762.18	979.95
762.364	975.86
762.547	959.47
762.731	1027.06
762.914	943.09
763.098	934.9
763.281	932.85
763.464	932.85
763.648	1008.62
763.831	984.05
764.015	945.14
764.198	930.8
764.381	887.79
764.564	926.71
764.748	926.71
764.931	977.91
765.114	924.66
765.297	1016.82
765.481	895.99
765.664	846.84
765.847	881.65
766.03	938.99
766.213	902.13
766.397	852.98
766.58	910.32
766.763	904.18
766.946	846.84
767.129	844.79
767.312	898.03
767.495	812.02
767.678	844.79
767.861	857.07
768.044	877.55
768.227	799.73
768.41	781.3
768.593	850.93
768.776	762.87
768.959	809.97
769.142	861.17
769.324	844.79
769.507	820.21
769.69	877.55
769.873	805.88
770.056	836.6
770.239	756.72
770.421	820.21
770.604	871.41
770.787	822.26
770.97	824.31
771.152	816.12
771.335	820.21
771.518	748.53
771.7	900.08
771.883	787.44
772.066	738.29
772.248	775.16
772.431	795.64
772.613	791.54
772.796	762.87
772.978	775.16
773.161	726
773.343	683
773.526	656.37
773.708	723.96
773.891	734.2
774.073	644.09
774.256	713.72
774.438	771.06
774.621	693.24
774.803	736.24
774.985	656.37
775.168	732.15
775.35	678.9
775.532	672.76
775.715	697.33
775.897	689.14
776.079	652.28
776.261	689.14
776.444	617.46
776.626	648.18
776.808	678.9
776.99	560.12
777.173	594.93
777.355	783.35
777.537	582.65
777.719	584.7
777.901	613.37
778.083	586.74
778.265	607.22
778.447	625.65
778.629	513.02
778.811	654.33
778.993	644.09
779.175	627.7
779.357	592.89
779.539	599.03
779.721	633.85
779.903	506.87
780.085	525.3
780.267	668.66
780.449	617.46
780.631	631.8
780.812	562.17
780.994	500.73
781.176	535.54
781.358	508.92
781.54	517.11
781.721	535.54
781.903	541.69
782.085	562.17
782.267	508.92
782.448	492.54
782.63	453.63
782.812	461.82
782.993	570.36
783.175	556.02
783.357	488.44
783.538	492.54
783.72	467.96
783.901	412.67
784.083	500.73
784.264	551.93
784.446	488.44
784.627	435.19
784.809	500.73
784.99	441.34
785.172	494.58
785.353	459.77
785.535	486.39
785.716	431.1
785.897	390.14
786.079	527.35
786.26	447.48
786.441	431.1
786.623	377.85
786.804	408.57
786.985	472.06
787.167	410.62
787.348	410.62
787.529	453.63
787.71	529.4
787.891	416.76
788.073	412.67
788.254	427
788.435	463.86
788.616	439.29
788.797	320.51
788.978	369.66
789.159	377.85
789.34	355.32
789.522	459.77
789.703	465.91
789.884	457.72
790.065	386.04
790.246	439.29
790.427	336.89
790.607	451.58
790.788	320.51
790.969	355.32
791.15	404.47
791.331	320.51
791.512	353.27
791.693	312.32
791.874	394.23
792.054	422.91
792.235	324.6
792.416	295.93
792.597	349.18
792.778	308.22
792.958	340.99
793.139	314.36
793.32	355.32
793.5	353.27
793.681	439.29
793.862	287.74
794.042	347.13
794.223	353.27
794.404	300.03
794.584	238.59
794.765	330.75
794.945	361.47
795.126	291.84
795.306	271.36
795.487	306.17
795.667	244.73
795.848	388.09
796.028	263.16
796.209	306.17
796.389	369.66
796.57	289.79
796.75	246.78
796.93	259.07
797.111	287.74
797.291	287.74
797.471	207.87
797.652	238.59
797.832	197.63
798.012	308.22
798.192	226.3
798.373	263.16
798.553	214.01
798.733	263.16
798.913	279.55
799.093	316.41
799.274	254.97
799.454	207.87
799.634	314.36
799.814	263.16
799.994	222.2
800.174	295.93
800.354	222.2
800.534	179.2
800.714	230.4
800.894	191.49
801.074	203.77
801.254	214.01
801.434	199.68
801.614	191.49
801.794	158.72
801.974	707.57
802.154	238.59
802.334	205.82
802.514	205.82
802.693	189.44
802.873	230.4
803.053	244.73
803.233	230.4
803.413	199.68
803.592	250.88
803.772	156.67
803.952	254.97
804.131	199.68
804.311	218.11
804.491	207.87
804.67	193.53
804.85	150.53
805.03	267.26
805.209	132.09
805.389	230.4
805.568	218.11
805.748	164.86
805.928	242.68
806.107	216.06
806.287	279.55
806.466	218.11
806.646	230.4
806.825	195.58
807.004	189.44
807.184	205.82
807.363	193.53
807.543	263.16
807.722	181.25
807.901	214.01
808.081	191.49
808.26	150.53
808.439	115.71
808.619	218.11
808.798	197.63
808.977	177.15
809.156	211.96
809.336	173.05
809.515	234.49
809.694	181.25
809.873	181.25
810.052	197.63
810.231	156.67
810.411	175.1
810.59	187.39
810.769	177.15
810.948	228.35
811.127	132.09
811.306	168.96
811.485	158.72
811.664	173.05
811.843	177.15
812.022	168.96
812.201	156.67
812.38	156.67
812.559	144.38
812.737	134.14
812.916	150.53
813.095	103.42
813.274	144.38
813.453	158.72
813.632	95.23
813.811	183.29
813.989	82.94
814.168	216.06
814.347	132.09
814.526	115.71
814.704	134.14
814.883	207.87
815.062	160.77
815.24	173.05
815.419	62.46
815.598	189.44
815.776	138.24
815.955	140.29
816.133	58.37
816.312	238.59
816.49	123.9
816.669	82.94
816.847	152.57
817.026	109.57
817.204	117.76
817.383	123.9
817.561	105.47
817.74	185.34
817.918	82.94
818.097	17.41
818.275	66.56
818.453	117.76
818.632	130.05
818.81	50.18
818.988	142.33
819.167	125.95
819.345	87.04
819.523	140.29
819.701	58.37
819.879	164.86
820.058	68.61
820.236	117.76
820.414	54.27
820.592	175.1
820.77	177.15
820.948	74.75
821.127	117.76
821.305	181.25
821.483	156.67
821.661	152.57
821.839	154.62
822.017	125.95
822.195	103.42
822.373	214.01
822.551	128
822.729	101.37
822.907	64.51
823.085	123.9
823.262	164.86
823.44	107.52
823.618	82.94
823.796	132.09
823.974	70.65
824.152	82.94
824.329	156.67
824.507	109.57
824.685	152.57
824.863	19.46
825.04	66.56
825.218	173.05
825.396	103.42
825.574	173.05
825.751	142.33
825.929	31.74
826.107	125.95
826.284	99.33
826.462	68.61
826.639	41.98
826.817	101.37
826.994	173.05
827.172	109.57
827.349	156.67
827.527	144.38
827.704	35.84
827.882	68.61
828.059	103.42
828.237	66.56
828.414	103.42
828.591	29.7
828.769	64.51
828.946	50.18
829.124	150.53
829.301	107.52
829.478	52.22
829.655	107.52
829.833	140.29
830.01	140.29
830.187	60.42
830.364	29.7
830.542	33.79
830.719	97.28
830.896	107.52
831.073	91.13
831.25	78.85
831.427	101.37
831.604	74.75
831.782	66.56
831.959	66.56
832.136	72.7
832.313	74.75
832.49	44.03
832.667	80.89
832.844	66.56
833.021	109.57
833.198	46.08
833.374	41.98
833.551	80.89
833.728	109.57
833.905	46.08
834.082	68.61
834.259	56.32
834.436	109.57
834.612	60.42
834.789	82.94
834.966	99.33
835.143	72.7
835.319	41.98
835.496	82.94
835.673	13.31
835.85	140.29
836.026	17.41
836.203	123.9
836.38	41.98
836.556	13.31
836.733	33.79
836.909	117.76
837.086	5.12
837.262	52.22
837.439	25.6
837.616	58.37
837.792	27.65
837.968	78.85
838.145	-15.36
838.321	101.37
838.498	134.14
838.674	19.46
838.851	123.9
839.027	70.65
839.203	25.6
839.38	123.9
839.556	9.22
839.732	33.79
839.909	39.94
840.085	117.76
840.261	5.12
840.437	87.04
840.614	27.65
840.79	60.42
840.966	125.95
841.142	74.75
841.318	31.74
841.494	103.42
841.671	62.46
841.847	54.27
842.023	41.98
842.199	84.99
842.375	62.46
842.551	25.6
842.727	33.79
842.903	91.13
843.079	44.03
843.255	58.37
843.431	132.09
843.607	17.41
843.783	19.46
843.959	82.94
844.134	46.08
844.31	50.18
844.486	1.02
844.662	62.46
844.838	31.74
845.013	119.81
845.189	5.12
845.365	48.13
845.541	87.04
845.716	76.8
845.892	58.37
846.068	142.33
846.244	66.56
846.419	68.61
846.595	19.46
846.77	41.98
846.946	72.7
847.122	82.94
847.297	27.65
847.473	46.08
847.648	-3.07
847.824	58.37
847.999	11.26
848.175	84.99
848.35	60.42
848.526	52.22
848.701	66.56
848.876	52.22
849.052	50.18
849.227	74.75
849.403	93.18
849.578	-19.46
849.753	56.32
849.929	19.46
850.104	50.18
850.279	50.18
850.454	58.37
850.63	66.56
850.805	62.46
850.98	125.95
851.155	101.37
851.33	123.9
851.505	68.61
851.681	89.09
851.856	66.56
852.031	37.89
852.206	-5.12
852.381	-1.02
852.556	-33.79
852.731	25.6
852.906	19.46
853.081	64.51
853.256	37.89
853.431	37.89
853.606	25.6
853.781	1.02
853.956	62.46
854.131	93.18
854.305	50.18
854.48	70.65
854.655	17.41
854.83	-21.5
855.005	-52.22
855.18	58.37
855.354	25.6
855.529	84.99
855.704	-54.27
855.879	132.09
856.053	-31.74
856.228	99.33
856.403	60.42
856.577	95.23
856.752	17.41
856.926	74.75
857.101	21.5
857.276	-3.07
857.45	25.6
857.625	99.33
857.799	19.46
857.974	-5.12
858.148	58.37
858.323	80.89
858.497	41.98
858.672	29.7
858.846	-37.89
859.02	58.37
859.195	41.98
859.369	25.6
859.543	-19.46
859.718	21.5
859.892	62.46
860.066	39.94
860.241	25.6
860.415	17.41
860.589	44.03
860.763	76.8
860.938	31.74
861.112	35.84
861.286	19.46
861.46	35.84
861.634	60.42
861.808	50.18
861.982	17.41
862.157	-27.65
862.331	-5.12
862.505	35.84
862.679	5.12
862.853	-19.46
863.027	-46.08
863.201	68.61
863.375	35.84
863.549	33.79
863.722	31.74
863.896	29.7
864.07	44.03
864.244	115.71
864.418	91.13
864.592	27.65
864.766	52.22
864.939	58.37
865.113	35.84
865.287	68.61
865.461	-74.75
865.634	64.51
865.808	37.89
865.982	17.41
866.156	29.7
866.329	5.12
866.503	-13.31
866.676	19.46
866.85	70.65
867.024	15.36
867.197	93.18
867.371	52.22
867.544	11.26
867.718	-37.89
867.891	52.22
868.065	19.46
868.238	64.51
868.412	95.23
868.585	-21.5
868.759	-39.94
868.932	70.65
869.105	27.65
869.279	29.7
869.452	-44.03
869.625	82.94
869.799	-11.26
869.972	-31.74
870.145	91.13
870.319	52.22
870.492	66.56
870.665	-44.03
870.838	-31.74
871.011	-54.27
871.185	-70.65
871.358	64.51
871.531	87.04
871.704	21.5
871.877	41.98
872.05	1.02
872.223	27.65
872.396	130.05
872.569	27.65
872.742	-60.42
872.915	39.94
873.088	-9.22
873.261	-7.17
873.434	171.01
873.607	31.74
873.78	136.19
873.953	-29.7
874.126	-11.26
874.299	35.84
874.471	74.75
874.644	33.79
874.817	-23.55
874.99	58.37
875.163	33.79
875.335	19.46
875.508	17.41
875.681	41.98
875.853	-3.07
876.026	-56.32
876.199	35.84
876.371	21.5
876.544	23.55
876.717	-23.55
876.889	50.18
877.062	-27.65
877.234	-5.12
877.407	17.41
877.579	25.6
877.752	44.03
877.924	-5.12
878.097	-39.94
878.269	64.51
878.442	17.41
878.614	39.94
878.786	17.41
878.959	37.89
879.131	17.41
879.303	-62.46
879.476	60.42
879.648	41.98
879.82	25.6
879.993	60.42
880.165	-39.94
880.337	70.65
880.509	93.18
880.681	-1.02
880.854	50.18
881.026	29.7
881.198	95.23
881.37	1.02
881.542	33.79
881.714	60.42
881.886	-39.94
882.058	-37.89
882.23	29.7
882.402	-68.61
882.574	44.03
882.746	84.99
882.918	31.74
883.09	33.79
883.262	3.07
883.434	15.36
883.606	11.26
883.778	3.07
883.95	128
884.122	25.6
884.293	74.75
884.465	52.22
884.637	33.79
884.809	29.7
884.98	27.65
885.152	9.22
885.324	46.08
885.496	-9.22
885.667	66.56
885.839	-23.55
886.011	80.89
886.182	19.46
886.354	-21.5
886.525	-19.46
886.697	87.04
886.869	17.41
887.04	5.12
887.212	50.18
887.383	44.03
887.555	-25.6
887.726	60.42
887.897	-23.55
888.069	44.03
888.24	41.98
888.412	11.26
888.583	19.46
888.754	-27.65
888.926	-21.5
889.097	5.12
889.268	27.65
889.44	37.89
889.611	13.31
889.782	-7.17
889.953	46.08
890.125	9.22
890.296	-27.65
890.467	66.56
890.638	-27.65
890.809	62.46
890.98	-19.46
891.151	99.33
891.323	82.94
891.494	-25.6
891.665	-15.36
891.836	31.74
892.007	-54.27
892.178	50.18
892.349	33.79
892.52	-19.46
892.691	62.46
892.862	-21.5
893.032	29.7
893.203	-72.7
893.374	-39.94
893.545	82.94
893.716	-33.79
893.887	-5.12
894.057	5.12
894.228	-29.7
894.399	76.8
894.57	5.12
894.74	-13.31
894.911	1.02
895.082	17.41
895.253	11.26
895.423	84.99
895.594	33.79
895.764	58.37
895.935	-52.22
896.106	46.08
896.276	74.75
896.447	-27.65
896.617	-21.5
896.788	27.65
896.958	-41.98
897.129	27.65
897.299	21.5
897.47	25.6
897.64	39.94
897.81	11.26
897.981	82.94
898.151	-46.08
898.322	27.65
898.492	48.13
898.662	-37.89
898.832	60.42
899.003	9.22
899.173	13.31
899.343	-15.36
899.513	-27.65
