Data from USB4F104151__273__14-46-10-858.txt Node

Date: Thu Mar 13 14:46:10 EDT 2025
User: louis
Spectrometer: USB4F10415
Trigger mode: 4
Integration Time (sec): 2.000000E-2
Scans to average: 1
Electric dark correction enabled: true
Nonlinearity correction enabled: false
Boxcar width: 0
XAxis mode: Wavelengths
Number of Pixels in Spectrum: 3648
>>>>>Begin Spectral Data<<<<<
178.204	-107.18
178.424	-107.18
178.644	-107.18
178.864	-146.09
179.084	-123.56
179.304	25.94
179.524	25.94
179.744	-15.02
179.964	-19.11
180.184	-43.69
180.404	66.9
180.624	-55.98
180.844	52.56
181.064	-109.22
181.283	50.52
181.503	-10.92
181.723	32.08
181.943	-27.31
182.163	105.81
182.383	-68.27
182.602	91.48
182.822	38.23
183.042	-37.55
183.262	-6.83
183.482	66.9
183.701	-23.21
183.921	-2.73
184.141	77.14
184.361	91.48
184.58	-4.78
184.8	36.18
185.02	-27.31
185.239	71
185.459	-23.21
185.679	1.37
185.898	-43.69
186.118	30.04
186.338	91.48
186.557	60.76
186.777	9.56
186.997	-6.83
187.216	9.56
187.436	56.66
187.655	66.9
187.875	32.08
188.095	9.56
188.314	25.94
188.534	50.52
188.753	15.7
188.973	7.51
189.192	68.95
189.412	-12.97
189.631	44.37
189.851	3.41
190.07	9.56
190.29	25.94
190.509	9.56
190.729	107.86
190.948	42.32
191.168	136.53
191.387	71
191.607	-23.21
191.826	-47.79
192.045	34.13
192.265	48.47
192.484	1.37
192.704	58.71
192.923	-0.68
193.142	5.46
193.362	19.8
193.581	-6.83
193.8	-51.88
194.02	71
194.239	13.65
194.458	99.67
194.678	42.32
194.897	25.94
195.116	13.65
195.335	-41.64
195.555	75.09
195.774	23.89
195.993	118.1
196.212	-19.11
196.432	30.04
196.651	95.57
196.87	9.56
197.089	66.9
197.308	-23.21
197.528	42.32
197.747	-27.31
197.966	27.99
198.185	71
198.404	42.32
198.623	-29.35
198.842	-27.31
199.062	58.71
199.281	38.23
199.5	34.13
199.719	19.8
199.938	15.7
200.157	83.28
200.376	62.8
200.595	44.37
200.814	-4.78
201.033	13.65
201.252	44.37
201.471	32.08
201.69	71
201.909	109.91
202.128	-12.97
202.347	50.52
202.566	-19.11
202.785	-23.21
203.004	21.85
203.223	118.1
203.442	-17.07
203.661	3.41
203.879	11.61
204.098	38.23
204.317	60.76
204.536	81.24
204.755	30.04
204.974	79.19
205.193	11.61
205.411	107.86
205.63	9.56
205.849	-2.73
206.068	25.94
206.287	21.85
206.505	83.28
206.724	38.23
206.943	-21.16
207.162	-23.21
207.381	-37.55
207.599	-4.78
207.818	-21.16
208.037	1.37
208.255	-6.83
208.474	5.46
208.693	36.18
208.911	11.61
209.13	83.28
209.349	3.41
209.567	-6.83
209.786	111.96
210.005	38.23
210.223	34.13
210.442	3.41
210.661	68.95
210.879	5.46
211.098	1.37
211.316	-23.21
211.535	-17.07
211.753	11.61
211.972	71
212.191	42.32
212.409	-6.83
212.628	-35.5
212.846	-10.92
213.065	46.42
213.283	50.52
213.502	-17.07
213.72	-39.59
213.938	44.37
214.157	68.95
214.375	1.37
214.594	-15.02
214.812	68.95
215.031	75.09
215.249	-12.97
215.467	52.56
215.686	17.75
215.904	25.94
216.122	-55.98
216.341	58.71
216.559	34.13
216.778	46.42
216.996	56.66
217.214	-6.83
217.432	9.56
217.651	-21.16
217.869	42.32
218.087	42.32
218.306	1.37
218.524	27.99
218.742	34.13
218.96	42.32
219.179	5.46
219.397	42.32
219.615	109.91
219.833	60.76
220.051	25.94
220.27	52.56
220.488	15.7
220.706	9.56
220.924	15.7
221.142	19.8
221.36	17.75
221.578	9.56
221.796	79.19
222.015	9.56
222.233	50.52
222.451	58.71
222.669	9.56
222.887	58.71
223.105	13.65
223.323	-6.83
223.541	-2.73
223.759	19.8
223.977	-60.07
224.195	105.81
224.413	44.37
224.631	23.89
224.849	77.14
225.067	79.19
225.285	-31.4
225.503	-19.11
225.721	-25.26
225.939	3.41
226.157	-12.97
226.375	83.28
226.592	34.13
226.81	25.94
227.028	19.8
227.246	11.61
227.464	109.91
227.682	17.75
227.9	1.37
228.117	-51.88
228.335	13.65
228.553	50.52
228.771	52.56
228.989	25.94
229.206	9.56
229.424	21.85
229.642	66.9
229.86	9.56
230.077	30.04
230.295	42.32
230.513	68.95
230.731	107.86
230.948	54.61
231.166	60.76
231.384	-21.16
231.601	-31.4
231.819	9.56
232.037	62.8
232.254	42.32
232.472	50.52
232.689	25.94
232.907	-8.87
233.125	-33.45
233.342	21.85
233.56	3.41
233.777	27.99
233.995	73.04
234.213	103.76
234.43	17.75
234.648	52.56
234.865	-15.02
235.083	38.23
235.3	64.85
235.518	73.04
235.735	42.32
235.953	50.52
236.17	-47.79
236.388	79.19
236.605	-23.21
236.822	73.04
237.04	93.52
237.257	-47.79
237.475	17.75
237.692	48.47
237.909	66.9
238.127	-6.83
238.344	50.52
238.562	-12.97
238.779	36.18
238.996	56.66
239.214	52.56
239.431	114
239.648	1.37
239.865	5.46
240.083	58.71
240.3	5.46
240.517	-15.02
240.735	9.56
240.952	52.56
241.169	-6.83
241.386	87.38
241.603	34.13
241.821	40.28
242.038	27.99
242.255	124.24
242.472	42.32
242.689	58.71
242.907	62.8
243.124	17.75
243.341	54.61
243.558	-19.11
243.775	1.37
243.992	-96.94
244.209	75.09
244.426	38.23
244.643	77.14
244.86	27.99
245.078	107.86
245.295	9.56
245.512	-23.21
245.729	42.32
245.946	15.7
246.163	38.23
246.38	3.41
246.597	3.41
246.814	34.13
247.031	17.75
247.248	50.52
247.464	50.52
247.681	7.51
247.898	91.48
248.115	42.32
248.332	48.47
248.549	34.13
248.766	109.91
248.983	17.75
249.2	19.8
249.417	9.56
249.633	25.94
249.85	66.9
250.067	-17.07
250.284	-6.83
250.501	134.48
250.717	23.89
250.934	-45.74
251.151	42.32
251.368	75.09
251.585	9.56
251.801	30.04
252.018	-35.5
252.235	36.18
252.451	-2.73
252.668	17.75
252.885	34.13
253.102	48.47
253.318	58.71
253.535	17.75
253.752	13.65
253.968	66.9
254.185	-88.75
254.401	46.42
254.618	-2.73
254.835	-55.98
255.051	79.19
255.268	1.37
255.484	21.85
255.701	27.99
255.917	50.52
256.134	1.37
256.351	66.9
256.567	3.41
256.784	83.28
257	-27.31
257.217	99.67
257.433	60.76
257.65	-6.83
257.866	46.42
258.082	-62.12
258.299	5.46
258.515	1.37
258.732	30.04
258.948	3.41
259.165	52.56
259.381	1.37
259.597	21.85
259.814	68.95
260.03	-72.36
260.246	25.94
260.463	5.46
260.679	-21.16
260.895	-29.35
261.112	27.99
261.328	25.94
261.544	36.18
261.761	25.94
261.977	48.47
262.193	-43.69
262.409	95.57
262.626	38.23
262.842	46.42
263.058	-2.73
263.274	142.68
263.49	36.18
263.707	-12.97
263.923	3.41
264.139	42.32
264.355	50.52
264.571	-23.21
264.787	38.23
265.004	5.46
265.22	71
265.436	42.32
265.652	-31.4
265.868	19.8
266.084	15.7
266.3	-31.4
266.516	-80.55
266.732	-64.17
266.948	56.66
267.164	17.75
267.38	148.82
267.596	75.09
267.812	111.96
268.028	21.85
268.244	-12.97
268.46	44.37
268.676	-6.83
268.892	50.52
269.108	-19.11
269.324	81.24
269.54	19.8
269.756	75.09
269.972	32.08
270.188	-25.26
270.403	-2.73
270.619	17.75
270.835	56.66
271.051	-10.92
271.267	-47.79
271.483	-78.51
271.698	7.51
271.914	5.46
272.13	9.56
272.346	-2.73
272.562	17.75
272.777	52.56
272.993	50.52
273.209	25.94
273.425	19.8
273.64	-49.83
273.856	25.94
274.072	23.89
274.287	-76.46
274.503	15.7
274.719	-6.83
274.934	58.71
275.15	73.04
275.366	73.04
275.581	-80.55
275.797	30.04
276.012	-6.83
276.228	66.9
276.444	3.41
276.659	-15.02
276.875	34.13
277.09	136.53
277.306	17.75
277.521	25.94
277.737	13.65
277.952	42.32
278.168	5.46
278.383	17.75
278.599	-37.55
278.814	44.37
279.03	-51.88
279.245	17.75
279.461	1.37
279.676	36.18
279.892	-45.74
280.107	-45.74
280.322	-4.78
280.538	9.56
280.753	32.08
280.969	56.66
281.184	9.56
281.399	138.58
281.615	15.7
281.83	42.32
282.045	-21.16
282.26	-31.4
282.476	17.75
282.691	52.56
282.906	46.42
283.122	27.99
283.337	-47.79
283.552	48.47
283.767	-37.55
283.983	-23.21
284.198	99.67
284.413	-12.97
284.628	9.56
284.843	11.61
285.058	111.96
285.274	46.42
285.489	-2.73
285.704	71
285.919	-45.74
286.134	79.19
286.349	1.37
286.564	40.28
286.779	27.99
286.995	21.85
287.21	-53.93
287.425	-53.93
287.64	17.75
287.855	52.56
288.07	134.48
288.285	36.18
288.5	-4.78
288.715	-10.92
288.93	3.41
289.145	-45.74
289.36	66.9
289.575	25.94
289.79	64.85
290.004	17.75
290.219	60.76
290.434	17.75
290.649	38.23
290.864	-6.83
291.079	-51.88
291.294	50.52
291.509	1.37
291.724	30.04
291.938	-35.5
292.153	17.75
292.368	-41.64
292.583	17.75
292.798	85.33
293.012	-47.79
293.227	9.56
293.442	-6.83
293.657	34.13
293.871	107.86
294.086	-6.83
294.301	66.9
294.516	25.94
294.73	93.52
294.945	-33.45
295.16	54.61
295.374	36.18
295.589	34.13
295.804	17.75
296.018	62.8
296.233	-2.73
296.447	13.65
296.662	34.13
296.877	-21.16
297.091	21.85
297.306	-12.97
297.52	-6.83
297.735	83.28
297.949	25.94
298.164	5.46
298.378	21.85
298.593	-10.92
298.807	42.32
299.022	-33.45
299.236	32.08
299.451	21.85
299.665	-12.97
299.88	25.94
300.094	21.85
300.309	42.32
300.523	-4.78
300.737	79.19
300.952	71
301.166	54.61
301.381	42.32
301.595	36.18
301.809	15.7
302.024	-8.87
302.238	-10.92
302.452	81.24
302.667	25.94
302.881	52.56
303.095	48.47
303.309	93.52
303.524	36.18
303.738	58.71
303.952	44.37
304.166	36.18
304.381	-47.79
304.595	-4.78
304.809	36.18
305.023	54.61
305.237	66.9
305.452	-10.92
305.666	62.8
305.88	9.56
306.094	99.67
306.308	1.37
306.522	83.28
306.736	36.18
306.95	-12.97
307.164	52.56
307.379	-12.97
307.593	71
307.807	34.13
308.021	7.51
308.235	44.37
308.449	34.13
308.663	17.75
308.877	66.9
309.091	-15.02
309.305	68.95
309.519	15.7
309.733	34.13
309.947	-47.79
310.161	36.18
310.374	21.85
310.588	58.71
310.802	-35.5
311.016	23.89
311.23	-35.5
311.444	-31.4
311.658	42.32
311.872	83.28
312.085	75.09
312.299	34.13
312.513	138.58
312.727	75.09
312.941	25.94
313.154	38.23
313.368	87.38
313.582	83.28
313.796	9.56
314.009	7.51
314.223	42.32
314.437	79.19
314.651	19.8
314.864	-55.98
315.078	21.85
315.292	-37.55
315.505	30.04
315.719	-43.69
315.933	-6.83
316.146	17.75
316.36	-39.59
316.573	-21.16
316.787	-6.83
317.001	101.72
317.214	46.42
317.428	9.56
317.641	32.08
317.855	21.85
318.068	42.32
318.282	79.19
318.495	25.94
318.709	50.52
318.922	-15.02
319.136	107.86
319.349	44.37
319.563	17.75
319.776	93.52
319.99	34.13
320.203	30.04
320.417	17.75
320.63	42.32
320.843	126.29
321.057	1.37
321.27	-23.21
321.483	17.75
321.697	120.15
321.91	71
322.124	-39.59
322.337	62.8
322.55	89.43
322.763	-29.35
322.977	-2.73
323.19	3.41
323.403	97.62
323.617	68.95
323.83	93.52
324.043	48.47
324.256	32.08
324.469	-2.73
324.683	52.56
324.896	-4.78
325.109	1.37
325.322	-23.21
325.535	25.94
325.748	-25.26
325.962	91.48
326.175	34.13
326.388	-68.27
326.601	66.9
326.814	36.18
327.027	103.76
327.24	19.8
327.453	-6.83
327.666	54.61
327.879	68.95
328.092	58.71
328.305	-37.55
328.518	46.42
328.731	62.8
328.944	-23.21
329.157	-10.92
329.37	32.08
329.583	103.76
329.796	107.86
330.009	-8.87
330.222	56.66
330.435	68.95
330.648	56.66
330.861	-19.11
331.073	-35.5
331.286	111.96
331.499	3.41
331.712	5.46
331.925	-25.26
332.138	25.94
332.35	85.33
332.563	-25.26
332.776	44.37
332.989	-80.55
333.202	17.75
333.414	101.72
333.627	-39.59
333.84	-39.59
334.053	36.18
334.265	17.75
334.478	19.8
334.691	66.9
334.903	46.42
335.116	-12.97
335.329	25.94
335.541	19.8
335.754	99.67
335.966	17.75
336.179	-2.73
336.392	-19.11
336.604	13.65
336.817	75.09
337.029	9.56
337.242	-10.92
337.454	116.05
337.667	-17.07
337.88	25.94
338.092	-2.73
338.305	-27.31
338.517	1.37
338.729	79.19
338.942	-23.21
339.154	-4.78
339.367	5.46
339.579	11.61
339.792	27.99
340.004	56.66
340.217	30.04
340.429	15.7
340.641	-23.21
340.854	11.61
341.066	-29.35
341.278	44.37
341.491	15.7
341.703	17.75
341.915	60.76
342.128	50.52
342.34	-4.78
342.552	-12.97
342.764	46.42
342.977	3.41
343.189	13.65
343.401	118.1
343.613	-0.68
343.826	50.52
344.038	42.32
344.25	-29.35
344.462	11.61
344.674	25.94
344.886	-31.4
345.099	44.37
345.311	-27.31
345.523	19.8
345.735	-23.21
345.947	34.13
346.159	25.94
346.371	-21.16
346.583	85.33
346.795	60.76
347.007	23.89
347.219	103.76
347.431	27.99
347.643	38.23
347.855	68.95
348.067	17.75
348.279	-47.79
348.491	85.33
348.703	66.9
348.915	146.77
349.127	21.85
349.339	58.71
349.551	66.9
349.763	27.99
349.975	71
350.187	87.38
350.399	116.05
350.61	46.42
350.822	32.08
351.034	11.61
351.246	120.15
351.458	99.67
351.669	79.19
351.881	99.67
352.093	44.37
352.305	97.62
352.517	17.75
352.728	111.96
352.94	-23.21
353.152	19.8
353.363	30.04
353.575	87.38
353.787	44.37
353.999	46.42
354.21	50.52
354.422	-6.83
354.633	3.41
354.845	1.37
355.057	15.7
355.268	54.61
355.48	71
355.692	42.32
355.903	75.09
356.115	-29.35
356.326	17.75
356.538	66.9
356.749	34.13
356.961	79.19
357.172	19.8
357.384	71
357.595	71
357.807	71
358.018	50.52
358.23	91.48
358.441	128.34
358.653	-12.97
358.864	-6.83
359.075	95.57
359.287	-4.78
359.498	32.08
359.709	32.08
359.921	-43.69
360.132	27.99
360.344	68.95
360.555	-109.22
360.766	44.37
360.977	-10.92
361.189	34.13
361.4	-45.74
361.611	23.89
361.823	17.75
362.034	159.06
362.245	11.61
362.456	75.09
362.667	44.37
362.879	50.52
363.09	25.94
363.301	71
363.512	77.14
363.723	25.94
363.935	25.94
364.146	77.14
364.357	-60.07
364.568	58.71
364.779	-6.83
364.99	42.32
365.201	-33.45
365.412	91.48
365.623	19.8
365.834	52.56
366.045	3.41
366.256	68.95
366.467	34.13
366.678	87.38
366.889	124.24
367.1	-25.26
367.311	1.37
367.522	23.89
367.733	75.09
367.944	34.13
368.155	-0.68
368.366	50.52
368.577	-31.4
368.788	40.28
368.999	3.41
369.209	-12.97
369.42	-10.92
369.631	56.66
369.842	68.95
370.053	79.19
370.264	21.85
370.474	66.9
370.685	128.34
370.896	21.85
371.107	19.8
371.317	23.89
371.528	25.94
371.739	54.61
371.95	3.41
372.16	136.53
372.371	19.8
372.582	9.56
372.792	-25.26
373.003	19.8
373.214	34.13
373.424	44.37
373.635	101.72
373.846	66.9
374.056	15.7
374.267	75.09
374.477	-0.68
374.688	19.8
374.898	34.13
375.109	77.14
375.319	17.75
375.53	91.48
375.74	34.13
375.951	13.65
376.161	17.75
376.372	97.62
376.582	38.23
376.793	27.99
377.003	46.42
377.214	27.99
377.424	124.24
377.635	44.37
377.845	-41.64
378.055	34.13
378.266	3.41
378.476	-2.73
378.686	87.38
378.897	15.7
379.107	3.41
379.317	75.09
379.528	34.13
379.738	93.52
379.948	66.9
380.158	21.85
380.369	17.75
380.579	19.8
380.789	75.09
380.999	58.71
381.21	75.09
381.42	58.71
381.63	66.9
381.84	95.57
382.05	77.14
382.261	46.42
382.471	64.85
382.681	42.32
382.891	54.61
383.101	93.52
383.311	11.61
383.521	58.71
383.731	17.75
383.941	66.9
384.151	54.61
384.361	46.42
384.571	101.72
384.781	38.23
384.991	138.58
385.201	3.41
385.411	120.15
385.621	54.61
385.831	34.13
386.041	93.52
386.251	58.71
386.461	66.9
386.671	17.75
386.881	9.56
387.091	1.37
387.301	17.75
387.511	42.32
387.72	116.05
387.93	38.23
388.14	30.04
388.35	30.04
388.56	54.61
388.769	118.1
388.979	21.85
389.189	19.8
389.399	60.76
389.609	34.13
389.818	27.99
390.028	34.13
390.238	17.75
390.447	36.18
390.657	95.57
390.867	52.56
391.076	3.41
391.286	25.94
391.496	25.94
391.705	60.76
391.915	87.38
392.125	34.13
392.334	23.89
392.544	21.85
392.753	71
392.963	91.48
393.172	54.61
393.382	-31.4
393.591	124.24
393.801	19.8
394.01	58.71
394.22	44.37
394.429	46.42
394.639	71
394.848	46.42
395.058	30.04
395.267	91.48
395.477	107.86
395.686	46.42
395.895	144.72
396.105	128.34
396.314	79.19
396.524	58.71
396.733	71
396.942	120.15
397.152	58.71
397.361	71
397.57	58.71
397.78	79.19
397.989	144.72
398.198	150.87
398.407	169.3
398.617	68.95
398.826	75.09
399.035	134.48
399.244	60.76
399.453	58.71
399.663	60.76
399.872	120.15
400.081	13.65
400.29	114
400.499	58.71
400.708	114
400.917	38.23
401.127	163.15
401.336	25.94
401.545	132.44
401.754	116.05
401.963	116.05
402.172	146.77
402.381	66.9
402.59	126.29
402.799	206.16
403.008	66.9
403.217	99.67
403.426	95.57
403.635	21.85
403.844	159.06
404.053	140.63
404.262	93.52
404.471	148.82
404.68	148.82
404.888	44.37
405.097	136.53
405.306	124.24
405.515	85.33
405.724	197.97
405.933	148.82
406.142	173.39
406.35	175.44
406.559	167.25
406.768	159.06
406.977	185.68
407.185	148.82
407.394	148.82
407.603	173.39
407.812	181.59
408.02	243.03
408.229	202.07
408.438	197.97
408.646	177.49
408.855	169.3
409.064	265.55
409.272	206.16
409.481	259.41
409.69	163.15
409.898	240.98
410.107	320.85
410.315	224.59
410.524	249.17
410.733	267.6
410.941	347.47
411.15	312.66
411.358	363.86
411.567	413.01
411.775	394.58
411.984	404.82
412.192	388.43
412.401	353.62
412.609	429.39
412.818	445.77
413.026	460.11
413.234	374.1
413.443	419.15
413.651	380.24
413.86	478.54
414.068	542.03
414.276	517.45
414.485	466.25
414.693	607.56
414.901	669
415.11	628.04
415.318	576.84
415.526	556.36
415.734	712.01
415.943	707.91
416.151	677.19
416.359	654.67
416.567	787.79
416.776	771.4
416.984	896.33
417.192	812.36
417.4	869.7
417.608	820.55
417.817	877.9
418.025	1051.97
418.233	972.1
418.441	992.58
418.649	931.14
418.857	1076.55
419.065	1168.71
419.273	1142.08
419.481	1117.51
419.689	1310.02
419.897	1316.16
420.105	1240.39
420.313	1357.12
420.521	1348.93
420.729	1432.9
420.937	1361.22
421.145	1492.29
421.353	1543.49
421.561	1637.69
421.769	1705.28
421.977	1639.74
422.185	1738.04
422.393	1854.78
422.601	2043.19
422.809	1985.85
423.017	1926.46
423.224	2073.91
423.432	2204.98
423.64	2170.16
423.848	2420.02
424.056	2118.97
424.263	2395.44
424.471	2391.34
424.679	2528.56
424.887	2725.16
425.094	2665.77
425.302	2723.12
425.51	2714.92
425.718	2934.06
425.925	2833.71
426.133	3065.13
426.341	3181.86
426.548	3321.12
426.756	3353.89
426.964	3394.85
427.171	3640.61
427.379	3691.81
427.586	3681.57
427.794	3874.07
428.001	4121.88
428.209	4269.33
428.417	4105.49
428.624	4384.02
428.832	4293.91
429.039	4328.72
429.247	4396.31
429.454	4848.91
429.662	5002.51
429.869	4615.44
430.076	4967.69
430.284	5020.94
430.491	5170.44
430.699	5637.38
430.906	5526.78
431.114	5743.87
431.321	5782.78
431.528	5782.78
431.736	6175.99
431.943	6440.18
432.15	6317.3
432.358	6292.73
432.565	6800.62
432.772	6759.66
432.979	7265.51
433.187	7222.5
433.394	7267.56
433.601	7818.46
433.808	7865.57
434.016	7783.65
434.223	7941.34
434.43	8844.49
434.637	8434.9
434.844	8758.48
435.052	9178.31
435.259	8932.56
435.466	9000.14
435.673	9088.2
435.88	9536.71
436.087	10208.44
436.294	10126.52
436.501	9680.07
436.708	9864.38
436.915	10491.06
437.122	10994.86
437.329	10896.56
437.537	11211.95
437.743	11334.82
437.95	11271.34
438.157	11969.69
438.364	12289.18
438.571	12373.14
438.778	12430.49
438.985	13493.38
439.192	12840.08
439.399	13409.42
439.606	13147.28
439.813	13862.02
440.02	14564.47
440.227	14402.68
440.433	14326.91
440.64	14822.52
440.847	14554.23
441.054	15191.15
441.261	16137.31
441.467	15789.16
441.674	16290.91
441.881	16610.39
442.088	16798.81
442.294	16524.38
442.501	16929.88
442.708	17650.76
442.914	17957.96
443.121	18822.2
443.328	18211.9
443.534	19506.22
443.741	18936.88
443.948	18885.69
444.154	20235.3
444.361	19909.67
444.568	20065.32
444.774	20116.51
444.981	20444.19
445.187	21103.64
445.394	22070.28
445.6	21648.39
445.807	23563.25
446.013	22782.97
446.22	23182.32
446.426	24323.04
446.633	24067.05
446.839	25103.32
447.046	24069.09
447.252	25623.5
447.459	25549.78
447.665	25224.15
447.871	26330.05
448.078	27814.83
448.284	26358.72
448.491	27161.53
448.697	28167.08
448.903	28812.19
449.11	28871.58
449.316	28052.39
449.522	28683.17
449.728	29832.08
449.935	30243.72
450.141	29721.49
450.347	30577.54
450.553	29647.76
450.76	29891.47
450.966	31193.98
451.172	30493.57
451.378	31632.24
451.584	31208.31
451.791	31769.46
451.997	31773.55
452.203	32072.56
452.409	32559.97
452.615	32379.75
452.821	31069.05
453.027	30864.25
453.233	32303.98
453.44	31216.51
453.646	31642.48
453.852	31925.1
454.058	32531.3
454.264	31294.33
454.47	32068.46
454.676	31464.31
454.882	32402.28
455.088	29686.67
455.294	29803.41
455.5	30479.24
455.705	30913.41
455.911	29420.44
456.117	29174.68
456.323	28834.72
456.529	27419.57
456.735	28519.33
456.941	27995.05
457.147	27278.26
457.352	26465.22
457.558	26094.54
457.764	26606.53
457.97	25936.84
458.176	25594.83
458.381	25711.56
458.587	24110.05
458.793	23935.98
458.999	22770.68
459.204	24826.84
459.41	23991.27
459.616	22447.1
459.821	22211.59
460.027	22379.52
460.233	22176.77
460.438	20644.89
460.644	21595.15
460.85	20067.36
461.055	19690.54
461.261	20050.98
461.466	18236.48
461.672	17943.62
461.878	19250.22
462.083	17892.42
462.289	17359.95
462.494	17368.14
462.7	16374.88
462.905	16125.02
463.111	16784.47
463.316	16831.57
463.522	16213.09
463.727	16432.22
463.932	16516.19
464.138	16280.67
464.343	16131.17
464.549	15862.88
464.754	16462.94
464.959	16139.36
465.165	16034.91
465.37	15510.63
465.575	14974.06
465.781	15651.94
465.986	15664.23
466.191	15316.08
466.397	15066.22
466.602	14257.28
466.807	14775.41
467.012	14783.6
467.218	14640.25
467.423	14603.38
467.628	14785.65
467.833	15236.2
468.038	14621.81
468.244	14400.63
468.449	14566.52
468.654	14093.44
468.859	14075.01
469.064	14099.58
469.269	13595.78
469.474	13716.61
469.679	14066.81
469.885	13608.07
470.09	13747.33
470.295	13829.25
470.5	13534.34
470.705	13452.42
470.91	13261.96
471.115	13223.05
471.32	13302.92
471.525	13225.1
471.73	12907.66
471.935	12756.11
472.139	12430.49
472.344	12565.65
472.549	12455.06
472.754	12375.19
472.959	11998.37
473.164	11928.74
473.369	11648.16
473.574	12084.38
473.778	11877.54
473.983	11986.08
474.188	11852.96
474.393	11476.13
474.598	11619.49
474.802	11236.52
475.007	11340.97
475.212	11228.33
475.417	10671.28
475.621	10890.42
475.826	10833.07
476.031	10683.57
476.235	10306.74
476.44	10788.02
476.645	10339.51
476.849	10308.79
477.054	10355.9
477.259	10161.34
477.463	10134.71
477.668	9911.49
477.872	10175.67
478.077	9702.59
478.282	9544.9
478.486	9487.56
478.691	9536.71
478.895	9462.98
479.1	9481.41
479.304	9282.76
479.509	9217.22
479.713	9495.75
479.918	9037
480.122	9100.49
480.326	8953.04
480.531	9125.07
480.735	8869.07
480.94	8881.36
481.144	9102.54
481.348	8840.4
481.553	9004.24
481.757	8705.23
481.961	8926.41
482.166	9086.15
482.37	8873.17
482.574	8549.59
482.778	8694.99
482.983	8854.73
483.187	8805.58
483.391	8694.99
483.595	8738
483.8	8738
484.004	8944.84
484.208	8946.89
484.412	8774.86
484.616	8762.58
484.821	8637.65
485.025	8555.73
485.229	8645.84
485.433	8694.99
485.637	8799.44
485.841	8662.23
486.045	8785.1
486.249	9043.15
486.453	8586.45
486.657	8754.38
486.861	8672.46
487.065	8760.53
487.269	8762.58
487.473	8406.23
487.677	8748.24
487.881	8971.47
488.085	8826.06
488.289	9045.2
488.493	8750.29
488.697	8647.89
488.901	8885.45
489.105	8901.84
489.309	8938.7
489.512	9053.39
489.716	9176.27
489.92	8920.27
490.124	8797.39
490.328	9000.14
490.531	9018.57
490.735	9014.48
490.939	9114.83
491.143	9090.25
491.346	9022.67
491.55	9278.66
491.754	9266.38
491.958	9376.97
492.161	9372.87
492.365	9456.84
492.569	9188.55
492.772	9487.56
492.976	9315.53
493.18	9446.6
493.383	9571.52
493.587	9700.55
493.79	9678.02
493.994	9809.09
494.197	9934.01
494.401	9735.36
494.605	10003.64
494.808	10243.26
495.012	10134.71
495.215	10362.04
495.419	10382.52
495.622	10167.48
495.825	10462.39
496.029	10583.22
496.232	10585.27
496.436	10695.86
496.639	10976.43
496.843	11033.77
497.046	10976.43
497.249	11222.19
497.453	11324.58
497.656	11560.1
497.859	11457.7
498.063	11560.1
498.266	11895.97
498.469	11754.66
498.673	12012.7
498.876	12065.95
499.079	12293.27
499.282	12379.29
499.485	12801.17
499.689	12612.76
499.892	13030.54
500.095	12936.34
500.298	13218.96
500.501	13126.8
500.705	13472.9
500.908	13661.32
501.111	13505.67
501.314	13919.36
501.517	13958.27
501.72	14130.3
501.923	14376.06
502.126	14480.5
502.329	14959.73
502.532	15103.09
502.735	15015.02
502.938	15160.43
503.141	15225.97
503.344	15592.55
503.547	15705.19
503.75	15746.15
503.953	16217.18
504.156	16301.15
504.359	16858.2
504.562	16745.56
504.765	17091.66
504.968	16958.55
505.17	17282.13
505.373	17329.23
505.576	17892.42
505.779	17919.04
505.982	18154.56
506.185	18326.59
506.387	18492.48
506.59	18637.88
506.793	18859.06
506.996	18949.17
507.198	19672.11
507.401	19457.07
507.604	19743.78
507.807	20180
508.009	20603.93
508.212	20317.22
508.415	20800.54
508.617	20909.08
508.82	21083.16
509.022	21058.58
509.225	21513.23
509.428	22012.93
509.63	22285.31
509.833	22266.88
510.035	22561.79
510.238	22721.53
510.44	22897.66
510.643	23419.89
510.845	23548.91
511.048	23659.5
511.25	23952.36
511.453	24163.3
511.655	24921.05
511.858	24611.81
512.06	24714.2
512.262	25320.4
512.465	25228.24
512.667	25623.5
512.87	26162.12
513.072	26098.63
513.274	26741.69
513.477	26790.84
513.679	26971.07
513.881	27573.17
514.084	27949.99
514.286	27665.33
514.488	28169.13
514.69	28828.57
514.893	28887.96
515.095	28799.9
515.297	29469.59
515.499	29203.35
515.701	29795.21
515.904	29797.26
516.106	30423.94
516.308	30655.36
516.51	31073.15
516.712	31449.97
516.914	31345.53
517.116	31607.67
517.318	31708.02
517.52	32342.89
517.722	32463.72
517.925	32609.12
518.127	33225.56
518.329	33727.31
518.531	33504.09
518.733	33866.58
518.935	34564.93
519.136	34224.97
519.338	34716.48
519.54	34935.62
519.742	35318.59
519.944	35468.09
520.146	36375.34
520.348	36127.53
520.55	36367.15
520.752	36334.38
520.954	37284.64
521.155	37149.47
521.357	37952.27
521.559	37737.24
521.761	38009.62
521.963	38157.07
522.164	38228.75
522.366	38712.07
522.568	39232.25
522.77	39514.87
522.971	39781.11
523.173	39412.48
523.375	39725.82
523.576	40235.76
523.778	40090.35
523.98	40692.46
524.181	41032.42
524.383	40905.45
524.584	41595.61
524.786	41317.09
524.988	41065.19
525.189	41603.8
525.391	42179.28
525.592	42210
525.794	42123.99
525.995	42384.08
526.197	42429.13
526.398	42480.33
526.6	42867.4
526.801	43197.12
527.003	43528.89
527.204	43506.37
527.406	43899.58
527.607	43877.05
527.808	44448.43
528.01	43213.51
528.211	43979.45
528.412	44909.22
528.614	44729
528.815	44298.93
529.016	45062.82
529.218	44505.77
529.419	45111.97
529.62	44679.85
529.822	45005.48
530.023	45052.58
530.224	45087.4
530.425	45081.25
530.626	44874.41
530.828	45068.97
531.029	45693.6
531.23	44921.51
531.431	45374.11
531.632	45609.63
531.833	45537.95
532.035	45746.84
532.236	45939.35
532.437	46135.96
532.638	45935.26
532.839	46011.03
533.04	45879.96
533.241	45593.25
533.442	46480.02
533.643	46021.27
533.844	45892.25
534.045	45865.63
534.246	45400.74
534.447	46678.67
534.648	45851.29
534.849	46086.81
535.05	45771.42
535.251	46572.17
535.451	46267.03
535.652	46168.72
535.853	46109.33
536.054	46305.94
536.255	46072.47
536.456	46215.83
536.657	46480.02
536.857	45980.31
537.058	46326.42
537.259	46531.22
537.46	46690.96
537.66	46080.66
537.861	46428.82
538.062	46146.2
538.263	46674.57
538.463	46152.34
538.664	46289.56
538.865	46054.04
539.065	46582.41
539.266	46049.94
539.466	46518.93
539.667	45767.32
539.868	46598.8
540.068	45992.6
540.269	45798.04
540.469	46613.13
540.67	45873.82
540.87	46187.16
541.071	46275.22
541.271	46510.74
541.472	46502.54
541.672	46439.06
541.873	45775.51
542.073	45558.43
542.274	46559.89
542.474	46000.79
542.675	45783.71
542.875	46471.82
543.075	46082.71
543.276	45865.63
543.476	46127.77
543.676	45914.78
543.877	46060.18
544.077	46232.21
544.277	46082.71
544.478	45955.74
544.678	46238.36
544.878	45994.65
545.078	46353.04
545.279	46037.65
545.479	45824.67
545.679	45771.42
545.879	46307.99
546.079	46174.87
546.28	45963.93
546.48	46074.52
546.68	46303.89
546.88	46480.02
547.08	46031.51
547.28	45812.38
547.48	45812.38
547.68	45882.01
547.88	45820.57
548.081	46135.96
548.281	45703.84
548.481	45902.49
548.681	46181.01
548.881	46277.27
549.081	45906.58
549.28	45595.29
549.48	45918.87
549.68	45873.82
549.88	46862.99
550.08	45765.28
550.28	46238.36
550.48	45998.74
550.68	46183.06
550.88	45564.57
551.08	45855.39
551.279	46221.97
551.479	45482.66
551.679	45675.16
551.879	45673.12
552.079	45462.18
552.278	45478.56
552.478	45443.74
552.678	45765.28
552.878	45421.22
553.077	45456.03
553.277	45398.69
553.477	45959.83
553.676	45863.58
553.876	45302.43
554.076	45314.72
554.275	45159.08
554.475	45306.53
554.674	45437.6
554.874	45394.59
555.074	45154.98
555.273	45388.45
555.473	45529.76
555.672	45259.43
555.872	45179.56
556.071	45304.48
556.271	45462.18
556.47	44927.66
556.67	44548.78
556.869	45144.74
557.068	45218.47
557.268	45038.25
557.467	45253.28
557.667	45005.48
557.866	45298.34
558.065	44796.59
558.265	44563.12
558.464	44458.67
558.663	45103.78
558.863	44333.74
559.062	44962.47
559.261	44260.02
559.461	44954.28
559.66	44022.45
559.859	44595.88
560.058	44372.66
560.258	44708.52
560.457	43754.17
560.656	44546.73
560.855	43895.48
561.054	44339.89
561.253	43760.31
561.453	43700.92
561.652	44278.45
561.851	44079.8
562.05	44462.77
562.249	43793.08
562.448	44022.45
562.647	43956.92
562.846	43682.49
563.045	43940.53
563.244	43563.71
563.443	43965.11
563.642	43102.92
563.841	43662.01
564.04	42922.69
564.239	43881.14
564.438	42994.37
564.637	43363.01
564.836	43573.95
565.035	43102.92
565.234	42842.82
565.432	42965.7
565.631	43012.81
565.83	43156.16
566.029	42623.69
566.228	42721.99
566.427	42773.19
566.625	42351.31
566.824	42218.19
567.023	42463.95
567.222	42013.4
567.42	42351.31
567.619	41882.33
567.818	42107.6
568.016	41640.67
568.215	42212.05
568.414	42083.03
568.612	42359.5
568.811	41521.88
569.01	41857.75
569.208	41439.97
569.407	41798.36
569.605	41564.89
569.804	42037.97
570.002	41202.4
570.201	41265.89
570.4	41417.44
570.598	41331.42
570.797	40737.51
570.995	41005.8
571.193	40624.87
571.392	41022.18
571.59	40272.62
571.789	40422.12
571.987	40319.73
572.186	40497.9
572.384	40286.96
572.582	40403.69
572.781	40243.95
572.979	39738.1
573.177	40456.94
573.376	40180.46
573.574	39834.36
573.772	39922.42
573.971	39903.99
574.169	39738.1
574.367	39152.38
574.565	39688.95
574.763	39377.66
574.962	38906.63
575.16	38605.58
575.358	38914.82
575.556	38607.62
575.754	39056.13
575.952	38544.14
576.151	38869.76
576.349	38490.89
576.547	37872.4
576.745	38386.44
576.943	38507.27
577.141	38312.72
577.339	38370.06
577.537	37821.2
577.735	37714.71
577.933	37901.08
578.131	37935.89
578.329	37460.76
578.527	37622.55
578.725	37417.75
578.923	37061.41
579.121	37229.34
579.319	37169.95
579.516	37067.55
579.714	37483.29
579.912	36961.06
580.11	36934.43
580.308	36864.8
580.506	36639.53
580.704	36100.91
580.901	36524.84
581.099	36635.43
581.297	35941.17
581.495	36334.38
581.692	36471.59
581.89	35879.73
582.088	36662.05
582.285	35885.87
582.483	36092.72
582.681	35763
582.878	35877.68
583.076	35713.84
583.274	35853.11
583.471	35150.65
583.669	35550.01
583.866	34958.14
584.064	35357.5
584.262	35042.11
584.459	35062.59
584.657	34736.96
584.854	35136.32
585.052	34397
585.249	34767.68
585.447	34534.21
585.644	33897.3
585.841	34186.06
586.039	34595.65
586.236	33944.4
586.434	33518.42
586.631	33575.76
586.828	33710.93
587.026	34018.13
587.223	33856.34
587.42	33581.91
587.618	33676.12
587.815	33436.5
588.012	33039.2
588.21	32979.81
588.407	33377.11
588.604	33051.49
588.801	32893.79
588.999	32811.87
589.196	32842.59
589.393	32693.09
589.59	32803.68
589.787	32510.82
589.984	32672.61
590.182	32246.63
590.379	32197.48
590.576	32080.75
590.773	32242.54
590.97	32267.11
591.167	32207.72
591.364	31556.47
591.561	32027.5
591.758	31515.51
591.955	31622
592.152	31738.74
592.349	31247.22
592.546	31351.67
592.743	31622
592.94	30655.36
593.137	31294.33
593.334	31245.18
593.531	30557.06
593.727	31034.24
593.924	30436.23
594.121	30425.99
594.318	30692.22
594.515	30233.48
594.712	30589.83
594.908	29809.55
595.105	30649.22
595.302	29823.89
595.499	29789.07
595.696	29852.56
595.892	29703.06
596.089	30110.6
596.286	29668.24
596.482	29578.13
596.679	29381.52
596.876	29369.24
597.072	29350.81
597.269	29199.26
597.466	28941.21
597.662	28992.41
597.859	29074.33
598.055	28873.63
598.252	28560.29
598.448	28781.47
598.645	28201.89
598.841	28599.2
599.038	28316.58
599.234	28410.79
599.431	28136.36
599.627	28167.08
599.824	28386.21
600.02	27956.14
600.217	28179.37
600.413	27980.71
600.609	27681.71
600.806	27370.42
601.002	27863.98
601.198	27298.74
601.395	27448.24
601.591	27059.13
601.787	27308.98
601.984	27284.4
602.18	27444.15
602.376	27014.07
602.572	27026.36
602.769	26760.12
602.965	26725.31
603.161	26995.64
603.357	26637.25
603.553	26622.91
603.75	26534.85
603.946	26227.65
604.142	26227.65
604.338	26016.71
604.534	26440.64
604.73	25754.57
604.926	25965.51
605.122	26016.71
605.318	25787.34
605.514	25605.07
605.71	25721.8
605.906	25482.19
606.102	25338.83
606.298	25385.94
606.494	25428.95
606.69	25560.02
606.886	25125.85
607.082	24953.82
607.278	25261.01
607.474	24734.68
607.67	24921.05
607.866	24636.38
608.062	25005.02
608.257	25070.55
608.453	24454.11
608.649	24765.4
608.845	24744.92
609.041	24562.65
609.236	24548.32
609.432	24708.06
609.628	24441.82
609.824	24234.98
610.019	24075.24
610.215	24333.28
610.411	24046.57
610.606	24065
610.802	23757.8
610.998	23911.4
611.193	23942.12
611.389	23796.71
611.584	24013.8
611.78	23585.77
611.976	23737.32
612.171	23706.6
612.367	23598.06
612.562	23679.98
612.758	23286.77
612.953	23462.9
613.149	23247.86
613.344	23219.19
613.539	23612.4
613.735	23192.56
613.93	23249.91
614.126	23059.45
614.321	23538.67
614.517	23245.81
614.712	23145.46
614.907	22860.79
615.103	22934.52
615.298	22645.76
615.493	23061.49
615.688	22354.94
615.884	22971.38
616.079	22565.88
616.274	22606.84
616.47	22635.52
616.665	22539.26
616.86	22504.45
617.055	22365.18
617.25	22400
617.445	22377.47
617.641	22103.04
617.836	22277.12
618.031	22051.84
618.226	22076.42
618.421	22027.27
618.616	22000.65
618.811	21570.57
619.006	22010.89
619.201	21533.71
619.396	21623.82
619.591	21492.75
619.786	21574.67
619.981	21103.64
620.176	21292.05
620.371	21120.02
620.566	21236.75
620.761	20808.73
620.956	20909.08
621.151	20775.96
621.346	20714.52
621.541	20601.88
621.735	20548.64
621.93	20370.46
622.125	20370.46
622.32	20100.13
622.515	20214.82
622.709	19901.48
622.904	20122.66
623.099	19866.66
623.294	19670.06
623.488	19553.32
623.683	19606.57
623.878	19039.28
624.072	19334.19
624.267	19383.34
624.462	18859.06
624.656	19147.83
624.851	18789.43
625.046	18496.57
625.24	18519.1
625.435	18408.51
625.629	18322.49
625.824	18179.14
626.018	18265.15
626.213	17919.04
626.407	18242.62
626.602	17755.21
626.796	17972.29
626.991	18158.66
627.185	17712.2
627.38	17638.47
627.574	17501.26
627.768	17093.71
627.963	17335.37
628.157	17271.89
628.352	16919.64
628.546	16774.23
628.74	17022.03
628.935	16837.72
629.129	16862.29
629.323	16268.38
629.517	16639.06
629.712	16630.87
629.906	16415.83
630.1	16014.43
630.294	16258.14
630.489	16190.56
630.683	16297.05
630.877	15879.27
631.071	15797.35
631.265	15854.69
631.459	15742.05
631.653	15737.96
631.848	15668.33
632.042	15537.26
632.236	15559.78
632.43	15264.88
632.624	15316.08
632.818	15187.05
633.012	15127.66
633.206	15189.1
633.4	14933.11
633.594	14576.76
633.788	14797.94
633.982	14746.74
634.176	14634.1
634.369	14650.49
634.563	14455.93
634.757	14402.68
634.951	14582.9
635.145	14339.19
635.339	14222.46
635.533	14257.28
635.726	14050.43
635.92	13735.04
636.114	13943.94
636.308	13935.74
636.501	13935.74
636.695	13765.76
636.889	13642.89
637.083	13610.12
637.276	13380.75
637.47	13116.56
637.664	13212.81
637.857	13178
638.051	13018.25
638.244	12999.82
638.438	13040.78
638.632	12801.17
638.825	12842.13
639.019	12850.32
639.212	12719.25
639.406	12594.33
639.599	12674.2
639.793	12541.08
639.986	12285.08
640.18	12264.6
640.373	12313.75
640.567	12266.65
640.76	12338.33
640.954	12149.92
641.147	12012.7
641.34	11846.82
641.534	11928.74
641.727	11977.89
641.92	11723.94
642.114	11553.96
642.307	11719.84
642.5	11574.44
642.694	11551.91
642.887	11388.07
643.08	11519.14
643.273	11291.82
643.467	11347.11
643.66	11158.7
643.853	11177.13
644.046	11056.3
644.239	11089.07
644.432	10863.79
644.626	10783.92
644.819	10808.5
645.012	10589.36
645.205	10804.4
645.398	10589.36
645.591	10486.97
645.784	10433.72
645.977	10175.67
646.17	10534.07
646.363	10249.4
646.556	10157.24
646.749	10292.41
646.942	10394.81
647.135	10140.86
647.328	10104
647.521	10011.84
647.714	9778.37
647.907	10120.38
648.099	9764.03
648.292	9768.13
648.485	9653.44
648.678	9571.52
648.871	9536.71
649.064	9553.09
649.256	9524.42
649.449	9383.11
649.642	9288.9
649.835	9157.83
650.027	9274.57
650.22	9268.42
650.413	9198.79
650.605	9159.88
650.798	8729.81
650.991	8848.59
651.183	9020.62
651.376	9051.34
651.568	8715.47
651.761	8774.86
651.954	8760.53
652.146	8676.56
652.339	8516.82
652.531	8684.75
652.724	8385.75
652.916	8318.17
653.109	8514.77
653.301	8418.52
653.494	8471.76
653.686	8252.63
653.879	8430.8
654.071	8123.61
654.263	8234.2
654.456	8295.64
654.648	8172.76
654.84	8064.22
655.033	7980.25
655.225	7843.04
655.417	7800.03
655.61	7849.18
655.802	7767.26
655.994	7705.82
656.186	7701.73
656.379	7550.18
656.571	7640.29
656.763	7496.93
656.955	7447.78
657.148	7386.34
657.34	7433.44
657.532	7283.94
657.724	7216.36
657.916	7257.32
658.108	7152.87
658.3	7128.3
658.492	7195.88
658.684	7161.06
658.876	7058.67
659.068	7023.85
659.26	7036.14
659.452	6870.25
659.644	6796.53
659.836	6862.06
660.028	6821.1
660.22	6573.3
660.412	6649.07
660.604	6474.99
660.796	6565.11
660.988	6565.11
661.18	6472.95
661.372	6391.03
661.563	6452.47
661.755	6610.16
661.947	6407.41
662.139	6352.12
662.331	6286.58
662.522	6116.6
662.714	6272.25
662.906	6110.46
663.097	5991.67
663.289	6247.67
663.481	6022.39
663.673	6106.36
663.864	5977.34
664.056	5948.67
664.247	5950.71
664.439	5907.71
664.631	5604.61
664.822	5727.49
665.014	5752.06
665.205	5672.19
665.397	5727.49
665.588	5582.08
665.78	5606.66
665.971	5778.69
666.163	5534.98
666.354	5620.99
666.546	5420.29
666.737	5438.72
666.929	5436.67
667.12	5387.52
667.311	5268.74
667.503	5432.58
667.694	5356.8
667.885	5276.93
668.077	5178.63
668.268	5088.52
668.459	5160.2
668.651	5215.49
668.842	5086.47
669.033	5031.18
669.224	4908.3
669.416	4922.63
669.607	4781.32
669.798	4947.21
669.989	4941.07
670.18	4904.2
670.371	4867.34
670.563	4752.65
670.754	4781.32
670.945	4736.27
671.136	4822.28
671.327	4754.7
671.518	4531.47
671.709	4623.63
671.9	4783.37
672.091	4699.41
672.282	4613.39
672.473	4642.06
672.664	4603.15
672.855	4535.57
673.046	4549.9
673.237	4535.57
673.428	4498.7
673.619	4644.11
673.809	4384.02
674	4502.8
674.191	4543.76
674.382	4369.68
674.573	4302.1
674.764	4345.11
674.954	4324.63
675.145	4248.85
675.336	4369.68
675.527	4228.37
675.717	4273.43
675.908	4293.91
676.099	4240.66
676.289	4211.99
676.48	4089.11
676.671	4293.91
676.861	4226.32
677.052	4138.26
677.243	4113.69
677.433	4171.03
677.624	4123.93
677.814	4171.03
678.005	3951.9
678.195	4103.45
678.386	4068.63
678.576	3960.09
678.767	4117.78
678.957	4025.62
679.148	3972.38
679.338	3886.36
679.529	3941.66
679.719	3937.56
679.909	3960.09
680.1	3992.86
680.29	4025.62
680.481	4027.67
680.671	3849.5
680.861	3843.35
681.052	3837.21
681.242	3779.87
681.432	3937.56
681.622	3857.69
681.813	3798.3
682.003	3573.02
682.193	3781.92
682.383	3714.33
682.573	3726.62
682.764	3931.42
682.954	3706.14
683.144	3738.91
683.334	3700
683.524	3695.9
683.714	3767.58
683.904	3720.48
684.094	3675.42
684.284	3704.09
684.474	3732.76
684.664	3654.94
684.854	3775.77
685.044	3790.11
685.234	3509.54
685.424	3646.75
685.614	3542.3
685.804	3568.93
685.994	3675.42
686.184	3587.36
686.374	3573.02
686.564	3489.06
686.753	3632.41
686.943	3495.2
687.133	3470.62
687.323	3476.77
687.513	3704.09
687.702	3618.08
687.892	3517.73
688.082	3591.45
688.272	3517.73
688.461	3466.53
688.651	3593.5
688.841	3433.76
689.03	3368.23
689.22	3392.8
689.41	3474.72
689.599	3433.76
689.789	3310.88
689.979	3384.61
690.168	3458.34
690.358	3384.61
690.547	3384.61
690.737	3444
690.926	3267.88
691.116	3450.14
691.305	3376.42
691.495	3343.65
691.684	3294.5
691.874	3280.16
692.063	3333.41
692.252	3382.56
692.442	3257.64
692.631	3222.82
692.82	3282.21
693.01	3310.88
693.199	3093.8
693.388	3274.02
693.578	3257.64
693.767	3282.21
693.956	3165.48
694.146	3261.73
694.335	3249.44
694.524	3155.24
694.713	3138.85
694.902	3196.2
695.092	3167.53
695.281	3237.16
695.47	3118.37
695.659	3216.68
695.848	3007.78
696.037	3042.6
696.226	3179.81
696.415	3091.75
696.604	3257.64
696.793	3048.74
696.982	2987.3
697.171	3093.8
697.36	3042.6
697.549	3075.37
697.738	3001.64
697.927	2993.45
698.116	3034.41
698.305	3048.74
698.494	3081.51
698.683	2946.34
698.872	2985.26
699.061	3093.8
699.25	3052.84
699.438	2983.21
699.627	2860.33
699.816	3011.88
700.005	2938.15
700.193	3018.02
700.382	3018.02
700.571	3034.41
700.76	3048.74
700.948	2960.68
701.137	3085.61
701.326	2929.96
701.514	2948.39
701.703	3024.17
701.892	2950.44
702.08	2985.26
702.269	2958.63
702.457	2845.99
702.646	2958.63
702.834	2852.14
703.023	2819.37
703.212	2876.71
703.4	2829.61
703.589	2893.1
703.777	2821.42
703.965	2708.78
704.154	2878.76
704.342	2778.41
704.531	2905.39
704.719	2753.84
704.907	2829.61
705.096	2671.92
705.284	2766.12
705.472	2737.45
705.661	2827.56
705.849	2782.51
706.037	2755.88
706.226	2733.36
706.414	2616.62
706.602	2696.49
706.79	2684.2
706.979	2710.83
707.167	2729.26
707.355	2680.11
707.543	2706.73
707.731	2733.36
707.919	2653.48
708.107	2561.33
708.296	2618.67
708.484	2602.29
708.672	2757.93
708.86	2688.3
709.048	2614.57
709.236	2680.11
709.424	2608.43
709.612	2610.48
709.8	2655.53
709.988	2600.24
710.176	2555.18
710.364	2614.57
710.551	2546.99
710.739	2393.39
710.927	2608.43
711.115	2493.74
711.303	2698.54
711.491	2544.94
711.679	2467.12
711.866	2540.85
712.054	2489.65
712.242	2551.09
712.43	2532.65
712.617	2506.03
712.805	2479.41
712.993	2444.59
713.181	2417.97
713.368	2467.12
713.556	2448.69
713.744	2424.11
713.931	2600.24
714.119	2368.82
714.306	2450.74
714.494	2467.12
714.682	2389.3
714.869	2336.05
715.057	2475.31
715.244	2235.7
715.432	2458.93
715.619	2475.31
715.807	2368.82
715.994	2286.9
716.182	2317.62
716.369	2329.91
716.556	2401.58
716.744	2303.28
716.931	2348.34
717.119	2344.24
717.306	2278.71
717.493	2360.63
717.681	2290.99
717.868	2319.67
718.055	2239.8
718.242	2346.29
718.43	2262.32
718.617	2288.95
718.804	2258.23
718.991	2350.39
719.179	2252.08
719.366	2166.07
719.553	2295.09
719.74	2114.87
719.927	2303.28
720.114	2155.83
720.301	2217.27
720.488	2082.1
720.676	2121.01
720.863	2307.38
721.05	2194.74
721.237	2143.54
721.424	2106.68
721.611	2170.16
721.798	2123.06
721.985	2123.06
722.172	2125.11
722.358	2094.39
722.545	2155.83
722.732	2125.11
722.919	2217.27
723.106	2133.3
723.293	2164.02
723.48	2018.61
723.667	2004.28
723.853	2143.54
724.04	2139.44
724.227	2078.01
724.414	2012.47
724.6	1948.98
724.787	2061.62
724.974	2067.77
725.161	2030.9
725.347	1975.61
725.534	1969.46
725.72	2057.53
725.907	2002.23
726.094	2000.18
726.28	1979.7
726.467	1963.32
726.653	2049.33
726.84	1946.94
727.027	2045.24
727.213	1983.8
727.4	2075.96
727.586	2032.95
727.773	1877.3
727.959	1912.12
728.145	2078.01
728.332	1905.98
728.518	1942.84
728.705	1983.8
728.891	1963.32
729.077	1994.04
729.264	1860.92
729.45	1860.92
729.636	2067.77
729.823	1858.87
730.009	1852.73
730.195	1846.59
730.382	2000.18
730.568	1783.1
730.754	1807.67
730.94	1930.55
731.126	1903.93
731.313	1885.5
731.499	1881.4
731.685	1779
731.871	1938.74
732.057	1869.11
732.243	1897.78
732.429	1873.21
732.615	1781.05
732.801	1887.54
732.987	1822.01
733.173	1951.03
733.359	1844.54
733.545	1760.57
733.731	1862.97
733.917	1910.07
734.103	1783.1
734.289	1803.58
734.475	1807.67
734.661	1828.15
734.847	1807.67
735.033	1787.19
735.219	1865.02
735.404	1776.95
735.59	1721.66
735.776	1725.75
735.962	1762.62
736.148	1713.47
736.333	1682.75
736.519	1713.47
736.705	1766.71
736.89	1803.58
737.076	1781.05
737.262	1656.12
737.447	1713.47
737.633	1746.23
737.819	1643.84
738.004	1549.63
738.19	1740.09
738.375	1717.56
738.561	1682.75
738.747	1674.56
738.932	1623.36
739.118	1705.28
739.303	1654.08
739.489	1633.6
739.674	1666.36
739.859	1500.48
740.045	1633.6
740.23	1627.45
740.416	1563.97
740.601	1582.4
740.786	1631.55
740.972	1547.58
741.157	1549.63
741.342	1600.83
741.528	1578.3
741.713	1594.69
741.898	1559.87
742.084	1486.14
742.269	1535.29
742.454	1500.48
742.639	1533.25
742.824	1549.63
743.01	1496.38
743.195	1578.3
743.38	1469.76
743.565	1516.86
743.75	1516.86
743.935	1549.63
744.12	1516.86
744.305	1451.33
744.49	1365.31
744.675	1506.62
744.86	1463.62
745.045	1480
745.23	1426.75
745.415	1422.66
745.6	1295.68
745.785	1418.56
745.97	1508.67
746.155	1393.98
746.34	1459.52
746.525	1402.18
746.71	1344.83
746.895	1297.73
747.079	1344.83
747.264	1336.64
747.449	1350.98
747.634	1346.88
747.819	1353.02
748.003	1307.97
748.188	1338.69
748.373	1379.65
748.557	1305.92
748.742	1295.68
748.927	1418.56
749.111	1312.07
749.296	1248.58
749.481	1281.35
749.665	1287.49
749.85	1262.91
750.034	1381.7
750.219	1273.15
750.404	1230.15
750.588	1199.43
750.773	1230.15
750.957	1201.48
751.141	1224
751.326	1205.57
751.51	1172.8
751.695	1142.08
751.879	1105.22
752.064	1197.38
752.248	1084.74
752.432	1164.61
752.617	1262.91
752.801	1117.51
752.985	1074.5
753.17	1150.28
753.354	1133.89
753.538	1176.9
753.722	1066.31
753.907	1060.17
754.091	1074.5
754.275	1140.04
754.459	1033.54
754.643	1027.4
754.828	988.49
755.012	1080.64
755.196	986.44
755.38	1117.51
755.564	1023.3
755.748	984.39
755.932	918.86
756.116	996.68
756.3	990.53
756.484	992.58
756.668	949.57
756.852	951.62
757.036	910.66
757.22	963.91
757.404	935.24
757.588	955.72
757.772	953.67
757.956	879.94
758.14	968.01
758.323	937.29
758.507	822.6
758.691	968.01
758.875	853.32
759.059	974.15
759.242	898.38
759.426	984.39
759.61	812.36
759.794	863.56
759.977	859.46
760.161	902.47
760.345	822.6
760.528	908.62
760.712	851.27
760.895	857.42
761.079	812.36
761.263	853.32
761.446	808.27
761.63	773.45
761.813	849.22
761.997	779.59
762.18	849.22
762.364	824.65
762.547	787.79
762.731	828.74
762.914	775.5
763.098	800.07
763.281	744.78
763.464	836.94
763.648	773.45
763.831	779.59
764.015	802.12
764.198	814.41
764.381	791.88
764.564	810.31
764.748	722.25
764.931	720.2
765.114	838.98
765.297	773.45
765.481	746.83
765.664	767.31
765.847	746.83
766.03	802.12
766.213	716.11
766.397	683.34
766.58	673.1
766.763	660.81
766.946	632.14
767.129	744.78
767.312	626
767.495	691.53
767.678	697.67
767.861	740.68
768.044	658.76
768.227	677.19
768.41	673.1
768.593	726.35
768.776	744.78
768.959	619.85
769.142	626
769.324	742.73
769.507	671.05
769.69	660.81
769.873	699.72
770.056	755.02
770.239	628.04
770.421	673.1
770.604	705.87
770.787	697.67
770.97	648.52
771.152	685.39
771.335	642.38
771.518	597.32
771.7	626
771.883	609.61
772.066	593.23
772.248	599.37
772.431	595.28
772.613	701.77
772.796	664.91
772.978	658.76
773.161	544.08
773.343	582.99
773.526	617.8
773.708	513.36
773.891	542.03
774.073	623.95
774.256	550.22
774.438	683.34
774.621	613.71
774.803	556.36
774.985	595.28
775.168	558.41
775.35	550.22
775.532	623.95
775.715	550.22
775.897	507.21
776.079	529.74
776.261	509.26
776.444	570.7
776.626	517.45
776.808	499.02
776.99	494.93
777.173	468.3
777.355	486.73
777.537	556.36
777.719	544.08
777.901	486.73
778.083	517.45
778.265	539.98
778.447	462.16
778.629	521.55
778.811	513.36
778.993	554.32
779.175	593.23
779.357	435.53
779.539	515.41
779.721	456.01
779.903	517.45
780.085	496.97
780.267	552.27
780.449	425.29
780.631	474.45
780.812	419.15
780.994	488.78
781.176	517.45
781.358	357.71
781.54	365.9
781.721	380.24
781.903	468.3
782.085	392.53
782.267	443.73
782.448	460.11
782.63	380.24
782.812	341.33
782.993	347.47
783.175	425.29
783.357	413.01
783.538	413.01
783.72	361.81
783.901	361.81
784.083	390.48
784.264	349.52
784.446	386.38
784.627	372.05
784.809	320.85
784.99	329.04
785.172	402.77
785.353	320.85
785.535	333.14
785.716	353.62
785.897	363.86
786.079	312.66
786.26	322.9
786.441	331.09
786.623	345.42
786.804	296.27
786.985	361.81
787.167	322.9
787.348	247.12
787.529	273.75
787.71	310.61
787.891	238.93
788.073	324.94
788.254	296.27
788.435	304.46
788.616	347.47
788.797	228.69
788.978	292.18
789.159	380.24
789.34	271.7
789.522	337.23
789.703	337.23
789.884	316.75
790.065	337.23
790.246	279.89
790.427	345.42
790.607	304.46
790.788	206.16
790.969	206.16
791.15	298.32
791.331	333.14
791.512	251.22
791.693	214.35
791.874	236.88
792.054	283.99
792.235	279.89
792.416	245.07
792.597	359.76
792.778	255.31
792.958	267.6
793.139	226.64
793.32	263.51
793.5	333.14
793.681	322.9
793.862	349.52
794.042	271.7
794.223	124.24
794.404	247.12
794.584	187.73
794.765	202.07
794.945	271.7
795.126	230.74
795.306	173.39
795.487	273.75
795.667	277.84
795.848	200.02
796.028	218.45
796.209	238.93
796.389	226.64
796.57	228.69
796.75	197.97
796.93	247.12
797.111	169.3
797.291	226.64
797.471	140.63
797.652	216.4
797.832	124.24
798.012	210.26
798.192	204.11
798.373	245.07
798.553	208.21
798.733	214.35
798.913	136.53
799.093	169.3
799.274	183.63
799.454	226.64
799.634	234.83
799.814	277.84
799.994	222.55
800.174	157.01
800.354	183.63
800.534	159.06
800.714	197.97
800.894	187.73
801.074	150.87
801.254	189.78
801.434	208.21
801.614	109.91
801.794	128.34
801.974	746.83
802.154	197.97
802.334	183.63
802.514	165.2
802.693	255.31
802.873	144.72
803.053	185.68
803.233	222.55
803.413	216.4
803.592	165.2
803.772	157.01
803.952	220.5
804.131	71
804.311	159.06
804.491	181.59
804.67	130.39
804.85	238.93
805.03	193.87
805.209	195.92
805.389	114
805.568	206.16
805.748	111.96
805.928	197.97
806.107	150.87
806.287	191.83
806.466	187.73
806.646	132.44
806.825	144.72
807.004	222.55
807.184	144.72
807.363	136.53
807.543	197.97
807.722	159.06
807.901	200.02
808.081	173.39
808.26	148.82
808.439	91.48
808.619	157.01
808.798	93.52
808.977	138.58
809.156	240.98
809.336	189.78
809.515	181.59
809.694	79.19
809.873	91.48
810.052	191.83
810.231	138.58
810.411	150.87
810.59	175.44
810.769	161.11
810.948	216.4
811.127	120.15
811.306	140.63
811.485	109.91
811.664	157.01
811.843	99.67
812.022	152.92
812.201	132.44
812.38	142.68
812.559	99.67
812.737	169.3
812.916	73.04
813.095	103.76
813.274	154.96
813.453	142.68
813.632	73.04
813.811	165.2
813.989	34.13
814.168	167.25
814.347	30.04
814.526	89.43
814.704	152.92
814.883	165.2
815.062	60.76
815.24	134.48
815.419	116.05
815.598	91.48
815.776	87.38
815.955	116.05
816.133	89.43
816.312	142.68
816.49	77.14
816.669	118.1
816.847	124.24
817.026	120.15
817.204	27.99
817.383	134.48
817.561	50.52
817.74	109.91
817.918	95.57
818.097	128.34
818.275	71
818.453	140.63
818.632	79.19
818.81	68.95
818.988	52.56
819.167	42.32
819.345	66.9
819.523	52.56
819.701	116.05
819.879	87.38
820.058	79.19
820.236	99.67
820.414	91.48
820.592	91.48
820.77	71
820.948	11.61
821.127	101.72
821.305	140.63
821.483	46.42
821.661	189.78
821.839	124.24
822.017	101.72
822.195	111.96
822.373	66.9
822.551	93.52
822.729	111.96
822.907	83.28
823.085	64.85
823.262	77.14
823.44	64.85
823.618	68.95
823.796	79.19
823.974	11.61
824.152	56.66
824.329	107.86
824.507	40.28
824.685	27.99
824.863	95.57
825.04	40.28
825.218	101.72
825.396	128.34
825.574	77.14
825.751	58.71
825.929	77.14
826.107	50.52
826.284	11.61
826.462	13.65
826.639	44.37
826.817	34.13
826.994	116.05
827.172	-23.21
827.349	128.34
827.527	34.13
827.704	122.2
827.882	93.52
828.059	46.42
828.237	109.91
828.414	169.3
828.591	-12.97
828.769	50.52
828.946	60.76
829.124	87.38
829.301	206.16
829.478	52.56
829.655	13.65
829.833	52.56
830.01	15.7
830.187	66.9
830.364	-0.68
830.542	73.04
830.719	107.86
830.896	66.9
831.073	44.37
831.25	21.85
831.427	58.71
831.604	124.24
831.782	48.47
831.959	87.38
832.136	21.85
832.313	36.18
832.49	58.71
832.667	36.18
832.844	116.05
833.021	56.66
833.198	23.89
833.374	46.42
833.551	68.95
833.728	60.76
833.905	68.95
834.082	77.14
834.259	40.28
834.436	91.48
834.612	-2.73
834.789	87.38
834.966	11.61
835.143	40.28
835.319	-19.11
835.496	101.72
835.673	42.32
835.85	38.23
836.026	58.71
836.203	42.32
836.38	46.42
836.556	68.95
836.733	1.37
836.909	157.01
837.086	46.42
837.262	13.65
837.439	-31.4
837.616	46.42
837.792	32.08
837.968	58.71
838.145	68.95
838.321	34.13
838.498	107.86
838.674	50.52
838.851	11.61
839.027	5.46
839.203	79.19
839.38	-4.78
839.556	60.76
839.732	30.04
839.909	-51.88
840.085	66.9
840.261	21.85
840.437	32.08
840.614	15.7
840.79	56.66
840.966	50.52
841.142	-84.65
841.318	83.28
841.494	58.71
841.671	34.13
841.847	-12.97
842.023	-6.83
842.199	83.28
842.375	52.56
842.551	21.85
842.727	50.52
842.903	109.91
843.079	52.56
843.255	83.28
843.431	3.41
843.607	-2.73
843.783	-105.13
843.959	17.75
844.134	44.37
844.31	54.61
844.486	15.7
844.662	-15.02
844.838	-10.92
845.013	-12.97
845.189	54.61
845.365	5.46
845.541	60.76
845.716	44.37
845.892	68.95
846.068	-8.87
846.244	52.56
846.419	66.9
846.595	83.28
846.77	9.56
846.946	-6.83
847.122	-15.02
847.297	19.8
847.473	19.8
847.648	50.52
847.824	42.32
847.999	-27.31
848.175	46.42
848.35	11.61
848.526	58.71
848.701	-15.02
848.876	42.32
849.052	64.85
849.227	21.85
849.403	66.9
849.578	-4.78
849.753	75.09
849.929	3.41
850.104	-17.07
850.279	42.32
850.454	75.09
850.63	-17.07
850.805	50.52
850.98	25.94
851.155	50.52
851.33	9.56
851.505	13.65
851.681	58.71
851.856	50.52
852.031	1.37
852.206	-31.4
852.381	-58.03
852.556	17.75
852.731	50.52
852.906	52.56
853.081	17.75
853.256	13.65
853.431	30.04
853.606	40.28
853.781	44.37
853.956	25.94
854.131	-2.73
854.305	13.65
854.48	38.23
854.655	-23.21
854.83	-15.02
855.005	-39.59
855.18	-6.83
855.354	-4.78
855.529	-35.5
855.704	19.8
855.879	34.13
856.053	-19.11
856.228	58.71
856.403	1.37
856.577	40.28
856.752	62.8
856.926	101.72
857.101	5.46
857.276	-6.83
857.45	19.8
857.625	30.04
857.799	91.48
857.974	9.56
858.148	-2.73
858.323	-31.4
858.497	-33.45
858.672	52.56
858.846	9.56
859.02	-6.83
859.195	-31.4
859.369	134.48
859.543	-19.11
859.718	17.75
859.892	-23.21
860.066	17.75
860.241	-19.11
860.415	30.04
860.589	17.75
860.763	30.04
860.938	-15.02
861.112	-15.02
861.286	-37.55
861.46	-6.83
861.634	-101.03
861.808	144.72
861.982	19.8
862.157	44.37
862.331	62.8
862.505	-19.11
862.679	-6.83
862.853	-27.31
863.027	75.09
863.201	91.48
863.375	48.47
863.549	50.52
863.722	1.37
863.896	13.65
864.07	9.56
864.244	25.94
864.418	44.37
864.592	-29.35
864.766	-31.4
864.939	9.56
865.113	-62.12
865.287	50.52
865.461	52.56
865.634	75.09
865.808	-19.11
865.982	50.52
866.156	-47.79
866.329	52.56
866.503	-39.59
866.676	99.67
866.85	-6.83
867.024	-8.87
867.197	75.09
867.371	77.14
867.544	30.04
867.718	1.37
867.891	107.86
868.065	-29.35
868.238	25.94
868.412	66.9
868.585	58.71
868.759	-23.21
868.932	71
869.105	27.99
869.279	50.52
869.452	-12.97
869.625	44.37
869.799	34.13
869.972	17.75
870.145	-4.78
870.319	83.28
870.492	5.46
870.665	91.48
870.838	-6.83
871.011	-74.41
871.185	42.32
871.358	-105.13
871.531	52.56
871.704	58.71
871.877	-53.93
872.05	5.46
872.223	7.51
872.396	-21.16
872.569	46.42
872.742	7.51
872.915	25.94
873.088	-10.92
873.261	-23.21
873.434	-4.78
873.607	17.75
873.78	-37.55
873.953	30.04
874.126	50.52
874.299	46.42
874.471	-88.75
874.644	-6.83
874.817	15.7
874.99	-10.92
875.163	-39.59
875.335	1.37
875.508	-17.07
875.681	9.56
875.853	46.42
876.026	17.75
876.199	44.37
876.371	15.7
876.544	-12.97
876.717	-12.97
876.889	19.8
877.062	13.65
877.234	-29.35
877.407	-10.92
877.579	-35.5
877.752	42.32
877.924	42.32
878.097	25.94
878.269	-4.78
878.442	27.99
878.614	-15.02
878.786	-23.21
878.959	19.8
879.131	-6.83
879.303	-62.12
879.476	9.56
879.648	105.81
879.82	1.37
879.993	-101.03
880.165	-6.83
880.337	21.85
880.509	-6.83
880.681	32.08
880.854	34.13
881.026	50.52
881.198	87.38
881.37	-4.78
881.542	85.33
881.714	1.37
881.886	-80.55
882.058	-23.21
882.23	-6.83
882.402	-4.78
882.574	58.71
882.746	21.85
882.918	85.33
883.09	-6.83
883.262	36.18
883.434	-15.02
883.606	-39.59
883.778	7.51
883.95	58.71
884.122	-21.16
884.293	25.94
884.465	-27.31
884.637	21.85
884.809	-6.83
884.98	-15.02
885.152	-43.69
885.324	27.99
885.496	-62.12
885.667	42.32
885.839	1.37
886.011	-80.55
886.182	-39.59
886.354	-37.55
886.525	-0.68
886.697	19.8
886.869	30.04
887.04	-2.73
887.212	38.23
887.383	85.33
887.555	-82.6
887.726	-23.21
887.897	-113.32
888.069	-33.45
888.24	11.61
888.412	50.52
888.583	34.13
888.754	83.28
888.926	-29.35
889.097	-55.98
889.268	-53.93
889.44	-47.79
889.611	-66.22
889.782	-17.07
889.953	-74.41
890.125	3.41
890.296	-17.07
890.467	1.37
890.638	-6.83
890.809	46.42
890.98	-4.78
891.151	-29.35
891.323	-2.73
891.494	-10.92
891.665	50.52
891.836	7.51
892.007	46.42
892.178	40.28
892.349	-10.92
892.52	-39.59
892.691	1.37
892.862	-12.97
893.032	-12.97
893.203	36.18
893.374	-23.21
893.545	66.9
893.716	-58.03
893.887	11.61
894.057	9.56
894.228	23.89
894.399	81.24
894.57	-21.16
894.74	15.7
894.911	-4.78
895.082	-0.68
895.253	1.37
895.423	44.37
895.594	17.75
895.764	9.56
895.935	36.18
896.106	15.7
896.276	-10.92
896.447	-12.97
896.617	27.99
896.788	-23.21
896.958	9.56
897.129	-64.17
897.299	-15.02
897.47	9.56
897.64	34.13
897.81	-31.4
897.981	38.23
898.151	-51.88
898.322	-39.59
898.492	30.04
898.662	7.51
898.832	-4.78
899.003	-6.83
899.173	75.09
899.343	-17.07
899.513	-10.92
