Data from USB4F104151__26__14-42-45-746.txt Node

Date: Thu Mar 13 14:42:45 EDT 2025
User: louis
Spectrometer: USB4F10415
Trigger mode: 4
Integration Time (sec): 2.000000E-2
Scans to average: 1
Electric dark correction enabled: true
Nonlinearity correction enabled: false
Boxcar width: 0
XAxis mode: Wavelengths
Number of Pixels in Spectrum: 3648
>>>>>Begin Spectral Data<<<<<
178.204	-86.87
178.424	-86.87
178.644	-86.87
178.864	-179.03
179.084	-146.26
179.304	-2.9
179.524	17.58
179.744	42.15
179.964	13.48
180.184	-15.19
180.404	9.39
180.624	-68.44
180.844	33.96
181.064	-78.68
181.283	27.82
181.503	-31.57
181.723	52.39
181.943	-39.76
182.163	44.2
182.383	-21.33
182.602	48.3
182.822	25.77
183.042	19.63
183.262	-90.96
183.482	66.73
183.701	-35.67
183.921	66.73
184.141	-27.48
184.361	25.77
184.58	-15.19
184.8	29.87
185.02	-2.9
185.239	15.53
185.459	29.87
185.679	50.35
185.898	-113.49
186.118	36.01
186.338	-58.2
186.557	-15.19
186.777	-7
186.997	87.21
187.216	-47.96
187.436	9.39
187.655	9.39
187.875	-60.24
188.095	-11.09
188.314	29.87
188.534	64.68
188.753	-56.15
188.973	50.35
189.192	66.73
189.412	17.58
189.631	19.63
189.851	-43.86
190.07	-4.95
190.29	-60.24
190.509	-35.67
190.729	-23.38
190.948	52.39
191.168	124.07
191.387	-76.63
191.607	-35.67
191.826	36.01
192.045	48.3
192.265	7.34
192.484	-13.14
192.704	21.67
192.923	7.34
193.142	-15.19
193.362	64.68
193.581	44.2
193.8	21.67
194.02	-29.52
194.239	17.58
194.458	46.25
194.678	74.92
194.897	-62.29
195.116	58.54
195.335	-7
195.555	-9.05
195.774	36.01
195.993	17.58
196.212	-43.86
196.432	7.34
196.651	-23.38
196.87	5.29
197.089	44.2
197.308	-2.9
197.528	-31.57
197.747	33.96
197.966	-4.95
198.185	60.59
198.404	9.39
198.623	54.44
198.842	46.25
199.062	23.72
199.281	17.58
199.5	-47.96
199.719	19.63
199.938	85.16
200.157	36.01
200.376	25.77
200.595	38.06
200.814	9.39
201.033	-4.95
201.252	5.29
201.471	19.63
201.69	66.73
201.909	3.24
202.128	3.24
202.347	74.92
202.566	42.15
202.785	-121.68
203.004	13.48
203.223	62.63
203.442	-45.91
203.661	-2.9
203.879	-84.82
204.098	21.67
204.317	-45.91
204.536	25.77
204.755	66.73
204.974	-7
205.193	1.19
205.411	13.48
205.63	-21.33
205.849	-31.57
206.068	-15.19
206.287	-45.91
206.505	27.82
206.724	70.83
206.943	-35.67
207.162	-39.76
207.381	23.72
207.599	50.35
207.818	-82.77
208.037	-15.19
208.255	5.29
208.474	44.2
208.693	83.11
208.911	52.39
209.13	-21.33
209.349	91.31
209.567	11.43
209.786	5.29
210.005	-11.09
210.223	1.19
210.442	-62.29
210.661	66.73
210.879	-45.91
211.098	3.24
211.316	19.63
211.535	27.82
211.753	44.2
211.972	-21.33
212.191	21.67
212.409	38.06
212.628	15.53
212.846	85.16
213.065	42.15
213.283	58.54
213.502	-31.57
213.72	54.44
213.938	1.19
214.157	11.43
214.375	-39.76
214.594	-21.33
214.812	-7
215.031	62.63
215.249	-2.9
215.467	15.53
215.686	-29.52
215.904	-11.09
216.122	-37.72
216.341	19.63
216.559	83.11
216.778	33.96
216.996	25.77
217.214	25.77
217.432	-25.43
217.651	50.35
217.869	124.07
218.087	9.39
218.306	-41.81
218.524	-7
218.742	33.96
218.96	62.63
219.179	31.91
219.397	17.58
219.615	117.93
219.833	17.58
220.051	-70.48
220.27	38.06
220.488	-35.67
220.706	21.67
220.924	-39.76
221.142	25.77
221.36	72.87
221.578	50.35
221.796	-52.05
222.015	54.44
222.233	29.87
222.451	42.15
222.669	42.15
222.887	50.35
223.105	50.35
223.323	9.39
223.541	50.35
223.759	19.63
223.977	-41.81
224.195	38.06
224.413	-15.19
224.631	85.16
224.849	17.58
225.067	66.73
225.285	33.96
225.503	-35.67
225.721	-62.29
225.939	17.58
226.157	54.44
226.375	101.55
226.592	-52.05
226.81	33.96
227.028	-25.43
227.246	15.53
227.464	56.49
227.682	13.48
227.9	33.96
228.117	87.21
228.335	93.35
228.553	42.15
228.771	-27.48
228.989	52.39
229.206	60.59
229.424	-54.1
229.642	29.87
229.86	52.39
230.077	-7
230.295	74.92
230.513	97.45
230.731	27.82
230.948	72.87
231.166	50.35
231.384	27.82
231.601	3.24
231.819	46.25
232.037	60.59
232.254	-64.34
232.472	-2.9
232.689	-13.14
232.907	42.15
233.125	-21.33
233.342	29.87
233.56	-7
233.777	-43.86
233.995	42.15
234.213	33.96
234.43	17.58
234.648	66.73
234.865	-7
235.083	36.01
235.3	-15.19
235.518	-11.09
235.735	19.63
235.953	-39.76
236.17	-31.57
236.388	-0.85
236.605	54.44
236.822	-4.95
237.04	105.64
237.257	76.97
237.475	9.39
237.692	11.43
237.909	13.48
238.127	1.19
238.344	27.82
238.562	66.73
238.779	-56.15
238.996	-2.9
239.214	-23.38
239.431	-31.57
239.648	-43.86
239.865	-13.14
240.083	62.63
240.3	27.82
240.517	38.06
240.735	-39.76
240.952	17.58
241.169	58.54
241.386	42.15
241.603	33.96
241.821	-7
242.038	27.82
242.255	44.2
242.472	13.48
242.689	74.92
242.907	33.96
243.124	-4.95
243.341	-29.52
243.558	38.06
243.775	42.15
243.992	-45.91
244.209	-31.57
244.426	54.44
244.643	19.63
244.86	-31.57
245.078	-7
245.295	-17.24
245.512	-19.29
245.729	-76.63
245.946	27.82
246.163	-11.09
246.38	54.44
246.597	42.15
246.814	-56.15
247.031	58.54
247.248	-9.05
247.464	33.96
247.681	76.97
247.898	101.55
248.115	42.15
248.332	-37.72
248.549	54.44
248.766	66.73
248.983	1.19
249.2	52.39
249.417	60.59
249.633	33.96
249.85	50.35
250.067	-7
250.284	33.96
250.501	36.01
250.717	-39.76
250.934	-15.19
251.151	-11.09
251.368	-56.15
251.585	52.39
251.801	-23.38
252.018	-47.96
252.235	-9.05
252.451	-21.33
252.668	-11.09
252.885	33.96
253.102	58.54
253.318	68.78
253.535	48.3
253.752	17.58
253.968	9.39
254.185	13.48
254.401	-13.14
254.618	-21.33
254.835	-7
255.051	68.78
255.268	-47.96
255.484	9.39
255.701	-37.72
255.917	66.73
256.134	-25.43
256.351	25.77
256.567	-31.57
256.784	29.87
257	-27.48
257.217	-47.96
257.433	56.49
257.65	74.92
257.866	7.34
258.082	1.19
258.299	17.58
258.515	-19.29
258.732	21.67
258.948	-29.52
259.165	5.29
259.381	19.63
259.597	33.96
259.814	29.87
260.03	13.48
260.246	27.82
260.463	15.53
260.679	76.97
260.895	25.77
261.112	29.87
261.328	9.39
261.544	-35.67
261.761	83.11
261.977	50.35
262.193	9.39
262.409	11.43
262.626	-31.57
262.842	50.35
263.058	50.35
263.274	42.15
263.49	-13.14
263.707	44.2
263.923	50.35
264.139	-72.53
264.355	29.87
264.571	99.5
264.787	-31.57
265.004	5.29
265.22	-27.48
265.436	-80.72
265.652	15.53
265.868	42.15
266.084	-7
266.3	1.19
266.516	25.77
266.732	33.96
266.948	-11.09
267.164	-15.19
267.38	15.53
267.596	25.77
267.812	19.63
268.028	89.26
268.244	-64.34
268.46	27.82
268.676	25.77
268.892	79.02
269.108	21.67
269.324	11.43
269.54	-21.33
269.756	68.78
269.972	-54.1
270.188	7.34
270.403	-80.72
270.619	29.87
270.835	54.44
271.051	-31.57
271.267	-15.19
271.483	-9.05
271.698	-4.95
271.914	-45.91
272.13	36.01
272.346	-0.85
272.562	-39.76
272.777	66.73
272.993	5.29
273.209	38.06
273.425	68.78
273.64	50.35
273.856	11.43
274.072	33.96
274.287	-52.05
274.503	58.54
274.719	23.72
274.934	-31.57
275.15	-21.33
275.366	72.87
275.581	-50
275.797	27.82
276.012	23.72
276.228	29.87
276.444	17.58
276.659	50.35
276.875	-21.33
277.09	-17.24
277.306	50.35
277.521	58.54
277.737	-2.9
277.952	54.44
278.168	50.35
278.383	74.92
278.599	33.96
278.814	17.58
279.03	-47.96
279.245	-15.19
279.461	21.67
279.676	13.48
279.892	-23.38
280.107	19.63
280.322	74.92
280.538	-11.09
280.753	1.19
280.969	-4.95
281.184	-17.24
281.399	50.35
281.615	76.97
281.83	52.39
282.045	-33.62
282.26	44.2
282.476	-4.95
282.691	95.4
282.906	23.72
283.122	29.87
283.337	-0.85
283.552	-39.76
283.767	1.19
283.983	-29.52
284.198	-50
284.413	74.92
284.628	-50
284.843	27.82
285.058	27.82
285.274	-31.57
285.489	-52.05
285.704	-7
285.919	-47.96
286.134	40.11
286.349	25.77
286.564	-31.57
286.779	17.58
286.995	44.2
287.21	-0.85
287.425	48.3
287.64	1.19
287.855	-54.1
288.07	-11.09
288.285	33.96
288.5	-31.57
288.715	-9.05
288.93	-23.38
289.145	-78.68
289.36	66.73
289.575	25.77
289.79	48.3
290.004	9.39
290.219	-54.1
290.434	-23.38
290.649	1.19
290.864	-97.11
291.079	38.06
291.294	-95.06
291.509	-13.14
291.724	-25.43
291.938	33.96
292.153	58.54
292.368	5.29
292.583	-21.33
292.798	21.67
293.012	25.77
293.227	44.2
293.442	9.39
293.657	68.78
293.871	81.07
294.086	17.58
294.301	36.01
294.516	25.77
294.73	-21.33
294.945	15.53
295.16	38.06
295.374	9.39
295.589	50.35
295.804	-62.29
296.018	29.87
296.233	52.39
296.447	58.54
296.662	13.48
296.877	1.19
297.091	17.58
297.306	21.67
297.52	48.3
297.735	70.83
297.949	-64.34
298.164	66.73
298.378	42.15
298.593	-70.48
298.807	9.39
299.022	21.67
299.236	103.59
299.451	-11.09
299.665	62.63
299.88	-15.19
300.094	-4.95
300.309	3.24
300.523	25.77
300.737	9.39
300.952	3.24
301.166	21.67
301.381	-25.43
301.595	11.43
301.809	33.96
302.024	83.11
302.238	25.77
302.452	-52.05
302.667	52.39
302.881	13.48
303.095	42.15
303.309	74.92
303.524	11.43
303.738	19.63
303.952	-54.1
304.166	68.78
304.381	-78.68
304.595	52.39
304.809	21.67
305.023	33.96
305.237	-68.44
305.452	-78.68
305.666	50.35
305.88	3.24
306.094	83.11
306.308	-23.38
306.522	70.83
306.736	17.58
306.95	48.3
307.164	79.02
307.379	-88.92
307.593	64.68
307.807	62.63
308.021	9.39
308.235	13.48
308.449	-11.09
308.663	-45.91
308.877	9.39
309.091	17.58
309.305	52.39
309.519	11.43
309.733	48.3
309.947	33.96
310.161	58.54
310.374	3.24
310.588	36.01
310.802	19.63
311.016	17.58
311.23	58.54
311.444	42.15
311.658	31.91
311.872	-64.34
312.085	44.2
312.299	95.4
312.513	66.73
312.727	23.72
312.941	-52.05
313.154	25.77
313.368	19.63
313.582	3.24
313.796	3.24
314.009	-23.38
314.223	-15.19
314.437	42.15
314.651	50.35
314.864	70.83
315.078	-62.29
315.292	-15.19
315.505	17.58
315.719	-7
315.933	-4.95
316.146	25.77
316.36	-2.9
316.573	13.48
316.787	23.72
317.001	40.11
317.214	-21.33
317.428	25.77
317.641	-2.9
317.855	9.39
318.068	-43.86
318.282	-7
318.495	132.26
318.709	38.06
318.922	-2.9
319.136	83.11
319.349	40.11
319.563	42.15
319.776	-2.9
319.99	1.19
320.203	13.48
320.417	17.58
320.63	-17.24
320.843	-9.05
321.057	-7
321.27	21.67
321.483	1.19
321.697	54.44
321.91	60.59
322.124	29.87
322.337	-4.95
322.55	9.39
322.763	25.77
322.977	27.82
323.19	19.63
323.403	42.15
323.617	42.15
323.83	36.01
324.043	-52.05
324.256	50.35
324.469	50.35
324.683	21.67
324.896	7.34
325.109	66.73
325.322	-39.76
325.535	-23.38
325.748	-0.85
325.962	-27.48
326.175	13.48
326.388	74.92
326.601	74.92
326.814	21.67
327.027	17.58
327.24	13.48
327.453	-2.9
327.666	9.39
327.879	-2.9
328.092	91.31
328.305	-2.9
328.518	25.77
328.731	33.96
328.944	-4.95
329.157	33.96
329.37	-0.85
329.583	44.2
329.796	21.67
330.009	1.19
330.222	11.43
330.435	46.25
330.648	-45.91
330.861	70.83
331.073	-0.85
331.286	42.15
331.499	40.11
331.712	23.72
331.925	21.67
332.138	42.15
332.35	42.15
332.563	-7
332.776	9.39
332.989	-41.81
333.202	-39.76
333.414	-33.62
333.627	33.96
333.84	79.02
334.053	91.31
334.265	-19.29
334.478	-43.86
334.691	19.63
334.903	-7
335.116	-23.38
335.329	58.54
335.541	42.15
335.754	31.91
335.966	1.19
336.179	17.58
336.392	-9.05
336.604	9.39
336.817	115.88
337.029	29.87
337.242	58.54
337.454	50.35
337.667	-7
337.88	62.63
338.092	36.01
338.305	74.92
338.517	23.72
338.729	54.44
338.942	107.69
339.154	15.53
339.367	44.2
339.579	52.39
339.792	-19.29
340.004	19.63
340.217	5.29
340.429	31.91
340.641	42.15
340.854	-37.72
341.066	76.97
341.278	62.63
341.491	74.92
341.703	70.83
341.915	-0.85
342.128	1.19
342.34	50.35
342.552	-37.72
342.764	-13.14
342.977	79.02
343.189	-7
343.401	60.59
343.613	-56.15
343.826	42.15
344.038	9.39
344.25	52.39
344.462	-27.48
344.674	38.06
344.886	-25.43
345.099	-43.86
345.311	-7
345.523	50.35
345.735	-103.25
345.947	21.67
346.159	-82.77
346.371	-7
346.583	-70.48
346.795	52.39
347.007	1.19
347.219	50.35
347.431	17.58
347.643	36.01
347.855	-7
348.067	9.39
348.279	-17.24
348.491	33.96
348.703	-39.76
348.915	17.58
349.127	-23.38
349.339	9.39
349.551	42.15
349.763	89.26
349.975	36.01
350.187	31.91
350.399	58.54
350.61	58.54
350.822	17.58
351.034	128.17
351.246	11.43
351.458	17.58
351.669	-31.57
351.881	58.54
352.093	72.87
352.305	87.21
352.517	19.63
352.728	74.92
352.94	13.48
353.152	25.77
353.363	-54.1
353.575	42.15
353.787	-37.72
353.999	25.77
354.21	124.07
354.422	62.63
354.633	13.48
354.845	21.67
355.057	-2.9
355.268	25.77
355.48	76.97
355.692	33.96
355.903	11.43
356.115	1.19
356.326	-80.72
356.538	48.3
356.749	17.58
356.961	85.16
357.172	23.72
357.384	-7
357.595	89.26
357.807	33.96
358.018	-7
358.23	1.19
358.441	50.35
358.653	21.67
358.864	-54.1
359.075	-29.52
359.287	-0.85
359.498	17.58
359.709	17.58
359.921	13.48
360.132	97.45
360.344	42.15
360.555	21.67
360.766	9.39
360.977	36.01
361.189	33.96
361.4	-37.72
361.611	58.54
361.823	27.82
362.034	95.4
362.245	1.19
362.456	-21.33
362.667	79.02
362.879	19.63
363.09	33.96
363.301	85.16
363.512	-4.95
363.723	9.39
363.935	50.35
364.146	-23.38
364.357	-56.15
364.568	-19.29
364.779	-11.09
364.99	68.78
365.201	-64.34
365.412	40.11
365.623	1.19
365.834	58.54
366.045	17.58
366.256	66.73
366.467	-2.9
366.678	33.96
366.889	107.69
367.1	38.06
367.311	58.54
367.522	-4.95
367.733	79.02
367.944	-35.67
368.155	17.58
368.366	66.73
368.577	-2.9
368.788	58.54
368.999	42.15
369.209	17.58
369.42	-21.33
369.631	60.59
369.842	25.77
370.053	3.24
370.264	29.87
370.474	-7
370.685	9.39
370.896	58.54
371.107	21.67
371.317	42.15
371.528	29.87
371.739	132.26
371.95	13.48
372.16	50.35
372.371	-43.86
372.582	31.91
372.792	13.48
373.003	42.15
373.214	17.58
373.424	21.67
373.635	5.29
373.846	93.35
374.056	-27.48
374.267	-37.72
374.477	66.73
374.688	42.15
374.898	33.96
375.109	40.11
375.319	46.25
375.53	132.26
375.74	1.19
375.951	-47.96
376.161	46.25
376.372	70.83
376.582	9.39
376.793	-23.38
377.003	1.19
377.214	9.39
377.424	13.48
377.635	74.92
377.845	62.63
378.055	87.21
378.266	-7
378.476	7.34
378.686	-11.09
378.897	60.59
379.107	76.97
379.317	11.43
379.528	17.58
379.738	66.73
379.948	-7
380.158	38.06
380.369	33.96
380.579	9.39
380.789	62.63
380.999	21.67
381.21	66.73
381.42	91.31
381.63	50.35
381.84	42.15
382.05	29.87
382.261	111.78
382.471	17.58
382.681	33.96
382.891	-0.85
383.101	11.43
383.311	-27.48
383.521	-29.52
383.731	70.83
383.941	42.15
384.151	-29.52
384.361	81.07
384.571	-35.67
384.781	68.78
384.991	109.74
385.201	11.43
385.411	66.73
385.621	-2.9
385.831	42.15
386.041	9.39
386.251	-23.38
386.461	79.02
386.671	15.53
386.881	124.07
387.091	-21.33
387.301	124.07
387.511	74.92
387.72	66.73
387.93	1.19
388.14	27.82
388.35	62.63
388.56	50.35
388.769	13.48
388.979	31.91
389.189	58.54
389.399	1.19
389.609	81.07
389.818	99.5
390.028	91.31
390.238	68.78
390.447	-72.53
390.657	19.63
390.867	33.96
391.076	17.58
391.286	91.31
391.496	36.01
391.705	38.06
391.915	50.35
392.125	72.87
392.334	33.96
392.544	91.31
392.753	58.54
392.963	70.83
393.172	83.11
393.382	-2.9
393.591	1.19
393.801	5.29
394.01	46.25
394.22	25.77
394.429	87.21
394.639	46.25
394.848	58.54
395.058	46.25
395.267	29.87
395.477	62.63
395.686	50.35
395.895	72.87
396.105	74.92
396.314	19.63
396.524	50.35
396.733	85.16
396.942	66.73
397.152	52.39
397.361	70.83
397.57	95.4
397.78	76.97
397.989	76.97
398.198	83.11
398.407	58.54
398.617	29.87
398.826	138.41
399.035	9.39
399.244	81.07
399.453	13.48
399.663	148.65
399.872	66.73
400.081	-54.1
400.29	156.84
400.499	33.96
400.708	99.5
400.917	17.58
401.127	109.74
401.336	62.63
401.545	126.12
401.754	93.35
401.963	158.89
402.172	54.44
402.381	58.54
402.59	48.3
402.799	115.88
403.008	74.92
403.217	62.63
403.426	68.78
403.635	25.77
403.844	72.87
404.053	83.11
404.262	70.83
404.471	83.11
404.68	99.5
404.888	95.4
405.097	144.55
405.306	134.31
405.515	140.46
405.724	44.2
405.933	132.26
406.142	85.16
406.35	148.65
406.559	83.11
406.768	99.5
406.977	134.31
407.185	111.78
407.394	173.22
407.603	158.89
407.812	173.22
408.02	177.32
408.229	87.21
408.438	140.46
408.646	158.89
408.855	177.32
409.064	205.99
409.272	177.32
409.481	238.76
409.69	158.89
409.898	173.22
410.107	244.9
410.315	216.23
410.524	165.03
410.733	218.28
410.941	179.37
411.15	371.88
411.358	222.38
411.567	263.33
411.775	285.86
411.984	316.58
412.192	246.95
412.401	224.42
412.609	382.12
412.818	404.64
413.026	306.34
413.234	359.59
413.443	328.87
413.651	371.88
413.86	371.88
414.068	408.74
414.276	324.77
414.485	427.17
414.693	537.76
414.901	529.57
415.11	478.37
415.318	488.61
415.526	504.99
415.734	468.13
415.943	539.81
416.151	576.67
416.359	611.49
416.567	586.91
416.776	631.97
416.984	679.07
417.192	722.08
417.4	689.31
417.608	650.4
417.817	752.8
418.025	724.13
418.233	773.28
418.441	840.86
418.649	791.71
418.857	943.26
419.065	943.26
419.273	879.77
419.481	953.5
419.689	928.92
419.897	1107.1
420.105	1000.6
420.313	1074.33
420.521	1123.48
420.729	1133.72
420.937	1064.09
421.145	1238.17
421.353	1227.93
421.561	1217.69
421.769	1424.53
421.977	1354.9
422.185	1346.71
422.393	1508.5
422.601	1569.94
422.809	1498.26
423.017	1543.32
423.224	1737.87
423.432	1729.68
423.64	1647.76
423.848	1977.48
424.056	1770.64
424.263	1819.79
424.471	1877.13
424.679	2036.88
424.887	2075.79
425.094	2090.12
425.302	2114.7
425.51	2307.21
425.718	2278.54
425.925	2395.27
426.133	2317.45
426.341	2575.49
426.548	2772.1
426.756	2688.13
426.964	2712.71
427.171	2884.73
427.379	2888.83
427.586	3085.44
427.794	3030.14
428.001	3241.08
428.209	3286.14
428.417	3327.1
428.624	3728.5
428.832	3417.21
429.039	3499.13
429.247	3492.98
429.454	3869.81
429.662	4066.41
429.869	3918.96
430.076	3953.77
430.284	4064.36
430.491	4142.19
430.699	4441.19
430.906	4402.28
431.114	4547.69
431.321	4662.37
431.528	4676.71
431.736	4959.33
431.943	5180.51
432.15	5110.88
432.358	5082.21
432.565	5522.52
432.772	5477.46
432.979	5688.4
433.187	5786.71
433.394	5778.51
433.601	6243.4
433.808	6300.75
434.016	6194.25
434.223	6562.89
434.43	6784.07
434.637	6681.67
434.844	6997.06
435.052	7246.91
435.259	7212.09
435.466	7177.28
435.673	7234.62
435.88	7490.62
436.087	7973.94
436.294	7844.91
436.501	7816.24
436.708	8139.82
436.915	8356.91
437.122	8741.93
437.329	8485.93
437.537	8852.52
437.743	9192.48
437.95	8965.15
438.157	9481.24
438.364	9683.99
438.571	9683.99
438.778	10044.43
438.985	10460.17
439.192	10206.22
439.399	10429.45
439.606	10423.31
439.813	11039.75
440.02	11439.1
440.227	11326.46
440.433	11293.69
440.64	11521.02
440.847	11615.23
441.054	11856.89
441.261	12622.83
441.467	12477.42
441.674	12727.27
441.881	13200.35
442.088	13384.67
442.294	13130.72
442.501	13353.95
442.708	13755.35
442.914	14435.28
443.121	14715.85
443.328	14472.14
443.534	15479.74
443.741	15051.72
443.948	14578.64
444.154	15711.16
444.361	15756.22
444.568	16069.56
444.774	15930.3
444.981	16098.23
445.187	16505.77
445.394	17496.99
445.6	17046.44
445.807	18891.66
446.013	17644.45
446.22	18242.45
446.426	18625.42
446.633	18940.81
446.839	19618.69
447.046	19129.22
447.252	20054.9
447.459	20173.69
447.665	19884.92
447.871	20595.57
448.078	21642.08
448.284	20882.28
448.491	21341.03
448.697	22324.05
448.903	22549.33
449.11	22487.89
449.316	22137.69
449.522	22522.71
449.728	23413.57
449.935	23472.96
450.141	23225.16
450.347	23663.43
450.553	23401.29
450.76	23436.1
450.966	24511.28
451.172	23892.8
451.378	24724.27
451.584	24359.73
451.791	24744.75
451.997	24507.19
452.203	24996.65
452.409	25097
452.615	25105.2
452.821	24159.03
453.027	23819.07
453.233	25254.7
453.44	24189.75
453.646	24812.34
453.852	24572.72
454.058	25008.94
454.264	24118.07
454.47	24748.85
454.676	23929.66
454.882	25056.04
455.088	22790.99
455.294	23321.41
455.5	23638.85
455.705	23819.07
455.911	22954.83
456.117	22463.32
456.323	22149.98
456.529	21107.56
456.735	21904.22
456.941	21429.09
457.147	21046.12
457.352	20282.23
457.558	20226.93
457.764	20308.85
457.97	19999.61
458.176	19379.07
458.381	19254.15
458.587	18561.94
458.793	18555.79
458.999	17488.8
459.204	19032.97
459.41	17851.29
459.616	17064.87
459.821	17259.43
460.027	17187.75
460.233	16688.04
460.438	16149.43
460.644	16020.41
460.85	15369.15
461.055	14861.26
461.261	15002.57
461.466	14109.65
461.672	13560.8
461.878	14509.01
462.083	13530.08
462.289	13333.47
462.494	13042.66
462.7	12479.47
462.905	12168.18
463.111	12729.32
463.316	12784.62
463.522	12506.09
463.727	12436.46
463.932	12424.17
464.138	12268.53
464.343	12311.53
464.549	12012.53
464.754	12426.22
464.959	12147.7
465.165	12282.86
465.37	11772.92
465.575	11457.53
465.781	11707.38
465.986	11983.86
466.191	11480.06
466.397	11355.13
466.602	10691.59
466.807	11256.83
467.012	11029.51
467.218	10972.16
467.423	10830.85
467.628	11025.41
467.833	11338.75
468.038	11076.61
468.244	10710.02
468.449	11240.45
468.654	10707.98
468.859	10855.43
469.064	10554.38
469.269	10101.78
469.474	10331.15
469.679	10636.3
469.885	10171.41
470.09	10411.02
470.295	10419.21
470.5	10130.45
470.705	10193.94
470.91	9778.2
471.115	9853.97
471.32	9686.04
471.525	9815.06
471.73	9583.64
471.935	9538.59
472.139	9348.12
472.344	9389.08
472.549	9325.6
472.754	9327.64
472.959	9022.5
473.164	8791.08
473.369	8602.66
473.574	8938.53
473.778	8916
473.983	8768.55
474.188	9073.7
474.393	8377.39
474.598	8516.65
474.802	8453.16
475.007	8219.69
475.212	8547.37
475.417	8127.53
475.621	8174.64
475.826	8053.81
476.031	7994.42
476.235	7771.19
476.44	7826.48
476.645	7537.72
476.849	7750.71
477.054	7640.12
477.259	7384.12
477.463	7652.41
477.668	7537.72
477.872	7472.18
478.077	7265.34
478.282	7011.39
478.486	7267.39
478.691	7044.16
478.895	7064.64
479.1	6995.01
479.304	6980.67
479.509	6714.44
479.713	7033.92
479.918	6808.64
480.122	6669.38
480.326	6865.99
480.531	6712.39
480.735	6581.32
480.94	6648.9
481.144	6947.9
481.348	6571.08
481.553	6638.66
481.757	6564.93
481.961	6603.85
482.166	6609.99
482.37	6513.74
482.574	6534.21
482.778	6374.47
482.983	6749.25
483.187	6681.67
483.391	6685.76
483.595	6366.28
483.8	6386.76
484.004	6401.1
484.208	6526.02
484.412	6587.46
484.616	6595.65
484.821	6421.58
485.025	6620.23
485.229	6448.2
485.433	6593.61
485.637	6566.98
485.841	6415.43
486.045	6480.97
486.249	6530.12
486.453	6532.17
486.657	6444.1
486.861	6431.82
487.065	6315.08
487.269	6526.02
487.473	6483.02
487.677	6448.2
487.881	6671.43
488.085	6427.72
488.289	6657.09
488.493	6462.54
488.697	6595.65
488.901	6648.9
489.105	6464.58
489.309	6564.93
489.512	6753.35
489.716	6749.25
489.92	6693.96
490.124	6573.13
490.328	6802.5
490.531	6634.57
490.735	6564.93
490.939	6532.17
491.143	6747.2
491.346	6663.24
491.55	6894.66
491.754	6820.93
491.958	6997.06
492.161	6798.4
492.365	6974.53
492.569	6890.56
492.772	6964.29
492.976	6970.43
493.18	7060.54
493.383	7087.17
493.587	7119.93
493.79	7238.72
493.994	7138.37
494.197	7142.46
494.401	7468.09
494.605	7107.65
494.808	7531.58
495.012	7365.69
495.215	7488.57
495.419	7558.2
495.622	7601.21
495.825	7459.9
496.029	7767.09
496.232	7795.76
496.436	7918.64
496.639	8119.34
496.843	7928.88
497.046	8016.94
497.249	8217.65
497.453	8258.6
497.656	8244.27
497.859	8414.25
498.063	8471.59
498.266	8522.79
498.469	8545.32
498.673	8727.59
498.876	8893.47
499.079	8889.38
499.282	8918.05
499.485	9135.14
499.689	9163.81
499.892	9341.98
500.095	9311.26
500.298	9294.88
500.501	9524.25
500.705	9808.92
500.908	9974.8
501.111	9796.63
501.314	9856.02
501.517	10177.55
501.72	10343.44
501.923	10183.7
502.126	10390.54
502.329	10460.17
502.532	10605.58
502.735	10581
502.938	10916.87
503.141	10793.99
503.344	11121.66
503.547	11226.11
503.75	11324.41
503.953	11600.89
504.156	11693.05
504.359	11774.97
504.562	12020.72
504.765	11858.93
504.968	12266.48
505.17	12612.59
505.373	12258.29
505.576	12563.43
505.779	12604.39
505.982	12788.71
506.185	13091.81
506.387	13243.36
506.59	13386.72
506.793	13511.64
506.996	13603.8
507.198	13820.89
507.401	13913.05
507.604	14179.28
507.807	14177.23
508.009	14478.29
508.212	14437.33
508.415	14484.43
508.617	14900.17
508.82	14928.84
509.022	14977.99
509.225	15320
509.428	15418.3
509.63	15479.74
509.833	15612.86
510.035	16108.47
510.238	15887.29
510.44	16235.44
510.643	16479.15
510.845	16681.9
511.048	16704.43
511.25	16657.32
511.453	16976.81
511.655	17413.02
511.858	17120.17
512.06	17580.96
512.262	17834.91
512.465	17822.62
512.667	17937.3
512.87	18129.81
513.072	18465.68
513.274	18566.03
513.477	18858.89
513.679	18838.41
513.881	19131.27
514.084	19223.43
514.286	19153.8
514.488	19557.25
514.69	20224.89
514.893	20052.86
515.095	20214.65
515.297	20255.61
515.499	20892.52
515.701	20507.51
515.904	20908.91
516.106	21093.22
516.308	21160.81
516.51	21533.54
516.712	21527.39
516.914	21742.43
517.116	22256.47
517.318	22289.24
517.52	22659.92
517.722	22541.14
517.925	22958.92
518.127	22901.58
518.329	23378.76
518.531	23032.65
518.733	23561.03
518.935	24013.63
519.136	23864.13
519.338	24163.13
519.54	24036.16
519.742	24587.06
519.944	24613.68
520.146	24812.34
520.348	25299.75
520.55	25410.34
520.752	25654.05
520.954	25830.18
521.155	25871.14
521.357	26190.62
521.559	26204.95
521.761	26733.33
521.963	26604.31
522.164	26919.7
522.366	26841.87
522.568	27366.15
522.77	26950.42
522.971	27874.05
523.173	27446.02
523.375	28048.13
523.576	27822.85
523.778	27935.49
523.98	28568.31
524.181	28533.5
524.383	28510.97
524.584	28801.78
524.786	29020.91
524.988	28562.17
525.189	29057.78
525.391	29246.19
525.592	29582.06
525.794	29489.9
525.995	29696.74
526.197	29627.11
526.398	29971.17
526.6	29899.49
526.801	30436.06
527.003	30114.53
527.204	30192.35
527.406	30501.59
527.607	30651.09
527.808	30704.34
528.01	30061.28
528.211	30270.17
528.412	31222.48
528.614	31003.35
528.815	31130.32
529.016	31369.93
529.218	30894.8
529.419	31423.18
529.62	31236.81
529.822	31328.97
530.023	31320.78
530.224	31738.57
530.425	31822.53
530.626	31599.3
530.828	31501
531.029	31953.6
531.23	31593.16
531.431	31386.32
531.632	31933.12
531.833	31888.07
532.035	31863.49
532.236	31941.32
532.437	32064.19
532.638	31806.15
532.839	32338.62
533.04	32006.85
533.241	31783.62
533.442	32590.52
533.643	31943.36
533.844	31750.85
534.045	32459.45
534.246	31931.08
534.447	32287.42
534.648	31988.42
534.849	32260.8
535.05	31834.82
535.251	32168.64
535.451	32230.08
535.652	32344.77
535.853	32381.63
536.054	32572.09
536.255	32111.3
536.456	32045.76
536.657	32596.67
536.857	32312
537.058	31955.65
537.259	32365.24
537.46	32545.47
537.66	32350.91
537.861	32281.28
538.062	32225.98
538.263	32545.47
538.463	32072.39
538.664	31933.12
538.865	32248.51
539.065	32428.73
539.266	31890.12
539.466	32553.66
539.667	32002.75
539.868	32338.62
540.068	32156.35
540.269	32135.87
540.469	32563.9
540.67	32150.21
540.87	32271.04
541.071	32035.52
541.271	32522.94
541.472	32168.64
541.672	31990.47
541.873	31744.71
542.073	31877.83
542.274	32383.68
542.474	32099.01
542.675	32015.04
542.875	32391.87
543.075	32176.83
543.276	31847.11
543.476	32645.82
543.676	31974.08
543.877	32090.82
544.077	32078.53
544.277	32107.2
544.478	31587.02
544.678	32271.04
544.878	31935.17
545.078	31886.02
545.279	31818.44
545.479	32072.39
545.679	32109.25
545.879	32094.91
546.079	32142.02
546.28	31937.22
546.48	31726.28
546.68	32244.41
546.88	32047.81
547.08	31867.59
547.28	31773.38
547.48	31333.07
547.68	31861.44
547.88	31644.36
548.081	32103.1
548.281	31793.86
548.481	31668.94
548.681	32092.86
548.881	31933.12
549.081	32148.16
549.28	31421.13
549.48	31752.9
549.68	31531.72
549.88	32426.68
550.08	31484.62
550.28	31961.79
550.48	31642.31
550.68	31830.72
550.88	31476.43
551.08	31570.63
551.279	31783.62
551.479	31290.06
551.679	31691.46
551.879	31744.71
552.079	31922.88
552.278	31773.38
552.478	31785.67
552.678	31537.87
552.878	31625.93
553.077	31603.4
553.277	31251.15
553.477	32012.99
553.676	31226.57
553.876	31349.45
554.076	31652.55
554.275	31693.51
554.475	31298.25
554.674	31597.26
554.874	31648.46
555.074	31566.54
555.273	31118.03
555.473	31605.45
555.672	31390.41
555.872	31259.34
556.071	31113.94
556.271	31210.19
556.47	31111.89
556.67	31038.16
556.869	31015.63
557.068	31101.65
557.268	30876.37
557.467	30970.58
557.667	31212.24
557.866	30927.57
558.065	30991.06
558.265	30862.04
558.464	30745.3
558.663	31447.75
558.863	30403.29
559.062	31023.83
559.261	30540.5
559.461	30911.19
559.66	30391
559.859	30634.71
560.058	30634.71
560.258	30429.91
560.457	30268.12
560.656	30358.24
560.855	30515.93
561.054	30466.78
561.253	30098.14
561.453	30548.7
561.652	30348
561.851	30124.77
562.05	30067.42
562.249	29926.11
562.448	30335.71
562.647	30100.19
562.846	29864.67
563.045	30008.03
563.244	29450.99
563.443	29995.74
563.642	29383.4
563.841	29534.95
564.04	29385.45
564.239	29803.24
564.438	29330.16
564.637	29682.41
564.836	29604.58
565.035	29278.96
565.234	29436.65
565.432	29053.68
565.631	29029.1
565.83	29129.45
566.029	29231.85
566.228	28826.35
566.427	29131.5
566.625	29096.69
566.824	28668.66
567.023	28707.57
567.222	28654.33
567.42	29197.04
567.619	28431.1
567.818	28508.92
568.016	28734.2
568.215	28410.62
568.414	28420.86
568.612	28646.13
568.811	28068.61
569.01	28455.67
569.208	27822.85
569.407	28093.18
569.605	27949.82
569.804	28072.7
570.002	27843.33
570.201	27726.6
570.4	27386.63
570.598	27757.32
570.797	27458.31
570.995	28074.75
571.193	27241.23
571.392	27671.3
571.59	27403.02
571.789	27355.91
571.987	27284.23
572.186	27235.08
572.384	27075.34
572.582	27304.71
572.781	26958.61
572.979	26845.97
573.177	27222.8
573.376	26917.65
573.574	26675.99
573.772	26653.46
573.971	26624.79
574.169	26223.39
574.367	26129.18
574.565	26100.51
574.763	26204.95
574.962	26262.3
575.16	26293.02
575.358	26063.64
575.556	25881.38
575.754	26280.73
575.952	25948.96
576.151	25967.39
576.349	25559.84
576.547	25494.31
576.745	25961.25
576.943	25723.68
577.141	25273.13
577.339	25643.81
577.537	25398.06
577.735	25559.84
577.933	25146.15
578.131	25191.21
578.329	25215.79
578.527	25045.8
578.725	25305.9
578.923	25103.15
579.121	25015.08
579.319	24585.01
579.516	24994.61
579.714	24818.48
579.912	24648.5
580.11	24568.63
580.308	24611.64
580.506	24609.59
580.704	24216.38
580.901	24421.17
581.099	24472.37
581.297	24228.66
581.495	24052.54
581.692	24365.88
581.89	23915.33
582.088	24281.91
582.285	24011.58
582.483	24415.03
582.681	23939.9
582.878	23984.96
583.076	23370.57
583.274	23814.98
583.471	23284.55
583.669	23743.3
583.866	23112.52
584.064	23683.91
584.262	22971.21
584.459	23698.24
584.657	23104.33
584.854	23401.29
585.052	22846.29
585.249	22932.3
585.447	23202.63
585.644	22725.46
585.841	22657.87
586.039	23073.61
586.236	22741.84
586.434	22469.46
586.631	22268.76
586.828	22434.64
587.026	22608.72
587.223	22621.01
587.42	22221.66
587.618	22164.31
587.815	22344.53
588.012	22342.49
588.21	21971.8
588.407	22307.67
588.604	21740.38
588.801	21887.84
588.999	22039.39
589.196	21810.01
589.393	21949.28
589.59	21441.38
589.787	21556.07
589.984	21400.42
590.182	21429.09
590.379	21697.38
590.576	21482.34
590.773	21195.62
590.97	21136.23
591.167	21298.02
591.364	21080.94
591.561	20949.87
591.758	21035.88
591.955	21082.98
592.152	20816.75
592.349	20669.3
592.546	20992.87
592.743	21201.77
592.94	20691.82
593.137	20671.34
593.334	20616.05
593.531	20415.35
593.727	20423.54
593.924	20380.53
594.121	20286.33
594.318	20282.23
594.515	20032.38
594.712	20450.16
594.908	20056.95
595.105	20173.69
595.302	19714.94
595.499	19878.78
595.696	19991.42
595.892	19710.85
596.089	19653.5
596.286	19575.68
596.482	19807.1
596.679	19575.68
596.876	19352.45
597.072	19510.14
597.269	19321.73
597.466	19293.06
597.662	19426.18
597.859	19202.95
598.055	19159.94
598.252	18975.63
598.448	19166.09
598.645	18967.43
598.841	18789.26
599.038	18860.94
599.234	18965.39
599.431	18639.76
599.627	18396.05
599.824	18844.56
600.02	18656.14
600.217	18619.28
600.413	18525.07
600.609	18494.35
600.806	18267.03
601.002	18473.87
601.198	18344.85
601.395	18117.53
601.591	18103.19
601.787	18058.14
601.984	17984.41
602.18	18170.77
602.376	17849.24
602.572	17761.18
602.769	17902.49
602.965	17470.37
603.161	17748.89
603.357	17488.8
603.553	17499.04
603.75	17298.34
603.946	17550.24
604.142	17195.94
604.338	17232.8
604.534	17490.85
604.73	17197.99
604.926	17013.67
605.122	17226.66
605.318	17007.53
605.514	16876.46
605.71	16878.51
605.906	17071.01
606.102	16677.8
606.298	16864.17
606.494	16831.4
606.69	16669.61
606.886	16683.95
607.082	16536.49
607.278	16776.11
607.474	16450.48
607.67	16366.51
607.866	16546.73
608.062	16475.06
608.257	16403.38
608.453	16169.91
608.649	16507.82
608.845	16184.24
609.041	16188.34
609.236	16280.5
609.432	16198.58
609.628	16174
609.824	16092.09
610.019	15868.86
610.215	15997.88
610.411	16108.47
610.606	15881.14
610.802	15901.62
610.998	15969.21
611.193	15698.88
611.389	15823.8
611.584	15858.62
611.78	15514.56
611.976	15713.21
612.171	15735.74
612.367	15672.25
612.562	15502.27
612.758	15311.81
612.953	15596.48
613.149	15524.8
613.344	15266.75
613.539	15420.35
613.735	15434.69
613.93	15233.99
614.126	15553.47
614.321	15449.02
614.517	15399.87
614.712	15287.23
614.907	15227.84
615.103	15176.64
615.298	15330.24
615.493	15168.45
615.688	14908.36
615.884	15285.19
616.079	14961.61
616.274	15336.38
616.47	15047.62
616.665	15231.94
616.86	14705.61
617.055	14711.75
617.25	14758.86
617.445	15021
617.641	14541.77
617.836	14787.53
618.031	14504.91
618.226	14693.32
618.421	14674.89
618.616	14740.43
618.811	14468.05
619.006	14568.4
619.201	14263.25
619.396	14150.61
619.591	14087.12
619.786	14384.08
619.981	13947.86
620.176	14148.56
620.371	13827.03
620.566	14021.59
620.761	13890.52
620.956	14003.16
621.151	13845.46
621.346	13884.37
621.541	13648.86
621.735	13784.02
621.93	13331.42
622.125	13339.62
622.32	13216.74
622.515	13482.97
622.709	13120.48
622.904	13364.19
623.099	13175.78
623.294	13245.41
623.488	12880.87
623.683	13132.77
623.878	12741.61
624.072	12837.86
624.267	12737.51
624.462	12813.29
624.656	12493.8
624.851	12819.43
625.046	12528.62
625.24	12334.06
625.435	12221.42
625.629	12444.65
625.824	12213.23
626.018	12168.18
626.213	12004.34
626.407	12053.49
626.602	11781.11
626.796	11797.49
626.991	11922.42
627.185	11809.78
627.38	11666.42
627.574	11774.97
627.768	11289.6
627.963	11404.28
628.157	11355.13
628.352	11480.06
628.546	11226.11
628.74	11392
628.935	11076.61
629.129	11115.52
629.323	11088.9
629.517	10961.92
629.712	10914.82
629.906	10880
630.1	10699.78
630.294	10957.83
630.489	10685.45
630.683	10773.51
630.877	10572.81
631.071	10574.86
631.265	10537.99
631.459	10372.11
631.653	10331.15
631.848	10374.16
632.042	10224.65
632.236	10365.96
632.43	10101.78
632.624	10243.09
632.818	10146.83
633.012	9931.8
633.206	9976.85
633.4	10118.16
633.594	9845.78
633.788	9944.08
633.982	9886.74
634.176	9774.1
634.369	9565.21
634.563	9530.39
634.757	9634.84
634.951	9638.94
635.145	9522.2
635.339	9468.95
635.533	9368.6
635.726	9260.06
635.92	9407.52
636.114	9073.7
636.308	9196.57
636.501	9323.55
636.695	9161.76
636.889	9073.7
637.083	8881.19
637.276	8897.57
637.47	8639.53
637.664	9145.38
637.857	8703.01
638.051	8705.06
638.244	8727.59
638.438	8739.88
638.632	8530.98
638.825	8487.98
639.019	8705.06
639.212	8571.94
639.406	8356.91
639.599	8191.02
639.793	8303.66
639.986	8397.87
640.18	8246.32
640.373	8131.63
640.567	8209.45
640.76	8139.82
640.954	7908.4
641.147	7998.51
641.34	7871.54
641.534	8145.97
641.727	7949.36
641.92	7926.83
642.114	7867.44
642.307	7818.29
642.5	7689.27
642.694	7617.59
642.887	7685.17
643.08	7767.09
643.273	7435.32
643.467	7468.09
643.66	7394.36
643.853	7332.92
644.046	7277.63
644.239	7431.23
644.432	7418.94
644.626	7210.04
644.819	7337.02
645.012	7226.43
645.205	7115.84
645.398	7269.44
645.591	7013.44
645.784	7214.14
645.977	6730.82
646.17	6962.24
646.363	6872.13
646.556	6675.52
646.749	7005.25
646.942	6786.12
647.135	6894.66
647.328	6808.64
647.521	6704.2
647.714	6448.2
647.907	6634.57
648.099	6640.71
648.292	6583.37
648.485	6478.92
648.678	6523.98
648.871	6544.45
649.064	6270.03
649.256	6466.63
649.449	6272.07
649.642	6388.81
649.835	6212.68
650.027	6169.68
650.22	6149.2
650.413	6132.81
650.605	6098
650.798	6005.84
650.991	6032.46
651.183	5985.36
651.376	6067.28
651.568	5866.58
651.761	5743.7
651.954	5850.19
652.146	5710.93
652.339	5813.33
652.531	5739.6
652.724	5743.7
652.916	5669.97
653.109	5731.41
653.301	5796.95
653.494	5631.06
653.686	5504.09
653.879	5559.38
654.071	5497.94
654.263	5463.13
654.456	5629.01
654.648	5383.26
654.84	5254.23
655.033	5317.72
655.225	5211.23
655.417	5239.9
655.61	5418.07
655.802	5438.55
655.994	5196.89
656.186	5424.22
656.379	5192.8
656.571	5237.85
656.763	5117.02
656.955	5012.57
657.148	5074.01
657.34	5102.68
657.532	4961.37
657.724	5037.15
657.916	4936.8
658.108	5129.31
658.3	4850.78
658.492	4924.51
658.684	4754.53
658.876	4908.13
659.068	4781.15
659.26	4789.35
659.452	4723.81
659.644	4723.81
659.836	4791.39
660.028	4754.53
660.22	4637.8
660.412	4658.28
660.604	4525.16
660.796	4590.69
660.988	4457.57
661.18	4611.17
661.372	4478.05
661.563	4375.66
661.755	4473.96
661.947	4383.85
662.139	4469.86
662.331	4342.89
662.522	4418.66
662.714	4238.44
662.906	4342.89
663.097	4301.93
663.289	4256.87
663.481	4201.58
663.673	4238.44
663.864	4109.42
664.056	4078.7
664.247	4207.72
664.439	4123.76
664.631	4164.72
664.822	3953.77
665.014	4023.41
665.205	4027.5
665.397	3990.64
665.588	3927.15
665.78	3927.15
665.971	4013.17
666.163	3955.82
666.354	3880.05
666.546	3820.66
666.737	3714.16
666.929	3804.27
667.12	3859.57
667.311	3880.05
667.503	3736.69
667.694	3708.02
667.885	3761.27
668.077	3673.2
668.268	3564.66
668.459	3605.62
668.651	3615.86
668.842	3507.32
669.033	3574.9
669.224	3480.69
669.416	3755.12
669.607	3579
669.798	3540.08
669.989	3531.89
670.18	3615.86
670.371	3517.56
670.563	3368.06
670.754	3499.13
670.945	3478.65
671.136	3417.21
671.327	3361.91
671.518	3400.82
671.709	3368.06
671.9	3419.25
672.091	3382.39
672.282	3255.42
672.473	3347.58
672.664	3335.29
672.855	3198.07
673.046	3245.18
673.237	3286.14
673.428	3298.42
673.619	3392.63
673.809	3306.62
674	3245.18
674.191	3212.41
674.382	3105.92
674.573	3114.11
674.764	3157.11
674.954	3114.11
675.145	3130.49
675.336	3097.72
675.527	3075.2
675.717	3030.14
675.908	3077.24
676.099	3253.37
676.289	3101.82
676.48	3017.85
676.671	3024
676.861	3024
677.052	3024
677.243	2946.17
677.433	2950.27
677.624	3122.3
677.814	3011.71
678.005	2935.93
678.195	2966.65
678.386	2831.49
678.576	2917.5
678.767	2931.84
678.957	2919.55
679.148	2923.65
679.338	2821.25
679.529	2880.64
679.719	2985.09
679.909	2931.84
680.1	2923.65
680.29	2892.93
680.481	2831.49
680.671	2778.24
680.861	2825.34
681.052	2847.87
681.242	2815.1
681.432	2774.14
681.622	2745.47
681.813	2806.91
682.003	2878.59
682.193	2692.23
682.383	2829.44
682.573	2722.95
682.764	2804.86
682.954	2829.44
683.144	2794.62
683.334	2755.71
683.524	2698.37
683.714	2649.22
683.904	2854.02
684.094	2729.09
684.284	2593.92
684.474	2702.47
684.664	2714.75
684.854	2772.1
685.044	2692.23
685.234	2716.8
685.424	2591.88
685.614	2630.79
685.804	2651.27
685.994	2561.16
686.184	2696.32
686.374	2583.68
686.564	2565.25
686.753	2559.11
686.943	2483.33
687.133	2602.11
687.323	2505.86
687.513	2606.21
687.702	2583.68
687.892	2507.91
688.082	2434.18
688.272	2653.31
688.461	2567.3
688.651	2520.2
688.841	2450.57
689.03	2452.61
689.22	2536.58
689.41	2405.51
689.599	2432.13
689.789	2491.52
689.979	2530.44
690.168	2446.47
690.358	2389.13
690.547	2454.66
690.737	2518.15
690.926	2413.7
691.116	2362.5
691.305	2475.14
691.495	2475.14
691.684	2325.64
691.874	2397.32
692.063	2311.3
692.252	2376.84
692.442	2460.81
692.631	2348.17
692.82	2272.39
693.01	2237.58
693.199	2292.87
693.388	2204.81
693.578	2303.11
693.767	2231.43
693.956	2256.01
694.146	2315.4
694.335	2370.69
694.524	2229.38
694.713	2169.99
694.902	2196.62
695.092	2266.25
695.281	2155.66
695.47	2129.03
695.659	2131.08
695.848	2278.54
696.037	2305.16
696.226	2122.89
696.415	2165.9
696.604	2221.19
696.793	2172.04
696.982	2163.85
697.171	2172.04
697.36	2063.5
697.549	2057.36
697.738	2063.5
697.927	2047.12
698.116	2067.6
698.305	2108.55
698.494	2116.75
698.683	2065.55
698.872	2124.94
699.061	2100.36
699.25	2090.12
699.438	2149.51
699.627	2073.74
699.816	2122.89
700.005	2081.93
700.193	2108.55
700.382	2024.59
700.571	2176.14
700.76	2110.6
700.948	2090.12
701.137	2098.31
701.326	2028.68
701.514	2010.25
701.703	2036.88
701.892	2004.11
702.08	2061.45
702.269	2016.4
702.457	2016.4
702.646	2057.36
702.834	1920.14
703.023	1934.48
703.212	2094.22
703.4	1881.23
703.589	1954.96
703.777	1944.72
703.965	1936.53
704.154	1928.33
704.342	2024.59
704.531	1979.53
704.719	2000.01
704.907	2049.16
705.096	1967.24
705.284	1926.29
705.472	1983.63
705.661	1918.09
705.849	1934.48
706.037	2004.11
706.226	2000.01
706.414	2040.97
706.602	1854.61
706.79	1944.72
706.979	1934.48
707.167	1918.09
707.355	1832.08
707.543	1893.52
707.731	2010.25
707.919	2016.4
708.107	1916.05
708.296	1924.24
708.484	1840.27
708.672	2016.4
708.86	1860.75
709.048	1942.67
709.236	1868.94
709.424	1920.14
709.612	2081.93
709.8	1911.95
709.988	1891.47
710.176	1946.76
710.364	1905.81
710.551	1940.62
710.739	1748.11
710.927	1805.46
711.115	1883.28
711.303	1922.19
711.491	1885.33
711.679	1975.44
711.866	1909.9
712.054	1952.91
712.242	1879.18
712.43	1979.53
712.617	1879.18
712.805	1868.94
712.993	1918.09
713.181	1766.54
713.368	1977.48
713.556	1983.63
713.744	1903.76
713.931	1965.2
714.119	1983.63
714.306	1975.44
714.494	1856.65
714.682	1815.69
714.869	1840.27
715.057	1950.86
715.244	1840.27
715.432	1975.44
715.619	1838.22
715.807	1868.94
715.994	1879.18
716.182	1862.8
716.369	1879.18
716.556	1952.91
716.744	1856.65
716.931	1911.95
717.119	1850.51
717.306	1877.13
717.493	1805.46
717.681	1848.46
717.868	1791.12
718.055	1823.89
718.242	1754.26
718.43	1873.04
718.617	1782.93
718.804	1813.65
718.991	1860.75
719.179	1952.91
719.366	1936.53
719.553	1893.52
719.74	1827.98
719.927	1864.85
720.114	1938.57
720.301	1852.56
720.488	1911.95
720.676	1860.75
720.863	1891.47
721.05	1920.14
721.237	1903.76
721.424	2000.01
721.611	1870.99
721.798	1844.37
721.985	1827.98
722.172	1844.37
722.358	1936.53
722.545	1782.93
722.732	1901.71
722.919	1860.75
723.106	1907.85
723.293	1897.61
723.48	1846.41
723.667	1746.06
723.853	1850.51
724.04	1891.47
724.227	1862.8
724.414	1840.27
724.6	1819.79
724.787	1694.86
724.974	1887.37
725.161	1846.41
725.347	1776.78
725.534	1887.37
725.72	1842.32
725.907	1877.13
726.094	1934.48
726.28	1756.3
726.467	1850.51
726.653	1920.14
726.84	1952.91
727.027	1885.33
727.213	1838.22
727.4	1879.18
727.586	1766.54
727.773	1764.5
727.959	1823.89
728.145	1748.11
728.332	1801.36
728.518	1868.94
728.705	1926.29
728.891	1823.89
729.077	1852.56
729.264	1805.46
729.45	1870.99
729.636	1836.17
729.823	1836.17
730.009	1834.13
730.195	1787.02
730.382	1848.46
730.568	1737.87
730.754	1875.09
730.94	1731.73
731.126	1862.8
731.313	1803.41
731.499	1834.13
731.685	1834.13
731.871	1901.71
732.057	1754.26
732.243	1733.78
732.429	1768.59
732.615	1770.64
732.801	1784.98
732.987	1778.83
733.173	1827.98
733.359	1832.08
733.545	1770.64
733.731	1762.45
733.917	1836.17
734.103	1905.81
734.289	1922.19
734.475	1795.22
734.661	1848.46
734.847	1852.56
735.033	1799.31
735.219	1856.65
735.404	1711.25
735.59	1764.5
735.776	1721.49
735.962	1866.89
736.148	1926.29
736.333	1762.45
736.519	1789.07
736.705	1770.64
736.89	1586.32
737.076	1887.37
737.262	1942.67
737.447	1754.26
737.633	1856.65
737.819	1803.41
738.004	1846.41
738.19	1741.97
738.375	1805.46
738.561	1848.46
738.747	1721.49
738.932	1758.35
739.118	1819.79
739.303	1784.98
739.489	1703.06
739.674	1758.35
739.859	1670.29
740.045	1741.97
740.23	1717.39
740.416	1715.34
740.601	1723.54
740.786	1739.92
740.972	1721.49
741.157	1762.45
741.342	1701.01
741.528	1631.38
741.713	1606.8
741.898	1592.47
742.084	1668.24
742.269	1766.54
742.454	1639.57
742.639	1660.05
742.824	1608.85
743.01	1731.73
743.195	1641.62
743.38	1686.67
743.565	1549.46
743.75	1574.03
743.935	1643.67
744.12	1758.35
744.305	1576.08
744.49	1614.99
744.675	1541.27
744.86	1526.93
745.045	1602.71
745.23	1528.98
745.415	1561.75
745.6	1490.07
745.785	1608.85
745.97	1524.88
746.155	1617.04
746.34	1463.44
746.525	1621.14
746.71	1510.55
746.895	1483.92
747.079	1457.3
747.264	1578.13
747.449	1404.05
747.634	1453.2
747.819	1520.79
748.003	1471.64
748.188	1402.01
748.373	1445.01
748.557	1449.11
748.742	1502.36
748.927	1463.44
749.111	1438.87
749.296	1270.94
749.481	1473.68
749.665	1420.44
749.85	1426.58
750.034	1291.41
750.219	1338.52
750.404	1336.47
750.588	1348.76
750.773	1297.56
750.957	1422.48
751.141	1338.52
751.326	1377.43
751.51	1275.03
751.695	1307.8
751.879	1201.3
752.064	1369.24
752.248	1281.18
752.432	1303.7
752.617	1311.89
752.801	1328.28
752.985	1258.65
753.17	1365.14
753.354	1236.12
753.538	1213.59
753.722	1166.49
753.907	1148.06
754.091	1127.58
754.275	1248.41
754.459	1139.87
754.643	1117.34
754.828	1246.36
755.012	1139.87
755.196	1109.15
755.38	1221.78
755.564	1053.85
755.748	996.51
755.932	1170.58
756.116	1107.1
756.3	1090.71
756.484	986.27
756.668	1037.47
756.852	1016.99
757.036	1115.29
757.22	1057.95
757.404	1066.14
757.588	1057.95
757.772	1068.19
757.956	1025.18
758.14	1094.81
758.323	1004.7
758.507	949.4
758.691	976.03
758.875	984.22
759.059	1076.38
759.242	986.27
759.426	961.69
759.61	976.03
759.794	982.17
759.977	906.4
760.161	1021.08
760.345	998.56
760.528	943.26
760.712	914.59
760.895	953.5
761.079	945.31
761.263	967.84
761.446	916.64
761.63	916.64
761.813	971.93
761.997	871.58
762.18	861.34
762.364	935.07
762.547	904.35
762.731	849.05
762.914	871.58
763.098	838.81
763.281	894.11
763.464	910.49
763.648	937.12
763.831	879.77
764.015	773.28
764.198	887.97
764.381	887.97
764.564	820.38
764.748	779.42
764.931	904.35
765.114	857.25
765.297	814.24
765.481	769.18
765.664	804
765.847	787.61
766.03	789.66
766.213	738.46
766.397	781.47
766.58	771.23
766.763	898.2
766.946	828.57
767.129	724.13
767.312	783.52
767.495	787.61
767.678	771.23
767.861	795.81
768.044	724.13
768.227	767.13
768.41	717.98
768.593	783.52
768.776	734.37
768.959	765.09
769.142	793.76
769.324	769.18
769.507	746.66
769.69	756.9
769.873	664.74
770.056	779.42
770.239	808.09
770.421	804
770.604	730.27
770.787	787.61
770.97	748.7
771.152	654.5
771.335	683.17
771.518	654.5
771.7	746.66
771.883	744.61
772.066	707.74
772.248	672.93
772.431	650.4
772.613	666.78
772.796	656.54
772.978	660.64
773.161	693.41
773.343	656.54
773.526	605.35
773.708	640.16
773.891	656.54
774.073	593.06
774.256	595.11
774.438	603.3
774.621	599.2
774.803	730.27
774.985	691.36
775.168	599.2
775.35	664.74
775.532	697.5
775.715	613.54
775.897	595.11
776.079	607.39
776.261	625.83
776.444	552.1
776.626	636.06
776.808	619.68
776.99	556.19
777.173	582.82
777.355	640.16
777.537	513.19
777.719	543.91
777.901	570.53
778.083	597.15
778.265	480.42
778.447	640.16
778.629	509.09
778.811	574.63
778.993	451.75
779.175	535.71
779.357	541.86
779.539	537.76
779.721	484.52
779.903	496.8
780.085	410.79
780.267	504.99
780.449	500.9
780.631	591.01
780.812	500.9
780.994	509.09
781.176	439.46
781.358	527.52
781.54	464.04
781.721	509.09
781.903	509.09
782.085	445.6
782.267	468.13
782.448	402.6
782.63	435.36
782.812	550.05
782.993	464.04
783.175	459.94
783.357	406.69
783.538	390.31
783.72	410.79
783.901	423.08
784.083	464.04
784.264	437.41
784.446	449.7
784.627	355.49
784.809	394.4
784.99	461.99
785.172	390.31
785.353	423.08
785.535	478.37
785.716	427.17
785.897	328.87
786.079	406.69
786.26	345.25
786.441	416.93
786.623	363.69
786.804	308.39
786.985	349.35
787.167	314.53
787.348	386.21
787.529	279.72
787.71	382.12
787.891	320.68
788.073	353.45
788.254	380.07
788.435	396.45
788.616	345.25
788.797	265.38
788.978	343.21
789.159	375.97
789.34	337.06
789.522	357.54
789.703	353.45
789.884	267.43
790.065	294.05
790.246	361.64
790.427	347.3
790.607	326.82
790.788	349.35
790.969	322.73
791.15	337.06
791.331	281.77
791.512	314.53
791.693	261.29
791.874	296.1
792.054	263.33
792.235	324.77
792.416	265.38
792.597	332.97
792.778	312.49
792.958	300.2
793.139	320.68
793.32	330.92
793.5	246.95
793.681	273.57
793.862	273.57
794.042	271.53
794.223	240.81
794.404	312.49
794.584	242.85
794.765	255.14
794.945	253.09
795.126	271.53
795.306	273.57
795.487	249
795.667	287.91
795.848	240.81
796.028	285.86
796.209	259.24
796.389	271.53
796.57	306.34
796.75	246.95
796.93	255.14
797.111	160.94
797.291	187.56
797.471	171.18
797.652	234.66
797.832	275.62
798.012	251.05
798.192	214.18
798.373	197.8
798.553	306.34
798.733	249
798.913	238.76
799.093	181.42
799.274	193.7
799.454	257.19
799.634	226.47
799.814	279.72
799.994	226.47
800.174	173.22
800.354	126.12
800.534	212.14
800.714	273.57
800.894	117.93
801.074	177.32
801.254	181.42
801.434	189.61
801.614	271.53
801.794	187.56
801.974	771.23
802.154	126.12
802.334	226.47
802.514	150.7
802.693	185.51
802.873	126.12
803.053	232.62
803.233	205.99
803.413	193.7
803.592	191.66
803.772	152.74
803.952	199.85
804.131	173.22
804.311	138.41
804.491	205.99
804.67	138.41
804.85	162.98
805.03	222.38
805.209	222.38
805.389	150.7
805.568	185.51
805.748	132.26
805.928	214.18
806.107	70.83
806.287	134.31
806.466	99.5
806.646	173.22
806.825	177.32
807.004	81.07
807.184	226.47
807.363	205.99
807.543	183.46
807.722	122.02
807.901	185.51
808.081	167.08
808.26	181.42
808.439	189.61
808.619	222.38
808.798	136.36
808.977	60.59
809.156	130.22
809.336	208.04
809.515	197.8
809.694	119.98
809.873	165.03
810.052	134.31
810.231	134.31
810.411	130.22
810.59	156.84
810.769	74.92
810.948	152.74
811.127	99.5
811.306	140.46
811.485	44.2
811.664	107.69
811.843	148.65
812.022	189.61
812.201	74.92
812.38	152.74
812.559	81.07
812.737	230.57
812.916	83.11
813.095	119.98
813.274	111.78
813.453	99.5
813.632	158.89
813.811	79.02
813.989	60.59
814.168	109.74
814.347	117.93
814.526	107.69
814.704	87.21
814.883	132.26
815.062	42.15
815.24	203.94
815.419	66.73
815.598	93.35
815.776	58.54
815.955	132.26
816.133	46.25
816.312	119.98
816.49	91.31
816.669	91.31
816.847	60.59
817.026	115.88
817.204	83.11
817.383	83.11
817.561	9.39
817.74	93.35
817.918	214.18
818.097	105.64
818.275	136.36
818.453	148.65
818.632	140.46
818.81	107.69
818.988	46.25
819.167	76.97
819.345	33.96
819.523	83.11
819.701	76.97
819.879	25.77
820.058	42.15
820.236	83.11
820.414	124.07
820.592	144.55
820.77	95.4
820.948	85.16
821.127	9.39
821.305	83.11
821.483	50.35
821.661	105.64
821.839	76.97
822.017	44.2
822.195	36.01
822.373	87.21
822.551	97.45
822.729	132.26
822.907	33.96
823.085	156.84
823.262	76.97
823.44	60.59
823.618	111.78
823.796	70.83
823.974	21.67
824.152	-2.9
824.329	-7
824.507	138.41
824.685	91.31
824.863	19.63
825.04	117.93
825.218	79.02
825.396	83.11
825.574	115.88
825.751	48.3
825.929	50.35
826.107	33.96
826.284	103.59
826.462	50.35
826.639	76.97
826.817	-7
826.994	27.82
827.172	29.87
827.349	103.59
827.527	79.02
827.704	72.87
827.882	140.46
828.059	66.73
828.237	33.96
828.414	107.69
828.591	21.67
828.769	119.98
828.946	52.39
829.124	109.74
829.301	119.98
829.478	56.49
829.655	46.25
829.833	19.63
830.01	25.77
830.187	72.87
830.364	50.35
830.542	177.32
830.719	111.78
830.896	54.44
831.073	-7
831.25	181.42
831.427	3.24
831.604	87.21
831.782	62.63
831.959	101.55
832.136	5.29
832.313	-15.19
832.49	72.87
832.667	126.12
832.844	85.16
833.021	101.55
833.198	27.82
833.374	85.16
833.551	122.02
833.728	101.55
833.905	81.07
834.082	-54.1
834.259	33.96
834.436	46.25
834.612	107.69
834.789	138.41
834.966	76.97
835.143	68.78
835.319	19.63
835.496	19.63
835.673	-19.29
835.85	91.31
836.026	54.44
836.203	58.54
836.38	11.43
836.556	-2.9
836.733	17.58
836.909	74.92
837.086	31.91
837.262	15.53
837.439	-70.48
837.616	42.15
837.792	13.48
837.968	38.06
838.145	68.78
838.321	1.19
838.498	111.78
838.674	27.82
838.851	-2.9
839.027	9.39
839.203	74.92
839.38	29.87
839.556	36.01
839.732	111.78
839.909	-23.38
840.085	5.29
840.261	36.01
840.437	132.26
840.614	33.96
840.79	72.87
840.966	25.77
841.142	93.35
841.318	-13.14
841.494	44.2
841.671	9.39
841.847	52.39
842.023	-54.1
842.199	38.06
842.375	66.73
842.551	27.82
842.727	23.72
842.903	85.16
843.079	-29.52
843.255	70.83
843.431	-4.95
843.607	-15.19
843.783	-17.24
843.959	87.21
844.134	58.54
844.31	21.67
844.486	50.35
844.662	1.19
844.838	25.77
845.013	-11.09
845.189	36.01
845.365	1.19
845.541	-43.86
845.716	46.25
845.892	66.73
846.068	-29.52
846.244	1.19
846.419	105.64
846.595	62.63
846.77	-54.1
846.946	25.77
847.122	17.58
847.297	68.78
847.473	74.92
847.648	-11.09
847.824	19.63
847.999	-15.19
848.175	58.54
848.35	31.91
848.526	58.54
848.701	1.19
848.876	50.35
849.052	74.92
849.227	-15.19
849.403	-23.38
849.578	58.54
849.753	31.91
849.929	-7
850.104	3.24
850.279	17.58
850.454	25.77
850.63	11.43
850.805	-21.33
850.98	68.78
851.155	-19.29
851.33	25.77
851.505	-7
851.681	117.93
851.856	-31.57
852.031	-2.9
852.206	-7
852.381	36.01
852.556	17.58
852.731	42.15
852.906	19.63
853.081	33.96
853.256	-45.91
853.431	17.58
853.606	33.96
853.781	1.19
853.956	29.87
854.131	11.43
854.305	-29.52
854.48	-43.86
854.655	-19.29
854.83	66.73
855.005	-13.14
855.18	-4.95
855.354	-37.72
855.529	58.54
855.704	36.01
855.879	1.19
856.053	19.63
856.228	-21.33
856.403	17.58
856.577	27.82
856.752	-37.72
856.926	17.58
857.101	-19.29
857.276	-64.34
857.45	19.63
857.625	50.35
857.799	-4.95
857.974	-13.14
858.148	-13.14
858.323	36.01
858.497	19.63
858.672	-52.05
858.846	-60.24
859.02	54.44
859.195	7.34
859.369	50.35
859.543	7.34
859.718	-60.24
859.892	-11.09
860.066	-17.24
860.241	36.01
860.415	42.15
860.589	9.39
860.763	21.67
860.938	-62.29
861.112	58.54
861.286	-52.05
861.46	-31.57
861.634	3.24
861.808	17.58
861.982	-21.33
862.157	-19.29
862.331	-17.24
862.505	9.39
862.679	13.48
862.853	-23.38
863.027	50.35
863.201	72.87
863.375	-70.48
863.549	11.43
863.722	19.63
863.896	44.2
864.07	-19.29
864.244	-7
864.418	13.48
864.592	50.35
864.766	44.2
864.939	60.59
865.113	13.48
865.287	54.44
865.461	-60.24
865.634	9.39
865.808	-0.85
865.982	62.63
866.156	25.77
866.329	-31.57
866.503	-2.9
866.676	17.58
866.85	-39.76
867.024	19.63
867.197	13.48
867.371	-13.14
867.544	-9.05
867.718	-15.19
867.891	29.87
868.065	1.19
868.238	46.25
868.412	-9.05
868.585	-2.9
868.759	-31.57
868.932	-2.9
869.105	25.77
869.279	-60.24
869.452	36.01
869.625	11.43
869.799	17.58
869.972	-39.76
870.145	-0.85
870.319	19.63
870.492	1.19
870.665	-64.34
870.838	-37.72
871.011	-60.24
871.185	-70.48
871.358	3.24
871.531	19.63
871.704	-37.72
871.877	3.24
872.05	-52.05
872.223	17.58
872.396	-29.52
872.569	9.39
872.742	-62.29
872.915	33.96
873.088	-60.24
873.261	25.77
873.434	91.31
873.607	-43.86
873.78	-50
873.953	-13.14
874.126	-56.15
874.299	25.77
874.471	15.53
874.644	46.25
874.817	101.55
874.99	60.59
875.163	36.01
875.335	5.29
875.508	36.01
875.681	9.39
875.853	-54.1
876.026	15.53
876.199	74.92
876.371	44.2
876.544	13.48
876.717	-45.91
876.889	-15.19
877.062	19.63
877.234	-56.15
877.407	-45.91
877.579	25.77
877.752	44.2
877.924	11.43
878.097	-2.9
878.269	79.02
878.442	1.19
878.614	19.63
878.786	42.15
878.959	50.35
879.131	-15.19
879.303	-43.86
879.476	-72.53
879.648	56.49
879.82	21.67
879.993	-31.57
880.165	3.24
880.337	1.19
880.509	25.77
880.681	3.24
880.854	1.19
881.026	5.29
881.198	83.11
881.37	19.63
881.542	42.15
881.714	-78.68
881.886	-19.29
882.058	-27.48
882.23	62.63
882.402	-39.76
882.574	99.5
882.746	-17.24
882.918	-13.14
883.09	42.15
883.262	13.48
883.434	1.19
883.606	-13.14
883.778	-19.29
883.95	54.44
884.122	23.72
884.293	52.39
884.465	-29.52
884.637	5.29
884.809	-31.57
884.98	-31.57
885.152	15.53
885.324	42.15
885.496	52.39
885.667	33.96
885.839	-0.85
886.011	101.55
886.182	40.11
886.354	27.82
886.525	33.96
886.697	25.77
886.869	-11.09
887.04	25.77
887.212	-33.62
887.383	60.59
887.555	-35.67
887.726	21.67
887.897	-37.72
888.069	3.24
888.24	58.54
888.412	-4.95
888.583	70.83
888.754	-9.05
888.926	-25.43
889.097	-21.33
889.268	9.39
889.44	5.29
889.611	13.48
889.782	50.35
889.953	-19.29
890.125	-56.15
890.296	-31.57
890.467	-64.34
890.638	-76.63
890.809	1.19
890.98	-47.96
891.151	42.15
891.323	-11.09
891.494	3.24
891.665	-68.44
891.836	-4.95
892.007	-17.24
892.178	-43.86
892.349	-64.34
892.52	42.15
892.691	19.63
892.862	-43.86
893.032	-7
893.203	-68.44
893.374	33.96
893.545	17.58
893.716	-21.33
893.887	46.25
894.057	25.77
894.228	38.06
894.399	36.01
894.57	-15.19
894.74	-4.95
894.911	-11.09
895.082	-70.48
895.253	-45.91
895.423	54.44
895.594	-13.14
895.764	3.24
895.935	-13.14
896.106	-23.38
896.276	-78.68
896.447	-125.78
896.617	1.19
896.788	-60.24
896.958	-35.67
897.129	-23.38
897.299	-47.96
897.47	50.35
897.64	1.19
897.81	79.02
897.981	-39.76
898.151	-39.76
898.322	-31.57
898.492	-23.38
898.662	-37.72
898.832	-19.29
899.003	-37.72
899.173	-23.38
899.343	-43.86
899.513	-56.15
