Data from USB4F104151__100__14-43-40-573.txt Node

Date: Thu Mar 13 14:43:40 EDT 2025
User: louis
Spectrometer: USB4F10415
Trigger mode: 4
Integration Time (sec): 2.000000E-2
Scans to average: 1
Electric dark correction enabled: true
Nonlinearity correction enabled: false
Boxcar width: 0
XAxis mode: Wavelengths
Number of Pixels in Spectrum: 3648
>>>>>Begin Spectral Data<<<<<
178.204	-77.14
178.424	-77.14
178.644	-77.14
178.864	-159.06
179.084	-103.76
179.304	-38.23
179.524	-21.85
179.744	-13.65
179.964	92.84
180.184	-42.32
180.404	35.5
180.624	10.92
180.844	37.55
181.064	37.55
181.283	-36.18
181.503	-46.42
181.723	-15.7
181.943	-66.9
182.163	35.5
182.383	62.12
182.602	15.02
182.822	51.88
183.042	98.99
183.262	-13.65
183.482	-38.23
183.701	60.07
183.921	25.26
184.141	-13.65
184.361	2.73
184.58	-25.94
184.8	-5.46
185.02	-42.32
185.239	27.31
185.459	41.64
185.679	29.35
185.898	-21.85
186.118	2.73
186.338	76.46
186.557	43.69
186.777	-1.37
186.997	15.02
187.216	-44.37
187.436	31.4
187.655	-17.75
187.875	29.35
188.095	-13.65
188.314	117.42
188.534	84.65
188.753	10.92
188.973	-7.51
189.192	68.27
189.412	29.35
189.631	74.41
189.851	-27.99
190.07	64.17
190.29	21.16
190.509	68.27
190.729	4.78
190.948	29.35
191.168	105.13
191.387	41.64
191.607	25.26
191.826	27.31
192.045	2.73
192.265	139.94
192.484	41.64
192.704	45.74
192.923	-34.13
193.142	60.07
193.362	41.64
193.581	10.92
193.8	-30.04
194.02	4.78
194.239	12.97
194.458	-52.56
194.678	-34.13
194.897	19.11
195.116	-52.56
195.335	72.36
195.555	33.45
195.774	43.69
195.993	-13.65
196.212	-5.46
196.432	23.21
196.651	60.07
196.87	23.21
197.089	27.31
197.308	19.11
197.528	35.5
197.747	-3.41
197.966	60.07
198.185	27.31
198.404	-5.46
198.623	8.87
198.842	70.31
199.062	43.69
199.281	84.65
199.5	43.69
199.719	27.31
199.938	37.55
200.157	43.69
200.376	35.5
200.595	68.27
200.814	21.16
201.033	-21.85
201.252	68.27
201.471	27.31
201.69	15.02
201.909	4.78
202.128	12.97
202.347	62.12
202.566	-38.23
202.785	-44.37
203.004	70.31
203.223	98.99
203.442	53.93
203.661	6.83
203.879	115.37
204.098	4.78
204.317	60.07
204.536	45.74
204.755	-3.41
204.974	-5.46
205.193	-3.41
205.411	119.46
205.63	27.31
205.849	43.69
206.068	15.02
206.287	10.92
206.505	51.88
206.724	82.6
206.943	-9.56
207.162	55.98
207.381	35.5
207.599	33.45
207.818	4.78
208.037	21.16
208.255	-13.65
208.474	-13.65
208.693	55.98
208.911	23.21
209.13	23.21
209.349	51.88
209.567	96.94
209.786	12.97
210.005	43.69
210.223	35.5
210.442	8.87
210.661	39.59
210.879	-27.99
211.098	19.11
211.316	10.92
211.535	94.89
211.753	-60.76
211.972	43.69
212.191	12.97
212.409	23.21
212.628	62.12
212.846	39.59
213.065	60.07
213.283	53.93
213.502	-34.13
213.72	45.74
213.938	35.5
214.157	43.69
214.375	101.03
214.594	-60.76
214.812	35.5
215.031	43.69
215.249	88.75
215.467	43.69
215.686	-48.47
215.904	58.03
216.122	-17.75
216.341	23.21
216.559	-46.42
216.778	70.31
216.996	29.35
217.214	-54.61
217.432	-30.04
217.651	25.26
217.869	2.73
218.087	2.73
218.306	27.31
218.524	27.31
218.742	55.98
218.96	53.93
219.179	43.69
219.397	68.27
219.615	137.9
219.833	35.5
220.051	72.36
220.27	43.69
220.488	107.18
220.706	47.79
220.924	-79.19
221.142	15.02
221.36	-27.99
221.578	15.02
221.796	21.16
222.015	64.17
222.233	-5.46
222.451	103.08
222.669	-54.61
222.887	58.03
223.105	-9.56
223.323	8.87
223.541	2.73
223.759	43.69
223.977	6.83
224.195	84.65
224.413	43.69
224.631	33.45
224.849	29.35
225.067	70.31
225.285	10.92
225.503	23.21
225.721	-3.41
225.939	-3.41
226.157	90.79
226.375	111.27
226.592	-40.28
226.81	45.74
227.028	45.74
227.246	94.89
227.464	125.61
227.682	-9.56
227.9	-3.41
228.117	0.68
228.335	41.64
228.553	2.73
228.771	19.11
228.989	39.59
229.206	4.78
229.424	-54.61
229.642	31.4
229.86	41.64
230.077	41.64
230.295	27.31
230.513	35.5
230.731	27.31
230.948	39.59
231.166	45.74
231.384	-15.7
231.601	70.31
231.819	101.03
232.037	-17.75
232.254	-13.65
232.472	35.5
232.689	19.11
232.907	66.22
233.125	96.94
233.342	6.83
233.56	27.31
233.777	2.73
233.995	72.36
234.213	80.55
234.43	37.55
234.648	-54.61
234.865	-5.46
235.083	-5.46
235.3	35.5
235.518	-25.94
235.735	121.51
235.953	92.84
236.17	-38.23
236.388	27.31
236.605	2.73
236.822	68.27
237.04	-1.37
237.257	29.35
237.475	51.88
237.692	29.35
237.909	64.17
238.127	12.97
238.344	78.51
238.562	35.5
238.779	-17.75
238.996	19.11
239.214	-5.46
239.431	2.73
239.648	37.55
239.865	66.22
240.083	19.11
240.3	78.51
240.517	-60.76
240.735	-5.46
240.952	92.84
241.169	58.03
241.386	47.79
241.603	27.31
241.821	45.74
242.038	68.27
242.255	-5.46
242.472	-9.56
242.689	-19.8
242.907	96.94
243.124	17.07
243.341	2.73
243.558	43.69
243.775	47.79
243.992	-9.56
244.209	96.94
244.426	70.31
244.643	47.79
244.86	53.93
245.078	-17.75
245.295	27.31
245.512	21.16
245.729	-60.76
245.946	2.73
246.163	58.03
246.38	19.11
246.597	39.59
246.814	-3.41
247.031	-68.95
247.248	4.78
247.464	10.92
247.681	60.07
247.898	23.21
248.115	39.59
248.332	-85.33
248.549	25.26
248.766	35.5
248.983	-50.52
249.2	19.11
249.417	45.74
249.633	-36.18
249.85	60.07
250.067	27.31
250.284	41.64
250.501	19.11
250.717	29.35
250.934	70.31
251.151	-21.85
251.368	4.78
251.585	60.07
251.801	64.17
252.018	64.17
252.235	68.27
252.451	10.92
252.668	55.98
252.885	21.16
253.102	10.92
253.318	35.5
253.535	53.93
253.752	21.16
253.968	64.17
254.185	-30.04
254.401	45.74
254.618	-5.46
254.835	-46.42
255.051	76.46
255.268	92.84
255.484	58.03
255.701	68.27
255.917	111.27
256.134	-44.37
256.351	62.12
256.567	-1.37
256.784	60.07
257	19.11
257.217	19.11
257.433	4.78
257.65	43.69
257.866	60.07
258.082	-17.75
258.299	31.4
258.515	35.5
258.732	-36.18
258.948	-11.61
259.165	19.11
259.381	6.83
259.597	-9.56
259.814	-13.65
260.03	51.88
260.246	0.68
260.463	62.12
260.679	33.45
260.895	-19.8
261.112	31.4
261.328	35.5
261.544	10.92
261.761	125.61
261.977	-42.32
262.193	-7.51
262.409	-25.94
262.626	27.31
262.842	-40.28
263.058	78.51
263.274	12.97
263.49	-3.41
263.707	2.73
263.923	19.11
264.139	2.73
264.355	51.88
264.571	15.02
264.787	-42.32
265.004	137.9
265.22	25.26
265.436	27.31
265.652	39.59
265.868	19.11
266.084	27.31
266.3	10.92
266.516	-25.94
266.732	84.65
266.948	-3.41
267.164	47.79
267.38	55.98
267.596	10.92
267.812	92.84
268.028	92.84
268.244	29.35
268.46	27.31
268.676	43.69
268.892	-19.8
269.108	-15.7
269.324	23.21
269.54	-25.94
269.756	43.69
269.972	-23.89
270.188	43.69
270.403	-13.65
270.619	0.68
270.835	37.55
271.051	45.74
271.267	-27.99
271.483	8.87
271.698	12.97
271.914	-77.14
272.13	4.78
272.346	10.92
272.562	55.98
272.777	43.69
272.993	-21.85
273.209	-46.42
273.425	137.9
273.64	19.11
273.856	37.55
274.072	62.12
274.287	15.02
274.503	76.46
274.719	53.93
274.934	-3.41
275.15	-5.46
275.366	6.83
275.581	-1.37
275.797	-60.76
276.012	-95.57
276.228	-23.89
276.444	53.93
276.659	33.45
276.875	2.73
277.09	43.69
277.306	2.73
277.521	-79.19
277.737	-19.8
277.952	31.4
278.168	-21.85
278.383	129.7
278.599	17.07
278.814	-5.46
279.03	43.69
279.245	29.35
279.461	25.26
279.676	45.74
279.892	43.69
280.107	-3.41
280.322	21.16
280.538	68.27
280.753	10.92
280.969	-30.04
281.184	15.02
281.399	51.88
281.615	-21.85
281.83	72.36
282.045	-11.61
282.26	-30.04
282.476	-21.85
282.691	88.75
282.906	27.31
283.122	39.59
283.337	-19.8
283.552	-21.85
283.767	55.98
283.983	41.64
284.198	27.31
284.413	68.27
284.628	-52.56
284.843	78.51
285.058	66.22
285.274	4.78
285.489	8.87
285.704	45.74
285.919	31.4
286.134	-30.04
286.349	60.07
286.564	55.98
286.779	80.55
286.995	55.98
287.21	31.4
287.425	60.07
287.64	-3.41
287.855	-36.18
288.07	19.11
288.285	62.12
288.5	-19.8
288.715	86.7
288.93	58.03
289.145	2.73
289.36	86.7
289.575	51.88
289.79	-1.37
290.004	2.73
290.219	68.27
290.434	-5.46
290.649	-9.56
290.864	39.59
291.079	-25.94
291.294	-9.56
291.509	31.4
291.724	35.5
291.938	33.45
292.153	84.65
292.368	64.17
292.583	33.45
292.798	-1.37
293.012	-3.41
293.227	12.97
293.442	-30.04
293.657	72.36
293.871	76.46
294.086	33.45
294.301	35.5
294.516	68.27
294.73	-11.61
294.945	19.11
295.16	-3.41
295.374	2.73
295.589	-15.7
295.804	-93.52
296.018	8.87
296.233	39.59
296.447	94.89
296.662	68.27
296.877	86.7
297.091	21.16
297.306	39.59
297.52	4.78
297.735	53.93
297.949	15.02
298.164	10.92
298.378	68.27
298.593	19.11
298.807	-13.65
299.022	19.11
299.236	21.16
299.451	31.4
299.665	4.78
299.88	-3.41
300.094	82.6
300.309	15.02
300.523	66.22
300.737	-3.41
300.952	74.41
301.166	76.46
301.381	-40.28
301.595	-17.75
301.809	68.27
302.024	-5.46
302.238	-48.47
302.452	82.6
302.667	-21.85
302.881	53.93
303.095	19.11
303.309	37.55
303.524	6.83
303.738	76.46
303.952	2.73
304.166	96.94
304.381	-17.75
304.595	51.88
304.809	-5.46
305.023	62.12
305.237	-1.37
305.452	27.31
305.666	-3.41
305.88	6.83
306.094	141.99
306.308	27.31
306.522	15.02
306.736	68.27
306.95	51.88
307.164	19.11
307.379	35.5
307.593	92.84
307.807	111.27
308.021	96.94
308.235	55.98
308.449	-46.42
308.663	2.73
308.877	45.74
309.091	-62.8
309.305	76.46
309.519	-75.09
309.733	96.94
309.947	0.68
310.161	86.7
310.374	53.93
310.588	53.93
310.802	-36.18
311.016	-23.89
311.23	117.42
311.444	45.74
311.658	-54.61
311.872	62.12
312.085	47.79
312.299	125.61
312.513	62.12
312.727	62.12
312.941	33.45
313.154	-30.04
313.368	101.03
313.582	-21.85
313.796	2.73
314.009	10.92
314.223	27.31
314.437	6.83
314.651	31.4
314.864	15.02
315.078	-9.56
315.292	12.97
315.505	-11.61
315.719	12.97
315.933	10.92
316.146	27.31
316.36	-34.13
316.573	76.46
316.787	41.64
317.001	49.83
317.214	25.26
317.428	37.55
317.641	115.37
317.855	21.16
318.068	25.26
318.282	19.11
318.495	92.84
318.709	84.65
318.922	60.07
319.136	43.69
319.349	55.98
319.563	76.46
319.776	-30.04
319.99	23.21
320.203	55.98
320.417	45.74
320.63	53.93
320.843	64.17
321.057	103.08
321.27	45.74
321.483	39.59
321.697	60.07
321.91	88.75
322.124	55.98
322.337	23.21
322.55	-5.46
322.763	76.46
322.977	39.59
323.19	23.21
323.403	27.31
323.617	43.69
323.83	58.03
324.043	-50.52
324.256	2.73
324.469	-13.65
324.683	135.85
324.896	15.02
325.109	125.61
325.322	-30.04
325.535	60.07
325.748	29.35
325.962	-9.56
326.175	47.79
326.388	2.73
326.601	23.21
326.814	55.98
327.027	10.92
327.24	109.22
327.453	-21.85
327.666	96.94
327.879	0.68
328.092	103.08
328.305	17.07
328.518	117.42
328.731	21.16
328.944	62.12
329.157	29.35
329.37	8.87
329.583	70.31
329.796	86.7
330.009	-52.56
330.222	55.98
330.435	27.31
330.648	109.22
330.861	35.5
331.073	84.65
331.286	6.83
331.499	82.6
331.712	64.17
331.925	-38.23
332.138	35.5
332.35	103.08
332.563	6.83
332.776	94.89
332.989	23.21
333.202	6.83
333.414	12.97
333.627	-9.56
333.84	51.88
334.053	-5.46
334.265	76.46
334.478	-7.51
334.691	39.59
334.903	-1.37
335.116	4.78
335.329	43.69
335.541	43.69
335.754	53.93
335.966	-36.18
336.179	19.11
336.392	70.31
336.604	68.27
336.817	10.92
337.029	41.64
337.242	15.02
337.454	53.93
337.667	37.55
337.88	23.21
338.092	55.98
338.305	-5.46
338.517	-75.09
338.729	78.51
338.942	-25.94
339.154	12.97
339.367	-17.75
339.579	39.59
339.792	23.21
340.004	96.94
340.217	39.59
340.429	60.07
340.641	35.5
340.854	4.78
341.066	-5.46
341.278	-11.61
341.491	117.42
341.703	51.88
341.915	-1.37
342.128	60.07
342.34	25.26
342.552	-71
342.764	37.55
342.977	-5.46
343.189	119.46
343.401	82.6
343.613	-11.61
343.826	35.5
344.038	-17.75
344.25	12.97
344.462	0.68
344.674	47.79
344.886	-17.75
345.099	27.31
345.311	-66.9
345.523	-25.94
345.735	-38.23
345.947	-11.61
346.159	72.36
346.371	-34.13
346.583	47.79
346.795	105.13
347.007	84.65
347.219	76.46
347.431	-34.13
347.643	86.7
347.855	39.59
348.067	74.41
348.279	2.73
348.491	21.16
348.703	58.03
348.915	-11.61
349.127	60.07
349.339	51.88
349.551	-5.46
349.763	12.97
349.975	41.64
350.187	2.73
350.399	84.65
350.61	47.79
350.822	-32.08
351.034	2.73
351.246	6.83
351.458	45.74
351.669	60.07
351.881	68.27
352.093	17.07
352.305	68.27
352.517	47.79
352.728	27.31
352.94	35.5
353.152	-73.04
353.363	-38.23
353.575	76.46
353.787	78.51
353.999	55.98
354.21	64.17
354.422	-83.28
354.633	78.51
354.845	23.21
355.057	-17.75
355.268	60.07
355.48	84.65
355.692	41.64
355.903	43.69
356.115	-5.46
356.326	-46.42
356.538	72.36
356.749	70.31
356.961	39.59
357.172	-5.46
357.384	35.5
357.595	84.65
357.807	10.92
358.018	-1.37
358.23	-3.41
358.441	51.88
358.653	-3.41
358.864	92.84
359.075	35.5
359.287	60.07
359.498	2.73
359.709	19.11
359.921	51.88
360.132	15.02
360.344	19.11
360.555	-46.42
360.766	74.41
360.977	51.88
361.189	84.65
361.4	-21.85
361.611	27.31
361.823	27.31
362.034	45.74
362.245	-9.56
362.456	37.55
362.667	41.64
362.879	-1.37
363.09	113.32
363.301	74.41
363.512	49.83
363.723	19.11
363.935	-3.41
364.146	-52.56
364.357	45.74
364.568	105.13
364.779	-19.8
364.99	45.74
365.201	12.97
365.412	55.98
365.623	43.69
365.834	21.16
366.045	-3.41
366.256	62.12
366.467	84.65
366.678	27.31
366.889	-38.23
367.1	17.07
367.311	76.46
367.522	-11.61
367.733	78.51
367.944	25.26
368.155	33.45
368.366	27.31
368.577	45.74
368.788	125.61
368.999	-21.85
369.209	35.5
369.42	53.93
369.631	60.07
369.842	31.4
370.053	2.73
370.264	53.93
370.474	6.83
370.685	-5.46
370.896	60.07
371.107	64.17
371.317	33.45
371.528	47.79
371.739	92.84
371.95	-36.18
372.16	94.89
372.371	-30.04
372.582	66.22
372.792	86.7
373.003	137.9
373.214	80.55
373.424	105.13
373.635	15.02
373.846	105.13
374.056	51.88
374.267	90.79
374.477	4.78
374.688	43.69
374.898	43.69
375.109	-9.56
375.319	101.03
375.53	35.5
375.74	68.27
375.951	23.21
376.161	62.12
376.372	129.7
376.582	-54.61
376.793	78.51
377.003	-40.28
377.214	-13.65
377.424	-25.94
377.635	51.88
377.845	6.83
378.055	62.12
378.266	-38.23
378.476	-23.89
378.686	70.31
378.897	51.88
379.107	35.5
379.317	121.51
379.528	27.31
379.738	17.07
379.948	51.88
380.158	94.89
380.369	53.93
380.579	12.97
380.789	35.5
380.999	76.46
381.21	21.16
381.42	29.35
381.63	70.31
381.84	29.35
382.05	10.92
382.261	21.16
382.471	86.7
382.681	43.69
382.891	76.46
383.101	19.11
383.311	43.69
383.521	55.98
383.731	101.03
383.941	43.69
384.151	21.16
384.361	-1.37
384.571	31.4
384.781	117.42
384.991	31.4
385.201	37.55
385.411	47.79
385.621	60.07
385.831	0.68
386.041	39.59
386.251	19.11
386.461	55.98
386.671	-34.13
386.881	78.51
387.091	78.51
387.301	101.03
387.511	4.78
387.72	51.88
387.93	72.36
388.14	6.83
388.35	55.98
388.56	62.12
388.769	45.74
388.979	78.51
389.189	2.73
389.399	80.55
389.609	80.55
389.818	111.27
390.028	55.98
390.238	-44.37
390.447	68.27
390.657	84.65
390.867	60.07
391.076	31.4
391.286	23.21
391.496	72.36
391.705	17.07
391.915	86.7
392.125	53.93
392.334	-38.23
392.544	33.45
392.753	-5.46
392.963	-21.85
393.172	68.27
393.382	43.69
393.591	101.03
393.801	55.98
394.01	105.13
394.22	60.07
394.429	21.16
394.639	84.65
394.848	84.65
395.058	19.11
395.267	78.51
395.477	23.21
395.686	19.11
395.895	135.85
396.105	29.35
396.314	113.32
396.524	119.46
396.733	66.22
396.942	53.93
397.152	19.11
397.361	66.22
397.57	72.36
397.78	43.69
397.989	80.55
398.198	119.46
398.407	92.84
398.617	51.88
398.826	29.35
399.035	74.41
399.244	109.22
399.453	133.8
399.663	19.11
399.872	125.61
400.081	82.6
400.29	141.99
400.499	92.84
400.708	86.7
400.917	37.55
401.127	115.37
401.336	31.4
401.545	111.27
401.754	127.66
401.963	180.9
402.172	78.51
402.381	80.55
402.59	49.83
402.799	88.75
403.008	119.46
403.217	74.41
403.426	125.61
403.635	58.03
403.844	121.51
404.053	64.17
404.262	125.61
404.471	211.62
404.68	164.52
404.888	129.7
405.097	154.28
405.306	129.7
405.515	166.57
405.724	174.76
405.933	160.42
406.142	166.57
406.35	154.28
406.559	187.05
406.768	133.8
406.977	191.14
407.185	133.8
407.394	166.57
407.603	141.99
407.812	144.04
408.02	193.19
408.229	193.19
408.438	150.18
408.646	109.22
408.855	215.72
409.064	248.49
409.272	211.62
409.481	258.73
409.69	291.49
409.898	256.68
410.107	301.73
410.315	258.73
410.524	260.77
410.733	271.01
410.941	250.53
411.15	248.49
411.358	322.21
411.567	354.98
411.775	307.88
411.984	264.87
412.192	318.12
412.401	334.5
412.609	354.98
412.818	510.63
413.026	416.42
413.234	420.52
413.443	430.76
413.651	449.19
413.86	463.52
414.068	559.78
414.276	527.01
414.485	510.63
414.693	559.78
414.901	529.06
415.11	477.86
415.318	553.63
415.526	578.21
415.734	627.36
415.943	649.89
416.151	682.66
416.359	670.37
416.567	723.62
416.776	758.43
416.984	764.57
417.192	871.07
417.4	805.53
417.608	740
417.817	883.36
418.025	844.45
418.233	920.22
418.441	846.49
418.649	946.84
418.857	1043.1
419.065	1061.53
419.273	1010.33
419.481	1131.16
419.689	1213.08
419.897	1200.79
420.105	1192.6
420.313	1295
420.521	1411.73
420.729	1309.33
420.937	1383.06
421.145	1485.46
421.353	1510.04
421.561	1585.81
421.769	1591.95
421.977	1550.99
422.185	1653.39
422.393	1694.35
422.601	1835.66
422.809	1911.44
423.017	1845.9
423.224	1979.02
423.432	1987.21
423.64	2077.32
423.848	2194.06
424.056	2157.19
424.263	2173.58
424.471	2284.17
424.679	2421.38
424.887	2484.87
425.094	2540.16
425.302	2622.08
425.51	2669.19
425.718	2740.86
425.925	2732.67
426.133	2880.13
426.341	3140.22
426.548	3168.89
426.756	3179.13
426.964	3156.6
427.171	3445.37
427.379	3525.24
427.586	3641.97
427.794	3674.74
428.001	3789.42
428.209	3920.49
428.417	3914.35
428.624	4250.22
428.832	4113
429.039	4168.3
429.247	4137.58
429.454	4442.73
429.662	4696.68
429.869	4498.02
430.076	4876.9
430.284	4663.91
430.491	4967.01
430.699	5188.19
430.906	5302.87
431.114	5274.2
431.321	5266.01
431.528	5401.18
431.736	5784.15
431.943	6242.89
432.15	5864.02
432.358	6134.35
432.565	6310.47
432.772	6296.14
432.979	6584.9
433.187	6933.06
433.394	6756.93
433.601	7203.39
433.808	7305.79
434.016	7227.96
434.223	7696.95
434.43	7989.81
434.637	7944.75
434.844	8395.31
435.052	8673.83
435.259	8479.27
435.466	8555.05
435.673	8399.4
435.88	9095.71
436.087	9589.27
436.294	9630.23
436.501	9284.12
436.708	9468.44
436.915	9759.25
437.122	10347.02
437.329	10177.04
437.537	10469.9
437.743	10619.4
437.95	10643.98
438.157	11057.67
438.364	11434.49
438.571	11510.27
438.778	11735.54
438.985	12851.69
439.192	12145.14
439.399	12487.15
439.606	12095.99
439.813	12900.84
440.02	13677.02
440.227	13332.96
440.433	13234.66
440.64	13660.63
440.847	13576.67
441.054	14150.1
441.261	14889.42
441.467	14655.95
441.674	15008.2
441.881	15382.98
442.088	15497.66
442.294	15182.27
442.501	15839.67
442.708	16134.58
442.914	16765.35
443.121	17488.29
443.328	17246.63
443.534	18354.58
443.741	17574.3
443.948	17652.13
444.154	18608.53
444.361	18594.19
444.568	18561.42
444.774	18712.97
444.981	18885
445.187	19214.73
445.394	20207.99
445.6	19779.96
445.807	21963.1
446.013	20943.21
446.22	20920.68
446.426	22204.76
446.633	22548.82
446.839	22909.26
447.046	22024.54
447.252	23527.75
447.459	23445.83
447.665	23316.81
447.871	24512.82
448.078	25338.15
448.284	24512.82
448.491	25119.02
448.697	25966.88
448.903	26267.93
449.11	26700.05
449.316	25950.49
449.522	26747.15
449.728	27296.01
449.935	27408.65
450.141	27678.98
450.347	27963.65
450.553	26943.76
450.76	27631.88
450.966	28619
451.172	28217.6
451.378	28786.93
451.584	28365.05
451.791	29014.26
451.997	29143.28
452.203	29264.11
452.409	29708.52
452.615	29264.11
452.821	28119.29
453.027	28186.88
453.233	29804.77
453.44	28348.67
453.646	29128.94
453.852	28831.99
454.058	29651.17
454.264	28549.37
454.47	29239.53
454.676	28365.05
454.882	29454.57
455.088	27220.24
455.294	27214.09
455.5	27623.69
455.705	28117.25
455.911	27003.15
456.117	26765.59
456.323	26167.58
456.529	24869.17
456.735	26075.42
456.941	25319.72
457.147	24875.31
457.352	24127.8
457.558	24039.74
457.764	23998.78
457.97	23732.54
458.176	23286.09
458.381	22909.26
458.587	21817.69
458.793	22081.88
458.999	20851.05
459.204	22370.65
459.41	21516.64
459.616	20382.07
459.821	20083.06
460.027	20287.86
460.233	19958.14
460.438	19083.66
460.644	19224.97
460.85	18239.89
461.055	18004.38
461.261	17895.83
461.466	16556.46
461.672	16148.92
461.878	17209.76
462.083	16353.71
462.289	15911.35
462.494	15604.16
462.7	14932.42
462.905	14371.28
463.111	14991.81
463.316	15059.4
463.522	14830.02
463.727	15000.01
463.932	14703.05
464.138	14571.98
464.343	14684.62
464.549	14232.02
464.754	14879.18
464.959	14545.36
465.165	14336.46
465.37	13711.83
465.575	13353.44
465.781	13994.45
465.986	13963.73
466.191	13525.47
466.397	13289.95
466.602	12472.81
466.807	13228.51
467.012	13146.59
467.218	13122.02
467.423	12773.86
467.628	12945.89
467.833	13513.18
468.038	13246.94
468.244	12466.67
468.449	12818.92
468.654	12724.71
468.859	12546.54
469.064	12587.5
469.269	12151.28
469.474	12007.92
469.679	12636.65
469.885	12046.83
470.09	12487.15
470.295	12071.41
470.5	11776.5
470.705	12003.83
470.91	11717.11
471.115	11553.27
471.32	11762.17
471.525	11684.34
471.73	11467.26
471.935	11430.4
472.139	11155.97
472.344	11002.37
472.549	11037.19
472.754	10717.7
472.959	10863.11
473.164	10398.22
473.369	10471.95
473.574	10838.53
473.778	10707.46
473.983	10433.04
474.188	10611.21
474.393	10115.6
474.598	9837.08
474.802	10039.83
475.007	10123.79
475.212	9992.72
475.417	9411.1
475.621	9667.1
475.826	9710.1
476.031	9343.52
476.235	9206.3
476.44	9464.35
476.645	9151.01
476.849	9038.37
477.054	8921.63
477.259	9009.7
477.463	8833.57
477.668	8809
477.872	8991.27
478.077	8671.78
478.282	8268.33
478.486	8264.24
478.691	8301.1
478.895	8319.53
479.1	8280.62
479.304	8401.45
479.509	8079.92
479.713	8141.36
479.918	8055.34
480.122	7932.47
480.326	7987.76
480.531	7948.85
480.735	7871.03
480.94	7711.28
481.144	8022.58
481.348	7909.94
481.553	7789.11
481.757	7588.41
481.961	7598.65
482.166	7711.28
482.37	7524.92
482.574	7529.02
482.778	7555.64
482.983	7694.9
483.187	7742
483.391	7729.72
483.595	7713.33
483.8	7565.88
484.004	7690.81
484.208	7598.65
484.412	7582.26
484.616	7576.12
484.821	7787.06
485.025	7426.62
485.229	7670.33
485.433	7623.22
485.637	7584.31
485.841	7574.07
486.045	7510.58
486.249	7713.33
486.453	7670.33
486.657	7627.32
486.861	7774.77
487.065	7451.19
487.269	7655.99
487.473	7465.53
487.677	7748.15
487.881	7727.67
488.085	7821.88
488.289	7512.63
488.493	7481.91
488.697	7488.06
488.901	7533.11
489.105	7647.8
489.309	7662.13
489.512	7733.81
489.716	7823.92
489.92	7631.41
490.124	7830.07
490.328	7834.16
490.531	7830.07
490.735	7764.53
490.939	7582.26
491.143	7731.76
491.346	7723.57
491.55	8022.58
491.754	7879.22
491.958	8008.24
492.161	8135.21
492.365	8073.78
492.569	8051.25
492.772	7979.57
492.976	8075.82
493.18	8184.37
493.383	8163.89
493.587	8423.98
493.79	8243.76
493.994	8344.11
494.197	8344.11
494.401	8491.56
494.605	8360.49
494.808	8495.66
495.012	8591.91
495.215	8608.3
495.419	8639.01
495.622	8514.09
495.825	8706.6
496.029	8927.78
496.232	9091.62
496.436	8972.83
496.639	9118.24
496.843	9157.15
497.046	9271.84
497.249	9318.94
497.453	9300.51
497.656	9411.1
497.859	9505.31
498.063	9636.38
498.266	9759.25
498.469	9816.6
498.673	10082.83
498.876	10197.52
499.079	10365.45
499.282	10148.37
499.485	10529.29
499.689	10234.38
499.892	10586.63
500.095	10891.78
500.298	11069.95
500.501	10906.12
500.705	11026.95
500.908	11307.52
501.111	11583.99
501.314	11418.11
501.517	11469.31
501.72	11586.04
501.923	11923.96
502.126	11971.06
502.329	12198.38
502.532	12089.84
502.735	12448.24
502.938	12554.73
503.141	12591.59
503.344	12933.61
503.547	12906.98
503.75	13029.86
503.953	13494.75
504.156	13277.66
504.359	13316.58
504.562	13617.63
504.765	13797.85
504.968	13883.86
505.17	14113.24
505.373	14141.91
505.576	14510.54
505.779	14379.47
505.982	14754.25
506.185	15053.25
506.387	14948.81
506.59	15092.16
506.793	15462.85
506.996	15419.84
507.198	15733.18
507.401	15739.32
507.604	16011.7
507.807	16052.66
508.009	16425.39
508.212	16351.67
508.415	16683.44
508.617	16843.18
508.82	16867.75
509.022	16935.34
509.225	17340.83
509.428	17488.29
509.63	17723.8
509.833	17545.63
510.035	18143.64
510.238	18151.83
510.44	17922.46
510.643	18684.3
510.845	18704.78
511.048	18600.33
511.25	19114.38
511.453	18911.63
511.655	19790.2
511.858	19589.5
512.06	19782.01
512.262	20103.54
512.465	20060.54
512.667	20263.29
512.87	20476.27
513.072	20429.17
513.274	21188.97
513.477	21129.58
513.679	21061.99
513.881	21805.41
514.084	21780.83
514.286	21823.84
514.488	21879.13
514.69	22546.77
514.893	22798.67
515.095	22804.81
515.297	22913.36
515.499	22991.18
515.701	23329.09
515.904	23456.07
516.106	23652.67
516.308	23963.97
516.51	24162.62
516.712	24488.24
516.914	24287.54
517.116	24770.86
517.318	24799.54
517.52	25233.71
517.722	24944.94
517.925	25637.16
518.127	25733.41
518.329	26112.28
518.531	25936.16
518.733	26431.77
518.935	26745.11
519.136	26536.21
519.338	27175.18
519.54	27111.69
519.742	27607.3
519.944	27314.44
520.146	27816.19
520.348	27826.43
520.55	28317.95
520.752	28416.25
520.954	28823.79
521.155	28975.34
521.357	29333.74
521.559	29544.68
521.761	29421.8
521.963	29630.69
522.164	29602.02
522.366	30386.4
522.568	30148.83
522.77	30408.92
522.971	30769.37
523.173	30517.47
523.375	30712.02
523.576	31437
523.778	31260.88
523.98	31342.8
524.181	31609.03
524.383	31467.72
524.584	31645.9
524.786	31998.15
524.988	32055.49
525.189	32483.51
525.391	32577.72
525.592	32452.8
525.794	32807.09
525.995	32555.19
526.197	32716.98
526.398	33157.3
526.6	33652.91
526.801	33269.93
527.003	33683.62
527.204	33507.5
527.406	34132.13
527.607	33896.61
527.808	34111.65
528.01	33626.28
528.211	33951.91
528.412	34982.04
528.614	34371.74
528.815	34451.61
529.016	34568.35
529.218	33884.33
529.419	34732.18
529.62	34785.43
529.822	34859.16
530.023	34588.83
530.224	35043.48
530.425	35020.95
530.626	34789.53
530.828	34164.9
531.029	35797.13
531.23	34920.6
531.431	34762.9
531.632	35043.48
531.833	35434.64
532.035	34949.27
532.236	35422.35
532.437	35399.82
532.638	35008.66
532.839	35299.47
533.04	35512.46
533.241	35131.54
533.442	36022.4
533.643	35725.45
533.844	35463.31
534.045	35553.42
534.246	35076.24
534.447	35461.26
534.648	35477.65
534.849	35336.34
535.05	34859.16
535.251	35328.14
535.451	35209.36
535.652	35469.45
535.853	35250.32
536.054	35551.37
536.255	35625.1
536.456	35418.25
536.657	36110.47
536.857	35272.85
537.058	35281.04
537.259	35901.57
537.46	35674.25
537.66	35463.31
537.861	35289.23
538.062	35246.22
538.263	35782.79
538.463	35250.32
538.664	35262.61
538.865	35293.33
539.065	35666.06
539.266	35248.27
539.466	35844.23
539.667	34816.15
539.868	35950.73
540.068	35221.65
540.269	35229.84
540.469	35752.07
540.67	35045.52
540.87	35184.79
541.071	35338.38
541.271	35465.36
541.472	35600.52
541.672	35168.4
541.873	35084.44
542.073	34814.1
542.274	35448.97
542.474	35324.05
542.675	35182.74
542.875	35549.32
543.075	35377.29
543.276	34719.9
543.476	35616.91
543.676	35059.86
543.877	35324.05
544.077	34771.1
544.277	34973.84
544.478	35281.04
544.678	35020.95
544.878	35268.75
545.078	35186.83
545.279	35428.49
545.479	34719.9
545.679	35086.48
545.879	35031.19
546.079	35102.87
546.28	34908.31
546.48	35000.47
546.68	35190.93
546.88	35393.68
547.08	35301.52
547.28	35047.57
547.48	34838.68
547.68	35162.26
547.88	34676.89
548.081	35080.34
548.281	34746.52
548.481	34914.45
548.681	35201.17
548.881	34971.8
549.081	35158.16
549.28	34787.48
549.48	35195.03
549.68	34963.61
549.88	35281.04
550.08	34832.54
550.28	34676.89
550.48	34758.81
550.68	35129.49
550.88	34498.72
551.08	34789.53
551.279	35014.8
551.479	34351.26
551.679	34656.41
551.879	34877.59
552.079	34676.89
552.278	34656.41
552.478	34601.11
552.678	35018.9
552.878	34730.14
553.077	34390.17
553.277	34414.75
553.477	34740.38
553.676	34037.92
553.876	34480.28
554.076	34637.98
554.275	34521.24
554.475	34150.56
554.674	34599.07
554.874	34746.52
555.074	34271.39
555.273	34562.2
555.473	34971.8
555.672	34369.69
555.872	34248.86
556.071	34328.73
556.271	34543.77
556.47	34369.69
556.67	34179.23
556.869	33951.91
557.068	34410.65
557.268	33700.01
557.467	34394.27
557.667	33992.87
557.866	33958.05
558.065	33794.21
558.265	33630.38
558.464	33855.65
558.663	33738.92
558.863	33755.3
559.062	34140.32
559.261	33595.56
559.461	33904.81
559.66	33499.31
559.859	33431.72
560.058	33145.01
560.258	33865.89
560.457	33579.18
560.656	33927.33
560.855	33286.32
561.054	33530.03
561.253	33036.47
561.453	33104.05
561.652	33245.36
561.851	33235.12
562.05	32956.6
562.249	33038.51
562.448	33126.58
562.647	33116.34
562.846	32725.18
563.045	33050.8
563.244	32725.18
563.443	33087.67
563.642	32434.36
563.841	32561.34
564.04	32643.26
564.239	32774.33
564.438	32547
564.637	32422.08
564.836	32460.99
565.035	32108.74
565.234	32272.57
565.432	32245.95
565.631	32200.9
565.83	32207.04
566.029	31684.81
566.228	31981.76
566.427	32080.07
566.625	31645.9
566.824	31359.18
567.023	32004.29
567.222	31473.87
567.42	31928.52
567.619	31574.22
567.818	31238.35
568.016	31232.21
568.215	31531.21
568.414	31133.9
568.612	31494.35
568.811	31205.58
569.01	31490.25
569.208	31054.03
569.407	31299.79
569.605	30849.24
569.804	31160.53
570.002	30660.82
570.201	30730.45
570.4	30425.31
570.598	30562.52
570.797	30351.58
570.995	30552.28
571.193	30212.32
571.392	30230.75
571.59	30093.54
571.789	30333.15
571.987	30267.61
572.186	30116.06
572.384	29896.93
572.582	29868.26
572.781	30185.69
572.979	29425.9
573.177	29749.48
573.376	29999.33
573.574	29395.18
573.772	29509.86
573.971	29274.35
574.169	28813.56
574.367	29235.44
574.565	29559.02
574.763	29069.55
574.962	28952.82
575.16	29028.59
575.358	28967.15
575.556	28412.15
575.754	29171.95
575.952	28715.25
576.151	29038.83
576.349	28303.61
576.547	28301.56
576.745	28449.02
576.943	28055.81
577.141	28283.13
577.339	28367.1
577.537	28244.22
577.735	28107.01
577.933	28037.37
578.131	28082.43
578.329	28006.66
578.527	27672.84
578.725	27834.63
578.923	27951.36
579.121	27425.03
579.319	27470.09
579.516	27640.07
579.714	27556.1
579.912	27392.26
580.11	27658.5
580.308	27644.16
580.506	27365.64
580.704	26896.66
580.901	27175.18
581.099	27246.86
581.297	26779.92
581.495	27132.17
581.692	27044.11
581.89	26595.6
582.088	26595.6
582.285	26839.31
582.483	26906.9
582.681	26472.73
582.878	26485.01
583.076	26087.71
583.274	26265.88
583.471	26161.44
583.669	26048.8
583.866	26005.79
584.064	26112.28
584.262	25852.19
584.459	26122.52
584.657	26005.79
584.854	26108.19
585.052	25680.16
585.249	25741.6
585.447	25678.11
585.644	25092.4
585.841	25407.78
586.039	25714.98
586.236	25086.25
586.434	25190.7
586.631	24932.65
586.828	25245.99
587.026	25166.12
587.223	25014.57
587.42	25002.29
587.618	24736.05
587.815	24643.89
588.012	24764.72
588.21	24609.08
588.407	24498.48
588.604	24494.39
588.801	24465.72
588.999	24303.93
589.196	24523.06
589.393	24103.23
589.59	23914.81
589.787	24168.76
589.984	23966.01
590.182	23750.98
590.379	24084.8
590.576	23587.14
590.773	23908.67
590.97	23589.19
591.167	23544.13
591.364	23589.19
591.561	23673.15
591.758	23214.41
591.955	23298.38
592.152	23413.06
592.349	23099.72
592.546	23247.18
592.743	23099.72
592.94	22831.44
593.137	22843.73
593.334	22960.46
593.531	22518.1
593.727	22948.17
593.924	22714.7
594.121	22255.96
594.318	22636.88
594.515	22409.56
594.712	22540.63
594.908	22309.21
595.105	22438.23
595.302	22088.03
595.499	22311.25
595.696	21913.95
595.892	21911.9
596.089	21995.87
596.286	21825.89
596.482	21897.56
596.679	21989.72
596.876	21842.27
597.072	21504.35
597.269	21547.36
597.466	21412.2
597.662	21477.73
597.859	21371.24
598.055	21559.65
598.252	21219.69
598.448	21354.85
598.645	21346.66
598.841	20881.77
599.038	20988.27
599.234	21090.66
599.431	20705.65
599.627	20767.09
599.824	20875.63
600.02	20726.13
600.217	20646.26
600.413	20550
600.609	20459.89
600.806	20578.67
601.002	20488.56
601.198	20521.33
601.395	20103.54
601.591	20105.59
601.787	20277.62
601.984	20023.67
602.18	20269.43
602.376	19661.18
602.572	19921.27
602.769	20023.67
602.965	19759.49
603.161	19968.38
603.357	19595.65
603.553	19646.85
603.75	19708.29
603.946	19526.02
604.142	19626.37
604.338	19323.27
604.534	19454.34
604.73	19149.19
604.926	19210.63
605.122	19261.83
605.318	19032.46
605.514	19095.94
605.71	18928.01
605.906	19007.88
606.102	18694.54
606.298	19122.57
606.494	18571.66
606.69	18629.01
606.886	18737.55
607.082	18469.26
607.278	18909.58
607.474	18504.08
607.67	18510.22
607.866	18327.96
608.062	18385.3
608.257	18266.52
608.453	18309.52
608.649	18647.44
608.845	18166.17
609.041	18024.86
609.236	18262.42
609.432	18289.04
609.628	18194.84
609.824	18098.58
610.019	17797.53
610.215	17707.42
610.411	17811.87
610.606	17887.64
610.802	17981.85
610.998	17631.65
611.193	17979.8
611.389	17476
611.584	17523.1
611.78	17523.1
611.976	17555.87
612.171	17598.88
612.367	17543.58
612.562	17703.32
612.758	17088.93
612.953	17230.24
613.149	17447.33
613.344	17168.8
613.539	17684.89
613.735	17383.84
613.93	17506.72
614.126	17265.06
614.321	17133.99
614.517	17066.41
614.712	17052.07
614.907	17263.01
615.103	17043.88
615.298	17097.13
615.493	17027.49
615.688	16818.6
615.884	17183.14
616.079	16783.79
616.274	16914.86
616.47	16859.56
616.665	16779.69
616.86	16810.41
617.055	16871.85
617.25	16552.37
617.445	16832.94
617.641	16380.34
617.836	16490.93
618.031	16271.79
618.226	16284.08
618.421	16337.33
618.616	16189.88
618.811	16083.38
619.006	16564.65
619.201	16153.01
619.396	16234.93
619.591	15886.78
619.786	16052.66
619.981	15845.82
620.176	16064.95
620.371	15575.48
620.566	15796.67
620.761	15673.79
620.956	15577.53
621.151	15591.87
621.346	15864.25
621.541	15430.08
621.735	15446.46
621.93	14934.47
622.125	15163.84
622.32	15094.21
622.515	14997.96
622.709	14766.54
622.904	14813.64
623.099	14969.29
623.294	14668.23
623.488	14436.81
623.683	14748.11
623.878	14426.57
624.072	14367.18
624.267	14172.63
624.462	14318.03
624.656	13945.3
624.851	14172.63
625.046	14068.18
625.24	13900.25
625.435	13564.38
625.629	13670.87
625.824	13726.17
626.018	13734.36
626.213	13543.9
626.407	13535.71
626.602	13421.02
626.796	13410.78
626.991	13373.92
627.185	13171.17
627.38	13005.28
627.574	13011.43
627.768	12919.27
627.963	12886.5
628.157	12982.76
628.352	13068.77
628.546	12734.95
628.74	12681.71
628.935	12521.96
629.129	12689.9
629.323	12360.17
629.517	12276.21
629.712	12339.69
629.906	12401.13
630.1	12044.79
630.294	12173.81
630.489	12243.44
630.683	12231.15
630.877	11788.79
631.071	11774.45
631.265	11782.65
631.459	11901.43
631.653	11715.06
631.848	11676.15
632.042	11577.85
632.236	11424.25
632.43	11282.94
632.624	11411.96
632.818	11432.44
633.012	11123.2
633.206	11246.08
633.4	11211.26
633.594	10938.88
633.788	11104.77
633.982	10979.84
634.176	11170.3
634.369	10834.44
634.563	10781.19
634.757	10598.92
634.951	10762.76
635.145	10656.26
635.339	10727.94
635.533	10517
635.726	10521.1
635.92	10377.74
636.114	10414.6
636.308	10373.64
636.501	10252.81
636.695	10148.37
636.889	10076.69
637.083	10115.6
637.276	9931.28
637.47	9931.28
637.664	9941.52
637.857	9949.71
638.051	9681.43
638.244	9710.1
638.438	9845.27
638.632	9716.25
638.825	9863.7
639.019	9658.9
639.212	9507.35
639.406	9636.38
639.599	9409.05
639.793	9294.36
639.986	9146.91
640.18	9388.57
640.373	9337.37
640.567	8981.03
640.76	9212.45
640.954	9077.28
641.147	9103.9
641.34	9177.63
641.534	9009.7
641.727	8731.17
641.92	8903.2
642.114	8675.88
642.307	8679.97
642.5	8669.73
642.694	8624.68
642.887	8421.93
643.08	8718.89
643.273	8596.01
643.467	8407.59
643.66	8352.3
643.853	8516.14
644.046	8155.69
644.239	8337.96
644.432	8354.35
644.626	8153.65
644.819	8172.08
645.012	8061.49
645.205	8153.65
645.398	8137.26
645.591	7954.99
645.784	7987.76
645.977	7830.07
646.17	7846.45
646.363	7852.59
646.556	7772.72
646.749	7819.83
646.942	7649.85
647.135	7537.21
647.328	7717.43
647.521	7639.61
647.714	7535.16
647.907	7502.39
648.099	7395.9
648.292	7408.19
648.485	7449.14
648.678	7385.66
648.871	7301.69
649.064	7137.85
649.256	7293.5
649.449	7207.48
649.642	6990.4
649.835	7092.8
650.027	7041.6
650.22	7119.42
650.413	7100.99
650.605	6967.87
650.798	6910.53
650.991	6918.72
651.183	7039.55
651.376	6787.65
651.568	6834.75
651.761	6804.03
651.954	6656.58
652.146	6734.4
652.339	6750.79
652.531	6621.77
652.724	6523.46
652.916	6466.12
653.109	6412.87
653.301	6345.29
653.494	6257.23
653.686	6564.42
653.879	6396.49
654.071	6226.51
654.263	6179.4
654.456	6253.13
654.648	6349.39
654.84	6105.68
655.033	6109.77
655.225	6034
655.417	5853.78
655.61	6117.97
655.802	6031.95
655.994	5933.65
656.186	5968.46
656.379	5970.51
656.571	5950.03
656.763	5745.23
656.955	5769.81
657.148	5876.3
657.34	5638.74
657.532	5706.32
657.724	5673.56
657.916	5737.04
658.108	5696.08
658.3	5462.62
658.492	5560.92
658.684	5507.67
658.876	5438.04
659.068	5474.9
659.26	5542.49
659.452	5376.6
659.644	5407.32
659.836	5347.93
660.028	5237.34
660.22	5171.8
660.412	5220.95
660.604	5157.47
660.796	5302.87
660.988	5313.11
661.18	5114.46
661.372	5155.42
661.563	4950.62
661.755	4921.95
661.947	5024.35
662.139	5063.26
662.331	4991.58
662.522	4862.56
662.714	4993.63
662.906	4885.09
663.097	4960.86
663.289	4895.33
663.481	4696.68
663.673	4770.4
663.864	4565.6
664.056	4860.51
664.247	4852.32
664.439	4725.35
664.631	4731.49
664.822	4637.28
665.014	4706.91
665.205	4627.04
665.397	4577.89
665.588	4590.18
665.78	4475.49
665.971	4471.4
666.163	4461.16
666.354	4420.2
666.546	4356.71
666.737	4186.73
666.929	4446.82
667.12	4387.43
667.311	4483.69
667.503	4207.21
667.694	4276.84
667.885	4383.34
668.077	4280.94
668.268	4168.3
668.459	4250.22
668.651	4196.97
668.842	4244.07
669.033	4059.76
669.224	4024.94
669.416	4156.01
669.607	4026.99
669.798	4035.18
669.989	4053.61
670.18	3981.93
670.371	3977.84
670.563	3934.83
670.754	3994.22
670.945	4090.48
671.136	3881.58
671.327	3947.12
671.518	3764.85
671.709	3885.68
671.9	3924.59
672.091	3795.57
672.282	3814
672.473	3887.73
672.664	3877.49
672.855	3797.62
673.046	3740.27
673.237	3852.91
673.428	3902.06
673.619	3635.83
673.809	3658.35
674	3738.23
674.191	3734.13
674.382	3711.6
674.573	3762.8
674.764	3633.78
674.954	3689.07
675.145	3676.79
675.336	3658.35
675.527	3531.38
675.717	3508.85
675.908	3443.32
676.099	3502.71
676.289	3549.81
676.48	3502.71
676.671	3471.99
676.861	3463.8
677.052	3574.39
677.243	3410.55
677.433	3336.82
677.624	3656.31
677.814	3478.13
678.005	3369.59
678.195	3533.43
678.386	3388.02
678.576	3369.59
678.767	3369.59
678.957	3449.46
679.148	3353.21
679.338	3355.26
679.529	3304.06
679.719	3273.34
679.909	3394.17
680.1	3418.74
680.29	3265.14
680.481	3246.71
680.671	3273.34
680.861	3222.14
681.052	3390.07
681.242	3166.84
681.432	3349.11
681.622	3269.24
681.813	3213.95
682.003	3238.52
682.193	3250.81
682.383	3342.97
682.573	3164.79
682.764	3246.71
682.954	3117.69
683.144	3205.75
683.334	3066.49
683.524	3197.56
683.714	3150.46
683.904	3172.99
684.094	3170.94
684.284	3197.56
684.474	3183.23
684.664	3201.66
684.854	3123.84
685.044	3013.24
685.234	3070.59
685.424	2943.61
685.614	3103.36
685.804	3005.05
685.994	3037.82
686.184	3025.53
686.374	3000.96
686.564	3035.77
686.753	3033.72
686.943	2951.81
687.133	2951.81
687.323	2902.65
687.513	2996.86
687.702	2880.13
687.892	2878.08
688.082	2921.09
688.272	2910.85
688.461	2857.6
688.651	2923.13
688.841	2845.31
689.03	2863.74
689.22	2855.55
689.41	2796.16
689.599	2779.78
689.789	2777.73
689.979	2824.83
690.168	2828.93
690.358	2640.51
690.547	2708.1
690.737	2747.01
690.926	2675.33
691.116	2738.82
691.305	2716.29
691.495	2794.11
691.684	2689.67
691.874	2699.91
692.063	2574.98
692.252	2720.39
692.442	2624.13
692.631	2583.17
692.82	2636.42
693.01	2581.12
693.199	2615.94
693.388	2529.92
693.578	2599.56
693.767	2558.6
693.956	2538.12
694.146	2495.11
694.335	2550.4
694.524	2525.83
694.713	2355.85
694.902	2439.81
695.092	2462.34
695.281	2452.1
695.47	2497.16
695.659	2468.48
695.848	2439.81
696.037	2503.3
696.226	2329.22
696.415	2427.53
696.604	2304.65
696.793	2441.86
696.982	2437.77
697.171	2491.01
697.36	2370.18
697.549	2386.57
697.738	2321.03
697.927	2337.41
698.116	2271.88
698.305	2421.38
698.494	2314.89
698.683	2378.37
698.872	2290.31
699.061	2239.11
699.25	2241.16
699.438	2275.98
699.627	2290.31
699.816	2349.7
700.005	2237.06
700.193	2353.8
700.382	2314.89
700.571	2230.92
700.76	2282.12
700.948	2247.3
701.137	2302.6
701.326	2255.5
701.514	2294.41
701.703	2214.54
701.892	2361.99
702.08	2288.26
702.269	2292.36
702.457	2226.82
702.646	2177.67
702.834	2318.98
703.023	2058.89
703.212	2255.5
703.4	2280.07
703.589	2105.99
703.777	2134.67
703.965	2142.86
704.154	2149
704.342	2116.23
704.531	2157.19
704.719	2185.87
704.907	2136.71
705.096	2112.14
705.284	2175.63
705.472	2151.05
705.661	2181.77
705.849	2099.85
706.037	2206.34
706.226	2241.16
706.414	2110.09
706.602	2116.23
706.79	2288.26
706.979	2114.19
707.167	2230.92
707.355	2058.89
707.543	2108.04
707.731	2161.29
707.919	2075.27
708.107	2189.96
708.296	2079.37
708.484	2062.99
708.672	2099.85
708.86	2058.89
709.048	2181.77
709.236	2173.58
709.424	2093.71
709.612	2185.87
709.8	2026.12
709.988	2085.51
710.176	2034.32
710.364	2087.56
710.551	2060.94
710.739	2005.64
710.927	2003.6
711.115	2060.94
711.303	2032.27
711.491	2015.88
711.679	1903.25
711.866	2026.12
712.054	2022.03
712.242	2036.36
712.43	2075.27
712.617	2089.61
712.805	1954.44
712.993	1968.78
713.181	2009.74
713.368	2062.99
713.556	2050.7
713.744	1952.4
713.931	2167.43
714.119	2042.51
714.306	1985.16
714.494	2028.17
714.682	2071.18
714.869	1942.16
715.057	2069.13
715.244	1940.11
715.432	2060.94
715.619	2075.27
715.807	2060.94
715.994	2001.55
716.182	1970.83
716.369	2134.67
716.556	1927.82
716.744	2058.89
716.931	1981.07
717.119	2173.58
717.306	2046.6
717.493	2062.99
717.681	2026.12
717.868	2071.18
718.055	1987.21
718.242	1983.12
718.43	2054.8
718.617	1962.64
718.804	2019.98
718.991	1897.1
719.179	2026.12
719.366	2024.08
719.553	2015.88
719.74	2030.22
719.927	1985.16
720.114	1972.88
720.301	1956.49
720.488	1936.01
720.676	1960.59
720.863	2079.37
721.05	2075.27
721.237	1958.54
721.424	1970.83
721.611	1960.59
721.798	1958.54
721.985	1981.07
722.172	1944.2
722.358	1890.96
722.545	2071.18
722.732	1895.05
722.919	2032.27
723.106	1981.07
723.293	2060.94
723.48	1952.4
723.667	1976.97
723.853	2073.23
724.04	2001.55
724.227	1995.4
724.414	1993.36
724.6	2028.17
724.787	1972.88
724.974	2042.51
725.161	1968.78
725.347	1954.44
725.534	1981.07
725.72	2001.55
725.907	1987.21
726.094	1940.11
726.28	2099.85
726.467	2003.6
726.653	1929.87
726.84	2112.14
727.027	2067.08
727.213	1952.4
727.4	2038.41
727.586	1933.97
727.773	2052.75
727.959	1966.73
728.145	1952.4
728.332	1927.82
728.518	1923.73
728.705	1985.16
728.891	2005.64
729.077	2001.55
729.264	1968.78
729.45	1938.06
729.636	2013.84
729.823	2011.79
730.009	2019.98
730.195	2028.17
730.382	1956.49
730.568	1962.64
730.754	1956.49
730.94	1960.59
731.126	2007.69
731.313	1946.25
731.499	2013.84
731.685	1878.67
731.871	2046.6
732.057	1970.83
732.243	2011.79
732.429	1989.26
732.615	1962.64
732.801	1960.59
732.987	2044.56
733.173	1929.87
733.359	1888.91
733.545	1888.91
733.731	2001.55
733.917	2011.79
734.103	1972.88
734.289	1995.4
734.475	1890.96
734.661	2036.36
734.847	2003.6
735.033	2005.64
735.219	1931.92
735.404	1927.82
735.59	2007.69
735.776	1847.95
735.962	2028.17
736.148	1993.36
736.333	1968.78
736.519	1989.26
736.705	1903.25
736.89	1985.16
737.076	2060.94
737.262	1768.08
737.447	1907.34
737.633	1804.94
737.819	1997.45
738.004	1921.68
738.19	1874.57
738.375	1899.15
738.561	2042.51
738.747	1850
738.932	1798.8
739.118	1886.86
739.303	1989.26
739.489	1927.82
739.674	1804.94
739.859	1870.48
740.045	1870.48
740.23	1862.29
740.416	1739.41
740.601	1878.67
740.786	1829.52
740.972	1782.42
741.157	1897.1
741.342	1942.16
741.528	1815.18
741.713	1854.09
741.898	1962.64
742.084	1876.62
742.269	1858.19
742.454	1870.48
742.639	1888.91
742.824	1845.9
743.01	1876.62
743.195	1809.04
743.38	1819.28
743.565	1839.76
743.75	1878.67
743.935	1821.33
744.12	1786.51
744.305	1780.37
744.49	1741.46
744.675	1649.3
744.86	1823.37
745.045	1682.06
745.23	1704.59
745.415	1704.59
745.6	1733.26
745.785	1686.16
745.97	1710.74
746.155	1657.49
746.34	1763.98
746.525	1677.97
746.71	1825.42
746.895	1641.11
747.079	1577.62
747.264	1649.3
747.449	1720.98
747.634	1696.4
747.819	1610.39
748.003	1544.85
748.188	1522.32
748.373	1460.88
748.557	1591.95
748.742	1510.04
748.927	1553.04
749.111	1591.95
749.296	1460.88
749.481	1550.99
749.665	1501.84
749.85	1452.69
750.034	1567.38
750.219	1546.9
750.404	1446.55
750.588	1434.26
750.773	1430.16
750.957	1550.99
751.141	1456.79
751.326	1497.75
751.51	1370.77
751.695	1430.16
751.879	1342.1
752.064	1391.25
752.248	1313.43
752.432	1346.2
752.617	1395.35
752.801	1362.58
752.985	1288.85
753.17	1305.24
753.354	1170.07
753.538	1315.48
753.722	1372.82
753.907	1364.63
754.091	1211.03
754.275	1295
754.459	1276.57
754.643	1231.51
754.828	1335.96
755.012	1305.24
755.196	1192.6
755.38	1286.81
755.564	1204.89
755.748	1227.42
755.932	1188.5
756.116	1305.24
756.3	1272.47
756.484	1186.46
756.668	1176.22
756.852	1104.54
757.036	1200.79
757.22	1215.13
757.404	1161.88
757.588	1092.25
757.772	1153.69
757.956	1039
758.14	1184.41
758.323	1100.44
758.507	1100.44
758.691	1151.64
758.875	1116.83
759.059	1110.68
759.242	1069.72
759.426	1127.07
759.61	1034.91
759.794	977.56
759.977	1112.73
760.161	1053.34
760.345	1075.87
760.528	1055.39
760.712	1092.25
760.895	938.65
761.079	963.23
761.263	969.37
761.446	1073.82
761.63	969.37
761.813	1010.33
761.997	969.37
762.18	961.18
762.364	1024.67
762.547	996
762.731	985.76
762.914	924.32
763.098	965.28
763.281	993.95
763.464	940.7
763.648	993.95
763.831	977.56
764.015	989.85
764.198	1028.76
764.381	895.64
764.564	901.79
764.748	858.78
764.931	973.47
765.114	848.54
765.297	993.95
765.481	916.12
765.664	879.26
765.847	813.73
766.03	940.7
766.213	842.4
766.397	875.17
766.58	832.16
766.763	809.63
766.946	842.4
767.129	889.5
767.312	821.92
767.495	840.35
767.678	920.22
767.861	852.64
768.044	856.73
768.227	893.6
768.41	920.22
768.593	766.62
768.776	834.21
768.959	789.15
769.142	815.77
769.324	797.34
769.507	821.92
769.69	838.3
769.873	905.88
770.056	889.5
770.239	785.05
770.421	889.5
770.604	856.73
770.787	750.24
770.97	803.49
771.152	764.57
771.335	803.49
771.518	803.49
771.7	774.81
771.883	848.54
772.066	850.59
772.248	680.61
772.431	768.67
772.613	862.88
772.796	746.14
772.978	772.77
773.161	758.43
773.343	686.75
773.526	649.89
773.708	764.57
773.891	680.61
774.073	830.11
774.256	764.57
774.438	801.44
774.621	633.5
774.803	719.52
774.985	682.66
775.168	731.81
775.35	668.32
775.532	682.66
775.715	608.93
775.897	684.7
776.079	565.92
776.261	709.28
776.444	670.37
776.626	701.09
776.808	666.27
776.99	633.5
777.173	565.92
777.355	639.65
777.537	641.7
777.719	672.42
777.901	578.21
778.083	594.59
778.265	619.17
778.447	578.21
778.629	633.5
778.811	621.22
778.993	594.59
779.175	621.22
779.357	594.59
779.539	610.98
779.721	547.49
779.903	567.97
780.085	522.91
780.267	553.63
780.449	543.39
780.631	537.25
780.812	567.97
780.994	549.54
781.176	539.3
781.358	543.39
781.54	510.63
781.721	635.55
781.903	555.68
782.085	461.48
782.267	549.54
782.448	455.33
782.63	422.56
782.812	496.29
782.993	473.76
783.175	502.43
783.357	479.91
783.538	428.71
783.72	463.52
783.901	455.33
784.083	447.14
784.264	535.2
784.446	529.06
784.627	451.24
784.809	408.23
784.99	379.56
785.172	430.76
785.353	420.52
785.535	459.43
785.716	412.32
785.897	408.23
786.079	385.7
786.26	436.9
786.441	461.48
786.623	400.04
786.804	381.6
786.985	441
787.167	346.79
787.348	408.23
787.529	285.35
787.71	445.09
787.891	416.42
788.073	359.08
788.254	305.83
788.435	395.94
788.616	432.8
788.797	422.56
788.978	332.45
789.159	428.71
789.34	420.52
789.522	359.08
789.703	340.65
789.884	357.03
790.065	326.31
790.246	404.13
790.427	258.73
790.607	416.42
790.788	363.17
790.969	342.69
791.15	354.98
791.331	346.79
791.512	348.84
791.693	357.03
791.874	361.13
792.054	344.74
792.235	289.45
792.416	273.06
792.597	297.64
792.778	256.68
792.958	324.26
793.139	293.54
793.32	322.21
793.5	297.64
793.681	359.08
793.862	279.21
794.042	256.68
794.223	289.45
794.404	342.69
794.584	215.72
794.765	322.21
794.945	232.1
795.126	279.21
795.306	248.49
795.487	242.34
795.667	258.73
795.848	314.02
796.028	275.11
796.209	318.12
796.389	293.54
796.57	305.83
796.75	297.64
796.93	316.07
797.111	232.1
797.291	240.29
797.471	262.82
797.652	203.43
797.832	293.54
798.012	309.93
798.192	201.38
798.373	248.49
798.553	281.25
798.733	305.83
798.913	246.44
799.093	332.45
799.274	191.14
799.454	215.72
799.634	326.31
799.814	338.6
799.994	293.54
800.174	240.29
800.354	240.29
800.534	219.82
800.714	232.1
800.894	193.19
801.074	223.91
801.254	201.38
801.434	240.29
801.614	248.49
801.794	197.29
801.974	846.49
802.154	252.58
802.334	195.24
802.514	168.62
802.693	250.53
802.873	219.82
803.053	154.28
803.233	187.05
803.413	209.58
803.592	174.76
803.772	203.43
803.952	133.8
804.131	121.51
804.311	213.67
804.491	232.1
804.67	207.53
804.85	125.61
805.03	219.82
805.209	219.82
805.389	141.99
805.568	137.9
805.748	213.67
805.928	185
806.107	174.76
806.287	299.69
806.466	168.62
806.646	217.77
806.825	158.38
807.004	178.86
807.184	187.05
807.363	158.38
807.543	187.05
807.722	178.86
807.901	264.87
808.081	154.28
808.26	107.18
808.439	178.86
808.619	150.18
808.798	182.95
808.977	201.38
809.156	248.49
809.336	154.28
809.515	182.95
809.694	166.57
809.873	158.38
810.052	119.46
810.231	166.57
810.411	150.18
810.59	109.22
810.769	133.8
810.948	133.8
811.127	191.14
811.306	127.66
811.485	137.9
811.664	166.57
811.843	187.05
812.022	182.95
812.201	109.22
812.38	105.13
812.559	101.03
812.737	109.22
812.916	144.04
813.095	115.37
813.274	150.18
813.453	135.85
813.632	92.84
813.811	166.57
813.989	144.04
814.168	137.9
814.347	121.51
814.526	127.66
814.704	148.14
814.883	158.38
815.062	84.65
815.24	146.09
815.419	109.22
815.598	160.42
815.776	84.65
815.955	119.46
816.133	96.94
816.312	111.27
816.49	166.57
816.669	47.79
816.847	125.61
817.026	144.04
817.204	133.8
817.383	86.7
817.561	111.27
817.74	148.14
817.918	121.51
818.097	103.08
818.275	133.8
818.453	68.27
818.632	80.55
818.81	51.88
818.988	35.5
819.167	19.11
819.345	92.84
819.523	78.51
819.701	135.85
819.879	119.46
820.058	195.24
820.236	150.18
820.414	55.98
820.592	101.03
820.77	94.89
820.948	135.85
821.127	51.88
821.305	160.42
821.483	94.89
821.661	160.42
821.839	76.46
822.017	49.83
822.195	166.57
822.373	133.8
822.551	127.66
822.729	127.66
822.907	109.22
823.085	109.22
823.262	109.22
823.44	98.99
823.618	68.27
823.796	72.36
823.974	80.55
824.152	84.65
824.329	64.17
824.507	49.83
824.685	131.75
824.863	96.94
825.04	-7.51
825.218	174.76
825.396	129.7
825.574	88.75
825.751	35.5
825.929	152.23
826.107	101.03
826.284	141.99
826.462	35.5
826.639	47.79
826.817	60.07
826.994	47.79
827.172	78.51
827.349	109.22
827.527	80.55
827.704	101.03
827.882	225.96
828.059	68.27
828.237	86.7
828.414	123.56
828.591	55.98
828.769	10.92
828.946	60.07
829.124	174.76
829.301	84.65
829.478	107.18
829.655	103.08
829.833	109.22
830.01	72.36
830.187	35.5
830.364	12.97
830.542	-1.37
830.719	158.38
830.896	-1.37
831.073	141.99
831.25	84.65
831.427	158.38
831.604	4.78
831.782	92.84
831.959	60.07
832.136	29.35
832.313	146.09
832.49	35.5
832.667	-25.94
832.844	84.65
833.021	105.13
833.198	86.7
833.374	98.99
833.551	111.27
833.728	96.94
833.905	35.5
834.082	37.55
834.259	-56.66
834.436	31.4
834.612	68.27
834.789	158.38
834.966	23.21
835.143	27.31
835.319	51.88
835.496	41.64
835.673	51.88
835.85	27.31
836.026	19.11
836.203	72.36
836.38	12.97
836.556	43.69
836.733	-27.99
836.909	-5.46
837.086	43.69
837.262	27.31
837.439	92.84
837.616	98.99
837.792	31.4
837.968	17.07
838.145	-5.46
838.321	47.79
838.498	55.98
838.674	60.07
838.851	43.69
839.027	92.84
839.203	84.65
839.38	45.74
839.556	21.16
839.732	-36.18
839.909	-1.37
840.085	84.65
840.261	12.97
840.437	29.35
840.614	37.55
840.79	29.35
840.966	80.55
841.142	103.08
841.318	35.5
841.494	-17.75
841.671	84.65
841.847	51.88
842.023	-44.37
842.199	-19.8
842.375	88.75
842.551	76.46
842.727	23.21
842.903	27.31
843.079	51.88
843.255	19.11
843.431	-17.75
843.607	12.97
843.783	15.02
843.959	35.5
844.134	68.27
844.31	64.17
844.486	15.02
844.662	15.02
844.838	-36.18
845.013	33.45
845.189	113.32
845.365	68.27
845.541	12.97
845.716	39.59
845.892	10.92
846.068	51.88
846.244	-5.46
846.419	29.35
846.595	-3.41
846.77	15.02
846.946	68.27
847.122	15.02
847.297	-36.18
847.473	80.55
847.648	23.21
847.824	29.35
847.999	-15.7
848.175	35.5
848.35	39.59
848.526	80.55
848.701	-34.13
848.876	29.35
849.052	74.41
849.227	27.31
849.403	37.55
849.578	2.73
849.753	31.4
849.929	-25.94
850.104	37.55
850.279	43.69
850.454	10.92
850.63	68.27
850.805	31.4
850.98	-5.46
851.155	70.31
851.33	53.93
851.505	0.68
851.681	55.98
851.856	70.31
852.031	43.69
852.206	2.73
852.381	23.21
852.556	4.78
852.731	-13.65
852.906	-7.51
853.081	19.11
853.256	-13.65
853.431	31.4
853.606	21.16
853.781	88.75
853.956	-13.65
854.131	27.31
854.305	51.88
854.48	2.73
854.655	6.83
854.83	-32.08
855.005	-46.42
855.18	6.83
855.354	10.92
855.529	62.12
855.704	51.88
855.879	8.87
856.053	-64.85
856.228	-36.18
856.403	19.11
856.577	-5.46
856.752	21.16
856.926	25.26
857.101	-40.28
857.276	4.78
857.45	12.97
857.625	6.83
857.799	33.45
857.974	55.98
858.148	55.98
858.323	-5.46
858.497	-5.46
858.672	-30.04
858.846	33.45
859.02	19.11
859.195	-30.04
859.369	2.73
859.543	60.07
859.718	12.97
859.892	27.31
860.066	2.73
860.241	27.31
860.415	-13.65
860.589	39.59
860.763	15.02
860.938	19.11
861.112	68.27
861.286	12.97
861.46	19.11
861.634	72.36
861.808	-5.46
861.982	-44.37
862.157	49.83
862.331	10.92
862.505	-60.76
862.679	-60.76
862.853	37.55
863.027	-3.41
863.201	76.46
863.375	-9.56
863.549	-3.41
863.722	39.59
863.896	68.27
864.07	-1.37
864.244	-54.61
864.418	43.69
864.592	-3.41
864.766	64.17
864.939	-40.28
865.113	51.88
865.287	53.93
865.461	21.16
865.634	68.27
865.808	60.07
865.982	6.83
866.156	51.88
866.329	-54.61
866.503	-11.61
866.676	58.03
866.85	90.79
867.024	-3.41
867.197	-42.32
867.371	15.02
867.544	68.27
867.718	-44.37
867.891	84.65
868.065	-30.04
868.238	82.6
868.412	37.55
868.585	31.4
868.759	43.69
868.932	-38.23
869.105	23.21
869.279	76.46
869.452	-71
869.625	-30.04
869.799	15.02
869.972	45.74
870.145	-62.8
870.319	-25.94
870.492	-46.42
870.665	4.78
870.838	-13.65
871.011	-68.95
871.185	39.59
871.358	37.55
871.531	27.31
871.704	31.4
871.877	-34.13
872.05	17.07
872.223	4.78
872.396	-38.23
872.569	-19.8
872.742	37.55
872.915	60.07
873.088	10.92
873.261	10.92
873.434	4.78
873.607	-30.04
873.78	0.68
873.953	76.46
874.126	-62.8
874.299	45.74
874.471	-32.08
874.644	35.5
874.817	27.31
874.99	82.6
875.163	-17.75
875.335	43.69
875.508	-1.37
875.681	45.74
875.853	-15.7
876.026	25.26
876.199	23.21
876.371	6.83
876.544	21.16
876.717	-30.04
876.889	64.17
877.062	2.73
877.234	-3.41
877.407	19.11
877.579	6.83
877.752	55.98
877.924	-9.56
878.097	19.11
878.269	31.4
878.442	-50.52
878.614	-27.99
878.786	-11.61
878.959	-30.04
879.131	-5.46
879.303	17.07
879.476	-3.41
879.648	62.12
879.82	-25.94
879.993	-17.75
880.165	2.73
880.337	-46.42
880.509	15.02
880.681	8.87
880.854	-5.46
881.026	27.31
881.198	15.02
881.37	19.11
881.542	10.92
881.714	-3.41
881.886	-30.04
882.058	88.75
882.23	10.92
882.402	-13.65
882.574	-17.75
882.746	39.59
882.918	-1.37
883.09	41.64
883.262	2.73
883.434	-5.46
883.606	-44.37
883.778	21.16
883.95	72.36
884.122	-30.04
884.293	-19.8
884.465	21.16
884.637	31.4
884.809	-68.95
884.98	37.55
885.152	-9.56
885.324	6.83
885.496	-58.71
885.667	-30.04
885.839	-13.65
886.011	103.08
886.182	62.12
886.354	6.83
886.525	27.31
886.697	68.27
886.869	-17.75
887.04	17.07
887.212	-3.41
887.383	68.27
887.555	-68.95
887.726	-13.65
887.897	17.07
888.069	27.31
888.24	-1.37
888.412	25.26
888.583	-42.32
888.754	62.12
888.926	-71
889.097	29.35
889.268	-32.08
889.44	-21.85
889.611	-56.66
889.782	-40.28
889.953	17.07
890.125	-5.46
890.296	-66.9
890.467	60.07
890.638	41.64
890.809	27.31
890.98	-79.19
891.151	-68.95
891.323	29.35
891.494	-1.37
891.665	47.79
891.836	10.92
892.007	-1.37
892.178	10.92
892.349	35.5
892.52	-44.37
892.691	31.4
892.862	-46.42
893.032	-81.24
893.203	27.31
893.374	43.69
893.545	45.74
893.716	47.79
893.887	2.73
894.057	15.02
894.228	12.97
894.399	-19.8
894.57	76.46
894.74	-9.56
894.911	17.07
895.082	35.5
895.253	60.07
895.423	37.55
895.594	12.97
895.764	10.92
895.935	-11.61
896.106	51.88
896.276	-44.37
896.447	10.92
896.617	-13.65
896.788	-38.23
896.958	53.93
897.129	-13.65
897.299	-36.18
897.47	27.31
897.64	35.5
897.81	-5.46
897.981	43.69
898.151	-54.61
898.322	-13.65
898.492	-46.42
898.662	37.55
898.832	37.55
899.003	10.92
899.173	19.11
899.343	-21.85
899.513	-5.46
