Data from USB4F104151__163__14-44-46-338.txt Node

Date: Thu Mar 13 14:44:46 EDT 2025
User: louis
Spectrometer: USB4F10415
Trigger mode: 4
Integration Time (sec): 2.000000E-2
Scans to average: 1
Electric dark correction enabled: true
Nonlinearity correction enabled: false
Boxcar width: 0
XAxis mode: Wavelengths
Number of Pixels in Spectrum: 3648
>>>>>Begin Spectral Data<<<<<
178.204	-127.14
178.424	-127.14
178.644	-127.14
178.864	-127.14
179.084	-104.62
179.304	51.03
179.524	67.41
179.744	-47.27
179.964	24.4
180.184	1.88
180.404	83.8
180.624	8.02
180.844	-8.36
181.064	-100.52
181.283	-22.7
181.503	-16.55
181.723	-41.13
181.943	-16.55
182.163	48.98
182.383	20.31
182.602	40.79
182.822	114.52
183.042	-32.94
183.262	10.07
183.482	53.08
183.701	67.41
183.921	65.36
184.141	-16.55
184.361	30.55
184.58	61.27
184.8	-8.36
185.02	-14.51
185.239	24.4
185.459	44.88
185.679	63.32
185.898	30.55
186.118	-26.79
186.338	-14.51
186.557	94.04
186.777	-39.08
186.997	-0.17
187.216	12.12
187.436	67.41
187.655	91.99
187.875	40.79
188.095	44.88
188.314	59.22
188.534	59.22
188.753	3.93
188.973	67.41
189.192	36.69
189.412	79.7
189.631	51.03
189.851	8.02
190.07	18.26
190.29	-55.47
190.509	40.79
190.729	-8.36
190.948	34.64
191.168	89.94
191.387	-2.22
191.607	3.93
191.826	42.84
192.045	71.51
192.265	3.93
192.484	36.69
192.704	44.88
192.923	1.88
193.142	53.08
193.362	16.21
193.581	32.6
193.8	61.27
194.02	55.12
194.239	-20.65
194.458	57.17
194.678	-12.46
194.897	120.66
195.116	81.75
195.335	24.4
195.555	1.88
195.774	69.46
195.993	32.6
196.212	10.07
196.432	-53.42
196.651	-6.31
196.87	61.27
197.089	-24.75
197.308	18.26
197.528	77.65
197.747	-30.89
197.966	8.02
198.185	32.6
198.404	18.26
198.623	53.08
198.842	112.47
199.062	36.69
199.281	12.12
199.5	-12.46
199.719	28.5
199.938	-4.27
200.157	38.74
200.376	44.88
200.595	24.4
200.814	53.08
201.033	48.98
201.252	85.84
201.471	67.41
201.69	36.69
201.909	28.5
202.128	57.17
202.347	16.21
202.566	36.69
202.785	-4.27
203.004	38.74
203.223	139.09
203.442	36.69
203.661	18.26
203.879	-0.17
204.098	-8.36
204.317	3.93
204.536	87.89
204.755	32.6
204.974	81.75
205.193	12.12
205.411	165.71
205.63	-30.89
205.849	65.36
206.068	73.56
206.287	16.21
206.505	67.41
206.724	1.88
206.943	26.45
207.162	26.45
207.381	22.36
207.599	40.79
207.818	59.22
208.037	16.21
208.255	-32.94
208.474	42.84
208.693	55.12
208.911	-6.31
209.13	-53.42
209.349	57.17
209.567	34.64
209.786	26.45
210.005	40.79
210.223	-16.55
210.442	26.45
210.661	16.21
210.879	20.31
211.098	75.6
211.316	61.27
211.535	24.4
211.753	28.5
211.972	20.31
212.191	8.02
212.409	69.46
212.628	55.12
212.846	-49.32
213.065	-8.36
213.283	65.36
213.502	-73.9
213.72	26.45
213.938	36.69
214.157	-12.46
214.375	112.47
214.594	57.17
214.812	81.75
215.031	67.41
215.249	-53.42
215.467	28.5
215.686	96.08
215.904	87.89
216.122	10.07
216.341	98.13
216.559	65.36
216.778	67.41
216.996	18.26
217.214	-43.18
217.432	8.02
217.651	24.4
217.869	34.64
218.087	-0.17
218.306	-53.42
218.524	77.65
218.742	38.74
218.96	44.88
219.179	-59.56
219.397	73.56
219.615	34.64
219.833	57.17
220.051	36.69
220.27	77.65
220.488	3.93
220.706	100.18
220.924	48.98
221.142	-8.36
221.36	57.17
221.578	34.64
221.796	-14.51
222.015	-80.04
222.233	48.98
222.451	55.12
222.669	-0.17
222.887	-0.17
223.105	24.4
223.323	53.08
223.541	-6.31
223.759	16.21
223.977	-20.65
224.195	81.75
224.413	110.42
224.631	24.4
224.849	24.4
225.067	44.88
225.285	24.4
225.503	44.88
225.721	-82.09
225.939	85.84
226.157	-12.46
226.375	48.98
226.592	40.79
226.81	8.02
227.028	85.84
227.246	42.84
227.464	-0.17
227.682	34.64
227.9	59.22
228.117	61.27
228.335	51.03
228.553	18.26
228.771	81.75
228.989	14.17
229.206	91.99
229.424	36.69
229.642	30.55
229.86	-16.55
230.077	57.17
230.295	44.88
230.513	75.6
230.731	79.7
230.948	83.8
231.166	79.7
231.384	59.22
231.601	-24.75
231.819	61.27
232.037	32.6
232.254	10.07
232.472	16.21
232.689	16.21
232.907	98.13
233.125	24.4
233.342	48.98
233.56	20.31
233.777	89.94
233.995	-8.36
234.213	32.6
234.43	26.45
234.648	-6.31
234.865	-8.36
235.083	98.13
235.3	42.84
235.518	102.23
235.735	44.88
235.953	132.95
236.17	42.84
236.388	16.21
236.605	18.26
236.822	51.03
237.04	57.17
237.257	65.36
237.475	16.21
237.692	10.07
237.909	-0.17
238.127	40.79
238.344	48.98
238.562	-18.6
238.779	-61.61
238.996	-24.75
239.214	18.26
239.431	114.52
239.648	40.79
239.865	12.12
240.083	67.41
240.3	59.22
240.517	36.69
240.735	85.84
240.952	63.32
241.169	28.5
241.386	18.26
241.603	26.45
241.821	20.31
242.038	91.99
242.255	73.56
242.472	34.64
242.689	89.94
242.907	75.6
243.124	55.12
243.341	-0.17
243.558	20.31
243.775	48.98
243.992	-26.79
244.209	81.75
244.426	75.6
244.643	79.7
244.86	55.12
245.078	65.36
245.295	75.6
245.512	44.88
245.729	-39.08
245.946	124.76
246.163	71.51
246.38	20.31
246.597	10.07
246.814	73.56
247.031	20.31
247.248	51.03
247.464	-0.17
247.681	24.4
247.898	28.5
248.115	106.32
248.332	-0.17
248.549	81.75
248.766	73.56
248.983	114.52
249.2	-8.36
249.417	1.88
249.633	48.98
249.85	-0.17
250.067	40.79
250.284	104.28
250.501	61.27
250.717	42.84
250.934	36.69
251.151	16.21
251.368	-26.79
251.585	24.4
251.801	36.69
252.018	48.98
252.235	46.93
252.451	73.56
252.668	36.69
252.885	81.75
253.102	40.79
253.318	-12.46
253.535	1.88
253.752	81.75
253.968	-32.94
254.185	-53.42
254.401	94.04
254.618	16.21
254.835	-24.75
255.051	75.6
255.268	-0.17
255.484	12.12
255.701	69.46
255.917	36.69
256.134	-77.99
256.351	22.36
256.567	-61.61
256.784	65.36
257	-65.71
257.217	22.36
257.433	77.65
257.65	-24.75
257.866	36.69
258.082	-16.55
258.299	-0.17
258.515	102.23
258.732	42.84
258.948	-4.27
259.165	-0.17
259.381	-0.17
259.597	10.07
259.814	57.17
260.03	57.17
260.246	98.13
260.463	1.88
260.679	32.6
260.895	-16.55
261.112	83.8
261.328	14.17
261.544	-39.08
261.761	73.56
261.977	20.31
262.193	-30.89
262.409	-30.89
262.626	28.5
262.842	57.17
263.058	65.36
263.274	-6.31
263.49	48.98
263.707	32.6
263.923	-45.23
264.139	-14.51
264.355	34.64
264.571	120.66
264.787	51.03
265.004	79.7
265.22	16.21
265.436	48.98
265.652	-8.36
265.868	114.52
266.084	14.17
266.3	28.5
266.516	18.26
266.732	8.02
266.948	26.45
267.164	-37.03
267.38	36.69
267.596	-14.51
267.812	-0.17
268.028	48.98
268.244	104.28
268.46	-24.75
268.676	-41.13
268.892	16.21
269.108	61.27
269.324	24.4
269.54	-47.27
269.756	42.84
269.972	-8.36
270.188	53.08
270.403	16.21
270.619	16.21
270.835	-4.27
271.051	40.79
271.267	8.02
271.483	-12.46
271.698	57.17
271.914	89.94
272.13	61.27
272.346	-24.75
272.562	-0.17
272.777	40.79
272.993	10.07
273.209	24.4
273.425	34.64
273.64	-16.55
273.856	34.64
274.072	46.93
274.287	-24.75
274.503	28.5
274.719	12.12
274.934	81.75
275.15	-4.27
275.366	57.17
275.581	38.74
275.797	32.6
276.012	63.32
276.228	59.22
276.444	51.03
276.659	40.79
276.875	44.88
277.09	98.13
277.306	12.12
277.521	34.64
277.737	32.6
277.952	98.13
278.168	44.88
278.383	-4.27
278.599	48.98
278.814	42.84
279.03	71.51
279.245	77.65
279.461	5.97
279.676	32.6
279.892	53.08
280.107	73.56
280.322	16.21
280.538	48.98
280.753	16.21
280.969	73.56
281.184	65.36
281.399	-8.36
281.615	-24.75
281.83	61.27
282.045	51.03
282.26	18.26
282.476	20.31
282.691	48.98
282.906	-0.17
283.122	81.75
283.337	100.18
283.552	48.98
283.767	18.26
283.983	18.26
284.198	16.21
284.413	-0.17
284.628	1.88
284.843	65.36
285.058	63.32
285.274	69.46
285.489	-24.75
285.704	63.32
285.919	-22.7
286.134	30.55
286.349	-22.7
286.564	18.26
286.779	81.75
286.995	53.08
287.21	46.93
287.425	40.79
287.64	-2.22
287.855	73.56
288.07	24.4
288.285	87.89
288.5	34.64
288.715	-6.31
288.93	46.93
289.145	42.84
289.36	16.21
289.575	26.45
289.79	-41.13
290.004	26.45
290.219	57.17
290.434	10.07
290.649	48.98
290.864	40.79
291.079	-12.46
291.294	40.79
291.509	48.98
291.724	-14.51
291.938	3.93
292.153	55.12
292.368	81.75
292.583	-2.22
292.798	65.36
293.012	-37.03
293.227	81.75
293.442	81.75
293.657	94.04
293.871	75.6
294.086	63.32
294.301	69.46
294.516	59.22
294.73	22.36
294.945	-61.61
295.16	16.21
295.374	40.79
295.589	44.88
295.804	38.74
296.018	24.4
296.233	10.07
296.447	69.46
296.662	16.21
296.877	8.02
297.091	32.6
297.306	73.56
297.52	51.03
297.735	-0.17
297.949	-18.6
298.164	81.75
298.378	51.03
298.593	-18.6
298.807	91.99
299.022	24.4
299.236	73.56
299.451	22.36
299.665	3.93
299.88	-4.27
300.094	-4.27
300.309	-4.27
300.523	65.36
300.737	-37.03
300.952	18.26
301.166	75.6
301.381	-12.46
301.595	-4.27
301.809	-8.36
302.024	-49.32
302.238	-10.41
302.452	63.32
302.667	79.7
302.881	159.57
303.095	-14.51
303.309	16.21
303.524	-55.47
303.738	65.36
303.952	36.69
304.166	-0.17
304.381	-6.31
304.595	67.41
304.809	30.55
305.023	69.46
305.237	8.02
305.452	24.4
305.666	22.36
305.88	38.74
306.094	-20.65
306.308	65.36
306.522	48.98
306.736	3.93
306.95	16.21
307.164	-2.22
307.379	-0.17
307.593	61.27
307.807	91.99
308.021	12.12
308.235	-18.6
308.449	3.93
308.663	55.12
308.877	34.64
309.091	-8.36
309.305	48.98
309.519	-20.65
309.733	69.46
309.947	26.45
310.161	53.08
310.374	83.8
310.588	83.8
310.802	-24.75
311.016	81.75
311.23	38.74
311.444	34.64
311.658	1.88
311.872	1.88
312.085	71.51
312.299	73.56
312.513	57.17
312.727	34.64
312.941	-8.36
313.154	73.56
313.368	-4.27
313.582	-6.31
313.796	24.4
314.009	40.79
314.223	34.64
314.437	-8.36
314.651	81.75
314.864	5.97
315.078	8.02
315.292	40.79
315.505	-32.94
315.719	-16.55
315.933	3.93
316.146	53.08
316.36	24.4
316.573	108.37
316.787	20.31
317.001	55.12
317.214	-41.13
317.428	-2.22
317.641	-41.13
317.855	65.36
318.068	87.89
318.282	-30.89
318.495	85.84
318.709	20.31
318.922	10.07
319.136	85.84
319.349	28.5
319.563	51.03
319.776	73.56
319.99	12.12
320.203	-2.22
320.417	-14.51
320.63	55.12
320.843	53.08
321.057	8.02
321.27	40.79
321.483	-22.7
321.697	12.12
321.91	1.88
322.124	69.46
322.337	67.41
322.55	26.45
322.763	3.93
322.977	53.08
323.19	57.17
323.403	24.4
323.617	32.6
323.83	24.4
324.043	26.45
324.256	55.12
324.469	-24.75
324.683	40.79
324.896	40.79
325.109	34.64
325.322	28.5
325.535	57.17
325.748	75.6
325.962	38.74
326.175	24.4
326.388	106.32
326.601	53.08
326.814	71.51
327.027	-0.17
327.24	57.17
327.453	-22.7
327.666	16.21
327.879	110.42
328.092	118.61
328.305	57.17
328.518	98.13
328.731	-16.55
328.944	77.65
329.157	36.69
329.37	16.21
329.583	180.05
329.796	40.79
330.009	24.4
330.222	40.79
330.435	20.31
330.648	67.41
330.861	8.02
331.073	40.79
331.286	63.32
331.499	40.79
331.712	18.26
331.925	20.31
332.138	65.36
332.35	46.93
332.563	24.4
332.776	51.03
332.989	12.12
333.202	124.76
333.414	-24.75
333.627	34.64
333.84	55.12
334.053	16.21
334.265	46.93
334.478	40.79
334.691	48.98
334.903	44.88
335.116	-41.13
335.329	10.07
335.541	100.18
335.754	75.6
335.966	-8.36
336.179	53.08
336.392	32.6
336.604	57.17
336.817	77.65
337.029	57.17
337.242	8.02
337.454	104.28
337.667	44.88
337.88	91.99
338.092	-10.41
338.305	-22.7
338.517	59.22
338.729	81.75
338.942	89.94
339.154	59.22
339.367	8.02
339.579	53.08
339.792	-65.71
340.004	22.36
340.217	3.93
340.429	3.93
340.641	8.02
340.854	18.26
341.066	40.79
341.278	91.99
341.491	10.07
341.703	-0.17
341.915	10.07
342.128	75.6
342.34	40.79
342.552	1.88
342.764	42.84
342.977	46.93
343.189	65.36
343.401	53.08
343.613	73.56
343.826	16.21
344.038	89.94
344.25	75.6
344.462	8.02
344.674	114.52
344.886	8.02
345.099	100.18
345.311	26.45
345.523	114.52
345.735	53.08
345.947	16.21
346.159	53.08
346.371	8.02
346.583	32.6
346.795	69.46
347.007	-41.13
347.219	57.17
347.431	89.94
347.643	126.8
347.855	40.79
348.067	139.09
348.279	8.02
348.491	26.45
348.703	-18.6
348.915	1.88
349.127	18.26
349.339	-37.03
349.551	51.03
349.763	65.36
349.975	30.55
350.187	26.45
350.399	34.64
350.61	40.79
350.822	40.79
351.034	67.41
351.246	3.93
351.458	75.6
351.669	40.79
351.881	91.99
352.093	26.45
352.305	106.32
352.517	24.4
352.728	46.93
352.94	83.8
353.152	26.45
353.363	16.21
353.575	73.56
353.787	42.84
353.999	46.93
354.21	100.18
354.422	16.21
354.633	-37.03
354.845	14.17
355.057	-6.31
355.268	5.97
355.48	85.84
355.692	3.93
355.903	-24.75
356.115	32.6
356.326	30.55
356.538	98.13
356.749	46.93
356.961	10.07
357.172	36.69
357.384	8.02
357.595	139.09
357.807	26.45
358.018	-8.36
358.23	61.27
358.441	87.89
358.653	1.88
358.864	32.6
359.075	-22.7
359.287	65.36
359.498	59.22
359.709	32.6
359.921	-0.17
360.132	87.89
360.344	38.74
360.555	-8.36
360.766	10.07
360.977	36.69
361.189	57.17
361.4	87.89
361.611	81.75
361.823	51.03
362.034	10.07
362.245	-49.32
362.456	-20.65
362.667	10.07
362.879	48.98
363.09	10.07
363.301	8.02
363.512	-12.46
363.723	8.02
363.935	65.36
364.146	83.8
364.357	-16.55
364.568	24.4
364.779	-14.51
364.99	106.32
365.201	24.4
365.412	40.79
365.623	-0.17
365.834	65.36
366.045	-26.79
366.256	48.98
366.467	128.85
366.678	-8.36
366.889	-8.36
367.1	36.69
367.311	-0.17
367.522	32.6
367.733	81.75
367.944	48.98
368.155	-24.75
368.366	122.71
368.577	69.46
368.788	30.55
368.999	-22.7
369.209	48.98
369.42	94.04
369.631	73.56
369.842	12.12
370.053	24.4
370.264	83.8
370.474	59.22
370.685	53.08
370.896	14.17
371.107	65.36
371.317	116.56
371.528	16.21
371.739	40.79
371.95	106.32
372.16	32.6
372.371	-32.94
372.582	67.41
372.792	34.64
373.003	34.64
373.214	1.88
373.424	81.75
373.635	40.79
373.846	75.6
374.056	36.69
374.267	-4.27
374.477	51.03
374.688	-86.19
374.898	-8.36
375.109	59.22
375.319	106.32
375.53	73.56
375.74	120.66
375.951	-0.17
376.161	65.36
376.372	42.84
376.582	16.21
376.793	57.17
377.003	-8.36
377.214	57.17
377.424	81.75
377.635	40.79
377.845	8.02
378.055	122.71
378.266	-0.17
378.476	71.51
378.686	94.04
378.897	48.98
379.107	48.98
379.317	-16.55
379.528	-4.27
379.738	10.07
379.948	-6.31
380.158	91.99
380.369	28.5
380.579	-16.55
380.789	65.36
380.999	81.75
381.21	22.36
381.42	30.55
381.63	16.21
381.84	73.56
382.05	-28.84
382.261	8.02
382.471	81.75
382.681	85.84
382.891	114.52
383.101	116.56
383.311	-14.51
383.521	40.79
383.731	61.27
383.941	106.32
384.151	98.13
384.361	16.21
384.571	57.17
384.781	130.9
384.991	44.88
385.201	81.75
385.411	108.37
385.621	-4.27
385.831	16.21
386.041	32.6
386.251	24.4
386.461	51.03
386.671	-8.36
386.881	8.02
387.091	83.8
387.301	65.36
387.511	57.17
387.72	40.79
387.93	77.65
388.14	28.5
388.35	53.08
388.56	44.88
388.769	135
388.979	139.09
389.189	32.6
389.399	22.36
389.609	42.84
389.818	85.84
390.028	98.13
390.238	32.6
390.447	42.84
390.657	94.04
390.867	83.8
391.076	71.51
391.286	83.8
391.496	51.03
391.705	-8.36
391.915	75.6
392.125	75.6
392.334	108.37
392.544	85.84
392.753	42.84
392.963	36.69
393.172	91.99
393.382	57.17
393.591	48.98
393.801	-6.31
394.01	94.04
394.22	83.8
394.429	16.21
394.639	106.32
394.848	34.64
395.058	98.13
395.267	149.33
395.477	182.1
395.686	153.43
395.895	57.17
396.105	73.56
396.314	12.12
396.524	71.51
396.733	48.98
396.942	118.61
397.152	83.8
397.361	83.8
397.57	104.28
397.78	98.13
397.989	79.7
398.198	155.47
398.407	61.27
398.617	124.76
398.826	126.8
399.035	51.03
399.244	89.94
399.453	132.95
399.663	124.76
399.872	157.52
400.081	106.32
400.29	130.9
400.499	83.8
400.708	147.28
400.917	116.56
401.127	81.75
401.336	126.8
401.545	118.61
401.754	114.52
401.963	151.38
402.172	108.37
402.381	81.75
402.59	26.45
402.799	102.23
403.008	100.18
403.217	81.75
403.426	106.32
403.635	122.71
403.844	157.52
404.053	108.37
404.262	102.23
404.471	147.28
404.68	81.75
404.888	73.56
405.097	128.85
405.306	151.38
405.515	163.67
405.724	198.48
405.933	159.57
406.142	157.52
406.35	139.09
406.559	100.18
406.768	167.76
406.977	229.2
407.185	159.57
407.394	126.8
407.603	114.52
407.812	282.45
408.02	249.68
408.229	223.06
408.438	118.61
408.646	178
408.855	255.83
409.064	163.67
409.272	270.16
409.481	216.91
409.69	233.3
409.898	282.45
410.107	261.97
410.315	229.2
410.524	227.15
410.733	296.78
410.941	266.07
411.15	331.6
411.358	352.08
411.567	354.13
411.775	302.93
411.984	339.79
412.192	360.27
412.401	309.07
412.609	491.34
412.818	395.09
413.026	419.66
413.234	417.61
413.443	401.23
413.651	499.53
413.86	474.96
414.068	565.07
414.276	538.45
414.485	483.15
414.693	556.88
414.901	638.8
415.11	462.67
415.318	573.26
415.526	550.73
415.734	657.23
415.943	689.99
416.151	628.56
416.359	704.33
416.567	692.04
416.776	730.95
416.984	737.1
417.192	849.74
417.4	782.15
417.608	888.65
417.817	866.12
418.025	933.7
418.233	1050.44
418.441	943.94
418.649	919.37
418.857	1075.01
419.065	1054.53
419.273	1095.49
419.481	1015.62
419.689	1093.44
419.897	1179.46
420.105	1187.65
420.313	1355.58
420.521	1269.57
420.729	1331.01
420.937	1417.02
421.145	1558.33
421.353	1507.13
421.561	1589.05
421.769	1533.76
421.977	1642.3
422.185	1642.3
422.393	1681.21
422.601	1908.54
422.809	1822.52
423.017	1795.9
423.224	2088.76
423.432	1984.31
423.64	2055.99
423.848	2232.12
424.056	2109.24
424.263	2283.31
424.471	2260.79
424.679	2330.42
424.887	2350.9
425.094	2592.56
425.302	2535.21
425.51	2717.48
425.718	2723.63
425.925	2842.41
426.133	2875.18
426.341	2918.18
426.548	3206.95
426.756	3159.85
426.964	3254.05
427.171	3338.02
427.379	3426.08
427.586	3620.64
427.794	3653.41
428.001	3782.43
428.209	4073.24
428.417	3952.41
428.624	4202.26
428.832	4243.22
429.039	4095.77
429.247	4171.54
429.454	4755.21
429.662	4751.12
429.869	4525.84
430.076	4849.42
430.284	4665.1
430.491	4980.49
430.699	5209.86
430.906	5111.56
431.114	5261.06
431.321	5437.19
431.528	5723.9
431.736	6070.01
431.943	6055.67
432.15	6020.86
432.358	6012.67
432.565	6549.23
432.772	6383.35
432.979	6776.56
433.187	6852.33
433.394	6954.73
433.601	7290.6
433.808	7347.94
434.016	7268.07
434.223	7702.24
434.43	7806.69
434.637	7986.91
434.844	8564.43
435.052	8613.59
435.259	8406.74
435.466	8632.02
435.673	8357.59
435.88	9078.47
436.087	9535.17
436.294	9545.41
436.501	9322.18
436.708	9453.25
436.915	9715.39
437.122	10235.58
437.329	10292.92
437.537	10596.02
437.743	10741.43
437.95	10671.79
438.157	11239.08
438.364	11546.28
438.571	11435.69
438.778	11722.4
438.985	12615.32
439.192	12156.57
439.399	12508.82
439.606	12207.77
439.813	12856.98
440.02	13969.02
440.227	13315.72
440.433	13315.72
440.64	13952.64
440.847	13528.71
441.054	14280.32
441.261	15095.41
441.467	14777.97
441.674	14960.24
441.881	15400.55
442.088	15447.66
442.294	15437.42
442.501	15953.51
442.708	16254.56
442.914	16682.58
443.121	17532.49
443.328	17190.48
443.534	18349.63
443.741	17661.51
443.948	17690.18
444.154	18980.4
444.361	18611.77
444.568	18763.32
444.774	18738.74
444.981	19058.23
445.187	19512.88
445.394	20309.54
445.6	20069.92
445.807	22156.8
446.013	21315.09
446.22	21552.65
446.426	22513.15
446.633	22541.82
446.839	23326.19
447.046	22341.12
447.252	23793.13
447.459	23494.13
447.665	23533.04
447.871	24399.33
448.078	25437.65
448.284	24409.57
448.491	25314.77
448.697	26144.2
448.903	26437.06
449.11	26406.34
449.316	25955.79
449.522	26748.35
449.728	27567.54
449.935	27389.36
450.141	27536.82
450.347	28423.59
450.553	27395.51
450.76	27688.37
450.966	28343.72
451.172	28376.48
451.378	28958.11
451.584	28536.23
451.791	29298.07
451.997	29113.75
452.203	29654.42
452.409	29707.66
452.615	29752.72
452.821	28497.31
453.027	28304.81
453.233	30059.91
453.44	28810.65
453.646	29003.16
453.852	28843.42
454.058	29658.51
454.264	28446.12
454.47	29425.04
454.676	28380.58
454.882	29541.78
455.088	27303.35
455.294	27350.45
455.5	27907.5
455.705	28132.78
455.911	27293.11
456.117	26670.53
456.323	26267.08
456.529	24595.93
456.735	25710.03
456.941	24944.09
457.147	25005.53
457.352	24313.31
457.558	23938.54
457.764	23993.83
457.97	23717.36
458.176	23172.6
458.381	23098.87
458.587	21902.86
458.793	22015.49
458.999	20882.97
459.204	22179.33
459.41	21552.65
459.616	20196.9
459.821	20274.72
460.027	20424.22
460.233	19748.39
460.438	18910.77
460.644	19041.84
460.85	18443.84
461.055	17770.05
461.261	17878.6
461.466	16522.84
461.672	15947.36
461.878	17309.26
462.083	16211.55
462.289	15988.32
462.494	15699.56
462.7	15083.12
462.905	14487.16
463.111	15101.55
463.316	14997.1
463.522	14610.04
463.727	15048.3
463.932	14704.24
464.138	14536.31
464.343	14827.12
464.549	14276.22
464.754	14804.6
464.959	14646.9
465.165	14270.08
465.37	13796.99
465.575	13584.01
465.781	13913.73
465.986	13909.63
466.191	13549.19
466.397	13368.97
466.602	12564.12
466.807	13190.8
467.012	13141.64
467.218	13164.17
467.423	12879.5
467.628	12938.9
467.833	13532.81
468.038	13233.8
468.244	12760.72
468.449	13139.6
468.654	12684.95
468.859	12887.7
469.064	12680.85
469.269	12215.96
469.474	12134.04
469.679	12484.25
469.885	12185.24
470.09	12273.31
470.295	12076.7
470.5	11701.92
470.705	11962.01
470.91	11681.44
471.115	11474.6
471.32	11724.45
471.525	11579.04
471.73	11468.45
471.935	11445.93
472.139	11030.19
472.344	11054.76
472.549	10997.42
472.754	10827.44
472.959	10976.94
473.164	10645.17
473.369	10405.56
473.574	10880.69
473.778	10673.84
473.983	10632.88
474.188	10555.06
474.393	9856.7
474.598	9879.23
474.802	10149.56
475.007	9871.04
475.212	10018.49
475.417	9578.18
475.621	9612.99
475.826	9850.56
476.031	9418.44
476.235	9240.26
476.44	9410.25
476.645	9133.77
476.849	9223.88
477.054	8931.02
477.259	8947.4
477.463	8842.96
477.668	8726.22
477.872	9031.37
478.077	8677.07
478.282	8373.97
478.486	8556.24
478.691	8482.52
478.895	8380.12
479.1	8298.2
479.304	8449.75
479.509	7984.86
479.713	8414.93
479.918	8081.11
480.122	7984.86
480.326	8060.63
480.531	8087.26
480.735	7796.45
480.94	7855.84
481.144	8109.79
481.348	7634.66
481.553	7759.58
481.757	7562.98
481.961	7685.86
482.166	7792.35
482.37	7634.66
482.574	7532.26
482.778	8019.67
482.983	7710.43
483.187	7618.27
483.391	7710.43
483.595	7605.99
483.8	7427.81
484.004	7661.28
484.208	7806.69
484.412	7515.87
484.616	7788.25
484.821	7806.69
485.025	7552.74
485.229	7726.82
485.433	7499.49
485.637	7608.03
485.841	7603.94
486.045	7577.31
486.249	7773.92
486.453	7405.28
486.657	7640.8
486.861	7718.62
487.065	7415.52
487.269	7659.23
487.473	7583.46
487.677	7790.3
487.881	7634.66
488.085	7546.59
488.289	7745.25
488.493	7597.79
488.697	7743.2
488.901	7821.02
489.105	7515.87
489.309	7487.2
489.512	7890.65
489.716	7751.39
489.92	7763.68
490.124	7806.69
490.328	7831.26
490.531	7696.1
490.735	7950.04
490.939	7843.55
491.143	7857.89
491.346	7902.94
491.55	8079.07
491.754	8044.25
491.958	7913.18
492.161	7986.91
492.365	8130.27
492.569	8117.98
492.772	8079.07
492.976	7984.86
493.18	8177.37
493.383	8253.14
493.587	8421.08
493.79	8396.5
493.994	8304.34
494.197	8404.69
494.401	8605.39
494.605	8505.04
494.808	8498.9
495.012	8531.67
495.215	8488.66
495.419	8888.01
495.622	8693.46
495.825	8779.47
496.029	8935.12
496.232	9121.48
496.436	8933.07
496.639	9379.53
496.843	9201.35
497.046	9395.91
497.249	9481.92
497.453	9555.65
497.656	9701.06
497.859	9666.24
498.063	9735.87
498.266	10018.49
498.469	9866.94
498.673	9938.62
498.876	10297.02
499.079	10200.76
499.282	10219.19
499.485	10530.48
499.689	10313.4
499.892	10626.74
500.095	10720.95
500.298	11173.55
500.501	10657.46
500.705	11118.25
500.908	11374.25
501.111	11308.71
501.314	11636.39
501.517	11675.3
501.72	11812.51
501.923	11761.31
502.126	11818.66
502.329	12373.66
502.532	12285.59
502.735	12258.97
502.938	12730
503.141	12557.97
503.344	12730
503.547	12600.98
503.75	12942.99
503.953	13244.04
504.156	13418.12
504.359	13354.63
504.562	13334.15
504.765	14040.7
504.968	14040.7
505.17	14096
505.373	14171.77
505.576	14380.67
505.779	14526.07
505.982	14567.03
506.185	15027.82
506.387	14870.13
506.59	15068.78
506.793	15148.65
506.996	15089.26
507.198	15945.31
507.401	15564.39
507.604	15955.55
507.807	16250.46
508.009	16186.97
508.212	16641.62
508.415	16662.1
508.617	16762.45
508.82	16735.83
509.022	16909.91
509.225	17333.84
509.428	17499.72
509.63	17364.56
509.833	17645.13
510.035	18071.11
510.238	18026.05
510.44	18191.94
510.643	18419.26
510.845	18931.25
511.048	18603.58
511.25	18779.7
511.453	18667.06
511.655	19672.62
511.858	19396.14
512.06	19777.06
512.262	20110.88
512.465	19797.54
512.667	20291.1
512.87	20319.78
513.072	20663.83
513.274	20915.73
513.477	21159.44
513.679	21235.22
513.881	21470.73
514.084	21736.97
514.286	21472.78
514.488	22015.49
514.69	22529.53
514.893	22416.9
515.095	22392.32
515.297	22881.78
515.499	23066.1
515.701	23340.53
515.904	23496.17
516.106	23629.29
516.308	23629.29
516.51	24004.07
516.712	24225.25
516.914	24550.88
517.116	24839.64
517.318	24937.94
517.52	24835.55
517.722	25251.28
517.925	25523.66
518.127	25931.21
518.329	26006.98
518.531	26019.27
518.733	26643.9
518.935	26746.3
519.136	26623.42
519.338	27383.22
519.54	27063.74
519.742	27497.91
519.944	27370.93
520.146	28048.81
520.348	28409.25
520.55	28286.37
520.752	28247.46
520.954	28861.85
521.155	29029.79
521.357	28908.96
521.559	29316.5
521.761	29572.5
521.963	29697.42
522.164	29896.08
522.366	30315.91
522.568	30522.76
522.77	30352.77
522.971	30731.65
523.173	30563.71
523.375	30971.26
523.576	30903.68
523.778	31120.76
523.98	31710.58
524.181	31739.25
524.383	31815.02
524.584	32238.95
524.786	32071.02
524.988	31909.23
525.189	32478.57
525.391	32175.47
525.592	32912.74
525.794	32796
525.995	33271.13
526.197	32974.17
526.398	33248.6
526.6	33445.21
526.801	33443.16
527.003	33633.62
527.204	33723.73
527.406	33860.94
527.607	34073.93
527.808	34313.55
528.01	34039.12
528.211	33877.33
528.412	34471.24
528.614	34782.53
528.815	34762.05
529.016	35044.67
529.218	34311.5
529.419	35083.58
529.62	34678.08
529.822	34698.56
530.023	35132.73
530.224	35044.67
530.425	35065.15
530.626	34784.58
530.828	34944.32
531.029	35685.68
531.23	34972.99
531.431	35118.4
531.632	34925.89
531.833	35636.53
532.035	35577.14
532.236	35292.47
532.437	35851.57
532.638	35644.73
532.839	35861.81
533.04	35978.54
533.241	35349.82
533.442	36121.9
533.643	35691.83
533.844	35624.25
534.045	35949.87
534.246	36181.29
534.447	36140.33
534.648	35894.58
534.849	35978.54
535.05	35628.34
535.251	35714.36
535.451	35872.05
535.652	35874.1
535.853	35523.9
536.054	35718.45
536.255	35968.3
536.456	35597.62
536.657	36160.81
536.857	35714.36
537.058	35953.97
537.259	36181.29
537.46	35904.82
537.66	35712.31
537.861	35947.82
538.062	35720.5
538.263	36146.48
538.463	35620.15
538.664	35685.68
538.865	36003.12
539.065	35980.59
539.266	35704.12
539.466	35896.63
539.667	35188.03
539.868	35816.75
540.068	35861.81
540.269	35829.04
540.469	36046.13
540.67	35878.19
540.87	35767.6
541.071	35415.35
541.271	36007.22
541.472	35624.25
541.672	35857.71
541.873	35650.87
542.073	34995.52
542.274	35851.57
542.474	35616.05
542.675	35441.98
542.875	35767.6
543.075	35386.68
543.276	35126.59
543.476	35861.81
543.676	35429.69
543.877	35681.59
544.077	35573.05
544.277	35468.6
544.478	35654.97
544.678	35804.47
544.878	35390.78
545.078	35652.92
545.279	35437.88
545.479	35372.35
545.679	35542.33
545.879	35439.93
546.079	35855.67
546.28	35257.66
546.48	35376.44
546.68	35732.79
546.88	35503.42
547.08	35411.26
547.28	35327.29
547.48	35253.56
547.68	35083.58
547.88	35468.6
548.081	35679.54
548.281	35222.84
548.481	35206.46
548.681	35978.54
548.881	35272
549.081	35448.12
549.28	35251.52
549.48	35562.81
549.68	35167.55
549.88	35724.6
550.08	35136.83
550.28	35278.14
550.48	35413.3
550.68	35200.32
550.88	35065.15
551.08	35409.21
551.279	35067.2
551.479	35044.67
551.679	35116.35
551.879	34936.13
552.079	35337.53
552.278	34870.59
552.478	35149.12
552.678	35360.06
552.878	35398.97
553.077	34970.94
553.277	34657.6
553.477	34952.51
553.676	35079.49
553.876	34991.42
554.076	34676.04
554.275	34913.6
554.475	34682.18
554.674	34766.15
554.874	34633.03
555.074	34731.33
555.273	34710.85
555.473	35050.81
555.672	34403.66
555.872	34432.33
556.071	34596.17
556.271	35108.16
556.47	34702.66
556.67	34628.93
556.869	34690.37
557.068	34854.21
557.268	34385.22
557.467	34755.91
557.667	34325.83
557.866	34381.13
558.065	34262.35
558.265	34440.52
558.464	34180.43
558.663	34803.01
558.863	33879.38
559.062	34442.57
559.261	33752.4
559.461	34157.9
559.66	33721.68
559.859	33795.41
560.058	34219.34
560.258	34086.22
560.457	33422.68
560.656	34403.66
560.855	33543.51
561.054	33926.48
561.253	33316.18
561.453	33713.49
561.652	33688.92
561.851	33690.96
562.05	33588.56
562.249	32922.97
562.448	33287.51
562.647	33314.14
562.846	33275.23
563.045	33318.23
563.244	32834.91
563.443	33353.05
563.642	32673.12
563.841	32951.65
564.04	33035.61
564.239	32996.7
564.438	32644.45
564.637	32847.2
564.836	32810.34
565.035	32292.2
565.234	32482.66
565.432	32437.61
565.631	32152.94
565.83	32451.94
566.029	32333.16
566.228	32449.89
566.427	31651.19
566.625	32216.43
566.824	31505.78
567.023	32134.51
567.222	31290.74
567.42	32296.3
567.619	31964.53
567.818	31778.16
568.016	31612.27
568.215	31935.85
568.414	31497.59
568.612	31528.31
568.811	31358.33
569.01	31583.6
569.208	31184.25
569.407	31333.75
569.605	30842.24
569.804	31274.36
570.002	30469.51
570.201	30975.36
570.4	30463.36
570.598	30498.18
570.797	30686.59
570.995	30631.3
571.193	30233.99
571.392	30883.2
571.59	30422.41
571.789	30240.14
571.987	30264.71
572.186	30432.64
572.384	29771.15
572.582	30571.91
572.781	30295.43
572.979	29824.4
573.177	29525.39
573.376	30201.22
573.574	29760.91
573.772	29554.07
573.971	29767.06
574.169	29404.56
574.367	29099.42
574.565	29830.54
574.763	29339.03
574.962	28925.34
575.16	28689.82
575.358	29177.24
575.556	28816.8
575.754	29031.83
575.952	28747.17
576.151	28730.78
576.349	28626.34
576.547	28814.75
576.745	28915.1
576.943	28546.47
577.141	28468.64
577.339	28579.23
577.537	28304.81
577.735	28220.84
577.933	28085.67
578.131	27921.84
578.329	27964.84
578.527	27649.46
578.725	27968.94
578.923	28093.86
579.121	27583.92
579.319	27430.32
579.516	27819.44
579.714	27737.52
579.912	27340.21
580.11	27104.7
580.308	27360.69
580.506	27162.04
580.704	27307.44
580.901	27440.56
581.099	27346.36
581.297	26977.72
581.495	26676.67
581.692	27200.95
581.89	26650.05
582.088	27014.59
582.285	26746.3
582.483	26973.63
582.681	26410.43
582.878	26242.5
583.076	26078.66
583.274	26447.3
583.471	26197.45
583.669	26271.17
583.866	25992.65
584.064	26031.56
584.262	25937.35
584.459	26088.9
584.657	25869.77
584.854	25726.41
585.052	25443.79
585.249	25988.55
585.447	25722.32
585.644	25126.36
585.841	25458.13
586.039	25566.67
586.236	25058.77
586.434	25155.03
586.631	24905.18
586.828	25112.02
587.026	24919.51
587.223	24757.72
587.42	24946.14
587.618	25212.37
587.815	24622.56
588.012	24761.82
588.21	24677.85
588.407	24796.63
588.604	24251.88
588.801	24366.56
588.999	24274.4
589.196	24014.31
589.393	24079.85
589.59	23911.91
589.787	24042.98
589.984	23647.72
590.182	23739.88
590.379	24290.79
590.576	23850.47
590.773	23770.6
590.97	23434.74
591.167	23582.19
591.364	23162.36
591.561	23619.05
591.758	23139.83
591.955	23533.04
592.152	23274.99
592.349	23344.63
592.546	23219.7
592.743	23072.25
592.94	22846.97
593.137	23066.1
593.334	23006.71
593.531	22488.57
593.727	22898.17
593.924	22883.83
594.121	22339.07
594.318	22722.04
594.515	22281.73
594.712	22808.06
594.908	22134.28
595.105	22392.32
595.302	22056.45
595.499	22011.4
595.696	22068.74
595.892	21833.22
596.089	22121.99
596.286	22035.97
596.482	21700.11
596.679	21818.89
596.876	21839.37
597.072	21575.18
597.269	21640.72
597.466	21644.81
597.662	21448.21
597.859	21292.56
598.055	21274.13
598.252	21061.14
598.448	21394.96
598.645	20993.56
598.841	21159.44
599.038	20983.32
599.234	20889.11
599.431	20663.83
599.627	20659.74
599.824	20749.85
600.02	20647.45
600.217	20938.26
600.413	20655.64
600.609	20282.91
600.806	20303.39
601.002	20487.71
601.198	20252.19
601.395	19983.91
601.591	19938.85
601.787	20141.6
601.984	20127.27
602.18	20262.43
602.376	20176.42
602.572	19764.78
602.769	20045.35
602.965	19607.08
603.161	19873.32
603.357	19686.95
603.553	19662.38
603.75	19568.17
603.946	19316.27
604.142	19449.39
604.338	19385.9
604.534	19600.94
604.73	19183.15
604.926	19375.66
605.122	19011.12
605.318	19103.28
605.514	19013.17
605.71	18957.88
605.906	19019.32
606.102	18894.39
606.298	18779.7
606.494	18697.78
606.69	18687.54
606.886	18521.66
607.082	18599.48
607.278	18724.41
607.474	18316.86
607.67	18269.76
607.866	18329.15
608.062	18779.7
608.257	18253.37
608.453	18185.79
608.649	18144.83
608.845	18177.6
609.041	18122.3
609.236	18325.05
609.432	18153.02
609.628	18114.11
609.824	17841.73
610.019	18058.82
610.215	17854.02
610.411	18026.05
610.606	17905.22
610.802	17899.08
610.998	18036.29
611.193	17948.23
611.389	17684.04
611.584	17761.86
611.78	17602.12
611.976	17661.51
612.171	17479.24
612.367	17442.38
612.562	17487.43
612.758	17172.05
612.953	17284.69
613.149	17397.32
613.344	17391.18
613.539	17430.09
613.735	17167.95
613.93	17188.43
614.126	17022.55
614.321	17282.64
614.517	17161.81
614.712	17118.8
614.907	16852.56
615.103	17198.67
615.298	16748.12
615.493	17188.43
615.688	17030.74
615.884	17051.22
616.079	16682.58
616.274	16787.03
616.47	16842.32
616.665	16907.86
616.86	16735.83
617.055	16582.23
617.25	16713.3
617.445	16942.67
617.641	16414.3
617.836	16774.74
618.031	16352.86
618.226	16684.63
618.421	16197.21
618.616	16690.77
618.811	15973.99
619.006	16309.85
619.201	15855.2
619.396	16229.98
619.591	15930.98
619.786	15978.08
619.981	15523.43
620.176	15992.42
620.371	15711.85
620.566	15681.13
620.761	15572.58
620.956	15660.65
621.151	15609.45
621.346	15361.64
621.541	15249
621.735	15240.81
621.93	15126.13
622.125	15214.19
622.32	15122.03
622.515	14820.98
622.709	14978.67
622.904	14892.66
623.099	14900.85
623.294	14782.07
623.488	14605.94
623.683	14648.95
623.878	14499.45
624.072	14519.93
624.267	14220.92
624.462	14202.49
624.656	13979.26
624.851	14065.28
625.046	14038.66
625.24	13989.5
625.435	13799.04
625.629	13772.42
625.824	13788.8
626.018	13811.33
626.213	13270.67
626.407	13457.03
626.602	13272.71
626.796	13676.16
626.991	13395.59
627.185	13266.57
627.38	13072.01
627.574	12895.89
627.768	12922.51
627.963	12940.94
628.157	12781.2
628.352	12732.05
628.546	12658.32
628.74	12709.52
628.935	12762.77
629.129	12566.17
629.323	12467.86
629.517	12185.24
629.712	12164.76
629.906	12369.56
630.1	12009.12
630.294	12013.21
630.489	11964.06
630.683	12215.96
630.877	12000.93
631.071	11853.47
631.265	11900.58
631.459	11667.11
631.653	11558.56
631.848	11646.63
632.042	11505.32
632.236	11671.2
632.43	11558.56
632.624	11357.86
632.818	11370.15
633.012	11161.26
633.206	11269.8
633.4	11298.47
633.594	11222.7
633.788	11136.68
633.982	11222.7
634.176	11056.81
634.369	10901.17
634.563	10720.95
634.757	10747.57
634.951	10696.37
635.145	10688.18
635.339	10559.16
635.533	10505.91
635.726	10469.05
635.92	10272.44
636.114	10436.28
636.308	10268.34
636.501	10366.65
636.695	10364.6
636.889	9969.34
637.083	10124.99
637.276	9969.34
637.47	9887.42
637.664	10122.94
637.857	9993.92
638.051	9715.39
638.244	9709.25
638.438	9791.17
638.632	9903.81
638.825	9707.2
639.019	9688.77
639.212	9498.31
639.406	9563.84
639.599	9424.58
639.793	9467.59
639.986	9178.83
640.18	9313.99
640.373	9225.93
640.567	9144.01
640.76	9010.89
640.954	9021.13
641.147	9006.8
641.34	8855.25
641.534	8980.17
641.727	9043.66
641.92	8922.83
642.114	8761.04
642.307	8863.44
642.5	8971.98
642.694	8537.81
642.887	8429.27
643.08	8584.91
643.273	8652.5
643.467	8576.72
643.66	8300.25
643.853	8339.16
644.046	8382.17
644.239	8339.16
644.432	8253.14
644.626	8044.25
644.819	8265.43
645.012	8031.96
645.205	8085.21
645.398	8220.38
645.591	7874.27
645.784	7919.32
645.977	7929.56
646.17	7839.45
646.363	7870.17
646.556	7644.9
646.749	7612.13
646.942	7737.06
647.135	7749.34
647.328	7571.17
647.521	7644.9
647.714	7419.62
647.907	7489.25
648.099	7386.85
648.292	7335.65
648.485	7323.37
648.678	7112.42
648.871	7204.58
649.064	7134.95
649.256	7339.75
649.449	7130.86
649.642	6991.59
649.835	7079.66
650.027	6993.64
650.22	6954.73
650.413	6985.45
650.605	6979.31
650.798	6889.2
650.991	6799.09
651.183	6819.57
651.376	6663.92
651.568	6885.1
651.761	6727.41
651.954	6749.93
652.146	6618.86
652.339	6772.46
652.531	6620.91
652.724	6561.52
652.916	6553.33
653.109	6407.92
653.301	6500.08
653.494	6364.92
653.686	6332.15
653.879	6205.17
654.071	6342.39
654.263	6260.47
654.456	6307.57
654.648	6309.62
654.84	6110.97
655.033	6160.12
655.225	6121.21
655.417	6051.58
655.61	6078.2
655.802	6049.53
655.994	5986.04
656.186	6033.15
656.379	6000.38
656.571	5871.36
656.763	5848.83
656.955	5811.96
657.148	5754.62
657.34	5793.53
657.532	5711.61
657.724	5787.39
657.916	5725.95
658.108	5615.36
658.3	5617.41
658.492	5617.41
658.684	5635.84
658.876	5418.75
659.068	5480.19
659.26	5498.63
659.452	5476.1
659.644	5566.21
659.836	5342.98
660.028	5431.04
660.22	5267.2
660.412	5388.04
660.604	5285.64
660.796	5351.17
660.988	5228.29
661.18	5230.34
661.372	5193.48
661.563	5129.99
661.755	5033.74
661.947	4980.49
662.139	4923.15
662.331	5078.79
662.522	4828.94
662.714	4988.68
662.906	4890.38
663.097	4828.94
663.289	4943.63
663.481	4806.41
663.673	4925.19
663.864	4843.28
664.056	4679.44
664.247	4726.54
664.439	4591.38
664.631	4656.91
664.822	4546.32
665.014	4622.09
665.205	4538.13
665.397	4607.76
665.588	4560.66
665.78	4441.87
665.971	4525.84
666.163	4618
666.354	4407.06
666.546	4632.33
666.737	4589.33
666.929	4433.68
667.12	4511.5
667.311	4411.15
667.503	4144.92
667.694	4460.31
667.885	4337.43
668.077	4308.76
668.268	4230.93
668.459	4312.85
668.651	4087.57
668.842	4306.71
669.033	4267.8
669.224	4114.2
669.416	4259.6
669.607	4142.87
669.798	4220.69
669.989	4120.34
670.18	4155.16
670.371	4138.77
670.563	4177.69
670.754	3948.31
670.945	4153.11
671.136	4060.95
671.327	3972.89
671.518	3997.46
671.709	4046.62
671.9	3956.5
672.091	3876.63
672.282	3915.55
672.473	4030.23
672.664	3901.21
672.855	3964.7
673.046	3862.3
673.237	3845.91
673.428	3942.17
673.619	3815.2
673.809	3800.86
674	3737.37
674.191	3901.21
674.382	3778.33
674.573	3757.85
674.764	3751.71
674.954	3780.38
675.145	3737.37
675.336	3704.6
675.527	3716.89
675.717	3718.94
675.908	3669.79
676.099	3606.3
676.289	3673.89
676.48	3524.38
676.671	3632.93
676.861	3591.97
677.052	3538.72
677.243	3628.83
677.433	3573.53
677.624	3741.47
677.814	3522.34
678.005	3544.86
678.195	3647.26
678.386	3526.43
678.576	3563.29
678.767	3366.69
678.957	3426.08
679.148	3540.77
679.338	3565.34
679.529	3526.43
679.719	3510.05
679.909	3432.22
680.1	3411.75
680.29	3514.14
680.481	3489.57
680.671	3395.36
680.861	3497.76
681.052	3432.22
681.242	3366.69
681.432	3426.08
681.622	3284.77
681.813	3442.46
682.003	3333.92
682.193	3415.84
682.383	3458.85
682.573	3268.39
682.764	3358.5
682.954	3215.14
683.144	3247.91
683.334	3342.11
683.524	3295.01
683.714	3196.71
683.904	3399.46
684.094	3321.63
684.284	3243.81
684.474	3385.12
684.664	3182.37
684.854	3260.2
685.044	3352.35
685.234	3170.08
685.424	3122.98
685.614	3082.02
685.804	3223.33
685.994	3129.13
686.184	3272.48
686.374	3118.89
686.564	3120.93
686.753	3133.22
686.943	3137.32
687.133	3229.48
687.323	3202.85
687.513	3084.07
687.702	3024.68
687.892	2975.53
688.082	3006.25
688.272	3198.76
688.461	3135.27
688.651	3088.17
688.841	3073.83
689.03	3028.78
689.22	2942.76
689.41	2881.32
689.599	2942.76
689.789	2924.33
689.979	2924.33
690.168	2993.96
690.358	2948.9
690.547	2950.95
690.737	2869.03
690.926	2803.5
691.116	2764.59
691.305	2920.23
691.495	2850.6
691.684	2879.27
691.874	2725.68
692.063	2785.07
692.252	2828.07
692.442	2881.32
692.631	2871.08
692.82	2670.38
693.01	2752.3
693.199	2565.93
693.388	2664.24
693.578	2729.77
693.767	2766.64
693.956	2654
694.146	2598.7
694.335	2473.78
694.524	2600.75
694.713	2674.48
694.902	2658.09
695.092	2541.36
695.281	2602.8
695.47	2567.98
695.659	2604.85
695.848	2586.41
696.037	2606.89
696.226	2553.65
696.415	2459.44
696.604	2527.02
696.793	2580.27
696.982	2445.1
697.171	2496.3
697.36	2514.73
697.549	2524.97
697.738	2447.15
697.927	2402.1
698.116	2424.62
698.305	2416.43
698.494	2484.02
698.683	2465.58
698.872	2572.08
699.061	2508.59
699.25	2391.86
699.438	2565.93
699.627	2578.22
699.816	2502.45
700.005	2391.86
700.193	2350.9
700.382	2318.13
700.571	2391.86
700.76	2428.72
700.948	2412.34
701.137	2471.73
701.326	2363.19
701.514	2350.9
701.703	2404.14
701.892	2305.84
702.08	2400.05
702.269	2273.07
702.457	2277.17
702.646	2244.4
702.834	2324.27
703.023	2395.95
703.212	2277.17
703.4	2361.14
703.589	2363.19
703.777	2311.99
703.965	2311.99
704.154	2365.23
704.342	2223.92
704.531	2326.32
704.719	2334.51
704.907	2326.32
705.096	2213.68
705.284	2256.69
705.472	2305.84
705.661	2375.47
705.849	2338.61
706.037	2295.6
706.226	2379.57
706.414	2244.4
706.602	2291.51
706.79	2287.41
706.979	2314.03
707.167	2260.79
707.355	2334.51
707.543	2371.38
707.731	2393.9
707.919	2219.83
708.107	2295.6
708.296	2285.36
708.484	2238.26
708.672	2162.48
708.86	2297.65
709.048	2199.35
709.236	2252.59
709.424	2187.06
709.612	2301.75
709.8	2244.4
709.988	2309.94
710.176	2297.65
710.364	2324.27
710.551	2223.92
710.739	2203.44
710.927	2326.32
711.115	2197.3
711.303	2279.22
711.491	2277.17
711.679	2242.36
711.866	2281.27
712.054	2254.64
712.242	2146.1
712.43	2262.83
712.617	2254.64
712.805	2223.92
712.993	2248.5
713.181	2172.72
713.368	2285.36
713.556	2221.88
713.744	2187.06
713.931	2254.64
714.119	2178.87
714.306	2213.68
714.494	2152.24
714.682	2096.95
714.869	2146.1
715.057	2178.87
715.244	2199.35
715.432	2277.17
715.619	2172.72
715.807	2236.21
715.994	2223.92
716.182	2287.41
716.369	2209.59
716.556	2326.32
716.744	2195.25
716.931	2170.68
717.119	2162.48
717.306	2201.4
717.493	2197.3
717.681	2131.76
717.868	2277.17
718.055	2176.82
718.242	2252.59
718.43	2236.21
718.617	2129.72
718.804	2150.2
718.991	2193.2
719.179	2176.82
719.366	2215.73
719.553	2219.83
719.74	2197.3
719.927	2244.4
720.114	2219.83
720.301	2066.23
720.488	2246.45
720.676	2238.26
720.863	2324.27
721.05	2205.49
721.237	2357.04
721.424	2148.15
721.611	2197.3
721.798	2236.21
721.985	2174.77
722.172	2174.77
722.358	2154.29
722.545	2219.83
722.732	2080.57
722.919	2195.25
723.106	2158.39
723.293	2232.12
723.48	2197.3
723.667	2172.72
723.853	2228.02
724.04	2211.64
724.227	2289.46
724.414	2215.73
724.6	2268.98
724.787	2246.45
724.974	2084.66
725.161	2193.2
725.347	2211.64
725.534	2205.49
725.72	2170.68
725.907	2273.07
726.094	2197.3
726.28	2225.97
726.467	2170.68
726.653	2193.2
726.84	2158.39
727.027	2211.64
727.213	2113.33
727.4	2256.69
727.586	2156.34
727.773	2150.2
727.959	2105.14
728.145	2199.35
728.332	2178.87
728.518	2154.29
728.705	2260.79
728.891	2197.3
729.077	2105.14
729.264	2213.68
729.45	2113.33
729.636	2295.6
729.823	2228.02
730.009	2228.02
730.195	2099
730.382	2264.88
730.568	2238.26
730.754	2271.03
730.94	1933.11
731.126	2228.02
731.313	2146.1
731.499	2193.2
731.685	2342.71
731.871	2330.42
732.057	2252.59
732.243	2223.92
732.429	2137.91
732.615	2123.57
732.801	2199.35
732.987	2326.32
733.173	2103.09
733.359	2166.58
733.545	2205.49
733.731	2113.33
733.917	2115.38
734.103	2266.93
734.289	2197.3
734.475	2238.26
734.661	2154.29
734.847	2107.19
735.033	2064.18
735.219	2162.48
735.404	2254.64
735.59	2232.12
735.776	2219.83
735.962	2209.59
736.148	2195.25
736.333	2096.95
736.519	2221.88
736.705	2156.34
736.89	2119.48
737.076	2172.72
737.262	2154.29
737.447	2101.05
737.633	2154.29
737.819	2080.57
738.004	2131.76
738.19	2080.57
738.375	2164.53
738.561	2238.26
738.747	2139.96
738.932	2068.28
739.118	2197.3
739.303	2129.72
739.489	2111.29
739.674	2072.37
739.859	2021.17
740.045	2090.81
740.23	2058.04
740.416	2027.32
740.601	2096.95
740.786	2117.43
740.972	1976.12
741.157	2092.85
741.342	1986.36
741.528	2039.61
741.713	2060.09
741.898	1992.5
742.084	2000.69
742.269	1922.87
742.454	2074.42
742.639	2049.85
742.824	1898.3
743.01	1976.12
743.195	1943.35
743.38	1963.83
743.565	1941.3
743.75	1924.92
743.935	2101.05
744.12	1986.36
744.305	1752.89
744.49	1967.93
744.675	1916.73
744.86	1933.11
745.045	1916.73
745.23	1879.86
745.415	1869.62
745.6	1920.82
745.785	1863.48
745.97	1883.96
746.155	1914.68
746.34	1830.71
746.525	1789.75
746.71	1814.33
746.895	1820.47
747.079	1789.75
747.264	1740.6
747.449	1804.09
747.634	1834.81
747.819	1759.03
748.003	1775.42
748.188	1785.66
748.373	1785.66
748.557	1664.83
748.742	1711.93
748.927	1687.36
749.111	1783.61
749.296	1673.02
749.481	1605.44
749.665	1642.3
749.85	1642.3
750.034	1652.54
750.219	1656.64
750.404	1539.9
750.588	1705.79
750.773	1677.12
750.957	1621.82
751.141	1621.82
751.326	1566.53
751.51	1603.39
751.695	1535.81
751.879	1433.41
752.064	1609.53
752.248	1533.76
752.432	1531.71
752.617	1572.67
752.801	1484.61
752.985	1515.33
753.17	1544
753.354	1615.68
753.538	1423.17
753.722	1511.23
753.907	1394.5
754.091	1337.15
754.275	1433.41
754.459	1382.21
754.643	1378.11
754.828	1378.11
755.012	1498.94
755.196	1306.43
755.38	1402.69
755.564	1318.72
755.748	1322.82
755.932	1281.86
756.116	1359.68
756.3	1296.19
756.484	1371.97
756.668	1367.87
756.852	1242.95
757.036	1251.14
757.22	1261.38
757.404	1310.53
757.588	1290.05
757.772	1281.86
757.956	1234.75
758.14	1277.76
758.323	1281.86
758.507	1195.84
758.691	1234.75
758.875	1238.85
759.059	1197.89
759.242	1099.59
759.426	1181.51
759.61	1230.66
759.794	1154.88
759.977	1142.6
760.161	1222.47
760.345	1099.59
760.528	1204.03
760.712	1072.96
760.895	1107.78
761.079	1216.32
761.263	1140.55
761.446	1130.31
761.63	1056.58
761.813	1134.4
761.997	1025.86
762.18	1099.59
762.364	1126.21
762.547	1105.73
762.731	1040.2
762.914	1056.58
763.098	982.85
763.281	1109.83
763.464	1003.33
763.648	999.24
763.831	993.09
764.015	995.14
764.198	1062.73
764.381	999.24
764.564	1032.01
764.748	909.13
764.931	1019.72
765.114	943.94
765.297	1066.82
765.481	950.09
765.664	927.56
765.847	1027.91
766.03	984.9
766.213	1003.33
766.397	950.09
766.58	800.59
766.763	970.57
766.946	935.75
767.129	900.94
767.312	917.32
767.495	945.99
767.678	816.97
767.861	970.57
768.044	878.41
768.227	941.89
768.41	880.46
768.593	917.32
768.776	925.51
768.959	845.64
769.142	937.8
769.324	894.79
769.507	913.22
769.69	851.78
769.873	853.83
770.056	884.55
770.239	825.16
770.421	995.14
770.604	882.5
770.787	884.55
770.97	800.59
771.152	913.22
771.335	948.04
771.518	837.45
771.7	884.55
771.883	909.13
772.066	892.74
772.248	843.59
772.431	851.78
772.613	784.2
772.796	790.35
772.978	855.88
773.161	892.74
773.343	745.29
773.526	710.47
773.708	728.91
773.891	679.75
774.073	724.81
774.256	804.68
774.438	847.69
774.621	810.82
774.803	790.35
774.985	798.54
775.168	739.15
775.35	722.76
775.532	806.73
775.715	673.61
775.897	747.34
776.079	706.38
776.261	630.6
776.444	712.52
776.626	632.65
776.808	671.56
776.99	624.46
777.173	728.91
777.355	595.79
777.537	646.99
777.719	773.96
777.901	653.13
778.083	585.55
778.265	599.88
778.447	644.94
778.629	655.18
778.811	679.75
778.993	692.04
779.175	601.93
779.357	630.6
779.539	577.36
779.721	626.51
779.903	618.32
780.085	597.84
780.267	618.32
780.449	630.6
780.631	581.45
780.812	614.22
780.994	569.16
781.176	634.7
781.358	509.77
781.54	577.36
781.721	671.56
781.903	577.36
782.085	536.4
782.267	567.12
782.448	483.15
782.63	583.5
782.812	597.84
782.993	567.12
783.175	511.82
783.357	499.53
783.538	556.88
783.72	444.24
783.901	491.34
784.083	491.34
784.264	499.53
784.446	458.57
784.627	474.96
784.809	493.39
784.99	565.07
785.172	491.34
785.353	511.82
785.535	450.38
785.716	497.49
785.897	491.34
786.079	501.58
786.26	483.15
786.441	460.62
786.623	532.3
786.804	419.66
786.985	460.62
787.167	440.14
787.348	479.05
787.529	442.19
787.71	431.95
787.891	419.66
788.073	413.52
788.254	368.46
788.435	442.19
788.616	444.24
788.797	372.56
788.978	429.9
789.159	329.55
789.34	370.51
789.522	337.74
789.703	384.85
789.884	352.08
790.065	448.33
790.246	460.62
790.427	429.9
790.607	384.85
790.788	434
790.969	409.42
791.15	343.89
791.331	407.38
791.512	382.8
791.693	388.94
791.874	376.66
792.054	364.37
792.235	384.85
792.416	286.54
792.597	282.45
792.778	311.12
792.958	401.23
793.139	329.55
793.32	333.65
793.5	368.46
793.681	339.79
793.862	294.74
794.042	395.09
794.223	237.39
794.404	395.09
794.584	280.4
794.765	331.6
794.945	284.5
795.126	362.32
795.306	343.89
795.487	245.59
795.667	395.09
795.848	304.98
796.028	376.66
796.209	360.27
796.389	278.35
796.57	337.74
796.75	354.13
796.93	257.87
797.111	343.89
797.291	270.16
797.471	298.83
797.652	307.02
797.832	251.73
798.012	247.63
798.192	208.72
798.373	227.15
798.553	253.78
798.733	229.2
798.913	253.78
799.093	212.82
799.274	208.72
799.454	294.74
799.634	237.39
799.814	266.07
799.994	331.6
800.174	245.59
800.354	237.39
800.534	218.96
800.714	261.97
800.894	221.01
801.074	253.78
801.254	309.07
801.434	284.5
801.614	280.4
801.794	182.1
801.974	890.7
802.154	178
802.334	290.64
802.514	253.78
802.693	278.35
802.873	200.53
803.053	229.2
803.233	278.35
803.413	200.53
803.592	212.82
803.772	194.39
803.952	169.81
804.131	163.67
804.311	229.2
804.491	343.89
804.67	120.66
804.85	231.25
805.03	212.82
805.209	286.54
805.389	257.87
805.568	206.67
805.748	223.06
805.928	188.24
806.107	175.95
806.287	257.87
806.466	276.31
806.646	182.1
806.825	241.49
807.004	153.43
807.184	204.63
807.363	270.16
807.543	163.67
807.722	214.87
807.901	237.39
808.081	190.29
808.26	214.87
808.439	151.38
808.619	175.95
808.798	155.47
808.977	180.05
809.156	212.82
809.336	159.57
809.515	204.63
809.694	167.76
809.873	98.13
810.052	188.24
810.231	311.12
810.411	184.15
810.59	147.28
810.769	200.53
810.948	264.02
811.127	223.06
811.306	135
811.485	153.43
811.664	223.06
811.843	180.05
812.022	245.59
812.201	190.29
812.38	163.67
812.559	110.42
812.737	175.95
812.916	114.52
813.095	214.87
813.274	188.24
813.453	89.94
813.632	135
813.811	155.47
813.989	108.37
814.168	188.24
814.347	135
814.526	57.17
814.704	245.59
814.883	198.48
815.062	104.28
815.24	212.82
815.419	53.08
815.598	118.61
815.776	184.15
815.955	122.71
816.133	132.95
816.312	100.18
816.49	94.04
816.669	153.43
816.847	77.65
817.026	180.05
817.204	151.38
817.383	157.52
817.561	143.19
817.74	151.38
817.918	118.61
818.097	48.98
818.275	161.62
818.453	167.76
818.632	155.47
818.81	87.89
818.988	91.99
819.167	128.85
819.345	94.04
819.523	108.37
819.701	173.91
819.879	40.79
820.058	26.45
820.236	132.95
820.414	128.85
820.592	98.13
820.77	167.76
820.948	51.03
821.127	124.76
821.305	128.85
821.483	48.98
821.661	118.61
821.839	122.71
822.017	89.94
822.195	102.23
822.373	100.18
822.551	143.19
822.729	83.8
822.907	110.42
823.085	102.23
823.262	106.32
823.44	48.98
823.618	98.13
823.796	83.8
823.974	10.07
824.152	73.56
824.329	128.85
824.507	116.56
824.685	81.75
824.863	126.8
825.04	116.56
825.218	73.56
825.396	94.04
825.574	63.32
825.751	155.47
825.929	147.28
826.107	69.46
826.284	75.6
826.462	89.94
826.639	71.51
826.817	89.94
826.994	57.17
827.172	77.65
827.349	143.19
827.527	77.65
827.704	-0.17
827.882	89.94
828.059	163.67
828.237	116.56
828.414	73.56
828.591	69.46
828.769	122.71
828.946	98.13
829.124	137.04
829.301	114.52
829.478	51.03
829.655	130.9
829.833	118.61
830.01	141.14
830.187	120.66
830.364	116.56
830.542	139.09
830.719	114.52
830.896	114.52
831.073	67.41
831.25	137.04
831.427	98.13
831.604	81.75
831.782	91.99
831.959	89.94
832.136	42.84
832.313	151.38
832.49	89.94
832.667	5.97
832.844	-22.7
833.021	48.98
833.198	98.13
833.374	94.04
833.551	96.08
833.728	65.36
833.905	59.22
834.082	-4.27
834.259	59.22
834.436	149.33
834.612	24.4
834.789	137.04
834.966	12.12
835.143	44.88
835.319	40.79
835.496	147.28
835.673	63.32
835.85	124.76
836.026	79.7
836.203	118.61
836.38	91.99
836.556	48.98
836.733	100.18
836.909	149.33
837.086	-20.65
837.262	8.02
837.439	10.07
837.616	36.69
837.792	67.41
837.968	91.99
838.145	75.6
838.321	67.41
838.498	100.18
838.674	57.17
838.851	94.04
839.027	24.4
839.203	63.32
839.38	141.14
839.556	79.7
839.732	51.03
839.909	1.88
840.085	130.9
840.261	8.02
840.437	38.74
840.614	32.6
840.79	40.79
840.966	106.32
841.142	77.65
841.318	94.04
841.494	48.98
841.671	20.31
841.847	30.55
842.023	24.4
842.199	48.98
842.375	-0.17
842.551	44.88
842.727	110.42
842.903	94.04
843.079	24.4
843.255	114.52
843.431	53.08
843.607	81.75
843.783	67.41
843.959	106.32
844.134	57.17
844.31	53.08
844.486	-20.65
844.662	69.46
844.838	73.56
845.013	57.17
845.189	28.5
845.365	32.6
845.541	51.03
845.716	55.12
845.892	61.27
846.068	20.31
846.244	-30.89
846.419	65.36
846.595	75.6
846.77	32.6
846.946	102.23
847.122	59.22
847.297	79.7
847.473	89.94
847.648	1.88
847.824	28.5
847.999	44.88
848.175	38.74
848.35	18.26
848.526	38.74
848.701	81.75
848.876	61.27
849.052	32.6
849.227	16.21
849.403	85.84
849.578	40.79
849.753	18.26
849.929	48.98
850.104	34.64
850.279	124.76
850.454	63.32
850.63	85.84
850.805	26.45
850.98	36.69
851.155	36.69
851.33	42.84
851.505	-32.94
851.681	32.6
851.856	32.6
852.031	126.8
852.206	65.36
852.381	73.56
852.556	122.71
852.731	42.84
852.906	73.56
853.081	57.17
853.256	42.84
853.431	22.36
853.606	126.8
853.781	-61.61
853.956	-82.09
854.131	73.56
854.305	28.5
854.48	59.22
854.655	-12.46
854.83	106.32
855.005	48.98
855.18	44.88
855.354	30.55
855.529	75.6
855.704	69.46
855.879	48.98
856.053	-14.51
856.228	77.65
856.403	1.88
856.577	77.65
856.752	26.45
856.926	34.64
857.101	24.4
857.276	-0.17
857.45	61.27
857.625	16.21
857.799	-49.32
857.974	65.36
858.148	-49.32
858.323	67.41
858.497	3.93
858.672	-28.84
858.846	44.88
859.02	65.36
859.195	53.08
859.369	14.17
859.543	8.02
859.718	-24.75
859.892	89.94
860.066	32.6
860.241	-12.46
860.415	18.26
860.589	-12.46
860.763	16.21
860.938	10.07
861.112	77.65
861.286	98.13
861.46	32.6
861.634	30.55
861.808	-30.89
861.982	108.37
862.157	-8.36
862.331	36.69
862.505	-8.36
862.679	22.36
862.853	24.4
863.027	-71.85
863.201	61.27
863.375	-0.17
863.549	-0.17
863.722	30.55
863.896	83.8
864.07	59.22
864.244	-22.7
864.418	40.79
864.592	-8.36
864.766	24.4
864.939	102.23
865.113	59.22
865.287	67.41
865.461	87.89
865.634	-71.85
865.808	24.4
865.982	16.21
866.156	28.5
866.329	10.07
866.503	32.6
866.676	89.94
866.85	1.88
867.024	28.5
867.197	57.17
867.371	22.36
867.544	-22.7
867.718	-0.17
867.891	40.79
868.065	-26.79
868.238	12.12
868.412	-2.22
868.585	48.98
868.759	-49.32
868.932	-10.41
869.105	14.17
869.279	16.21
869.452	118.61
869.625	48.98
869.799	-69.8
869.972	-22.7
870.145	-0.17
870.319	-0.17
870.492	71.51
870.665	-61.61
870.838	8.02
871.011	-65.71
871.185	34.64
871.358	-32.94
871.531	-0.17
871.704	28.5
871.877	59.22
872.05	-39.08
872.223	-28.84
872.396	61.27
872.569	34.64
872.742	-61.61
872.915	26.45
873.088	-32.94
873.261	-16.55
873.434	3.93
873.607	22.36
873.78	65.36
873.953	-12.46
874.126	5.97
874.299	-32.94
874.471	1.88
874.644	34.64
874.817	73.56
874.99	73.56
875.163	5.97
875.335	38.74
875.508	3.93
875.681	57.17
875.853	10.07
876.026	10.07
876.199	44.88
876.371	-43.18
876.544	-67.75
876.717	10.07
876.889	-45.23
877.062	38.74
877.234	-14.51
877.407	-8.36
877.579	48.98
877.752	8.02
877.924	34.64
878.097	28.5
878.269	10.07
878.442	51.03
878.614	24.4
878.786	10.07
878.959	-32.94
879.131	69.46
879.303	-65.71
879.476	-71.85
879.648	42.84
879.82	-2.22
879.993	67.41
880.165	-12.46
880.337	-24.75
880.509	30.55
880.681	28.5
880.854	10.07
881.026	3.93
881.198	65.36
881.37	-2.22
881.542	61.27
881.714	-0.17
881.886	10.07
882.058	-6.31
882.23	38.74
882.402	16.21
882.574	3.93
882.746	28.5
882.918	-6.31
883.09	-49.32
883.262	-30.89
883.434	-4.27
883.606	-16.55
883.778	18.26
883.95	67.41
884.122	42.84
884.293	24.4
884.465	8.02
884.637	-51.37
884.809	32.6
884.98	-37.03
885.152	106.32
885.324	67.41
885.496	3.93
885.667	16.21
885.839	-49.32
886.011	24.4
886.182	-0.17
886.354	85.84
886.525	3.93
886.697	-14.51
886.869	-16.55
887.04	26.45
887.212	59.22
887.383	61.27
887.555	24.4
887.726	24.4
887.897	-6.31
888.069	24.4
888.24	36.69
888.412	-30.89
888.583	-10.41
888.754	24.4
888.926	-6.31
889.097	59.22
889.268	-123.05
889.44	-12.46
889.611	-131.24
889.782	-121
889.953	-24.75
890.125	8.02
890.296	-41.13
890.467	20.31
890.638	-45.23
890.809	57.17
890.98	-39.08
891.151	14.17
891.323	73.56
891.494	12.12
891.665	38.74
891.836	98.13
892.007	22.36
892.178	38.74
892.349	-20.65
892.52	-16.55
892.691	32.6
892.862	-16.55
893.032	-16.55
893.203	16.21
893.374	-8.36
893.545	57.17
893.716	-30.89
893.887	42.84
894.057	32.6
894.228	5.97
894.399	18.26
894.57	34.64
894.74	-37.03
894.911	3.93
895.082	8.02
895.253	10.07
895.423	-30.89
895.594	16.21
895.764	-32.94
895.935	40.79
896.106	26.45
896.276	-12.46
896.447	-8.36
896.617	26.45
896.788	34.64
896.958	63.32
897.129	-24.75
897.299	-53.42
897.47	69.46
897.64	30.55
897.81	40.79
897.981	-53.42
898.151	-0.17
898.322	44.88
898.492	-43.18
898.662	32.6
898.832	-32.94
899.003	48.98
899.173	44.88
899.343	28.5
899.513	-61.61
