Data from USB4F104151__162__14-44-45-998.txt Node

Date: Thu Mar 13 14:44:45 EDT 2025
User: louis
Spectrometer: USB4F10415
Trigger mode: 4
Integration Time (sec): 2.000000E-2
Scans to average: 1
Electric dark correction enabled: true
Nonlinearity correction enabled: false
Boxcar width: 0
XAxis mode: Wavelengths
Number of Pixels in Spectrum: 3648
>>>>>Begin Spectral Data<<<<<
178.204	-141.31
178.424	-141.31
178.644	-141.31
178.864	-79.87
179.084	-149.5
179.304	-18.43
179.524	-38.91
179.744	-30.72
179.964	-34.82
180.184	53.25
180.404	24.58
180.624	20.48
180.844	10.24
181.064	-2.05
181.283	-18.43
181.503	14.34
181.723	20.48
181.943	-34.82
182.163	65.53
182.383	10.24
182.602	63.49
182.822	63.49
183.042	6.14
183.262	79.87
183.482	55.3
183.701	59.39
183.921	77.82
184.141	-16.38
184.361	-75.77
184.58	-18.43
184.8	24.58
185.02	6.14
185.239	98.3
185.459	14.34
185.679	10.24
185.898	-2.05
186.118	36.86
186.338	53.25
186.557	-32.77
186.777	-73.73
186.997	26.62
187.216	-32.77
187.436	79.87
187.655	83.97
187.875	40.96
188.095	57.34
188.314	106.49
188.534	43.01
188.753	47.1
188.973	-4.1
189.192	24.58
189.412	24.58
189.631	-8.19
189.851	28.67
190.07	16.38
190.29	-49.15
190.509	8.19
190.729	-10.24
190.948	122.88
191.168	151.55
191.387	120.83
191.607	22.53
191.826	2.05
192.045	-49.15
192.265	-2.05
192.484	90.11
192.704	30.72
192.923	8.19
193.142	49.15
193.362	-32.77
193.581	83.97
193.8	34.82
194.02	14.34
194.239	6.14
194.458	38.91
194.678	28.67
194.897	-6.14
195.116	26.62
195.335	6.14
195.555	36.86
195.774	47.1
195.993	71.68
196.212	55.3
196.432	24.58
196.651	22.53
196.87	-32.77
197.089	83.97
197.308	57.34
197.528	116.73
197.747	47.1
197.966	26.62
198.185	26.62
198.404	-51.2
198.623	24.58
198.842	88.06
199.062	49.15
199.281	47.1
199.5	-16.38
199.719	22.53
199.938	34.82
200.157	55.3
200.376	-20.48
200.595	22.53
200.814	83.97
201.033	20.48
201.252	90.11
201.471	40.96
201.69	49.15
201.909	-18.43
202.128	24.58
202.347	10.24
202.566	32.77
202.785	-51.2
203.004	34.82
203.223	155.65
203.442	10.24
203.661	4.1
203.879	2.05
204.098	71.68
204.317	-30.72
204.536	49.15
204.755	-8.19
204.974	55.3
205.193	47.1
205.411	36.86
205.63	-2.05
205.849	73.73
206.068	6.14
206.287	40.96
206.505	26.62
206.724	-24.58
206.943	-40.96
207.162	-45.06
207.381	-24.58
207.599	16.38
207.818	40.96
208.037	24.58
208.255	53.25
208.474	71.68
208.693	47.1
208.911	47.1
209.13	71.68
209.349	63.49
209.567	47.1
209.786	114.69
210.005	30.72
210.223	20.48
210.442	-43.01
210.661	14.34
210.879	-14.34
211.098	71.68
211.316	-75.77
211.535	71.68
211.753	-8.19
211.972	30.72
212.191	65.53
212.409	30.72
212.628	38.91
212.846	14.34
213.065	106.49
213.283	47.1
213.502	22.53
213.72	55.3
213.938	40.96
214.157	79.87
214.375	59.39
214.594	38.91
214.812	-6.14
215.031	24.58
215.249	-34.82
215.467	81.92
215.686	-22.53
215.904	81.92
216.122	34.82
216.341	63.49
216.559	-2.05
216.778	-8.19
216.996	114.69
217.214	77.82
217.432	-24.58
217.651	71.68
217.869	4.1
218.087	63.49
218.306	-18.43
218.524	98.3
218.742	47.1
218.96	51.2
219.179	18.43
219.397	83.97
219.615	61.44
219.833	59.39
220.051	-40.96
220.27	57.34
220.488	79.87
220.706	26.62
220.924	-30.72
221.142	-36.86
221.36	-43.01
221.578	34.82
221.796	88.06
222.015	75.77
222.233	67.58
222.451	47.1
222.669	-26.62
222.887	112.64
223.105	18.43
223.323	36.86
223.541	2.05
223.759	40.96
223.977	51.2
224.195	71.68
224.413	43.01
224.631	-26.62
224.849	59.39
225.067	126.97
225.285	2.05
225.503	-28.67
225.721	-57.34
225.939	34.82
226.157	20.48
226.375	104.45
226.592	18.43
226.81	40.96
227.028	43.01
227.246	8.19
227.464	38.91
227.682	-10.24
227.9	-10.24
228.117	30.72
228.335	24.58
228.553	40.96
228.771	34.82
228.989	88.06
229.206	75.77
229.424	-73.73
229.642	6.14
229.86	22.53
230.077	32.77
230.295	65.53
230.513	88.06
230.731	43.01
230.948	88.06
231.166	10.24
231.384	30.72
231.601	55.3
231.819	38.91
232.037	-57.34
232.254	18.43
232.472	71.68
232.689	6.14
232.907	22.53
233.125	-36.86
233.342	0
233.56	55.3
233.777	2.05
233.995	-63.49
234.213	34.82
234.43	38.91
234.648	63.49
234.865	8.19
235.083	12.29
235.3	-18.43
235.518	22.53
235.735	40.96
235.953	8.19
236.17	22.53
236.388	8.19
236.605	36.86
236.822	98.3
237.04	67.58
237.257	16.38
237.475	51.2
237.692	71.68
237.909	28.67
238.127	24.58
238.344	38.91
238.562	88.06
238.779	-57.34
238.996	8.19
239.214	30.72
239.431	43.01
239.648	24.58
239.865	79.87
240.083	30.72
240.3	-16.38
240.517	-10.24
240.735	57.34
240.952	26.62
241.169	45.06
241.386	-47.1
241.603	-14.34
241.821	20.48
242.038	14.34
242.255	47.1
242.472	6.14
242.689	-2.05
242.907	63.49
243.124	-14.34
243.341	51.2
243.558	-2.05
243.775	-18.43
243.992	-16.38
244.209	45.06
244.426	43.01
244.643	55.3
244.86	45.06
245.078	34.82
245.295	51.2
245.512	88.06
245.729	-18.43
245.946	63.49
246.163	51.2
246.38	4.1
246.597	47.1
246.814	71.68
247.031	18.43
247.248	32.77
247.464	30.72
247.681	-34.82
247.898	-14.34
248.115	49.15
248.332	59.39
248.549	10.24
248.766	38.91
248.983	55.3
249.2	14.34
249.417	61.44
249.633	26.62
249.85	55.3
250.067	57.34
250.284	26.62
250.501	36.86
250.717	104.45
250.934	38.91
251.151	47.1
251.368	2.05
251.585	90.11
251.801	43.01
252.018	57.34
252.235	49.15
252.451	53.25
252.668	0
252.885	112.64
253.102	63.49
253.318	-34.82
253.535	18.43
253.752	-24.58
253.968	18.43
254.185	69.63
254.401	75.77
254.618	71.68
254.835	8.19
255.051	22.53
255.268	-22.53
255.484	18.43
255.701	-22.53
255.917	20.48
256.134	-22.53
256.351	-6.14
256.567	-2.05
256.784	22.53
257	-34.82
257.217	10.24
257.433	83.97
257.65	16.38
257.866	51.2
258.082	-51.2
258.299	30.72
258.515	86.01
258.732	40.96
258.948	-2.05
259.165	32.77
259.381	71.68
259.597	2.05
259.814	6.14
260.03	57.34
260.246	32.77
260.463	61.44
260.679	30.72
260.895	2.05
261.112	18.43
261.328	63.49
261.544	57.34
261.761	94.21
261.977	38.91
262.193	-24.58
262.409	-26.62
262.626	112.64
262.842	-34.82
263.058	-51.2
263.274	38.91
263.49	-18.43
263.707	73.73
263.923	-16.38
264.139	-65.54
264.355	77.82
264.571	30.72
264.787	-4.1
265.004	96.25
265.22	59.39
265.436	79.87
265.652	36.86
265.868	63.49
266.084	8.19
266.3	-4.1
266.516	26.62
266.732	-6.14
266.948	55.3
267.164	30.72
267.38	-10.24
267.596	88.06
267.812	133.12
268.028	51.2
268.244	47.1
268.46	-43.01
268.676	47.1
268.892	34.82
269.108	30.72
269.324	34.82
269.54	-12.29
269.756	61.44
269.972	-10.24
270.188	73.73
270.403	-2.05
270.619	32.77
270.835	40.96
271.051	102.4
271.267	-2.05
271.483	61.44
271.698	34.82
271.914	43.01
272.13	-16.38
272.346	6.14
272.562	-24.58
272.777	49.15
272.993	-40.96
273.209	30.72
273.425	16.38
273.64	88.06
273.856	65.53
274.072	-26.62
274.287	71.68
274.503	57.34
274.719	10.24
274.934	88.06
275.15	14.34
275.366	-16.38
275.581	36.86
275.797	18.43
276.012	55.3
276.228	6.14
276.444	-26.62
276.659	49.15
276.875	20.48
277.09	28.67
277.306	10.24
277.521	65.53
277.737	92.16
277.952	40.96
278.168	32.77
278.383	30.72
278.599	57.34
278.814	18.43
279.03	120.83
279.245	22.53
279.461	-18.43
279.676	30.72
279.892	-79.87
280.107	6.14
280.322	-18.43
280.538	14.34
280.753	-38.91
280.969	47.1
281.184	90.11
281.399	96.25
281.615	-32.77
281.83	0
282.045	38.91
282.26	-2.05
282.476	16.38
282.691	65.53
282.906	20.48
283.122	8.19
283.337	55.3
283.552	6.14
283.767	-4.1
283.983	40.96
284.198	-30.72
284.413	36.86
284.628	26.62
284.843	57.34
285.058	51.2
285.274	55.3
285.489	34.82
285.704	16.38
285.919	8.19
286.134	-47.1
286.349	10.24
286.564	59.39
286.779	92.16
286.995	38.91
287.21	-49.15
287.425	6.14
287.64	34.82
287.855	-2.05
288.07	-8.19
288.285	-18.43
288.5	59.39
288.715	55.3
288.93	49.15
289.145	24.58
289.36	77.82
289.575	8.19
289.79	-36.86
290.004	73.73
290.219	137.21
290.434	-2.05
290.649	14.34
290.864	-22.53
291.079	0
291.294	30.72
291.509	-28.67
291.724	-2.05
291.938	45.06
292.153	61.44
292.368	-49.15
292.583	73.73
292.798	75.77
293.012	63.49
293.227	12.29
293.442	-12.29
293.657	-38.91
293.871	34.82
294.086	40.96
294.301	34.82
294.516	96.25
294.73	-30.72
294.945	-34.82
295.16	51.2
295.374	34.82
295.589	88.06
295.804	22.53
296.018	-32.77
296.233	63.49
296.447	47.1
296.662	67.58
296.877	137.21
297.091	55.3
297.306	12.29
297.52	36.86
297.735	67.58
297.949	18.43
298.164	61.44
298.378	8.19
298.593	14.34
298.807	26.62
299.022	0
299.236	2.05
299.451	22.53
299.665	-4.1
299.88	30.72
300.094	8.19
300.309	73.73
300.523	96.25
300.737	30.72
300.952	14.34
301.166	14.34
301.381	20.48
301.595	-24.58
301.809	104.45
302.024	63.49
302.238	-40.96
302.452	-18.43
302.667	106.49
302.881	96.25
303.095	57.34
303.309	-10.24
303.524	24.58
303.738	34.82
303.952	38.91
304.166	30.72
304.381	-4.1
304.595	51.2
304.809	-24.58
305.023	-18.43
305.237	59.39
305.452	59.39
305.666	38.91
305.88	67.58
306.094	108.54
306.308	63.49
306.522	30.72
306.736	71.68
306.95	18.43
307.164	16.38
307.379	-61.44
307.593	67.58
307.807	73.73
308.021	38.91
308.235	6.14
308.449	-16.38
308.663	24.58
308.877	122.88
309.091	34.82
309.305	51.2
309.519	-40.96
309.733	57.34
309.947	-36.86
310.161	14.34
310.374	73.73
310.588	100.35
310.802	14.34
311.016	30.72
311.23	51.2
311.444	10.24
311.658	24.58
311.872	96.25
312.085	18.43
312.299	32.77
312.513	16.38
312.727	92.16
312.941	2.05
313.154	94.21
313.368	22.53
313.582	57.34
313.796	38.91
314.009	32.77
314.223	108.54
314.437	57.34
314.651	-12.29
314.864	47.1
315.078	88.06
315.292	47.1
315.505	63.49
315.719	32.77
315.933	34.82
316.146	38.91
316.36	-8.19
316.573	22.53
316.787	47.1
317.001	22.53
317.214	51.2
317.428	28.67
317.641	30.72
317.855	28.67
318.068	92.16
318.282	-2.05
318.495	71.68
318.709	-14.34
318.922	2.05
319.136	6.14
319.349	22.53
319.563	-4.1
319.776	26.62
319.99	-4.1
320.203	67.58
320.417	40.96
320.63	79.87
320.843	57.34
321.057	83.97
321.27	73.73
321.483	92.16
321.697	83.97
321.91	22.53
322.124	43.01
322.337	-16.38
322.55	61.44
322.763	20.48
322.977	-16.38
323.19	73.73
323.403	55.3
323.617	43.01
323.83	14.34
324.043	51.2
324.256	22.53
324.469	0
324.683	49.15
324.896	14.34
325.109	34.82
325.322	14.34
325.535	-6.14
325.748	22.53
325.962	104.45
326.175	38.91
326.388	38.91
326.601	106.49
326.814	59.39
327.027	-59.39
327.24	47.1
327.453	-34.82
327.666	88.06
327.879	16.38
328.092	-16.38
328.305	36.86
328.518	131.07
328.731	2.05
328.944	38.91
329.157	112.64
329.37	-43.01
329.583	104.45
329.796	22.53
330.009	-10.24
330.222	38.91
330.435	40.96
330.648	-2.05
330.861	36.86
331.073	38.91
331.286	12.29
331.499	63.49
331.712	-34.82
331.925	55.3
332.138	65.53
332.35	47.1
332.563	57.34
332.776	38.91
332.989	36.86
333.202	30.72
333.414	28.67
333.627	47.1
333.84	12.29
334.053	8.19
334.265	63.49
334.478	20.48
334.691	20.48
334.903	-65.54
335.116	38.91
335.329	55.3
335.541	45.06
335.754	63.49
335.966	0
336.179	55.3
336.392	51.2
336.604	22.53
336.817	32.77
337.029	92.16
337.242	63.49
337.454	-20.48
337.667	57.34
337.88	38.91
338.092	16.38
338.305	57.34
338.517	55.3
338.729	55.3
338.942	118.78
339.154	14.34
339.367	16.38
339.579	16.38
339.792	67.58
340.004	38.91
340.217	26.62
340.429	122.88
340.641	38.91
340.854	30.72
341.066	63.49
341.278	-6.14
341.491	67.58
341.703	63.49
341.915	43.01
342.128	120.83
342.34	88.06
342.552	47.1
342.764	0
342.977	71.68
343.189	-2.05
343.401	131.07
343.613	65.53
343.826	47.1
344.038	40.96
344.25	8.19
344.462	75.77
344.674	65.53
344.886	38.91
345.099	55.3
345.311	73.73
345.523	8.19
345.735	26.62
345.947	49.15
346.159	65.53
346.371	71.68
346.583	-2.05
346.795	55.3
347.007	57.34
347.219	88.06
347.431	28.67
347.643	79.87
347.855	40.96
348.067	20.48
348.279	-73.73
348.491	2.05
348.703	108.54
348.915	22.53
349.127	73.73
349.339	63.49
349.551	-67.58
349.763	36.86
349.975	-4.1
350.187	28.67
350.399	71.68
350.61	34.82
350.822	51.2
351.034	96.25
351.246	86.01
351.458	98.3
351.669	51.2
351.881	-8.19
352.093	83.97
352.305	51.2
352.517	40.96
352.728	90.11
352.94	12.29
353.152	43.01
353.363	-18.43
353.575	88.06
353.787	40.96
353.999	-8.19
354.21	43.01
354.422	32.77
354.633	16.38
354.845	83.97
355.057	32.77
355.268	47.1
355.48	100.35
355.692	-59.39
355.903	32.77
356.115	-6.14
356.326	-8.19
356.538	96.25
356.749	2.05
356.961	67.58
357.172	24.58
357.384	4.1
357.595	67.58
357.807	104.45
358.018	24.58
358.23	-2.05
358.441	88.06
358.653	104.45
358.864	18.43
359.075	38.91
359.287	98.3
359.498	61.44
359.709	38.91
359.921	-32.77
360.132	24.58
360.344	40.96
360.555	47.1
360.766	24.58
360.977	8.19
361.189	112.64
361.4	24.58
361.611	22.53
361.823	55.3
362.034	-30.72
362.245	65.53
362.456	65.53
362.667	112.64
362.879	28.67
363.09	24.58
363.301	67.58
363.512	55.3
363.723	6.14
363.935	14.34
364.146	83.97
364.357	-49.15
364.568	53.25
364.779	30.72
364.99	81.92
365.201	2.05
365.412	47.1
365.623	36.86
365.834	65.53
366.045	-2.05
366.256	90.11
366.467	81.92
366.678	-43.01
366.889	43.01
367.1	71.68
367.311	47.1
367.522	-24.58
367.733	90.11
367.944	88.06
368.155	14.34
368.366	53.25
368.577	-30.72
368.788	102.4
368.999	-32.77
369.209	-24.58
369.42	104.45
369.631	145.41
369.842	75.77
370.053	-14.34
370.264	75.77
370.474	106.49
370.685	18.43
370.896	38.91
371.107	-30.72
371.317	81.92
371.528	-55.3
371.739	77.82
371.95	36.86
372.16	83.97
372.371	12.29
372.582	79.87
372.792	47.1
373.003	104.45
373.214	38.91
373.424	47.1
373.635	38.91
373.846	47.1
374.056	47.1
374.267	112.64
374.477	6.14
374.688	55.3
374.898	34.82
375.109	67.58
375.319	0
375.53	57.34
375.74	75.77
375.951	6.14
376.161	47.1
376.372	75.77
376.582	43.01
376.793	-4.1
377.003	57.34
377.214	104.45
377.424	83.97
377.635	73.73
377.845	49.15
378.055	49.15
378.266	10.24
378.476	-18.43
378.686	6.14
378.897	-30.72
379.107	55.3
379.317	88.06
379.528	18.43
379.738	102.4
379.948	22.53
380.158	47.1
380.369	-20.48
380.579	63.49
380.789	47.1
380.999	38.91
381.21	38.91
381.42	96.25
381.63	106.49
381.84	40.96
382.05	79.87
382.261	75.77
382.471	73.73
382.681	8.19
382.891	71.68
383.101	63.49
383.311	36.86
383.521	30.72
383.731	63.49
383.941	120.83
384.151	-10.24
384.361	98.3
384.571	43.01
384.781	8.19
384.991	92.16
385.201	131.07
385.411	108.54
385.621	30.72
385.831	90.11
386.041	71.68
386.251	63.49
386.461	137.21
386.671	94.21
386.881	-16.38
387.091	57.34
387.301	43.01
387.511	22.53
387.72	12.29
387.93	49.15
388.14	-16.38
388.35	22.53
388.56	71.68
388.769	88.06
388.979	141.31
389.189	86.01
389.399	38.91
389.609	96.25
389.818	71.68
390.028	14.34
390.238	24.58
390.447	40.96
390.657	47.1
390.867	-20.48
391.076	14.34
391.286	55.3
391.496	65.53
391.705	38.91
391.915	92.16
392.125	81.92
392.334	90.11
392.544	112.64
392.753	88.06
392.963	75.77
393.172	88.06
393.382	71.68
393.591	81.92
393.801	100.35
394.01	114.69
394.22	116.73
394.429	98.3
394.639	135.17
394.848	79.87
395.058	69.63
395.267	65.53
395.477	55.3
395.686	77.82
395.895	92.16
396.105	178.17
396.314	90.11
396.524	63.49
396.733	49.15
396.942	83.97
397.152	108.54
397.361	67.58
397.57	16.38
397.78	71.68
397.989	88.06
398.198	112.64
398.407	28.67
398.617	47.1
398.826	106.49
399.035	88.06
399.244	112.64
399.453	81.92
399.663	104.45
399.872	126.97
400.081	102.4
400.29	110.59
400.499	106.49
400.708	139.26
400.917	38.91
401.127	88.06
401.336	86.01
401.545	104.45
401.754	8.19
401.963	145.41
402.172	133.12
402.381	71.68
402.59	65.53
402.799	81.92
403.008	129.02
403.217	75.77
403.426	126.97
403.635	147.45
403.844	133.12
404.053	155.65
404.262	63.49
404.471	120.83
404.68	90.11
404.888	204.8
405.097	137.21
405.306	120.83
405.515	192.51
405.724	106.49
405.933	100.35
406.142	178.17
406.35	141.31
406.559	180.22
406.768	110.59
406.977	145.41
407.185	180.22
407.394	112.64
407.603	143.36
407.812	243.71
408.02	223.23
408.229	153.6
408.438	215.04
408.646	202.75
408.855	143.36
409.064	194.56
409.272	227.32
409.481	227.32
409.69	172.03
409.898	292.86
410.107	235.52
410.315	325.63
410.524	270.33
410.733	235.52
410.941	210.94
411.15	282.62
411.358	344.06
411.567	329.72
411.775	346.11
411.984	339.96
412.192	370.68
412.401	352.25
412.609	350.2
412.818	473.08
413.026	409.59
413.234	444.41
413.443	362.49
413.651	321.53
413.86	350.2
414.068	456.7
414.276	614.39
414.485	507.9
414.693	571.38
414.901	622.58
415.11	464.89
415.318	614.39
415.526	591.86
415.734	673.78
415.943	657.4
416.151	702.45
416.359	731.12
416.567	755.7
416.776	681.97
416.984	786.42
417.192	841.72
417.4	743.41
417.608	825.33
417.817	835.57
418.025	786.42
418.233	931.83
418.441	876.53
418.649	970.74
418.857	1130.48
419.065	1136.62
419.273	1046.51
419.481	1136.62
419.689	1222.64
419.897	1161.2
420.105	1288.17
420.313	1275.88
420.521	1333.23
420.729	1302.51
420.937	1302.51
421.145	1398.76
421.353	1548.26
421.561	1601.51
421.769	1566.7
421.977	1705.96
422.185	1677.29
422.393	1746.92
422.601	1888.23
422.809	1861.6
423.017	1810.4
423.224	1877.99
423.432	2023.39
423.64	1972.19
423.848	2332.64
424.056	2086.88
424.263	2324.44
424.471	2408.41
424.679	2252.77
424.887	2586.58
425.094	2746.33
425.302	2547.67
425.51	2734.04
425.718	2615.26
425.925	2791.38
426.133	2850.77
426.341	2967.51
426.548	3186.64
426.756	3241.93
426.964	3321.81
427.171	3385.29
427.379	3434.44
427.586	3579.85
427.794	3760.07
428.001	3739.59
428.209	3934.15
428.417	3962.82
428.624	4310.97
428.832	4284.35
429.039	4153.28
429.247	4063.17
429.454	4534.2
429.662	4874.17
429.869	4526.01
430.076	4782.01
430.284	4716.47
430.491	4900.79
430.699	5171.12
430.906	5310.38
431.114	5357.49
431.321	5459.88
431.528	5650.35
431.736	5896.1
431.943	6211.49
432.15	5994.4
432.358	6043.56
432.565	6305.7
432.772	6494.11
432.979	6674.33
433.187	6758.3
433.394	6881.18
433.601	7329.68
433.808	7411.6
434.016	7374.74
434.223	7612.3
434.43	8095.62
434.637	8124.29
434.844	8380.29
435.052	8564.61
435.259	8529.79
435.466	8435.58
435.673	8580.99
435.88	9058.17
436.087	9467.76
436.294	9486.19
436.501	9340.79
436.708	9391.98
436.915	9817.96
437.122	10332
437.329	10069.86
437.537	10389.35
437.743	10698.59
437.95	10645.34
438.157	11239.25
438.364	11528.02
438.571	11581.26
438.778	11720.53
438.985	12580.67
439.192	11777.87
439.399	12541.76
439.606	12310.34
439.813	13129.53
440.02	13705.01
440.227	13506.35
440.433	13367.09
440.64	13764.4
440.847	13754.16
441.054	14147.37
441.261	15107.87
441.467	14612.26
441.674	15165.21
441.881	15636.24
442.088	15464.21
442.294	15503.12
442.501	15959.82
442.708	15931.15
442.914	16852.73
443.121	17374.97
443.328	16920.32
443.534	18233.07
443.741	17653.49
443.948	17250.04
444.154	18790.11
444.361	18638.56
444.568	18716.39
444.774	18777.83
444.981	18906.85
445.187	19693.27
445.394	20330.19
445.6	19949.26
445.807	21845.68
446.013	21059.26
446.22	21249.72
446.426	22408.87
446.633	22662.82
446.839	23123.62
447.046	22283.95
447.252	23426.71
447.459	23854.74
447.665	23568.02
447.871	24516.23
448.078	25542.27
448.284	24288.91
448.491	25009.79
448.697	26121.84
448.903	26553.96
449.11	26584.68
449.316	26082.93
449.522	26642.03
449.728	27573.85
449.935	27414.11
450.141	27424.35
450.347	27760.22
450.553	27367.01
450.76	27756.12
450.966	28870.22
451.172	28517.96
451.378	29103.68
451.584	28249.68
451.791	29138.5
451.997	29187.65
452.203	29587
452.409	29830.71
452.615	29414.98
452.821	28780.1
453.027	28286.54
453.233	29890.1
453.44	28595.79
453.646	29054.53
453.852	29150.79
454.058	29685.31
454.264	28368.46
454.47	29167.17
454.676	28141.14
454.882	29744.7
455.088	26957.41
455.294	27598.43
455.5	28051.03
455.705	28173.91
455.911	26791.53
456.117	26578.54
456.323	25935.48
456.529	25015.94
456.735	25994.87
456.941	25163.39
457.147	25437.82
457.352	24262.29
457.558	23871.12
457.764	24129.17
457.97	23750.29
458.176	22924.96
458.381	23105.18
458.587	22038.19
458.793	21823.15
458.999	20829.89
459.204	22394.54
459.41	21501.62
459.616	20385.48
459.821	20242.12
460.027	20307.66
460.233	20037.33
460.438	19121.88
460.644	19259.1
460.85	18271.98
461.055	18077.42
461.261	17929.97
461.466	16473.86
461.672	16144.14
461.878	17331.96
462.083	16305.93
462.289	15603.47
462.494	15388.44
462.7	14780.19
462.905	14649.12
463.111	15140.63
463.316	14968.6
463.522	14710.56
463.727	14712.61
463.932	14827.29
464.138	14513.95
464.343	14595.87
464.549	14356.26
464.754	14663.46
464.959	14440.23
465.165	14382.88
465.37	13752.11
465.575	13379.38
465.781	14022.44
465.986	14006.06
466.191	13842.22
466.397	13195.06
466.602	12547.9
466.807	13197.11
467.012	13107
467.218	12990.27
467.423	12918.59
467.628	13078.33
467.833	13514.55
468.038	13135.67
468.244	12681.02
468.449	13164.34
468.654	12859.2
468.859	12527.42
469.064	12543.81
469.269	12138.31
469.474	12181.32
469.679	12527.42
469.885	11956.04
470.09	12109.64
470.295	12228.42
470.5	11814.73
470.705	11847.5
470.91	11732.81
471.115	11611.98
471.32	11824.97
471.525	11829.07
471.73	11478.86
471.935	11450.19
472.139	10948.44
472.344	11091.8
472.549	11124.57
472.754	11089.75
472.959	10739.55
473.164	10385.25
473.369	10493.79
473.574	10852.19
473.778	10614.62
473.983	10557.28
474.188	10565.47
474.393	10067.81
474.598	9926.5
474.802	10116.97
475.007	10037.09
475.212	10004.33
475.417	9613.17
475.621	9672.56
475.826	9566.06
476.031	9564.01
476.235	9113.46
476.44	9299.83
476.645	9207.67
476.849	9269.11
477.054	9105.27
477.259	8966.01
477.463	8951.67
477.668	8640.38
477.872	8839.03
478.077	8517.5
478.282	8501.12
478.486	8308.61
478.691	8402.82
478.895	8314.75
479.1	8339.33
479.304	8296.32
479.509	8140.68
479.713	8306.56
479.918	7960.45
480.122	7903.11
480.326	8021.89
480.531	7970.69
480.735	7630.73
480.94	7817.1
481.144	8357.76
481.348	7608.2
481.553	7747.47
481.757	7718.79
481.961	7692.17
482.166	7733.13
482.37	7845.77
482.574	7690.12
482.778	7655.31
482.983	7751.56
483.187	7632.78
483.391	7667.59
483.595	7729.03
483.8	7686.03
484.004	7776.14
484.208	7681.93
484.412	7518.09
484.616	7640.97
484.821	7726.99
485.025	7542.67
485.229	7581.58
485.433	7841.67
485.637	7532.43
485.841	7608.2
486.045	7573.39
486.249	7581.58
486.453	7452.56
486.657	7716.75
486.861	7892.87
487.065	7395.22
487.269	7518.09
487.473	7509.9
487.677	7583.63
487.881	7882.63
488.085	7587.72
488.289	7874.44
488.493	7747.47
488.697	7645.07
488.901	7620.49
489.105	7706.51
489.309	7651.21
489.512	7952.26
489.716	7759.75
489.92	7774.09
490.124	7714.7
490.328	7966.6
490.531	7657.36
490.735	7782.28
490.939	7782.28
491.143	7776.14
491.346	8085.38
491.55	7985.03
491.754	7956.36
491.958	8071.04
492.161	7937.93
492.365	8265.6
492.569	7933.83
492.772	8189.83
492.976	8202.11
493.18	8255.36
493.383	8314.75
493.587	8478.59
493.79	8425.34
493.994	8302.47
494.197	8345.47
494.401	8312.71
494.605	8404.86
494.808	8411.01
495.012	8730.49
495.215	8832.89
495.419	8796.03
495.622	8611.71
495.825	9009.01
496.029	8927.1
496.232	9133.94
496.436	8896.38
496.639	9086.84
496.843	9101.17
497.046	9478
497.249	9525.1
497.453	9588.59
497.656	9660.27
497.859	9643.88
498.063	9643.88
498.266	9934.7
498.469	9949.03
498.673	9707.37
498.876	10321.76
499.079	10323.81
499.282	10342.24
499.485	10452.83
499.689	10643.29
499.892	10696.54
500.095	10704.73
500.298	11167.57
500.501	10798.94
500.705	11069.27
500.908	11278.16
501.111	11427.67
501.314	11528.02
501.517	11476.82
501.72	11401.04
501.923	11790.16
502.126	11925.32
502.329	12199.75
502.532	12121.93
502.735	12447.55
502.938	12312.39
503.141	12558.14
503.344	12939.07
503.547	12654.4
503.75	13002.55
503.953	13205.3
504.156	13506.35
504.359	13393.72
504.562	13565.75
504.765	13827.89
504.968	13887.28
505.17	14087.98
505.373	14335.78
505.576	14399.27
505.779	14767.9
505.982	14554.91
506.185	14862.11
506.387	14866.21
506.59	15085.34
506.793	15206.17
506.996	15468.31
507.198	15687.44
507.401	15736.59
507.604	15953.68
507.807	16277.26
508.009	16267.02
508.212	16619.27
508.415	16699.14
508.617	16795.39
508.82	17018.62
509.022	16897.79
509.225	17358.58
509.428	17553.14
509.63	17723.12
509.833	17618.68
510.035	18112.24
510.238	17962.73
510.44	18304.74
510.643	18403.05
510.845	18874.08
511.048	18319.08
511.25	19187.42
511.453	18994.91
511.655	19836.63
511.858	19609.3
512.06	19480.28
512.262	19840.72
512.465	20039.37
512.667	20051.66
512.87	20287.18
513.072	20545.22
513.274	20895.43
513.477	21290.68
513.679	21153.47
513.881	21632.69
514.084	21606.07
514.286	21608.12
514.488	21952.18
514.69	22410.92
514.893	22513.32
515.095	22574.76
515.297	22521.51
515.499	22738.6
515.701	23201.44
515.904	23432.86
516.106	23711.38
516.308	23828.12
516.51	24014.48
516.712	24069.78
516.914	24346.25
517.116	24350.35
517.318	24868.48
517.52	25013.89
517.722	25167.49
517.925	25376.38
518.127	25542.27
518.329	25962.1
518.531	25630.33
518.733	26523.24
518.935	26562.15
519.136	26367.6
519.338	26912.36
519.54	26996.32
519.742	27571.8
519.944	27627.1
520.146	27874.9
520.348	27936.34
520.55	28098.13
520.752	28614.22
520.954	29232.71
521.155	28782.15
521.357	29075.01
521.559	29044.29
521.761	29687.35
521.963	29937.21
522.164	29742.65
522.366	29726.27
522.568	30258.74
522.77	30496.3
522.971	31026.73
523.173	30826.03
523.375	30918.18
523.576	30940.71
523.778	31039.01
523.98	31774.24
524.181	31583.77
524.383	31741.47
524.584	32540.18
524.786	31944.22
524.988	31751.71
525.189	32579.09
525.391	32536.08
525.592	32785.93
525.794	32787.98
525.995	32869.9
526.197	33320.45
526.398	33275.4
526.6	33631.74
526.801	33508.86
527.003	33883.64
527.204	33707.52
527.406	34010.62
527.607	34049.53
527.808	34526.71
528.01	33635.84
528.211	34096.63
528.412	34717.17
528.614	34446.83
528.815	34239.99
529.016	34813.42
529.218	34866.67
529.419	34766.32
529.62	35163.62
529.822	34383.35
530.023	34950.63
530.224	34809.32
530.425	35018.22
530.626	34797.04
530.828	34862.57
531.029	35714.53
531.23	35321.32
531.431	35407.33
531.632	35223.01
531.833	35411.43
532.035	35632.61
532.236	35532.26
532.437	35571.17
532.638	35409.38
532.839	35907.04
533.04	35732.96
533.241	35372.52
533.442	36459.99
533.643	35808.73
533.844	35769.82
534.045	35937.76
534.246	35753.44
534.447	35986.91
534.648	35694.05
534.849	35894.75
535.05	35587.55
535.251	35950.04
535.451	35890.65
535.652	35952.09
535.853	36140.5
536.054	35710.43
536.255	35773.92
536.456	35716.57
536.657	36304.34
536.857	35960.28
537.058	35716.57
537.259	35790.3
537.46	35796.45
537.66	35769.82
537.861	35845.6
538.062	36132.31
538.263	36048.35
538.463	35737.05
538.664	35761.63
538.865	35550.69
539.065	36371.92
539.266	35773.92
539.466	36054.49
539.667	35780.06
539.868	35808.73
540.068	35694.05
540.269	35771.87
540.469	36062.68
540.67	35472.87
540.87	35802.59
541.071	35421.67
541.271	35790.3
541.472	35757.53
541.672	35999.19
541.873	35517.92
542.073	35552.74
542.274	35937.76
542.474	35636.7
542.675	35630.56
542.875	35829.21
543.075	35458.53
543.276	35458.53
543.476	35859.93
543.676	35636.7
543.877	35767.77
544.077	35702.24
544.277	35409.38
544.478	35618.27
544.678	35300.84
544.878	35993.05
545.078	35560.93
545.279	35270.12
545.479	35558.88
545.679	35745.25
545.879	36023.77
546.079	35526.11
546.28	35515.87
546.48	35343.84
546.68	35599.84
546.88	35218.92
547.08	35309.03
547.28	35632.61
547.48	35128.81
547.68	35554.79
547.88	35433.96
548.081	35538.4
548.281	35585.5
548.481	35354.08
548.681	35696.1
548.881	35319.27
549.081	35055.08
549.28	35012.07
549.48	35243.49
549.68	35028.46
549.88	35485.15
550.08	35067.37
550.28	35104.23
550.48	34903.53
550.68	35425.76
550.88	34878.96
551.08	35114.47
551.279	35253.73
551.479	34627.06
551.679	35137
551.879	35034.6
552.079	35200.49
552.278	34737.65
552.478	34917.87
552.678	35151.34
552.878	35093.99
553.077	35190.25
553.277	34883.05
553.477	35630.56
553.676	34885.1
553.876	34782.7
554.076	34532.85
554.275	34440.69
554.475	34463.22
554.674	34780.65
554.874	35042.79
555.074	34407.92
555.273	35046.89
555.473	34772.46
555.672	34856.43
555.872	34381.3
556.071	34805.23
556.271	34854.38
556.47	34741.74
556.67	34115.06
556.869	34674.16
557.068	34823.66
557.268	34231.8
557.467	34416.11
557.667	34328.05
557.866	34670.06
558.065	34182.65
558.265	34043.38
558.464	33983.99
558.663	34563.57
558.863	33615.36
559.062	34663.92
559.261	33791.48
559.461	34180.6
559.66	33601.02
559.859	33965.56
560.058	33717.76
560.258	33533.44
560.457	33474.05
560.656	34233.85
560.855	33437.19
561.054	33953.27
561.253	33318.4
561.453	33850.88
561.652	33797.63
561.851	33551.87
562.05	33207.81
562.249	33586.69
562.448	33701.37
562.647	33453.57
562.846	33617.41
563.045	33297.92
563.244	32613.9
563.443	33052.17
563.642	32757.26
563.841	33195.53
564.04	32792.08
564.239	32919.05
564.438	32640.53
564.637	32951.82
564.836	32925.19
565.035	32306.71
565.234	32531.98
565.432	32429.59
565.631	32431.63
565.83	32421.39
566.029	32306.71
566.228	32321.04
566.427	31960.6
566.625	31985.18
566.824	32026.14
567.023	32007.7
567.222	31581.73
567.42	31841.82
567.619	31929.88
567.818	31624.73
568.016	31682.08
568.215	31999.51
568.414	31565.34
568.612	31753.76
568.811	31440.42
569.01	31317.54
569.208	31057.45
569.407	31145.51
569.605	30967.34
569.804	31168.04
570.002	31016.49
570.201	31133.22
570.4	30985.77
570.598	30565.93
570.797	30656.04
570.995	30750.25
571.193	30436.91
571.392	30864.94
571.59	30236.21
571.789	30377.52
571.987	30238.26
572.186	30471.73
572.384	29982.26
572.582	30166.58
572.781	30133.81
572.979	29703.74
573.177	30205.49
573.376	30094.9
573.574	29367.87
573.772	29810.23
573.971	29474.37
574.169	29326.91
574.367	29464.13
574.565	29521.47
574.763	29261.38
574.962	29427.26
575.16	28886.6
575.358	29091.4
575.556	29009.48
575.754	28829.26
575.952	28536.4
576.151	28825.16
576.349	28456.53
576.547	28431.95
576.745	28839.5
576.943	28964.42
577.141	28399.18
577.339	28653.13
577.537	28057.17
577.735	28327.5
577.933	27870.81
578.131	28208.72
578.329	28010.07
578.527	27979.35
578.725	28096.08
578.923	27928.15
579.121	27580
579.319	27711.07
579.516	27932.25
579.714	27577.95
579.912	27375.2
580.11	27709.02
580.308	27481.69
580.506	27147.87
580.704	26965.6
580.901	27076.19
581.099	26834.53
581.297	26771.05
581.495	26869.35
581.692	27020.9
581.89	26470
582.088	27182.69
582.285	26476.14
582.483	26809.96
582.681	26590.83
582.878	26629.74
583.076	26549.87
583.274	26713.7
583.471	26064.5
583.669	26072.69
583.866	26162.8
584.064	26449.52
584.262	25794.17
584.459	25970.29
584.657	25751.16
584.854	25861.75
585.052	25446.01
585.249	25718.39
585.447	25702.01
585.644	25245.31
585.841	25435.77
586.039	25710.2
586.236	24952.45
586.434	25245.31
586.631	25126.53
586.828	24991.36
587.026	25376.38
587.223	24880.77
587.42	24751.75
587.618	25038.47
587.815	24712.84
588.012	24700.55
588.21	24329.87
588.407	24710.79
588.604	24675.98
588.801	24270.48
588.999	24546.95
589.196	24278.67
589.393	24274.57
589.59	24213.13
589.787	23977.62
589.984	23830.16
590.182	23666.33
590.379	24127.12
590.576	23742.1
590.773	23760.53
590.97	23791.25
591.167	23588.5
591.364	23549.59
591.561	23465.63
591.758	23371.42
591.955	22992.55
592.152	23373.47
592.349	23090.85
592.546	23170.72
592.743	22828.71
592.94	22677.16
593.137	23113.38
593.334	23002.78
593.531	22513.32
593.727	22812.32
593.924	22638.25
594.121	22476.46
594.318	22441.64
594.515	22302.38
594.712	22415.02
594.908	22224.56
595.105	22116.01
595.302	22331.05
595.499	22314.67
595.696	21978.8
595.892	22124.21
596.089	22054.58
596.286	22181.55
596.482	21888.69
596.679	21868.21
596.876	21925.55
597.072	21604.02
597.269	21919.41
597.466	21417.66
597.662	21411.51
597.859	21366.46
598.055	21505.72
598.252	21196.48
598.448	21255.87
598.645	20967.1
598.841	20963.01
599.038	21165.76
599.234	21305.02
599.431	20815.55
599.627	20696.77
599.824	20930.24
600.02	20516.55
600.217	20692.68
600.413	20782.79
600.609	20379.34
600.806	20381.38
601.002	20621
601.198	20467.4
601.395	20199.12
601.591	19922.64
601.787	20246.22
601.984	19789.52
602.18	20127.44
602.376	19994.32
602.572	19756.75
602.769	20006.61
602.965	19476.18
603.161	19797.71
603.357	19748.56
603.553	19551.96
603.75	19867.34
603.946	19504.85
604.142	19629.78
604.338	19240.67
604.534	19197.66
604.73	19590.87
604.926	19179.23
605.122	19150.56
605.318	18888.42
605.514	19046.11
605.71	18937.57
605.906	18853.6
606.102	18820.83
606.298	18953.95
606.494	18835.17
606.69	18853.6
606.886	18958.05
607.082	18499.3
607.278	18716.39
607.474	18312.94
607.67	18743.01
607.866	18202.35
608.062	18702.05
608.257	18439.91
608.453	18427.62
608.649	18136.81
608.845	18253.55
609.041	17952.49
609.236	18304.74
609.432	18073.32
609.628	18210.54
609.824	17929.97
610.019	17833.71
610.215	17893.1
610.411	17858.29
610.606	17620.72
610.802	17676.02
610.998	17749.75
611.193	18046.7
611.389	17551.09
611.584	17866.48
611.78	17528.56
611.976	17721.07
612.171	17561.33
612.367	17495.8
612.562	17360.63
612.758	17420.02
612.953	17389.3
613.149	17508.08
613.344	17127.16
613.539	17798.9
613.735	17346.3
613.93	17299.19
614.126	17219.32
614.321	17217.27
614.517	17157.88
614.712	16948.99
614.907	17237.75
615.103	16992
615.298	17161.98
615.493	17078.01
615.688	16834.3
615.884	17170.17
616.079	16807.68
616.274	16742.14
616.47	16756.48
616.665	16822.02
616.86	16717.57
617.055	16656.13
617.25	16676.61
617.445	16656.13
617.641	16414.47
617.836	16510.72
618.031	16027.4
618.226	16330.5
618.421	16363.27
618.616	16377.61
618.811	16197.38
619.006	16523.01
619.201	16195.34
619.396	16275.21
619.591	15861.52
619.786	15996.68
619.981	15886.09
620.176	15986.44
620.371	15791.89
620.566	15482.64
620.761	15767.31
620.956	15685.39
621.151	15181.59
621.346	15558.42
621.541	15275.8
621.735	15347.48
621.93	14999.32
622.125	15085.34
622.32	14888.73
622.515	15011.61
622.709	14718.75
622.904	14786.33
623.099	14860.06
623.294	14907.16
623.488	14591.78
623.683	14726.94
623.878	14391.08
624.072	14157.61
624.267	14264.1
624.462	14065.45
624.656	14030.63
624.851	14006.06
625.046	14016.3
625.24	14049.07
625.435	13823.79
625.629	13764.4
625.824	13827.89
626.018	13539.12
626.213	13512.5
626.407	13532.98
626.602	13356.85
626.796	13436.72
626.991	13399.86
627.185	13367.09
627.38	13227.83
627.574	13150.01
627.768	12855.1
627.963	12826.43
628.157	12687.17
628.352	13033.27
628.546	12492.61
628.74	12787.52
628.935	12744.51
629.129	12482.37
629.323	12402.5
629.517	12416.83
629.712	12556.1
629.906	12285.76
630.1	12099.4
630.294	11978.57
630.489	12058.44
630.683	12136.26
630.877	11931.47
631.071	11933.51
631.265	11872.07
631.459	11628.37
631.653	11571.02
631.848	11548.5
632.042	11487.06
632.236	11288.4
632.43	11347.79
632.624	11485.01
632.818	11409.23
633.012	11212.63
633.206	11378.51
633.4	11452.24
633.594	11056.98
633.788	11165.53
633.982	11097.94
634.176	10917.72
634.369	10958.68
634.563	10749.79
634.757	10819.42
634.951	10848.09
635.145	10653.53
635.339	10827.61
635.533	10620.77
635.726	10540.9
635.92	10415.97
636.114	10430.3
636.308	10338.15
636.501	10327.91
636.695	10368.87
636.889	10270.56
637.083	10188.64
637.276	10035.05
637.47	10141.54
637.664	9942.89
637.857	9871.21
638.051	10094.44
638.244	9928.55
638.438	9854.83
638.632	9639.79
638.825	9623.41
639.019	9557.87
639.212	9475.95
639.406	9414.51
639.599	9561.97
639.793	9441.14
639.986	9222
640.18	9328.5
640.373	9265.01
640.567	9135.99
640.76	9123.7
640.954	9226.1
641.147	8931.19
641.34	8849.27
641.534	9080.69
641.727	8845.18
641.92	8959.86
642.114	8759.16
642.307	8894.33
642.5	8877.94
642.694	8603.52
642.887	8517.5
643.08	8644.48
643.273	8509.31
643.467	8738.68
643.66	8511.36
643.853	8523.65
644.046	8427.39
644.239	8380.29
644.432	8292.23
644.626	8306.56
644.819	8089.48
645.012	8384.38
645.205	8034.18
645.398	8132.48
645.591	8198.02
645.784	8066.95
645.977	7942.02
646.17	7843.72
646.363	7708.55
646.556	7780.23
646.749	7874.44
646.942	7729.03
647.135	7649.16
647.328	7681.93
647.521	7659.4
647.714	7526.29
647.907	7399.31
648.099	7374.74
648.292	7540.62
648.485	7245.71
648.678	7141.27
648.871	7497.61
649.064	7126.93
649.256	7339.92
649.449	7407.5
649.642	7034.77
649.835	7147.41
650.027	7090.07
650.22	7071.64
650.413	6985.62
650.605	6856.6
650.798	6846.36
650.991	6752.15
651.183	6879.13
651.376	6758.3
651.568	6807.45
651.761	6676.38
651.954	6752.15
652.146	6764.44
652.339	6588.32
652.531	6748.06
652.724	6731.67
652.916	6496.16
653.109	6225.82
653.301	6389.66
653.494	6594.46
653.686	6328.22
653.879	6563.74
654.071	6291.36
654.263	6248.35
654.456	6240.16
654.648	6092.71
654.84	6197.15
655.033	6080.42
655.225	6199.2
655.417	5990.31
655.61	6004.64
655.802	6133.67
655.994	5953.45
656.186	5928.87
656.379	6025.12
656.571	5937.06
656.763	5840.81
656.955	5978.02
657.148	5863.33
657.34	5797.8
657.532	5836.71
657.724	5617.58
657.916	5754.79
658.108	5756.84
658.3	5695.4
658.492	5494.7
658.684	5543.85
658.876	5300.14
659.068	5601.19
659.26	5486.51
659.452	5324.72
659.644	5449.64
659.836	5406.64
660.028	5363.63
660.22	5283.76
660.412	5521.32
660.604	5189.55
660.796	5304.24
660.988	5160.88
661.18	5181.36
661.372	5068.72
661.563	5273.52
661.755	5058.48
661.947	5203.89
662.139	5021.62
662.331	4884.41
662.522	4962.23
662.714	5007.28
662.906	4933.56
663.097	5117.87
663.289	4827.06
663.481	4835.25
663.673	5007.28
663.864	4714.42
664.056	4847.54
664.247	4749.24
664.439	4843.45
664.631	4626.36
664.822	4743.1
665.014	4612.03
665.205	4741.05
665.397	4667.32
665.588	4616.12
665.78	4579.26
665.971	4536.25
666.163	4642.75
666.354	4519.87
666.546	4487.1
666.737	4347.84
666.929	4538.3
667.12	4517.82
667.311	4483
667.503	4306.88
667.694	4515.77
667.885	4284.35
668.077	4308.93
668.268	4419.52
668.459	4065.22
668.651	4310.97
668.842	4224.96
669.033	4153.28
669.224	4249.54
669.416	4231.1
669.607	4290.49
669.798	4327.36
669.989	4300.73
670.18	4218.82
670.371	4179.9
670.563	4036.55
670.754	4136.9
670.945	3934.15
671.136	3997.63
671.327	4093.89
671.518	4024.26
671.709	4052.93
671.9	3979.2
672.091	4050.88
672.282	3841.99
672.473	3917.76
672.664	3891.14
672.855	3913.67
673.046	3905.48
673.237	3983.3
673.428	3581.9
673.619	3846.09
673.809	3839.94
674	3786.69
674.191	3882.95
674.382	3790.79
674.573	3712.97
674.764	3721.16
674.954	3655.62
675.145	3659.72
675.336	3782.6
675.527	3708.87
675.717	3733.45
675.908	3766.21
676.099	3684.3
676.289	3473.35
676.48	3659.72
676.671	3508.17
676.861	3651.53
677.052	3733.45
677.243	3475.4
677.433	3594.19
677.624	3530.7
677.814	3538.89
678.005	3399.63
678.195	3491.79
678.386	3463.12
678.576	3401.68
678.767	3545.03
678.957	3479.5
679.148	3545.03
679.338	3585.99
679.529	3448.78
679.719	3405.77
679.909	3463.12
680.1	3426.25
680.29	3413.96
680.481	3422.16
680.671	3422.16
680.861	3463.12
681.052	3520.46
681.242	3342.28
681.432	3307.47
681.622	3348.43
681.813	3334.09
682.003	3424.2
682.193	3213.26
682.383	3350.48
682.573	3342.28
682.764	3299.28
682.954	3391.44
683.144	3393.48
683.334	3170.26
683.524	3422.16
683.714	3418.06
683.904	3291.09
684.094	3307.47
684.284	3180.5
684.474	3332.05
684.664	3209.17
684.854	3246.03
685.044	3200.98
685.234	3155.92
685.424	3241.93
685.614	3151.82
685.804	3088.34
685.994	3200.98
686.184	3241.93
686.374	3112.91
686.564	3160.02
686.753	3082.19
686.943	3037.14
687.133	3102.67
687.323	3096.53
687.513	3205.07
687.702	2981.84
687.892	2873.3
688.082	2951.12
688.272	2983.89
688.461	3080.14
688.651	3069.91
688.841	2932.69
689.03	3033.04
689.22	2885.59
689.41	2871.25
689.599	3018.71
689.789	2865.11
689.979	2971.6
690.168	2883.54
690.358	2955.22
690.547	2824.15
690.737	2947.03
690.926	2832.34
691.116	2899.92
691.305	2887.64
691.495	2717.65
691.684	2711.51
691.874	2680.79
692.063	2775
692.252	2807.77
692.442	2676.7
692.631	2684.89
692.82	2682.84
693.01	2678.74
693.199	2623.45
693.388	2613.21
693.578	2703.32
693.767	2613.21
693.956	2688.98
694.146	2734.04
694.335	2697.17
694.524	2598.87
694.713	2705.37
694.902	2668.5
695.092	2568.15
695.281	2566.1
695.47	2500.57
695.659	2475.99
695.848	2553.82
696.037	2619.35
696.226	2582.49
696.415	2564.06
696.604	2471.9
696.793	2504.67
696.982	2578.39
697.171	2553.82
697.36	2514.91
697.549	2492.38
697.738	2394.08
697.927	2488.28
698.116	2475.99
698.305	2418.65
698.494	2508.76
698.683	2414.56
698.872	2385.88
699.061	2533.34
699.25	2301.92
699.438	2420.7
699.627	2457.56
699.816	2367.45
700.005	2422.75
700.193	2500.57
700.382	2475.99
700.571	2383.84
700.76	2258.91
700.948	2312.16
701.137	2385.88
701.326	2332.64
701.514	2359.26
701.703	2432.99
701.892	2351.07
702.08	2463.71
702.269	2267.1
702.457	2324.44
702.646	2445.27
702.834	2295.77
703.023	2385.88
703.212	2256.86
703.4	2340.83
703.589	2273.25
703.777	2344.92
703.965	2293.72
704.154	2283.49
704.342	2228.19
704.531	2297.82
704.719	2291.68
704.907	2322.4
705.096	2195.42
705.284	2312.16
705.472	2144.22
705.661	2234.33
705.849	2326.49
706.037	2303.96
706.226	2306.01
706.414	2269.15
706.602	2293.72
706.79	2324.44
706.979	2154.46
707.167	2349.02
707.355	2152.42
707.543	2250.72
707.731	2252.77
707.919	2160.61
708.107	2179.04
708.296	2201.57
708.484	2283.49
708.672	2234.33
708.86	2250.72
709.048	2289.63
709.236	2162.65
709.424	2211.81
709.612	2283.49
709.8	2224.09
709.988	2234.33
710.176	2217.95
710.364	2320.35
710.551	2279.39
710.739	2281.44
710.927	2166.75
711.115	2326.49
711.303	2263.01
711.491	2275.29
711.679	2226.14
711.866	2217.95
712.054	2248.67
712.242	2244.57
712.43	2293.72
712.617	2246.62
712.805	2185.18
712.993	2344.92
713.181	2193.37
713.368	2176.99
713.556	2164.7
713.744	2129.89
713.931	2252.77
714.119	2217.95
714.306	2160.61
714.494	2142.18
714.682	2181.09
714.869	2164.7
715.057	2185.18
715.244	2189.28
715.432	2193.37
715.619	2029.54
715.807	2086.88
715.994	2154.46
716.182	2136.03
716.369	2267.1
716.556	2252.77
716.744	2285.53
716.931	2205.66
717.119	2226.14
717.306	2197.47
717.493	2273.25
717.681	2168.8
717.868	2090.98
718.055	2238.43
718.242	2166.75
718.43	2082.78
718.617	2152.42
718.804	2248.67
718.991	2258.91
719.179	2144.22
719.366	2017.25
719.553	2217.95
719.74	2129.89
719.927	2090.98
720.114	2111.46
720.301	2203.61
720.488	2105.31
720.676	2168.8
720.863	2193.37
721.05	2226.14
721.237	2150.37
721.424	2234.33
721.611	2193.37
721.798	2230.24
721.985	2195.42
722.172	2207.71
722.358	2185.18
722.545	2277.34
722.732	2230.24
722.919	2197.47
723.106	2181.09
723.293	2185.18
723.48	2285.53
723.667	2185.18
723.853	2209.76
724.04	2179.04
724.227	2189.28
724.414	2107.36
724.6	2095.07
724.787	2258.91
724.974	2279.39
725.161	2183.13
725.347	2136.03
725.534	2103.26
725.72	2148.32
725.907	2160.61
726.094	2138.08
726.28	2205.66
726.467	2226.14
726.653	2172.89
726.84	2250.72
727.027	2201.57
727.213	2070.5
727.4	2220
727.586	2193.37
727.773	2181.09
727.959	2150.37
728.145	2226.14
728.332	2226.14
728.518	2144.22
728.705	2275.29
728.891	2303.96
729.077	2166.75
729.264	2162.65
729.45	2127.84
729.636	2136.03
729.823	2119.65
730.009	2205.66
730.195	2119.65
730.382	2217.95
730.568	2197.47
730.754	2166.75
730.94	2054.11
731.126	2140.13
731.313	2140.13
731.499	2156.51
731.685	2312.16
731.871	2111.46
732.057	2252.77
732.243	2140.13
732.429	2047.97
732.615	2080.74
732.801	2193.37
732.987	2121.7
733.173	2174.94
733.359	2088.93
733.545	2138.08
733.731	2097.12
733.917	2193.37
734.103	2203.61
734.289	2047.97
734.475	2242.53
734.661	2193.37
734.847	2197.47
735.033	2133.98
735.219	2197.47
735.404	2072.54
735.59	2052.06
735.776	2086.88
735.962	2158.56
736.148	2152.42
736.333	2164.7
736.519	2154.46
736.705	2066.4
736.89	2111.46
737.076	2172.89
737.262	2070.5
737.447	2193.37
737.633	2127.84
737.819	2093.02
738.004	2107.36
738.19	2023.39
738.375	2052.06
738.561	2115.55
738.747	2056.16
738.932	2119.65
739.118	2185.18
739.303	2090.98
739.489	2064.35
739.674	1998.82
739.859	2009.06
740.045	2070.5
740.23	2000.87
740.416	1912.8
740.601	2068.45
740.786	2039.78
740.972	1980.39
741.157	2052.06
741.342	1974.24
741.528	1994.72
741.713	1996.77
741.898	2066.4
742.084	2013.15
742.269	1949.67
742.454	1894.37
742.639	2013.15
742.824	1939.43
743.01	1927.14
743.195	2062.3
743.38	1974.24
743.565	1941.47
743.75	1912.8
743.935	1972.19
744.12	1984.48
744.305	1861.6
744.49	1935.33
744.675	1949.67
744.86	1941.47
745.045	1902.56
745.23	1906.66
745.415	1751.01
745.6	1988.58
745.785	1724.39
745.97	1898.47
746.155	1751.01
746.34	1808.36
746.525	1751.01
746.71	1791.97
746.895	1820.64
747.079	1832.93
747.264	1746.92
747.449	1802.21
747.634	1800.16
747.819	1734.63
748.003	1640.42
748.188	1679.33
748.373	1689.57
748.557	1742.82
748.742	1644.52
748.927	1613.8
749.111	1677.29
749.296	1665
749.481	1660.9
749.665	1630.18
749.85	1636.33
750.034	1701.86
750.219	1538.02
750.404	1529.83
750.588	1531.88
750.773	1546.22
750.957	1482.73
751.141	1630.18
751.326	1515.5
751.51	1615.85
751.695	1449.96
751.879	1523.69
752.064	1554.41
752.248	1415.15
752.432	1513.45
752.617	1409
752.801	1509.35
752.985	1411.05
753.17	1529.83
753.354	1396.71
753.538	1431.53
753.722	1376.23
753.907	1384.43
754.091	1349.61
754.275	1357.8
754.459	1386.47
754.643	1374.19
754.828	1370.09
755.012	1284.08
755.196	1320.94
755.38	1433.58
755.564	1255.4
755.748	1308.65
755.932	1314.8
756.116	1400.81
756.3	1361.9
756.484	1329.13
756.668	1245.16
756.852	1284.08
757.036	1259.5
757.22	1263.6
757.404	1210.35
757.588	1171.44
757.772	1212.4
757.956	1185.77
758.14	1212.4
758.323	1185.77
758.507	1118.19
758.691	1300.46
758.875	1202.16
759.059	1218.54
759.242	1122.29
759.426	1198.06
759.61	1079.28
759.794	1161.2
759.977	1155.05
760.161	1183.73
760.345	1155.05
760.528	1120.24
760.712	1101.81
760.895	1105.9
761.079	1083.38
761.263	1062.9
761.446	1015.79
761.63	1153.01
761.813	1236.97
761.997	940.02
762.18	1017.84
762.364	1114.1
762.547	985.07
762.731	1007.6
762.914	1038.32
763.098	1042.42
763.281	1005.55
763.464	1054.7
763.648	972.79
763.831	968.69
764.015	940.02
764.198	993.26
764.381	1021.94
764.564	997.36
764.748	972.79
764.931	1026.03
765.114	942.07
765.297	1071.09
765.481	909.3
765.664	876.53
765.847	925.68
766.03	950.26
766.213	901.11
766.397	1040.37
766.58	952.31
766.763	993.26
766.946	964.59
767.129	872.43
767.312	954.35
767.495	882.67
767.678	948.21
767.861	909.3
768.044	907.25
768.227	972.79
768.41	894.96
768.593	890.87
768.776	845.81
768.959	890.87
769.142	925.68
769.324	884.72
769.507	829.43
769.69	909.3
769.873	823.28
770.056	849.91
770.239	862.19
770.421	878.58
770.604	905.2
770.787	911.35
770.97	843.76
771.152	784.37
771.335	813.04
771.518	706.55
771.7	892.91
771.883	849.91
772.066	868.34
772.248	802.8
772.431	899.06
772.613	804.85
772.796	786.42
772.978	808.95
773.161	808.95
773.343	745.46
773.526	788.47
773.708	751.6
773.891	800.76
774.073	710.65
774.256	661.49
774.438	819.19
774.621	782.32
774.803	753.65
774.985	690.17
775.168	729.08
775.35	669.69
775.532	657.4
775.715	722.93
775.897	739.32
776.079	620.53
776.261	677.88
776.444	618.49
776.626	710.65
776.808	702.45
776.99	563.19
777.173	593.91
777.355	671.73
777.537	661.49
777.719	593.91
777.901	612.34
778.083	620.53
778.265	655.35
778.447	604.15
778.629	559.1
778.811	686.07
778.993	647.16
779.175	643.06
779.357	624.63
779.539	563.19
779.721	632.82
779.903	688.12
780.085	694.26
780.267	444.41
780.449	587.77
780.631	655.35
780.812	624.63
780.994	630.77
781.176	509.94
781.358	565.24
781.54	538.62
781.721	567.29
781.903	516.09
782.085	530.42
782.267	595.96
782.448	514.04
782.63	514.04
782.812	563.19
782.993	509.94
783.175	563.19
783.357	507.9
783.538	595.96
783.72	489.46
783.901	546.81
784.083	403.45
784.264	475.13
784.446	526.33
784.627	514.04
784.809	434.17
784.99	507.9
785.172	555
785.353	374.78
785.535	507.9
785.716	380.92
785.897	505.85
786.079	442.36
786.26	475.13
786.441	409.59
786.623	405.5
786.804	401.4
786.985	387.07
787.167	428.03
787.348	387.07
787.529	466.94
787.71	518.14
787.891	458.75
788.073	374.78
788.254	409.59
788.435	374.78
788.616	374.78
788.797	299
788.978	403.45
789.159	385.02
789.34	468.98
789.522	352.25
789.703	382.97
789.884	362.49
790.065	387.07
790.246	395.26
790.427	368.63
790.607	419.83
790.788	436.22
790.969	350.2
791.15	415.74
791.331	321.53
791.512	350.2
791.693	436.22
791.874	329.72
792.054	382.97
792.235	362.49
792.416	299
792.597	301.05
792.778	270.33
792.958	335.87
793.139	319.48
793.32	350.2
793.5	292.86
793.681	331.77
793.862	325.63
794.042	354.3
794.223	210.94
794.404	284.67
794.584	260.09
794.765	344.06
794.945	260.09
795.126	325.63
795.306	337.91
795.487	313.34
795.667	325.63
795.848	260.09
796.028	210.94
796.209	231.42
796.389	364.54
796.57	231.42
796.75	364.54
796.93	276.48
797.111	221.18
797.291	268.28
797.471	288.76
797.652	294.91
797.832	294.91
798.012	313.34
798.192	247.8
798.373	206.84
798.553	243.71
798.733	206.84
798.913	227.32
799.093	239.61
799.274	272.38
799.454	286.72
799.634	235.52
799.814	239.61
799.994	313.34
800.174	241.66
800.354	204.8
800.534	196.61
800.714	249.85
800.894	249.85
801.074	258.04
801.254	221.18
801.434	268.28
801.614	260.09
801.794	245.76
801.974	899.06
802.154	155.65
802.334	206.84
802.514	198.65
802.693	278.52
802.873	268.28
803.053	362.49
803.233	210.94
803.413	260.09
803.592	208.89
803.772	219.13
803.952	137.21
804.131	206.84
804.311	251.9
804.491	186.37
804.67	212.99
804.85	268.28
805.03	249.85
805.209	204.8
805.389	159.74
805.568	202.75
805.748	169.98
805.928	186.37
806.107	180.22
806.287	212.99
806.466	196.61
806.646	161.79
806.825	147.45
807.004	186.37
807.184	178.17
807.363	204.8
807.543	88.06
807.722	190.46
807.901	292.86
808.081	206.84
808.26	71.68
808.439	178.17
808.619	155.65
808.798	155.65
808.977	163.84
809.156	186.37
809.336	163.84
809.515	260.09
809.694	212.99
809.873	137.21
810.052	202.75
810.231	192.51
810.411	161.79
810.59	243.71
810.769	147.45
810.948	165.89
811.127	126.97
811.306	163.84
811.485	155.65
811.664	145.41
811.843	79.87
812.022	151.55
812.201	188.41
812.38	96.25
812.559	141.31
812.737	153.6
812.916	88.06
813.095	124.93
813.274	137.21
813.453	188.41
813.632	133.12
813.811	124.93
813.989	83.97
814.168	169.98
814.347	137.21
814.526	147.45
814.704	169.98
814.883	251.9
815.062	161.79
815.24	169.98
815.419	145.41
815.598	194.56
815.776	194.56
815.955	116.73
816.133	92.16
816.312	165.89
816.49	161.79
816.669	90.11
816.847	96.25
817.026	157.69
817.204	133.12
817.383	116.73
817.561	161.79
817.74	100.35
817.918	161.79
818.097	124.93
818.275	126.97
818.453	106.49
818.632	98.3
818.81	133.12
818.988	124.93
819.167	165.89
819.345	186.37
819.523	112.64
819.701	131.07
819.879	159.74
820.058	47.1
820.236	169.98
820.414	75.77
820.592	131.07
820.77	163.84
820.948	143.36
821.127	90.11
821.305	88.06
821.483	100.35
821.661	110.59
821.839	210.94
822.017	100.35
822.195	122.88
822.373	67.58
822.551	122.88
822.729	145.41
822.907	55.3
823.085	147.45
823.262	90.11
823.44	92.16
823.618	122.88
823.796	126.97
823.974	81.92
824.152	47.1
824.329	106.49
824.507	153.6
824.685	71.68
824.863	153.6
825.04	67.58
825.218	161.79
825.396	49.15
825.574	106.49
825.751	73.73
825.929	112.64
826.107	126.97
826.284	104.45
826.462	169.98
826.639	137.21
826.817	22.53
826.994	-12.29
827.172	51.2
827.349	153.6
827.527	75.77
827.704	104.45
827.882	63.49
828.059	83.97
828.237	24.58
828.414	92.16
828.591	98.3
828.769	178.17
828.946	38.91
829.124	55.3
829.301	77.82
829.478	90.11
829.655	10.24
829.833	100.35
830.01	81.92
830.187	114.69
830.364	22.53
830.542	65.53
830.719	96.25
830.896	8.19
831.073	73.73
831.25	53.25
831.427	77.82
831.604	69.63
831.782	45.06
831.959	106.49
832.136	-2.05
832.313	63.49
832.49	139.26
832.667	-26.62
832.844	120.83
833.021	153.6
833.198	49.15
833.374	79.87
833.551	38.91
833.728	88.06
833.905	96.25
834.082	63.49
834.259	6.14
834.436	51.2
834.612	88.06
834.789	81.92
834.966	71.68
835.143	71.68
835.319	73.73
835.496	75.77
835.673	88.06
835.85	122.88
836.026	126.97
836.203	79.87
836.38	118.78
836.556	106.49
836.733	65.53
836.909	104.45
837.086	81.92
837.262	-4.1
837.439	79.87
837.616	43.01
837.792	6.14
837.968	57.34
838.145	71.68
838.321	51.2
838.498	24.58
838.674	63.49
838.851	96.25
839.027	16.38
839.203	114.69
839.38	116.73
839.556	61.44
839.732	38.91
839.909	69.63
840.085	153.6
840.261	43.01
840.437	30.72
840.614	12.29
840.79	137.21
840.966	32.77
841.142	30.72
841.318	92.16
841.494	43.01
841.671	116.73
841.847	26.62
842.023	83.97
842.199	122.88
842.375	98.3
842.551	40.96
842.727	12.29
842.903	4.1
843.079	65.53
843.255	63.49
843.431	83.97
843.607	43.01
843.783	-2.05
843.959	81.92
844.134	40.96
844.31	73.73
844.486	20.48
844.662	114.69
844.838	-24.58
845.013	112.64
845.189	114.69
845.365	57.34
845.541	49.15
845.716	116.73
845.892	83.97
846.068	14.34
846.244	6.14
846.419	90.11
846.595	14.34
846.77	-34.82
846.946	69.63
847.122	22.53
847.297	10.24
847.473	120.83
847.648	22.53
847.824	57.34
847.999	4.1
848.175	92.16
848.35	22.53
848.526	51.2
848.701	40.96
848.876	38.91
849.052	98.3
849.227	40.96
849.403	-69.63
849.578	61.44
849.753	73.73
849.929	73.73
850.104	81.92
850.279	94.21
850.454	6.14
850.63	32.77
850.805	-38.91
850.98	79.87
851.155	30.72
851.33	-10.24
851.505	14.34
851.681	139.26
851.856	-14.34
852.031	38.91
852.206	86.01
852.381	20.48
852.556	47.1
852.731	43.01
852.906	63.49
853.081	38.91
853.256	57.34
853.431	-26.62
853.606	16.38
853.781	14.34
853.956	-67.58
854.131	10.24
854.305	24.58
854.48	-43.01
854.655	30.72
854.83	32.77
855.005	6.14
855.18	90.11
855.354	16.38
855.529	57.34
855.704	-51.2
855.879	-14.34
856.053	49.15
856.228	88.06
856.403	51.2
856.577	-18.43
856.752	-51.2
856.926	45.06
857.101	14.34
857.276	-51.2
857.45	47.1
857.625	10.24
857.799	38.91
857.974	-20.48
858.148	47.1
858.323	63.49
858.497	-34.82
858.672	63.49
858.846	6.14
859.02	8.19
859.195	18.43
859.369	-22.53
859.543	-2.05
859.718	59.39
859.892	63.49
860.066	38.91
860.241	-18.43
860.415	-24.58
860.589	-8.19
860.763	40.96
860.938	-18.43
861.112	22.53
861.286	-55.3
861.46	-24.58
861.634	-94.21
861.808	40.96
861.982	-10.24
862.157	28.67
862.331	18.43
862.505	8.19
862.679	-6.14
862.853	-6.14
863.027	-83.97
863.201	57.34
863.375	34.82
863.549	79.87
863.722	14.34
863.896	49.15
864.07	90.11
864.244	-8.19
864.418	-2.05
864.592	6.14
864.766	67.58
864.939	65.53
865.113	-14.34
865.287	106.49
865.461	47.1
865.634	18.43
865.808	10.24
865.982	20.48
866.156	14.34
866.329	12.29
866.503	38.91
866.676	2.05
866.85	67.58
867.024	-4.1
867.197	30.72
867.371	63.49
867.544	20.48
867.718	-28.67
867.891	30.72
868.065	43.01
868.238	10.24
868.412	-2.05
868.585	38.91
868.759	-6.14
868.932	94.21
869.105	-10.24
869.279	-26.62
869.452	30.72
869.625	-6.14
869.799	-10.24
869.972	14.34
870.145	49.15
870.319	55.3
870.492	-2.05
870.665	-22.53
870.838	2.05
871.011	-14.34
871.185	8.19
871.358	14.34
871.531	47.1
871.704	18.43
871.877	45.06
872.05	69.63
872.223	38.91
872.396	36.86
872.569	-30.72
872.742	79.87
872.915	-32.77
873.088	36.86
873.261	-12.29
873.434	71.68
873.607	38.91
873.78	73.73
873.953	-63.49
874.126	-8.19
874.299	-34.82
874.471	45.06
874.644	12.29
874.817	-14.34
874.99	90.11
875.163	2.05
875.335	-2.05
875.508	-47.1
875.681	112.64
875.853	32.77
876.026	63.49
876.199	-22.53
876.371	-47.1
876.544	-10.24
876.717	83.97
876.889	61.44
877.062	24.58
877.234	10.24
877.407	-8.19
877.579	22.53
877.752	-10.24
877.924	-2.05
878.097	-8.19
878.269	47.1
878.442	-12.29
878.614	12.29
878.786	43.01
878.959	-16.38
879.131	32.77
879.303	-18.43
879.476	51.2
879.648	4.1
879.82	67.58
879.993	12.29
880.165	-2.05
880.337	-28.67
880.509	47.1
880.681	38.91
880.854	16.38
881.026	-32.77
881.198	104.45
881.37	30.72
881.542	-26.62
881.714	-79.87
881.886	-43.01
882.058	51.2
882.23	-22.53
882.402	-18.43
882.574	38.91
882.746	-16.38
882.918	122.88
883.09	-51.2
883.262	36.86
883.434	-59.39
883.606	-63.49
883.778	49.15
883.95	47.1
884.122	-18.43
884.293	38.91
884.465	-8.19
884.637	88.06
884.809	12.29
884.98	57.34
885.152	67.58
885.324	18.43
885.496	-57.34
885.667	8.19
885.839	38.91
886.011	55.3
886.182	-43.01
886.354	8.19
886.525	-40.96
886.697	65.53
886.869	43.01
887.04	20.48
887.212	55.3
887.383	38.91
887.555	14.34
887.726	6.14
887.897	-43.01
888.069	-2.05
888.24	22.53
888.412	20.48
888.583	69.63
888.754	55.3
888.926	18.43
889.097	40.96
889.268	-4.1
889.44	14.34
889.611	10.24
889.782	20.48
889.953	32.77
890.125	100.35
890.296	30.72
890.467	49.15
890.638	-18.43
890.809	38.91
890.98	-8.19
891.151	32.77
891.323	-10.24
891.494	-65.54
891.665	6.14
891.836	65.53
892.007	6.14
892.178	49.15
892.349	-18.43
892.52	0
892.691	8.19
892.862	8.19
893.032	2.05
893.203	8.19
893.374	38.91
893.545	0
893.716	38.91
893.887	-34.82
894.057	55.3
894.228	-79.87
894.399	-10.24
894.57	38.91
894.74	-55.3
894.911	0
895.082	-2.05
895.253	-30.72
895.423	-16.38
895.594	47.1
895.764	75.77
895.935	-26.62
896.106	-2.05
896.276	38.91
896.447	-2.05
896.617	34.82
896.788	30.72
896.958	-38.91
897.129	32.77
897.299	18.43
897.47	53.25
897.64	137.21
897.81	57.34
897.981	28.67
898.151	-49.15
898.322	26.62
898.492	24.58
898.662	-16.38
898.832	26.62
899.003	24.58
899.173	2.05
899.343	2.05
899.513	-51.2
