Data from USB4F104151__91__14-43-34-274.txt Node

Date: Thu Mar 13 14:43:34 EDT 2025
User: louis
Spectrometer: USB4F10415
Trigger mode: 4
Integration Time (sec): 2.000000E-2
Scans to average: 1
Electric dark correction enabled: true
Nonlinearity correction enabled: false
Boxcar width: 0
XAxis mode: Wavelengths
Number of Pixels in Spectrum: 3648
>>>>>Begin Spectral Data<<<<<
178.204	-142.5
178.424	-142.5
178.644	-142.5
178.864	-175.27
179.084	-48.3
179.304	62.29
179.524	-19.63
179.744	-11.43
179.964	21.33
180.184	15.19
180.404	-46.25
180.624	50
180.844	-38.06
181.064	-42.15
181.283	0.85
181.503	-21.67
181.723	29.52
181.943	-72.87
182.163	117.59
182.383	41.81
182.602	72.53
182.822	60.24
183.042	50
183.262	23.38
183.482	82.77
183.701	9.05
183.921	25.43
184.141	-19.63
184.361	82.77
184.58	35.67
184.8	29.52
185.02	37.72
185.239	52.05
185.459	58.2
185.679	0.85
185.898	-1.19
186.118	76.63
186.338	-9.39
186.557	-7.34
186.777	-3.24
186.997	21.33
187.216	29.52
187.436	41.81
187.655	64.34
187.875	50
188.095	-13.48
188.314	66.39
188.534	56.15
188.753	31.57
188.973	4.95
189.192	86.87
189.412	-15.53
189.631	37.72
189.851	13.14
190.07	43.86
190.29	-19.63
190.509	45.91
190.729	43.86
190.948	-31.91
191.168	103.25
191.387	-23.72
191.607	2.9
191.826	-11.43
192.045	60.24
192.265	66.39
192.484	-27.82
192.704	21.33
192.923	-21.67
193.142	80.72
193.362	-48.3
193.581	109.4
193.8	-11.43
194.02	-3.24
194.239	-42.15
194.458	19.29
194.678	9.05
194.897	-23.72
195.116	76.63
195.335	0.85
195.555	33.62
195.774	9.05
195.993	76.63
196.212	25.43
196.432	15.19
196.651	-3.24
196.87	-15.53
197.089	70.48
197.308	60.24
197.528	107.35
197.747	-64.68
197.966	0.85
198.185	72.53
198.404	45.91
198.623	58.2
198.842	56.15
199.062	11.09
199.281	43.86
199.5	-13.48
199.719	66.39
199.938	43.86
200.157	82.77
200.376	103.25
200.595	119.64
200.814	4.95
201.033	43.86
201.252	50
201.471	-11.43
201.69	45.91
201.909	58.2
202.128	52.05
202.347	43.86
202.566	-23.72
202.785	-5.29
203.004	-7.34
203.223	84.82
203.442	19.29
203.661	25.43
203.879	47.96
204.098	15.19
204.317	0.85
204.536	2.9
204.755	-60.59
204.974	21.33
205.193	-11.43
205.411	119.64
205.63	-11.43
205.849	86.87
206.068	27.48
206.287	15.19
206.505	29.52
206.724	-31.91
206.943	33.62
207.162	-29.87
207.381	66.39
207.599	-23.72
207.818	23.38
208.037	-15.53
208.255	-7.34
208.474	-13.48
208.693	41.81
208.911	29.52
209.13	25.43
209.349	70.48
209.567	31.57
209.786	99.16
210.005	64.34
210.223	58.2
210.442	17.24
210.661	37.72
210.879	-31.91
211.098	25.43
211.316	13.14
211.535	52.05
211.753	0.85
211.972	60.24
212.191	0.85
212.409	72.53
212.628	15.19
212.846	52.05
213.065	11.09
213.283	17.24
213.502	29.52
213.72	76.63
213.938	-54.44
214.157	-5.29
214.375	25.43
214.594	-7.34
214.812	-15.53
215.031	13.14
215.249	-23.72
215.467	19.29
215.686	17.24
215.904	58.2
216.122	35.67
216.341	43.86
216.559	-15.53
216.778	47.96
216.996	125.78
217.214	-23.72
217.432	0.85
217.651	58.2
217.869	25.43
218.087	74.58
218.306	-23.72
218.524	13.14
218.742	-11.43
218.96	23.38
219.179	-31.91
219.397	41.81
219.615	66.39
219.833	29.52
220.051	-9.39
220.27	29.52
220.488	17.24
220.706	70.48
220.924	-15.53
221.142	-54.44
221.36	25.43
221.578	-29.87
221.796	13.14
222.015	58.2
222.233	-48.3
222.451	115.54
222.669	29.52
222.887	35.67
223.105	-3.24
223.323	-21.67
223.541	13.14
223.759	45.91
223.977	11.09
224.195	41.81
224.413	29.52
224.631	37.72
224.849	33.62
225.067	105.3
225.285	-87.21
225.503	27.48
225.721	-54.44
225.939	-23.72
226.157	13.14
226.375	74.58
226.592	-21.67
226.81	17.24
227.028	95.06
227.246	33.62
227.464	-13.48
227.682	-64.68
227.9	41.81
228.117	50
228.335	33.62
228.553	-7.34
228.771	0.85
228.989	9.05
229.206	39.76
229.424	52.05
229.642	-15.53
229.86	-46.25
230.077	-15.53
230.295	41.81
230.513	-27.82
230.731	90.96
230.948	66.39
231.166	52.05
231.384	13.14
231.601	0.85
231.819	17.24
232.037	25.43
232.254	4.95
232.472	11.09
232.689	50
232.907	58.2
233.125	4.95
233.342	33.62
233.56	-36.01
233.777	27.48
233.995	56.15
234.213	60.24
234.43	74.58
234.648	-13.48
234.865	-62.63
235.083	13.14
235.3	45.91
235.518	0.85
235.735	4.95
235.953	109.4
236.17	-5.29
236.388	0.85
236.605	-40.11
236.822	50
237.04	68.44
237.257	-13.48
237.475	-23.72
237.692	52.05
237.909	76.63
238.127	-60.59
238.344	95.06
238.562	19.29
238.779	2.9
238.996	-42.15
239.214	17.24
239.431	45.91
239.648	60.24
239.865	54.1
240.083	-60.59
240.3	-48.3
240.517	2.9
240.735	66.39
240.952	74.58
241.169	-5.29
241.386	-19.63
241.603	17.24
241.821	-13.48
242.038	47.96
242.255	13.14
242.472	50
242.689	-23.72
242.907	93.01
243.124	74.58
243.341	66.39
243.558	-19.63
243.775	31.57
243.992	15.19
244.209	54.1
244.426	-7.34
244.643	62.29
244.86	21.33
245.078	90.96
245.295	80.72
245.512	-52.39
245.729	-21.67
245.946	29.52
246.163	19.29
246.38	-40.11
246.597	27.48
246.814	33.62
247.031	33.62
247.248	27.48
247.464	66.39
247.681	-3.24
247.898	-7.34
248.115	50
248.332	-36.01
248.549	15.19
248.766	101.2
248.983	43.86
249.2	0.85
249.417	58.2
249.633	74.58
249.85	-25.77
250.067	-38.06
250.284	0.85
250.501	23.38
250.717	31.57
250.934	-15.53
251.151	64.34
251.368	-3.24
251.585	0.85
251.801	58.2
252.018	-40.11
252.235	52.05
252.451	15.19
252.668	17.24
252.885	50
253.102	-31.91
253.318	23.38
253.535	-5.29
253.752	-19.63
253.968	-3.24
254.185	-7.34
254.401	13.14
254.618	50
254.835	-21.67
255.051	70.48
255.268	9.05
255.484	33.62
255.701	41.81
255.917	-7.34
256.134	-21.67
256.351	43.86
256.567	-11.43
256.784	58.2
257	-15.53
257.217	17.24
257.433	93.01
257.65	-15.53
257.866	9.05
258.082	-46.25
258.299	41.81
258.515	39.76
258.732	0.85
258.948	35.67
259.165	37.72
259.381	-3.24
259.597	43.86
259.814	-27.82
260.03	17.24
260.246	41.81
260.463	35.67
260.679	21.33
260.895	50
261.112	25.43
261.328	-23.72
261.544	0.85
261.761	78.68
261.977	0.85
262.193	21.33
262.409	4.95
262.626	115.54
262.842	27.48
263.058	-122.02
263.274	13.14
263.49	150.36
263.707	9.05
263.923	78.68
264.139	-15.53
264.355	-38.06
264.571	-48.3
264.787	35.67
265.004	45.91
265.22	37.72
265.436	-15.53
265.652	54.1
265.868	25.43
266.084	-52.39
266.3	-60.59
266.516	-1.19
266.732	76.63
266.948	-15.53
267.164	70.48
267.38	13.14
267.596	-60.59
267.812	58.2
268.028	-15.53
268.244	-5.29
268.46	-15.53
268.676	50
268.892	54.1
269.108	-44.2
269.324	-9.39
269.54	-27.82
269.756	82.77
269.972	9.05
270.188	27.48
270.403	33.62
270.619	-33.96
270.835	-15.53
271.051	-7.34
271.267	17.24
271.483	-15.53
271.698	52.05
271.914	52.05
272.13	4.95
272.346	58.2
272.562	0.85
272.777	60.24
272.993	58.2
273.209	-19.63
273.425	41.81
273.64	-36.01
273.856	99.16
274.072	27.48
274.287	35.67
274.503	74.58
274.719	52.05
274.934	-7.34
275.15	-21.67
275.366	-52.39
275.581	35.67
275.797	21.33
276.012	-11.43
276.228	33.62
276.444	25.43
276.659	76.63
276.875	74.58
277.09	31.57
277.306	9.05
277.521	101.2
277.737	-58.54
277.952	95.06
278.168	82.77
278.383	101.2
278.599	17.24
278.814	45.91
279.03	-56.49
279.245	72.53
279.461	-64.68
279.676	90.96
279.892	-13.48
280.107	54.1
280.322	-19.63
280.538	17.24
280.753	-7.34
280.969	9.05
281.184	-7.34
281.399	43.86
281.615	9.05
281.83	-7.34
282.045	-3.24
282.26	-19.63
282.476	-56.49
282.691	82.77
282.906	31.57
283.122	25.43
283.337	0.85
283.552	62.29
283.767	-21.67
283.983	41.81
284.198	31.57
284.413	70.48
284.628	74.58
284.843	33.62
285.058	82.77
285.274	-13.48
285.489	9.05
285.704	-23.72
285.919	41.81
286.134	-11.43
286.349	-36.01
286.564	27.48
286.779	58.2
286.995	62.29
287.21	-21.67
287.425	-7.34
287.64	29.52
287.855	60.24
288.07	82.77
288.285	25.43
288.5	35.67
288.715	60.24
288.93	17.24
289.145	50
289.36	-3.24
289.575	43.86
289.79	-5.29
290.004	25.43
290.219	11.09
290.434	-29.87
290.649	60.24
290.864	0.85
291.079	-19.63
291.294	0.85
291.509	-7.34
291.724	-27.82
291.938	23.38
292.153	70.48
292.368	-40.11
292.583	2.9
292.798	84.82
293.012	2.9
293.227	45.91
293.442	-29.87
293.657	80.72
293.871	-1.19
294.086	13.14
294.301	115.54
294.516	-3.24
294.73	27.48
294.945	-72.87
295.16	-11.43
295.374	-29.87
295.589	25.43
295.804	13.14
296.018	43.86
296.233	82.77
296.447	74.58
296.662	-15.53
296.877	123.73
297.091	-11.43
297.306	17.24
297.52	78.68
297.735	35.67
297.949	17.24
298.164	41.81
298.378	9.05
298.593	-68.78
298.807	4.95
299.022	-7.34
299.236	50
299.451	-15.53
299.665	-3.24
299.88	21.33
300.094	50
300.309	-11.43
300.523	33.62
300.737	-15.53
300.952	33.62
301.166	50
301.381	33.62
301.595	7
301.809	35.67
302.024	13.14
302.238	19.29
302.452	-9.39
302.667	15.19
302.881	90.96
303.095	33.62
303.309	52.05
303.524	-23.72
303.738	9.05
303.952	-7.34
304.166	144.21
304.381	-42.15
304.595	-21.67
304.809	-19.63
305.023	90.96
305.237	52.05
305.452	17.24
305.666	-21.67
305.88	97.11
306.094	72.53
306.308	37.72
306.522	84.82
306.736	58.2
306.95	2.9
307.164	33.62
307.379	9.05
307.593	52.05
307.807	-5.29
308.021	17.24
308.235	88.92
308.449	-31.91
308.663	60.24
308.877	121.68
309.091	70.48
309.305	82.77
309.519	0.85
309.733	37.72
309.947	-38.06
310.161	35.67
310.374	50
310.588	33.62
310.802	-56.49
311.016	-13.48
311.23	17.24
311.444	-38.06
311.658	74.58
311.872	33.62
312.085	60.24
312.299	41.81
312.513	33.62
312.727	54.1
312.941	-23.72
313.154	-7.34
313.368	-13.48
313.582	66.39
313.796	43.86
314.009	33.62
314.223	90.96
314.437	105.3
314.651	-31.91
314.864	-11.43
315.078	-21.67
315.292	-19.63
315.505	70.48
315.719	82.77
315.933	27.48
316.146	19.29
316.36	27.48
316.573	142.16
316.787	13.14
317.001	60.24
317.214	-1.19
317.428	-15.53
317.641	-60.59
317.855	52.05
318.068	29.52
318.282	21.33
318.495	27.48
318.709	17.24
318.922	-25.77
319.136	99.16
319.349	13.14
319.563	54.1
319.776	4.95
319.99	-7.34
320.203	58.2
320.417	23.38
320.63	50
320.843	95.06
321.057	70.48
321.27	31.57
321.483	60.24
321.697	78.68
321.91	41.81
322.124	19.29
322.337	-11.43
322.55	-3.24
322.763	84.82
322.977	33.62
323.19	4.95
323.403	-79.02
323.617	9.05
323.83	15.19
324.043	9.05
324.256	17.24
324.469	2.9
324.683	99.16
324.896	19.29
325.109	-31.91
325.322	-15.53
325.535	43.86
325.748	4.95
325.962	2.9
326.175	-81.07
326.388	17.24
326.601	41.81
326.814	11.09
327.027	25.43
327.24	50
327.453	-25.77
327.666	29.52
327.879	41.81
328.092	19.29
328.305	-7.34
328.518	-13.48
328.731	76.63
328.944	9.05
329.157	13.14
329.37	21.33
329.583	27.48
329.796	90.96
330.009	-23.72
330.222	60.24
330.435	88.92
330.648	54.1
330.861	11.09
331.073	13.14
331.286	64.34
331.499	19.29
331.712	-7.34
331.925	80.72
332.138	86.87
332.35	37.72
332.563	-66.73
332.776	25.43
332.989	-21.67
333.202	45.91
333.414	58.2
333.627	86.87
333.84	7
334.053	37.72
334.265	19.29
334.478	-27.82
334.691	-27.82
334.903	-54.44
335.116	41.81
335.329	-15.53
335.541	29.52
335.754	39.76
335.966	-21.67
336.179	0.85
336.392	9.05
336.604	-5.29
336.817	27.48
337.029	29.52
337.242	0.85
337.454	56.15
337.667	11.09
337.88	21.33
338.092	2.9
338.305	86.87
338.517	0.85
338.729	39.76
338.942	90.96
339.154	52.05
339.367	21.33
339.579	4.95
339.792	43.86
340.004	15.19
340.217	-38.06
340.429	11.09
340.641	-7.34
340.854	0.85
341.066	-11.43
341.278	23.38
341.491	146.26
341.703	31.57
341.915	0.85
342.128	33.62
342.34	9.05
342.552	-21.67
342.764	7
342.977	33.62
343.189	27.48
343.401	-42.15
343.613	2.9
343.826	19.29
344.038	31.57
344.25	50
344.462	-31.91
344.674	136.02
344.886	-15.53
345.099	7
345.311	93.01
345.523	41.81
345.735	-11.43
345.947	9.05
346.159	25.43
346.371	43.86
346.583	50
346.795	86.87
347.007	50
347.219	25.43
347.431	27.48
347.643	-5.29
347.855	62.29
348.067	13.14
348.279	33.62
348.491	7
348.703	25.43
348.915	29.52
349.127	2.9
349.339	62.29
349.551	-15.53
349.763	50
349.975	2.9
350.187	43.86
350.399	33.62
350.61	90.96
350.822	70.48
351.034	58.2
351.246	-44.2
351.458	41.81
351.669	39.76
351.881	74.58
352.093	17.24
352.305	4.95
352.517	86.87
352.728	52.05
352.94	60.24
353.152	66.39
353.363	66.39
353.575	7
353.787	33.62
353.999	66.39
354.21	82.77
354.422	-27.82
354.633	43.86
354.845	66.39
355.057	-19.63
355.268	27.48
355.48	50
355.692	33.62
355.903	39.76
356.115	37.72
356.326	-13.48
356.538	90.96
356.749	54.1
356.961	74.58
357.172	41.81
357.384	-48.3
357.595	86.87
357.807	4.95
358.018	-27.82
358.23	50
358.441	17.24
358.653	33.62
358.864	50
359.075	21.33
359.287	68.44
359.498	66.39
359.709	45.91
359.921	17.24
360.132	43.86
360.344	17.24
360.555	76.63
360.766	23.38
360.977	-54.44
361.189	29.52
361.4	50
361.611	31.57
361.823	56.15
362.034	-13.48
362.245	-1.19
362.456	78.68
362.667	-21.67
362.879	-13.48
363.09	27.48
363.301	76.63
363.512	11.09
363.723	-7.34
363.935	7
364.146	-5.29
364.357	54.1
364.568	142.16
364.779	9.05
364.99	121.68
365.201	17.24
365.412	82.77
365.623	58.2
365.834	138.07
366.045	25.43
366.256	58.2
366.467	93.01
366.678	74.58
366.889	13.14
367.1	25.43
367.311	50
367.522	-21.67
367.733	84.82
367.944	11.09
368.155	74.58
368.366	78.68
368.577	-13.48
368.788	-7.34
368.999	-58.54
369.209	25.43
369.42	93.01
369.631	125.78
369.842	109.4
370.053	25.43
370.264	41.81
370.474	66.39
370.685	103.25
370.896	21.33
371.107	82.77
371.317	50
371.528	-13.48
371.739	43.86
371.95	86.87
372.16	35.67
372.371	-3.24
372.582	41.81
372.792	-15.53
373.003	90.96
373.214	84.82
373.424	74.58
373.635	66.39
373.846	107.35
374.056	-50.35
374.267	0.85
374.477	17.24
374.688	11.09
374.898	45.91
375.109	41.81
375.319	72.53
375.53	31.57
375.74	-15.53
375.951	66.39
376.161	74.58
376.372	142.16
376.582	-31.91
376.793	-5.29
377.003	-29.87
377.214	31.57
377.424	70.48
377.635	19.29
377.845	-19.63
378.055	70.48
378.266	11.09
378.476	54.1
378.686	66.39
378.897	107.35
379.107	15.19
379.317	107.35
379.528	-31.91
379.738	37.72
379.948	-48.3
380.158	9.05
380.369	17.24
380.579	35.67
380.789	52.05
380.999	21.33
381.21	45.91
381.42	74.58
381.63	84.82
381.84	21.33
382.05	37.72
382.261	90.96
382.471	52.05
382.681	-21.67
382.891	123.73
383.101	60.24
383.311	-74.92
383.521	-7.34
383.731	74.58
383.941	133.97
384.151	52.05
384.361	80.72
384.571	25.43
384.781	74.58
384.991	172.88
385.201	88.92
385.411	15.19
385.621	60.24
385.831	41.81
386.041	58.2
386.251	25.43
386.461	27.48
386.671	37.72
386.881	99.16
387.091	9.05
387.301	66.39
387.511	-9.39
387.72	-38.06
387.93	35.67
388.14	-3.24
388.35	84.82
388.56	70.48
388.769	37.72
388.979	29.52
389.189	101.2
389.399	78.68
389.609	-15.53
389.818	93.01
390.028	29.52
390.238	0.85
390.447	4.95
390.657	54.1
390.867	93.01
391.076	35.67
391.286	23.38
391.496	62.29
391.705	129.88
391.915	129.88
392.125	68.44
392.334	9.05
392.544	68.44
392.753	17.24
392.963	93.01
393.172	2.9
393.382	56.15
393.591	45.91
393.801	27.48
394.01	95.06
394.22	125.78
394.429	33.62
394.639	74.58
394.848	133.97
395.058	209.75
395.267	50
395.477	95.06
395.686	25.43
395.895	74.58
396.105	103.25
396.314	86.87
396.524	52.05
396.733	54.1
396.942	115.54
397.152	99.16
397.361	74.58
397.57	93.01
397.78	88.92
397.989	33.62
398.198	111.44
398.407	117.59
398.617	119.64
398.826	-21.67
399.035	107.35
399.244	148.31
399.453	123.73
399.663	123.73
399.872	70.48
400.081	107.35
400.29	105.3
400.499	35.67
400.708	84.82
400.917	109.4
401.127	50
401.336	17.24
401.545	189.27
401.754	86.87
401.963	74.58
402.172	62.29
402.381	156.5
402.59	111.44
402.799	39.76
403.008	152.4
403.217	156.5
403.426	64.34
403.635	90.96
403.844	103.25
404.053	93.01
404.262	78.68
404.471	203.6
404.68	50
404.888	103.25
405.097	123.73
405.306	160.59
405.515	152.4
405.724	107.35
405.933	144.21
406.142	191.31
406.35	93.01
406.559	123.73
406.768	150.36
406.977	238.42
407.185	166.74
407.394	160.59
407.603	191.31
407.812	181.07
408.02	232.27
408.229	256.85
408.438	213.84
408.646	197.46
408.855	181.07
409.064	250.71
409.272	209.75
409.481	172.88
409.69	254.8
409.898	230.23
410.107	312.14
410.315	265.04
410.524	244.56
410.733	320.34
410.941	228.18
411.15	328.53
411.358	381.78
411.567	344.91
411.775	344.91
411.984	336.72
412.192	426.83
412.401	410.45
412.609	443.21
412.818	404.3
413.026	410.45
413.234	469.84
413.443	467.79
413.651	498.51
413.86	457.55
414.068	490.32
414.276	533.33
414.485	557.9
414.693	615.24
414.901	598.86
415.11	602.96
415.318	654.16
415.526	598.86
415.734	682.83
415.943	688.97
416.151	746.31
416.359	680.78
416.567	713.55
416.776	764.75
416.984	779.08
417.192	856.9
417.4	885.58
417.608	807.75
417.817	938.82
418.025	918.34
418.233	996.17
418.441	1051.46
418.649	942.92
418.857	1164.1
419.065	1125.19
419.273	1071.94
419.481	1170.24
419.689	1223.49
419.897	1278.79
420.105	1352.51
420.313	1377.09
420.521	1315.65
420.729	1430.34
420.937	1499.97
421.145	1518.4
421.353	1532.73
421.561	1641.28
421.769	1704.76
421.977	1706.81
422.185	1770.3
422.393	1893.18
422.601	1864.5
422.809	1917.75
423.017	1987.38
423.224	2100.02
423.432	2118.45
423.64	2159.41
423.848	2310.96
424.056	2317.11
424.263	2376.5
424.471	2458.42
424.679	2450.22
424.887	2507.57
425.094	2808.62
425.302	2757.42
425.51	2722.6
425.718	2892.59
425.925	2919.21
426.133	2929.45
426.341	3302.18
426.548	3443.49
426.756	3253.03
426.964	3341.09
427.171	3625.76
427.379	3679.01
427.586	3836.7
427.794	3891.99
428.001	4023.06
428.209	4160.28
428.417	4033.3
428.624	4485.9
428.832	4451.09
429.039	4317.97
429.247	4397.84
429.454	4842.25
429.662	5090.06
429.869	4850.44
430.076	5266.18
430.284	4956.94
430.491	5292.8
430.699	5493.51
430.906	5524.23
431.114	5622.53
431.321	5776.13
431.528	5925.63
431.736	6376.18
431.943	6513.39
432.15	6423.28
432.358	6480.63
432.565	6742.77
432.772	6791.92
432.979	7135.98
433.187	7221.99
433.394	7400.16
433.601	7588.58
433.808	7858.91
434.016	7807.71
434.223	8028.89
434.43	8526.55
434.637	8276.7
434.844	8841.93
435.052	9081.55
435.259	8784.59
435.466	8995.53
435.673	8901.33
435.88	9693.89
436.087	10023.61
436.294	10003.13
436.501	9714.37
436.708	10027.71
436.915	10298.04
437.122	10678.96
437.329	10828.46
437.537	11342.5
437.743	11238.06
437.95	11408.04
438.157	11676.32
438.364	12225.18
438.571	12100.25
438.778	12102.3
438.985	13503.11
439.192	12767.89
439.399	13083.28
439.606	12880.53
439.813	13742.72
440.02	14664.31
440.227	14432.89
440.433	14226.04
440.64	14508.66
440.847	14531.19
441.054	14924.4
441.261	15880.8
441.467	15659.62
441.674	15891.04
441.881	16376.41
442.088	16753.24
442.294	16073.31
442.501	16945.75
442.708	17091.15
442.914	17726.02
443.121	18383.42
443.328	17977.92
443.534	19049.01
443.741	18524.73
443.948	18086.47
444.154	19374.64
444.361	19577.39
444.568	19544.62
444.774	19780.14
444.981	19837.48
445.187	20601.37
445.394	21408.27
445.6	21119.51
445.807	23177.72
446.013	22086.15
446.22	22612.48
446.426	23271.92
446.633	23515.63
446.839	24715.74
447.046	23663.08
447.252	24855
447.459	24990.17
447.665	24760.8
447.871	25559.5
448.078	26868.16
448.284	25567.7
448.491	26378.69
448.697	27445.68
448.903	28053.93
449.11	28068.27
449.316	27705.77
449.522	27972.01
449.728	28756.38
449.935	28983.71
450.141	28952.99
450.347	29634.96
450.553	28823.97
450.76	29094.3
450.966	30067.08
451.172	29802.89
451.378	30181.77
451.584	29798.8
451.791	30439.81
451.997	30542.21
452.203	31127.93
452.409	31400.31
452.615	31205.75
452.821	29735.31
453.027	29649.3
453.233	31084.92
453.44	30130.57
453.646	30460.29
453.852	30437.76
454.058	30982.52
454.264	29878.67
454.47	30675.33
454.676	29878.67
454.882	30863.74
455.088	28473.76
455.294	28950.94
455.5	29116.83
455.705	29464.98
455.911	28105.13
456.117	27802.03
456.323	27703.73
456.529	26122.69
456.735	27281.85
456.941	26810.81
457.147	26264
457.352	25412.05
457.558	25178.58
457.764	25199.06
457.97	25016.79
458.176	23982.57
458.381	24203.75
458.587	22956.54
458.793	22921.72
458.999	21920.26
459.204	23497.2
459.41	22821.37
459.616	21375.5
459.821	21287.44
460.027	21242.39
460.233	20963.86
460.438	19749.42
460.644	20019.75
460.85	19128.88
461.055	18825.78
461.261	18838.07
461.466	17234.51
461.672	17015.38
461.878	18006.59
462.083	17099.34
462.289	16573.02
462.494	16560.73
462.7	15657.57
462.905	15516.26
463.111	15815.27
463.316	15848.04
463.522	15440.49
463.727	15557.22
463.932	15487.59
464.138	15450.73
464.343	15200.88
464.549	14918.26
464.754	15405.67
464.959	15272.56
465.165	15063.66
465.37	14672.5
465.575	14082.69
465.781	14715.51
465.986	14656.12
466.191	14344.83
466.397	13951.62
466.602	13273.74
466.807	13748.87
467.012	13910.66
467.218	13523.59
467.423	13666.95
467.628	13441.67
467.833	14125.69
468.038	13886.08
468.244	13429.38
468.449	13892.23
468.654	13314.7
468.859	13476.49
469.064	13255.31
469.269	12513.94
469.474	12788.37
469.679	13324.94
469.885	12593.81
470.09	12833.43
470.295	12812.95
470.5	12255.9
470.705	12714.64
470.91	12315.29
471.115	12124.83
471.32	12343.96
471.525	12350.1
471.73	11922.08
471.935	11915.94
472.139	11555.49
472.344	11960.99
472.549	11584.16
472.754	11373.22
472.959	11121.32
473.164	11131.56
473.369	10785.46
473.574	11193
473.778	10943.15
473.983	11049.64
474.188	11268.78
474.393	10627.76
474.598	10412.73
474.802	10537.65
475.007	10384.05
475.212	10273.46
475.417	9896.64
475.621	10113.72
475.826	9964.22
476.031	9933.5
476.235	9544.39
476.44	9800.38
476.645	9568.96
476.849	9740.99
477.054	9394.89
477.259	9431.75
477.463	9482.95
477.668	9151.18
477.872	9339.59
478.077	9112.27
478.282	8878.8
478.486	8975.05
478.691	8803.02
478.895	8608.47
479.1	8610.51
479.304	8612.56
479.509	8442.58
479.713	8719.06
479.918	8309.46
480.122	8112.86
480.326	8258.26
480.531	8342.23
480.735	8291.03
480.94	8205.02
481.144	8401.62
481.348	8006.36
481.553	8215.26
481.757	8014.56
481.961	8073.95
482.166	8237.78
482.37	8024.79
482.574	7951.07
482.778	7887.58
482.983	8235.74
483.187	8022.75
483.391	7983.84
483.595	8018.65
483.8	8061.66
484.004	8047.32
484.208	8028.89
484.412	7971.55
484.616	7906.01
484.821	8016.6
485.025	7785.18
485.229	8012.51
485.433	8028.89
485.637	7979.74
485.841	7824.09
486.045	8041.18
486.249	8082.14
486.453	7850.72
486.657	7938.78
486.861	8049.37
487.065	7928.54
487.269	7996.12
487.473	7828.19
487.677	7979.74
487.881	8145.63
488.085	7815.9
488.289	8061.66
488.493	8065.75
488.697	8047.32
488.901	7889.63
489.105	8037.08
489.309	8133.34
489.512	8030.94
489.716	8028.89
489.92	7912.16
490.124	7930.59
490.328	8032.99
490.531	8032.99
490.735	8284.89
490.939	8237.78
491.143	8229.59
491.346	8149.72
491.55	8379.09
491.754	8391.38
491.958	8299.22
492.161	8344.28
492.365	8409.81
492.569	8415.96
492.772	8473.3
492.976	8573.65
493.18	8622.8
493.383	8618.71
493.587	8653.52
493.79	8676.05
493.994	8506.07
494.197	8682.19
494.401	8880.85
494.605	8794.83
494.808	9052.88
495.012	8880.85
495.215	8911.57
495.419	9016.01
495.622	9081.55
495.825	9175.75
496.029	9325.26
496.232	9370.31
496.436	9351.88
496.639	9710.27
496.843	9513.67
497.046	9616.07
497.249	9831.1
497.453	9913.02
497.656	10060.48
497.859	9949.89
498.063	10064.57
498.266	10355.38
498.469	10191.55
498.673	10494.65
498.876	10689.2
499.079	10756.79
499.282	10728.11
499.485	11066.03
499.689	10992.3
499.892	11127.47
500.095	10988.21
500.298	11350.7
500.501	11362.98
500.705	11455.14
500.908	11645.6
501.111	11825.82
501.314	11993.76
501.517	11977.37
501.72	12216.99
501.923	12143.26
502.126	12356.25
502.329	12673.68
502.532	12802.71
502.735	12786.32
502.938	12950.16
503.141	13007.5
503.344	13261.45
503.547	13310.6
503.75	13519.5
503.953	13642.37
504.156	13738.63
504.359	14068.35
504.562	14164.61
504.765	14123.65
504.968	14428.79
505.17	14692.98
505.373	14533.24
505.576	14834.29
505.779	14772.85
505.982	15188.59
506.185	15428.2
506.387	15669.86
506.59	15506.02
506.793	16157.28
506.996	15766.12
507.198	16355.93
507.401	16198.24
507.604	16411.23
507.807	16886.36
508.009	16575.06
508.212	16824.92
508.415	17259.09
508.617	17357.39
508.82	17199.69
509.022	17279.57
509.225	17676.87
509.428	17977.92
509.63	18260.54
509.833	18096.71
510.035	18481.72
510.238	18500.16
510.44	18846.26
510.643	19022.39
510.845	19229.23
511.048	19472.94
511.25	19503.66
511.453	19591.72
511.655	20427.29
511.858	20148.77
512.06	20206.11
512.262	20464.16
512.465	20273.7
512.667	20611.61
512.87	20763.16
513.072	21168.66
513.274	21570.06
513.477	21563.92
513.679	21838.34
513.881	22151.68
514.084	22155.78
514.286	21938.69
514.488	22274.56
514.69	22979.06
514.893	23040.5
515.095	23003.64
515.297	23484.91
515.499	23595.5
515.701	23433.71
515.904	23816.68
516.106	24545.76
516.308	24715.74
516.51	24549.85
516.712	24760.8
516.914	24887.77
517.116	25252.31
517.318	25084.37
517.52	25514.45
517.722	25422.29
517.925	26089.93
518.127	26200.52
518.329	26532.29
518.531	26071.5
518.733	26995.13
518.935	27144.63
519.136	27048.38
519.338	27548.08
519.54	27611.57
519.742	27861.42
519.944	28162.47
520.146	28404.13
520.348	28582.31
520.55	28561.83
520.752	28572.07
520.954	29245.85
521.155	28846.49
521.357	29444.5
521.559	29649.3
521.761	30153.1
521.963	29774.22
522.164	30194.06
522.366	30544.26
522.568	30609.79
522.77	30693.76
522.971	31455.61
523.173	31078.78
523.375	31385.97
523.576	31125.88
523.778	31611.25
523.98	31822.19
524.181	32287.08
524.383	31617.39
524.584	32536.93
524.786	32514.41
524.988	31959.41
525.189	32674.15
525.391	32946.53
525.592	33114.46
525.794	33110.36
525.995	33245.53
526.197	33413.46
526.398	33462.61
526.6	33771.86
526.801	33646.93
527.003	33997.13
527.204	34013.52
527.406	34421.06
527.607	34058.57
527.808	34472.26
528.01	33964.37
528.211	34234.7
528.412	34781.51
528.614	34836.8
528.815	34697.54
529.016	35103.04
529.218	34838.85
529.419	34896.19
529.62	35137.85
529.822	34943.3
530.023	35324.22
530.224	35041.6
530.425	35223.87
530.626	34584.9
530.828	34734.4
531.029	35510.58
531.23	35387.71
531.431	35727.67
531.632	35217.72
531.833	35434.81
532.035	35664.18
532.236	35629.37
532.437	35725.62
532.638	35359.03
532.839	36053.3
533.04	36053.3
533.241	35430.71
533.442	36022.58
533.643	35928.37
533.844	35774.77
534.045	36213.04
534.246	35352.89
534.447	35995.95
534.648	35328.31
534.849	35973.42
535.05	35803.44
535.251	35719.48
535.451	35891.51
535.652	36020.53
535.853	35787.06
536.054	36108.59
536.255	35973.42
536.456	35981.62
536.657	36014.38
536.857	35731.76
537.058	35621.17
537.259	35914.03
537.46	36057.39
537.66	35807.54
537.861	35821.87
538.062	35813.68
538.263	35959.09
538.463	35778.87
538.664	35711.28
538.865	35940.66
539.065	35899.7
539.266	35735.86
539.466	35920.18
539.667	35258.68
539.868	36016.43
540.068	35590.45
540.269	35660.09
540.469	35907.89
540.67	35920.18
540.87	35412.28
541.071	35893.55
541.271	35778.87
541.472	35686.71
541.672	35961.14
541.873	35387.71
542.073	35268.92
542.274	35959.09
542.474	35469.62
542.675	35443
542.875	36196.65
543.075	35703.09
543.276	35361.08
543.476	36014.38
543.676	35430.71
543.877	35770.68
544.077	35471.67
544.277	35479.86
544.478	35180.86
544.678	35598.65
544.878	35680.56
545.078	35635.51
545.279	35813.68
545.479	35510.58
545.679	35647.8
545.879	35647.8
546.079	35793.2
546.28	35793.2
546.48	35039.55
546.68	35494.2
546.88	35682.61
547.08	35563.83
547.28	35494.2
547.48	35232.06
547.68	35131.71
547.88	34806.08
548.081	35602.74
548.281	35264.83
548.481	35238.2
548.681	35113.28
548.881	35402.04
549.081	35051.84
549.28	35002.69
549.48	35514.68
549.68	35029.31
549.88	35719.48
550.08	35039.55
550.28	35006.78
550.48	35156.28
550.68	35506.49
550.88	34926.91
551.08	35371.32
551.279	35197.24
551.479	34763.07
551.679	35150.14
551.879	34967.87
552.079	35434.81
552.278	35051.84
552.478	35193.15
552.678	35180.86
552.878	34978.11
553.077	35051.84
553.277	34826.56
553.477	35107.13
553.676	34894.14
553.876	35017.02
554.076	34720.07
554.275	34707.78
554.475	34244.94
554.674	34789.7
554.874	34683.2
555.074	34416.97
555.273	34978.11
555.473	34771.27
555.672	34644.29
555.872	34298.19
556.071	34582.85
556.271	34636.1
556.47	34666.82
556.67	34146.64
556.869	34191.69
557.068	34398.54
557.268	34302.28
557.467	34216.27
557.667	34201.93
557.866	34357.58
558.065	34320.71
558.265	34148.68
558.464	34163.02
558.663	34455.88
558.863	33534.29
559.062	34519.37
559.261	34064.72
559.461	34201.93
559.66	33739.09
559.859	34034
560.058	33708.37
560.258	33741.14
560.457	33407.32
560.656	34066.77
560.855	33659.22
561.054	33859.92
561.253	33495.38
561.453	33255.77
561.652	33458.52
561.851	33499.48
562.05	33464.66
562.249	33225.05
562.448	33429.85
562.647	33431.9
562.846	33159.52
563.045	33356.12
563.244	32870.75
563.443	33210.71
563.642	32543.08
563.841	33034.59
564.04	32756.07
564.239	33253.72
564.438	32657.76
564.637	32721.25
564.836	32776.55
565.035	32305.51
565.234	32799.07
565.432	32581.99
565.631	32371.05
565.83	32215.4
566.029	32336.23
566.228	32520.55
566.427	32369
566.625	31998.32
566.824	31723.89
567.023	32160.11
567.222	31773.04
567.42	32102.76
567.619	31840.62
567.818	31965.55
568.016	31656.31
568.215	31836.53
568.414	31891.82
568.612	32035.18
568.811	31607.16
569.01	31875.44
569.208	31082.88
569.407	31711.6
569.605	30906.75
569.804	31099.26
570.002	31115.64
570.201	31199.61
570.4	30925.18
570.598	31148.41
570.797	30783.87
570.995	30691.71
571.193	30728.58
571.392	30695.81
571.59	30523.78
571.789	30392.71
571.987	30445.96
572.186	30396.81
572.384	30101.9
572.582	30378.37
572.781	30622.08
572.979	29911.44
573.177	30183.82
573.376	30103.95
573.574	29817.23
573.772	29864.33
573.971	29927.82
574.169	29483.41
574.367	29567.38
574.565	29735.31
574.763	29407.64
574.962	29284.76
575.16	29227.42
575.358	29620.63
575.556	29006.23
575.754	29378.97
575.952	29188.5
576.151	29335.96
576.349	28952.99
576.547	28920.22
576.745	29104.54
576.943	28987.8
577.141	28828.06
577.339	28488.1
577.537	28498.34
577.735	28696.99
577.933	28166.57
578.131	28457.38
578.329	28197.29
578.527	27922.86
578.725	27875.76
578.923	28006.83
579.121	28432.8
579.319	27855.28
579.516	27865.52
579.714	27888.04
579.912	28092.84
580.11	27804.08
580.308	27365.81
580.506	27742.64
580.704	27148.73
580.901	27394.48
581.099	27408.82
581.297	27431.35
581.495	27341.24
581.692	27406.77
581.89	26780.09
582.088	27275.7
582.285	26927.55
582.483	27263.41
582.681	27187.64
582.878	26948.03
583.076	26632.64
583.274	26872.25
583.471	26452.42
583.669	26823.1
583.866	25924.04
584.064	26573.25
584.262	26010.06
584.459	26196.42
584.657	26208.71
584.854	26352.07
585.052	26038.73
585.249	26124.74
585.447	26003.91
585.644	25878.99
585.841	25776.59
586.039	25969.1
586.236	25354.71
586.434	25440.72
586.631	25668.05
586.828	25309.65
587.026	25678.29
587.223	25506.26
587.42	25270.74
587.618	25338.32
587.815	25188.82
588.012	24789.47
588.21	25121.24
588.407	25297.36
588.604	24984.02
588.801	24433.12
588.999	24846.81
589.196	24676.83
589.393	24629.73
589.59	24633.82
589.787	24635.87
589.984	24099.3
590.182	24502.75
590.379	24508.9
590.576	24048.1
590.773	24367.59
590.97	23781.87
591.167	23996.9
591.364	23710.19
591.561	23990.76
591.758	23474.67
591.955	23732.72
592.152	23564.78
592.349	23474.67
592.546	23534.06
592.743	23532.01
592.94	23267.83
593.137	23101.94
593.334	23421.42
593.531	22921.72
593.727	23065.08
593.924	23085.56
594.121	23026.17
594.318	23071.22
594.515	22387.2
594.712	22847.99
594.908	22817.27
595.105	22708.73
595.302	22196.74
595.499	22815.23
595.696	22393.34
595.892	22151.68
596.089	22358.53
596.286	22344.19
596.482	22405.63
596.679	22442.49
596.876	22139.4
597.072	22010.37
597.269	22004.23
597.466	21787.14
597.662	21647.88
597.859	21858.82
598.055	21848.58
598.252	21828.1
598.448	21639.69
598.645	21621.26
598.841	21056.02
599.038	21191.19
599.234	21402.13
599.431	21152.27
599.627	20881.94
599.824	21297.68
600.02	20881.94
600.217	21002.77
600.413	20980.25
600.609	20840.98
600.806	20922.9
601.002	20920.85
601.198	20521.5
601.395	20826.65
601.591	20544.03
601.787	20652.57
601.984	20472.35
602.18	20398.62
602.376	20222.5
602.572	20083.23
602.769	20222.5
602.965	19550.76
603.161	20193.83
603.357	19976.74
603.553	20042.28
603.75	19972.64
603.946	19620.39
604.142	19941.93
604.338	19661.35
604.534	19524.14
604.73	19192.37
604.926	19489.32
605.122	19522.09
605.318	19468.84
605.514	19335.73
605.71	19446.32
605.906	18932.28
606.102	19128.88
606.298	19128.88
606.494	19210.8
606.69	19155.51
606.886	19057.2
607.082	18702.9
607.278	19055.15
607.474	18846.26
607.67	19124.79
607.866	18559.55
608.062	18737.72
608.257	18698.81
608.453	18928.18
608.649	18596.41
608.845	18553.4
609.041	18653.75
609.236	18580.03
609.432	18459.2
609.628	18700.86
609.824	18317.89
610.019	18377.28
610.215	18467.39
610.411	18338.37
610.606	17957.44
610.802	18387.52
610.998	18158.14
611.193	18188.86
611.389	18180.67
611.584	17656.39
611.78	17670.73
611.976	17924.68
612.171	18014.79
612.367	17971.78
612.562	17889.86
612.758	17695.3
612.953	17736.26
613.149	17928.77
613.344	17578.57
613.539	18092.61
613.735	17793.61
613.93	17746.5
614.126	17539.66
614.321	17365.58
614.517	17560.14
614.712	17635.91
614.907	17445.45
615.103	17580.62
615.298	17177.17
615.493	17699.4
615.688	17388.11
615.884	17713.74
616.079	17072.72
616.274	17336.91
616.47	17166.93
616.665	17175.12
616.86	17220.17
617.055	17388.11
617.25	17080.91
617.445	17322.57
617.641	16927.32
617.836	16994.9
618.031	16697.94
618.226	16804.44
618.421	16781.91
618.616	16740.95
618.811	16570.97
619.006	16689.75
619.201	16319.07
619.396	16478.81
619.591	16142.94
619.786	16411.23
619.981	16435.8
620.176	16323.16
620.371	16179.81
620.566	15809.12
620.761	16087.65
620.956	16239.2
621.151	15788.64
621.346	16083.55
621.541	15860.32
621.735	15833.7
621.93	15587.94
622.125	15686.25
622.32	15227.5
622.515	15460.97
622.709	15147.63
622.904	15270.51
623.099	15297.13
623.294	15313.52
623.488	14830.2
623.683	14779
623.878	14684.79
624.072	14922.35
624.267	14807.67
624.462	14832.24
624.656	14594.68
624.851	14479.99
625.046	14305.92
625.24	14350.97
625.435	14310.01
625.629	14172.8
625.824	14234.24
626.018	14043.78
626.213	13765.25
626.407	13720.2
626.602	13771.4
626.796	13863.55
626.991	13636.23
627.185	13804.16
627.38	13320.84
627.574	13331.08
627.768	13296.27
627.963	13306.51
628.157	13173.39
628.352	13150.86
628.546	12984.98
628.74	12980.88
628.935	12817.04
629.129	12915.34
629.323	12671.64
629.517	12677.78
629.712	12577.43
629.906	12532.37
630.1	12337.82
630.294	12487.32
630.489	12313.24
630.683	12329.63
630.877	12321.43
631.071	12157.6
631.265	12219.03
631.459	11952.8
631.653	11807.39
631.848	12038.81
632.042	12133.02
632.236	11956.89
632.43	11604.64
632.624	11678.37
632.818	11754.15
633.012	11438.76
633.206	11530.92
633.4	11598.5
633.594	11346.6
633.788	11268.78
633.982	11309.74
634.176	11127.47
634.369	11297.45
634.563	11043.5
634.757	11031.21
634.951	10924.72
635.145	10807.98
635.339	11055.79
635.533	10785.46
635.726	11041.45
635.92	10683.06
636.114	10560.18
636.308	10472.12
636.501	10748.59
636.695	10498.74
636.889	10496.69
637.083	10293.94
637.276	10326.71
637.47	10023.61
637.664	10226.36
637.857	10126.01
638.051	9999.04
638.244	10134.2
638.438	10025.66
638.632	9988.8
638.825	9892.54
639.019	9802.43
639.212	9814.72
639.406	9620.16
639.599	9810.62
639.793	9732.8
639.986	9435.85
640.18	9478.85
640.373	9757.38
640.567	9386.69
640.76	9566.92
640.954	9372.36
641.147	9456.33
641.34	9163.47
641.534	9155.27
641.727	9063.12
641.92	9097.93
642.114	9061.07
642.307	9218.76
642.5	8837.84
642.694	8755.92
642.887	8835.79
643.08	8856.27
643.273	8827.6
643.467	8833.74
643.66	8686.29
643.853	8706.77
644.046	8522.45
644.239	8418
644.432	8413.91
644.626	8129.24
644.819	8190.68
645.012	8356.57
645.205	8295.13
645.398	8291.03
645.591	8221.4
645.784	8006.36
645.977	8078.04
646.17	8299.22
646.363	8086.23
646.556	8012.51
646.749	7836.38
646.942	7860.96
647.135	7863.01
647.328	7844.57
647.521	7758.56
647.714	7768.8
647.907	7699.17
648.099	7709.41
648.292	7711.46
648.485	7551.71
648.678	7510.75
648.871	7611.11
649.064	7383.78
649.256	7553.76
649.449	7453.41
649.642	7414.5
649.835	7265
650.027	7269.09
650.22	7328.49
650.413	7238.37
650.605	7162.6
650.798	7228.14
650.991	6972.14
651.183	7090.92
651.376	6974.19
651.568	7215.85
651.761	6843.12
651.954	6945.52
652.146	6947.56
652.339	6847.21
652.531	6947.56
652.724	6607.6
652.916	6669.04
653.109	6804.21
653.301	6646.51
653.494	6867.69
653.686	6540.02
653.879	6724.33
654.071	6447.86
654.263	6454
654.456	6574.83
654.648	6490.87
654.84	6433.52
655.033	6370.04
655.225	6447.86
655.417	6122.23
655.61	6267.64
655.802	6292.21
655.994	6284.02
656.186	6148.86
656.379	6081.27
656.571	6214.39
656.763	5980.92
656.955	5939.96
657.148	5868.28
657.34	6195.96
657.532	5915.39
657.724	5876.48
657.916	5882.62
658.108	5880.57
658.3	5843.71
658.492	5677.82
658.684	5829.37
658.876	5657.34
659.068	5554.94
659.26	5579.52
659.452	5735.17
659.644	5565.18
659.836	5491.46
660.028	5724.93
660.22	5419.78
660.412	5387.01
660.604	5387.01
660.796	5313.28
660.988	5384.96
661.18	5341.96
661.372	5280.52
661.563	5303.04
661.755	5229.32
661.947	5319.43
662.139	5198.6
662.331	5206.79
662.522	5063.43
662.714	5079.82
662.906	5047.05
663.097	5229.32
663.289	4891.4
663.481	4885.26
663.673	5024.52
663.864	4825.87
664.056	4932.36
664.247	4784.91
664.439	4856.59
664.631	4899.59
664.822	4727.57
665.014	4842.25
665.205	4756.24
665.397	4756.24
665.588	4727.57
665.78	4676.37
665.971	4670.22
666.163	4637.45
666.354	4533.01
666.546	4510.48
666.737	4473.62
666.929	4506.38
667.12	4518.67
667.311	4490
667.503	4352.79
667.694	4551.44
667.885	4539.15
668.077	4446.99
668.268	4301.59
668.459	4324.12
668.651	4424.47
668.842	4254.48
669.033	4328.21
669.224	4350.74
669.416	4309.78
669.607	4293.4
669.798	4076.31
669.989	4309.78
670.18	4248.34
670.371	4055.83
670.563	4205.33
670.754	4156.18
670.945	4080.41
671.136	4176.66
671.327	4076.31
671.518	4066.07
671.709	4090.65
671.9	4139.8
672.091	4023.06
672.282	4006.68
672.473	3810.08
672.664	3908.38
672.855	3941.15
673.046	3842.84
673.237	3867.42
673.428	3842.84
673.619	3924.76
673.809	3812.12
674	3910.43
674.191	3887.9
674.382	3756.83
674.573	3722.01
674.764	3810.08
674.954	3777.31
675.145	3664.67
675.336	3736.35
675.527	3670.81
675.717	3644.19
675.908	3752.73
676.099	3631.9
676.289	3627.81
676.48	3636
676.671	3564.32
676.861	3621.66
677.052	3607.33
677.243	3537.7
677.433	3400.48
677.624	3599.13
677.814	3539.74
678.005	3472.16
678.195	3539.74
678.386	3392.29
678.576	3377.95
678.767	3582.75
678.957	3355.43
679.148	3392.29
679.338	3509.02
679.529	3404.58
679.719	3320.61
679.909	3404.58
680.1	3394.34
680.29	3339.04
680.481	3261.22
680.671	3449.63
680.861	3330.85
681.052	3367.71
681.242	3326.75
681.432	3310.37
681.622	3207.97
681.813	3212.07
682.003	3310.37
682.193	3212.07
682.383	3291.94
682.573	3148.58
682.764	3310.37
682.954	3089.19
683.144	3244.84
683.334	3175.2
683.524	3058.47
683.714	3261.22
683.904	3132.2
684.094	3146.53
684.284	3148.58
684.474	3283.75
684.664	3132.2
684.854	3087.14
685.044	3105.57
685.234	3072.81
685.424	3121.96
685.614	3017.51
685.804	3066.66
685.994	3130.15
686.184	3005.22
686.374	3027.75
686.564	2927.4
686.753	2980.65
686.943	2908.97
687.133	2878.25
687.323	2945.83
687.513	2958.12
687.702	3011.37
687.892	2853.67
688.082	2913.06
688.272	2816.81
688.461	2784.04
688.651	2798.38
688.841	2812.71
689.03	2902.83
689.22	2851.63
689.41	2753.32
689.599	2781.99
689.789	2687.79
689.979	2814.76
690.168	2755.37
690.358	2704.17
690.547	2738.99
690.737	2810.67
690.926	2741.04
691.116	2597.68
691.305	2722.6
691.495	2683.69
691.684	2630.45
691.874	2761.52
692.063	2655.02
692.252	2474.8
692.442	2601.77
692.631	2507.57
692.82	2462.51
693.01	2648.88
693.199	2605.87
693.388	2614.06
693.578	2523.95
693.767	2540.33
693.956	2503.47
694.146	2575.15
694.335	2409.26
694.524	2458.42
694.713	2566.96
694.902	2396.98
695.092	2493.23
695.281	2370.35
695.47	2491.18
695.659	2482.99
695.848	2405.17
696.037	2382.64
696.226	2353.97
696.415	2237.24
696.604	2329.39
696.793	2317.11
696.982	2419.5
697.171	2321.2
697.36	2313.01
697.549	2380.59
697.738	2343.73
697.927	2302.77
698.116	2423.6
698.305	2356.02
698.494	2325.3
698.683	2335.54
698.872	2302.77
699.061	2200.37
699.25	2308.91
699.438	2339.63
699.627	2304.82
699.816	2310.96
700.005	2274.1
700.193	2253.62
700.382	2417.46
700.571	2202.42
700.76	2208.56
700.948	2247.48
701.137	2306.87
701.326	2288.43
701.514	2140.98
701.703	2204.47
701.892	2073.4
702.08	2315.06
702.269	2286.39
702.457	2233.14
702.646	2188.08
702.834	2171.7
703.023	2114.36
703.212	2157.36
703.4	2214.71
703.589	2132.79
703.777	2136.88
703.965	2118.45
704.154	2138.93
704.342	2179.89
704.531	2083.64
704.719	2175.8
704.907	2136.88
705.096	2071.35
705.284	2136.88
705.472	2089.78
705.661	2179.89
705.849	2206.52
706.037	2118.45
706.226	2128.69
706.414	2114.36
706.602	2091.83
706.79	2079.54
706.979	2085.69
707.167	2130.74
707.355	2081.59
707.543	2210.61
707.731	2079.54
707.919	2063.16
708.107	2114.36
708.296	2048.82
708.484	2059.06
708.672	2132.79
708.86	2034.49
709.048	1999.67
709.236	1977.14
709.424	2081.59
709.612	2104.12
709.8	2016.05
709.988	2059.06
710.176	2048.82
710.364	2048.82
710.551	2016.05
710.739	2081.59
710.927	1989.43
711.115	2075.45
711.303	2065.21
711.491	2100.02
711.679	1876.79
711.866	2057.01
712.054	2140.98
712.242	2097.97
712.43	2159.41
712.617	2065.21
712.805	2118.45
712.993	1962.81
713.181	2122.55
713.368	2073.4
713.556	1983.29
713.744	1975.1
713.931	2134.84
714.119	2048.82
714.306	2020.15
714.494	2153.27
714.682	2022.2
714.869	2018.1
715.057	2065.21
715.244	1983.29
715.432	2067.25
715.619	1983.29
715.807	2028.34
715.994	2024.25
716.182	2073.4
716.369	2112.31
716.556	1962.81
716.744	1921.85
716.931	1964.86
717.119	2132.79
717.306	2032.44
717.493	2028.34
717.681	1962.81
717.868	1993.53
718.055	1979.19
718.242	1975.1
718.43	2067.25
718.617	2007.86
718.804	1981.24
718.991	2007.86
719.179	1966.9
719.366	2040.63
719.553	2052.92
719.74	1966.9
719.927	1997.62
720.114	1946.42
720.301	2067.25
720.488	1966.9
720.676	1921.85
720.863	2071.35
721.05	2030.39
721.237	2018.1
721.424	2003.77
721.611	2036.53
721.798	1975.1
721.985	2024.25
722.172	2042.68
722.358	1938.23
722.545	2140.98
722.732	2024.25
722.919	2061.11
723.106	1977.14
723.293	1884.98
723.48	1964.86
723.667	1917.75
723.853	2044.73
724.04	2042.68
724.227	2040.63
724.414	2024.25
724.6	2016.05
724.787	1962.81
724.974	2073.4
725.161	2048.82
725.347	1893.18
725.534	2067.25
725.72	2065.21
725.907	1962.81
726.094	1913.66
726.28	2081.59
726.467	2050.87
726.653	1887.03
726.84	2083.64
727.027	1985.34
727.213	1930.04
727.4	2028.34
727.586	1923.9
727.773	2081.59
727.959	2114.36
728.145	1954.62
728.332	2028.34
728.518	1995.57
728.705	2048.82
728.891	1983.29
729.077	2050.87
729.264	2122.55
729.45	1966.9
729.636	2007.86
729.823	1925.94
730.009	2083.64
730.195	2003.77
730.382	1917.75
730.568	1942.33
730.754	1987.38
730.94	2130.74
731.126	2089.78
731.313	1966.9
731.499	2020.15
731.685	1958.71
731.871	1925.94
732.057	2032.44
732.243	1999.67
732.429	1934.14
732.615	1966.9
732.801	2059.06
732.987	2016.05
733.173	1899.32
733.359	1821.5
733.545	1942.33
733.731	2028.34
733.917	2034.49
734.103	1975.1
734.289	2057.01
734.475	1971
734.661	2046.77
734.847	1966.9
735.033	1977.14
735.219	1991.48
735.404	1844.03
735.59	1958.71
735.776	1925.94
735.962	2118.45
736.148	1903.42
736.333	1968.95
736.519	1997.62
736.705	1846.07
736.89	1956.66
737.076	1983.29
737.262	1819.45
737.447	1844.03
737.633	1868.6
737.819	1956.66
738.004	1938.23
738.19	1930.04
738.375	1966.9
738.561	1905.46
738.747	1821.5
738.932	1913.66
739.118	1979.19
739.303	1942.33
739.489	1987.38
739.674	1844.03
739.859	1950.52
740.045	1919.8
740.23	2052.92
740.416	1954.62
740.601	1919.8
740.786	1903.42
740.972	1874.74
741.157	1710.91
741.342	1770.3
741.528	1880.89
741.713	1895.22
741.898	1868.6
742.084	1884.98
742.269	1844.03
742.454	1819.45
742.639	1874.74
742.824	1764.15
743.01	1796.92
743.195	1903.42
743.38	1796.92
743.565	1846.07
743.75	1817.4
743.935	1725.24
744.12	1817.4
744.305	1835.83
744.49	1798.97
744.675	1811.26
744.86	1727.29
745.045	1731.39
745.23	1839.93
745.415	1721.15
745.6	1764.15
745.785	1678.14
745.97	1717.05
746.155	1573.69
746.34	1731.39
746.525	1657.66
746.71	1686.33
746.895	1686.33
747.079	1614.65
747.264	1581.89
747.449	1643.32
747.634	1561.41
747.819	1571.65
748.003	1639.23
748.188	1590.08
748.373	1598.27
748.557	1633.08
748.742	1575.74
748.927	1647.42
749.111	1598.27
749.296	1516.35
749.481	1614.65
749.665	1479.49
749.85	1454.91
750.034	1540.93
750.219	1504.06
750.404	1473.34
750.588	1549.12
750.773	1485.63
750.957	1420.1
751.141	1483.58
751.326	1483.58
751.51	1368.9
751.695	1520.45
751.879	1434.43
752.064	1434.43
752.248	1420.1
752.432	1311.55
752.617	1456.96
752.801	1327.94
752.985	1295.17
753.17	1397.57
753.354	1346.37
753.538	1229.63
753.722	1401.66
753.907	1278.79
754.091	1301.31
754.275	1196.87
754.459	1280.83
754.643	1354.56
754.828	1258.31
755.012	1389.38
755.196	1219.39
755.38	1223.49
755.564	1262.4
755.748	1286.98
755.932	1217.35
756.116	1207.11
756.3	1301.31
756.484	1190.72
756.668	1221.44
756.852	1125.19
757.036	1133.38
757.22	1188.68
757.404	1223.49
757.588	1198.92
757.772	1127.24
757.956	1139.52
758.14	1125.19
758.323	1149.76
758.507	1180.48
758.691	1131.33
758.875	1200.96
759.059	1205.06
759.242	1090.37
759.426	1100.61
759.61	1119.04
759.794	1016.65
759.977	1090.37
760.161	1127.24
760.345	1078.08
760.528	1123.14
760.712	1045.32
760.895	1010.5
761.079	944.97
761.263	1022.79
761.446	856.9
761.63	953.16
761.813	1102.66
761.997	1002.31
762.18	879.43
762.364	944.97
762.547	998.21
762.731	926.54
762.914	996.17
763.098	975.69
763.281	983.88
763.464	944.97
763.648	1024.84
763.831	910.15
764.015	910.15
764.198	1035.08
764.381	928.58
764.564	967.49
764.748	867.14
764.931	963.4
765.114	873.29
765.297	852.81
765.481	879.43
765.664	897.86
765.847	867.14
766.03	983.88
766.213	875.34
766.397	963.4
766.58	824.14
766.763	953.16
766.946	873.29
767.129	799.56
767.312	815.94
767.495	969.54
767.678	922.44
767.861	924.49
768.044	850.76
768.227	805.71
768.41	877.38
768.593	885.58
768.776	842.57
768.959	934.73
769.142	836.42
769.324	918.34
769.507	830.28
769.69	789.32
769.873	856.9
770.056	881.48
770.239	891.72
770.421	897.86
770.604	803.66
770.787	820.04
770.97	824.14
771.152	738.12
771.335	723.79
771.518	742.22
771.7	760.65
771.883	772.94
772.066	764.75
772.248	783.18
772.431	809.8
772.613	824.14
772.796	639.82
772.978	881.48
773.161	758.6
773.343	777.03
773.526	707.4
773.708	717.64
773.891	721.74
774.073	754.51
774.256	648.01
774.438	875.34
774.621	699.21
774.803	686.92
774.985	717.64
775.168	729.93
775.35	695.11
775.532	703.31
775.715	691.02
775.897	625.48
776.079	648.01
776.261	705.35
776.444	662.35
776.626	686.92
776.808	656.2
776.99	697.16
777.173	607.05
777.355	727.88
777.537	627.53
777.719	533.33
777.901	609.1
778.083	650.06
778.265	633.68
778.447	686.92
778.629	625.48
778.811	619.34
778.993	611.15
779.175	631.63
779.357	588.62
779.539	592.72
779.721	623.44
779.903	545.61
780.085	566.09
780.267	627.53
780.449	588.62
780.631	607.05
780.812	615.24
780.994	551.76
781.176	500.56
781.358	623.44
781.54	529.23
781.721	549.71
781.903	492.37
782.085	484.17
782.267	588.62
782.448	590.67
782.63	410.45
782.812	498.51
782.993	469.84
783.175	521.04
783.357	506.7
783.538	553.8
783.72	484.17
783.901	420.69
784.083	471.89
784.264	551.76
784.446	418.64
784.627	414.54
784.809	430.93
784.99	484.17
785.172	467.79
785.353	467.79
785.535	510.8
785.716	404.3
785.897	398.16
786.079	461.65
786.26	451.41
786.441	428.88
786.623	373.58
786.804	361.3
786.985	377.68
787.167	475.98
787.348	394.06
787.529	422.73
787.71	422.73
787.891	402.26
788.073	418.64
788.254	330.58
788.435	342.86
788.616	363.34
788.797	336.72
788.978	355.15
789.159	324.43
789.34	338.77
789.522	363.34
789.703	385.87
789.884	418.64
790.065	283.47
790.246	461.65
790.427	334.67
790.607	478.03
790.788	387.92
790.969	299.86
791.15	369.49
791.331	303.95
791.512	355.15
791.693	369.49
791.874	322.38
792.054	387.92
792.235	379.73
792.416	258.9
792.597	338.77
792.778	394.06
792.958	410.45
793.139	361.3
793.32	262.99
793.5	267.09
793.681	381.78
793.862	279.38
794.042	240.47
794.223	258.9
794.404	283.47
794.584	316.24
794.765	291.66
794.945	289.62
795.126	238.42
795.306	293.71
795.487	205.65
795.667	191.31
795.848	262.99
796.028	273.23
796.209	303.95
796.389	248.66
796.57	295.76
796.75	193.36
796.93	246.61
797.111	322.38
797.291	306
797.471	269.14
797.652	226.13
797.832	248.66
798.012	271.19
798.192	207.7
798.373	275.28
798.553	222.03
798.733	215.89
798.913	222.03
799.093	160.59
799.274	289.62
799.454	330.58
799.634	258.9
799.814	295.76
799.994	238.42
800.174	267.09
800.354	230.23
800.534	179.03
800.714	260.95
800.894	213.84
801.074	213.84
801.254	254.8
801.434	201.55
801.614	232.27
801.794	222.03
801.974	852.81
802.154	160.59
802.334	215.89
802.514	281.43
802.693	215.89
802.873	148.31
803.053	215.89
803.233	242.51
803.413	258.9
803.592	156.5
803.772	170.83
803.952	156.5
804.131	236.37
804.311	238.42
804.491	207.7
804.67	150.36
804.85	142.16
805.03	189.27
805.209	224.08
805.389	238.42
805.568	150.36
805.748	158.55
805.928	183.12
806.107	189.27
806.287	207.7
806.466	215.89
806.646	117.59
806.825	164.69
807.004	164.69
807.184	166.74
807.363	101.2
807.543	197.46
807.722	228.18
807.901	246.61
808.081	160.59
808.26	107.35
808.439	181.07
808.619	172.88
808.798	172.88
808.977	172.88
809.156	150.36
809.336	140.12
809.515	209.75
809.694	156.5
809.873	166.74
810.052	183.12
810.231	199.51
810.411	164.69
810.59	156.5
810.769	121.68
810.948	183.12
811.127	86.87
811.306	105.3
811.485	60.24
811.664	148.31
811.843	129.88
812.022	115.54
812.201	105.3
812.38	140.12
812.559	54.1
812.737	123.73
812.916	140.12
813.095	115.54
813.274	131.92
813.453	172.88
813.632	156.5
813.811	172.88
813.989	99.16
814.168	115.54
814.347	144.21
814.526	93.01
814.704	191.31
814.883	103.25
815.062	144.21
815.24	156.5
815.419	97.11
815.598	164.69
815.776	109.4
815.955	119.64
816.133	148.31
816.312	127.83
816.49	142.16
816.669	74.58
816.847	80.72
817.026	140.12
817.204	107.35
817.383	111.44
817.561	76.63
817.74	174.93
817.918	162.64
818.097	121.68
818.275	43.86
818.453	109.4
818.632	164.69
818.81	111.44
818.988	41.81
819.167	136.02
819.345	80.72
819.523	52.05
819.701	136.02
819.879	156.5
820.058	74.58
820.236	52.05
820.414	82.77
820.592	181.07
820.77	90.96
820.948	93.01
821.127	47.96
821.305	101.2
821.483	78.68
821.661	84.82
821.839	103.25
822.017	93.01
822.195	99.16
822.373	156.5
822.551	142.16
822.729	105.3
822.907	66.39
823.085	125.78
823.262	74.58
823.44	82.77
823.618	109.4
823.796	166.74
823.974	156.5
824.152	123.73
824.329	140.12
824.507	25.43
824.685	109.4
824.863	37.72
825.04	111.44
825.218	148.31
825.396	66.39
825.574	54.1
825.751	60.24
825.929	142.16
826.107	66.39
826.284	58.2
826.462	107.35
826.639	148.31
826.817	133.97
826.994	74.58
827.172	-40.11
827.349	107.35
827.527	-1.19
827.704	181.07
827.882	95.06
828.059	103.25
828.237	41.81
828.414	74.58
828.591	101.2
828.769	58.2
828.946	84.82
829.124	88.92
829.301	78.68
829.478	111.44
829.655	95.06
829.833	33.62
830.01	25.43
830.187	121.68
830.364	62.29
830.542	25.43
830.719	45.91
830.896	107.35
831.073	-11.43
831.25	97.11
831.427	125.78
831.604	95.06
831.782	68.44
831.959	80.72
832.136	115.54
832.313	74.58
832.49	25.43
832.667	78.68
832.844	43.86
833.021	82.77
833.198	74.58
833.374	33.62
833.551	101.2
833.728	17.24
833.905	76.63
834.082	-11.43
834.259	95.06
834.436	50
834.612	19.29
834.789	207.7
834.966	17.24
835.143	74.58
835.319	131.92
835.496	95.06
835.673	58.2
835.85	123.73
836.026	62.29
836.203	101.2
836.38	43.86
836.556	68.44
836.733	127.83
836.909	82.77
837.086	68.44
837.262	-15.53
837.439	11.09
837.616	21.33
837.792	-27.82
837.968	101.2
838.145	-5.29
838.321	21.33
838.498	41.81
838.674	25.43
838.851	52.05
839.027	0.85
839.203	11.09
839.38	-13.48
839.556	25.43
839.732	37.72
839.909	25.43
840.085	62.29
840.261	11.09
840.437	2.9
840.614	-23.72
840.79	131.92
840.966	50
841.142	50
841.318	50
841.494	97.11
841.671	62.29
841.847	9.05
842.023	-40.11
842.199	84.82
842.375	52.05
842.551	-15.53
842.727	68.44
842.903	142.16
843.079	90.96
843.255	101.2
843.431	-3.24
843.607	66.39
843.783	-17.58
843.959	70.48
844.134	33.62
844.31	33.62
844.486	70.48
844.662	45.91
844.838	54.1
845.013	62.29
845.189	25.43
845.365	37.72
845.541	-7.34
845.716	-33.96
845.892	27.48
846.068	-15.53
846.244	39.76
846.419	90.96
846.595	117.59
846.77	41.81
846.946	25.43
847.122	11.09
847.297	37.72
847.473	99.16
847.648	-15.53
847.824	25.43
847.999	54.1
848.175	66.39
848.35	17.24
848.526	76.63
848.701	50
848.876	76.63
849.052	93.01
849.227	50
849.403	60.24
849.578	0.85
849.753	-15.53
849.929	52.05
850.104	27.48
850.279	66.39
850.454	7
850.63	64.34
850.805	17.24
850.98	7
851.155	-27.82
851.33	93.01
851.505	78.68
851.681	74.58
851.856	-5.29
852.031	25.43
852.206	-1.19
852.381	4.95
852.556	17.24
852.731	86.87
852.906	29.52
853.081	47.96
853.256	50
853.431	62.29
853.606	-13.48
853.781	-13.48
853.956	-13.48
854.131	103.25
854.305	-46.25
854.48	9.05
854.655	-15.53
854.83	-85.16
855.005	-5.29
855.18	58.2
855.354	43.86
855.529	70.48
855.704	33.62
855.879	50
856.053	-15.53
856.228	37.72
856.403	-54.44
856.577	60.24
856.752	-85.16
856.926	11.09
857.101	-42.15
857.276	-7.34
857.45	-31.91
857.625	70.48
857.799	17.24
857.974	-3.24
858.148	-23.72
858.323	41.81
858.497	41.81
858.672	-1.19
858.846	19.29
859.02	29.52
859.195	-23.72
859.369	-31.91
859.543	76.63
859.718	-19.63
859.892	-3.24
860.066	-13.48
860.241	13.14
860.415	-60.59
860.589	-5.29
860.763	35.67
860.938	19.29
861.112	78.68
861.286	-40.11
861.46	31.57
861.634	13.14
861.808	105.3
861.982	-23.72
862.157	-46.25
862.331	11.09
862.505	-48.3
862.679	-66.73
862.853	-3.24
863.027	52.05
863.201	103.25
863.375	0.85
863.549	25.43
863.722	29.52
863.896	27.48
864.07	-11.43
864.244	19.29
864.418	-19.63
864.592	-15.53
864.766	2.9
864.939	-21.67
865.113	-27.82
865.287	95.06
865.461	-76.97
865.634	-36.01
865.808	41.81
865.982	-11.43
866.156	-42.15
866.329	-48.3
866.503	60.24
866.676	37.72
866.85	11.09
867.024	27.48
867.197	58.2
867.371	17.24
867.544	-23.72
867.718	21.33
867.891	27.48
868.065	-70.83
868.238	4.95
868.412	9.05
868.585	35.67
868.759	-15.53
868.932	-40.11
869.105	-19.63
869.279	-19.63
869.452	-44.2
869.625	17.24
869.799	19.29
869.972	13.14
870.145	-40.11
870.319	-23.72
870.492	21.33
870.665	-19.63
870.838	-23.72
871.011	-25.77
871.185	25.43
871.358	0.85
871.531	82.77
871.704	33.62
871.877	11.09
872.05	29.52
872.223	9.05
872.396	-11.43
872.569	82.77
872.742	0.85
872.915	33.62
873.088	-33.96
873.261	60.24
873.434	23.38
873.607	2.9
873.78	45.91
873.953	43.86
874.126	19.29
874.299	-9.39
874.471	60.24
874.644	9.05
874.817	-11.43
874.99	84.82
875.163	-38.06
875.335	60.24
875.508	-21.67
875.681	25.43
875.853	2.9
876.026	-23.72
876.199	41.81
876.371	9.05
876.544	-46.25
876.717	-5.29
876.889	-15.53
877.062	43.86
877.234	-70.83
877.407	-93.35
877.579	-23.72
877.752	-44.2
877.924	127.83
878.097	-13.48
878.269	41.81
878.442	-23.72
878.614	41.81
878.786	-19.63
878.959	70.48
879.131	-48.3
879.303	-85.16
879.476	25.43
879.648	33.62
879.82	-31.91
879.993	9.05
880.165	13.14
880.337	43.86
880.509	50
880.681	-31.91
880.854	9.05
881.026	27.48
881.198	99.16
881.37	-38.06
881.542	-31.91
881.714	35.67
881.886	33.62
882.058	9.05
882.23	37.72
882.402	-21.67
882.574	9.05
882.746	9.05
882.918	-13.48
883.09	-19.63
883.262	17.24
883.434	15.19
883.606	-54.44
883.778	-36.01
883.95	41.81
884.122	7
884.293	-7.34
884.465	68.44
884.637	-52.39
884.809	-11.43
884.98	60.24
885.152	-9.39
885.324	27.48
885.496	-62.63
885.667	35.67
885.839	-23.72
886.011	35.67
886.182	-46.25
886.354	19.29
886.525	-3.24
886.697	90.96
886.869	15.19
887.04	25.43
887.212	13.14
887.383	2.9
887.555	41.81
887.726	17.24
887.897	-48.3
888.069	-5.29
888.24	23.38
888.412	70.48
888.583	-50.35
888.754	27.48
888.926	-15.53
889.097	64.34
889.268	-3.24
889.44	27.48
889.611	-13.48
889.782	-89.26
889.953	-5.29
890.125	93.01
890.296	9.05
890.467	86.87
890.638	-13.48
890.809	27.48
890.98	-50.35
891.151	35.67
891.323	33.62
891.494	-50.35
891.665	-21.67
891.836	50
892.007	41.81
892.178	13.14
892.349	35.67
892.52	-15.53
892.691	-15.53
892.862	-21.67
893.032	0.85
893.203	-23.72
893.374	-21.67
893.545	11.09
893.716	-15.53
893.887	27.48
894.057	-33.96
894.228	41.81
894.399	-54.44
894.57	-13.48
894.74	4.95
894.911	17.24
895.082	-11.43
895.253	19.29
895.423	15.19
895.594	27.48
895.764	52.05
895.935	17.24
896.106	90.96
896.276	-5.29
896.447	0.85
896.617	9.05
896.788	-33.96
896.958	-21.67
897.129	0.85
897.299	70.48
897.47	74.58
897.64	-15.53
897.81	-27.82
897.981	-25.77
898.151	-29.87
898.322	-1.19
898.492	9.05
898.662	-23.72
898.832	-40.11
899.003	-21.67
899.173	68.44
899.343	4.95
899.513	-15.53
