Data from USB4F104151__180__14-45-04-933.txt Node

Date: Thu Mar 13 14:45:04 EDT 2025
User: louis
Spectrometer: USB4F10415
Trigger mode: 4
Integration Time (sec): 2.000000E-2
Scans to average: 1
Electric dark correction enabled: true
Nonlinearity correction enabled: false
Boxcar width: 0
XAxis mode: Wavelengths
Number of Pixels in Spectrum: 3648
>>>>>Begin Spectral Data<<<<<
178.204	-105.13
178.424	-105.13
178.644	-105.13
178.864	-152.23
179.084	-148.14
179.304	-17.07
179.524	-62.12
179.744	36.18
179.964	77.14
180.184	-8.87
180.404	17.75
180.624	-6.83
180.844	-15.02
181.064	-12.97
181.283	9.56
181.503	-49.83
181.723	32.08
181.943	-51.88
182.163	68.95
182.383	73.04
182.602	15.7
182.822	46.42
183.042	23.89
183.262	-84.65
183.482	46.42
183.701	11.61
183.921	42.32
184.141	7.51
184.361	48.47
184.58	17.75
184.8	15.7
185.02	13.65
185.239	-6.83
185.459	42.32
185.679	-4.78
185.898	-60.07
186.118	36.18
186.338	-10.92
186.557	64.85
186.777	38.23
186.997	-21.16
187.216	9.56
187.436	89.43
187.655	9.56
187.875	93.52
188.095	32.08
188.314	52.56
188.534	60.76
188.753	60.76
188.973	101.72
189.192	66.9
189.412	1.37
189.631	-12.97
189.851	-47.79
190.07	25.94
190.29	-39.59
190.509	66.9
190.729	1.37
190.948	79.19
191.168	68.95
191.387	73.04
191.607	-15.02
191.826	91.48
192.045	13.65
192.265	89.43
192.484	44.37
192.704	-12.97
192.923	-41.64
193.142	58.71
193.362	42.32
193.581	46.42
193.8	15.7
194.02	89.43
194.239	50.52
194.458	-0.68
194.678	-51.88
194.897	50.52
195.116	75.09
195.335	11.61
195.555	-45.74
195.774	-15.02
195.993	3.41
196.212	-2.73
196.432	48.47
196.651	25.94
196.87	9.56
197.089	105.81
197.308	9.56
197.528	27.99
197.747	-21.16
197.966	-33.45
198.185	17.75
198.404	-39.59
198.623	25.94
198.842	9.56
199.062	19.8
199.281	17.75
199.5	23.89
199.719	-17.07
199.938	3.41
200.157	27.99
200.376	66.9
200.595	150.87
200.814	15.7
201.033	-53.93
201.252	36.18
201.471	1.37
201.69	11.61
201.909	75.09
202.128	25.94
202.347	15.7
202.566	-74.41
202.785	-58.03
203.004	-98.99
203.223	75.09
203.442	7.51
203.661	-39.59
203.879	32.08
204.098	-55.98
204.317	-70.31
204.536	93.52
204.755	-6.83
204.974	64.85
205.193	42.32
205.411	97.62
205.63	-31.4
205.849	-70.31
206.068	40.28
206.287	36.18
206.505	60.76
206.724	25.94
206.943	32.08
207.162	-70.31
207.381	36.18
207.599	1.37
207.818	34.13
208.037	-21.16
208.255	1.37
208.474	-41.64
208.693	40.28
208.911	-33.45
209.13	40.28
209.349	89.43
209.567	30.04
209.786	7.51
210.005	52.56
210.223	56.66
210.442	-6.83
210.661	-41.64
210.879	36.18
211.098	-25.26
211.316	23.89
211.535	40.28
211.753	62.8
211.972	-41.64
212.191	9.56
212.409	48.47
212.628	36.18
212.846	-23.21
213.065	83.28
213.283	93.52
213.502	-37.55
213.72	50.52
213.938	-0.68
214.157	-41.64
214.375	73.04
214.594	-0.68
214.812	42.32
215.031	75.09
215.249	23.89
215.467	-0.68
215.686	64.85
215.904	36.18
216.122	81.24
216.341	109.91
216.559	15.7
216.778	-31.4
216.996	-25.26
217.214	-8.87
217.432	32.08
217.651	15.7
217.869	32.08
218.087	-47.79
218.306	-45.74
218.524	-19.11
218.742	-31.4
218.96	64.85
219.179	-17.07
219.397	54.61
219.615	101.72
219.833	11.61
220.051	52.56
220.27	9.56
220.488	60.76
220.706	1.37
220.924	40.28
221.142	19.8
221.36	15.7
221.578	15.7
221.796	48.47
222.015	-15.02
222.233	73.04
222.451	64.85
222.669	-53.93
222.887	1.37
223.105	3.41
223.323	44.37
223.541	-29.35
223.759	7.51
223.977	64.85
224.195	85.33
224.413	111.96
224.631	1.37
224.849	-0.68
225.067	71
225.285	71
225.503	1.37
225.721	27.99
225.939	-12.97
226.157	-10.92
226.375	44.37
226.592	44.37
226.81	36.18
227.028	75.09
227.246	83.28
227.464	97.62
227.682	23.89
227.9	21.85
228.117	50.52
228.335	52.56
228.553	-15.02
228.771	19.8
228.989	56.66
229.206	52.56
229.424	11.61
229.642	32.08
229.86	27.99
230.077	56.66
230.295	25.94
230.513	25.94
230.731	-8.87
230.948	77.14
231.166	122.2
231.384	-17.07
231.601	-23.21
231.819	85.33
232.037	-8.87
232.254	19.8
232.472	-43.69
232.689	17.75
232.907	48.47
233.125	46.42
233.342	3.41
233.56	-4.78
233.777	-31.4
233.995	15.7
234.213	56.66
234.43	-23.21
234.648	-4.78
234.865	7.51
235.083	91.48
235.3	7.51
235.518	-29.35
235.735	56.66
235.953	116.05
236.17	3.41
236.388	-19.11
236.605	27.99
236.822	56.66
237.04	44.37
237.257	-8.87
237.475	23.89
237.692	-21.16
237.909	42.32
238.127	-17.07
238.344	148.82
238.562	66.9
238.779	-37.55
238.996	-0.68
239.214	15.7
239.431	17.75
239.648	11.61
239.865	-0.68
240.083	32.08
240.3	-8.87
240.517	52.56
240.735	105.81
240.952	23.89
241.169	23.89
241.386	-12.97
241.603	-86.7
241.821	-31.4
242.038	3.41
242.255	1.37
242.472	-45.74
242.689	9.56
242.907	46.42
243.124	-0.68
243.341	73.04
243.558	-29.35
243.775	-74.41
243.992	-51.88
244.209	13.65
244.426	23.89
244.643	46.42
244.86	-8.87
245.078	13.65
245.295	-0.68
245.512	81.24
245.729	-45.74
245.946	83.28
246.163	15.7
246.38	101.72
246.597	21.85
246.814	-29.35
247.031	-29.35
247.248	56.66
247.464	-19.11
247.681	42.32
247.898	48.47
248.115	15.7
248.332	32.08
248.549	11.61
248.766	48.47
248.983	97.62
249.2	42.32
249.417	97.62
249.633	-12.97
249.85	40.28
250.067	27.99
250.284	-37.55
250.501	17.75
250.717	48.47
250.934	52.56
251.151	13.65
251.368	-2.73
251.585	-6.83
251.801	44.37
252.018	-8.87
252.235	52.56
252.451	-12.97
252.668	-4.78
252.885	62.8
253.102	21.85
253.318	-33.45
253.535	-49.83
253.752	7.51
253.968	-51.88
254.185	-49.83
254.401	-6.83
254.618	79.19
254.835	7.51
255.051	32.08
255.268	9.56
255.484	9.56
255.701	25.94
255.917	52.56
256.134	46.42
256.351	66.9
256.567	-35.5
256.784	1.37
257	-8.87
257.217	36.18
257.433	11.61
257.65	27.99
257.866	56.66
258.082	-45.74
258.299	-29.35
258.515	19.8
258.732	32.08
258.948	40.28
259.165	103.76
259.381	19.8
259.597	32.08
259.814	56.66
260.03	52.56
260.246	-0.68
260.463	-8.87
260.679	87.38
260.895	15.7
261.112	64.85
261.328	21.85
261.544	81.24
261.761	44.37
261.977	7.51
262.193	-47.79
262.409	9.56
262.626	-8.87
262.842	-21.16
263.058	17.75
263.274	-0.68
263.49	-17.07
263.707	73.04
263.923	56.66
264.139	27.99
264.355	-33.45
264.571	116.05
264.787	38.23
265.004	23.89
265.22	17.75
265.436	36.18
265.652	30.04
265.868	56.66
266.084	-35.5
266.3	11.61
266.516	7.51
266.732	-15.02
266.948	-0.68
267.164	-19.11
267.38	44.37
267.596	60.76
267.812	27.99
268.028	21.85
268.244	11.61
268.46	93.52
268.676	-15.02
268.892	105.81
269.108	19.8
269.324	58.71
269.54	40.28
269.756	77.14
269.972	-53.93
270.188	-6.83
270.403	-82.6
270.619	-0.68
270.835	-33.45
271.051	91.48
271.267	34.13
271.483	-6.83
271.698	32.08
271.914	-53.93
272.13	15.7
272.346	64.85
272.562	21.85
272.777	-15.02
272.993	48.47
273.209	1.37
273.425	36.18
273.64	-8.87
273.856	9.56
274.072	56.66
274.287	23.89
274.503	58.71
274.719	-33.45
274.934	23.89
275.15	-78.51
275.366	71
275.581	9.56
275.797	23.89
276.012	23.89
276.228	1.37
276.444	-17.07
276.659	25.94
276.875	-8.87
277.09	-8.87
277.306	-27.31
277.521	126.29
277.737	36.18
277.952	34.13
278.168	17.75
278.383	23.89
278.599	-41.64
278.814	-12.97
279.03	11.61
279.245	64.85
279.461	15.7
279.676	114
279.892	-21.16
280.107	48.47
280.322	-25.26
280.538	-49.83
280.753	-8.87
280.969	73.04
281.184	27.99
281.399	99.67
281.615	-8.87
281.83	-0.68
282.045	19.8
282.26	32.08
282.476	17.75
282.691	89.43
282.906	56.66
283.122	-21.16
283.337	-58.03
283.552	-8.87
283.767	9.56
283.983	21.85
284.198	25.94
284.413	68.95
284.628	17.75
284.843	-6.83
285.058	-39.59
285.274	58.71
285.489	27.99
285.704	42.32
285.919	-33.45
286.134	3.41
286.349	1.37
286.564	-17.07
286.779	97.62
286.995	19.8
287.21	-25.26
287.425	-10.92
287.64	-15.02
287.855	73.04
288.07	-17.07
288.285	87.38
288.5	25.94
288.715	19.8
288.93	56.66
289.145	-41.64
289.36	66.9
289.575	-6.83
289.79	17.75
290.004	-17.07
290.219	-6.83
290.434	25.94
290.649	21.85
290.864	-49.83
291.079	75.09
291.294	-31.4
291.509	-25.26
291.724	32.08
291.938	23.89
292.153	-12.97
292.368	-33.45
292.583	27.99
292.798	-2.73
293.012	58.71
293.227	7.51
293.442	56.66
293.657	-21.16
293.871	44.37
294.086	3.41
294.301	89.43
294.516	7.51
294.73	-35.5
294.945	15.7
295.16	-17.07
295.374	50.52
295.589	60.76
295.804	77.14
296.018	9.56
296.233	93.52
296.447	3.41
296.662	-29.35
296.877	-39.59
297.091	-33.45
297.306	48.47
297.52	-8.87
297.735	-27.31
297.949	-2.73
298.164	34.13
298.378	-17.07
298.593	9.56
298.807	44.37
299.022	-21.16
299.236	-2.73
299.451	40.28
299.665	9.56
299.88	19.8
300.094	89.43
300.309	23.89
300.523	40.28
300.737	25.94
300.952	21.85
301.166	23.89
301.381	40.28
301.595	-29.35
301.809	36.18
302.024	42.32
302.238	73.04
302.452	-39.59
302.667	-29.35
302.881	7.51
303.095	40.28
303.309	77.14
303.524	15.7
303.738	-4.78
303.952	-53.93
304.166	73.04
304.381	-49.83
304.595	56.66
304.809	-21.16
305.023	40.28
305.237	-64.17
305.452	-27.31
305.666	11.61
305.88	-23.21
306.094	75.09
306.308	89.43
306.522	38.23
306.736	60.76
306.95	15.7
307.164	36.18
307.379	-41.64
307.593	-12.97
307.807	89.43
308.021	75.09
308.235	103.76
308.449	-45.74
308.663	64.85
308.877	62.8
309.091	66.9
309.305	32.08
309.519	40.28
309.733	-6.83
309.947	-12.97
310.161	17.75
310.374	42.32
310.588	81.24
310.802	1.37
311.016	23.89
311.23	19.8
311.444	-8.87
311.658	13.65
311.872	32.08
312.085	38.23
312.299	107.86
312.513	-23.21
312.727	19.8
312.941	-23.21
313.154	50.52
313.368	34.13
313.582	-58.03
313.796	19.8
314.009	-6.83
314.223	79.19
314.437	7.51
314.651	25.94
314.864	-12.97
315.078	13.65
315.292	-72.36
315.505	-39.59
315.719	56.66
315.933	13.65
316.146	34.13
316.36	3.41
316.573	27.99
316.787	32.08
317.001	83.28
317.214	-27.31
317.428	15.7
317.641	-15.02
317.855	-15.02
318.068	-10.92
318.282	27.99
318.495	75.09
318.709	34.13
318.922	15.7
319.136	40.28
319.349	15.7
319.563	-21.16
319.776	11.61
319.99	27.99
320.203	9.56
320.417	-53.93
320.63	32.08
320.843	97.62
321.057	-39.59
321.27	15.7
321.483	17.75
321.697	-6.83
321.91	50.52
322.124	66.9
322.337	40.28
322.55	-49.83
322.763	15.7
322.977	-15.02
323.19	-0.68
323.403	27.99
323.617	-39.59
323.83	21.85
324.043	-23.21
324.256	-21.16
324.469	-0.68
324.683	73.04
324.896	-23.21
325.109	91.48
325.322	-15.02
325.535	56.66
325.748	48.47
325.962	-15.02
326.175	25.94
326.388	34.13
326.601	56.66
326.814	48.47
327.027	56.66
327.24	54.61
327.453	-8.87
327.666	32.08
327.879	30.04
328.092	48.47
328.305	-31.4
328.518	-0.68
328.731	23.89
328.944	40.28
329.157	-4.78
329.37	30.04
329.583	56.66
329.796	42.32
330.009	9.56
330.222	48.47
330.435	138.58
330.648	-66.22
330.861	32.08
331.073	21.85
331.286	32.08
331.499	-0.68
331.712	-62.12
331.925	42.32
332.138	-47.79
332.35	-47.79
332.563	7.51
332.776	44.37
332.989	56.66
333.202	48.47
333.414	17.75
333.627	-8.87
333.84	34.13
334.053	91.48
334.265	-49.83
334.478	17.75
334.691	-31.4
334.903	-2.73
335.116	-4.78
335.329	73.04
335.541	23.89
335.754	48.47
335.966	15.7
336.179	-31.4
336.392	-6.83
336.604	60.76
336.817	19.8
337.029	1.37
337.242	-25.26
337.454	40.28
337.667	36.18
337.88	-17.07
338.092	-25.26
338.305	75.09
338.517	-25.26
338.729	19.8
338.942	64.85
339.154	-80.55
339.367	-0.68
339.579	9.56
339.792	32.08
340.004	15.7
340.217	-8.87
340.429	17.75
340.641	25.94
340.854	23.89
341.066	19.8
341.278	97.62
341.491	93.52
341.703	52.56
341.915	-49.83
342.128	23.89
342.34	-21.16
342.552	-23.21
342.764	52.56
342.977	32.08
343.189	-33.45
343.401	66.9
343.613	-12.97
343.826	44.37
344.038	-17.07
344.25	-86.7
344.462	58.71
344.674	17.75
344.886	-0.68
345.099	34.13
345.311	48.47
345.523	21.85
345.735	7.51
345.947	44.37
346.159	-29.35
346.371	-66.22
346.583	11.61
346.795	116.05
347.007	-53.93
347.219	17.75
347.431	23.89
347.643	68.95
347.855	-19.11
348.067	-12.97
348.279	7.51
348.491	13.65
348.703	38.23
348.915	60.76
349.127	-51.88
349.339	64.85
349.551	73.04
349.763	32.08
349.975	89.43
350.187	15.7
350.399	56.66
350.61	-29.35
350.822	-17.07
351.034	-68.27
351.246	-8.87
351.458	30.04
351.669	3.41
351.881	58.71
352.093	40.28
352.305	36.18
352.517	58.71
352.728	109.91
352.94	52.56
353.152	62.8
353.363	-45.74
353.575	-0.68
353.787	27.99
353.999	-19.11
354.21	52.56
354.422	48.47
354.633	27.99
354.845	48.47
355.057	79.19
355.268	23.89
355.48	54.61
355.692	95.57
355.903	50.52
356.115	-8.87
356.326	-15.02
356.538	93.52
356.749	99.67
356.961	48.47
357.172	126.29
357.384	-31.4
357.595	36.18
357.807	32.08
358.018	32.08
358.23	34.13
358.441	7.51
358.653	7.51
358.864	-21.16
359.075	1.37
359.287	1.37
359.498	64.85
359.709	71
359.921	-43.69
360.132	34.13
360.344	93.52
360.555	19.8
360.766	114
360.977	-29.35
361.189	58.71
361.4	-47.79
361.611	60.76
361.823	34.13
362.034	-0.68
362.245	-82.6
362.456	60.76
362.667	52.56
362.879	3.41
363.09	25.94
363.301	-0.68
363.512	60.76
363.723	-12.97
363.935	32.08
364.146	50.52
364.357	27.99
364.568	27.99
364.779	-12.97
364.99	40.28
365.201	7.51
365.412	32.08
365.623	-45.74
365.834	146.77
366.045	-4.78
366.256	68.95
366.467	-21.16
366.678	36.18
366.889	25.94
367.1	1.37
367.311	56.66
367.522	52.56
367.733	-33.45
367.944	11.61
368.155	25.94
368.366	146.77
368.577	15.7
368.788	81.24
368.999	-53.93
369.209	9.56
369.42	122.2
369.631	128.34
369.842	-94.89
370.053	19.8
370.264	32.08
370.474	15.7
370.685	-10.92
370.896	-47.79
371.107	44.37
371.317	19.8
371.528	87.38
371.739	42.32
371.95	19.8
372.16	23.89
372.371	-90.79
372.582	34.13
372.792	32.08
373.003	32.08
373.214	3.41
373.424	40.28
373.635	-15.02
373.846	60.76
374.056	103.76
374.267	38.23
374.477	58.71
374.688	-29.35
374.898	25.94
375.109	13.65
375.319	91.48
375.53	60.76
375.74	87.38
375.951	-29.35
376.161	23.89
376.372	189.78
376.582	97.62
376.793	60.76
377.003	7.51
377.214	34.13
377.424	-17.07
377.635	42.32
377.845	71
378.055	34.13
378.266	-19.11
378.476	34.13
378.686	36.18
378.897	32.08
379.107	7.51
379.317	48.47
379.528	-55.98
379.738	17.75
379.948	23.89
380.158	60.76
380.369	97.62
380.579	15.7
380.789	56.66
380.999	40.28
381.21	83.28
381.42	77.14
381.63	25.94
381.84	15.7
382.05	19.8
382.261	62.8
382.471	62.8
382.681	-21.16
382.891	68.95
383.101	56.66
383.311	-15.02
383.521	-8.87
383.731	73.04
383.941	17.75
384.151	17.75
384.361	50.52
384.571	58.71
384.781	56.66
384.991	50.52
385.201	81.24
385.411	-31.4
385.621	15.7
385.831	48.47
386.041	81.24
386.251	42.32
386.461	40.28
386.671	79.19
386.881	32.08
387.091	46.42
387.301	66.9
387.511	42.32
387.72	50.52
387.93	42.32
388.14	68.95
388.35	3.41
388.56	25.94
388.769	32.08
388.979	11.61
389.189	64.85
389.399	27.99
389.609	64.85
389.818	-6.83
390.028	15.7
390.238	56.66
390.447	46.42
390.657	75.09
390.867	-12.97
391.076	40.28
391.286	-17.07
391.496	48.47
391.705	122.2
391.915	81.24
392.125	40.28
392.334	56.66
392.544	19.8
392.753	13.65
392.963	-21.16
393.172	81.24
393.382	19.8
393.591	60.76
393.801	44.37
394.01	75.09
394.22	9.56
394.429	114
394.639	56.66
394.848	101.72
395.058	-4.78
395.267	17.75
395.477	66.9
395.686	58.71
395.895	97.62
396.105	114
396.314	75.09
396.524	73.04
396.733	103.76
396.942	64.85
397.152	73.04
397.361	142.68
397.57	89.43
397.78	9.56
397.989	50.52
398.198	71
398.407	-23.21
398.617	60.76
398.826	52.56
399.035	60.76
399.244	89.43
399.453	48.47
399.663	-23.21
399.872	124.24
400.081	134.48
400.29	142.68
400.499	81.24
400.708	73.04
400.917	52.56
401.127	52.56
401.336	58.71
401.545	93.52
401.754	116.05
401.963	77.14
402.172	32.08
402.381	62.8
402.59	81.24
402.799	66.9
403.008	68.95
403.217	114
403.426	134.48
403.635	-58.03
403.844	93.52
404.053	56.66
404.262	87.38
404.471	122.2
404.68	126.29
404.888	116.05
405.097	34.13
405.306	122.2
405.515	75.09
405.724	150.87
405.933	114
406.142	91.48
406.35	97.62
406.559	146.77
406.768	73.04
406.977	171.35
407.185	75.09
407.394	183.63
407.603	114
407.812	91.48
408.02	126.29
408.229	134.48
408.438	148.82
408.646	152.91
408.855	114
409.064	206.16
409.272	157.01
409.481	187.73
409.69	146.77
409.898	220.5
410.107	240.98
410.315	238.93
410.524	255.31
410.733	212.31
410.941	238.93
411.15	279.89
411.358	265.55
411.567	279.89
411.775	277.84
411.984	306.51
412.192	343.38
412.401	335.18
412.609	308.56
412.818	269.65
413.026	370
413.234	372.05
413.443	353.62
413.651	339.28
413.86	427.34
414.068	433.49
414.276	359.76
414.485	425.29
414.693	488.78
414.901	408.91
415.11	437.58
415.318	482.64
415.526	486.73
415.734	478.54
415.943	580.94
416.151	552.27
416.359	544.08
416.567	484.69
416.776	597.32
416.984	726.35
417.192	705.87
417.4	687.43
417.608	654.67
417.817	630.09
418.025	763.21
418.233	820.55
418.441	765.26
418.649	793.93
418.857	787.79
419.065	900.42
419.273	845.13
419.481	873.8
419.689	1019.21
419.897	1076.55
420.105	1015.11
420.313	1056.07
420.521	1072.45
420.729	1228.1
420.937	1109.32
421.145	1207.62
421.353	1230.15
421.561	1326.4
421.769	1318.21
421.977	1404.22
422.185	1529.15
422.393	1375.55
422.601	1576.25
422.809	1568.06
423.017	1584.45
423.224	1590.59
423.432	1752.38
423.64	1664.32
423.848	1858.87
424.056	1846.59
424.263	1830.2
424.471	1887.54
424.679	1928.5
424.887	2049.33
425.094	2198.84
425.302	2211.12
425.51	2254.13
425.718	2276.66
425.925	2321.71
426.133	2327.86
426.341	2604.33
426.548	2735.4
426.756	2610.48
426.964	2708.78
427.171	2764.08
427.379	2901.29
427.586	2977.06
427.794	3142.95
428.001	3177.76
428.209	3376.42
428.417	3300.64
428.624	3542.3
428.832	3472.67
429.039	3431.71
429.247	3530.02
429.454	3810.59
429.662	4066.58
429.869	3822.88
430.076	4089.11
430.284	3974.42
430.491	4168.98
430.699	4355.35
430.906	4295.96
431.114	4347.15
431.321	4717.84
431.528	4711.69
431.736	4908.3
431.943	5205.25
432.15	4951.31
432.358	5061.9
432.565	5526.78
432.772	5211.4
432.979	5713.15
433.187	5655.81
433.394	5768.45
433.601	6110.46
433.808	6245.62
434.016	6051.06
434.223	6622.45
434.43	6757.61
434.637	6788.33
434.844	7036.14
435.052	7019.75
435.259	7206.12
435.466	7103.72
435.673	7298.28
435.88	7650.53
436.087	8035.55
436.294	8105.18
436.501	7793.89
436.708	8129.75
436.915	8250.58
437.122	8492.24
437.329	8361.17
437.537	8783.06
437.743	8944.84
437.95	8805.58
438.157	9290.95
438.364	9587.91
438.571	9710.79
438.778	9635.01
438.985	10437.81
439.192	10415.29
439.399	10497.21
439.606	10151.1
439.813	10964.14
440.02	11502.76
440.227	11101.36
440.433	11275.43
440.64	11463.85
440.847	11496.61
441.054	11754.66
441.261	12385.43
441.467	12465.3
441.674	12526.74
441.881	13286.54
442.088	12797.07
442.294	12698.77
442.501	13415.56
442.708	13571.21
442.914	13929.6
443.121	14550.14
443.328	14367.87
443.534	15324.27
443.741	14877.81
443.948	14500.98
444.154	15531.11
444.361	15635.56
444.568	15651.94
444.774	15520.87
444.981	15813.73
445.187	16192.61
445.394	16987.22
445.6	16929.87
445.807	18394.17
446.013	17685.58
446.22	17785.93
446.426	18617.4
446.633	18406.46
446.839	19297.33
447.046	18789.43
447.252	19350.57
447.459	19471.4
447.665	19340.33
447.871	20581.4
448.078	21183.51
448.284	20319.26
448.491	20882.45
448.697	21685.26
448.903	22264.83
449.11	21931.01
449.316	21636.11
449.522	22213.63
449.728	22682.62
449.935	22844.41
450.141	22864.89
450.347	23454.7
450.553	22338.56
450.76	23172.08
450.966	23577.58
451.172	23364.59
451.378	24169.44
451.584	23706.6
451.791	24392.67
451.997	23854.06
452.203	24503.26
452.409	24658.91
452.615	24888.28
452.821	23430.13
453.027	23124.98
453.233	24536.03
453.44	23780.33
453.646	23927.78
453.852	24151.01
454.058	24626.14
454.264	23696.36
454.47	24101.86
454.676	23583.73
454.882	24327.14
455.088	22250.5
455.294	22506.49
455.5	22701.05
455.705	23215.09
455.911	22361.09
456.117	21636.11
456.323	21416.97
456.529	20538.4
456.735	21484.56
456.941	20687.9
457.147	20266.02
457.352	19858.47
457.558	19561.51
457.764	19711.02
457.97	19467.31
458.176	18922.55
458.381	18963.51
458.587	18000.96
458.793	17931.33
458.999	17024.08
459.204	18439.23
459.41	17714.25
459.616	16632.92
459.821	16596.06
460.027	16577.62
460.233	16387.16
460.438	15574.12
460.644	15371.37
460.85	14941.3
461.055	14720.12
461.261	14804.08
461.466	13452.42
461.672	13216.91
461.878	14195.84
462.083	13286.54
462.289	12788.88
462.494	12700.82
462.7	12270.75
462.905	11902.11
463.111	12291.23
463.316	12350.62
463.522	11963.55
463.727	12213.4
463.932	12178.59
464.138	12065.95
464.343	11857.06
464.549	11766.95
464.754	12090.52
464.959	11803.81
465.165	11730.08
465.37	11300.01
465.575	10955.95
465.781	11474.09
465.986	11455.65
466.191	11230.38
466.397	10822.83
466.602	10308.79
466.807	10925.23
467.012	11001.01
467.218	10874.03
467.423	10615.99
467.628	10667.19
467.833	10980.53
468.038	10747.06
468.244	10378.42
468.449	10658.99
468.654	10589.36
468.859	10544.31
469.064	10409.14
469.269	10054.84
469.474	10028.22
469.679	10259.64
469.885	10065.08
470.09	10046.65
470.295	9977.02
470.5	9628.87
470.705	9940.16
470.91	9649.35
471.115	9471.17
471.32	9663.68
471.525	9413.83
471.73	9399.49
471.935	9147.59
472.139	8920.27
472.344	9137.35
472.549	9100.49
472.754	9059.53
472.959	8809.68
473.164	8682.7
473.369	8418.52
473.574	8684.75
473.778	8764.62
473.983	8656.08
474.188	8629.46
474.393	8150.23
474.598	8328.41
474.802	8125.66
475.007	8109.27
475.212	8058.07
475.417	7765.21
475.621	7951.58
475.826	7871.71
476.031	7699.68
476.235	7793.89
476.44	7683.3
476.645	7673.06
476.849	7546.08
477.054	7259.37
477.259	7159.02
477.463	7376.1
477.668	7003.37
477.872	7238.89
478.077	6995.18
478.282	6909.16
478.486	6892.78
478.691	6968.56
478.895	6921.45
479.1	6753.52
479.304	6624.5
479.509	6616.3
479.713	6733.04
479.918	6513.91
480.122	6405.36
480.326	6528.24
480.531	6528.24
480.735	6442.23
480.94	6503.67
481.144	6491.38
481.348	6239.48
481.553	6452.47
481.757	6268.15
481.961	6313.2
482.166	6434.04
482.37	6317.3
482.574	6333.68
482.778	6245.62
482.983	6284.53
483.187	6405.36
483.391	6442.23
483.595	6327.54
483.8	5979.39
484.004	6376.69
484.208	6458.61
484.412	6229.24
484.616	6472.95
484.821	6245.62
485.025	6147.32
485.229	6257.91
485.433	6171.9
485.637	6309.11
485.841	6280.44
486.045	6251.77
486.249	6364.4
486.453	6147.32
486.657	6298.87
486.861	6139.13
487.065	6169.85
487.269	6200.57
487.473	5930.23
487.677	6374.64
487.881	6573.3
488.085	6202.61
488.289	6307.06
488.493	6290.68
488.697	6198.52
488.901	6233.33
489.105	6143.22
489.309	6192.37
489.512	6446.32
489.716	6280.44
489.92	6425.84
490.124	6393.08
490.328	6407.41
490.531	6352.12
490.735	6442.23
490.939	6319.35
491.143	6323.44
491.346	6391.03
491.55	6606.06
491.754	6663.41
491.958	6634.74
492.161	6464.75
492.365	6497.52
492.569	6696.18
492.772	6618.35
492.976	6606.06
493.18	6683.89
493.383	6749.42
493.587	6853.87
493.79	7015.66
493.994	6866.16
494.197	6907.12
494.401	6884.59
494.605	6835.44
494.808	6929.64
495.012	7144.68
495.215	7169.26
495.419	7269.61
495.622	7068.91
495.825	7390.44
496.029	7146.73
496.232	7441.64
496.436	7441.64
496.639	7613.67
496.843	7509.22
497.046	7650.53
497.249	7812.32
497.453	7822.56
497.656	7912.67
497.859	8084.7
498.063	8176.86
498.266	8109.27
498.469	8150.23
498.673	8111.32
498.876	8410.33
499.079	8359.13
499.282	8625.36
499.485	8641.75
499.689	8561.87
499.892	8828.11
500.095	8750.29
500.298	8946.89
500.501	8832.21
500.705	9274.57
500.908	9309.38
501.111	9426.12
501.314	9563.33
501.517	9639.11
501.72	9936.06
501.923	9616.58
502.126	9809.09
502.329	9993.4
502.532	10020.03
502.735	10118.33
502.938	10407.09
503.141	10433.72
503.344	10513.59
503.547	10552.5
503.75	10601.65
503.953	10888.37
504.156	10998.96
504.359	10984.62
504.562	11070.64
504.765	11513
504.968	11322.54
505.17	11486.37
505.373	11642.02
505.576	11764.9
505.779	12018.85
505.982	12090.52
506.185	12102.81
506.387	12149.92
506.59	12207.26
506.793	12635.28
506.996	12614.8
507.198	12835.99
507.401	12907.66
507.604	13124.75
507.807	13399.18
508.009	13466.76
508.212	13319.31
508.415	13501.58
508.617	13593.73
508.82	13968.51
509.022	13810.82
509.225	14359.67
509.428	14195.84
509.63	14423.16
509.833	14525.56
510.035	14709.88
510.238	14523.51
510.44	14969.97
510.643	15287.4
510.845	15318.12
511.048	15187.05
511.25	15494.25
511.453	15449.19
511.655	16104.54
511.858	15907.94
512.06	15909.99
512.262	16315.48
512.465	16301.15
512.667	16532.57
512.87	16931.92
513.072	16825.43
513.274	17046.61
513.477	17214.54
513.679	17448.01
513.881	17577.03
514.084	17738.82
514.286	17472.59
514.488	17886.28
514.69	18156.61
514.893	18551.87
515.095	18256.96
515.297	18693.18
515.499	18793.53
515.701	19143.73
515.904	19250.22
516.106	19514.41
516.308	19508.27
516.51	19905.57
516.712	19842.09
516.914	19915.81
517.116	20147.23
517.318	19967.01
517.52	20442.14
517.722	20397.09
517.925	20929.56
518.127	21206.03
518.329	21363.73
518.531	21095.44
518.733	21656.59
518.935	21302.29
519.136	21842.95
519.338	22166.53
519.54	22252.55
519.742	22365.18
519.944	22641.66
520.146	23047.16
520.348	22672.38
520.55	22924.28
520.752	23395.31
520.954	23577.58
521.155	23286.77
521.357	23796.71
521.559	23870.44
521.761	24103.91
521.963	24191.97
522.164	24228.84
522.366	24513.5
522.568	25156.57
522.77	25015.26
522.971	25267.16
523.173	25013.21
523.375	25316.31
523.576	25275.35
523.778	25555.92
523.98	26024.9
524.181	25684.94
524.383	26051.53
524.584	26033.1
524.786	26352.58
524.988	26045.38
525.189	26420.16
525.391	26733.5
525.592	26674.11
525.794	26786.75
525.995	26960.83
526.197	26915.77
526.398	27280.31
526.6	27585.46
526.801	27319.22
527.003	27548.59
527.204	27530.16
527.406	27751.34
527.607	27749.29
527.808	28208.04
528.01	27198.39
528.211	27790.25
528.412	28398.5
528.614	28218.28
528.815	28246.95
529.016	28820.38
529.218	28230.57
529.419	28466.08
529.62	28634.02
529.822	28523.43
530.023	28875.68
530.224	28459.94
530.425	28681.12
530.626	28455.84
530.828	28830.62
531.029	28746.65
531.23	28855.2
531.431	28922.78
531.632	29010.84
531.833	29408.15
532.035	29019.03
532.236	29371.29
532.437	29062.04
532.638	28855.2
532.839	29049.75
533.04	29356.95
533.241	29012.89
533.442	29537.17
533.643	29379.48
533.844	29281.17
534.045	29483.92
534.246	29148.06
534.447	29047.71
534.648	29057.95
534.849	29369.24
535.05	28988.31
535.251	29160.34
535.451	29207.45
535.652	29557.65
535.853	29277.08
536.054	29402
536.255	29445.01
536.456	29518.74
536.657	29590.42
536.857	29571.99
537.058	29463.44
537.259	29377.43
537.46	29256.6
537.66	29133.72
537.861	29371.29
538.062	29049.75
538.263	29352.85
538.463	28961.69
538.664	29148.06
538.865	29338.52
539.065	29721.49
539.266	28926.88
539.466	29313.94
539.667	28859.29
539.868	29268.89
540.068	29277.08
540.269	29072.28
540.469	29483.92
540.67	29082.52
540.87	29713.3
541.071	29283.22
541.271	29322.13
541.472	29150.1
541.672	28836.77
541.873	29148.06
542.073	29242.26
542.274	29414.29
542.474	29242.26
542.675	28906.4
542.875	29395.86
543.075	29279.13
543.276	29117.34
543.476	29453.2
543.676	29184.92
543.877	28910.49
544.077	28998.55
544.277	28894.11
544.478	28906.4
544.678	29082.52
544.878	29084.57
545.078	28937.12
545.279	29039.51
545.479	28922.78
545.679	29215.64
545.879	29191.06
546.079	28717.98
546.28	29105.05
546.48	28795.81
546.68	28732.32
546.88	29055.9
547.08	29219.74
547.28	29330.33
547.48	28689.31
547.68	29301.65
547.88	28810.14
548.081	29246.36
548.281	28890.01
548.481	28879.77
548.681	29238.17
548.881	28867.48
549.081	28869.53
549.28	28838.81
549.48	29303.7
549.68	28605.34
549.88	28877.72
550.08	28627.87
550.28	29059.99
550.48	29053.85
550.68	29078.43
550.88	28799.9
551.08	28994.46
551.279	29053.85
551.479	28691.36
551.679	28849.05
551.879	28937.12
552.079	28797.85
552.278	28826.53
552.478	28593.06
552.678	28853.15
552.878	28703.65
553.077	28746.65
553.277	28627.87
553.477	28801.95
553.676	28603.3
553.876	28588.96
554.076	28527.52
554.275	28679.07
554.475	28550.05
554.674	28851.1
554.874	28545.95
555.074	28537.76
555.273	28808.09
555.473	28322.73
555.672	28443.56
555.872	28355.49
556.071	28384.16
556.271	28312.49
556.47	27966.38
556.67	28023.72
556.869	28404.64
557.068	28636.06
557.268	28177.32
557.467	28306.34
557.667	28212.13
557.866	28490.66
558.065	27808.68
558.265	27884.46
558.464	27837.36
558.663	28392.36
558.863	27818.92
559.062	28103.59
559.261	27716.53
559.461	27988.91
559.66	27657.14
559.859	27358.13
560.058	27761.58
560.258	27497.39
560.457	27405.24
560.656	27759.53
560.855	27323.32
561.054	27665.33
561.253	27300.79
561.453	27317.17
561.652	27466.67
561.851	27392.95
562.05	26944.44
562.249	27268.02
562.448	27216.82
562.647	27239.35
562.846	27061.18
563.045	27163.57
563.244	26616.77
563.443	27022.26
563.642	26923.96
563.841	26831.8
564.04	26934.2
564.239	26958.78
564.438	26467.27
564.637	26938.3
564.836	26844.09
565.035	26461.12
565.234	26788.8
565.432	26528.7
565.631	26121.16
565.83	26647.49
566.029	26194.89
566.228	26334.15
566.427	26297.28
566.625	25842.63
566.824	25717.71
567.023	26278.85
567.222	25717.71
567.42	25863.11
567.619	25811.92
567.818	25598.93
568.016	25904.07
568.215	25707.47
568.414	25625.55
568.612	25719.76
568.811	25209.81
569.01	25605.07
569.208	25007.06
569.407	25435.09
569.605	25261.01
569.804	25328.59
570.002	25228.24
570.201	25191.38
570.4	25185.24
570.598	25168.85
570.797	24871.9
570.995	25099.22
571.193	24466.4
571.392	25080.79
571.59	24583.13
571.789	24697.82
571.987	24560.61
572.186	24751.07
572.384	24341.47
572.582	24765.4
572.781	24509.41
572.979	24179.68
573.177	24570.85
573.376	24558.56
573.574	23993.32
573.772	24320.99
573.971	23954.41
574.169	23997.42
574.367	23583.73
574.565	23905.26
574.763	23600.11
574.962	23743.47
575.16	23458.8
575.358	23745.51
575.556	23260.15
575.754	23473.14
575.952	23182.32
576.151	23643.12
576.349	23036.92
576.547	23167.99
576.745	23380.98
576.943	23196.66
577.141	23043.06
577.339	22998.01
577.537	22928.38
577.735	23081.97
577.933	22793.21
578.131	23059.45
578.329	22563.84
578.527	22395.9
578.725	22576.12
578.923	22469.63
579.121	22635.52
579.319	22131.72
579.516	22506.49
579.714	22334.46
579.912	22164.48
580.11	22170.63
580.308	22168.58
580.506	21797.9
580.704	21576.72
580.901	21961.73
581.099	22172.67
581.297	21789.7
581.495	21763.08
581.692	21785.61
581.89	21625.87
582.088	21736.46
582.285	21675.02
582.483	21650.44
582.681	21431.31
582.878	21550.09
583.076	21195.79
583.274	21726.22
583.471	21187.6
583.669	21298.19
583.866	21183.51
584.064	21206.03
584.262	21042.2
584.459	20835.35
584.657	20679.71
584.854	21150.74
585.052	20587.55
585.249	20624.41
585.447	20970.52
585.644	20438.05
585.841	20505.63
586.039	20743.19
586.236	20349.98
586.434	20532.25
586.631	20200.48
586.828	20399.13
587.026	20519.96
587.223	19991.59
587.42	20053.03
587.618	20151.33
587.815	19991.59
588.012	19846.18
588.21	19655.72
588.407	19909.67
588.604	19702.82
588.801	19715.11
588.999	19508.27
589.196	19584.04
589.393	19602.47
589.59	19495.98
589.787	19356.72
589.984	19272.75
590.182	19383.34
590.379	19215.41
590.576	19129.39
590.773	19153.97
590.97	18953.27
591.167	19033.14
591.364	18863.16
591.561	18981.94
591.758	18740.28
591.955	18928.69
592.152	18916.4
592.349	18619.45
592.546	18824.25
592.743	18721.85
592.94	18553.91
593.137	18551.87
593.334	18771
593.531	18435.13
593.727	18545.72
593.924	18129.98
594.121	17964.1
594.318	18603.07
594.515	17996.87
594.712	18189.38
594.908	18052.16
595.105	17925.19
595.302	17769.54
595.499	18168.9
595.696	17992.77
595.892	17591.37
596.089	17898.56
596.286	17679.43
596.482	17679.43
596.679	17478.73
596.876	17615.94
597.072	17173.58
597.269	17351.76
597.466	17316.94
597.662	17163.34
597.859	17699.91
598.055	17329.23
598.252	17128.53
598.448	17280.08
598.645	17017.94
598.841	17122.38
599.038	16907.35
599.234	17187.92
599.431	16608.34
599.627	16868.44
599.824	16743.51
600.02	16919.64
600.217	16698.45
600.413	16841.81
600.609	16714.84
600.806	16587.86
601.002	16637.02
601.198	16325.72
601.395	16428.12
601.591	16344.16
601.787	16307.29
601.984	16147.55
602.18	16309.34
602.376	16172.13
602.572	16098.4
602.769	16153.69
602.965	16084.06
603.161	15903.84
603.357	15930.47
603.553	15582.31
603.75	15625.32
603.946	15744.1
604.142	15998.05
604.338	15619.18
604.534	15637.61
604.73	15438.95
604.926	15508.58
605.122	15397.99
605.318	15326.32
605.514	15346.8
605.71	15076.46
605.906	15142
606.102	15053.94
606.298	15160.43
606.494	15082.61
606.69	15305.84
606.886	15156.33
607.082	15015.02
607.278	14888.05
607.474	14734.45
607.67	14996.59
607.866	14892.15
608.062	15236.2
608.257	14775.41
608.453	14871.67
608.649	14910.58
608.845	14716.02
609.041	14687.35
609.236	14662.77
609.432	14699.64
609.628	14552.18
609.824	14521.46
610.019	14713.97
610.215	14605.43
610.411	14666.87
610.606	14521.46
610.802	14763.12
610.998	14511.22
611.193	14521.46
611.389	14240.89
611.584	14261.37
611.78	14277.76
611.976	14468.22
612.171	14376.06
612.367	14222.46
612.562	14107.77
612.758	13954.18
612.953	13929.6
613.149	14181.5
613.344	13964.42
613.539	13837.44
613.735	13986.94
613.93	13900.93
614.126	14007.42
614.321	14011.52
614.517	13792.39
614.712	13864.07
614.907	13673.6
615.103	13943.94
615.298	13812.87
615.493	13814.91
615.688	13421.7
615.884	13851.78
616.079	13509.77
616.274	13589.64
616.47	13577.35
616.665	13710.47
616.86	13608.07
617.055	13528.2
617.25	13501.58
617.445	13632.65
617.641	13165.71
617.836	13522.06
618.031	13137.04
618.226	13415.56
618.421	13382.79
618.616	13266.06
618.811	13042.83
619.006	13243.53
619.201	13071.5
619.396	13065.36
619.591	12977.3
619.786	12954.77
619.981	12522.65
620.176	12815.51
620.371	12582.04
620.566	12737.68
620.761	12569.75
620.956	12649.62
621.151	12729.49
621.346	12434.58
621.541	12344.47
621.735	12446.87
621.93	12258.46
622.125	12252.31
622.32	11928.74
622.515	12070.05
622.709	11992.22
622.904	12053.66
623.099	11967.65
623.294	12119.2
623.488	11885.73
623.683	11943.07
623.878	11822.24
624.072	11945.12
624.267	11476.13
624.462	11455.65
624.656	11467.94
624.851	11492.52
625.046	11592.87
625.24	11218.09
625.435	11183.27
625.629	11242.67
625.824	11353.26
626.018	11084.97
626.213	10972.33
626.407	10871.98
626.602	10939.57
626.796	10761.39
626.991	10751.15
627.185	10800.3
627.38	10745.01
627.574	10503.35
627.768	10542.26
627.963	10374.33
628.157	10392.76
628.352	10331.32
628.546	10124.47
628.74	10249.4
628.935	10308.79
629.129	10032.32
629.323	10136.76
629.517	10089.66
629.712	9815.23
629.906	9956.54
630.1	9839.81
630.294	9870.53
630.489	9798.85
630.683	9686.21
630.877	9561.28
631.071	9610.43
631.265	9551.04
631.459	9385.16
631.653	9604.29
631.848	9411.78
632.042	9319.62
632.236	9401.54
632.43	9266.38
632.624	9317.58
632.818	9225.42
633.012	8987.85
633.206	8969.42
633.4	8858.83
633.594	9051.34
633.788	8852.69
633.982	9047.24
634.176	9051.34
634.369	8805.58
634.563	8768.72
634.757	8598.74
634.951	8895.69
635.145	8682.7
635.339	8686.8
635.533	8529.11
635.726	8692.94
635.92	8539.35
636.114	8414.42
636.308	8309.97
636.501	8379.61
636.695	8338.65
636.889	8099.03
637.083	8074.46
637.276	8174.81
637.47	7963.87
637.664	8211.67
637.857	7927
638.051	8010.97
638.244	8094.94
638.438	7888.09
638.632	7781.6
638.825	7898.33
639.019	7699.68
639.212	7699.68
639.406	7742.69
639.599	7818.46
639.793	7709.92
639.986	7386.34
640.18	7568.61
640.373	7449.83
640.567	7400.68
640.76	7433.44
640.954	7259.37
641.147	7263.46
641.34	7275.75
641.534	7242.98
641.727	7384.29
641.92	7257.32
642.114	7191.78
642.307	7081.19
642.5	7187.69
642.694	6827.25
642.887	6956.27
643.08	6919.4
643.273	6853.87
643.467	6769.9
643.66	6644.98
643.853	6667.5
644.046	6765.81
644.239	6814.96
644.432	6626.54
644.626	6487.28
644.819	6651.12
645.012	6579.44
645.205	6630.64
645.398	6608.11
645.591	6391.03
645.784	6460.66
645.977	6305.01
646.17	6268.15
646.363	6069.5
646.556	6208.76
646.749	6413.56
646.942	6333.68
647.135	6266.1
647.328	6356.21
647.521	6253.81
647.714	6012.15
647.907	6071.54
648.099	6079.74
648.292	6022.39
648.485	6059.26
648.678	5893.37
648.871	5977.34
649.064	5850.36
649.256	5930.23
649.449	5831.93
649.642	5793.02
649.835	5858.56
650.027	5711.1
650.22	5670.14
650.413	5651.71
650.605	5664
650.798	5676.29
650.991	5440.77
651.183	5577.98
651.376	5371.14
651.568	5418.24
651.761	5446.91
651.954	5387.52
652.146	5393.67
652.339	5436.67
652.531	5440.77
652.724	5287.17
652.916	5383.43
653.109	5264.65
653.301	5356.8
653.494	5283.08
653.686	5164.29
653.879	5211.4
654.071	5029.13
654.263	5250.31
654.456	5164.29
654.648	5020.94
654.84	4971.79
655.033	4914.44
655.225	4889.87
655.417	4812.04
655.61	4885.77
655.802	4853
655.994	4840.72
656.186	4906.25
656.379	4871.44
656.571	4877.58
656.763	4816.14
656.955	4721.93
657.148	4721.93
657.34	4775.18
657.532	4594.96
657.724	4601.1
657.916	4603.15
658.108	4652.3
658.3	4533.52
658.492	4693.26
658.684	4443.41
658.876	4439.31
659.068	4517.14
659.26	4363.54
659.452	4490.51
659.644	4451.6
659.836	4439.31
660.028	4402.45
660.22	4568.34
660.412	4375.83
660.604	4259.09
660.796	4195.61
660.988	4183.32
661.18	4242.71
661.372	4277.52
661.563	4220.18
661.755	4228.37
661.947	4025.62
662.139	3927.32
662.331	4097.3
662.522	4168.98
662.714	3972.38
662.906	4001.05
663.097	4029.72
663.289	4044.06
663.481	3982.62
663.673	3888.41
663.864	3818.78
664.056	3906.84
664.247	3786.01
664.439	3794.2
664.631	3927.32
664.822	3855.64
665.014	3931.42
665.205	3808.54
665.397	3732.76
665.588	3822.88
665.78	3673.37
665.971	3755.29
666.163	3753.24
666.354	3826.97
666.546	3632.41
666.737	3644.7
666.929	3718.43
667.12	3585.31
667.311	3745.05
667.503	3554.59
667.694	3489.06
667.885	3556.64
668.077	3450.14
668.268	3538.21
668.459	3521.82
668.651	3568.93
668.842	3435.81
669.033	3368.23
669.224	3368.23
669.416	3521.82
669.607	3292.45
669.798	3251.49
669.989	3411.23
670.18	3333.41
670.371	3284.26
670.563	3351.84
670.754	3321.12
670.945	3255.59
671.136	3327.27
671.327	3259.68
671.518	3157.29
671.709	3269.92
671.9	3142.95
672.091	3222.82
672.282	3241.25
672.473	3124.52
672.664	3177.76
672.855	3214.63
673.046	3179.81
673.237	3194.15
673.428	3024.17
673.619	3185.96
673.809	2934.06
674	3079.46
674.191	3218.72
674.382	3067.17
674.573	2972.97
674.764	3153.19
674.954	3030.31
675.145	3128.61
675.336	2915.62
675.527	2942.25
675.717	3067.17
675.908	3038.5
676.099	2981.16
676.289	3069.22
676.48	2981.16
676.671	2950.44
676.861	2991.4
677.052	2983.21
677.243	2950.44
677.433	3048.74
677.624	2946.34
677.814	2999.59
678.005	2819.37
678.195	2964.78
678.386	2845.99
678.576	2852.14
678.767	2827.56
678.957	2864.43
679.148	2809.13
679.338	2964.78
679.529	2848.04
679.719	2944.3
679.909	2823.47
680.1	2880.81
680.29	2932.01
680.481	2751.79
680.671	2901.29
680.861	2979.11
681.052	2747.69
681.242	2673.96
681.432	2839.85
681.622	2821.42
681.813	2714.92
682.003	2723.12
682.193	2794.79
682.383	2731.31
682.573	2714.92
682.764	2673.96
682.954	2719.02
683.144	2682.16
683.334	2852.14
683.524	2807.08
683.714	2915.62
683.904	2628.91
684.094	2714.92
684.284	2708.78
684.474	2757.93
684.664	2702.64
684.854	2772.27
685.044	2641.2
685.234	2604.33
685.424	2620.72
685.614	2571.57
685.804	2802.99
685.994	2546.99
686.184	2686.25
686.374	2702.64
686.564	2479.41
686.753	2653.48
686.943	2436.4
687.133	2661.68
687.323	2546.99
687.513	2649.39
687.702	2450.74
687.892	2514.22
688.082	2483.5
688.272	2477.36
688.461	2399.54
688.651	2528.56
688.841	2444.59
689.03	2432.3
689.22	2499.89
689.41	2368.82
689.599	2432.3
689.789	2360.63
689.979	2366.77
690.168	2329.91
690.358	2213.17
690.547	2409.78
690.737	2325.81
690.926	2399.54
691.116	2338.1
691.305	2270.51
691.495	2329.91
691.684	2321.71
691.874	2334
692.063	2288.95
692.252	2297.14
692.442	2317.62
692.631	2247.99
692.82	2186.55
693.01	2278.71
693.199	2143.54
693.388	2241.84
693.578	2086.2
693.767	2190.64
693.956	2219.32
694.146	2071.86
694.335	2190.64
694.524	2170.16
694.713	2174.26
694.902	2129.2
695.092	2063.67
695.281	2198.84
695.47	2125.11
695.659	2086.2
695.848	2080.05
696.037	2080.05
696.226	2090.29
696.415	2043.19
696.604	2014.52
696.793	2045.24
696.982	2135.35
697.171	2071.86
697.36	2039.09
697.549	2010.42
697.738	2045.24
697.927	1989.94
698.116	2071.86
698.305	1977.66
698.494	2088.25
698.683	2039.09
698.872	2047.29
699.061	1981.75
699.25	2010.42
699.438	1989.94
699.627	2108.73
699.816	2010.42
700.005	2000.18
700.193	1957.18
700.382	2026.81
700.571	1998.13
700.76	1942.84
700.948	1918.26
701.137	1822.01
701.326	1979.7
701.514	1834.3
701.703	1959.22
701.892	1893.69
702.08	1940.79
702.269	1940.79
702.457	1969.46
702.646	1920.31
702.834	1883.45
703.023	1770.81
703.212	2043.19
703.4	2008.37
703.589	1922.36
703.777	1924.41
703.965	1989.94
704.154	1987.89
704.342	1924.41
704.531	1948.98
704.719	1867.06
704.907	2039.09
705.096	1848.63
705.284	1908.02
705.472	1936.7
705.661	1965.37
705.849	1885.5
706.037	1842.49
706.226	1989.94
706.414	1983.8
706.602	1822.01
706.79	1987.89
706.979	1774.91
707.167	1826.11
707.355	1834.3
707.543	2039.09
707.731	1893.69
707.919	1965.37
708.107	1846.59
708.296	1826.11
708.484	1860.92
708.672	1928.5
708.86	1875.26
709.048	1858.87
709.236	1889.59
709.424	1842.49
709.612	1881.4
709.8	1799.48
709.988	1846.59
710.176	1920.31
710.364	1854.78
710.551	1944.89
710.739	1846.59
710.927	1887.54
711.115	1830.2
711.303	1940.79
711.491	1895.74
711.679	1881.4
711.866	1836.35
712.054	1844.54
712.242	1908.02
712.43	1944.89
712.617	1998.13
712.805	1846.59
712.993	2014.52
713.181	1824.06
713.368	1994.04
713.556	1899.83
713.744	1852.73
713.931	1840.44
714.119	1973.56
714.306	1836.35
714.494	1895.74
714.682	1860.92
714.869	1834.3
715.057	1891.64
715.244	1891.64
715.432	2049.33
715.619	1893.69
715.807	1908.02
715.994	1817.91
716.182	1901.88
716.369	1826.11
716.556	1826.11
716.744	1834.3
716.931	1975.61
717.119	1826.11
717.306	1948.98
717.493	1752.38
717.681	1834.3
717.868	1707.32
718.055	1897.78
718.242	1936.7
718.43	1877.3
718.617	1979.7
718.804	1828.15
718.991	1885.5
719.179	1891.64
719.366	1959.22
719.553	1867.06
719.74	1817.91
719.927	1844.54
720.114	1842.49
720.301	2008.37
720.488	1869.11
720.676	1817.91
720.863	1932.6
721.05	1926.46
721.237	1926.46
721.424	1963.32
721.611	1983.8
721.798	1803.58
721.985	1875.26
722.172	1832.25
722.358	1940.79
722.545	2006.33
722.732	1977.66
722.919	1961.27
723.106	1959.22
723.293	1871.16
723.48	1885.5
723.667	1846.59
723.853	1908.02
724.04	1867.06
724.227	1989.94
724.414	1928.5
724.6	1901.88
724.787	1979.7
724.974	1967.42
725.161	1959.22
725.347	1858.87
725.534	1967.42
725.72	1903.93
725.907	2022.71
726.094	2055.48
726.28	1893.69
726.467	2006.33
726.653	1926.46
726.84	1989.94
727.027	2075.96
727.213	1963.32
727.4	1957.18
727.586	2006.33
727.773	1897.78
727.959	1961.27
728.145	2035
728.332	1989.94
728.518	1994.04
728.705	1957.18
728.891	1895.74
729.077	2084.15
729.264	2032.95
729.45	2051.38
729.636	1901.88
729.823	1932.6
730.009	1903.93
730.195	1922.36
730.382	2059.57
730.568	1948.98
730.754	2004.28
730.94	1998.13
731.126	1940.79
731.313	2024.76
731.499	1948.98
731.685	1948.98
731.871	2063.67
732.057	1981.75
732.243	1998.13
732.429	1916.22
732.615	1959.22
732.801	2026.81
732.987	2030.9
733.173	2006.33
733.359	1869.11
733.545	1967.42
733.731	1994.04
733.917	1926.46
734.103	1963.32
734.289	1977.66
734.475	1934.65
734.661	2022.71
734.847	2006.33
735.033	1926.46
735.219	1985.85
735.404	2049.33
735.59	2014.52
735.776	1819.96
735.962	2080.05
736.148	2049.33
736.333	1998.13
736.519	2022.71
736.705	1922.36
736.89	1891.64
737.076	1912.12
737.262	2061.62
737.447	1881.4
737.633	1924.41
737.819	1883.45
738.004	1891.64
738.19	2037.05
738.375	1860.92
738.561	1918.26
738.747	1809.72
738.932	1994.04
739.118	1908.02
739.303	1967.42
739.489	1887.54
739.674	2026.81
739.859	1926.46
740.045	1875.26
740.23	1940.79
740.416	1819.96
740.601	1981.75
740.786	1836.35
740.972	1860.92
741.157	1869.11
741.342	1895.74
741.528	1830.2
741.713	1860.92
741.898	1844.54
742.084	1844.54
742.269	1867.06
742.454	1852.73
742.639	1867.06
742.824	1981.75
743.01	1795.39
743.195	1838.39
743.38	1729.85
743.565	1840.44
743.75	1776.95
743.935	1729.85
744.12	1809.72
744.305	1725.75
744.49	1752.38
744.675	1862.97
744.86	1744.19
745.045	1721.66
745.23	1713.47
745.415	1711.42
745.6	1719.61
745.785	1629.5
745.97	1781.05
746.155	1793.34
746.34	1633.6
746.525	1672.51
746.71	1740.09
746.895	1670.46
747.079	1686.84
747.264	1590.59
747.449	1711.42
747.634	1654.08
747.819	1627.45
748.003	1531.2
748.188	1580.35
748.373	1697.08
748.557	1654.08
748.742	1588.54
748.927	1469.76
749.111	1600.83
749.296	1523.01
749.481	1576.25
749.665	1592.64
749.85	1596.73
750.034	1557.82
750.219	1584.45
750.404	1490.24
750.588	1461.57
750.773	1494.33
750.957	1506.62
751.141	1486.14
751.326	1449.28
751.51	1453.38
751.695	1359.17
751.879	1424.7
752.064	1492.29
752.248	1410.37
752.432	1416.51
752.617	1461.57
752.801	1482.05
752.985	1312.07
753.17	1426.75
753.354	1369.41
753.538	1424.7
753.722	1344.83
753.907	1281.35
754.091	1187.14
754.275	1367.36
754.459	1285.44
754.643	1256.77
754.828	1305.92
755.012	1334.59
755.196	1328.45
755.38	1363.26
755.564	1271.11
755.748	1158.47
755.932	1248.58
756.116	1203.52
756.3	1203.52
756.484	1142.08
756.668	1326.4
756.852	1236.29
757.036	1201.48
757.22	1170.76
757.404	1105.22
757.588	1131.84
757.772	1181
757.956	1097.03
758.14	1252.67
758.323	1084.74
758.507	1137.99
758.691	1117.51
758.875	1031.49
759.059	1084.74
759.242	1140.04
759.426	1092.93
759.61	1023.3
759.794	1006.92
759.977	1019.21
760.161	1111.36
760.345	1090.88
760.528	1115.46
760.712	1011.01
760.895	1017.16
761.079	1031.49
761.263	1023.3
761.446	1025.35
761.63	1017.16
761.813	1129.8
761.997	1019.21
762.18	990.53
762.364	978.25
762.547	910.66
762.731	951.62
762.914	935.24
763.098	945.48
763.281	1033.54
763.464	941.38
763.648	990.53
763.831	970.05
764.015	1035.59
764.198	836.94
764.381	974.15
764.564	986.44
764.748	953.67
764.931	949.57
765.114	875.85
765.297	965.96
765.481	890.18
765.664	859.46
765.847	851.27
766.03	976.2
766.213	849.22
766.397	894.28
766.58	896.33
766.763	935.24
766.946	943.43
767.129	836.94
767.312	945.48
767.495	935.24
767.678	804.17
767.861	943.43
768.044	793.93
768.227	857.42
768.41	949.57
768.593	886.09
768.776	826.7
768.959	785.74
769.142	834.89
769.324	746.83
769.507	925
769.69	761.16
769.873	830.79
770.056	1031.49
770.239	867.66
770.421	826.7
770.604	843.08
770.787	712.01
770.97	836.94
771.152	730.44
771.335	851.27
771.518	695.63
771.7	746.83
771.883	785.74
772.066	736.59
772.248	820.55
772.431	904.52
772.613	781.64
772.796	830.79
772.978	712.01
773.161	722.25
773.343	681.29
773.526	705.87
773.708	728.39
773.891	722.25
774.073	662.86
774.256	798.03
774.438	740.68
774.621	785.74
774.803	689.48
774.985	724.3
775.168	646.48
775.35	609.61
775.532	691.53
775.715	712.01
775.897	648.52
776.079	681.29
776.261	632.14
776.444	646.48
776.626	613.71
776.808	650.57
776.99	640.33
777.173	699.72
777.355	656.72
777.537	597.32
777.719	570.7
777.901	591.18
778.083	607.56
778.265	632.14
778.447	626
778.629	572.75
778.811	597.32
778.993	556.36
779.175	560.46
779.357	623.95
779.539	580.94
779.721	572.75
779.903	638.28
780.085	582.99
780.267	630.09
780.449	580.94
780.631	544.08
780.812	607.56
780.994	597.32
781.176	519.5
781.358	568.65
781.54	548.17
781.721	507.21
781.903	681.29
782.085	468.3
782.267	517.45
782.448	392.53
782.63	370
782.812	499.02
782.993	486.73
783.175	507.21
783.357	519.5
783.538	460.11
783.72	499.02
783.901	525.65
784.083	408.91
784.264	441.68
784.446	398.67
784.627	513.36
784.809	406.86
784.99	537.93
785.172	439.63
785.353	425.29
785.535	433.49
785.716	460.11
785.897	427.34
786.079	429.39
786.26	423.25
786.441	425.29
786.623	425.29
786.804	398.67
786.985	376.14
787.167	499.02
787.348	343.38
787.529	337.23
787.71	427.34
787.891	449.87
788.073	322.9
788.254	329.04
788.435	472.4
788.616	437.58
788.797	378.19
788.978	365.9
789.159	353.62
789.34	343.38
789.522	320.85
789.703	367.95
789.884	331.09
790.065	347.47
790.246	343.38
790.427	322.9
790.607	367.95
790.788	329.04
790.969	413.01
791.15	263.51
791.331	388.43
791.512	318.8
791.693	302.42
791.874	343.38
792.054	410.96
792.235	288.08
792.416	359.76
792.597	404.82
792.778	386.38
792.958	251.22
793.139	367.95
793.32	257.36
793.5	320.85
793.681	314.7
793.862	312.66
794.042	367.95
794.223	273.75
794.404	288.08
794.584	232.79
794.765	286.03
794.945	208.21
795.126	322.9
795.306	286.03
795.487	261.46
795.667	279.89
795.848	204.11
796.028	265.55
796.209	286.03
796.389	310.61
796.57	253.27
796.75	245.07
796.93	292.18
797.111	255.31
797.291	240.98
797.471	275.79
797.652	220.5
797.832	279.89
798.012	310.61
798.192	277.84
798.373	202.07
798.553	212.31
798.733	240.98
798.913	236.88
799.093	249.17
799.274	335.18
799.454	236.88
799.634	191.83
799.814	236.88
799.994	208.21
800.174	247.12
800.354	273.75
800.534	253.27
800.714	257.36
800.894	181.59
801.074	220.5
801.254	245.07
801.434	161.11
801.614	290.13
801.794	228.69
801.974	857.42
802.154	228.69
802.334	269.65
802.514	197.97
802.693	154.96
802.873	204.11
803.053	253.27
803.233	302.42
803.413	173.39
803.592	204.11
803.772	240.98
803.952	265.55
804.131	154.96
804.311	224.59
804.491	132.44
804.67	216.4
804.85	189.78
805.03	179.54
805.209	245.07
805.389	167.25
805.568	138.58
805.748	118.1
805.928	157.01
806.107	236.88
806.287	220.5
806.466	263.51
806.646	214.35
806.825	240.98
807.004	171.35
807.184	150.87
807.363	212.31
807.543	144.72
807.722	122.2
807.901	195.92
808.081	154.96
808.26	175.44
808.439	134.48
808.619	163.15
808.798	159.06
808.977	130.39
809.156	253.27
809.336	243.03
809.515	171.35
809.694	230.74
809.873	85.33
810.052	154.96
810.231	228.69
810.411	130.39
810.59	175.44
810.769	193.87
810.948	142.68
811.127	120.15
811.306	85.33
811.485	150.87
811.664	171.35
811.843	132.44
812.022	130.39
812.201	171.35
812.38	138.58
812.559	107.86
812.737	189.78
812.916	77.14
813.095	179.54
813.274	132.44
813.453	109.91
813.632	187.73
813.811	154.96
813.989	107.86
814.168	183.63
814.347	146.77
814.526	152.91
814.704	238.93
814.883	124.24
815.062	148.82
815.24	179.54
815.419	105.81
815.598	124.24
815.776	27.99
815.955	75.09
816.133	89.43
816.312	81.24
816.49	179.54
816.669	144.72
816.847	150.87
817.026	111.96
817.204	165.2
817.383	159.06
817.561	91.48
817.74	107.86
817.918	48.47
818.097	132.44
818.275	122.2
818.453	99.67
818.632	42.32
818.81	68.95
818.988	173.39
819.167	107.86
819.345	25.94
819.523	116.05
819.701	120.15
819.879	191.83
820.058	48.47
820.236	114
820.414	97.62
820.592	114
820.77	124.24
820.948	91.48
821.127	126.29
821.305	77.14
821.483	105.81
821.661	126.29
821.839	91.48
822.017	132.44
822.195	161.11
822.373	154.96
822.551	105.81
822.729	107.86
822.907	114
823.085	71
823.262	32.08
823.44	25.94
823.618	40.28
823.796	64.85
823.974	105.81
824.152	56.66
824.329	44.37
824.507	83.28
824.685	107.86
824.863	48.47
825.04	107.86
825.218	130.39
825.396	42.32
825.574	89.43
825.751	91.48
825.929	138.58
826.107	40.28
826.284	85.33
826.462	58.71
826.639	66.9
826.817	48.47
826.994	60.76
827.172	32.08
827.349	73.04
827.527	52.56
827.704	109.91
827.882	89.43
828.059	120.15
828.237	66.9
828.414	81.24
828.591	142.68
828.769	116.05
828.946	44.37
829.124	66.9
829.301	138.58
829.478	132.44
829.655	73.04
829.833	99.67
830.01	-33.45
830.187	138.58
830.364	-66.22
830.542	91.48
830.719	73.04
830.896	68.95
831.073	122.2
831.25	114
831.427	34.13
831.604	107.86
831.782	27.99
831.959	73.04
832.136	36.18
832.313	56.66
832.49	75.09
832.667	52.56
832.844	73.04
833.021	77.14
833.198	105.81
833.374	73.04
833.551	89.43
833.728	75.09
833.905	42.32
834.082	114
834.259	130.39
834.436	89.43
834.612	27.99
834.789	44.37
834.966	64.85
835.143	105.81
835.319	32.08
835.496	34.13
835.673	17.75
835.85	132.44
836.026	44.37
836.203	132.44
836.38	42.32
836.556	73.04
836.733	52.56
836.909	56.66
837.086	73.04
837.262	-21.16
837.439	27.99
837.616	23.89
837.792	105.81
837.968	64.85
838.145	40.28
838.321	93.52
838.498	34.13
838.674	81.24
838.851	114
839.027	48.47
839.203	103.76
839.38	105.81
839.556	-0.68
839.732	58.71
839.909	75.09
840.085	32.08
840.261	73.04
840.437	68.95
840.614	154.96
840.79	50.52
840.966	-4.78
841.142	42.32
841.318	21.85
841.494	114
841.671	77.14
841.847	91.48
842.023	36.18
842.199	48.47
842.375	83.28
842.551	48.47
842.727	9.56
842.903	56.66
843.079	66.9
843.255	40.28
843.431	34.13
843.607	77.14
843.783	-49.83
843.959	5.46
844.134	11.61
844.31	42.32
844.486	32.08
844.662	97.62
844.838	62.8
845.013	52.56
845.189	62.8
845.365	66.9
845.541	40.28
845.716	15.7
845.892	56.66
846.068	5.46
846.244	32.08
846.419	-37.55
846.595	-31.4
846.77	23.89
846.946	89.43
847.122	15.7
847.297	44.37
847.473	122.2
847.648	11.61
847.824	36.18
847.999	-33.45
848.175	11.61
848.35	62.8
848.526	42.32
848.701	81.24
848.876	105.81
849.052	19.8
849.227	48.47
849.403	54.61
849.578	42.32
849.753	68.95
849.929	1.37
850.104	77.14
850.279	34.13
850.454	36.18
850.63	40.28
850.805	27.99
850.98	42.32
851.155	-23.21
851.33	30.04
851.505	-0.68
851.681	124.24
851.856	3.41
852.031	50.52
852.206	25.94
852.381	50.52
852.556	23.89
852.731	75.09
852.906	1.37
853.081	-23.21
853.256	81.24
853.431	-74.41
853.606	-35.5
853.781	64.85
853.956	19.8
854.131	-8.87
854.305	64.85
854.48	23.89
854.655	1.37
854.83	-8.87
855.005	34.13
855.18	64.85
855.354	-17.07
855.529	7.51
855.704	-55.98
855.879	126.29
856.053	-10.92
856.228	21.85
856.403	-29.35
856.577	48.47
856.752	-4.78
856.926	11.61
857.101	77.14
857.276	7.51
857.45	27.99
857.625	68.95
857.799	62.8
857.974	15.7
858.148	-6.83
858.323	32.08
858.497	-68.27
858.672	23.89
858.846	75.09
859.02	15.7
859.195	7.51
859.369	-19.11
859.543	58.71
859.718	3.41
859.892	11.61
860.066	13.65
860.241	-17.07
860.415	17.75
860.589	-6.83
860.763	-12.97
860.938	-0.68
861.112	1.37
861.286	25.94
861.46	34.13
861.634	-45.74
861.808	3.41
861.982	-41.64
862.157	40.28
862.331	27.99
862.505	-47.79
862.679	21.85
862.853	19.8
863.027	-17.07
863.201	30.04
863.375	9.56
863.549	-0.68
863.722	38.23
863.896	19.8
864.07	34.13
864.244	-19.11
864.418	-4.78
864.592	9.56
864.766	50.52
864.939	7.51
865.113	7.51
865.287	27.99
865.461	-6.83
865.634	21.85
865.808	3.41
865.982	17.75
866.156	-41.64
866.329	-33.45
866.503	32.08
866.676	9.56
866.85	34.13
867.024	-10.92
867.197	32.08
867.371	23.89
867.544	7.51
867.718	11.61
867.891	60.76
868.065	-12.97
868.238	-72.36
868.412	56.66
868.585	32.08
868.759	23.89
868.932	7.51
869.105	17.75
869.279	44.37
869.452	-90.79
869.625	36.18
869.799	42.32
869.972	-39.59
870.145	-6.83
870.319	19.8
870.492	48.47
870.665	46.42
870.838	-31.4
871.011	-70.31
871.185	-4.78
871.358	21.85
871.531	66.9
871.704	-17.07
871.877	48.47
872.05	40.28
872.223	-21.16
872.396	27.99
872.569	23.89
872.742	7.51
872.915	23.89
873.088	-39.59
873.261	99.67
873.434	50.52
873.607	-17.07
873.78	42.32
873.953	-41.64
874.126	3.41
874.299	-41.64
874.471	15.7
874.644	25.94
874.817	50.52
874.99	60.76
875.163	-64.17
875.335	-2.73
875.508	-47.79
875.681	97.62
875.853	-17.07
876.026	19.8
876.199	9.56
876.371	-23.21
876.544	-17.07
876.717	-15.02
876.889	-6.83
877.062	-4.78
877.234	-74.41
877.407	3.41
877.579	42.32
877.752	75.09
877.924	48.47
878.097	-45.74
878.269	-60.07
878.442	40.28
878.614	-4.78
878.786	-62.12
878.959	-4.78
879.131	25.94
879.303	-25.26
879.476	1.37
879.648	25.94
879.82	36.18
879.993	-25.26
880.165	-4.78
880.337	17.75
880.509	19.8
880.681	21.85
880.854	-0.68
881.026	46.42
881.198	75.09
881.37	15.7
881.542	-53.93
881.714	-6.83
881.886	34.13
882.058	9.56
882.23	66.9
882.402	-39.59
882.574	-6.83
882.746	85.33
882.918	17.75
883.09	68.95
883.262	36.18
883.434	-19.11
883.606	-43.69
883.778	-4.78
883.95	85.33
884.122	-113.32
884.293	44.37
884.465	-60.07
884.637	48.47
884.809	19.8
884.98	-0.68
885.152	27.99
885.324	-8.87
885.496	-66.22
885.667	83.28
885.839	36.18
886.011	62.8
886.182	-0.68
886.354	21.85
886.525	44.37
886.697	13.65
886.869	-31.4
887.04	-29.35
887.212	34.13
887.383	81.24
887.555	-35.5
887.726	-25.26
887.897	17.75
888.069	-17.07
888.24	40.28
888.412	-47.79
888.583	-41.64
888.754	-15.02
888.926	-23.21
889.097	-21.16
889.268	-49.83
889.44	-31.4
889.611	56.66
889.782	-15.02
889.953	-55.98
890.125	15.7
890.296	5.46
890.467	36.18
890.638	-70.31
890.809	21.85
890.98	9.56
891.151	21.85
891.323	93.52
891.494	1.37
891.665	27.99
891.836	17.75
892.007	-17.07
892.178	42.32
892.349	9.56
892.52	-27.31
892.691	-49.83
892.862	-49.83
893.032	-72.36
893.203	91.48
893.374	-35.5
893.545	89.43
893.716	-12.97
893.887	1.37
894.057	-49.83
894.228	-21.16
894.399	-0.68
894.57	-31.4
894.74	3.41
894.911	21.85
895.082	-115.37
895.253	-10.92
895.423	-0.68
895.594	-21.16
895.764	95.57
895.935	-17.07
896.106	34.13
896.276	23.89
896.447	56.66
896.617	-58.03
896.788	-66.22
896.958	-47.79
897.129	7.51
897.299	64.85
897.47	85.33
897.64	27.99
897.81	-82.6
897.981	23.89
898.151	9.56
898.322	73.04
898.492	-49.83
898.662	-37.55
898.832	46.42
899.003	-8.87
899.173	-2.73
899.343	-6.83
899.513	-33.45
