Data from USB4F104151__16__14-42-38-628.txt Node

Date: Thu Mar 13 14:42:38 EDT 2025
User: louis
Spectrometer: USB4F10415
Trigger mode: 4
Integration Time (sec): 2.000000E-2
Scans to average: 1
Electric dark correction enabled: true
Nonlinearity correction enabled: false
Boxcar width: 0
XAxis mode: Wavelengths
Number of Pixels in Spectrum: 3648
>>>>>Begin Spectral Data<<<<<
178.204	-82.43
178.424	-82.43
178.644	-82.43
178.864	-125.44
179.084	-113.15
179.304	-6.66
179.524	15.87
179.744	-80.38
179.964	19.97
180.184	26.11
180.404	62.98
180.624	-45.57
180.844	91.65
181.064	-41.47
181.283	-20.99
181.503	-31.23
181.723	9.73
181.943	-4.61
182.163	112.13
182.383	93.69
182.602	38.4
182.822	75.26
183.042	42.5
183.262	75.26
183.482	126.46
183.701	46.59
183.921	36.35
184.141	5.63
184.361	24.06
184.58	50.69
184.8	-6.66
185.02	69.12
185.239	79.36
185.459	19.97
185.679	34.3
185.898	-0.51
186.118	-4.61
186.338	19.97
186.557	34.3
186.777	-2.56
186.997	67.07
187.216	30.21
187.436	181.76
187.655	151.04
187.875	67.07
188.095	62.98
188.314	99.84
188.534	136.7
188.753	40.45
188.973	5.63
189.192	58.88
189.412	85.5
189.631	48.64
189.851	9.73
190.07	134.65
190.29	-2.56
190.509	77.31
190.729	67.07
190.948	-0.51
191.168	99.84
191.387	148.99
191.607	77.31
191.826	103.93
192.045	34.3
192.265	-35.33
192.484	-31.23
192.704	58.88
192.923	69.12
193.142	103.93
193.362	28.16
193.581	87.55
193.8	71.17
194.02	136.7
194.239	22.02
194.458	67.07
194.678	13.82
194.897	46.59
195.116	-16.9
195.335	124.41
195.555	87.55
195.774	52.74
195.993	83.45
196.212	19.97
196.432	36.35
196.651	42.5
196.87	58.88
197.089	95.74
197.308	32.26
197.528	62.98
197.747	73.21
197.966	58.88
198.185	99.84
198.404	52.74
198.623	9.73
198.842	67.07
199.062	153.09
199.281	-12.8
199.5	75.26
199.719	58.88
199.938	75.26
200.157	48.64
200.376	50.69
200.595	17.92
200.814	65.02
201.033	95.74
201.252	105.98
201.471	22.02
201.69	36.35
201.909	58.88
202.128	71.17
202.347	101.89
202.566	62.98
202.785	54.78
203.004	-35.33
203.223	108.03
203.442	69.12
203.661	-16.9
203.879	44.54
204.098	52.74
204.317	52.74
204.536	116.22
204.755	50.69
204.974	58.88
205.193	110.08
205.411	132.61
205.63	44.54
205.849	75.26
206.068	91.65
206.287	9.73
206.505	42.5
206.724	75.26
206.943	11.78
207.162	28.16
207.381	60.93
207.599	58.88
207.818	81.41
208.037	-6.66
208.255	101.89
208.474	38.4
208.693	62.98
208.911	32.26
209.13	9.73
209.349	62.98
209.567	87.55
209.786	101.89
210.005	157.18
210.223	34.3
210.442	30.21
210.661	69.12
210.879	28.16
211.098	34.3
211.316	71.17
211.535	136.7
211.753	58.88
211.972	77.31
212.191	99.84
212.409	79.36
212.628	144.89
212.846	-27.14
213.065	69.12
213.283	77.31
213.502	34.3
213.72	99.84
213.938	30.21
214.157	110.08
214.375	54.78
214.594	-27.14
214.812	144.89
215.031	142.85
215.249	60.93
215.467	38.4
215.686	46.59
215.904	83.45
216.122	56.83
216.341	189.95
216.559	46.59
216.778	85.5
216.996	77.31
217.214	44.54
217.432	-6.66
217.651	28.16
217.869	46.59
218.087	-2.56
218.306	1.54
218.524	83.45
218.742	36.35
218.96	75.26
219.179	50.69
219.397	13.82
219.615	42.5
219.833	54.78
220.051	85.5
220.27	91.65
220.488	103.93
220.706	34.3
220.924	38.4
221.142	85.5
221.36	54.78
221.578	79.36
221.796	42.5
222.015	110.08
222.233	67.07
222.451	128.51
222.669	128.51
222.887	22.02
223.105	56.83
223.323	38.4
223.541	28.16
223.759	91.65
223.977	-6.66
224.195	42.5
224.413	58.88
224.631	13.82
224.849	62.98
225.067	79.36
225.285	91.65
225.503	116.22
225.721	17.92
225.939	126.46
226.157	120.32
226.375	118.27
226.592	19.97
226.81	-6.66
227.028	79.36
227.246	42.5
227.464	26.11
227.682	52.74
227.9	167.42
228.117	52.74
228.335	54.78
228.553	50.69
228.771	77.31
228.989	50.69
229.206	75.26
229.424	81.41
229.642	58.88
229.86	116.22
230.077	116.22
230.295	67.07
230.513	36.35
230.731	46.59
230.948	75.26
231.166	75.26
231.384	101.89
231.601	91.65
231.819	148.99
232.037	69.12
232.254	91.65
232.472	28.16
232.689	19.97
232.907	58.88
233.125	62.98
233.342	108.03
233.56	-4.61
233.777	28.16
233.995	60.93
234.213	155.13
234.43	118.27
234.648	17.92
234.865	34.3
235.083	60.93
235.3	60.93
235.518	50.69
235.735	50.69
235.953	126.46
236.17	13.82
236.388	95.74
236.605	42.5
236.822	157.18
237.04	69.12
237.257	30.21
237.475	46.59
237.692	69.12
237.909	44.54
238.127	128.51
238.344	40.45
238.562	71.17
238.779	79.36
238.996	62.98
239.214	134.65
239.431	62.98
239.648	42.5
239.865	87.55
240.083	75.26
240.3	60.93
240.517	54.78
240.735	79.36
240.952	157.18
241.169	110.08
241.386	75.26
241.603	17.92
241.821	69.12
242.038	26.11
242.255	5.63
242.472	19.97
242.689	54.78
242.907	75.26
243.124	46.59
243.341	-31.23
243.558	19.97
243.775	46.59
243.992	5.63
244.209	38.4
244.426	101.89
244.643	28.16
244.86	91.65
245.078	108.03
245.295	93.69
245.512	91.65
245.729	60.93
245.946	46.59
246.163	44.54
246.38	60.93
246.597	126.46
246.814	56.83
247.031	13.82
247.248	42.5
247.464	77.31
247.681	83.45
247.898	38.4
248.115	48.64
248.332	54.78
248.549	93.69
248.766	42.5
248.983	91.65
249.2	99.84
249.417	44.54
249.633	28.16
249.85	120.32
250.067	87.55
250.284	67.07
250.501	-23.04
250.717	99.84
250.934	71.17
251.151	67.07
251.368	36.35
251.585	89.6
251.801	11.78
252.018	42.5
252.235	28.16
252.451	28.16
252.668	42.5
252.885	93.69
253.102	26.11
253.318	60.93
253.535	103.93
253.752	11.78
253.968	48.64
254.185	38.4
254.401	148.99
254.618	62.98
254.835	13.82
255.051	83.45
255.268	87.55
255.484	62.98
255.701	67.07
255.917	54.78
256.134	22.02
256.351	69.12
256.567	56.83
256.784	71.17
257	5.63
257.217	85.5
257.433	1.54
257.65	79.36
257.866	32.26
258.082	26.11
258.299	50.69
258.515	50.69
258.732	30.21
258.948	24.06
259.165	9.73
259.381	36.35
259.597	30.21
259.814	110.08
260.03	85.5
260.246	17.92
260.463	118.27
260.679	54.78
260.895	13.82
261.112	62.98
261.328	42.5
261.544	58.88
261.761	93.69
261.977	9.73
262.193	30.21
262.409	26.11
262.626	58.88
262.842	83.45
263.058	50.69
263.274	93.69
263.49	112.13
263.707	13.82
263.923	50.69
264.139	-18.94
264.355	44.54
264.571	126.46
264.787	60.93
265.004	181.76
265.22	22.02
265.436	36.35
265.652	46.59
265.868	75.26
266.084	3.58
266.3	69.12
266.516	-14.85
266.732	34.3
266.948	52.74
267.164	65.02
267.38	114.17
267.596	101.89
267.812	112.13
268.028	62.98
268.244	71.17
268.46	91.65
268.676	50.69
268.892	52.74
269.108	77.31
269.324	9.73
269.54	13.82
269.756	101.89
269.972	44.54
270.188	118.27
270.403	28.16
270.619	91.65
270.835	40.45
271.051	22.02
271.267	19.97
271.483	65.02
271.698	110.08
271.914	112.13
272.13	-10.75
272.346	99.84
272.562	91.65
272.777	110.08
272.993	75.26
273.209	26.11
273.425	1.54
273.64	75.26
273.856	79.36
274.072	36.35
274.287	108.03
274.503	87.55
274.719	75.26
274.934	60.93
275.15	69.12
275.366	69.12
275.581	58.88
275.797	19.97
276.012	65.02
276.228	24.06
276.444	67.07
276.659	103.93
276.875	17.92
277.09	60.93
277.306	60.93
277.521	-53.76
277.737	67.07
277.952	67.07
278.168	95.74
278.383	26.11
278.599	-14.85
278.814	83.45
279.03	-14.85
279.245	34.3
279.461	50.69
279.676	69.12
279.892	50.69
280.107	67.07
280.322	75.26
280.538	99.84
280.753	50.69
280.969	148.99
281.184	91.65
281.399	42.5
281.615	95.74
281.83	54.78
282.045	-59.9
282.26	17.92
282.476	58.88
282.691	138.75
282.906	17.92
283.122	54.78
283.337	-0.51
283.552	83.45
283.767	28.16
283.983	140.8
284.198	112.13
284.413	75.26
284.628	17.92
284.843	42.5
285.058	99.84
285.274	54.78
285.489	62.98
285.704	87.55
285.919	58.88
286.134	87.55
286.349	42.5
286.564	44.54
286.779	128.51
286.995	99.84
287.21	-66.05
287.425	110.08
287.64	79.36
287.855	132.61
288.07	26.11
288.285	42.5
288.5	17.92
288.715	132.61
288.93	75.26
289.145	28.16
289.36	28.16
289.575	15.87
289.79	36.35
290.004	30.21
290.219	85.5
290.434	40.45
290.649	22.02
290.864	52.74
291.079	26.11
291.294	69.12
291.509	19.97
291.724	108.03
291.938	44.54
292.153	1.54
292.368	40.45
292.583	128.51
292.798	136.7
293.012	58.88
293.227	67.07
293.442	75.26
293.657	83.45
293.871	142.85
294.086	9.73
294.301	99.84
294.516	103.93
294.73	120.32
294.945	24.06
295.16	83.45
295.374	126.46
295.589	42.5
295.804	56.83
296.018	46.59
296.233	52.74
296.447	110.08
296.662	60.93
296.877	60.93
297.091	54.78
297.306	-16.9
297.52	-10.75
297.735	65.02
297.949	73.21
298.164	46.59
298.378	114.17
298.593	42.5
298.807	34.3
299.022	110.08
299.236	54.78
299.451	67.07
299.665	44.54
299.88	44.54
300.094	17.92
300.309	79.36
300.523	34.3
300.737	75.26
300.952	42.5
301.166	110.08
301.381	-4.61
301.595	50.69
301.809	46.59
302.024	71.17
302.238	101.89
302.452	85.5
302.667	54.78
302.881	60.93
303.095	30.21
303.309	42.5
303.524	34.3
303.738	38.4
303.952	99.84
304.166	124.41
304.381	62.98
304.595	112.13
304.809	75.26
305.023	34.3
305.237	99.84
305.452	26.11
305.666	103.93
305.88	134.65
306.094	112.13
306.308	67.07
306.522	110.08
306.736	36.35
306.95	79.36
307.164	112.13
307.379	-31.23
307.593	105.98
307.807	75.26
308.021	1.54
308.235	1.54
308.449	-4.61
308.663	28.16
308.877	42.5
309.091	159.23
309.305	67.07
309.519	-6.66
309.733	108.03
309.947	19.97
310.161	91.65
310.374	19.97
310.588	132.61
310.802	75.26
311.016	34.3
311.23	83.45
311.444	38.4
311.658	124.41
311.872	50.69
312.085	58.88
312.299	132.61
312.513	134.65
312.727	19.97
312.941	38.4
313.154	30.21
313.368	81.41
313.582	79.36
313.796	26.11
314.009	62.98
314.223	62.98
314.437	91.65
314.651	54.78
314.864	54.78
315.078	46.59
315.292	62.98
315.505	50.69
315.719	-14.85
315.933	91.65
316.146	42.5
316.36	126.46
316.573	99.84
316.787	75.26
317.001	52.74
317.214	62.98
317.428	44.54
317.641	60.93
317.855	151.04
318.068	-23.04
318.282	108.03
318.495	91.65
318.709	-39.42
318.922	110.08
319.136	91.65
319.349	134.65
319.563	52.74
319.776	93.69
319.99	103.93
320.203	155.13
320.417	36.35
320.63	17.92
320.843	101.89
321.057	79.36
321.27	36.35
321.483	-6.66
321.697	62.98
321.91	116.22
322.124	87.55
322.337	30.21
322.55	91.65
322.763	44.54
322.977	105.98
323.19	44.54
323.403	69.12
323.617	42.5
323.83	118.27
324.043	40.45
324.256	67.07
324.469	79.36
324.683	132.61
324.896	62.98
325.109	93.69
325.322	62.98
325.535	46.59
325.748	99.84
325.962	34.3
326.175	101.89
326.388	97.79
326.601	93.69
326.814	79.36
327.027	75.26
327.24	151.04
327.453	5.63
327.666	79.36
327.879	60.93
328.092	58.88
328.305	34.3
328.518	11.78
328.731	40.45
328.944	58.88
329.157	97.79
329.37	42.5
329.583	132.61
329.796	67.07
330.009	44.54
330.222	108.03
330.435	34.3
330.648	140.8
330.861	83.45
331.073	108.03
331.286	19.97
331.499	108.03
331.712	-18.94
331.925	67.07
332.138	77.31
332.35	54.78
332.563	67.07
332.776	99.84
332.989	36.35
333.202	67.07
333.414	99.84
333.627	28.16
333.84	48.64
334.053	69.12
334.265	58.88
334.478	-4.61
334.691	83.45
334.903	54.78
335.116	85.5
335.329	44.54
335.541	44.54
335.754	175.61
335.966	9.73
336.179	192
336.392	11.78
336.604	93.69
336.817	34.3
337.029	97.79
337.242	140.8
337.454	83.45
337.667	71.17
337.88	81.41
338.092	3.58
338.305	83.45
338.517	11.78
338.729	108.03
338.942	67.07
339.154	36.35
339.367	13.82
339.579	38.4
339.792	62.98
340.004	144.89
340.217	77.31
340.429	34.3
340.641	36.35
340.854	81.41
341.066	118.27
341.278	62.98
341.491	146.94
341.703	71.17
341.915	69.12
342.128	32.26
342.34	26.11
342.552	9.73
342.764	73.21
342.977	28.16
343.189	85.5
343.401	60.93
343.613	1.54
343.826	48.64
344.038	-14.85
344.25	67.07
344.462	108.03
344.674	-12.8
344.886	-2.56
345.099	128.51
345.311	44.54
345.523	67.07
345.735	52.74
345.947	198.14
346.159	112.13
346.371	93.69
346.583	93.69
346.795	124.41
347.007	67.07
347.219	44.54
347.431	50.69
347.643	173.57
347.855	42.5
348.067	173.57
348.279	60.93
348.491	75.26
348.703	32.26
348.915	38.4
349.127	71.17
349.339	38.4
349.551	75.26
349.763	62.98
349.975	42.5
350.187	87.55
350.399	54.78
350.61	108.03
350.822	34.3
351.034	75.26
351.246	134.65
351.458	83.45
351.669	50.69
351.881	75.26
352.093	118.27
352.305	112.13
352.517	17.92
352.728	60.93
352.94	65.02
353.152	-4.61
353.363	-47.62
353.575	42.5
353.787	108.03
353.999	101.89
354.21	128.51
354.422	9.73
354.633	83.45
354.845	46.59
355.057	138.75
355.268	83.45
355.48	22.02
355.692	73.21
355.903	69.12
356.115	17.92
356.326	101.89
356.538	58.88
356.749	32.26
356.961	122.37
357.172	99.84
357.384	-2.56
357.595	198.14
357.807	11.78
358.018	24.06
358.23	83.45
358.441	153.09
358.653	46.59
358.864	-8.7
359.075	46.59
359.287	77.31
359.498	91.65
359.709	60.93
359.921	30.21
360.132	87.55
360.344	103.93
360.555	54.78
360.766	75.26
360.977	67.07
361.189	79.36
361.4	26.11
361.611	126.46
361.823	36.35
362.034	85.5
362.245	28.16
362.456	79.36
362.667	50.69
362.879	114.17
363.09	67.07
363.301	83.45
363.512	93.69
363.723	62.98
363.935	50.69
364.146	71.17
364.357	42.5
364.568	89.6
364.779	15.87
364.99	34.3
365.201	26.11
365.412	132.61
365.623	38.4
365.834	148.99
366.045	-18.94
366.256	60.93
366.467	114.17
366.678	-14.85
366.889	19.97
367.1	42.5
367.311	144.89
367.522	126.46
367.733	89.6
367.944	75.26
368.155	81.41
368.366	165.37
368.577	99.84
368.788	50.69
368.999	77.31
369.209	126.46
369.42	89.6
369.631	91.65
369.842	54.78
370.053	153.09
370.264	38.4
370.474	38.4
370.685	50.69
370.896	85.5
371.107	46.59
371.317	120.32
371.528	38.4
371.739	38.4
371.95	67.07
372.16	50.69
372.371	120.32
372.582	54.78
372.792	19.97
373.003	22.02
373.214	89.6
373.424	103.93
373.635	116.22
373.846	30.21
374.056	46.59
374.267	65.02
374.477	83.45
374.688	-20.99
374.898	108.03
375.109	60.93
375.319	140.8
375.53	48.64
375.74	60.93
375.951	52.74
376.161	91.65
376.372	108.03
376.582	28.16
376.793	69.12
377.003	87.55
377.214	69.12
377.424	50.69
377.635	112.13
377.845	50.69
378.055	75.26
378.266	71.17
378.476	87.55
378.686	75.26
378.897	118.27
379.107	89.6
379.317	130.56
379.528	17.92
379.738	26.11
379.948	48.64
380.158	79.36
380.369	128.51
380.579	93.69
380.789	40.45
380.999	46.59
381.21	65.02
381.42	181.76
381.63	69.12
381.84	138.75
382.05	83.45
382.261	99.84
382.471	110.08
382.681	-33.28
382.891	159.23
383.101	126.46
383.311	58.88
383.521	67.07
383.731	108.03
383.941	28.16
384.151	83.45
384.361	28.16
384.571	77.31
384.781	93.69
384.991	120.32
385.201	42.5
385.411	189.95
385.621	54.78
385.831	42.5
386.041	38.4
386.251	148.99
386.461	99.84
386.671	34.3
386.881	114.17
387.091	58.88
387.301	103.93
387.511	46.59
387.72	128.51
387.93	124.41
388.14	69.12
388.35	140.8
388.56	99.84
388.769	146.94
388.979	140.8
389.189	48.64
389.399	73.21
389.609	99.84
389.818	120.32
390.028	85.5
390.238	108.03
390.447	128.51
390.657	67.07
390.867	118.27
391.076	32.26
391.286	108.03
391.496	91.65
391.705	58.88
391.915	105.98
392.125	50.69
392.334	30.21
392.544	77.31
392.753	77.31
392.963	83.45
393.172	69.12
393.382	52.74
393.591	69.12
393.801	46.59
394.01	128.51
394.22	60.93
394.429	32.26
394.639	69.12
394.848	99.84
395.058	99.84
395.267	83.45
395.477	26.11
395.686	58.88
395.895	136.7
396.105	65.02
396.314	140.8
396.524	112.13
396.733	120.32
396.942	124.41
397.152	134.65
397.361	136.7
397.57	42.5
397.78	126.46
397.989	75.26
398.198	165.37
398.407	26.11
398.617	67.07
398.826	157.18
399.035	83.45
399.244	97.79
399.453	67.07
399.663	148.99
399.872	58.88
400.081	97.79
400.29	89.6
400.499	69.12
400.708	116.22
400.917	116.22
401.127	110.08
401.336	69.12
401.545	189.95
401.754	140.8
401.963	181.76
402.172	128.51
402.381	110.08
402.59	103.93
402.799	75.26
403.008	181.76
403.217	116.22
403.426	153.09
403.635	136.7
403.844	163.33
404.053	208.38
404.262	142.85
404.471	224.76
404.68	99.84
404.888	108.03
405.097	177.66
405.306	202.24
405.515	153.09
405.724	128.51
405.933	216.57
406.142	200.19
406.35	128.51
406.559	206.33
406.768	173.57
406.977	257.53
407.185	181.76
407.394	120.32
407.603	148.99
407.812	333.31
408.02	222.72
408.229	239.1
408.438	204.28
408.646	216.57
408.855	206.33
409.064	177.66
409.272	282.11
409.481	261.63
409.69	275.96
409.898	247.29
410.107	230.91
410.315	265.72
410.524	329.21
410.733	353.79
410.941	290.3
411.15	222.72
411.358	357.88
411.567	378.36
411.775	361.98
411.984	341.5
412.192	355.83
412.401	339.45
412.609	423.42
412.818	421.37
413.026	443.9
413.234	476.66
413.443	372.22
413.651	493.05
413.86	390.65
414.068	452.09
414.276	546.3
414.485	462.33
414.693	513.53
414.901	542.2
415.11	603.64
415.318	583.16
415.526	544.25
415.734	703.99
415.943	681.46
416.151	722.42
416.359	636.41
416.567	708.09
416.776	757.24
416.984	806.39
417.192	800.24
417.4	755.19
417.608	787.96
417.817	837.11
418.025	888.31
418.233	894.45
418.441	916.98
418.649	865.78
418.857	939.51
419.065	1019.38
419.273	982.51
419.481	1084.91
419.689	1091.06
419.897	1148.4
420.105	1207.79
420.313	1226.22
420.521	1205.74
420.729	1379.82
420.937	1385.96
421.145	1480.17
421.353	1533.42
421.561	1525.22
421.769	1492.46
421.977	1582.57
422.185	1508.84
422.393	1672.68
422.601	1828.32
422.809	1766.89
423.017	1852.9
423.224	1983.97
423.432	1887.72
423.64	1957.35
423.848	2139.62
424.056	2172.38
424.263	2231.77
424.471	2131.42
424.679	2356.7
424.887	2491.87
425.094	2428.38
425.302	2483.67
425.51	2557.4
425.718	2663.9
425.925	2678.23
426.133	2815.45
426.341	2948.56
426.548	2995.67
426.756	3063.25
426.964	3057.11
427.171	3337.68
427.379	3319.25
427.586	3395.02
427.794	3565
428.001	3548.62
428.209	3861.96
428.417	3802.57
428.624	4021.7
428.832	4156.86
429.039	4072.9
429.247	3902.92
429.454	4445.63
429.662	4654.52
429.869	4416.96
430.076	4621.75
430.284	4513.21
430.491	4756.92
430.699	4990.39
430.906	5137.84
431.114	4965.81
431.321	5137.84
431.528	5537.2
431.736	5598.63
431.943	5924.26
432.15	5772.71
432.358	5911.97
432.565	6317.47
432.772	6034.85
432.979	6487.45
433.187	6483.36
433.394	6393.25
433.601	6999.45
433.808	7030.16
434.016	7083.41
434.223	7265.68
434.43	7574.92
434.637	7382.42
434.844	8043.91
435.052	8523.13
435.259	8242.56
435.466	8191.36
435.673	8310.15
435.88	8623.48
436.087	9119.09
436.294	9067.89
436.501	9012.6
436.708	9127.28
436.915	9561.45
437.122	9899.37
437.329	9885.03
437.537	10151.27
437.743	10331.49
437.95	10276.2
438.157	10786.14
438.364	11134.29
438.571	11044.18
438.778	11230.55
438.985	12121.42
439.192	11625.81
439.399	12141.89
439.606	11838.8
439.813	12387.65
440.02	13034.81
440.227	13247.8
440.433	12973.37
440.64	13149.5
440.847	13333.81
441.054	13413.68
441.261	14525.73
441.467	14271.78
441.674	14720.29
441.881	15131.93
442.088	15090.97
442.294	14675.23
442.501	15412.5
442.708	15459.6
442.914	16262.41
443.121	16760.06
443.328	16534.79
443.534	17949.93
443.741	17233.15
443.948	17132.79
444.154	18271.47
444.361	18193.64
444.568	18216.17
444.774	18271.47
444.981	18347.24
445.187	19023.07
445.394	19997.9
445.6	19428.57
445.807	21425.34
446.013	20559.05
446.22	21040.32
446.426	21654.71
446.633	21642.42
446.839	22613.16
447.046	21603.51
447.252	23139.49
447.459	23235.74
447.665	23055.52
447.871	23778.45
448.078	24847.49
448.284	23895.19
448.491	24667.27
448.697	25601.15
448.903	26100.85
449.11	25914.48
449.316	25717.88
449.522	26125.43
449.728	26725.48
449.935	27120.74
450.141	27038.82
450.347	27874.39
450.553	26956.9
450.76	27538.52
450.966	27722.84
451.172	27894.87
451.378	28470.35
451.584	27989.08
451.791	28785.74
451.997	28134.48
452.203	29281.35
452.409	29350.98
452.615	28974.15
452.821	28236.88
453.027	27800.66
453.233	28965.96
453.44	28013.65
453.646	28626
453.852	28367.95
454.058	28892.23
454.264	28308.56
454.47	28589.13
454.676	27937.88
454.882	28738.63
455.088	26164.34
455.294	27030.63
455.5	26950.76
455.705	27761.75
455.911	26440.81
456.117	26213.49
456.323	25748.6
456.529	24472.71
456.735	25396.35
456.941	24478.86
457.147	24470.67
457.352	23620.76
457.558	23555.22
457.764	23571.61
457.97	23086.24
458.176	22695.08
458.381	22731.94
458.587	21691.57
458.793	21634.23
458.999	20403.4
459.204	21943.47
459.41	21417.15
459.616	19801.3
459.821	20061.39
460.027	20235.47
460.233	19586.26
460.438	18650.34
460.644	18740.45
460.85	17843.44
461.055	17810.67
461.261	17769.71
461.466	16571.65
461.672	15879.44
461.878	16844.03
462.083	15961.36
462.289	15617.3
462.494	15410.45
462.7	14920.99
462.905	14370.08
463.111	15009.05
463.316	15035.67
463.522	14503.2
463.727	14849.31
463.932	14843.17
464.138	14648.61
464.343	14755.1
464.549	14132.52
464.754	14546.21
464.959	14558.5
465.165	14456.1
465.37	13784.37
465.575	13401.4
465.781	14116.14
465.986	13968.68
466.191	13675.82
466.397	13518.13
466.602	12637.5
466.807	13159.74
467.012	13241.65
467.218	12926.27
467.423	12850.49
467.628	12664.13
467.833	13448.5
468.038	13178.17
468.244	12608.83
468.449	13399.35
468.654	13030.71
468.859	12717.37
469.064	12758.33
469.269	12150.09
469.474	12225.86
469.679	12610.88
469.885	12012.87
470.09	12352.84
470.295	12344.64
470.5	11959.63
470.705	12191.05
470.91	11908.43
471.115	11603.28
471.32	11939.15
471.525	11621.71
471.73	11416.91
471.935	11502.93
472.139	11111.77
472.344	11197.78
472.549	11134.29
472.754	11003.22
472.959	10898.78
473.164	10591.58
473.369	10538.34
473.574	10943.83
473.778	10763.61
473.983	10659.17
474.188	10693.98
474.393	10145.13
474.598	10243.43
474.802	10175.84
475.007	10087.78
475.212	10055.01
475.417	9743.72
475.621	9753.96
475.826	9749.87
476.031	9401.71
476.235	9409.9
476.44	9547.12
476.645	9241.97
476.849	9180.53
477.054	9235.83
477.259	9090.42
477.463	9031.03
477.668	8916.34
477.872	9074.04
478.077	8912.25
478.282	8473.98
478.486	8570.24
478.691	8392.06
478.895	8613.24
479.1	8263.04
479.304	8603
479.509	8156.55
479.713	8500.61
479.918	8168.84
480.122	7912.84
480.326	8166.79
480.531	8224.13
480.735	7941.51
480.94	7929.22
481.144	8162.69
481.348	8048.01
481.553	8060.29
481.757	7910.79
481.961	7761.29
482.166	8019.33
482.37	7939.46
482.574	7749
482.778	7927.18
482.983	7951.75
483.187	7947.65
483.391	7732.62
483.595	7863.69
483.8	7636.36
484.004	7787.91
484.208	7806.34
484.412	7820.68
484.616	7839.11
484.821	7933.32
485.025	7837.06
485.229	7933.32
485.433	7779.72
485.637	7742.86
485.841	7718.28
486.045	7810.44
486.249	7773.58
486.453	7650.7
486.657	7845.26
486.861	8002.95
487.065	7716.23
487.269	7820.68
487.473	7581.07
487.677	7927.18
487.881	7970.18
488.085	7771.53
488.289	7935.37
488.493	7994.76
488.697	7996.81
488.901	8230.27
489.105	7972.23
489.309	7980.42
489.512	8140.16
489.716	8013.19
489.92	8084.87
490.124	8039.81
490.328	8215.94
490.531	7990.66
490.735	8131.97
490.939	8150.4
491.143	8238.47
491.346	8361.34
491.55	8244.61
491.754	8306.05
491.958	8416.64
492.161	8471.93
492.365	8414.59
492.569	8617.34
492.772	8435.07
492.976	8476.03
493.18	8584.57
493.383	8695.16
493.587	8717.69
493.79	8770.94
493.994	8940.92
494.197	8815.99
494.401	9028.98
494.605	8899.96
494.808	9031.03
495.012	9074.04
495.215	9309.55
495.419	9350.51
495.622	9340.27
495.825	9391.47
496.029	9540.97
496.232	9762.16
496.436	9766.25
496.639	9796.97
496.843	9862.51
497.046	10067.3
497.249	10048.87
497.453	10085.73
497.656	10163.56
497.859	10313.06
498.063	10399.07
498.266	10634.59
498.469	10673.5
498.673	10728.8
498.876	11316.56
499.079	10947.93
499.282	11081.05
499.485	11464.02
499.689	11466.07
499.892	11695.44
500.095	11609.42
500.298	11828.56
500.501	12002.63
500.705	12252.49
500.908	12479.81
501.111	12510.53
501.314	12528.96
501.517	12791.1
501.72	12875.07
501.923	12911.93
502.126	13260.09
502.329	13372.72
502.532	13557.04
502.735	13641.01
502.938	13923.63
503.141	14089.51
503.344	14300.45
503.547	14034.22
503.75	14337.32
503.953	14853.41
504.156	14683.42
504.359	14603.55
504.562	15084.83
504.765	15459.6
504.968	15398.17
505.17	15858.96
505.373	16012.56
505.576	16389.38
505.779	16117
505.982	16360.71
506.185	16776.45
506.387	16700.67
506.59	16817.41
506.793	17343.74
506.996	17270.01
507.198	17591.54
507.401	17650.93
507.604	17847.54
507.807	18416.87
508.009	18498.79
508.212	18607.33
508.415	18865.38
508.617	18894.05
508.82	19033.31
509.022	19307.74
509.225	19920.08
509.428	19690.71
509.63	19909.84
509.833	20133.07
510.035	20493.51
510.238	20550.85
510.44	20751.56
510.643	20860.1
510.845	21288.12
511.048	21349.56
511.25	21451.96
511.453	21832.88
511.655	22877.35
511.858	22234.28
512.06	22774.95
512.262	22953.12
512.465	22875.3
512.667	23641.24
512.87	23659.67
513.072	23651.48
513.274	24091.79
513.477	24315.02
513.679	24323.21
513.881	24824.97
514.084	25107.58
514.286	25199.74
514.488	25212.03
514.69	26135.67
514.893	26135.67
515.095	26221.68
515.297	26317.93
515.499	26477.68
515.701	26846.31
515.904	27173.99
516.106	27671.64
516.308	28001.36
516.51	28335.18
516.712	28030.04
516.914	28415.05
517.116	28750.92
517.318	28744.78
517.52	29273.15
517.722	29254.72
517.925	30065.72
518.127	29989.94
518.329	30493.74
518.531	30123.06
518.733	30946.34
518.935	31155.24
519.136	31380.51
519.338	31540.25
519.54	31540.25
519.742	31820.83
519.944	32314.39
520.146	32549.9
520.348	32861.19
520.55	32848.91
520.752	33012.74
520.954	33496.06
521.155	33668.09
521.357	34632.69
521.559	34362.36
521.761	34837.48
521.963	34720.75
522.164	34655.22
522.366	34921.45
522.568	35752.93
522.77	35599.33
522.971	35806.17
523.173	35640.29
523.375	36369.37
523.576	36309.97
523.778	36285.4
523.98	37022.67
524.181	37032.91
524.383	37233.61
524.584	37690.3
524.786	37938.11
524.988	37827.52
525.189	37974.97
525.391	37874.62
525.592	38359.99
525.794	38589.36
525.995	38724.53
526.197	38568.88
526.398	38638.51
526.6	39242.67
526.801	39422.89
527.003	39283.62
527.204	39603.11
527.406	39867.3
527.607	39451.56
527.808	39762.85
528.01	39289.77
528.211	39893.92
528.412	40799.12
528.614	40186.78
528.815	40428.44
529.016	41046.93
529.218	40162.2
529.419	40739.73
529.62	40752.02
529.822	40653.72
530.023	40835.98
530.224	40842.13
530.425	40637.33
530.626	40706.96
530.828	40743.83
531.029	41712.52
531.23	41100.17
531.431	41186.19
531.632	41327.5
531.833	41360.26
532.035	41765.76
532.236	41313.16
532.437	41556.87
532.638	41171.85
532.839	41575.3
533.04	41546.63
533.241	41522.05
533.442	41960.32
533.643	41515.91
533.844	41610.12
534.045	41556.87
534.246	41311.11
534.447	41931.65
534.648	41477
534.849	41372.55
535.05	41157.52
535.251	41896.83
535.451	41608.07
535.652	41886.59
535.853	41712.52
536.054	41894.78
536.255	42242.94
536.456	41663.36
536.657	42079.1
536.857	41700.23
537.058	41892.74
537.259	42214.27
537.46	41845.63
537.66	41223.05
537.861	41921.41
538.062	41649.03
538.263	41917.31
538.463	41507.72
538.664	41694.08
538.865	41892.74
539.065	42304.38
539.266	41689.99
539.466	42187.64
539.667	41696.13
539.868	42179.45
540.068	41798.53
540.269	42201.98
540.469	42515.32
540.67	41644.93
540.87	41620.36
541.071	41628.55
541.271	42023.81
541.472	41546.63
541.672	41776
541.873	41419.66
542.073	41460.62
542.274	42046.33
542.474	41421.7
542.675	41659.27
542.875	41913.22
543.075	41786.24
543.276	41286.54
543.476	41878.4
543.676	41317.26
543.877	41515.91
544.077	41956.22
544.277	41663.36
544.478	41532.29
544.678	42175.36
544.878	41593.73
545.078	41833.35
545.279	41425.8
545.479	42044.29
545.679	41909.12
545.879	41835.39
546.079	41655.17
546.28	41669.51
546.48	41304.97
546.68	41511.81
546.88	41622.4
547.08	41700.23
547.28	41405.32
547.48	41239.43
547.68	41253.77
547.88	41466.76
548.081	41671.56
548.281	41212.81
548.481	41462.66
548.681	41587.59
548.881	41350.03
549.081	41509.77
549.28	41499.53
549.48	41579.4
549.68	41757.57
549.88	42279.8
550.08	41374.6
550.28	41683.84
550.48	41448.33
550.68	41859.97
550.88	41251.72
551.08	41055.12
551.279	41366.41
551.479	41091.98
551.679	41264.01
551.879	41249.67
552.079	41687.94
552.278	41032.59
552.478	41272.2
552.678	41087.89
552.878	41374.6
553.077	41321.35
553.277	41053.07
553.477	41608.07
553.676	41010.06
553.876	41319.31
554.076	40936.34
554.275	40840.08
554.475	40532.89
554.674	41003.92
554.874	41276.3
555.074	40895.38
555.273	40995.73
555.473	41210.76
555.672	40858.51
555.872	40682.39
556.071	40924.05
556.271	40795.03
556.47	40645.52
556.67	40598.42
556.869	40606.61
557.068	41003.92
557.268	40905.62
557.467	40672.15
557.667	40487.83
557.866	40776.59
558.065	40745.87
558.265	40237.98
558.464	40541.08
558.663	40782.74
558.863	39713.7
559.062	40641.43
559.261	40145.82
559.461	40508.31
559.66	39650.21
559.859	40410.01
560.058	40041.37
560.258	40139.68
560.457	39924.64
560.656	40364.95
560.855	39857.06
561.054	39859.1
561.253	39639.97
561.453	40090.52
561.652	40024.99
561.851	39625.64
562.05	39429.03
562.249	39279.53
562.448	39852.96
562.647	39867.3
562.846	39367.59
563.045	39594.92
563.244	39402.41
563.443	39756.71
563.642	38753.2
563.841	39500.71
564.04	38904.75
564.239	39209.9
564.438	38728.63
564.637	39072.68
564.836	38785.97
565.035	38495.16
565.234	38806.45
565.432	38376.37
565.631	38372.28
565.83	38609.84
566.029	38126.52
566.228	38370.23
566.427	38466.49
566.625	38288.31
566.824	38048.7
567.023	38491.06
567.222	37696.45
567.42	38314.94
567.619	38038.46
567.818	37630.91
568.016	37231.56
568.215	37895.1
568.414	37714.88
568.612	38024.12
568.811	37649.35
569.01	37657.54
569.208	37123.02
569.407	37391.3
569.605	36776.91
569.804	37229.51
570.002	37037
570.201	37469.12
570.4	37086.15
570.598	36654.03
570.797	36588.5
570.995	36785.1
571.193	36537.3
571.392	36666.32
571.59	36346.84
571.789	36492.24
571.987	36344.79
572.186	36357.08
572.384	36045.79
572.582	36361.17
572.781	36531.15
572.979	35664.86
573.177	35849.18
573.376	36105.18
573.574	35814.37
573.772	35881.95
573.971	35417.06
574.169	35507.17
574.367	35156.97
574.565	35505.12
574.763	35331.04
574.962	34733.04
575.16	34993.13
575.358	35216.36
575.556	34659.31
575.754	35029.99
575.952	34694.13
576.151	34837.48
576.349	34577.39
576.547	34483.19
576.745	34761.71
576.943	34423.79
577.141	34169.85
577.339	34366.45
577.537	34313.2
577.735	34149.37
577.933	34059.26
578.131	34046.97
578.329	33991.67
578.527	33530.88
578.725	33371.14
578.923	33475.59
579.121	33342.47
579.319	33338.37
579.516	33440.77
579.714	33301.51
579.912	33321.99
580.11	33102.85
580.308	33045.51
580.506	33158.15
580.704	32488.46
580.901	32760.84
581.099	33152.01
581.297	32343.06
581.495	32975.88
581.692	32441.36
581.89	31960.09
582.088	32265.24
582.285	32263.19
582.483	32283.67
582.681	32123.93
582.878	31568.93
583.076	31683.61
583.274	32255
583.471	31308.83
583.669	31593.5
583.866	31314.98
584.064	31788.06
584.262	31288.35
584.459	31790.11
584.657	31013.93
584.854	31388.71
585.052	31020.07
585.249	31249.44
585.447	31157.28
585.644	31153.19
585.841	30702.64
586.039	31183.91
586.236	30428.21
586.434	30524.46
586.631	30573.61
586.828	30432.3
587.026	30387.25
587.223	30434.35
587.42	29867.06
587.618	30012.47
587.815	29637.69
588.012	29899.83
588.21	29514.81
588.407	29932.6
588.604	29566.01
588.801	29539.39
588.999	29355.07
589.196	29561.92
589.393	29508.67
589.59	29551.68
589.787	29191.23
589.984	29094.98
590.182	28722.25
590.379	29277.25
590.576	28703.82
590.773	28861.51
590.97	28535.88
591.167	28777.54
591.364	28499.02
591.561	28501.07
591.758	28120.15
591.955	28060.76
592.152	28308.56
592.349	27884.63
592.546	28144.72
592.743	28124.24
592.94	27427.93
593.137	27927.64
593.334	28036.18
593.531	27260
593.727	27991.12
593.924	27608.15
594.121	26942.56
594.318	27505.76
594.515	27100.26
594.712	27599.96
594.908	27116.64
595.105	27192.42
595.302	26915.94
595.499	26815.59
595.696	26983.52
595.892	26426.48
596.089	26999.91
596.286	26823.78
596.482	26690.66
596.679	26463.34
596.876	26375.28
597.072	26324.08
597.269	26393.71
597.466	25941.11
597.662	25998.45
597.859	26104.95
598.055	26072.18
598.252	25840.76
598.448	25472.12
598.645	25617.53
598.841	25525.37
599.038	25525.37
599.234	25754.74
599.431	25353.34
599.627	25232.51
599.824	25422.97
600.02	24941.7
600.217	25019.52
600.413	24816.77
600.609	24913.03
600.806	24804.49
601.002	24765.57
601.198	24593.54
601.395	24599.69
601.591	24632.46
601.787	24419.47
601.984	24304.78
602.18	24265.87
602.376	24372.36
602.572	24147.09
602.769	23962.77
602.965	23907.48
603.161	23745.69
603.357	23870.61
603.553	23889.04
603.75	23735.45
603.946	23569.56
604.142	23542.94
604.338	23233.69
604.534	23526.55
604.73	22895.78
604.926	23260.32
605.122	23329.95
605.318	22582.44
605.514	22942.88
605.71	22813.86
605.906	23145.63
606.102	23049.38
606.298	22934.69
606.494	22926.5
606.69	22428.84
606.886	22500.52
607.082	22277.29
607.278	22840.48
607.474	22293.68
607.67	22475.95
607.866	22144.17
608.062	22549.67
608.257	22371.5
608.453	22271.15
608.649	22205.61
608.845	21900.47
609.041	22240.43
609.236	21976.24
609.432	22013.1
609.628	21986.48
609.824	21783.73
610.019	21648.57
610.215	21664.95
610.411	21767.35
610.606	21464.25
610.802	21484.73
610.998	21820.6
611.193	21722.29
611.389	21335.23
611.584	21284.03
611.78	21060.8
611.976	21095.61
612.171	21208.25
612.367	21187.77
612.562	21109.95
612.758	20819.14
612.953	20989.12
613.149	21236.92
613.344	20677.83
613.539	20788.42
613.735	20884.67
613.93	20909.25
614.126	20753.6
614.321	20683.97
614.517	20729.03
614.712	20655.3
614.907	20407.5
615.103	20933.82
615.298	20251.85
615.493	20686.02
615.688	20407.5
615.884	20669.64
616.079	20190.41
616.274	20384.97
616.47	20200.65
616.665	20198.6
616.86	19958.99
617.055	20038.86
617.25	19975.38
617.445	20344.01
617.641	19899.6
617.836	19887.31
618.031	19694.8
618.226	19780.82
618.421	19616.98
618.616	19459.29
618.811	19463.38
619.006	19922.13
619.201	19234.01
619.396	19338.46
619.591	19102.94
619.786	19315.93
619.981	18744.55
620.176	19100.89
620.371	18779.36
620.566	18724.07
620.761	18633.96
620.956	18853.09
621.151	18504.93
621.346	18554.08
621.541	18253.03
621.735	18523.37
621.93	18054.38
622.125	18306.28
622.32	18089.2
622.515	17966.32
622.709	17863.92
622.904	17835.25
623.099	17788.14
623.294	17812.72
623.488	17261.82
623.683	17370.36
623.878	17278.2
624.072	17370.36
624.267	17190.14
624.462	17194.23
624.656	16995.58
624.851	16868.61
625.046	16921.85
625.24	16819.46
625.435	16676.1
625.629	16774.4
625.824	16631.04
626.018	16272.65
626.213	15992.08
626.407	16282.89
626.602	15940.88
626.796	16033.04
626.991	15951.12
627.185	15871.25
627.38	15680.78
627.574	15811.85
627.768	15670.54
627.963	15559.95
628.157	15443.22
628.352	15484.18
628.546	15176.98
628.74	15275.29
628.935	15056.15
629.129	15105.31
629.323	14990.62
629.517	14791.97
629.712	14689.57
629.906	14908.7
630.1	14585.12
630.294	14382.37
630.489	14501.15
630.683	14564.64
630.877	14464.29
631.071	14206.25
631.265	14359.84
631.459	13976.87
631.653	13931.82
631.848	14116.14
632.042	14042.41
632.236	13886.76
632.43	13714.73
632.624	13706.54
632.818	13530.42
633.012	13499.7
633.206	13450.55
633.4	13477.17
633.594	13264.18
633.788	13397.3
633.982	13288.76
634.176	13151.54
634.369	12948.79
634.563	13030.71
634.757	12715.33
634.951	13090.1
635.145	12748.09
635.339	12731.71
635.533	12674.37
635.726	12498.24
635.92	12406.08
636.114	12326.21
636.308	12336.45
636.501	12289.35
636.695	12315.97
636.889	12430.66
637.083	12174.66
637.276	11881.8
637.47	11900.23
637.664	11830.6
637.857	11945.29
638.051	11877.71
638.244	11617.61
638.438	11732.3
638.632	11550.03
638.825	11455.83
639.019	11527.5
639.212	11408.72
639.406	11593.04
639.599	11089.24
639.793	11248.98
639.986	11050.33
640.18	11175.25
640.373	10978.65
640.567	10892.63
640.76	11011.42
640.954	10753.37
641.147	10812.76
641.34	10749.28
641.534	10825.05
641.727	10763.61
641.92	10675.55
642.114	10466.66
642.307	10429.79
642.5	10589.53
642.694	10216.8
642.887	10245.48
643.08	10286.44
643.273	10179.94
643.467	10143.08
643.66	9989.48
643.853	9923.94
644.046	9878.89
644.239	9725.29
644.432	9774.44
644.626	9512.3
644.819	9751.92
645.012	9774.44
645.205	9522.54
645.398	9457.01
645.591	9231.73
645.784	9495.92
645.977	9342.32
646.17	9266.55
646.363	9350.51
646.556	9088.37
646.749	9168.24
646.942	9143.67
647.135	9272.69
647.328	9020.79
647.521	8906.1
647.714	8818.04
647.907	8934.78
648.099	8680.83
648.292	8813.95
648.485	8476.03
648.678	8549.76
648.871	8611.2
649.064	8574.33
649.256	8525.18
649.449	8412.54
649.642	8377.73
649.835	8304
650.027	8381.82
650.22	8234.37
650.413	8127.88
650.605	8177.03
650.798	8123.78
650.991	7916.94
651.183	8045.96
651.376	7953.8
651.568	8082.82
651.761	7830.92
651.954	8011.14
652.146	7968.13
652.339	7677.32
652.531	7873.93
652.724	7738.76
652.916	7636.36
653.109	7456.14
653.301	7525.77
653.494	7587.21
653.686	7366.03
653.879	7292.3
654.071	7398.8
654.263	7153.04
654.456	7107.99
654.648	7202.19
654.84	7282.06
655.033	7259.54
655.225	7234.96
655.417	7056.79
655.61	7136.66
655.802	7079.32
655.994	7095.7
656.186	6933.91
656.379	6976.92
656.571	6835.61
656.763	6802.84
656.955	6747.55
657.148	6712.73
657.34	6612.38
657.532	6653.34
657.724	6704.54
657.916	6575.52
658.108	6389.15
658.3	6647.19
658.492	6423.97
658.684	6419.87
658.876	6288.8
659.068	6284.7
659.26	6198.69
659.452	6188.45
659.644	6235.55
659.836	6036.9
660.028	6124.96
660.22	6020.52
660.412	6108.58
660.604	6071.72
660.796	6036.9
660.988	5940.65
661.18	5965.22
661.372	5871.01
661.563	5787.05
661.755	5768.62
661.947	5815.72
662.139	5672.36
662.331	5756.33
662.522	5735.85
662.714	5580.2
662.906	5651.88
663.097	5522.86
663.289	5369.26
663.481	5281.2
663.673	5391.79
663.864	5399.98
664.056	5457.32
664.247	5342.64
664.439	5094.83
664.631	5309.87
664.822	5344.69
665.014	5080.5
665.205	5170.61
665.397	4957.62
665.588	5053.87
665.78	5004.72
665.971	5014.96
666.163	4998.58
666.354	5027.25
666.546	4810.17
666.737	4879.8
666.929	4877.75
667.12	4810.17
667.311	4926.9
667.503	4761.02
667.694	4761.02
667.885	4781.5
668.077	4804.02
668.268	4638.14
668.459	4779.45
668.651	4482.49
668.842	4572.6
669.033	4500.92
669.224	4578.75
669.416	4672.95
669.607	4531.64
669.798	4421.05
669.989	4408.76
670.18	4345.28
670.371	4410.81
670.563	4330.94
670.754	4316.61
670.945	4269.5
671.136	4306.37
671.327	4302.27
671.518	4318.65
671.709	4400.57
671.9	4242.88
672.091	4163.01
672.282	4220.35
672.473	4109.76
672.664	4212.16
672.855	4001.22
673.046	4060.61
673.237	4130.24
673.428	4132.29
673.619	4083.14
673.809	4031.94
674	4021.7
674.191	4101.57
674.382	3964.36
674.573	3861.96
674.764	3982.79
674.954	3990.98
675.145	3814.85
675.336	3886.53
675.527	3954.12
675.717	3823.05
675.908	3663.3
676.099	3909.06
676.289	3866.05
676.48	3802.57
676.671	3780.04
676.861	3845.57
677.052	3741.13
677.243	3827.14
677.433	3601.87
677.624	3753.41
677.814	3687.88
678.005	3712.46
678.195	3667.4
678.386	3632.58
678.576	3540.43
678.767	3581.39
678.957	3573.19
679.148	3698.12
679.338	3829.19
679.529	3474.89
679.719	3474.89
679.909	3620.3
680.1	3597.77
680.29	3560.91
680.481	3577.29
680.671	3614.15
680.861	3505.61
681.052	3509.71
681.242	3335.63
681.432	3481.03
681.622	3491.27
681.813	3372.49
682.003	3552.71
682.193	3362.25
682.383	3376.59
682.573	3458.51
682.764	3442.12
682.954	3302.86
683.144	3378.64
683.334	3341.77
683.524	3435.98
683.714	3313.1
683.904	3290.57
684.094	3372.49
684.284	3507.66
684.474	3435.98
684.664	3286.48
684.854	3302.86
685.044	3409.36
685.234	3182.03
685.424	3360.2
685.614	3327.44
685.804	3319.25
685.994	3263.95
686.184	3218.89
686.374	3337.68
686.564	3253.71
686.753	3173.84
686.943	3141.07
687.133	3126.74
687.323	3196.37
687.513	3206.61
687.702	3251.66
687.892	3237.33
688.082	3192.27
688.272	3247.57
688.461	3220.94
688.651	3126.74
688.841	3085.78
689.03	3155.41
689.22	3108.3
689.41	3048.91
689.599	3106.26
689.789	3048.91
689.979	3065.3
690.168	3012.05
690.358	3079.63
690.547	3075.54
690.737	3067.35
690.926	2999.76
691.116	3048.91
691.305	3096.02
691.495	3145.17
691.684	2928.08
691.874	2897.36
692.063	2872.79
692.252	3032.53
692.442	2895.32
692.631	2901.46
692.82	2895.32
693.01	2960.85
693.199	2917.84
693.388	2852.31
693.578	2975.19
693.767	3016.15
693.956	2848.21
694.146	2917.84
694.335	2905.56
694.524	2911.7
694.713	2930.13
694.902	2721.24
695.092	2911.7
695.281	2840.02
695.47	2803.16
695.659	2674.14
695.848	2713.05
696.037	2803.16
696.226	2938.32
696.415	2917.84
696.604	2895.32
696.793	2829.78
696.982	2895.32
697.171	2786.77
697.36	2758.1
697.549	2698.71
697.738	2811.35
697.927	2700.76
698.116	2698.71
698.305	2731.48
698.494	2825.68
698.683	2868.69
698.872	2827.73
699.061	2573.78
699.25	2698.71
699.438	2803.16
699.627	2557.4
699.816	2635.22
700.005	2686.42
700.193	2686.42
700.382	2676.18
700.571	2657.75
700.76	2635.22
700.948	2692.57
701.137	2624.98
701.326	2698.71
701.514	2614.74
701.703	2749.91
701.892	2622.94
702.08	2631.13
702.269	2467.29
702.457	2510.3
702.646	2635.22
702.834	2487.77
703.023	2602.46
703.212	2506.2
703.4	2622.94
703.589	2534.87
703.777	2467.29
703.965	2434.52
704.154	2541.02
704.342	2590.17
704.531	2594.26
704.719	2471.39
704.907	2481.63
705.096	2448.86
705.284	2393.56
705.472	2430.43
705.661	2493.91
705.849	2549.21
706.037	2530.78
706.226	2336.22
706.414	2465.24
706.602	2387.42
706.79	2565.59
706.979	2418.14
707.167	2364.89
707.355	2307.55
707.543	2385.37
707.731	2436.57
707.919	2381.28
708.107	2401.76
708.296	2446.81
708.484	2371.04
708.672	2467.29
708.86	2356.7
709.048	2368.99
709.236	2389.47
709.424	2448.86
709.612	2477.53
709.8	2428.38
709.988	2262.49
710.176	2362.84
710.364	2239.97
710.551	2295.26
710.739	2299.36
710.927	2319.84
711.115	2391.52
711.303	2221.53
711.491	2360.8
711.679	2190.81
711.866	2229.73
712.054	2305.5
712.242	2184.67
712.43	2119.14
712.617	2196.96
712.805	2244.06
712.993	2315.74
713.181	2096.61
713.368	2119.14
713.556	2201.05
713.744	2190.81
713.931	2303.45
714.119	2094.56
714.306	2096.61
714.494	2166.24
714.682	2160.1
714.869	2207.2
715.057	2199.01
715.244	2119.14
715.432	2250.21
715.619	2131.42
715.807	2100.7
715.994	2047.46
716.182	2121.18
716.369	2090.46
716.556	2106.85
716.744	1949.15
716.931	2135.52
717.119	2018.79
717.306	2149.86
717.493	2069.98
717.681	2106.85
717.868	2102.75
718.055	1947.11
718.242	2080.22
718.43	1983.97
718.617	2102.75
718.804	2035.17
718.991	2117.09
719.179	2049.5
719.366	2000.35
719.553	2088.42
719.74	2078.18
719.927	2051.55
720.114	1983.97
720.301	1965.54
720.488	1992.16
720.676	1934.82
720.863	2043.36
721.05	2041.31
721.237	1967.59
721.424	2033.12
721.611	1914.34
721.798	1920.48
721.985	1906.15
722.172	1885.67
722.358	1926.63
722.545	1838.56
722.732	1959.39
722.919	1936.87
723.106	1889.76
723.293	1945.06
723.48	1910.24
723.667	1830.37
723.853	1875.43
724.04	1906.15
724.227	1920.48
724.414	1816.04
724.6	1813.99
724.787	1824.23
724.974	1844.71
725.161	1820.13
725.347	1885.67
725.534	1828.32
725.72	1930.72
725.907	1787.36
726.094	1893.86
726.28	1836.52
726.467	1807.84
726.653	1754.6
726.84	1834.47
727.027	1945.06
727.213	1797.6
727.4	1787.36
727.586	1887.72
727.773	1857
727.959	1813.99
728.145	1787.36
728.332	1701.35
728.518	1762.79
728.705	1738.21
728.891	1750.5
729.077	1828.32
729.264	1762.79
729.45	1734.12
729.636	1803.75
729.823	1789.41
730.009	1623.53
730.195	1813.99
730.382	1797.6
730.568	1717.73
730.754	1721.83
730.94	1697.25
731.126	1791.46
731.313	1601
731.499	1717.73
731.685	1631.72
731.871	1670.63
732.057	1701.35
732.243	1707.49
732.429	1723.88
732.615	1730.02
732.801	1789.41
732.987	1672.68
733.173	1598.95
733.359	1652.2
733.545	1748.45
733.731	1709.54
733.917	1711.59
734.103	1566.18
734.289	1590.76
734.475	1557.99
734.661	1713.64
734.847	1611.24
735.033	1682.92
735.219	1584.62
735.404	1668.58
735.59	1568.23
735.776	1478.12
735.962	1576.42
736.148	1598.95
736.333	1617.38
736.519	1672.68
736.705	1553.9
736.89	1549.8
737.076	1605.1
737.262	1533.42
737.447	1535.46
737.633	1502.7
737.819	1506.79
738.004	1568.23
738.19	1521.13
738.375	1496.55
738.561	1521.13
738.747	1615.34
738.932	1459.69
739.118	1639.91
739.303	1494.51
739.489	1467.88
739.674	1439.21
739.859	1486.31
740.045	1529.32
740.23	1410.54
740.416	1369.58
740.601	1512.94
740.786	1476.07
740.972	1471.98
741.157	1492.46
741.342	1480.17
741.528	1467.88
741.713	1418.73
741.898	1424.87
742.084	1455.59
742.269	1517.03
742.454	1394.15
742.639	1402.35
742.824	1404.39
743.01	1404.39
743.195	1312.24
743.38	1410.54
743.565	1345
743.75	1306.09
743.935	1422.83
744.12	1385.96
744.305	1398.25
744.49	1304.04
744.675	1369.58
744.86	1351.15
745.045	1371.63
745.23	1312.24
745.415	1275.37
745.6	1338.86
745.785	1381.87
745.97	1254.89
746.155	1236.46
746.34	1240.56
746.525	1193.45
746.71	1347.05
746.895	1283.56
747.079	1189.36
747.264	1283.56
747.449	1326.57
747.634	1138.16
747.819	1293.8
748.003	1244.65
748.188	1187.31
748.373	1136.11
748.557	1234.41
748.742	1234.41
748.927	1179.12
749.111	1119.73
749.296	1101.3
749.481	1181.17
749.665	1125.87
749.85	1060.34
750.034	1222.13
750.219	1181.17
750.404	1177.07
750.588	1136.11
750.773	1109.49
750.957	1175.02
751.141	1095.15
751.326	1136.11
751.51	1093.1
751.695	1084.91
751.879	1082.86
752.064	1132.01
752.248	1066.48
752.432	1109.49
752.617	970.23
752.801	1058.29
752.985	1017.33
753.17	1013.23
753.354	1066.48
753.538	994.8
753.722	996.85
753.907	959.99
754.091	910.83
754.275	994.8
754.459	955.89
754.643	1019.38
754.828	1078.77
755.012	921.07
755.196	957.94
755.38	919.03
755.564	919.03
755.748	968.18
755.932	992.75
756.116	1025.52
756.3	939.51
756.484	910.83
756.668	931.31
756.852	919.03
757.036	898.55
757.22	890.35
757.404	777.72
757.588	902.64
757.772	886.26
757.956	929.27
758.14	902.64
758.323	796.15
758.507	847.35
758.691	828.92
758.875	830.96
759.059	847.35
759.242	814.58
759.426	861.68
759.61	845.3
759.794	779.76
759.977	775.67
760.161	853.49
760.345	730.61
760.528	806.39
760.712	757.24
760.895	814.58
761.079	747
761.263	790
761.446	718.33
761.63	771.57
761.813	826.87
761.997	796.15
762.18	796.15
762.364	798.2
762.547	710.13
762.731	790
762.914	814.58
763.098	757.24
763.281	818.68
763.464	755.19
763.648	808.44
763.831	675.32
764.015	695.8
764.198	710.13
764.381	722.42
764.564	697.85
764.748	726.52
764.931	615.93
765.114	615.93
765.297	669.17
765.481	712.18
765.664	726.52
765.847	681.46
766.03	779.76
766.213	691.7
766.397	650.74
766.58	699.89
766.763	652.79
766.946	656.89
767.129	650.74
767.312	695.8
767.495	718.33
767.678	611.83
767.861	650.74
768.044	597.49
768.227	640.5
768.41	642.55
768.593	689.65
768.776	617.97
768.959	728.56
769.142	669.17
769.324	665.08
769.507	640.5
769.69	626.17
769.873	611.83
770.056	660.98
770.239	624.12
770.421	689.65
770.604	634.36
770.787	620.02
770.97	624.12
771.152	542.2
771.335	599.54
771.518	611.83
771.7	640.5
771.883	675.32
772.066	607.73
772.248	632.31
772.431	626.17
772.613	525.82
772.796	515.58
772.978	552.44
773.161	648.69
773.343	607.73
773.526	558.58
773.708	632.31
773.891	566.78
774.073	568.82
774.256	579.06
774.438	613.88
774.621	562.68
774.803	583.16
774.985	583.16
775.168	566.78
775.35	599.54
775.532	484.86
775.715	517.62
775.897	556.54
776.079	517.62
776.261	624.12
776.444	505.34
776.626	577.02
776.808	503.29
776.99	466.42
777.173	468.47
777.355	536.06
777.537	574.97
777.719	593.4
777.901	484.86
778.083	478.71
778.265	407.03
778.447	595.45
778.629	507.38
778.811	497.14
778.993	525.82
779.175	511.48
779.357	398.84
779.539	431.61
779.721	478.71
779.903	421.37
780.085	388.6
780.267	468.47
780.449	511.48
780.631	486.9
780.812	464.38
780.994	478.71
781.176	456.19
781.358	470.52
781.54	374.27
781.721	437.75
781.903	409.08
782.085	437.75
782.267	404.99
782.448	505.34
782.63	372.22
782.812	378.36
782.993	443.9
783.175	427.51
783.357	400.89
783.538	437.75
783.72	394.75
783.901	333.31
784.083	419.32
784.264	396.79
784.446	364.03
784.627	394.75
784.809	370.17
784.99	411.13
785.172	361.98
785.353	361.98
785.535	329.21
785.716	353.79
785.897	265.72
786.079	370.17
786.26	380.41
786.441	386.55
786.623	380.41
786.804	312.83
786.985	339.45
787.167	337.4
787.348	273.92
787.529	355.83
787.71	447.99
787.891	288.25
788.073	206.33
788.254	290.3
788.435	368.12
788.616	361.98
788.797	296.44
788.978	308.73
789.159	353.79
789.34	353.79
789.522	349.69
789.703	310.78
789.884	280.06
790.065	284.16
790.246	378.36
790.427	235
790.607	323.07
790.788	296.44
790.969	267.77
791.15	296.44
791.331	280.06
791.512	257.53
791.693	183.81
791.874	255.48
792.054	398.84
792.235	402.94
792.416	202.24
792.597	284.16
792.778	292.35
792.958	216.57
793.139	273.92
793.32	271.87
793.5	273.92
793.681	304.64
793.862	275.96
794.042	296.44
794.223	210.43
794.404	284.16
794.584	235
794.765	284.16
794.945	263.68
795.126	278.01
795.306	290.3
795.487	202.24
795.667	183.81
795.848	230.91
796.028	257.53
796.209	273.92
796.389	259.58
796.57	300.54
796.75	253.44
796.93	218.62
797.111	263.68
797.291	181.76
797.471	273.92
797.652	212.48
797.832	216.57
798.012	331.26
798.192	210.43
798.373	161.28
798.553	185.85
798.733	226.81
798.913	259.58
799.093	241.15
799.274	218.62
799.454	214.52
799.634	267.77
799.814	165.37
799.994	263.68
800.174	275.96
800.354	214.52
800.534	222.72
800.714	148.99
800.894	228.86
801.074	171.52
801.254	159.23
801.434	280.06
801.614	161.28
801.794	216.57
801.974	773.62
802.154	200.19
802.334	249.34
802.514	192
802.693	146.94
802.873	255.48
803.053	206.33
803.233	198.14
803.413	204.28
803.592	243.2
803.772	185.85
803.952	214.52
804.131	151.04
804.311	194.05
804.491	189.95
804.67	216.57
804.85	189.95
805.03	243.2
805.209	232.96
805.389	93.69
805.568	159.23
805.748	169.47
805.928	157.18
806.107	173.57
806.287	169.47
806.466	243.2
806.646	216.57
806.825	71.17
807.004	124.41
807.184	161.28
807.363	232.96
807.543	222.72
807.722	192
807.901	202.24
808.081	181.76
808.26	89.6
808.439	171.52
808.619	198.14
808.798	239.1
808.977	159.23
809.156	247.29
809.336	181.76
809.515	230.91
809.694	157.18
809.873	148.99
810.052	148.99
810.231	198.14
810.411	230.91
810.59	116.22
810.769	140.8
810.948	151.04
811.127	48.64
811.306	148.99
811.485	116.22
811.664	208.38
811.843	134.65
812.022	140.8
812.201	132.61
812.38	120.32
812.559	95.74
812.737	208.38
812.916	81.41
813.095	50.69
813.274	99.84
813.453	108.03
813.632	132.61
813.811	255.48
813.989	144.89
814.168	198.14
814.347	157.18
814.526	134.65
814.704	173.57
814.883	206.33
815.062	128.51
815.24	148.99
815.419	120.32
815.598	194.05
815.776	67.07
815.955	124.41
816.133	93.69
816.312	132.61
816.49	93.69
816.669	144.89
816.847	169.47
817.026	153.09
817.204	165.37
817.383	77.31
817.561	118.27
817.74	189.95
817.918	108.03
818.097	181.76
818.275	169.47
818.453	71.17
818.632	124.41
818.81	60.93
818.988	169.47
819.167	91.65
819.345	159.23
819.523	148.99
819.701	132.61
819.879	124.41
820.058	71.17
820.236	140.8
820.414	110.08
820.592	101.89
820.77	99.84
820.948	132.61
821.127	67.07
821.305	157.18
821.483	89.6
821.661	124.41
821.839	124.41
822.017	116.22
822.195	91.65
822.373	224.76
822.551	99.84
822.729	112.13
822.907	169.47
823.085	52.74
823.262	91.65
823.44	71.17
823.618	165.37
823.796	169.47
823.974	69.12
824.152	79.36
824.329	-37.38
824.507	120.32
824.685	85.5
824.863	140.8
825.04	122.37
825.218	167.42
825.396	136.7
825.574	192
825.751	93.69
825.929	140.8
826.107	89.6
826.284	142.85
826.462	62.98
826.639	56.83
826.817	87.55
826.994	120.32
827.172	44.54
827.349	91.65
827.527	46.59
827.704	110.08
827.882	83.45
828.059	177.66
828.237	89.6
828.414	91.65
828.591	75.26
828.769	144.89
828.946	46.59
829.124	83.45
829.301	118.27
829.478	71.17
829.655	126.46
829.833	75.26
830.01	116.22
830.187	124.41
830.364	93.69
830.542	171.52
830.719	97.79
830.896	54.78
831.073	126.46
831.25	118.27
831.427	167.42
831.604	81.41
831.782	99.84
831.959	95.74
832.136	81.41
832.313	110.08
832.49	77.31
832.667	83.45
832.844	97.79
833.021	101.89
833.198	34.3
833.374	36.35
833.551	85.5
833.728	28.16
833.905	46.59
834.082	42.5
834.259	48.64
834.436	134.65
834.612	60.93
834.789	175.61
834.966	124.41
835.143	89.6
835.319	46.59
835.496	116.22
835.673	50.69
835.85	130.56
836.026	-2.56
836.203	148.99
836.38	46.59
836.556	50.69
836.733	50.69
836.909	110.08
837.086	87.55
837.262	83.45
837.439	58.88
837.616	42.5
837.792	46.59
837.968	58.88
838.145	75.26
838.321	69.12
838.498	132.61
838.674	65.02
838.851	116.22
839.027	36.35
839.203	-27.14
839.38	148.99
839.556	62.98
839.732	116.22
839.909	67.07
840.085	91.65
840.261	103.93
840.437	58.88
840.614	1.54
840.79	116.22
840.966	75.26
841.142	42.5
841.318	71.17
841.494	87.55
841.671	83.45
841.847	67.07
842.023	11.78
842.199	151.04
842.375	58.88
842.551	19.97
842.727	9.73
842.903	60.93
843.079	77.31
843.255	91.65
843.431	87.55
843.607	67.07
843.783	46.59
843.959	95.74
844.134	65.02
844.31	192
844.486	28.16
844.662	91.65
844.838	83.45
845.013	95.74
845.189	81.41
845.365	44.54
845.541	112.13
845.716	91.65
845.892	132.61
846.068	60.93
846.244	103.93
846.419	103.93
846.595	44.54
846.77	52.74
846.946	44.54
847.122	65.02
847.297	-6.66
847.473	67.07
847.648	75.26
847.824	124.41
847.999	19.97
848.175	34.3
848.35	46.59
848.526	157.18
848.701	48.64
848.876	36.35
849.052	85.5
849.227	95.74
849.403	42.5
849.578	1.54
849.753	69.12
849.929	56.83
850.104	48.64
850.279	5.63
850.454	67.07
850.63	1.54
850.805	83.45
850.98	157.18
851.155	132.61
851.33	36.35
851.505	11.78
851.681	73.21
851.856	85.5
852.031	62.98
852.206	116.22
852.381	77.31
852.556	83.45
852.731	85.5
852.906	26.11
853.081	34.3
853.256	99.84
853.431	34.3
853.606	3.58
853.781	58.88
853.956	24.06
854.131	28.16
854.305	58.88
854.48	91.65
854.655	-4.61
854.83	36.35
855.005	34.3
855.18	34.3
855.354	11.78
855.529	75.26
855.704	-0.51
855.879	46.59
856.053	-29.18
856.228	75.26
856.403	-2.56
856.577	17.92
856.752	-33.28
856.926	26.11
857.101	-0.51
857.276	42.5
857.45	124.41
857.625	77.31
857.799	40.45
857.974	28.16
858.148	22.02
858.323	67.07
858.497	1.54
858.672	24.06
858.846	36.35
859.02	48.64
859.195	44.54
859.369	-4.61
859.543	67.07
859.718	19.97
859.892	38.4
860.066	3.58
860.241	40.45
860.415	17.92
860.589	56.83
860.763	52.74
860.938	34.3
861.112	99.84
861.286	1.54
861.46	83.45
861.634	13.82
861.808	26.11
861.982	34.3
862.157	9.73
862.331	42.5
862.505	44.54
862.679	28.16
862.853	-25.09
863.027	-12.8
863.201	95.74
863.375	34.3
863.549	54.78
863.722	50.69
863.896	108.03
864.07	58.88
864.244	36.35
864.418	105.98
864.592	58.88
864.766	5.63
864.939	52.74
865.113	50.69
865.287	99.84
865.461	42.5
865.634	-2.56
865.808	32.26
865.982	99.84
866.156	9.73
866.329	5.63
866.503	75.26
866.676	108.03
866.85	9.73
867.024	38.4
867.197	34.3
867.371	42.5
867.544	3.58
867.718	3.58
867.891	50.69
868.065	-31.23
868.238	17.92
868.412	28.16
868.585	120.32
868.759	95.74
868.932	32.26
869.105	3.58
869.279	-10.75
869.452	-68.09
869.625	26.11
869.799	34.3
869.972	9.73
870.145	19.97
870.319	67.07
870.492	22.02
870.665	54.78
870.838	17.92
871.011	79.36
871.185	11.78
871.358	22.02
871.531	58.88
871.704	28.16
871.877	101.89
872.05	32.26
872.223	-23.04
872.396	58.88
872.569	83.45
872.742	5.63
872.915	91.65
873.088	-23.04
873.261	54.78
873.434	75.26
873.607	69.12
873.78	34.3
873.953	-2.56
874.126	40.45
874.299	22.02
874.471	42.5
874.644	50.69
874.817	54.78
874.99	132.61
875.163	-51.71
875.335	71.17
875.508	34.3
875.681	52.74
875.853	71.17
876.026	93.69
876.199	-10.75
876.371	11.78
876.544	-10.75
876.717	132.61
876.889	24.06
877.062	46.59
877.234	26.11
877.407	-4.61
877.579	46.59
877.752	13.82
877.924	52.74
878.097	52.74
878.269	17.92
878.442	26.11
878.614	17.92
878.786	69.12
878.959	58.88
879.131	62.98
879.303	17.92
879.476	91.65
879.648	99.84
879.82	116.22
879.993	69.12
880.165	17.92
880.337	-31.23
880.509	28.16
880.681	26.11
880.854	9.73
881.026	50.69
881.198	118.27
881.37	26.11
881.542	77.31
881.714	26.11
881.886	58.88
882.058	3.58
882.23	75.26
882.402	-10.75
882.574	79.36
882.746	-8.7
882.918	67.07
883.09	40.45
883.262	3.58
883.434	93.69
883.606	-14.85
883.778	13.82
883.95	52.74
884.122	-16.9
884.293	124.41
884.465	15.87
884.637	81.41
884.809	-4.61
884.98	77.31
885.152	11.78
885.324	48.64
885.496	5.63
885.667	67.07
885.839	9.73
886.011	40.45
886.182	9.73
886.354	54.78
886.525	1.54
886.697	85.5
886.869	50.69
887.04	42.5
887.212	134.65
887.383	60.93
887.555	9.73
887.726	50.69
887.897	54.78
888.069	42.5
888.24	32.26
888.412	52.74
888.583	46.59
888.754	15.87
888.926	1.54
889.097	42.5
889.268	67.07
889.44	46.59
889.611	-57.86
889.782	38.4
889.953	-8.7
890.125	85.5
890.296	-23.04
890.467	50.69
890.638	9.73
890.809	-29.18
890.98	-0.51
891.151	40.45
891.323	3.58
891.494	19.97
891.665	13.82
891.836	52.74
892.007	11.78
892.178	13.82
892.349	67.07
892.52	1.54
892.691	38.4
892.862	22.02
893.032	52.74
893.203	-59.9
893.374	-10.75
893.545	40.45
893.716	11.78
893.887	91.65
894.057	-27.14
894.228	67.07
894.399	26.11
894.57	42.5
894.74	30.21
894.911	38.4
895.082	42.5
895.253	58.88
895.423	60.93
895.594	71.17
895.764	17.92
895.935	-4.61
896.106	54.78
896.276	32.26
896.447	50.69
896.617	11.78
896.788	42.5
896.958	50.69
897.129	36.35
897.299	15.87
897.47	73.21
897.64	-4.61
897.81	38.4
897.981	-12.8
898.151	9.73
898.322	60.93
898.492	50.69
898.662	9.73
898.832	19.97
899.003	91.65
899.173	-4.61
899.343	26.11
899.513	19.97
