Data from USB4F104151__63__14-43-14-979.txt Node

Date: Thu Mar 13 14:43:14 EDT 2025
User: louis
Spectrometer: USB4F10415
Trigger mode: 4
Integration Time (sec): 2.000000E-2
Scans to average: 1
Electric dark correction enabled: true
Nonlinearity correction enabled: false
Boxcar width: 0
XAxis mode: Wavelengths
Number of Pixels in Spectrum: 3648
>>>>>Begin Spectral Data<<<<<
178.204	-133.29
178.424	-133.29
178.644	-133.29
178.864	-129.19
179.084	-90.28
179.304	-59.56
179.524	14.17
179.744	-6.31
179.964	30.55
180.184	-47.27
180.404	71.51
180.624	-16.55
180.844	5.97
181.064	-47.27
181.283	63.32
181.503	-18.6
181.723	10.07
181.943	48.98
182.163	63.32
182.383	30.55
182.602	5.97
182.822	38.74
183.042	57.17
183.262	-6.31
183.482	-26.79
183.701	-16.55
183.921	1.88
184.141	-59.56
184.361	96.08
184.58	-8.36
184.8	30.55
185.02	40.79
185.239	36.69
185.459	55.12
185.679	26.45
185.898	38.74
186.118	55.12
186.338	51.03
186.557	51.03
186.777	24.4
186.997	63.32
187.216	-6.31
187.436	24.4
187.655	-14.51
187.875	38.74
188.095	44.88
188.314	38.74
188.534	57.17
188.753	32.6
188.973	91.99
189.192	67.41
189.412	77.65
189.631	83.8
189.851	-6.31
190.07	63.32
190.29	-16.55
190.509	5.97
190.729	48.98
190.948	75.6
191.168	171.86
191.387	98.13
191.607	55.12
191.826	59.22
192.045	51.03
192.265	10.07
192.484	32.6
192.704	65.36
192.923	34.64
193.142	79.7
193.362	38.74
193.581	10.07
193.8	96.08
194.02	104.28
194.239	34.64
194.458	81.75
194.678	18.26
194.897	-16.55
195.116	22.36
195.335	24.4
195.555	57.17
195.774	57.17
195.993	91.99
196.212	71.51
196.432	8.02
196.651	8.02
196.87	57.17
197.089	87.89
197.308	96.08
197.528	65.36
197.747	-20.65
197.966	40.79
198.185	85.84
198.404	104.28
198.623	-18.6
198.842	46.93
199.062	34.64
199.281	28.5
199.5	40.79
199.719	30.55
199.938	-49.32
200.157	-8.36
200.376	75.6
200.595	42.84
200.814	100.18
201.033	79.7
201.252	5.97
201.471	38.74
201.69	59.22
201.909	8.02
202.128	83.8
202.347	32.6
202.566	14.17
202.785	81.75
203.004	46.93
203.223	112.47
203.442	-20.65
203.661	71.51
203.879	14.17
204.098	46.93
204.317	32.6
204.536	46.93
204.755	79.7
204.974	-0.17
205.193	1.88
205.411	32.6
205.63	8.02
205.849	46.93
206.068	-2.22
206.287	63.32
206.505	14.17
206.724	30.55
206.943	30.55
207.162	16.21
207.381	87.89
207.599	63.32
207.818	51.03
208.037	65.36
208.255	-2.22
208.474	14.17
208.693	16.21
208.911	22.36
209.13	55.12
209.349	59.22
209.567	-6.31
209.786	85.84
210.005	79.7
210.223	-14.51
210.442	12.12
210.661	30.55
210.879	83.8
211.098	59.22
211.316	71.51
211.535	120.66
211.753	3.93
211.972	38.74
212.191	79.7
212.409	-34.99
212.628	143.19
212.846	-2.22
213.065	18.26
213.283	65.36
213.502	20.31
213.72	10.07
213.938	30.55
214.157	91.99
214.375	137.04
214.594	-10.41
214.812	28.5
215.031	137.04
215.249	89.94
215.467	-14.51
215.686	24.4
215.904	71.51
216.122	28.5
216.341	71.51
216.559	30.55
216.778	71.51
216.996	18.26
217.214	87.89
217.432	-0.17
217.651	32.6
217.869	89.94
218.087	26.45
218.306	5.97
218.524	96.08
218.742	14.17
218.96	65.36
219.179	87.89
219.397	10.07
219.615	149.33
219.833	112.47
220.051	12.12
220.27	87.89
220.488	-0.17
220.706	57.17
220.924	87.89
221.142	130.9
221.36	22.36
221.578	79.7
221.796	57.17
222.015	-82.09
222.233	-20.65
222.451	145.24
222.669	-32.94
222.887	26.45
223.105	24.4
223.323	-10.41
223.541	96.08
223.759	-0.17
223.977	-18.6
224.195	38.74
224.413	91.99
224.631	83.8
224.849	38.74
225.067	163.67
225.285	-12.46
225.503	89.94
225.721	1.88
225.939	24.4
226.157	67.41
226.375	122.71
226.592	34.64
226.81	14.17
227.028	67.41
227.246	63.32
227.464	26.45
227.682	71.51
227.9	67.41
228.117	30.55
228.335	79.7
228.553	57.17
228.771	38.74
228.989	55.12
229.206	104.28
229.424	26.45
229.642	12.12
229.86	1.88
230.077	79.7
230.295	71.51
230.513	30.55
230.731	83.8
230.948	53.08
231.166	96.08
231.384	8.02
231.601	10.07
231.819	59.22
232.037	48.98
232.254	-8.36
232.472	10.07
232.689	22.36
232.907	48.98
233.125	32.6
233.342	22.36
233.56	-2.22
233.777	28.5
233.995	91.99
234.213	122.71
234.43	22.36
234.648	79.7
234.865	22.36
235.083	46.93
235.3	26.45
235.518	32.6
235.735	57.17
235.953	147.28
236.17	38.74
236.388	73.56
236.605	61.27
236.822	120.66
237.04	106.32
237.257	79.7
237.475	38.74
237.692	44.88
237.909	87.89
238.127	73.56
238.344	16.21
238.562	81.75
238.779	-32.94
238.996	124.76
239.214	-2.22
239.431	30.55
239.648	46.93
239.865	22.36
240.083	91.99
240.3	5.97
240.517	57.17
240.735	87.89
240.952	32.6
241.169	104.28
241.386	79.7
241.603	34.64
241.821	-2.22
242.038	73.56
242.255	-0.17
242.472	53.08
242.689	22.36
242.907	126.8
243.124	102.23
243.341	128.85
243.558	-63.66
243.775	-22.7
243.992	5.97
244.209	149.33
244.426	112.47
244.643	5.97
244.86	59.22
245.078	75.6
245.295	32.6
245.512	38.74
245.729	-4.27
245.946	83.8
246.163	-0.17
246.38	-8.36
246.597	-10.41
246.814	89.94
247.031	63.32
247.248	-14.51
247.464	14.17
247.681	38.74
247.898	36.69
248.115	1.88
248.332	79.7
248.549	112.47
248.766	83.8
248.983	96.08
249.2	83.8
249.417	128.85
249.633	38.74
249.85	55.12
250.067	38.74
250.284	5.97
250.501	57.17
250.717	55.12
250.934	10.07
251.151	26.45
251.368	-4.27
251.585	18.26
251.801	104.28
252.018	10.07
252.235	79.7
252.451	-24.75
252.668	96.08
252.885	85.84
253.102	-14.51
253.318	118.61
253.535	51.03
253.752	16.21
253.968	59.22
254.185	51.03
254.401	30.55
254.618	26.45
254.835	71.51
255.051	100.18
255.268	32.6
255.484	18.26
255.701	116.56
255.917	24.4
256.134	87.89
256.351	89.94
256.567	24.4
256.784	91.99
257	1.88
257.217	128.85
257.433	40.79
257.65	32.6
257.866	22.36
258.082	130.9
258.299	-43.18
258.515	79.7
258.732	34.64
258.948	16.21
259.165	71.51
259.381	1.88
259.597	42.84
259.814	38.74
260.03	-2.22
260.246	63.32
260.463	137.04
260.679	63.32
260.895	71.51
261.112	114.52
261.328	40.79
261.544	30.55
261.761	61.27
261.977	22.36
262.193	65.36
262.409	10.07
262.626	34.64
262.842	79.7
263.058	-34.99
263.274	169.81
263.49	30.55
263.707	71.51
263.923	46.93
264.139	48.98
264.355	55.12
264.571	59.22
264.787	-2.22
265.004	20.31
265.22	18.26
265.436	98.13
265.652	42.84
265.868	46.93
266.084	104.28
266.3	69.46
266.516	5.97
266.732	22.36
266.948	44.88
267.164	77.65
267.38	38.74
267.596	-18.6
267.812	94.04
268.028	12.12
268.244	65.36
268.46	44.88
268.676	14.17
268.892	61.27
269.108	-30.89
269.324	-43.18
269.54	55.12
269.756	73.56
269.972	51.03
270.188	22.36
270.403	30.55
270.619	55.12
270.835	79.7
271.051	79.7
271.267	63.32
271.483	79.7
271.698	-16.55
271.914	5.97
272.13	20.31
272.346	91.99
272.562	1.88
272.777	34.64
272.993	-55.47
273.209	46.93
273.425	-30.89
273.64	22.36
273.856	73.56
274.072	-16.55
274.287	42.84
274.503	55.12
274.719	38.74
274.934	42.84
275.15	18.26
275.366	-18.6
275.581	-6.31
275.797	36.69
276.012	10.07
276.228	-18.6
276.444	-16.55
276.659	46.93
276.875	42.84
277.09	46.93
277.306	-14.51
277.521	-2.22
277.737	63.32
277.952	30.55
278.168	34.64
278.383	34.64
278.599	96.08
278.814	-6.31
279.03	-0.17
279.245	48.98
279.461	10.07
279.676	42.84
279.892	8.02
280.107	-0.17
280.322	48.98
280.538	98.13
280.753	-6.31
280.969	26.45
281.184	16.21
281.399	100.18
281.615	30.55
281.83	73.56
282.045	-8.36
282.26	42.84
282.476	38.74
282.691	8.02
282.906	65.36
283.122	94.04
283.337	-39.08
283.552	94.04
283.767	30.55
283.983	-2.22
284.198	96.08
284.413	-4.27
284.628	5.97
284.843	46.93
285.058	94.04
285.274	73.56
285.489	69.46
285.704	87.89
285.919	-32.94
286.134	73.56
286.349	5.97
286.564	75.6
286.779	137.04
286.995	71.51
287.21	22.36
287.425	65.36
287.64	40.79
287.855	30.55
288.07	40.79
288.285	71.51
288.5	46.93
288.715	120.66
288.93	67.41
289.145	-16.55
289.36	48.98
289.575	5.97
289.79	71.51
290.004	63.32
290.219	91.99
290.434	69.46
290.649	12.12
290.864	24.4
291.079	34.64
291.294	73.56
291.509	46.93
291.724	14.17
291.938	46.93
292.153	55.12
292.368	71.51
292.583	89.94
292.798	59.22
293.012	89.94
293.227	-10.41
293.442	83.8
293.657	77.65
293.871	40.79
294.086	-6.31
294.301	79.7
294.516	69.46
294.73	-24.75
294.945	30.55
295.16	32.6
295.374	147.28
295.589	75.6
295.804	30.55
296.018	-51.37
296.233	55.12
296.447	-0.17
296.662	67.41
296.877	46.93
297.091	100.18
297.306	63.32
297.52	-37.03
297.735	5.97
297.949	18.26
298.164	120.66
298.378	104.28
298.593	32.6
298.807	38.74
299.022	79.7
299.236	91.99
299.451	46.93
299.665	75.6
299.88	67.41
300.094	40.79
300.309	16.21
300.523	67.41
300.737	26.45
300.952	77.65
301.166	55.12
301.381	-18.6
301.595	1.88
301.809	38.74
302.024	-8.36
302.238	5.97
302.452	112.47
302.667	63.32
302.881	53.08
303.095	108.37
303.309	-0.17
303.524	91.99
303.738	10.07
303.952	-16.55
304.166	55.12
304.381	-41.13
304.595	120.66
304.809	48.98
305.023	71.51
305.237	44.88
305.452	22.36
305.666	81.75
305.88	63.32
306.094	71.51
306.308	38.74
306.522	34.64
306.736	42.84
306.95	28.5
307.164	22.36
307.379	-26.79
307.593	55.12
307.807	8.02
308.021	108.37
308.235	91.99
308.449	48.98
308.663	59.22
308.877	96.08
309.091	22.36
309.305	63.32
309.519	-32.94
309.733	63.32
309.947	-2.22
310.161	104.28
310.374	14.17
310.588	96.08
310.802	-0.17
311.016	5.97
311.23	75.6
311.444	16.21
311.658	-26.79
311.872	75.6
312.085	-14.51
312.299	96.08
312.513	-16.55
312.727	108.37
312.941	30.55
313.154	63.32
313.368	118.61
313.582	30.55
313.796	10.07
314.009	30.55
314.223	40.79
314.437	59.22
314.651	83.8
314.864	12.12
315.078	14.17
315.292	91.99
315.505	55.12
315.719	-41.13
315.933	67.41
316.146	-32.94
316.36	16.21
316.573	104.28
316.787	57.17
317.001	5.97
317.214	16.21
317.428	83.8
317.641	79.7
317.855	79.7
318.068	71.51
318.282	46.93
318.495	169.81
318.709	30.55
318.922	14.17
319.136	30.55
319.349	91.99
319.563	36.69
319.776	81.75
319.99	63.32
320.203	100.18
320.417	63.32
320.63	106.32
320.843	22.36
321.057	51.03
321.27	63.32
321.483	75.6
321.697	71.51
321.91	18.26
322.124	104.28
322.337	46.93
322.55	20.31
322.763	16.21
322.977	89.94
323.19	34.64
323.403	-0.17
323.617	36.69
323.83	14.17
324.043	61.27
324.256	71.51
324.469	1.88
324.683	89.94
324.896	-6.31
325.109	79.7
325.322	30.55
325.535	71.51
325.748	104.28
325.962	32.6
326.175	30.55
326.388	75.6
326.601	18.26
326.814	-18.6
327.027	14.17
327.24	1.88
327.453	8.02
327.666	38.74
327.879	30.55
328.092	1.88
328.305	71.51
328.518	32.6
328.731	14.17
328.944	40.79
329.157	16.21
329.37	85.84
329.583	112.47
329.796	91.99
330.009	61.27
330.222	51.03
330.435	81.75
330.648	38.74
330.861	20.31
331.073	-37.03
331.286	69.46
331.499	3.93
331.712	55.12
331.925	53.08
332.138	128.85
332.35	137.04
332.563	65.36
332.776	120.66
332.989	-10.41
333.202	89.94
333.414	75.6
333.627	59.22
333.84	1.88
334.053	44.88
334.265	-47.27
334.478	67.41
334.691	5.97
334.903	30.55
335.116	67.41
335.329	22.36
335.541	55.12
335.754	141.14
335.966	46.93
336.179	-0.17
336.392	51.03
336.604	22.36
336.817	38.74
337.029	55.12
337.242	14.17
337.454	8.02
337.667	22.36
337.88	51.03
338.092	5.97
338.305	87.89
338.517	8.02
338.729	34.64
338.942	55.12
339.154	71.51
339.367	24.4
339.579	55.12
339.792	61.27
340.004	77.65
340.217	16.21
340.429	91.99
340.641	5.97
340.854	114.52
341.066	8.02
341.278	38.74
341.491	153.43
341.703	89.94
341.915	10.07
342.128	122.71
342.34	81.75
342.552	71.51
342.764	20.31
342.977	89.94
343.189	-43.18
343.401	-4.27
343.613	48.98
343.826	12.12
344.038	5.97
344.25	61.27
344.462	57.17
344.674	22.36
344.886	1.88
345.099	106.32
345.311	98.13
345.523	137.04
345.735	-12.46
345.947	48.98
346.159	22.36
346.371	14.17
346.583	-34.99
346.795	128.85
347.007	18.26
347.219	79.7
347.431	55.12
347.643	67.41
347.855	40.79
348.067	46.93
348.279	-98.47
348.491	44.88
348.703	145.24
348.915	141.14
349.127	-22.7
349.339	30.55
349.551	14.17
349.763	94.04
349.975	44.88
350.187	44.88
350.399	100.18
350.61	79.7
350.822	32.6
351.034	16.21
351.246	89.94
351.458	171.86
351.669	30.55
351.881	26.45
352.093	104.28
352.305	139.09
352.517	-0.17
352.728	53.08
352.94	44.88
353.152	108.37
353.363	-20.65
353.575	26.45
353.787	108.37
353.999	22.36
354.21	59.22
354.422	63.32
354.633	145.24
354.845	16.21
355.057	67.41
355.268	16.21
355.48	110.42
355.692	63.32
355.903	32.6
356.115	63.32
356.326	26.45
356.538	153.43
356.749	34.64
356.961	14.17
357.172	120.66
357.384	63.32
357.595	94.04
357.807	-32.94
358.018	79.7
358.23	96.08
358.441	96.08
358.653	75.6
358.864	38.74
359.075	32.6
359.287	24.4
359.498	153.43
359.709	20.31
359.921	48.98
360.132	135
360.344	75.6
360.555	-22.7
360.766	87.89
360.977	-12.46
361.189	-16.55
361.4	30.55
361.611	122.71
361.823	59.22
362.034	57.17
362.245	-59.56
362.456	55.12
362.667	51.03
362.879	65.36
363.09	5.97
363.301	75.6
363.512	55.12
363.723	32.6
363.935	63.32
364.146	120.66
364.357	-75.95
364.568	73.56
364.779	30.55
364.99	81.75
365.201	46.93
365.412	110.42
365.623	-26.79
365.834	30.55
366.045	46.93
366.256	85.84
366.467	132.95
366.678	71.51
366.889	79.7
367.1	48.98
367.311	59.22
367.522	-6.31
367.733	112.47
367.944	40.79
368.155	73.56
368.366	34.64
368.577	87.89
368.788	59.22
368.999	24.4
369.209	55.12
369.42	63.32
369.631	112.47
369.842	102.23
370.053	63.32
370.264	-4.27
370.474	98.13
370.685	106.32
370.896	22.36
371.107	89.94
371.317	96.08
371.528	51.03
371.739	118.61
371.95	104.28
372.16	96.08
372.371	-16.55
372.582	59.22
372.792	79.7
373.003	34.64
373.214	42.84
373.424	79.7
373.635	46.93
373.846	169.81
374.056	30.55
374.267	96.08
374.477	116.56
374.688	65.36
374.898	38.74
375.109	55.12
375.319	5.97
375.53	71.51
375.74	46.93
375.951	1.88
376.161	71.51
376.372	81.75
376.582	32.6
376.793	14.17
377.003	79.7
377.214	36.69
377.424	38.74
377.635	63.32
377.845	71.51
378.055	114.52
378.266	-14.51
378.476	96.08
378.686	46.93
378.897	32.6
379.107	63.32
379.317	98.13
379.528	14.17
379.738	34.64
379.948	73.56
380.158	65.36
380.369	69.46
380.579	55.12
380.789	46.93
380.999	67.41
381.21	81.75
381.42	71.51
381.63	59.22
381.84	79.7
382.05	79.7
382.261	32.6
382.471	63.32
382.681	16.21
382.891	137.04
383.101	116.56
383.311	57.17
383.521	42.84
383.731	65.36
383.941	83.8
384.151	59.22
384.361	26.45
384.571	141.14
384.781	8.02
384.991	130.9
385.201	53.08
385.411	55.12
385.621	61.27
385.831	5.97
386.041	89.94
386.251	71.51
386.461	71.51
386.671	106.32
386.881	57.17
387.091	69.46
387.301	120.66
387.511	87.89
387.72	53.08
387.93	96.08
388.14	3.93
388.35	63.32
388.56	112.47
388.769	104.28
388.979	34.64
389.189	57.17
389.399	147.28
389.609	20.31
389.818	87.89
390.028	46.93
390.238	38.74
390.447	108.37
390.657	139.09
390.867	55.12
391.076	14.17
391.286	96.08
391.496	42.84
391.705	38.74
391.915	114.52
392.125	44.88
392.334	71.51
392.544	141.14
392.753	44.88
392.963	-34.99
393.172	114.52
393.382	100.18
393.591	46.93
393.801	22.36
394.01	63.32
394.22	53.08
394.429	128.85
394.639	106.32
394.848	36.69
395.058	55.12
395.267	108.37
395.477	114.52
395.686	79.7
395.895	155.47
396.105	145.24
396.314	55.12
396.524	165.71
396.733	87.89
396.942	194.39
397.152	83.8
397.361	165.71
397.57	91.99
397.78	8.02
397.989	73.56
398.198	161.62
398.407	85.84
398.617	128.85
398.826	79.7
399.035	-16.55
399.244	79.7
399.453	79.7
399.663	46.93
399.872	151.38
400.081	85.84
400.29	114.52
400.499	91.99
400.708	106.32
400.917	120.66
401.127	135
401.336	139.09
401.545	169.81
401.754	151.38
401.963	155.47
402.172	96.08
402.381	104.28
402.59	139.09
402.799	182.1
403.008	65.36
403.217	73.56
403.426	151.38
403.635	79.7
403.844	61.27
404.053	108.37
404.262	149.33
404.471	204.63
404.68	116.56
404.888	124.76
405.097	167.76
405.306	149.33
405.515	190.29
405.724	112.47
405.933	145.24
406.142	149.33
406.35	153.43
406.559	194.39
406.768	130.9
406.977	169.81
407.185	173.91
407.394	202.58
407.603	180.05
407.812	192.34
408.02	235.35
408.229	178
408.438	245.59
408.646	182.1
408.855	276.31
409.064	221.01
409.272	221.01
409.481	235.35
409.69	227.15
409.898	182.1
410.107	257.87
410.315	321.36
410.524	245.59
410.733	243.54
410.941	358.22
411.15	292.69
411.358	360.27
411.567	393.04
411.775	341.84
411.984	296.78
412.192	374.61
412.401	345.94
412.609	431.95
412.818	358.22
413.026	554.83
413.234	450.38
413.443	431.95
413.651	427.85
413.86	526.16
414.068	573.26
414.276	585.55
414.485	483.15
414.693	567.12
414.901	550.73
415.11	538.45
415.318	560.97
415.526	606.03
415.734	743.24
415.943	702.28
416.151	767.82
416.359	730.95
416.567	767.82
416.776	792.39
416.984	767.82
417.192	857.93
417.4	780.11
417.608	833.35
417.817	800.59
418.025	868.17
418.233	964.42
418.441	960.33
418.649	958.28
418.857	1054.53
419.065	1152.84
419.273	1058.63
419.481	1058.63
419.689	1101.64
419.897	1156.93
420.105	1167.17
420.313	1333.06
420.521	1351.49
420.729	1308.48
420.937	1410.88
421.145	1490.75
421.353	1492.8
421.561	1726.27
421.769	1625.92
421.977	1763.13
422.185	1701.69
422.393	1818.43
422.601	1828.67
422.809	1867.58
423.017	1900.34
423.224	1976.12
423.432	2049.85
423.64	1996.6
423.848	2211.64
424.056	2311.99
424.263	2406.19
424.471	2299.7
424.679	2377.52
424.887	2488.11
425.094	2441.01
425.302	2522.93
425.51	2731.82
425.718	2754.35
425.925	2746.16
426.133	2840.36
426.341	2959.14
426.548	3274.53
426.756	3198.76
426.964	3374.88
427.171	3391.27
427.379	3561.25
427.586	3561.25
427.794	3594.01
428.001	3770.14
428.209	3976.98
428.417	4017.94
428.624	4194.07
428.832	4218.64
429.039	4103.96
429.247	4151.06
429.454	4564.75
429.662	4863.76
429.869	4538.13
430.076	4710.16
430.284	4726.54
430.491	4978.44
430.699	5152.52
430.906	5197.57
431.114	5336.84
431.321	5259.01
431.528	5680.89
431.736	5877.5
431.943	6283
432.15	6110.97
432.358	6149.88
432.565	6524.66
432.772	6434.55
432.979	6674.16
433.187	6663.92
433.394	6790.89
433.601	7245.54
433.808	7405.28
434.016	7313.13
434.223	7632.61
434.43	8083.16
434.637	7726.82
434.844	8419.03
435.052	8754.9
435.259	8468.18
435.466	8654.55
435.673	8414.93
435.88	9166.54
436.087	9475.78
436.294	9285.32
436.501	9266.89
436.708	9428.68
436.915	9832.13
437.122	10360.5
437.329	10108.6
437.537	10522.29
437.743	10583.73
437.95	10587.83
438.157	11237.03
438.364	11370.15
438.571	11536.04
438.778	11597.48
438.985	12744.34
439.192	12136.09
439.399	12412.57
439.606	12322.46
439.813	12967.57
440.02	13729.41
440.227	13522.57
440.433	13272.71
440.64	13647.49
440.847	13590.15
441.054	14034.56
441.261	14900.85
441.467	14937.71
441.674	15124.08
441.881	15636.07
442.088	15482.47
442.294	15492.71
442.501	15761
442.708	15924.83
442.914	16821.84
443.121	17260.11
443.328	17018.45
443.534	18142.78
443.741	17620.55
443.948	17294.93
444.154	18875.96
444.361	18570.81
444.568	18906.68
444.774	18693.69
444.981	19078.71
445.187	19379.76
445.394	20387.36
445.6	20143.65
445.807	21927.43
446.013	20893.21
446.22	21345.81
446.426	22410.75
446.633	22437.37
446.839	23381.49
447.046	22246.91
447.252	23490.03
447.459	23121.4
447.665	23397.87
447.871	24327.65
448.078	25427.41
448.284	24053.22
448.491	24874.46
448.697	25865.67
448.903	26664.38
449.11	26217.93
449.316	25798.09
449.522	26516.93
449.728	27321.78
449.935	27334.07
450.141	27213.24
450.347	28196.26
450.553	27379.12
450.76	27633.07
450.966	28474.79
451.172	28161.45
451.378	28976.54
451.584	28409.25
451.791	28954.01
451.997	28949.92
452.203	29132.18
452.409	29635.99
452.615	29312.41
452.821	28335.52
453.027	27987.37
453.233	29629.84
453.44	28179.88
453.646	28900.76
453.852	29177.24
454.058	29408.66
454.264	28394.92
454.47	29250.97
454.676	28329.38
454.882	29619.6
455.088	26465.73
455.294	26942.91
455.5	27856.3
455.705	27950.51
455.911	26846.65
456.117	26201.54
456.323	26252.74
456.529	24837.59
456.735	25611.73
456.941	25353.68
457.147	24960.47
457.352	24120.81
457.558	23877.1
457.764	24079.85
457.97	23428.59
458.176	22697.47
458.381	22828.54
458.587	22140.42
458.793	21599.76
458.999	20653.59
459.204	22224.39
459.41	21726.73
459.616	20284.96
459.821	20237.86
460.027	20174.37
460.233	19920.42
460.438	18832.95
460.644	18976.31
460.85	17997.38
461.055	17845.83
461.261	17659.46
461.466	16359
461.672	15881.83
461.878	17268.3
462.083	15988.32
462.289	15761
462.494	15701.61
462.7	15074.93
462.905	14300.8
463.111	15308.4
463.316	14673.53
463.522	14622.33
463.727	14612.09
463.932	14595.7
464.138	14517.88
464.343	14712.44
464.549	14202.49
464.754	14472.82
464.959	14468.73
465.165	14096
465.37	13524.61
465.575	13528.71
465.781	13956.74
465.986	13997.7
466.191	13336.2
466.397	13164.17
466.602	12660.37
466.807	13221.52
467.012	12981.9
467.218	13010.57
467.423	12793.49
467.628	13033.1
467.833	13463.18
468.038	13000.33
468.244	12617.36
468.449	13080.21
468.654	12557.97
468.859	12541.59
469.064	12478.1
469.269	11904.67
469.474	12025.5
469.679	12349.08
469.885	12017.31
470.09	12197.53
470.295	12170.91
470.5	11884.19
470.705	11810.47
470.91	11746.98
471.115	11462.31
471.32	11640.48
471.525	11560.61
471.73	11271.85
471.935	11267.75
472.139	10903.21
472.344	11468.45
472.549	10895.02
472.754	10790.58
472.959	10565.3
473.164	10344.12
473.369	10329.78
473.574	10880.69
473.778	10378.93
473.983	10376.89
474.188	10417.85
474.393	9791.17
474.598	9959.1
474.802	9981.63
475.007	9860.8
475.212	9920.19
475.417	9522.88
475.621	9621.19
475.826	9576.13
476.031	9350.85
476.235	9105.1
476.44	9506.5
476.645	8949.45
476.849	9117.39
477.054	8945.36
477.259	8976.08
477.463	8937.16
477.668	8693.46
477.872	8861.39
478.077	8464.08
478.282	8464.08
478.486	8355.54
478.691	8373.97
478.895	8410.84
479.1	8247
479.304	8402.65
479.509	8019.67
479.713	8165.08
479.918	7939.8
480.122	7816.93
480.326	7919.32
480.531	7960.28
480.735	7849.69
480.94	7648.99
481.144	7939.8
481.348	7655.14
481.553	7677.66
481.757	7716.58
481.961	7823.07
482.166	7847.65
482.37	7634.66
482.574	7567.07
482.778	7620.32
482.983	7704.29
483.187	7565.03
483.391	7534.31
483.595	7708.38
483.8	7552.74
484.004	7583.46
484.208	7710.43
484.412	7720.67
484.616	7593.7
484.821	7456.48
485.025	7429.86
485.229	7591.65
485.433	7577.31
485.637	7479.01
485.841	7554.79
486.045	7644.9
486.249	7485.16
486.453	7266.02
486.657	7601.89
486.861	7546.59
487.065	7311.08
487.269	7657.18
487.473	7421.67
487.677	7626.46
487.881	7648.99
488.085	7462.63
488.289	7665.38
488.493	7558.88
488.697	7718.62
488.901	7573.22
489.105	7530.21
489.309	7673.57
489.512	7667.42
489.716	7595.75
489.92	7685.86
490.124	7722.72
490.328	7757.53
490.531	7716.58
490.735	7882.46
490.939	7935.71
491.143	7634.66
491.346	7757.53
491.55	7855.84
491.754	7909.08
491.958	7904.99
492.161	7849.69
492.365	7898.84
492.569	7986.91
492.772	7921.37
492.976	8130.27
493.18	8158.94
493.383	8230.62
493.587	8160.98
493.79	8228.57
493.994	8222.42
494.197	8193.75
494.401	8541.91
494.605	8312.53
494.808	8419.03
495.012	8459.99
495.215	8650.45
495.419	8550.1
495.622	8478.42
495.825	8662.74
496.029	8738.51
496.232	8900.3
496.436	8933.07
496.639	9176.78
496.843	8998.6
497.046	9291.46
497.249	9258.7
497.453	9443.01
497.656	9518.79
497.859	9324.23
498.063	9383.62
498.266	9868.99
498.469	9844.42
498.673	9875.13
498.876	10000.06
499.079	10018.49
499.282	10028.73
499.485	10301.11
499.689	10245.82
499.892	10585.78
500.095	10315.45
500.298	10741.43
500.501	10690.23
500.705	11085.48
500.908	11003.57
501.111	11364.01
501.314	11329.19
501.517	11439.78
501.72	11503.27
501.923	11517.61
502.126	11736.74
502.329	11849.38
502.532	12123.8
502.735	12195.48
502.938	12326.55
503.141	12412.57
503.344	12682.9
503.547	12639.89
503.75	12766.87
503.953	12969.62
504.156	13235.85
504.359	13252.24
504.562	13252.24
504.765	13602.44
504.968	13868.67
505.17	13522.57
505.373	13735.56
505.576	14087.81
505.779	14265.98
505.982	14399.1
506.185	14489.21
506.387	14458.49
506.59	14751.35
506.793	15062.64
506.996	15070.83
507.198	15449.71
507.401	15414.89
507.604	15568.49
507.807	15890.02
508.009	16121.44
508.212	15877.73
508.415	16170.59
508.617	16496.22
508.82	16682.58
509.022	16234.08
509.225	16918.1
509.428	17184.34
509.63	17126.99
509.833	17307.21
510.035	17460.81
510.238	17798.73
510.44	17786.44
510.643	18232.9
510.845	18359.87
511.048	18052.67
511.25	18714.17
511.453	18343.49
511.655	19377.71
511.858	19007.03
512.06	19097.14
512.262	19242.54
512.465	19586.6
512.667	19613.23
512.87	20096.55
513.072	20039.2
513.274	20624.92
513.477	20506.14
513.679	20833.82
513.881	21278.22
514.084	21315.09
514.286	21138.96
514.488	21556.75
514.69	22081.03
514.893	21939.72
515.095	22191.62
515.297	22296.07
515.499	22396.42
515.701	22459.9
515.904	23031.29
516.106	23148.02
516.308	23244.27
516.51	23619.05
516.712	23590.38
516.914	23942.63
517.116	24387.04
517.318	24155.62
517.52	24604.13
517.722	24628.7
517.925	25116.12
518.127	25439.7
518.329	25419.22
518.531	25466.32
518.733	25581.01
518.935	25640.4
519.136	25957.83
519.338	26473.92
519.54	26338.76
519.742	26908.09
519.944	26637.76
520.146	27168.18
520.348	27481.52
520.55	27334.07
520.752	27682.22
520.954	27973.03
521.155	27999.66
521.357	28296.61
521.559	28485.03
521.761	28771.74
521.963	28978.59
522.164	29242.78
522.366	29259.16
522.568	29676.94
522.77	29955.47
522.971	30438.79
523.173	29808.01
523.375	30434.69
523.576	30455.17
523.778	30289.29
523.98	30737.79
524.181	30922.11
524.383	30963.07
524.584	31387
524.786	31272.31
524.988	31284.6
525.189	31589.75
525.391	32138.6
525.592	32333.16
525.794	32206.19
525.995	32361.83
526.197	32042.35
526.398	32501.09
526.6	32677.22
526.801	32779.62
527.003	32863.58
527.204	32922.97
527.406	33172.83
527.607	33080.67
527.808	33371.48
528.01	32699.75
528.211	33467.73
528.412	34280.78
528.614	33836.37
528.815	33680.72
529.016	34118.99
529.218	33908.05
529.419	33748.31
529.62	34272.59
529.822	34387.27
530.023	34250.06
530.224	34190.67
530.425	34108.75
530.626	33938.77
530.828	33969.49
531.029	35097.92
531.23	33811.79
531.431	34338.12
531.632	34692.42
531.833	35013.95
532.035	34968.9
532.236	34839.87
532.437	34833.73
532.638	34925.89
532.839	34884.93
533.04	34895.17
533.241	34704.71
533.442	35208.51
533.643	34780.48
533.844	35056.96
534.045	34710.85
534.246	34661.7
534.447	35286.33
534.648	34702.66
534.849	34868.55
535.05	34958.66
535.251	35120.45
535.451	34774.34
535.652	35218.75
535.853	35013.95
536.054	35274.04
536.255	34911.55
536.456	34735.43
536.657	35269.95
536.857	35134.78
537.058	35052.86
537.259	35099.97
537.46	35108.16
537.66	35005.76
537.861	35114.3
538.062	35038.53
538.263	35095.87
538.463	35024.19
538.664	35081.53
538.865	34997.57
539.065	35388.73
539.266	34790.72
539.466	35409.21
539.667	34891.07
539.868	35173.69
540.068	34833.73
540.269	34555.21
540.469	35306.81
540.67	34889.02
540.87	34944.32
541.071	35188.03
541.271	35034.43
541.472	35114.3
541.672	34882.88
541.873	34768.19
542.073	34702.66
542.274	35261.76
542.474	35069.25
542.675	34891.07
542.875	35093.82
543.075	35110.21
543.276	34475.34
543.476	34952.51
543.676	34526.53
543.877	35208.51
544.077	34565.45
544.277	34755.91
544.478	35112.25
544.678	34944.32
544.878	34940.22
545.078	34712.9
545.279	34487.62
545.479	34860.35
545.679	35048.77
545.879	34925.89
546.079	34735.43
546.28	34800.96
546.48	34395.46
546.68	34661.7
546.88	34571.59
547.08	34604.36
547.28	34852.16
547.48	34374.98
547.68	34780.48
547.88	34485.58
548.081	34454.86
548.281	34690.37
548.481	34491.72
548.681	34903.36
548.881	34571.59
549.081	34653.51
549.28	34305.35
549.48	34848.07
549.68	34356.55
549.88	35054.91
550.08	34121.04
550.28	34800.96
550.48	34610.5
550.68	34678.08
550.88	34645.32
551.08	34463.05
551.279	34415.94
551.479	34178.38
551.679	34325.83
551.879	34346.31
552.079	34557.25
552.278	34354.51
552.478	34235.72
552.678	34573.64
552.878	34733.38
553.077	34417.99
553.277	34270.54
553.477	34815.3
553.676	34342.22
553.876	34139.47
554.076	34202.96
554.275	34313.55
554.475	33768.79
554.674	34180.43
554.874	34135.37
555.074	33977.68
555.273	34155.85
555.473	34424.14
555.672	33889.62
555.872	33897.81
556.071	33961.3
556.271	34147.66
556.47	33828.18
556.67	33398.1
556.869	33928.53
557.068	34082.13
557.268	33787.22
557.467	33621.33
557.667	33867.09
557.866	33590.61
558.065	33727.83
558.265	33172.83
558.464	33172.83
558.663	33729.87
558.863	33574.23
559.062	33684.82
559.261	33013.09
559.461	33733.97
559.66	33047.9
559.859	33207.64
560.058	32976.22
560.258	32961.89
560.457	32818.53
560.656	33514.84
560.855	33244.51
561.054	33023.33
561.253	32963.93
561.453	33107.29
561.652	32890.21
561.851	33054.04
562.05	32574.82
562.249	32716.13
562.448	33004.89
562.647	33105.24
562.846	32583.01
563.045	32402.79
563.244	32288.1
563.443	32675.17
563.642	32230.76
563.841	32292.2
564.04	32238.95
564.239	31991.15
564.438	32284.01
564.637	32220.52
564.836	32527.72
565.035	31710.58
565.234	31804.78
565.432	31690.1
565.631	31905.13
565.83	31597.94
566.029	31509.88
566.228	31335.8
566.427	31198.59
566.625	31100.28
566.824	31036.8
567.023	32001.39
567.222	30563.71
567.42	31415.67
567.619	31047.04
567.818	31110.52
568.016	31186.3
568.215	31118.71
568.414	30711.17
568.612	31126.91
568.811	30535.04
569.01	31010.17
569.208	30330.25
569.407	30498.18
569.605	30324.1
569.804	30461.32
570.002	29941.13
570.201	30305.67
570.4	29959.56
570.598	29732.24
570.797	29879.69
570.995	30084.49
571.193	29848.97
571.392	29885.84
571.59	29842.83
571.789	29674.9
571.987	29527.44
572.186	29715.86
572.384	29128.09
572.582	29355.41
572.781	29486.48
572.979	29060.51
573.177	29128.09
573.376	29216.15
573.574	29205.91
573.772	29046.17
573.971	29029.79
574.169	28937.63
574.367	28591.52
574.565	29066.65
574.763	28710.3
574.962	28458.4
575.16	28417.44
575.358	28700.06
575.556	28159.4
575.754	28597.66
575.952	27966.89
576.151	28167.59
576.349	27966.89
576.547	28151.21
576.745	27983.27
576.943	28183.98
577.141	28026.28
577.339	28034.47
577.537	27852.2
577.735	27573.68
577.933	27336.12
578.131	27657.65
578.329	27522.48
578.527	27678.13
578.725	27448.75
578.923	27411.89
579.121	27043.26
579.319	27000.25
579.516	27227.57
579.714	26928.57
579.912	27073.98
580.11	26744.25
580.308	26568.13
580.506	26738.11
580.704	26361.28
580.901	26377.67
581.099	26705.34
581.297	26019.27
581.495	26547.65
581.692	26795.45
581.89	25918.92
582.088	26453.44
582.285	26033.61
582.483	26125.77
582.681	26299.84
582.878	25992.65
583.076	25538
583.274	25785.8
583.471	25460.18
583.669	25572.82
583.866	25464.27
584.064	25521.62
584.262	25212.37
584.459	25728.46
584.657	24993.24
584.854	25480.66
585.052	24853.98
585.249	25249.24
585.447	25437.65
585.644	25073.11
585.841	25050.58
586.039	25087.45
586.236	24634.85
586.434	24497.63
586.631	24471.01
586.828	24808.92
587.026	24485.34
587.223	24554.97
587.42	24278.5
587.618	24243.68
587.815	24382.95
588.012	24264.16
588.21	24118.76
588.407	24331.75
588.604	23643.63
588.801	24030.69
588.999	23821.8
589.196	23533.04
589.393	23578.09
589.59	23350.77
589.787	23608.81
589.984	23612.91
590.182	23287.28
590.379	23377.39
590.576	23021.05
590.773	23186.93
590.97	22986.23
591.167	23340.53
591.364	22971.89
591.561	23066.1
591.758	22660.6
591.955	22861.3
592.152	22967.8
592.349	22740.47
592.546	22803.96
592.743	22697.47
592.94	22328.83
593.137	22695.42
593.334	22633.98
593.531	22111.75
593.727	22470.14
593.924	22334.98
594.121	21902.86
594.318	22130.18
594.515	21935.62
594.712	22187.52
594.908	21874.18
595.105	22093.32
595.302	21591.56
595.499	21669.39
595.696	21466.64
595.892	21515.79
596.089	21691.91
596.286	21280.27
596.482	21325.33
596.679	21411.34
596.876	21317.14
597.072	21198.35
597.269	21386.77
597.466	21014.04
597.662	21122.58
597.859	21231.12
598.055	21190.16
598.252	20997.65
598.448	20954.65
598.645	20837.91
598.841	20682.27
599.038	20774.42
599.234	20686.36
599.431	20354.59
599.627	20393.5
599.824	20631.07
600.02	20182.56
600.217	20387.36
600.413	20057.64
600.609	20153.89
600.806	19865.13
601.002	20080.16
601.198	19744.3
601.395	19713.58
601.591	19770.92
601.787	19772.97
601.984	19465.77
602.18	19865.13
602.376	19629.61
602.572	19127.86
602.769	19338.8
602.965	19590.7
603.161	19279.41
603.357	19017.27
603.553	19002.93
603.75	19269.17
603.946	18908.72
604.142	19068.47
604.338	19099.19
604.534	18921.01
604.73	18613.82
604.926	18681.4
605.122	18822.71
605.318	18589.24
605.514	18585.15
605.71	18253.37
605.906	18615.87
606.102	18433.6
606.298	18521.66
606.494	18253.37
606.69	18331.2
606.886	18587.19
607.082	18036.29
607.278	18341.44
607.474	17806.92
607.67	18150.98
607.866	17880.64
608.062	18347.58
608.257	18114.11
608.453	17905.22
608.649	18101.83
608.845	17854.02
609.041	17714.76
609.236	17882.69
609.432	18056.77
609.628	17706.57
609.824	17858.12
610.019	17454.67
610.215	17530.44
610.411	17460.81
610.606	17538.63
610.802	17233.49
610.998	17460.81
611.193	17231.44
611.389	17307.21
611.584	17436.24
611.78	17075.79
611.976	17235.53
612.171	17395.28
612.367	17133.14
612.562	17071.7
612.758	17043.03
612.953	16795.22
613.149	17137.23
613.344	16985.68
613.539	17221.2
613.735	16868.95
613.93	17098.32
614.126	16729.69
614.321	17018.45
614.517	16815.7
614.712	16793.17
614.907	16733.78
615.103	16592.47
615.298	16778.84
615.493	16531.03
615.688	16541.27
615.884	16918.1
616.079	16352.86
616.274	16666.2
616.47	16373.34
616.665	16506.46
616.86	16352.86
617.055	16283.23
617.25	16103.01
617.445	16316
617.641	16043.62
617.836	16203.36
618.031	15824.48
618.226	16223.84
618.421	15713.89
618.616	16123.49
618.811	15980.13
619.006	16180.83
619.201	15717.99
619.396	15724.13
619.591	15580.78
619.786	15758.95
619.981	15595.11
620.176	15636.07
620.371	15541.86
620.566	15492.71
620.761	15089.26
620.956	15357.55
621.151	15117.93
621.346	15175.28
621.541	15091.31
621.735	15281.77
621.93	14888.56
622.125	14923.38
622.32	14669.43
622.515	15031.92
622.709	14472.82
622.904	14626.42
623.099	14456.44
623.294	14487.16
623.488	14270.08
623.683	14554.74
623.878	13885.06
624.072	14077.57
624.267	14075.52
624.462	13975.17
624.656	13829.76
624.851	13776.52
625.046	13743.75
625.24	13608.58
625.435	13608.58
625.629	13495.94
625.824	13551.24
626.018	13538.95
626.213	13295.24
626.407	13258.38
626.602	13229.71
626.796	13106.83
626.991	13139.6
627.185	12910.22
627.38	12863.12
627.574	12861.07
627.768	12791.44
627.963	12541.59
628.157	12342.94
628.352	12457.62
628.546	12455.58
628.74	12447.38
628.935	12301.98
629.129	12197.53
629.323	12050.08
629.517	12129.95
629.712	12203.68
629.906	12031.65
630.1	11785.89
630.294	12019.36
630.489	11837.09
630.683	11974.3
630.877	11464.36
631.071	11587.24
631.265	11658.92
631.459	11466.41
631.653	11327.14
631.848	11437.73
632.042	11296.42
632.236	11261.61
632.43	11151.02
632.624	11400.87
632.818	10901.17
633.012	10938.03
633.206	10929.84
633.4	11015.85
633.594	10755.76
633.788	10815.15
633.982	10751.67
634.176	10688.18
634.369	10548.92
634.563	10657.46
634.757	10479.29
634.951	10589.88
635.145	10618.55
635.339	10460.85
635.533	10335.93
635.726	10190.52
635.92	10362.55
636.114	10186.43
636.308	10163.9
636.501	10036.92
636.695	10067.64
636.889	10016.44
637.083	9670.34
637.276	10008.25
637.47	9701.06
637.664	9807.55
637.857	9580.23
638.051	9754.3
638.244	9756.35
638.438	9518.79
638.632	9729.73
638.825	9377.48
639.019	9410.25
639.212	9385.67
639.406	9309.9
639.599	9205.45
639.793	9205.45
639.986	9187.02
640.18	8994.51
640.373	9262.79
640.567	9021.13
640.76	8920.78
640.954	8996.56
641.147	8869.58
641.34	8470.23
641.534	8797.9
641.727	8701.65
641.92	8763.09
642.114	8691.41
642.307	8554.19
642.5	8543.95
642.694	8320.73
642.887	8445.65
643.08	8527.57
643.273	8308.44
643.467	8238.81
643.66	8058.59
643.853	8206.04
644.046	8062.68
644.239	8097.5
644.432	8074.97
644.626	7978.72
644.819	8132.31
645.012	7956.19
645.205	7814.88
645.398	7722.72
645.591	7735.01
645.784	7749.34
645.977	7579.36
646.17	7745.25
646.363	7747.3
646.556	7476.96
646.749	7487.2
646.942	7673.57
647.135	7620.32
647.328	7411.43
647.521	7421.67
647.714	7044.84
647.907	7186.15
648.099	7159.53
648.292	7239.4
648.485	7304.93
648.678	7173.86
648.871	6981.35
649.064	6911.72
649.256	7198.44
649.449	6936.3
649.642	6964.97
649.835	7036.65
650.027	6950.64
650.22	6719.21
650.413	6883.05
650.605	6921.96
650.798	6715.12
650.991	6655.73
651.183	6725.36
651.376	6487.79
651.568	6495.99
651.761	6684.4
651.954	6510.32
652.146	6541.04
652.339	6588.14
652.531	6397.68
652.724	6510.32
652.916	6280.95
653.109	6338.29
653.301	6369.01
653.494	6366.96
653.686	6176.5
653.879	6149.88
654.071	6250.23
654.263	6113.02
654.456	6063.86
654.648	6086.39
654.84	6049.53
655.033	5883.64
655.225	6057.72
655.417	5943.03
655.61	5871.36
655.802	6000.38
655.994	5943.03
656.186	5947.13
656.379	5795.58
656.571	5736.19
656.763	5691.13
656.955	5666.56
657.148	5611.26
657.34	5562.11
657.532	5537.54
657.724	5644.03
657.916	5676.8
658.108	5490.43
658.3	5529.34
658.492	5492.48
658.684	5365.51
658.876	5363.46
659.068	5340.93
659.26	5322.5
659.452	5248.77
659.644	5187.33
659.836	5330.69
660.028	5234.44
660.22	5086.98
660.412	5207.81
660.604	5113.61
660.796	5019.4
660.988	5256.97
661.18	4972.3
661.372	5011.21
661.563	4921.1
661.755	4921.1
661.947	4957.96
662.139	4976.39
662.331	4828.94
662.522	4812.56
662.714	4859.66
662.906	4753.16
663.097	4761.36
663.289	4640.53
663.481	4691.73
663.673	4790.03
663.864	4634.38
664.056	4589.33
664.247	4704.01
664.439	4560.66
664.631	4544.27
664.822	4671.25
665.014	4505.36
665.205	4319
665.397	4536.08
665.588	4409.11
665.78	4577.04
665.971	4202.26
666.163	4433.68
666.354	4372.24
666.546	4329.24
666.737	4237.08
666.929	4355.86
667.12	4413.2
667.311	4308.76
667.503	4259.6
667.694	4187.93
667.885	4142.87
668.077	4228.88
668.268	4126.49
668.459	4146.97
668.651	4134.68
668.842	4110.1
669.033	4114.2
669.224	3999.51
669.416	4013.85
669.607	4101.91
669.798	3929.88
669.989	3950.36
670.18	3940.12
670.371	3872.54
670.563	3899.16
670.754	3940.12
670.945	3933.98
671.136	3954.46
671.327	3929.88
671.518	3991.32
671.709	3929.88
671.9	3884.83
672.091	3802.91
672.282	3745.56
672.473	3800.86
672.664	3741.47
672.855	3651.36
673.046	3526.43
673.237	3780.38
673.428	3569.44
673.619	3782.43
673.809	3565.34
674	3680.03
674.191	3614.49
674.382	3675.93
674.573	3546.91
674.764	3626.78
674.954	3608.35
675.145	3481.38
675.336	3407.65
675.527	3473.18
675.717	3569.44
675.908	3438.37
676.099	3436.32
676.289	3432.22
676.48	3446.56
676.671	3493.66
676.861	3362.59
677.052	3258.15
677.243	3301.15
677.433	3241.76
677.624	3335.97
677.814	3350.31
678.005	3235.62
678.195	3186.47
678.386	3266.34
678.576	3225.38
678.767	3143.46
678.957	3323.68
679.148	3184.42
679.338	3209
679.529	3252
679.719	3143.46
679.909	3135.27
680.1	3188.52
680.29	3280.68
680.481	3209
680.671	3168.04
680.861	3120.93
681.052	3135.27
681.242	3106.6
681.432	3086.12
681.622	3151.65
681.813	3139.37
682.003	2998.06
682.193	3088.17
682.383	3127.08
682.573	3118.89
682.764	2963.24
682.954	2914.09
683.144	3079.97
683.334	2946.86
683.524	2944.81
683.714	2918.18
683.904	2946.86
684.094	3026.73
684.284	2973.48
684.474	2998.06
684.664	3036.97
684.854	2922.28
685.044	2977.58
685.234	2881.32
685.424	2981.67
685.614	2750.25
685.804	2942.76
685.994	2813.74
686.184	2813.74
686.374	2752.3
686.564	2860.84
686.753	2850.6
686.943	2801.45
687.133	2801.45
687.323	2709.29
687.513	2791.21
687.702	2754.35
687.892	2807.59
688.082	2852.65
688.272	2805.55
688.461	2760.49
688.651	2701.1
688.841	2498.35
689.03	2635.57
689.22	2676.52
689.41	2598.7
689.599	2762.54
689.789	2565.93
689.979	2613.04
690.168	2647.85
690.358	2549.55
690.547	2514.73
690.737	2670.38
690.926	2707.24
691.116	2508.59
691.305	2645.8
691.495	2510.64
691.684	2637.61
691.874	2635.57
692.063	2645.8
692.252	2498.35
692.442	2398
692.631	2383.66
692.82	2445.1
693.01	2373.43
693.199	2596.65
693.388	2377.52
693.578	2465.58
693.767	2357.04
693.956	2434.86
694.146	2406.19
694.335	2404.14
694.524	2424.62
694.713	2252.59
694.902	2389.81
695.092	2283.31
695.281	2406.19
695.47	2389.81
695.659	2398
695.848	2291.51
696.037	2447.15
696.226	2365.23
696.415	2324.27
696.604	2301.75
696.793	2316.08
696.982	2299.7
697.171	2225.97
697.36	2205.49
697.549	2260.79
697.738	2193.2
697.927	2299.7
698.116	2238.26
698.305	2350.9
698.494	2365.23
698.683	2246.45
698.872	2295.6
699.061	2135.86
699.25	2252.59
699.438	2326.32
699.627	2262.83
699.816	2168.63
700.005	2094.9
700.193	2062.13
700.382	2242.36
700.571	2176.82
700.76	2062.13
700.948	2236.21
701.137	2189.11
701.326	2240.31
701.514	2088.76
701.703	2268.98
701.892	2211.64
702.08	2293.55
702.269	2195.25
702.457	2119.48
702.646	2252.59
702.834	2322.23
703.023	2242.36
703.212	2201.4
703.4	2090.81
703.589	2123.57
703.777	2117.43
703.965	2025.27
704.154	2107.19
704.342	2146.1
704.531	2129.72
704.719	2137.91
704.907	2074.42
705.096	2170.68
705.284	2133.81
705.472	2148.15
705.661	2137.91
705.849	2113.33
706.037	2129.72
706.226	2244.4
706.414	2162.48
706.602	2043.7
706.79	2119.48
706.979	2037.56
707.167	2060.09
707.355	2103.09
707.543	2006.84
707.731	2205.49
707.919	2029.37
708.107	2078.52
708.296	2156.34
708.484	2086.71
708.672	2031.41
708.86	2193.2
709.048	2195.25
709.236	2117.43
709.424	2135.86
709.612	2000.69
709.8	2023.22
709.988	2006.84
710.176	2023.22
710.364	2070.33
710.551	2086.71
710.739	2195.25
710.927	2074.42
711.115	2045.75
711.303	2156.34
711.491	2127.67
711.679	1976.12
711.866	2170.68
712.054	2152.24
712.242	1959.74
712.43	2058.04
712.617	2037.56
712.805	2058.04
712.993	2201.4
713.181	2000.69
713.368	2121.52
713.556	2080.57
713.744	2015.03
713.931	2148.15
714.119	1996.6
714.306	2047.8
714.494	2015.03
714.682	2066.23
714.869	2084.66
715.057	2027.32
715.244	2111.29
715.432	2156.34
715.619	2160.44
715.807	2027.32
715.994	2045.75
716.182	2053.94
716.369	2078.52
716.556	2185.01
716.744	1963.83
716.931	1996.6
717.119	2156.34
717.306	2072.37
717.493	2170.68
717.681	1935.16
717.868	2066.23
718.055	2070.33
718.242	2021.17
718.43	2055.99
718.617	2068.28
718.804	2058.04
718.991	2094.9
719.179	2023.22
719.366	1947.45
719.553	2080.57
719.74	2109.24
719.927	1990.45
720.114	1992.5
720.301	2021.17
720.488	2031.41
720.676	2019.13
720.863	2000.69
721.05	2111.29
721.237	2025.27
721.424	2060.09
721.611	2078.52
721.798	2025.27
721.985	1888.06
722.172	1976.12
722.358	1943.35
722.545	2090.81
722.732	1922.87
722.919	2152.24
723.106	1961.78
723.293	2070.33
723.48	1974.07
723.667	1914.68
723.853	1980.22
724.04	2008.89
724.227	1959.74
724.414	2029.37
724.6	2031.41
724.787	2006.84
724.974	2012.98
725.161	2019.13
725.347	2072.37
725.534	2074.42
725.72	2041.65
725.907	1996.6
726.094	1955.64
726.28	2025.27
726.467	1965.88
726.653	2105.14
726.84	2068.28
727.027	2076.47
727.213	1988.41
727.4	2004.79
727.586	2031.41
727.773	1912.63
727.959	2070.33
728.145	1951.54
728.332	2029.37
728.518	2070.33
728.705	2078.52
728.891	2004.79
729.077	1896.25
729.264	1881.91
729.45	2000.69
729.636	1957.69
729.823	2045.75
730.009	1980.22
730.195	2039.61
730.382	2096.95
730.568	2033.46
730.754	1816.38
730.94	1916.73
731.126	2012.98
731.313	2109.24
731.499	2070.33
731.685	2004.79
731.871	1947.45
732.057	1984.31
732.243	2004.79
732.429	2062.13
732.615	2035.51
732.801	2088.76
732.987	1947.45
733.173	2129.72
733.359	2012.98
733.545	2082.61
733.731	1926.97
733.917	2041.65
734.103	2021.17
734.289	2000.69
734.475	1972.02
734.661	1963.83
734.847	2008.89
735.033	1955.64
735.219	1890.1
735.404	1994.55
735.59	1998.65
735.776	1969.98
735.962	1922.87
736.148	1976.12
736.333	2023.22
736.519	1820.47
736.705	1955.64
736.89	1910.58
737.076	1865.53
737.262	1898.3
737.447	1951.54
737.633	1881.91
737.819	1812.28
738.004	1818.43
738.19	1871.67
738.375	1976.12
738.561	1894.2
738.747	1900.34
738.932	1750.84
739.118	1947.45
739.303	1859.38
739.489	1976.12
739.674	1840.95
739.859	1890.1
740.045	1888.06
740.23	1957.69
740.416	1824.57
740.601	1906.49
740.786	1845.05
740.972	1910.58
741.157	1816.38
741.342	1881.91
741.528	1799.99
741.713	1824.57
741.898	1687.36
742.084	1793.85
742.269	1814.33
742.454	1720.12
742.639	1806.14
742.824	1808.19
743.01	1799.99
743.195	1730.36
743.38	1728.31
743.565	1843
743.75	1761.08
743.935	1726.27
744.12	1726.27
744.305	1668.92
744.49	1705.79
744.675	1824.57
744.86	1627.96
745.045	1711.93
745.23	1697.6
745.415	1660.73
745.6	1670.97
745.785	1679.16
745.97	1632.06
746.155	1695.55
746.34	1695.55
746.525	1660.73
746.71	1730.36
746.895	1490.75
747.079	1677.12
747.264	1664.83
747.449	1597.24
747.634	1662.78
747.819	1611.58
748.003	1539.9
748.188	1595.2
748.373	1552.19
748.557	1509.18
748.742	1644.35
748.927	1462.08
749.111	1406.78
749.296	1560.38
749.481	1482.56
749.665	1464.13
749.85	1464.13
750.034	1533.76
750.219	1513.28
750.404	1562.43
750.588	1398.59
750.773	1316.67
750.957	1435.46
751.141	1443.65
751.326	1353.54
751.51	1365.82
751.695	1394.5
751.879	1371.97
752.064	1392.45
752.248	1382.21
752.432	1419.07
752.617	1304.39
752.801	1466.17
752.985	1468.22
753.17	1333.06
753.354	1320.77
753.538	1316.67
753.722	1357.63
753.907	1382.21
754.091	1242.95
754.275	1259.33
754.459	1253.19
754.643	1253.19
754.828	1374.02
755.012	1242.95
755.196	1193.8
755.38	1195.84
755.564	1218.37
755.748	1195.84
755.932	1193.8
756.116	1218.37
756.3	1244.99
756.484	1283.91
756.668	1201.99
756.852	1189.7
757.036	1175.36
757.22	1136.45
757.404	1152.84
757.588	1130.31
757.772	1195.84
757.956	1095.49
758.14	1124.16
758.323	1046.34
758.507	1081.16
758.691	1068.87
758.875	1122.12
759.059	1046.34
759.242	1087.3
759.426	1099.59
759.61	1089.35
759.794	1058.63
759.977	1115.97
760.161	1054.53
760.345	1095.49
760.528	1038.15
760.712	1081.16
760.895	997.19
761.079	1034.05
761.263	1032.01
761.446	907.08
761.63	982.85
761.813	1005.38
761.997	1025.86
762.18	902.98
762.364	1077.06
762.547	956.23
762.731	966.47
762.914	915.27
763.098	1021.77
763.281	948.04
763.464	931.66
763.648	956.23
763.831	966.47
764.015	880.46
764.198	923.46
764.381	976.71
764.564	821.06
764.748	862.02
764.931	958.28
765.114	812.87
765.297	948.04
765.481	819.02
765.664	882.5
765.847	900.94
766.03	939.85
766.213	884.55
766.397	886.6
766.58	800.59
766.763	931.66
766.946	839.5
767.129	851.78
767.312	808.78
767.495	825.16
767.678	866.12
767.861	872.26
768.044	849.74
768.227	890.7
768.41	833.35
768.593	870.22
768.776	788.3
768.959	841.54
769.142	866.12
769.324	874.31
769.507	870.22
769.69	819.02
769.873	821.06
770.056	868.17
770.239	808.78
770.421	831.3
770.604	776.01
770.787	808.78
770.97	855.88
771.152	786.25
771.335	806.73
771.518	745.29
771.7	835.4
771.883	837.45
772.066	821.06
772.248	788.3
772.431	771.91
772.613	808.78
772.796	722.76
772.978	743.24
773.161	776.01
773.343	743.24
773.526	823.11
773.708	751.43
773.891	733
774.073	718.67
774.256	712.52
774.438	724.81
774.621	716.62
774.803	743.24
774.985	751.43
775.168	638.8
775.35	632.65
775.532	606.03
775.715	726.86
775.897	716.62
776.079	712.52
776.261	657.23
776.444	577.36
776.626	687.95
776.808	710.47
776.99	669.52
777.173	702.28
777.355	679.75
777.537	675.66
777.719	565.07
777.901	689.99
778.083	644.94
778.265	606.03
778.447	696.14
778.629	694.09
778.811	595.79
778.993	595.79
779.175	603.98
779.357	550.73
779.539	628.56
779.721	595.79
779.903	614.22
780.085	579.4
780.267	628.56
780.449	571.21
780.631	556.88
780.812	579.4
780.994	595.79
781.176	556.88
781.358	440.14
781.54	522.06
781.721	659.28
781.903	626.51
782.085	546.64
782.267	606.03
782.448	450.38
782.63	499.53
782.812	542.54
782.993	563.02
783.175	466.77
783.357	401.23
783.538	542.54
783.72	507.73
783.901	477.01
784.083	530.25
784.264	477.01
784.446	507.73
784.627	563.02
784.809	505.68
784.99	501.58
785.172	524.11
785.353	464.72
785.535	358.22
785.716	456.53
785.897	386.9
786.079	507.73
786.26	395.09
786.441	481.1
786.623	276.31
786.804	327.5
786.985	431.95
787.167	477.01
787.348	378.7
787.529	403.28
787.71	417.61
787.891	415.57
788.073	423.76
788.254	415.57
788.435	456.53
788.616	429.9
788.797	352.08
788.978	399.18
789.159	370.51
789.34	352.08
789.522	368.46
789.703	341.84
789.884	386.9
790.065	311.12
790.246	317.26
790.427	417.61
790.607	407.38
790.788	395.09
790.969	325.46
791.15	401.23
791.331	366.42
791.512	317.26
791.693	288.59
791.874	374.61
792.054	343.89
792.235	368.46
792.416	311.12
792.597	323.41
792.778	298.83
792.958	350.03
793.139	372.56
793.32	268.11
793.5	300.88
793.681	382.8
793.862	317.26
794.042	288.59
794.223	337.74
794.404	251.73
794.584	245.59
794.765	274.26
794.945	329.55
795.126	280.4
795.306	343.89
795.487	241.49
795.667	294.74
795.848	288.59
796.028	337.74
796.209	251.73
796.389	325.46
796.57	278.35
796.75	237.39
796.93	249.68
797.111	216.91
797.291	292.69
797.471	202.58
797.652	255.83
797.832	194.39
798.012	253.78
798.192	204.63
798.373	218.96
798.553	212.82
798.733	304.98
798.913	200.53
799.093	276.31
799.274	163.67
799.454	178
799.634	251.73
799.814	259.92
799.994	331.6
800.174	343.89
800.354	169.81
800.534	253.78
800.714	323.41
800.894	186.19
801.074	196.43
801.254	292.69
801.434	294.74
801.614	196.43
801.794	161.62
801.974	866.12
802.154	245.59
802.334	276.31
802.514	149.33
802.693	235.35
802.873	200.53
803.053	227.15
803.233	300.88
803.413	251.73
803.592	309.07
803.772	270.16
803.952	214.87
804.131	155.47
804.311	231.25
804.491	294.74
804.67	206.67
804.85	235.35
805.03	235.35
805.209	198.48
805.389	235.35
805.568	192.34
805.748	71.51
805.928	153.43
806.107	235.35
806.287	194.39
806.466	259.92
806.646	124.76
806.825	137.04
807.004	218.96
807.184	218.96
807.363	204.63
807.543	147.28
807.722	178
807.901	180.05
808.081	202.58
808.26	91.99
808.439	190.29
808.619	141.14
808.798	145.24
808.977	175.95
809.156	259.92
809.336	157.52
809.515	186.19
809.694	120.66
809.873	192.34
810.052	225.11
810.231	223.06
810.411	69.46
810.59	151.38
810.769	141.14
810.948	178
811.127	227.15
811.306	251.73
811.485	141.14
811.664	155.47
811.843	106.32
812.022	210.77
812.201	114.52
812.38	173.91
812.559	124.76
812.737	210.77
812.916	167.76
813.095	163.67
813.274	151.38
813.453	153.43
813.632	98.13
813.811	186.19
813.989	210.77
814.168	202.58
814.347	137.04
814.526	147.28
814.704	192.34
814.883	214.87
815.062	137.04
815.24	173.91
815.419	155.47
815.598	188.24
815.776	96.08
815.955	182.1
816.133	59.22
816.312	182.1
816.49	106.32
816.669	126.8
816.847	108.37
817.026	186.19
817.204	120.66
817.383	155.47
817.561	106.32
817.74	83.8
817.918	141.14
818.097	87.89
818.275	194.39
818.453	137.04
818.632	145.24
818.81	130.9
818.988	108.37
819.167	87.89
819.345	116.56
819.523	96.08
819.701	128.85
819.879	89.94
820.058	116.56
820.236	132.95
820.414	89.94
820.592	73.56
820.77	139.09
820.948	137.04
821.127	96.08
821.305	116.56
821.483	190.29
821.661	173.91
821.839	141.14
822.017	104.28
822.195	143.19
822.373	108.37
822.551	145.24
822.729	81.75
822.907	128.85
823.085	75.6
823.262	81.75
823.44	137.04
823.618	108.37
823.796	116.56
823.974	110.42
824.152	48.98
824.329	141.14
824.507	114.52
824.685	112.47
824.863	143.19
825.04	112.47
825.218	116.56
825.396	94.04
825.574	63.32
825.751	175.95
825.929	98.13
826.107	96.08
826.284	153.43
826.462	59.22
826.639	104.28
826.817	112.47
826.994	139.09
827.172	42.84
827.349	132.95
827.527	91.99
827.704	128.85
827.882	73.56
828.059	57.17
828.237	102.23
828.414	87.89
828.591	55.12
828.769	87.89
828.946	83.8
829.124	98.13
829.301	77.65
829.478	141.14
829.655	104.28
829.833	151.38
830.01	34.64
830.187	221.01
830.364	137.04
830.542	128.85
830.719	161.62
830.896	163.67
831.073	79.7
831.25	112.47
831.427	81.75
831.604	120.66
831.782	106.32
831.959	137.04
832.136	79.7
832.313	112.47
832.49	63.32
832.667	128.85
832.844	71.51
833.021	104.28
833.198	73.56
833.374	18.26
833.551	-18.6
833.728	55.12
833.905	124.76
834.082	75.6
834.259	102.23
834.436	91.99
834.612	77.65
834.789	71.51
834.966	53.08
835.143	22.36
835.319	130.9
835.496	91.99
835.673	104.28
835.85	51.03
836.026	8.02
836.203	147.28
836.38	122.71
836.556	61.27
836.733	20.31
836.909	38.74
837.086	14.17
837.262	46.93
837.439	46.93
837.616	110.42
837.792	59.22
837.968	108.37
838.145	91.99
838.321	108.37
838.498	106.32
838.674	22.36
838.851	22.36
839.027	120.66
839.203	5.97
839.38	116.56
839.556	46.93
839.732	59.22
839.909	-0.17
840.085	79.7
840.261	112.47
840.437	46.93
840.614	34.64
840.79	100.18
840.966	87.89
841.142	10.07
841.318	26.45
841.494	132.95
841.671	89.94
841.847	34.64
842.023	-10.41
842.199	22.36
842.375	87.89
842.551	30.55
842.727	16.21
842.903	128.85
843.079	3.93
843.255	79.7
843.431	12.12
843.607	110.42
843.783	40.79
843.959	85.84
844.134	91.99
844.31	104.28
844.486	-10.41
844.662	89.94
844.838	38.74
845.013	169.81
845.189	81.75
845.365	59.22
845.541	22.36
845.716	34.64
845.892	122.71
846.068	67.41
846.244	20.31
846.419	26.45
846.595	65.36
846.77	46.93
846.946	65.36
847.122	116.56
847.297	75.6
847.473	114.52
847.648	-75.95
847.824	-0.17
847.999	28.5
848.175	124.76
848.35	79.7
848.526	55.12
848.701	63.32
848.876	112.47
849.052	1.88
849.227	40.79
849.403	30.55
849.578	24.4
849.753	-10.41
849.929	5.97
850.104	22.36
850.279	8.02
850.454	59.22
850.63	83.8
850.805	18.26
850.98	124.76
851.155	81.75
851.33	71.51
851.505	-51.37
851.681	51.03
851.856	1.88
852.031	67.41
852.206	55.12
852.381	63.32
852.556	20.31
852.731	51.03
852.906	79.7
853.081	71.51
853.256	118.61
853.431	-2.22
853.606	85.84
853.781	26.45
853.956	5.97
854.131	112.47
854.305	71.51
854.48	-8.36
854.655	28.5
854.83	1.88
855.005	73.56
855.18	16.21
855.354	46.93
855.529	38.74
855.704	1.88
855.879	112.47
856.053	8.02
856.228	46.93
856.403	46.93
856.577	71.51
856.752	22.36
856.926	-0.17
857.101	55.12
857.276	-12.46
857.45	87.89
857.625	96.08
857.799	30.55
857.974	36.69
858.148	18.26
858.323	38.74
858.497	16.21
858.672	42.84
858.846	10.07
859.02	67.41
859.195	-8.36
859.369	106.32
859.543	-16.55
859.718	8.02
859.892	87.89
860.066	71.51
860.241	32.6
860.415	22.36
860.589	-16.55
860.763	57.17
860.938	5.97
861.112	14.17
861.286	46.93
861.46	65.36
861.634	-0.17
861.808	96.08
861.982	-20.65
862.157	67.41
862.331	67.41
862.505	-16.55
862.679	24.4
862.853	-41.13
863.027	14.17
863.201	26.45
863.375	32.6
863.549	24.4
863.722	38.74
863.896	51.03
864.07	18.26
864.244	22.36
864.418	-10.41
864.592	71.51
864.766	-30.89
864.939	16.21
865.113	30.55
865.287	114.52
865.461	-10.41
865.634	42.84
865.808	-34.99
865.982	26.45
866.156	-0.17
866.329	77.65
866.503	18.26
866.676	10.07
866.85	57.17
867.024	-4.27
867.197	40.79
867.371	-12.46
867.544	51.03
867.718	14.17
867.891	14.17
868.065	30.55
868.238	5.97
868.412	77.65
868.585	34.64
868.759	8.02
868.932	-26.79
869.105	14.17
869.279	22.36
869.452	-22.7
869.625	55.12
869.799	26.45
869.972	42.84
870.145	10.07
870.319	44.88
870.492	16.21
870.665	73.56
870.838	75.6
871.011	16.21
871.185	-6.31
871.358	22.36
871.531	-37.03
871.704	36.69
871.877	26.45
872.05	24.4
872.223	-6.31
872.396	-4.27
872.569	-10.41
872.742	40.79
872.915	94.04
873.088	-2.22
873.261	22.36
873.434	-4.27
873.607	71.51
873.78	55.12
873.953	3.93
874.126	22.36
874.299	63.32
874.471	24.4
874.644	38.74
874.817	30.55
874.99	108.37
875.163	14.17
875.335	38.74
875.508	30.55
875.681	22.36
875.853	14.17
876.026	46.93
876.199	75.6
876.371	-2.22
876.544	-26.79
876.717	57.17
876.889	-39.08
877.062	42.84
877.234	55.12
877.407	22.36
877.579	-8.36
877.752	-39.08
877.924	75.6
878.097	26.45
878.269	18.26
878.442	110.42
878.614	44.88
878.786	59.22
878.959	98.13
879.131	-6.31
879.303	1.88
879.476	-39.08
879.648	24.4
879.82	20.31
879.993	-55.47
880.165	-2.22
880.337	-26.79
880.509	48.98
880.681	1.88
880.854	14.17
881.026	3.93
881.198	79.7
881.37	-10.41
881.542	57.17
881.714	1.88
881.886	48.98
882.058	28.5
882.23	-18.6
882.402	12.12
882.574	28.5
882.746	100.18
882.918	137.04
883.09	-22.7
883.262	26.45
883.434	110.42
883.606	55.12
883.778	77.65
883.95	132.95
884.122	-4.27
884.293	20.31
884.465	-20.65
884.637	16.21
884.809	-18.6
884.98	48.98
885.152	5.97
885.324	16.21
885.496	-24.75
885.667	83.8
885.839	141.14
886.011	30.55
886.182	32.6
886.354	87.89
886.525	36.69
886.697	46.93
886.869	14.17
887.04	71.51
887.212	75.6
887.383	128.85
887.555	-10.41
887.726	8.02
887.897	-8.36
888.069	-0.17
888.24	42.84
888.412	-16.55
888.583	-10.41
888.754	32.6
888.926	-14.51
889.097	98.13
889.268	-67.75
889.44	38.74
889.611	-8.36
889.782	-16.55
889.953	-24.75
890.125	63.32
890.296	1.88
890.467	18.26
890.638	-37.03
890.809	8.02
890.98	-45.23
891.151	79.7
891.323	-30.89
891.494	22.36
891.665	85.84
891.836	-51.37
892.007	-55.47
892.178	-4.27
892.349	-18.6
892.52	18.26
892.691	-10.41
892.862	3.93
893.032	67.41
893.203	-34.99
893.374	87.89
893.545	-0.17
893.716	-22.7
893.887	63.32
894.057	10.07
894.228	34.64
894.399	-39.08
894.57	22.36
894.74	-8.36
894.911	40.79
895.082	-43.18
895.253	32.6
895.423	-6.31
895.594	-0.17
895.764	22.36
895.935	-2.22
896.106	18.26
896.276	36.69
896.447	16.21
896.617	-34.99
896.788	65.36
896.958	-26.79
897.129	-16.55
897.299	8.02
897.47	73.56
897.64	14.17
897.81	40.79
897.981	-2.22
898.151	14.17
898.322	-16.55
898.492	-26.79
898.662	-16.55
898.832	51.03
899.003	14.17
899.173	73.56
899.343	-8.36
899.513	-18.6
