Data from USB4F104151__254__14-45-55-701.txt Node

Date: Thu Mar 13 14:45:55 EDT 2025
User: louis
Spectrometer: USB4F10415
Trigger mode: 4
Integration Time (sec): 2.000000E-2
Scans to average: 1
Electric dark correction enabled: true
Nonlinearity correction enabled: false
Boxcar width: 0
XAxis mode: Wavelengths
Number of Pixels in Spectrum: 3648
>>>>>Begin Spectral Data<<<<<
178.204	-88.75
178.424	-88.75
178.644	-88.75
178.864	-162.47
179.084	-78.51
179.304	21.84
179.524	36.18
179.744	-31.4
179.964	-2.73
180.184	9.56
180.404	1.37
180.624	-0.68
180.844	60.76
181.064	-23.21
181.283	-37.55
181.503	5.46
181.723	-39.59
181.943	-90.79
182.163	83.28
182.383	-53.93
182.602	58.71
182.822	-6.83
183.042	25.94
183.262	64.85
183.482	-33.45
183.701	-10.92
183.921	-8.87
184.141	1.37
184.361	7.51
184.58	25.94
184.8	27.99
185.02	-37.55
185.239	44.37
185.459	11.61
185.679	-19.11
185.898	-88.75
186.118	27.99
186.338	36.18
186.557	3.41
186.777	-84.65
186.997	116.05
187.216	36.18
187.436	124.24
187.655	83.28
187.875	58.71
188.095	9.56
188.314	71
188.534	36.18
188.753	-10.92
188.973	-19.11
189.192	-2.73
189.412	58.71
189.631	-2.73
189.851	32.08
190.07	66.9
190.29	-21.16
190.509	66.9
190.729	44.37
190.948	27.99
191.168	73.04
191.387	-23.21
191.607	17.75
191.826	-23.21
192.045	-2.73
192.265	66.9
192.484	48.47
192.704	42.32
192.923	17.75
193.142	87.38
193.362	68.95
193.581	163.15
193.8	42.32
194.02	58.71
194.239	87.38
194.458	13.65
194.678	66.9
194.897	54.61
195.116	50.52
195.335	64.85
195.555	46.42
195.774	13.65
195.993	-21.16
196.212	15.7
196.432	50.52
196.651	42.32
196.87	30.04
197.089	120.15
197.308	-37.55
197.528	66.9
197.747	58.71
197.966	52.56
198.185	60.76
198.404	-6.83
198.623	1.37
198.842	99.67
199.062	42.32
199.281	83.28
199.5	1.37
199.719	7.51
199.938	42.32
200.157	54.61
200.376	91.48
200.595	99.67
200.814	5.46
201.033	15.7
201.252	19.8
201.471	13.65
201.69	111.96
201.909	27.99
202.128	48.47
202.347	66.9
202.566	38.23
202.785	-12.97
203.004	-6.83
203.223	103.76
203.442	-47.79
203.661	17.75
203.879	42.32
204.098	167.25
204.317	-23.21
204.536	38.23
204.755	34.13
204.974	17.75
205.193	-0.68
205.411	99.67
205.63	66.9
205.849	44.37
206.068	3.41
206.287	3.41
206.505	42.32
206.724	-10.92
206.943	-27.31
207.162	83.28
207.381	66.9
207.599	19.8
207.818	-43.69
208.037	32.08
208.255	-15.02
208.474	-37.55
208.693	19.8
208.911	38.23
209.13	-10.92
209.349	91.48
209.567	60.76
209.786	71
210.005	93.52
210.223	62.8
210.442	-4.78
210.661	-6.83
210.879	34.13
211.098	42.32
211.316	34.13
211.535	91.48
211.753	42.32
211.972	36.18
212.191	-70.31
212.409	27.99
212.628	-8.87
212.846	-43.69
213.065	99.67
213.283	58.71
213.502	-6.83
213.72	-51.88
213.938	75.09
214.157	103.76
214.375	25.94
214.594	-53.93
214.812	-2.73
215.031	50.52
215.249	7.51
215.467	52.56
215.686	75.09
215.904	75.09
216.122	-31.4
216.341	95.57
216.559	9.56
216.778	25.94
216.996	27.99
217.214	-15.02
217.432	-33.45
217.651	-19.11
217.869	66.9
218.087	-10.92
218.306	25.94
218.524	77.14
218.742	1.37
218.96	93.52
219.179	5.46
219.397	66.9
219.615	91.48
219.833	34.13
220.051	9.56
220.27	36.18
220.488	42.32
220.706	38.23
220.924	9.56
221.142	42.32
221.36	44.37
221.578	25.94
221.796	-15.02
222.015	56.66
222.233	1.37
222.451	68.95
222.669	-39.59
222.887	15.7
223.105	23.89
223.323	21.84
223.541	-41.64
223.759	71
223.977	89.43
224.195	99.67
224.413	-35.5
224.631	58.71
224.849	54.61
225.067	11.61
225.285	13.65
225.503	-68.27
225.721	44.37
225.939	25.94
226.157	91.48
226.375	89.43
226.592	1.37
226.81	-2.73
227.028	91.48
227.246	50.52
227.464	13.65
227.682	68.95
227.9	19.8
228.117	99.67
228.335	-15.02
228.553	50.52
228.771	-6.83
228.989	75.09
229.206	-6.83
229.424	83.28
229.642	36.18
229.86	42.32
230.077	3.41
230.295	-2.73
230.513	93.52
230.731	27.99
230.948	60.76
231.166	68.95
231.384	73.04
231.601	-45.74
231.819	17.75
232.037	68.95
232.254	3.41
232.472	83.28
232.689	-12.97
232.907	21.84
233.125	50.52
233.342	27.99
233.56	11.61
233.777	58.71
233.995	7.51
234.213	120.15
234.43	-6.83
234.648	42.32
234.865	60.76
235.083	42.32
235.3	-21.16
235.518	11.61
235.735	42.32
235.953	89.43
236.17	15.7
236.388	54.61
236.605	1.37
236.822	60.76
237.04	38.23
237.257	25.94
237.475	34.13
237.692	1.37
237.909	66.9
238.127	77.14
238.344	81.24
238.562	42.32
238.779	9.56
238.996	27.99
239.214	32.08
239.431	73.04
239.648	-76.46
239.865	68.95
240.083	50.52
240.3	17.75
240.517	7.51
240.735	9.56
240.952	81.24
241.169	52.56
241.386	79.19
241.603	34.13
241.821	-2.73
242.038	19.8
242.255	79.19
242.472	25.94
242.689	60.76
242.907	36.18
243.124	-6.83
243.341	15.7
243.558	34.13
243.775	13.65
243.992	-70.31
244.209	21.84
244.426	87.38
244.643	34.13
244.86	-27.31
245.078	34.13
245.295	17.75
245.512	13.65
245.729	27.99
245.946	75.09
246.163	79.19
246.38	83.28
246.597	58.71
246.814	50.52
247.031	34.13
247.248	52.56
247.464	60.76
247.681	19.8
247.898	21.84
248.115	-12.97
248.332	-2.73
248.549	83.28
248.766	107.86
248.983	91.48
249.2	30.04
249.417	-21.16
249.633	27.99
249.85	1.37
250.067	9.56
250.284	62.8
250.501	71
250.717	99.67
250.934	-68.27
251.151	32.08
251.368	-21.16
251.585	42.32
251.801	46.42
252.018	-6.83
252.235	27.99
252.451	25.94
252.668	36.18
252.885	66.9
253.102	66.9
253.318	42.32
253.535	15.7
253.752	1.37
253.968	-4.78
254.185	52.56
254.401	52.56
254.618	-12.97
254.835	52.56
255.051	116.05
255.268	21.84
255.484	-23.21
255.701	52.56
255.917	-15.02
256.134	21.84
256.351	60.76
256.567	42.32
256.784	85.33
257	1.37
257.217	25.94
257.433	-21.16
257.65	-10.92
257.866	-35.5
258.082	11.61
258.299	-15.02
258.515	25.94
258.732	19.8
258.948	-17.07
259.165	58.71
259.381	-15.02
259.597	5.46
259.814	58.71
260.03	-23.21
260.246	50.52
260.463	46.42
260.679	56.66
260.895	46.42
261.112	54.61
261.328	-2.73
261.544	44.37
261.761	64.85
261.977	60.76
262.193	-72.36
262.409	83.28
262.626	36.18
262.842	9.56
263.058	9.56
263.274	77.14
263.49	25.94
263.707	-4.78
263.923	60.76
264.139	11.61
264.355	-68.27
264.571	68.95
264.787	54.61
265.004	34.13
265.22	-39.59
265.436	-29.35
265.652	66.9
265.868	75.09
266.084	-6.83
266.3	42.32
266.516	-19.11
266.732	-10.92
266.948	52.56
267.164	34.13
267.38	-23.21
267.596	-10.92
267.812	62.8
268.028	30.04
268.244	5.46
268.46	-6.83
268.676	38.23
268.892	79.19
269.108	-55.98
269.324	-29.35
269.54	-21.16
269.756	48.47
269.972	-31.4
270.188	-19.11
270.403	-53.93
270.619	21.84
270.835	-10.92
271.051	9.56
271.267	-25.26
271.483	-23.21
271.698	7.51
271.914	-2.73
272.13	68.95
272.346	42.32
272.562	56.66
272.777	83.28
272.993	52.56
273.209	-6.83
273.425	91.48
273.64	-2.73
273.856	32.08
274.072	85.33
274.287	-70.31
274.503	23.89
274.719	-19.11
274.934	40.28
275.15	21.84
275.366	75.09
275.581	50.52
275.797	27.99
276.012	56.66
276.228	71
276.444	38.23
276.659	109.91
276.875	11.61
277.09	23.89
277.306	1.37
277.521	83.28
277.737	-15.02
277.952	81.24
278.168	42.32
278.383	109.91
278.599	58.71
278.814	-10.92
279.03	19.8
279.245	34.13
279.461	85.33
279.676	58.71
279.892	34.13
280.107	68.95
280.322	17.75
280.538	27.99
280.753	-23.21
280.969	73.04
281.184	34.13
281.399	17.75
281.615	73.04
281.83	19.8
282.045	-39.59
282.26	3.41
282.476	58.71
282.691	66.9
282.906	58.71
283.122	50.52
283.337	36.18
283.552	83.28
283.767	9.56
283.983	71
284.198	66.9
284.413	93.52
284.628	1.37
284.843	73.04
285.058	150.87
285.274	46.42
285.489	58.71
285.704	42.32
285.919	40.28
286.134	99.67
286.349	-23.21
286.564	-4.78
286.779	25.94
286.995	66.9
287.21	-37.55
287.425	42.32
287.64	17.75
287.855	46.42
288.07	30.04
288.285	50.52
288.5	91.48
288.715	42.32
288.93	62.8
289.145	-37.55
289.36	5.46
289.575	25.94
289.79	19.8
290.004	111.96
290.219	83.28
290.434	44.37
290.649	52.56
290.864	71
291.079	54.61
291.294	128.34
291.509	15.7
291.724	27.99
291.938	56.66
292.153	75.09
292.368	66.9
292.583	9.56
292.798	46.42
293.012	91.48
293.227	3.41
293.442	87.38
293.657	58.71
293.871	5.46
294.086	17.75
294.301	9.56
294.516	73.04
294.73	-2.73
294.945	-12.97
295.16	44.37
295.374	30.04
295.589	25.94
295.804	7.51
296.018	34.13
296.233	128.34
296.447	9.56
296.662	34.13
296.877	3.41
297.091	21.84
297.306	34.13
297.52	25.94
297.735	42.32
297.949	-19.11
298.164	-0.68
298.378	50.52
298.593	-39.59
298.807	46.42
299.022	58.71
299.236	17.75
299.451	38.23
299.665	7.51
299.88	-15.02
300.094	9.56
300.309	56.66
300.523	30.04
300.737	27.99
300.952	66.9
301.166	21.84
301.381	42.32
301.595	46.42
301.809	9.56
302.024	54.61
302.238	23.89
302.452	44.37
302.667	15.7
302.881	66.9
303.095	42.32
303.309	27.99
303.524	-64.17
303.738	32.08
303.952	-60.07
304.166	91.48
304.381	-31.4
304.595	46.42
304.809	38.23
305.023	5.46
305.237	-21.16
305.452	42.32
305.666	81.24
305.88	17.75
306.094	50.52
306.308	9.56
306.522	58.71
306.736	111.96
306.95	46.42
307.164	75.09
307.379	19.8
307.593	19.8
307.807	89.43
308.021	50.52
308.235	87.38
308.449	-29.35
308.663	-113.32
308.877	60.76
309.091	-17.07
309.305	60.76
309.519	42.32
309.733	40.28
309.947	-41.64
310.161	83.28
310.374	-4.78
310.588	52.56
310.802	79.19
311.016	40.28
311.23	116.05
311.444	99.67
311.658	-12.97
311.872	38.23
312.085	-8.87
312.299	93.52
312.513	-62.12
312.727	25.94
312.941	17.75
313.154	107.86
313.368	1.37
313.582	-15.02
313.796	44.37
314.009	5.46
314.223	68.95
314.437	3.41
314.651	91.48
314.864	91.48
315.078	56.66
315.292	25.94
315.505	64.85
315.719	13.65
315.933	58.71
316.146	111.96
316.36	-29.35
316.573	79.19
316.787	7.51
317.001	52.56
317.214	27.99
317.428	46.42
317.641	13.65
317.855	17.75
318.068	-47.79
318.282	3.41
318.495	60.76
318.709	11.61
318.922	27.99
319.136	56.66
319.349	42.32
319.563	-23.21
319.776	109.91
319.99	-53.93
320.203	48.47
320.417	9.56
320.63	64.85
320.843	54.61
321.057	34.13
321.27	60.76
321.483	17.75
321.697	-6.83
321.91	83.28
322.124	17.75
322.337	-4.78
322.55	-23.21
322.763	77.14
322.977	46.42
323.19	27.99
323.403	-55.98
323.617	66.9
323.83	54.61
324.043	58.71
324.256	25.94
324.469	19.8
324.683	50.52
324.896	42.32
325.109	66.9
325.322	-2.73
325.535	40.28
325.748	3.41
325.962	11.61
326.175	91.48
326.388	97.62
326.601	93.52
326.814	30.04
327.027	83.28
327.24	85.33
327.453	-6.83
327.666	19.8
327.879	73.04
328.092	66.9
328.305	68.95
328.518	56.66
328.731	9.56
328.944	42.32
329.157	9.56
329.37	75.09
329.583	138.58
329.796	5.46
330.009	11.61
330.222	40.28
330.435	87.38
330.648	107.86
330.861	30.04
331.073	64.85
331.286	9.56
331.499	50.52
331.712	1.37
331.925	25.94
332.138	-35.5
332.35	38.23
332.563	-35.5
332.776	66.9
332.989	36.18
333.202	109.91
333.414	-31.4
333.627	71
333.84	3.41
334.053	77.14
334.265	19.8
334.478	-29.35
334.691	17.75
334.903	27.99
335.116	-23.21
335.329	34.13
335.541	5.46
335.754	87.38
335.966	-29.35
336.179	87.38
336.392	19.8
336.604	19.8
336.817	71
337.029	46.42
337.242	66.9
337.454	3.41
337.667	-15.02
337.88	25.94
338.092	54.61
338.305	34.13
338.517	-0.68
338.729	1.37
338.942	60.76
339.154	50.52
339.367	54.61
339.579	34.13
339.792	-15.02
340.004	73.04
340.217	83.28
340.429	23.89
340.641	64.85
340.854	3.41
341.066	17.75
341.278	81.24
341.491	30.04
341.703	34.13
341.915	1.37
342.128	120.15
342.34	68.95
342.552	-21.16
342.764	60.76
342.977	36.18
343.189	42.32
343.401	-80.55
343.613	-4.78
343.826	3.41
344.038	77.14
344.25	66.9
344.462	50.52
344.674	71
344.886	44.37
345.099	36.18
345.311	30.04
345.523	77.14
345.735	-41.64
345.947	21.84
346.159	25.94
346.371	60.76
346.583	1.37
346.795	50.52
347.007	23.89
347.219	62.8
347.431	97.62
347.643	58.71
347.855	91.48
348.067	99.67
348.279	-37.55
348.491	27.99
348.703	5.46
348.915	60.76
349.127	25.94
349.339	34.13
349.551	46.42
349.763	109.91
349.975	25.94
350.187	140.63
350.399	124.24
350.61	-4.78
350.822	-39.59
351.034	56.66
351.246	60.76
351.458	-70.31
351.669	17.75
351.881	99.67
352.093	27.99
352.305	58.71
352.517	5.46
352.728	68.95
352.94	103.76
353.152	87.38
353.363	73.04
353.575	66.9
353.787	95.57
353.999	-10.92
354.21	109.91
354.422	30.04
354.633	34.13
354.845	25.94
355.057	-27.31
355.268	75.09
355.48	9.56
355.692	17.75
355.903	60.76
356.115	-10.92
356.326	27.99
356.538	81.24
356.749	44.37
356.961	128.34
357.172	-37.55
357.384	-23.21
357.595	89.43
357.807	38.23
358.018	-19.11
358.23	87.38
358.441	21.84
358.653	83.28
358.864	-27.31
359.075	23.89
359.287	21.84
359.498	34.13
359.709	87.38
359.921	58.71
360.132	75.09
360.344	68.95
360.555	66.9
360.766	11.61
360.977	-6.83
361.189	38.23
361.4	-8.87
361.611	-2.73
361.823	36.18
362.034	34.13
362.245	54.61
362.456	71
362.667	27.99
362.879	-15.02
363.09	46.42
363.301	66.9
363.512	3.41
363.723	-62.12
363.935	9.56
364.146	60.76
364.357	9.56
364.568	50.52
364.779	-6.83
364.99	91.48
365.201	19.8
365.412	62.8
365.623	56.66
365.834	66.9
366.045	46.42
366.256	109.91
366.467	-0.68
366.678	30.04
366.889	77.14
367.1	44.37
367.311	114
367.522	101.72
367.733	44.37
367.944	148.82
368.155	81.24
368.366	120.15
368.577	42.32
368.788	73.04
368.999	9.56
369.209	42.32
369.42	132.44
369.631	77.14
369.842	97.62
370.053	91.48
370.264	34.13
370.474	17.75
370.685	81.24
370.896	75.09
371.107	38.23
371.317	42.32
371.528	58.71
371.739	42.32
371.95	27.99
372.16	140.63
372.371	44.37
372.582	54.61
372.792	50.52
373.003	91.48
373.214	5.46
373.424	13.65
373.635	-2.73
373.846	66.9
374.056	120.15
374.267	-2.73
374.477	46.42
374.688	1.37
374.898	-15.02
375.109	38.23
375.319	25.94
375.53	58.71
375.74	60.76
375.951	-4.78
376.161	9.56
376.372	75.09
376.582	1.37
376.793	159.06
377.003	25.94
377.214	21.84
377.424	-6.83
377.635	42.32
377.845	52.56
378.055	1.37
378.266	-19.11
378.476	-10.92
378.686	54.61
378.897	-4.78
379.107	60.76
379.317	87.38
379.528	50.52
379.738	81.24
379.948	-31.4
380.158	60.76
380.369	71
380.579	132.44
380.789	17.75
380.999	36.18
381.21	64.85
381.42	75.09
381.63	77.14
381.84	54.61
382.05	58.71
382.261	34.13
382.471	138.58
382.681	46.42
382.891	91.48
383.101	46.42
383.311	17.75
383.521	73.04
383.731	38.23
383.941	52.56
384.151	118.1
384.361	-12.97
384.571	68.95
384.781	124.24
384.991	120.15
385.201	30.04
385.411	27.99
385.621	50.52
385.831	30.04
386.041	91.48
386.251	42.32
386.461	116.05
386.671	58.71
386.881	66.9
387.091	103.76
387.301	56.66
387.511	101.72
387.72	109.91
387.93	42.32
388.14	21.84
388.35	81.24
388.56	52.56
388.769	85.33
388.979	75.09
389.189	5.46
389.399	68.95
389.609	62.8
389.818	173.39
390.028	124.24
390.238	107.86
390.447	44.37
390.657	99.67
390.867	52.56
391.076	19.8
391.286	34.13
391.496	68.95
391.705	66.9
391.915	95.57
392.125	116.05
392.334	93.52
392.544	99.67
392.753	103.76
392.963	21.84
393.172	79.19
393.382	71
393.591	126.29
393.801	50.52
394.01	101.72
394.22	-21.16
394.429	99.67
394.639	83.28
394.848	103.76
395.058	58.71
395.267	21.84
395.477	101.72
395.686	83.28
395.895	118.1
396.105	148.82
396.314	118.1
396.524	62.8
396.733	17.75
396.942	124.24
397.152	62.8
397.361	66.9
397.57	140.63
397.78	68.95
397.989	50.52
398.198	167.25
398.407	60.76
398.617	103.76
398.826	25.94
399.035	50.52
399.244	107.86
399.453	107.86
399.663	109.91
399.872	105.81
400.081	7.51
400.29	116.05
400.499	75.09
400.708	107.86
400.917	130.39
401.127	101.72
401.336	77.14
401.545	206.16
401.754	109.91
401.963	165.2
402.172	146.77
402.381	99.67
402.59	120.15
402.799	93.52
403.008	77.14
403.217	132.44
403.426	103.76
403.635	99.67
403.844	95.57
404.053	148.82
404.262	144.72
404.471	167.25
404.68	124.24
404.888	97.62
405.097	87.38
405.306	208.21
405.515	118.1
405.724	97.62
405.933	265.55
406.142	154.96
406.35	208.21
406.559	216.4
406.768	134.48
406.977	200.02
407.185	124.24
407.394	197.97
407.603	189.78
407.812	200.02
408.02	200.02
408.229	161.11
408.438	191.83
408.646	157.01
408.855	263.51
409.064	318.8
409.272	234.83
409.481	263.51
409.69	204.11
409.898	265.55
410.107	277.84
410.315	337.23
410.524	238.93
410.733	290.13
410.941	353.62
411.15	413.01
411.358	290.13
411.567	341.33
411.775	230.74
411.984	341.33
412.192	382.29
412.401	402.77
412.609	370
412.818	410.96
413.026	427.34
413.234	398.67
413.443	402.77
413.651	488.78
413.86	515.41
414.068	529.74
414.276	519.5
414.485	513.36
414.693	509.26
414.901	632.14
415.11	501.07
415.318	574.8
415.526	542.03
415.734	593.23
415.943	720.2
416.151	755.02
416.359	701.77
416.567	722.25
416.776	836.94
416.984	814.41
417.192	841.03
417.4	804.17
417.608	765.26
417.817	828.74
418.025	886.09
418.233	1021.25
418.441	906.57
418.649	1078.6
418.857	1049.93
419.065	982.34
419.273	1062.21
419.481	1185.09
419.689	1166.66
419.897	1224
420.105	1246.53
420.313	1303.87
420.521	1355.07
420.729	1287.49
420.937	1379.65
421.145	1398.08
421.353	1543.49
421.561	1570.11
421.769	1545.53
421.977	1764.67
422.185	1674.56
422.393	1738.04
422.601	1885.5
422.809	1836.35
423.017	1905.98
423.224	2012.47
423.432	2139.44
423.64	2030.9
423.848	2258.23
424.056	2123.06
424.263	2317.62
424.471	2460.98
424.679	2495.79
424.887	2618.67
425.094	2729.26
425.302	2635.05
425.51	2757.93
425.718	2755.88
425.925	2749.74
426.133	3011.88
426.341	3132.71
426.548	3312.93
426.756	3265.83
426.964	3138.85
427.171	3423.52
427.379	3419.43
427.586	3659.04
427.794	3620.13
428.001	3917.08
428.209	4091.16
428.417	4042.01
428.624	4369.68
428.832	4246.8
429.039	4138.26
429.247	4326.68
429.454	4582.67
429.662	4994.31
429.869	4680.97
430.076	4973.83
430.284	4752.65
430.491	4949.26
430.699	5305.6
430.906	5301.51
431.114	5467.39
431.321	5588.22
431.528	5696.77
431.736	6018.3
431.943	6319.35
432.15	6132.98
432.358	6219
432.565	6472.95
432.772	6460.66
432.979	6882.54
433.187	6925.55
433.394	7113.96
433.601	7404.77
433.808	7439.59
434.016	7363.81
434.223	7761.12
434.43	8189.14
434.637	7935.2
434.844	8637.65
435.052	8672.47
435.259	8672.47
435.466	8768.72
435.673	8412.37
435.88	9301.19
436.087	9696.45
436.294	9811.14
436.501	9563.33
436.708	9630.91
436.915	10013.88
437.122	10443.96
437.329	10364.09
437.537	10724.53
437.743	10955.95
437.95	10884.27
438.157	11467.94
438.364	11670.69
438.571	11842.72
438.778	11805.86
438.985	12944.53
439.192	12166.3
439.399	12809.36
439.606	12594.33
439.813	13247.63
440.02	14230.65
440.227	13661.32
440.433	13601.93
440.64	14111.87
440.847	13980.8
441.054	14441.59
441.261	14937.2
441.467	15074.42
441.674	15344.75
441.881	16122.98
442.088	16073.82
442.294	15846.5
442.501	16059.49
442.708	16755.8
442.914	17173.58
443.121	17972.29
443.328	17288.27
443.534	18756.66
443.741	18160.7
443.948	17955.91
444.154	19143.73
444.361	19358.77
444.568	19199.02
444.774	19604.52
444.981	19608.62
445.187	20225.06
445.394	21177.36
445.6	20575.26
445.807	22379.52
446.013	21939.21
446.22	22397.95
446.426	22977.53
446.633	23280.63
446.839	24112.1
447.046	23213.04
447.252	24296.42
447.459	24630.24
447.665	24251.36
447.871	25236.44
448.078	26524.61
448.284	25453.52
448.491	26026.95
448.697	27159.48
448.903	27681.71
449.11	27530.16
449.316	27372.47
449.522	27777.97
449.728	28453.8
449.935	28896.16
450.141	28834.72
450.347	29270.93
450.553	28390.31
450.76	28666.78
450.966	29789.07
451.172	29574.03
451.378	30374.79
451.584	29504.4
451.791	30258.06
451.997	30167.94
452.203	31095.67
452.409	30940.03
452.615	30880.64
452.821	29901.71
453.027	29045.66
453.233	30759.81
453.44	29866.89
453.646	30243.72
453.852	30063.5
454.058	30843.77
454.264	29797.26
454.47	30819.2
454.676	29698.96
454.882	30825.34
455.088	28259.24
455.294	28738.46
455.5	29037.47
455.705	29205.4
455.911	28195.75
456.117	27718.57
456.323	27501.49
456.529	25936.84
456.735	27112.38
456.941	26557.38
457.147	26061.77
457.352	25441.23
457.558	25101.27
457.764	25000.92
457.97	24638.43
458.176	24261.6
458.381	24077.29
458.587	22758.39
458.793	23333.87
458.999	22014.98
459.204	23464.94
459.41	22877.18
459.616	21238.8
459.821	21363.73
460.027	21359.63
460.233	20851.74
460.438	19901.48
460.644	19967.01
460.85	19186.74
461.055	18914.36
461.261	18852.92
461.466	17476.68
461.672	16950.35
461.878	18259.01
462.083	17034.32
462.289	16643.16
462.494	16280.67
462.7	16043.1
462.905	15119.47
463.111	15930.47
463.316	15950.95
463.522	15873.12
463.727	15592.55
463.932	15840.36
464.138	15264.88
464.343	15547.5
464.549	15197.29
464.754	15557.74
464.959	15402.09
465.165	15361.13
465.37	14855.28
465.575	14410.87
465.781	15006.83
465.986	14988.4
466.191	14509.18
466.397	14259.32
466.602	13667.46
466.807	14148.73
467.012	14054.53
467.218	13825.15
467.423	13800.58
467.628	13780.1
467.833	14476.41
468.038	14079.1
468.244	13433.99
468.449	14095.49
468.654	13823.11
468.859	13499.53
469.064	13550.73
469.269	13106.32
469.474	13184.14
469.679	13501.58
469.885	12977.3
470.09	13059.21
470.295	12905.62
470.5	12690.58
470.705	13038.73
470.91	12598.42
471.115	12444.82
471.32	12502.17
471.525	12426.39
471.73	12192.92
471.935	12223.64
472.139	11689.12
472.344	11928.74
472.549	11855.01
472.754	11840.67
472.959	11674.79
473.164	11332.78
473.369	11005.1
473.574	11426.98
473.778	11379.88
473.983	11340.97
474.188	11429.03
474.393	10753.2
474.598	10894.51
474.802	10687.67
475.007	10689.71
475.212	10753.2
475.417	10116.28
475.621	10198.2
475.826	10495.16
476.031	10087.61
476.235	9880.77
476.44	10083.52
476.645	9772.22
476.849	10138.81
477.054	9829.57
477.259	9536.71
477.463	9534.66
477.668	9383.11
477.872	9688.26
478.077	9366.73
478.282	9104.59
478.486	9057.48
478.691	9004.24
478.895	9151.69
479.1	9037
479.304	8932.56
479.509	8733.9
479.713	8840.4
479.918	8809.68
480.122	8365.27
480.326	8522.96
480.531	8631.51
480.735	8490.2
480.94	8514.77
481.144	8688.85
481.348	8400.09
481.553	8545.49
481.757	8271.06
481.961	8428.76
482.166	8518.87
482.37	8549.59
482.574	8389.85
482.778	8262.87
482.983	8439
483.187	8271.06
483.391	8506.58
483.595	8469.72
483.8	8256.73
484.004	8547.54
484.208	8502.48
484.412	8277.21
484.616	8408.28
484.821	8191.19
485.025	8023.26
485.229	8514.77
485.433	8336.6
485.637	8402.13
485.841	8262.87
486.045	8183
486.249	8324.31
486.453	8260.82
486.657	8254.68
486.861	8465.62
487.065	8197.34
487.269	8322.26
487.473	8115.42
487.677	8342.74
487.881	8547.54
488.085	8361.17
488.289	8445.14
488.493	8344.79
488.697	8463.57
488.901	8541.39
489.105	8334.55
489.309	8389.85
489.512	8365.27
489.716	8520.92
489.92	8383.7
490.124	8703.18
490.328	8629.46
490.531	8697.04
490.735	8580.31
490.939	8643.79
491.143	8721.62
491.346	8635.6
491.55	8748.24
491.754	8910.03
491.958	8776.91
492.161	8801.49
492.365	8961.23
492.569	8651.99
492.772	8881.36
492.976	9184.46
493.18	9204.94
493.383	9147.59
493.587	9170.12
493.79	9360.58
493.994	9284.81
494.197	9397.45
494.401	9536.71
494.605	9467.08
494.808	9690.31
495.012	9647.3
495.215	9794.75
495.419	9999.55
495.622	9692.35
495.825	9983.16
496.029	9862.33
496.232	10259.64
496.436	10206.39
496.639	10351.8
496.843	10351.8
497.046	10642.61
497.249	10839.22
497.453	10757.3
497.656	10773.68
497.859	11015.34
498.063	10892.46
498.266	11224.23
498.469	11078.83
498.673	11525.29
498.876	11627.68
499.079	11697.31
499.282	11629.73
499.485	11922.59
499.689	11957.41
499.892	12506.26
500.095	12252.31
500.298	12598.42
500.501	12512.41
500.705	12786.83
500.908	13012.11
501.111	13239.44
501.314	13159.56
501.517	13534.34
501.72	13569.16
501.923	13589.64
502.126	13689.99
502.329	14210.17
502.532	14144.64
502.735	14146.69
502.938	14593.14
503.141	14548.09
503.344	14922.87
503.547	15076.46
503.75	15383.66
503.953	15168.62
504.156	15496.3
504.359	15838.31
504.562	15909.99
504.765	16161.89
504.968	16495.71
505.17	16612.44
505.373	16673.88
505.576	17222.73
505.779	17269.84
505.982	17425.48
506.185	17673.29
506.387	17876.04
506.59	17957.96
506.793	18302.01
506.996	18252.86
507.198	18986.04
507.401	18617.4
507.604	19250.22
507.807	19293.23
508.009	19502.12
508.212	19854.37
508.415	19864.61
508.617	20263.97
508.82	20081.7
509.022	20266.02
509.225	20366.37
509.428	20810.78
509.63	21091.35
509.833	21103.64
510.035	21767.18
510.238	21683.21
510.44	22012.93
510.643	22414.34
510.845	22588.41
511.048	22670.33
511.25	23004.15
511.453	23217.14
511.655	23933.93
511.858	23604.21
512.06	23974.89
512.262	24161.25
512.465	23978.98
512.667	24476.64
512.87	24806.36
513.072	25256.92
513.274	25635.79
513.477	25809.87
513.679	25938.89
513.881	26334.15
514.084	26268.61
514.286	26758.08
514.488	26821.56
514.69	27585.46
514.893	27370.42
515.095	27808.68
515.297	28117.93
515.499	28056.49
515.701	28486.56
515.904	28892.06
516.106	29004.7
516.308	29170.58
516.51	29479.83
516.712	29963.15
516.914	29987.72
517.116	30618.5
517.318	30647.17
517.52	31019.9
517.722	30944.13
517.925	31376.25
518.127	31990.64
518.329	32027.5
518.531	31720.31
518.733	32615.27
518.935	32770.91
519.136	33243.99
519.338	33471.32
519.54	33760.08
519.742	33903.44
519.944	33903.44
520.146	34702.15
520.348	34845.51
520.55	34739.01
520.752	35107.65
520.954	36045.62
521.155	35511.1
521.357	36055.86
521.559	36627.24
521.761	36528.94
521.963	36909.86
522.164	36997.92
522.366	37241.63
522.568	37448.47
522.77	37903.12
522.971	38302.48
523.173	38073.1
523.375	38466.31
523.576	38613.77
523.778	38681.35
523.98	39254.78
524.181	39320.32
524.383	39215.87
524.584	39934.71
524.786	40059.63
524.988	39598.84
525.189	40592.11
525.391	41003.75
525.592	40676.07
525.794	41046.75
525.995	40964.84
526.197	40901.35
526.398	41173.73
526.6	41652.95
526.801	41632.47
527.003	41790.17
527.204	41667.29
527.406	42449.61
527.607	41812.7
527.808	42517.2
528.01	41939.67
528.211	42349.26
528.412	43223.75
528.614	43037.38
528.815	42812.1
529.016	43741.88
529.218	42803.91
529.419	43365.06
529.62	43391.68
529.822	42877.64
530.023	43440.83
530.224	43395.78
530.425	43336.38
530.626	43031.24
530.828	43408.06
531.029	44169.91
531.23	43389.63
531.431	43791.03
531.632	44098.23
531.833	44087.99
532.035	43721.4
532.236	44176.05
532.437	44092.08
532.638	44008.12
532.839	44442.29
533.04	44128.95
533.241	43803.32
533.442	44896.94
533.643	44348.08
533.844	44020.41
534.045	44212.91
534.246	44094.13
534.447	44618.41
534.648	44364.46
534.849	44653.23
535.05	44112.56
535.251	44303.03
535.451	44430
535.652	44372.66
535.853	44378.8
536.054	44901.03
536.255	44722.86
536.456	44212.91
536.657	44866.22
536.857	44217.01
537.058	44339.89
537.259	44599.98
537.46	44939.94
537.66	44735.15
537.861	44538.54
538.062	44528.3
538.263	44473.01
538.463	44444.34
538.664	44176.05
538.865	45044.39
539.065	45005.48
539.266	44071.6
539.466	45314.72
539.667	44339.89
539.868	44878.5
540.068	44853.93
540.269	44712.62
540.469	44704.43
540.67	44741.29
540.87	44192.43
541.071	44231.35
541.271	45214.37
541.472	44673.71
541.672	44096.18
541.873	44530.35
542.073	44495.53
542.274	44380.85
542.474	44487.34
542.675	44241.59
542.875	44874.41
543.075	44317.36
543.276	44446.38
543.476	44980.9
543.676	43875
543.877	44503.73
544.077	44350.13
544.277	44395.18
544.478	44231.35
544.678	44542.64
544.878	44141.24
545.078	44133.04
545.279	44251.83
545.479	44266.16
545.679	44604.08
545.879	44327.6
546.079	44217.01
546.28	43973.3
546.48	43823.8
546.68	44339.89
546.88	44432.05
547.08	44683.95
547.28	44423.86
547.48	44044.98
547.68	44212.91
547.88	44059.32
548.081	44059.32
548.281	44210.87
548.481	44036.79
548.681	44571.31
548.881	44192.43
549.081	44192.43
549.28	44120.76
549.48	44616.36
549.68	44114.61
549.88	45114.02
550.08	44028.6
550.28	44096.18
550.48	44153.52
550.68	44260.02
550.88	43807.42
551.08	44188.34
551.279	43936.44
551.479	43762.36
551.679	44128.95
551.879	43891.38
552.079	44069.56
552.278	43719.35
552.478	43891.38
552.678	43885.24
552.878	44102.32
553.077	44030.65
553.277	43715.26
553.477	43965.11
553.676	43780.79
553.876	43834.04
554.076	43731.64
554.275	43512.51
554.475	43625.15
554.674	44153.52
554.874	44067.51
555.074	43616.96
555.273	43702.97
555.473	43907.77
555.672	43569.85
555.872	43745.98
556.071	43872.95
556.271	43504.32
556.47	43397.82
556.67	42996.42
556.869	43403.97
557.068	43387.58
557.268	43379.39
557.467	43082.44
557.667	43209.41
557.866	43244.23
558.065	43000.52
558.265	43139.78
558.464	43246.27
558.663	43047.62
558.863	42871.5
559.062	43340.48
559.261	42492.62
559.461	42973.89
559.66	42496.72
559.859	43104.96
560.058	42107.6
560.258	42951.37
560.457	41972.44
560.656	42838.73
560.855	42359.5
561.054	42713.8
561.253	42498.76
561.453	42226.38
561.652	42123.99
561.851	42349.26
562.05	41941.72
562.249	42183.38
562.448	42570.44
562.647	42466
562.846	42201.81
563.045	42205.91
563.244	41544.41
563.443	42138.32
563.642	41403.1
563.841	41603.8
564.04	41163.49
564.239	41865.94
564.438	41001.7
564.637	41689.82
564.836	41540.32
565.035	40983.27
565.234	41386.72
565.432	41059.04
565.631	41059.04
565.83	41114.34
566.029	41018.08
566.228	40581.87
566.427	41056.99
566.625	40426.22
566.824	40327.92
567.023	40983.27
567.222	40006.39
567.42	40702.7
567.619	40565.48
567.818	40311.53
568.016	40246
568.215	40477.42
568.414	40024.82
568.612	40233.71
568.811	40182.51
569.01	40153.84
569.208	39373.56
569.407	40205.04
569.605	39439.1
569.804	39842.55
570.002	39617.27
570.201	39514.87
570.4	39224.06
570.598	39242.49
570.797	39004.93
570.995	39043.84
571.193	38796.04
571.392	39441.15
571.59	39033.6
571.789	38779.65
571.987	38746.89
572.186	38753.03
572.384	38705.93
572.582	38556.42
572.781	38431.5
572.979	37860.12
573.177	38161.17
573.376	38269.71
573.574	38155.02
573.772	38214.41
573.971	37985.04
574.169	37679.89
574.367	37602.07
574.565	38017.81
574.763	37622.55
574.962	37616.41
575.16	37149.47
575.358	37755.67
575.556	36954.91
575.754	37229.34
575.952	36680.49
576.151	37753.62
576.349	36604.71
576.547	37002.02
576.745	36870.95
576.943	36559.66
577.141	36682.53
577.339	36530.98
577.537	36303.66
577.735	36242.22
577.933	36582.18
578.131	36027.18
578.329	35744.56
578.527	35885.87
578.725	36047.66
578.923	35748.66
579.121	36094.77
579.319	36010.8
579.516	35486.52
579.714	35719.99
579.912	35377.98
580.11	35214.14
580.308	34997.06
580.506	34894.66
580.704	34892.61
580.901	34734.92
581.099	34853.7
581.297	34609.99
581.495	34607.94
581.692	34425.67
581.89	34448.2
582.088	34405.19
582.285	34329.42
582.483	34415.43
582.681	34364.23
582.878	34091.85
583.076	33594.2
583.274	34026.32
583.471	33665.88
583.669	33401.69
583.866	33481.56
584.064	33657.68
584.262	33182.56
584.459	33555.29
584.657	33080.16
584.854	33311.58
585.052	32990.05
585.249	33194.84
585.447	33344.34
585.644	32553.83
585.841	32881.5
586.039	32979.81
586.236	31959.92
586.434	32717.67
586.631	31939.44
586.828	32441.19
587.026	32525.16
587.223	32242.54
587.42	32174.95
587.618	32310.12
587.815	31732.59
588.012	31921.01
588.21	31863.66
588.407	32039.79
588.604	31230.84
588.801	31282.04
588.999	31181.69
589.196	31421.3
589.393	31251.32
589.59	31024
589.787	31097.72
589.984	30690.18
590.182	30589.83
590.379	30882.69
590.576	30542.72
590.773	30679.94
590.97	30321.54
591.167	30557.06
591.364	30069.64
591.561	30485.38
591.758	29891.47
591.955	29780.88
592.152	30118.79
592.349	29731.73
592.546	29844.37
592.743	29744.02
592.94	29707.15
593.137	29580.18
593.334	29987.72
593.531	29420.44
593.727	29500.31
593.924	28922.78
594.121	29340.57
594.318	29201.3
594.515	28781.47
594.712	28844.96
594.908	28926.88
595.105	28947.36
595.302	28738.46
595.499	28412.84
595.696	28447.65
595.892	28259.24
596.089	28461.99
596.286	28527.52
596.482	28310.44
596.679	28279.72
596.876	28185.51
597.072	27935.66
597.269	27790.25
597.466	27726.77
597.662	27704.24
597.859	27823.02
598.055	27761.58
598.252	27376.56
598.448	27831.21
598.645	27274.17
598.841	27057.08
599.038	27055.03
599.234	27225.01
599.431	27009.98
599.627	26940.35
599.824	27057.08
600.02	26860.48
600.217	26659.77
600.413	26713.02
600.609	26268.61
600.806	26604.48
601.002	26309.57
601.198	26158.02
601.395	26155.97
601.591	26319.81
601.787	25897.93
601.984	26037.19
602.18	26033.1
602.376	25942.99
602.572	25512.91
602.769	25496.53
602.965	25326.55
603.161	25531.34
603.357	25357.27
603.553	25383.89
603.75	25287.64
603.946	25197.52
604.142	25105.37
604.338	25021.4
604.534	25031.64
604.73	24660.96
604.926	24712.16
605.122	24744.92
605.318	24632.29
605.514	24173.54
605.71	24419.3
605.906	24609.76
606.102	24706.01
606.298	24511.46
606.494	24224.74
606.69	24071.14
606.886	24271.84
607.082	23933.93
607.278	24191.97
607.474	23739.37
607.67	23849.96
607.866	23458.8
608.062	23821.29
608.257	23667.69
608.453	23669.74
608.649	23505.9
608.845	23692.27
609.041	23284.72
609.236	23403.5
609.432	23288.82
609.628	23143.41
609.824	23290.87
610.019	23084.02
610.215	23075.83
610.411	23034.87
610.606	22983.67
610.802	22924.28
610.998	22901.75
611.193	22699
611.389	22819.83
611.584	22809.59
611.78	22676.48
611.976	22467.58
612.171	22610.94
612.367	22592.51
612.562	22768.63
612.758	22199.3
612.953	22060.04
613.149	22592.51
613.344	22426.62
613.539	22246.4
613.735	22242.31
613.93	21924.87
614.126	21842.95
614.321	22307.84
614.517	21988.36
614.712	21697.55
614.907	21900.3
615.103	21957.64
615.298	21834.76
615.493	22264.83
615.688	21482.51
615.884	21853.19
616.079	21367.82
616.274	21419.02
616.47	21564.43
616.665	21552.14
616.86	21548.04
617.055	21607.44
617.25	21345.3
617.445	21507.09
617.641	21099.54
617.836	21425.17
618.031	20837.4
618.226	21160.98
618.421	21087.25
618.616	21177.36
618.811	20853.78
619.006	20993.04
619.201	20565.02
619.396	20282.4
619.591	20263.97
619.786	20495.39
619.981	19960.87
620.176	20646.94
620.371	20235.3
620.566	20069.41
620.761	19768.36
620.956	20169.76
621.151	19872.81
621.346	20030.5
621.541	19571.75
621.735	19600.43
621.93	19403.82
622.125	19158.06
622.32	19031.09
622.515	19186.74
622.709	18875.45
622.904	18705.46
623.099	18789.43
623.294	18975.8
623.488	18416.7
623.683	18664.5
623.878	18250.81
624.072	18529.34
624.267	18363.45
624.462	18197.57
624.656	18201.66
624.851	17871.94
625.046	17996.87
625.24	17632.33
625.435	17607.75
625.629	17359.95
625.824	17675.34
626.018	17288.27
626.213	17015.89
626.407	17357.9
626.602	16800.85
626.796	17214.54
626.991	17165.39
627.185	16866.39
627.38	16739.41
627.574	16641.11
627.768	16483.42
627.963	16397.4
628.157	16438.36
628.352	16362.59
628.546	16266.33
628.74	16225.37
628.935	16131.17
629.129	16045.15
629.323	15500.39
629.517	15723.62
629.712	15832.16
629.906	15692.9
630.1	15410.28
630.294	15461.48
630.489	15426.67
630.683	15344.75
630.877	15158.38
631.071	15002.74
631.265	15221.87
631.459	15035.5
631.653	14799.99
631.848	14955.63
632.042	14632.05
632.236	14507.13
632.43	14670.97
632.624	14677.11
632.818	14296.19
633.012	14357.63
633.206	14296.19
633.4	14322.81
633.594	14046.33
633.788	13964.42
633.982	13941.89
634.176	14156.93
634.369	13964.42
634.563	13784.19
634.757	13563.01
634.951	13714.56
635.145	13585.54
635.339	13542.53
635.533	13403.27
635.726	13558.92
635.92	13149.32
636.114	13319.31
636.308	12995.73
636.501	13347.98
636.695	13024.4
636.889	12907.66
637.083	12854.42
637.276	12715.16
637.47	12639.38
637.664	12788.88
637.857	12715.16
638.051	12532.89
638.244	12350.62
638.438	12268.7
638.632	12201.12
638.825	12215.45
639.019	12113.05
639.212	12063.9
639.406	12027.04
639.599	12135.58
639.793	12010.65
639.986	11879.58
640.18	11779.23
640.373	11650.21
640.567	11547.81
640.76	11693.22
640.954	11551.91
641.147	11480.23
641.34	11297.96
641.534	11369.64
641.727	11230.38
641.92	11195.56
642.114	11187.37
642.307	11193.51
642.5	11119.79
642.694	10996.91
642.887	10763.44
643.08	11027.63
643.273	10757.3
643.467	10751.15
643.66	10603.7
643.853	10460.34
644.046	10636.47
644.239	10495.16
644.432	10394.81
644.626	10280.12
644.819	10216.63
645.012	10284.22
645.205	10239.16
645.398	10104
645.591	10009.79
645.784	10130.62
645.977	9792.7
646.17	9966.78
646.363	9614.53
646.556	9612.48
646.749	9651.39
646.942	9899.2
647.135	9827.52
647.328	9450.69
647.521	9409.73
647.714	9356.49
647.907	9258.18
648.099	9434.31
648.292	9397.45
648.485	9503.94
648.678	9200.84
648.871	9266.38
649.064	8994
649.256	9053.39
649.449	8873.17
649.642	8873.17
649.835	8957.13
650.027	8867.02
650.22	8897.74
650.413	8692.94
650.605	8719.57
650.798	8684.75
650.991	8561.87
651.183	8332.5
651.376	8340.69
651.568	8443.09
651.761	8389.85
651.954	8348.89
652.146	8256.73
652.339	8381.65
652.531	8133.85
652.724	8236.25
652.916	8086.75
653.109	7929.05
653.301	7857.37
653.494	8070.36
653.686	7988.44
653.879	7849.18
654.071	7984.35
654.263	7814.37
654.456	7716.06
654.648	7630.05
654.84	7570.66
655.033	7402.72
655.225	7441.64
655.417	7443.68
655.61	7378.15
655.802	7331.05
655.994	7267.56
656.186	7279.85
656.379	7189.74
656.571	7312.61
656.763	7105.77
656.955	7156.97
657.148	7048.43
657.34	7138.54
657.532	7054.57
657.724	6954.22
657.916	6972.65
658.108	6894.83
658.3	6784.24
658.492	6939.88
658.684	6651.12
658.876	6821.1
659.068	6710.51
659.26	6601.97
659.452	6538.48
659.644	6665.46
659.836	6448.37
660.028	6489.33
660.22	6333.68
660.412	6456.56
660.604	6368.5
660.796	6270.2
660.988	6204.66
661.18	6157.56
661.372	6284.53
661.563	6216.95
661.755	6204.66
661.947	6106.36
662.139	6167.8
662.331	5876.99
662.522	5825.79
662.714	5913.85
662.906	5866.75
663.097	6102.26
663.289	5752.06
663.481	5639.42
663.673	5690.62
663.864	5760.25
664.056	5604.61
664.247	5700.86
664.439	5670.14
664.631	5653.76
664.822	5604.61
665.014	5623.04
665.205	5418.24
665.397	5268.74
665.588	5438.72
665.78	5278.98
665.971	5342.47
666.163	5272.84
666.354	5303.56
666.546	5285.12
666.737	5170.44
666.929	5082.38
667.12	5129.48
667.311	5072.14
667.503	5113.1
667.694	5041.42
667.885	5020.94
668.077	4975.88
668.268	4803.85
668.459	4967.69
668.651	4863.24
668.842	4863.24
669.033	4830.48
669.224	4742.41
669.416	4842.76
669.607	4769.04
669.798	4693.26
669.989	4740.36
670.18	4588.82
670.371	4664.59
670.563	4586.77
670.754	4586.77
670.945	4572.43
671.136	4543.76
671.327	4633.87
671.518	4527.38
671.709	4547.86
671.9	4603.15
672.091	4572.43
672.282	4433.17
672.473	4334.87
672.664	4490.51
672.855	4377.87
673.046	4318.48
673.237	4388.11
673.428	4338.96
673.619	4252.95
673.809	4277.52
674	4347.15
674.191	4279.57
674.382	4177.17
674.573	4218.13
674.764	4132.12
674.954	4164.89
675.145	4031.77
675.336	4173.08
675.527	4062.49
675.717	4195.61
675.908	4056.34
676.099	3968.28
676.289	4134.17
676.48	3968.28
676.671	3999
676.861	4039.96
677.052	4042.01
677.243	3923.23
677.433	4042.01
677.624	3964.18
677.814	3935.51
678.005	3798.3
678.195	3976.47
678.386	3878.17
678.576	3839.26
678.767	3878.17
678.957	3833.11
679.148	3925.27
679.338	3788.06
679.529	3849.5
679.719	3732.76
679.909	3943.71
680.1	3829.02
680.29	3886.36
680.481	3589.41
680.671	3777.82
680.861	3740.96
681.052	3679.52
681.242	3679.52
681.432	3728.67
681.622	3663.13
681.813	3704.09
682.003	3728.67
682.193	3740.96
682.383	3794.2
682.573	3579.17
682.764	3605.79
682.954	3618.08
683.144	3689.76
683.334	3679.52
683.524	3597.6
683.714	3622.17
683.904	3654.94
684.094	3556.64
684.284	3620.13
684.474	3712.28
684.664	3728.67
684.854	3501.34
685.044	3683.61
685.234	3507.49
685.424	3609.89
685.614	3697.95
685.804	3575.07
685.994	3462.43
686.184	3433.76
686.374	3409.19
686.564	3427.62
686.753	3484.96
686.943	3306.79
687.133	3497.25
687.323	3493.15
687.513	3435.81
687.702	3519.78
687.892	3577.12
688.082	3454.24
688.272	3505.44
688.461	3507.49
688.651	3347.75
688.841	3249.44
689.03	3343.65
689.22	3425.57
689.41	3335.46
689.599	3224.87
689.789	3351.84
689.979	3175.72
690.168	3321.12
690.358	3364.13
690.547	3345.7
690.737	3237.16
690.926	3280.16
691.116	3118.37
691.305	3288.36
691.495	3288.36
691.684	3159.33
691.874	3181.86
692.063	3216.68
692.252	3218.72
692.442	3138.85
692.631	3142.95
692.82	3241.25
693.01	3118.37
693.199	3179.81
693.388	3110.18
693.578	3155.24
693.767	3214.63
693.956	3265.83
694.146	3083.56
694.335	3179.81
694.524	3097.89
694.713	3042.6
694.902	2977.06
695.092	3056.93
695.281	3040.55
695.47	3058.98
695.659	2925.86
695.848	2981.16
696.037	3009.83
696.226	2999.59
696.415	3007.78
696.604	2966.82
696.793	2960.68
696.982	2932.01
697.171	2993.45
697.36	2921.77
697.549	2893.1
697.738	3081.51
697.927	2884.91
698.116	2966.82
698.305	2977.06
698.494	2917.67
698.683	2966.82
698.872	2921.77
699.061	2868.52
699.25	2823.47
699.438	3056.93
699.627	2889
699.816	2886.95
700.005	2950.44
700.193	2975.02
700.382	2909.48
700.571	2805.03
700.76	2827.56
700.948	2905.38
701.137	2829.61
701.326	2725.16
701.514	2753.84
701.703	2809.13
701.892	2819.37
702.08	2868.52
702.269	2802.99
702.457	2690.35
702.646	2864.43
702.834	2714.92
703.023	2667.82
703.212	2848.04
703.4	2714.92
703.589	2764.08
703.777	2876.71
703.965	2600.24
704.154	2676.01
704.342	2676.01
704.531	2643.24
704.719	2661.68
704.907	2669.87
705.096	2667.82
705.284	2598.19
705.472	2655.53
705.661	2606.38
705.849	2751.79
706.037	2616.62
706.226	2649.39
706.414	2630.96
706.602	2524.46
706.79	2592.05
706.979	2663.72
707.167	2458.93
707.355	2538.8
707.543	2620.72
707.731	2635.05
707.919	2512.18
708.107	2680.11
708.296	2616.62
708.484	2452.78
708.672	2495.79
708.86	2493.74
709.048	2510.13
709.236	2524.46
709.424	2516.27
709.612	2487.6
709.8	2460.98
709.988	2600.24
710.176	2430.26
710.364	2647.34
710.551	2463.02
710.739	2393.39
710.927	2573.61
711.115	2368.82
711.303	2512.18
711.491	2477.36
711.679	2483.5
711.866	2426.16
712.054	2420.02
712.242	2475.31
712.43	2381.1
712.617	2354.48
712.805	2432.3
712.993	2479.41
713.181	2428.21
713.368	2409.78
713.556	2344.24
713.744	2239.8
713.931	2409.78
714.119	2372.91
714.306	2411.82
714.494	2387.25
714.682	2356.53
714.869	2329.91
715.057	2430.26
715.244	2417.97
715.432	2440.5
715.619	2325.81
715.807	2278.71
715.994	2288.95
716.182	2256.18
716.369	2305.33
716.556	2262.32
716.744	2313.52
716.931	2286.9
717.119	2327.86
717.306	2184.5
717.493	2268.47
717.681	2256.18
717.868	2178.36
718.055	2315.57
718.242	2340.15
718.43	2311.47
718.617	2338.1
718.804	2305.33
718.991	2256.18
719.179	2172.21
719.366	2196.79
719.553	2176.31
719.74	2174.26
719.927	2221.36
720.114	2125.11
720.301	2207.03
720.488	2182.45
720.676	2141.49
720.863	2211.12
721.05	2319.67
721.237	2155.83
721.424	2125.11
721.611	2202.93
721.798	2217.27
721.985	2114.87
722.172	2020.66
722.358	2108.73
722.545	2055.48
722.732	2155.83
722.919	2078.01
723.106	2114.87
723.293	2108.73
723.48	2131.25
723.667	2155.83
723.853	2082.1
724.04	2067.77
724.227	2196.79
724.414	2061.62
724.6	2065.72
724.787	2041.14
724.974	2059.57
725.161	2024.76
725.347	2000.18
725.534	2088.25
725.72	2028.85
725.907	2051.38
726.094	2067.77
726.28	1994.04
726.467	1965.37
726.653	1946.94
726.84	1991.99
727.027	1946.94
727.213	2016.57
727.4	2041.14
727.586	1994.04
727.773	2059.57
727.959	1959.22
728.145	2008.37
728.332	2004.28
728.518	1975.61
728.705	2000.18
728.891	2008.37
729.077	2016.57
729.264	1930.55
729.45	1977.66
729.636	2010.42
729.823	1893.69
730.009	2010.42
730.195	2008.37
730.382	1897.78
730.568	1924.41
730.754	1994.04
730.94	1893.69
731.126	1946.94
731.313	2004.28
731.499	1893.69
731.685	2032.95
731.871	1852.73
732.057	1883.45
732.243	1897.78
732.429	1946.94
732.615	1848.63
732.801	1985.85
732.987	1934.65
733.173	1883.45
733.359	1865.02
733.545	1879.35
733.731	1776.95
733.917	1895.74
734.103	1942.84
734.289	1885.5
734.475	1787.19
734.661	1910.07
734.847	1928.5
735.033	1817.91
735.219	1813.82
735.404	1865.02
735.59	1803.58
735.776	1770.81
735.962	1848.63
736.148	1830.2
736.333	1871.16
736.519	1871.16
736.705	1797.43
736.89	1787.19
737.076	1770.81
737.262	1764.67
737.447	1729.85
737.633	1779
737.819	1848.63
738.004	1795.39
738.19	1787.19
738.375	1844.54
738.561	1774.91
738.747	1758.52
738.932	1721.66
739.118	1717.56
739.303	1850.68
739.489	1787.19
739.674	1627.45
739.859	1742.14
740.045	1709.37
740.23	1742.14
740.416	1738.04
740.601	1643.84
740.786	1676.6
740.972	1643.84
741.157	1639.74
741.342	1664.32
741.528	1697.08
741.713	1627.45
741.898	1676.6
742.084	1527.1
742.269	1713.47
742.454	1729.85
742.639	1590.59
742.824	1639.74
743.01	1656.12
743.195	1631.55
743.38	1590.59
743.565	1574.21
743.75	1680.7
743.935	1537.34
744.12	1545.53
744.305	1582.4
744.49	1584.45
744.675	1596.73
744.86	1525.05
745.045	1594.68
745.23	1459.52
745.415	1471.81
745.6	1514.81
745.785	1488.19
745.97	1537.34
746.155	1541.44
746.34	1574.21
746.525	1500.48
746.71	1525.05
746.895	1508.67
747.079	1484.09
747.264	1447.23
747.449	1467.71
747.634	1496.38
747.819	1406.27
748.003	1377.6
748.188	1340.74
748.373	1365.31
748.557	1459.52
748.742	1369.41
748.927	1426.75
749.111	1410.37
749.296	1320.26
749.481	1377.6
749.665	1363.26
749.85	1377.6
750.034	1389.89
750.219	1314.11
750.404	1279.3
750.588	1301.83
750.773	1250.63
750.957	1156.42
751.141	1209.67
751.326	1322.31
751.51	1221.95
751.695	1185.09
751.879	1238.34
752.064	1316.16
752.248	1232.19
752.432	1299.78
752.617	1199.43
752.801	1168.71
752.985	1166.66
753.17	1178.95
753.354	1156.42
753.538	1203.52
753.722	1176.9
753.907	1213.76
754.091	1181
754.275	1078.6
754.459	1164.61
754.643	1094.98
754.828	1166.66
755.012	1129.8
755.196	1060.17
755.38	1090.88
755.564	1066.31
755.748	1119.56
755.932	1033.54
756.116	1021.25
756.3	1121.6
756.484	1019.21
756.668	1092.93
756.852	1056.07
757.036	912.71
757.22	1056.07
757.404	1017.16
757.588	986.44
757.772	1123.65
757.956	1035.59
758.14	1011.01
758.323	949.57
758.507	1054.02
758.691	929.1
758.875	1002.82
759.059	963.91
759.242	877.9
759.426	910.66
759.61	859.46
759.794	986.44
759.977	1008.97
760.161	1074.5
760.345	947.53
760.528	959.81
760.712	879.94
760.895	902.47
761.079	943.43
761.263	929.1
761.446	836.94
761.63	861.51
761.813	838.98
761.997	951.62
762.18	861.51
762.364	959.81
762.547	851.27
762.731	884.04
762.914	931.14
763.098	847.18
763.281	804.17
763.464	783.69
763.648	886.09
763.831	896.33
764.015	804.17
764.198	818.5
764.381	890.18
764.564	836.94
764.748	709.96
764.931	763.21
765.114	814.41
765.297	869.7
765.481	689.48
765.664	828.74
765.847	714.06
766.03	798.03
766.213	746.83
766.397	771.4
766.58	812.36
766.763	808.26
766.946	820.55
767.129	752.97
767.312	871.75
767.495	759.11
767.678	714.06
767.861	755.02
768.044	732.49
768.227	779.59
768.41	789.83
768.593	765.26
768.776	763.21
768.959	738.63
769.142	838.98
769.324	787.79
769.507	763.21
769.69	773.45
769.873	705.87
770.056	718.15
770.239	734.54
770.421	709.96
770.604	714.06
770.787	726.35
770.97	664.91
771.152	722.25
771.335	648.52
771.518	656.72
771.7	669
771.883	709.96
772.066	722.25
772.248	638.28
772.431	802.12
772.613	675.15
772.796	748.87
772.978	701.77
773.161	685.39
773.343	656.72
773.526	697.67
773.708	623.95
773.891	673.1
774.073	656.72
774.256	683.34
774.438	681.29
774.621	603.47
774.803	691.53
774.985	572.75
775.168	736.59
775.35	582.99
775.532	603.47
775.715	630.09
775.897	642.38
776.079	644.43
776.261	656.72
776.444	613.71
776.626	593.23
776.808	546.12
776.99	609.61
777.173	470.35
777.355	554.32
777.537	597.32
777.719	582.99
777.901	566.6
778.083	509.26
778.265	603.47
778.447	574.8
778.629	554.32
778.811	564.56
778.993	570.7
779.175	517.45
779.357	490.83
779.539	501.07
779.721	462.16
779.903	529.74
780.085	472.4
780.267	552.27
780.449	492.88
780.631	503.12
780.812	503.12
780.994	484.69
781.176	470.35
781.358	494.93
781.54	468.3
781.721	494.93
781.903	488.78
782.085	564.56
782.267	513.36
782.448	431.44
782.63	480.59
782.812	470.35
782.993	458.06
783.175	503.12
783.357	402.77
783.538	509.26
783.72	447.82
783.901	394.58
784.083	417.1
784.264	415.05
784.446	374.1
784.627	353.62
784.809	464.21
784.99	349.52
785.172	355.66
785.353	394.58
785.535	462.16
785.716	402.77
785.897	413.01
786.079	427.34
786.26	353.62
786.441	390.48
786.623	355.66
786.804	359.76
786.985	367.95
787.167	429.39
787.348	437.58
787.529	275.79
787.71	400.72
787.891	400.72
788.073	367.95
788.254	359.76
788.435	419.15
788.616	331.09
788.797	331.09
788.978	449.87
789.159	324.94
789.34	337.23
789.522	296.27
789.703	329.04
789.884	314.7
790.065	306.51
790.246	357.71
790.427	267.6
790.607	316.75
790.788	451.92
790.969	271.7
791.15	263.51
791.331	290.13
791.512	288.08
791.693	234.83
791.874	251.22
792.054	329.04
792.235	304.46
792.416	273.75
792.597	216.4
792.778	337.23
792.958	341.33
793.139	306.51
793.32	304.46
793.5	208.21
793.681	273.75
793.862	271.7
794.042	341.33
794.223	271.7
794.404	298.32
794.584	253.27
794.765	238.93
794.945	165.2
795.126	269.65
795.306	263.51
795.487	222.55
795.667	281.94
795.848	222.55
796.028	214.35
796.209	345.42
796.389	275.79
796.57	273.75
796.75	222.55
796.93	238.93
797.111	157.01
797.291	232.79
797.471	226.64
797.652	255.31
797.832	243.03
798.012	249.17
798.192	218.45
798.373	214.35
798.553	255.31
798.733	243.03
798.913	226.64
799.093	173.39
799.274	206.16
799.454	253.27
799.634	222.55
799.814	265.55
799.994	243.03
800.174	257.36
800.354	224.59
800.534	218.45
800.714	318.8
800.894	181.59
801.074	189.78
801.254	200.02
801.434	175.44
801.614	185.68
801.794	243.03
801.974	722.25
802.154	173.39
802.334	208.21
802.514	136.53
802.693	154.96
802.873	189.78
803.053	189.78
803.233	212.31
803.413	218.45
803.592	169.3
803.772	136.53
803.952	208.21
804.131	230.74
804.311	210.26
804.491	148.82
804.67	130.39
804.85	169.3
805.03	216.4
805.209	185.68
805.389	181.59
805.568	230.74
805.748	214.35
805.928	173.39
806.107	163.15
806.287	130.39
806.466	120.15
806.646	142.68
806.825	183.63
807.004	171.35
807.184	140.63
807.363	116.05
807.543	208.21
807.722	130.39
807.901	202.07
808.081	224.59
808.26	142.68
808.439	148.82
808.619	136.53
808.798	150.87
808.977	208.21
809.156	148.82
809.336	157.01
809.515	132.44
809.694	93.52
809.873	124.24
810.052	161.11
810.231	183.63
810.411	181.59
810.59	255.31
810.769	179.54
810.948	132.44
811.127	103.76
811.306	66.9
811.485	114
811.664	181.59
811.843	107.86
812.022	243.03
812.201	189.78
812.38	99.67
812.559	75.09
812.737	159.06
812.916	146.77
813.095	132.44
813.274	161.11
813.453	142.68
813.632	120.15
813.811	142.68
813.989	136.53
814.168	118.1
814.347	97.62
814.526	58.71
814.704	181.59
814.883	165.2
815.062	107.86
815.24	134.48
815.419	161.11
815.598	79.19
815.776	103.76
815.955	148.82
816.133	60.76
816.312	169.3
816.49	87.38
816.669	148.82
816.847	177.49
817.026	109.91
817.204	95.57
817.383	116.05
817.561	87.38
817.74	25.94
817.918	68.95
818.097	124.24
818.275	91.48
818.453	95.57
818.632	75.09
818.81	107.86
818.988	97.62
819.167	46.42
819.345	52.56
819.523	-6.83
819.701	60.76
819.879	101.72
820.058	42.32
820.236	152.91
820.414	79.19
820.592	89.43
820.77	79.19
820.948	50.52
821.127	148.82
821.305	52.56
821.483	181.59
821.661	144.72
821.839	54.61
822.017	42.32
822.195	150.87
822.373	91.48
822.551	48.47
822.729	105.81
822.907	71
823.085	107.86
823.262	87.38
823.44	19.8
823.618	173.39
823.796	85.33
823.974	118.1
824.152	9.56
824.329	52.56
824.507	111.96
824.685	148.82
824.863	44.37
825.04	124.24
825.218	91.48
825.396	66.9
825.574	87.38
825.751	58.71
825.929	116.05
826.107	34.13
826.284	87.38
826.462	54.61
826.639	36.18
826.817	17.75
826.994	77.14
827.172	30.04
827.349	101.72
827.527	87.38
827.704	111.96
827.882	157.01
828.059	93.52
828.237	36.18
828.414	118.1
828.591	9.56
828.769	136.53
828.946	27.99
829.124	60.76
829.301	42.32
829.478	58.71
829.655	38.23
829.833	60.76
830.01	21.84
830.187	71
830.364	109.91
830.542	91.48
830.719	66.9
830.896	116.05
831.073	32.08
831.25	87.38
831.427	44.37
831.604	32.08
831.782	34.13
831.959	103.76
832.136	50.52
832.313	99.67
832.49	19.8
832.667	150.87
832.844	32.08
833.021	83.28
833.198	95.57
833.374	83.28
833.551	101.72
833.728	109.91
833.905	97.62
834.082	71
834.259	-21.16
834.436	17.75
834.612	73.04
834.789	77.14
834.966	34.13
835.143	38.23
835.319	50.52
835.496	34.13
835.673	83.28
835.85	128.34
836.026	85.33
836.203	99.67
836.38	32.08
836.556	44.37
836.733	38.23
836.909	58.71
837.086	111.96
837.262	-8.87
837.439	38.23
837.616	85.33
837.792	1.37
837.968	44.37
838.145	-45.74
838.321	95.57
838.498	38.23
838.674	87.38
838.851	91.48
839.027	77.14
839.203	42.32
839.38	101.72
839.556	21.84
839.732	107.86
839.909	77.14
840.085	95.57
840.261	25.94
840.437	42.32
840.614	-15.02
840.79	58.71
840.966	9.56
841.142	71
841.318	77.14
841.494	101.72
841.671	42.32
841.847	27.99
842.023	-35.5
842.199	19.8
842.375	23.89
842.551	-4.78
842.727	30.04
842.903	21.84
843.079	-47.79
843.255	103.76
843.431	50.52
843.607	1.37
843.783	58.71
843.959	62.8
844.134	25.94
844.31	77.14
844.486	40.28
844.662	46.42
844.838	111.96
845.013	-19.11
845.189	83.28
845.365	60.76
845.541	9.56
845.716	-6.83
845.892	83.28
846.068	60.76
846.244	13.65
846.419	1.37
846.595	17.75
846.77	38.23
846.946	77.14
847.122	27.99
847.297	32.08
847.473	64.85
847.648	38.23
847.824	75.09
847.999	3.41
848.175	19.8
848.35	1.37
848.526	58.71
848.701	77.14
848.876	107.86
849.052	-23.21
849.227	1.37
849.403	3.41
849.578	54.61
849.753	9.56
849.929	118.1
850.104	68.95
850.279	9.56
850.454	93.52
850.63	21.84
850.805	32.08
850.98	52.56
851.155	114
851.33	60.76
851.505	75.09
851.681	116.05
851.856	-21.16
852.031	1.37
852.206	58.71
852.381	-4.78
852.556	30.04
852.731	36.18
852.906	-31.4
853.081	79.19
853.256	169.3
853.431	83.28
853.606	3.41
853.781	-92.84
853.956	-4.78
854.131	109.91
854.305	34.13
854.48	-6.83
854.655	13.65
854.83	17.75
855.005	-39.59
855.18	13.65
855.354	19.8
855.529	36.18
855.704	3.41
855.879	116.05
856.053	58.71
856.228	66.9
856.403	25.94
856.577	9.56
856.752	52.56
856.926	46.42
857.101	58.71
857.276	-37.55
857.45	75.09
857.625	68.95
857.799	30.04
857.974	34.13
858.148	-86.7
858.323	77.14
858.497	3.41
858.672	60.76
858.846	9.56
859.02	3.41
859.195	46.42
859.369	-0.68
859.543	36.18
859.718	-27.31
859.892	-23.21
860.066	58.71
860.241	44.37
860.415	42.32
860.589	-17.07
860.763	27.99
860.938	50.52
861.112	1.37
861.286	-31.4
861.46	34.13
861.634	17.75
861.808	-12.97
861.982	19.8
862.157	17.75
862.331	-6.83
862.505	11.61
862.679	-19.11
862.853	3.41
863.027	11.61
863.201	77.14
863.375	-15.02
863.549	46.42
863.722	75.09
863.896	87.38
864.07	17.75
864.244	1.37
864.418	68.95
864.592	-6.83
864.766	15.7
864.939	50.52
865.113	-62.12
865.287	56.66
865.461	-62.12
865.634	36.18
865.808	40.28
865.982	36.18
866.156	9.56
866.329	11.61
866.503	-15.02
866.676	62.8
866.85	58.71
867.024	-12.97
867.197	66.9
867.371	-15.02
867.544	-27.31
867.718	21.84
867.891	-21.16
868.065	36.18
868.238	-15.02
868.412	60.76
868.585	-2.73
868.759	-31.4
868.932	-64.17
869.105	-33.45
869.279	-4.78
869.452	-55.98
869.625	9.56
869.799	21.84
869.972	34.13
870.145	19.8
870.319	-23.21
870.492	-12.97
870.665	-29.35
870.838	5.46
871.011	34.13
871.185	-2.73
871.358	17.75
871.531	25.94
871.704	-70.31
871.877	71
872.05	27.99
872.223	44.37
872.396	-101.03
872.569	79.19
872.742	1.37
872.915	-4.78
873.088	-45.74
873.261	-47.79
873.434	11.61
873.607	-15.02
873.78	25.94
873.953	60.76
874.126	13.65
874.299	-4.78
874.471	-43.69
874.644	40.28
874.817	5.46
874.99	58.71
875.163	42.32
875.335	46.42
875.508	-17.07
875.681	64.85
875.853	38.23
876.026	-19.11
876.199	-23.21
876.371	46.42
876.544	77.14
876.717	25.94
876.889	-21.16
877.062	85.33
877.234	11.61
877.407	-23.21
877.579	77.14
877.752	71
877.924	-72.36
878.097	-39.59
878.269	9.56
878.442	1.37
878.614	-21.16
878.786	17.75
878.959	17.75
879.131	-31.4
879.303	34.13
879.476	-19.11
879.648	36.18
879.82	-33.45
879.993	-12.97
880.165	36.18
880.337	-6.83
880.509	-6.83
880.681	5.46
880.854	-55.98
881.026	34.13
881.198	93.52
881.37	-21.16
881.542	1.37
881.714	-29.35
881.886	-19.11
882.058	66.9
882.23	-17.07
882.402	-47.79
882.574	11.61
882.746	5.46
882.918	87.38
883.09	-31.4
883.262	48.47
883.434	44.37
883.606	-43.69
883.778	25.94
883.95	34.13
884.122	38.23
884.293	23.89
884.465	25.94
884.637	30.04
884.809	13.65
884.98	7.51
885.152	1.37
885.324	44.37
885.496	-2.73
885.667	9.56
885.839	-12.97
886.011	114
886.182	9.56
886.354	36.18
886.525	-72.36
886.697	32.08
886.869	-31.4
887.04	-27.31
887.212	-15.02
887.383	25.94
887.555	-19.11
887.726	5.46
887.897	1.37
888.069	-39.59
888.24	-19.11
888.412	9.56
888.583	30.04
888.754	5.46
888.926	-4.78
889.097	-15.02
889.268	7.51
889.44	13.65
889.611	-23.21
889.782	13.65
889.953	-31.4
890.125	66.9
890.296	-37.55
890.467	30.04
890.638	54.61
890.809	5.46
890.98	38.23
891.151	71
891.323	66.9
891.494	60.76
891.665	1.37
891.836	-21.16
892.007	5.46
892.178	-29.35
892.349	-4.78
892.52	11.61
892.691	5.46
892.862	-15.02
893.032	27.99
893.203	-8.87
893.374	38.23
893.545	23.89
893.716	-23.21
893.887	11.61
894.057	17.75
894.228	44.37
894.399	-25.26
894.57	-0.68
894.74	-23.21
894.911	71
895.082	1.37
895.253	1.37
895.423	30.04
895.594	71
895.764	-15.02
895.935	13.65
896.106	-23.21
896.276	1.37
896.447	25.94
896.617	-72.36
896.788	-15.02
896.958	30.04
897.129	-62.12
897.299	17.75
897.47	17.75
897.64	-12.97
897.81	-66.22
897.981	50.52
898.151	-43.69
898.322	50.52
898.492	36.18
898.662	75.09
898.832	-39.59
899.003	11.61
899.173	1.37
899.343	3.41
899.513	-47.79
