Data from USB4F104151__207__14-45-23-849.txt Node

Date: Thu Mar 13 14:45:23 EDT 2025
User: louis
Spectrometer: USB4F10415
Trigger mode: 4
Integration Time (sec): 2.000000E-2
Scans to average: 1
Electric dark correction enabled: true
Nonlinearity correction enabled: false
Boxcar width: 0
XAxis mode: Wavelengths
Number of Pixels in Spectrum: 3648
>>>>>Begin Spectral Data<<<<<
178.204	-142.33
178.424	-142.33
178.644	-142.33
178.864	-101.37
179.084	-134.14
179.304	-11.26
179.524	-15.36
179.744	9.22
179.964	-11.26
180.184	-19.46
180.404	39.94
180.624	-29.7
180.844	-1.02
181.064	-11.26
181.283	62.46
181.503	-23.55
181.723	11.26
181.943	25.6
182.163	82.94
182.383	-27.65
182.602	5.12
182.822	52.22
183.042	-1.02
183.262	-15.36
183.482	64.51
183.701	78.85
183.921	7.17
184.141	-33.79
184.361	13.31
184.58	-19.46
184.8	25.6
185.02	41.98
185.239	91.13
185.459	66.56
185.679	9.22
185.898	-41.98
186.118	-3.07
186.338	29.7
186.557	70.65
186.777	56.32
186.997	17.41
187.216	-15.36
187.436	91.13
187.655	41.98
187.875	78.85
188.095	-21.5
188.314	72.7
188.534	52.22
188.753	62.46
188.973	13.31
189.192	134.14
189.412	-23.55
189.631	93.18
189.851	25.6
190.07	164.86
190.29	33.79
190.509	50.18
190.729	58.37
190.948	52.22
191.168	158.72
191.387	82.94
191.607	66.56
191.826	11.26
192.045	-54.27
192.265	33.79
192.484	54.27
192.704	19.46
192.923	-27.65
193.142	74.75
193.362	41.98
193.581	99.33
193.8	58.37
194.02	50.18
194.239	31.74
194.458	-7.17
194.678	-44.03
194.897	19.46
195.116	11.26
195.335	56.32
195.555	39.94
195.774	17.41
195.993	58.37
196.212	-25.6
196.432	-35.84
196.651	27.65
196.87	-21.5
197.089	91.13
197.308	29.7
197.528	46.08
197.747	-7.17
197.966	-44.03
198.185	27.65
198.404	52.22
198.623	-7.17
198.842	35.84
199.062	66.56
199.281	136.19
199.5	-44.03
199.719	27.65
199.938	-44.03
200.157	11.26
200.376	41.98
200.595	54.27
200.814	76.8
201.033	-23.55
201.252	60.42
201.471	-31.74
201.69	23.55
201.909	-3.07
202.128	3.07
202.347	11.26
202.566	11.26
202.785	11.26
203.004	-72.7
203.223	93.18
203.442	-7.17
203.661	58.37
203.879	-23.55
204.098	80.89
204.317	-62.46
204.536	101.37
204.755	46.08
204.974	48.13
205.193	11.26
205.411	62.46
205.63	33.79
205.849	3.07
206.068	31.74
206.287	9.22
206.505	25.6
206.724	46.08
206.943	-15.36
207.162	5.12
207.381	41.98
207.599	58.37
207.818	58.37
208.037	89.09
208.255	128
208.474	33.79
208.693	-7.17
208.911	21.5
209.13	33.79
209.349	46.08
209.567	27.65
209.786	9.22
210.005	9.22
210.223	78.85
210.442	13.31
210.661	101.37
210.879	23.55
211.098	11.26
211.316	60.42
211.535	76.8
211.753	25.6
211.972	25.6
212.191	9.22
212.409	41.98
212.628	50.18
212.846	44.03
213.065	25.6
213.283	95.23
213.502	99.33
213.72	76.8
213.938	17.41
214.157	39.94
214.375	37.89
214.594	5.12
214.812	74.75
215.031	9.22
215.249	56.32
215.467	-13.31
215.686	58.37
215.904	17.41
216.122	-39.94
216.341	-5.12
216.559	70.65
216.778	74.75
216.996	74.75
217.214	3.07
217.432	29.7
217.651	13.31
217.869	-44.03
218.087	-35.84
218.306	17.41
218.524	123.9
218.742	5.12
218.96	41.98
219.179	46.08
219.397	17.41
219.615	82.94
219.833	-1.02
220.051	-21.5
220.27	31.74
220.488	87.04
220.706	41.98
220.924	-13.31
221.142	5.12
221.36	9.22
221.578	31.74
221.796	54.27
222.015	27.65
222.233	-46.08
222.451	41.98
222.669	11.26
222.887	-3.07
223.105	9.22
223.323	11.26
223.541	-62.46
223.759	-3.07
223.977	-21.5
224.195	76.8
224.413	13.31
224.631	-15.36
224.849	74.75
225.067	125.95
225.285	25.6
225.503	-7.17
225.721	-48.13
225.939	74.75
226.157	41.98
226.375	115.71
226.592	27.65
226.81	27.65
227.028	27.65
227.246	27.65
227.464	29.7
227.682	3.07
227.9	33.79
228.117	68.61
228.335	35.84
228.553	-31.74
228.771	107.52
228.989	95.23
229.206	9.22
229.424	82.94
229.642	66.56
229.86	-11.26
230.077	103.42
230.295	41.98
230.513	64.51
230.731	80.89
230.948	91.13
231.166	-41.98
231.384	19.46
231.601	-3.07
231.819	60.42
232.037	41.98
232.254	5.12
232.472	23.55
232.689	9.22
232.907	46.08
233.125	-54.27
233.342	66.56
233.56	25.6
233.777	25.6
233.995	-48.13
234.213	1.02
234.43	-5.12
234.648	-31.74
234.865	29.7
235.083	19.46
235.3	1.02
235.518	25.6
235.735	27.65
235.953	134.14
236.17	-5.12
236.388	-3.07
236.605	37.89
236.822	-5.12
237.04	99.33
237.257	9.22
237.475	33.79
237.692	99.33
237.909	9.22
238.127	27.65
238.344	-39.94
238.562	74.75
238.779	-87.04
238.996	-15.36
239.214	15.36
239.431	84.99
239.648	29.7
239.865	-3.07
240.083	41.98
240.3	3.07
240.517	33.79
240.735	-3.07
240.952	101.37
241.169	5.12
241.386	21.5
241.603	44.03
241.821	37.89
242.038	82.94
242.255	82.94
242.472	1.02
242.689	1.02
242.907	82.94
243.124	37.89
243.341	44.03
243.558	-50.18
243.775	-48.13
243.992	33.79
244.209	58.37
244.426	80.89
244.643	-3.07
244.86	19.46
245.078	35.84
245.295	82.94
245.512	76.8
245.729	-80.89
245.946	11.26
246.163	66.56
246.38	21.5
246.597	9.22
246.814	54.27
247.031	-56.32
247.248	48.13
247.464	111.61
247.681	5.12
247.898	17.41
248.115	44.03
248.332	27.65
248.549	121.85
248.766	95.23
248.983	13.31
249.2	99.33
249.417	91.13
249.633	58.37
249.85	66.56
250.067	-19.46
250.284	13.31
250.501	74.75
250.717	50.18
250.934	-3.07
251.151	17.41
251.368	9.22
251.585	58.37
251.801	9.22
252.018	-15.36
252.235	23.55
252.451	-5.12
252.668	33.79
252.885	70.65
253.102	1.02
253.318	-52.22
253.535	3.07
253.752	44.03
253.968	-15.36
254.185	21.5
254.401	-31.74
254.618	11.26
254.835	52.22
255.051	29.7
255.268	17.41
255.484	-9.22
255.701	29.7
255.917	68.61
256.134	-44.03
256.351	54.27
256.567	-13.31
256.784	35.84
257	1.02
257.217	27.65
257.433	93.18
257.65	19.46
257.866	82.94
258.082	19.46
258.299	25.6
258.515	41.98
258.732	19.46
258.948	54.27
259.165	48.13
259.381	-5.12
259.597	-48.13
259.814	66.56
260.03	60.42
260.246	-37.89
260.463	82.94
260.679	60.42
260.895	-39.94
261.112	58.37
261.328	11.26
261.544	23.55
261.761	50.18
261.977	11.26
262.193	-39.94
262.409	66.56
262.626	7.17
262.842	11.26
263.058	25.6
263.274	21.5
263.49	91.13
263.707	33.79
263.923	17.41
264.139	9.22
264.355	17.41
264.571	29.7
264.787	91.13
265.004	19.46
265.22	5.12
265.436	19.46
265.652	-13.31
265.868	-5.12
266.084	-48.13
266.3	5.12
266.516	-33.79
266.732	56.32
266.948	39.94
267.164	9.22
267.38	78.85
267.596	62.46
267.812	48.13
268.028	7.17
268.244	-21.5
268.46	9.22
268.676	-13.31
268.892	15.36
269.108	37.89
269.324	17.41
269.54	50.18
269.756	82.94
269.972	-5.12
270.188	74.75
270.403	35.84
270.619	99.33
270.835	-35.84
271.051	17.41
271.267	3.07
271.483	74.75
271.698	35.84
271.914	3.07
272.13	19.46
272.346	50.18
272.562	-7.17
272.777	80.89
272.993	1.02
273.209	48.13
273.425	39.94
273.64	-15.36
273.856	25.6
274.072	-11.26
274.287	1.02
274.503	82.94
274.719	5.12
274.934	58.37
275.15	-7.17
275.366	-3.07
275.581	11.26
275.797	19.46
276.012	25.6
276.228	78.85
276.444	19.46
276.659	35.84
276.875	-29.7
277.09	-15.36
277.306	25.6
277.521	29.7
277.737	-17.41
277.952	-52.22
278.168	21.5
278.383	3.07
278.599	-11.26
278.814	82.94
279.03	15.36
279.245	31.74
279.461	17.41
279.676	44.03
279.892	-97.28
280.107	7.17
280.322	17.41
280.538	-15.36
280.753	-23.55
280.969	111.61
281.184	160.77
281.399	-19.46
281.615	25.6
281.83	91.13
282.045	-25.6
282.26	41.98
282.476	33.79
282.691	58.37
282.906	60.42
283.122	-56.32
283.337	-39.94
283.552	27.65
283.767	48.13
283.983	21.5
284.198	68.61
284.413	58.37
284.628	21.5
284.843	60.42
285.058	78.85
285.274	109.57
285.489	33.79
285.704	66.56
285.919	1.02
286.134	41.98
286.349	37.89
286.564	44.03
286.779	91.13
286.995	60.42
287.21	5.12
287.425	91.13
287.64	17.41
287.855	3.07
288.07	76.8
288.285	-62.46
288.5	33.79
288.715	5.12
288.93	11.26
289.145	52.22
289.36	25.6
289.575	-5.12
289.79	13.31
290.004	70.65
290.219	66.56
290.434	-15.36
290.649	25.6
290.864	23.55
291.079	41.98
291.294	52.22
291.509	46.08
291.724	9.22
291.938	-35.84
292.153	50.18
292.368	-29.7
292.583	84.99
292.798	177.15
293.012	33.79
293.227	-41.98
293.442	9.22
293.657	5.12
293.871	39.94
294.086	9.22
294.301	78.85
294.516	50.18
294.73	17.41
294.945	1.02
295.16	44.03
295.374	70.65
295.589	50.18
295.804	66.56
296.018	58.37
296.233	17.41
296.447	44.03
296.662	3.07
296.877	41.98
297.091	56.32
297.306	9.22
297.52	-3.07
297.735	50.18
297.949	52.22
298.164	111.61
298.378	19.46
298.593	9.22
298.807	21.5
299.022	87.04
299.236	17.41
299.451	46.08
299.665	3.07
299.88	11.26
300.094	-29.7
300.309	93.18
300.523	119.81
300.737	33.79
300.952	56.32
301.166	41.98
301.381	41.98
301.595	56.32
301.809	19.46
302.024	41.98
302.238	-17.41
302.452	52.22
302.667	25.6
302.881	103.42
303.095	82.94
303.309	52.22
303.524	-56.32
303.738	121.85
303.952	1.02
304.166	27.65
304.381	-62.46
304.595	68.61
304.809	15.36
305.023	89.09
305.237	9.22
305.452	52.22
305.666	66.56
305.88	58.37
306.094	52.22
306.308	3.07
306.522	62.46
306.736	29.7
306.95	1.02
307.164	64.51
307.379	52.22
307.593	91.13
307.807	25.6
308.021	103.42
308.235	35.84
308.449	23.55
308.663	113.66
308.877	50.18
309.091	62.46
309.305	-13.31
309.519	56.32
309.733	17.41
309.947	-39.94
310.161	74.75
310.374	99.33
310.588	-7.17
310.802	-78.85
311.016	19.46
311.23	35.84
311.444	-31.74
311.658	7.17
311.872	50.18
312.085	95.23
312.299	13.31
312.513	-23.55
312.727	17.41
312.941	46.08
313.154	41.98
313.368	35.84
313.582	25.6
313.796	-48.13
314.009	54.27
314.223	1.02
314.437	70.65
314.651	70.65
314.864	1.02
315.078	66.56
315.292	35.84
315.505	-1.02
315.719	29.7
315.933	25.6
316.146	37.89
316.36	-64.51
316.573	58.37
316.787	-9.22
317.001	72.7
317.214	5.12
317.428	82.94
317.641	1.02
317.855	1.02
318.068	1.02
318.282	95.23
318.495	70.65
318.709	5.12
318.922	-13.31
319.136	-1.02
319.349	60.42
319.563	-25.6
319.776	11.26
319.99	11.26
320.203	25.6
320.417	1.02
320.63	27.65
320.843	76.8
321.057	-41.98
321.27	-7.17
321.483	87.04
321.697	33.79
321.91	17.41
322.124	11.26
322.337	21.5
322.55	-60.42
322.763	64.51
322.977	21.5
323.19	27.65
323.403	31.74
323.617	25.6
323.83	3.07
324.043	68.61
324.256	35.84
324.469	-58.37
324.683	54.27
324.896	27.65
325.109	13.31
325.322	29.7
325.535	35.84
325.748	44.03
325.962	-23.55
326.175	-7.17
326.388	115.71
326.601	91.13
326.814	54.27
327.027	58.37
327.24	95.23
327.453	-62.46
327.666	66.56
327.879	66.56
328.092	25.6
328.305	-11.26
328.518	17.41
328.731	-17.41
328.944	-13.31
329.157	60.42
329.37	-31.74
329.583	13.31
329.796	54.27
330.009	-21.5
330.222	128
330.435	50.18
330.648	11.26
330.861	19.46
331.073	25.6
331.286	48.13
331.499	60.42
331.712	13.31
331.925	35.84
332.138	37.89
332.35	74.75
332.563	39.94
332.776	50.18
332.989	33.79
333.202	46.08
333.414	29.7
333.627	41.98
333.84	62.46
334.053	29.7
334.265	-3.07
334.478	29.7
334.691	-15.36
334.903	11.26
335.116	-29.7
335.329	58.37
335.541	37.89
335.754	74.75
335.966	33.79
336.179	17.41
336.392	33.79
336.604	-7.17
336.817	62.46
337.029	37.89
337.242	109.57
337.454	52.22
337.667	17.41
337.88	62.46
338.092	17.41
338.305	84.99
338.517	19.46
338.729	68.61
338.942	62.46
339.154	-7.17
339.367	-5.12
339.579	46.08
339.792	15.36
340.004	19.46
340.217	21.5
340.429	52.22
340.641	-11.26
340.854	74.75
341.066	35.84
341.278	142.33
341.491	84.99
341.703	58.37
341.915	-11.26
342.128	21.5
342.34	54.27
342.552	76.8
342.764	46.08
342.977	68.61
343.189	-48.13
343.401	52.22
343.613	13.31
343.826	25.6
344.038	78.85
344.25	74.75
344.462	29.7
344.674	25.6
344.886	48.13
345.099	-27.65
345.311	76.8
345.523	66.56
345.735	29.7
345.947	74.75
346.159	48.13
346.371	25.6
346.583	-29.7
346.795	109.57
347.007	37.89
347.219	72.7
347.431	-19.46
347.643	52.22
347.855	-33.79
348.067	93.18
348.279	21.5
348.491	19.46
348.703	91.13
348.915	62.46
349.127	17.41
349.339	-39.94
349.551	58.37
349.763	91.13
349.975	-7.17
350.187	50.18
350.399	123.9
350.61	74.75
350.822	7.17
351.034	-27.65
351.246	109.57
351.458	29.7
351.669	15.36
351.881	68.61
352.093	54.27
352.305	33.79
352.517	91.13
352.728	58.37
352.94	35.84
353.152	82.94
353.363	74.75
353.575	37.89
353.787	109.57
353.999	105.47
354.21	68.61
354.422	52.22
354.633	50.18
354.845	21.5
355.057	60.42
355.268	78.85
355.48	17.41
355.692	1.02
355.903	5.12
356.115	-9.22
356.326	9.22
356.538	140.29
356.749	33.79
356.961	117.76
357.172	19.46
357.384	-11.26
357.595	66.56
357.807	70.65
358.018	11.26
358.23	76.8
358.441	58.37
358.653	115.71
358.864	48.13
359.075	121.85
359.287	41.98
359.498	58.37
359.709	17.41
359.921	11.26
360.132	82.94
360.344	107.52
360.555	29.7
360.766	-27.65
360.977	-44.03
361.189	113.66
361.4	19.46
361.611	117.76
361.823	29.7
362.034	103.42
362.245	50.18
362.456	58.37
362.667	1.02
362.879	17.41
363.09	37.89
363.301	56.32
363.512	25.6
363.723	-72.7
363.935	64.51
364.146	115.71
364.357	99.33
364.568	-11.26
364.779	33.79
364.99	74.75
365.201	-60.42
365.412	-5.12
365.623	-46.08
365.834	58.37
366.045	60.42
366.256	-23.55
366.467	25.6
366.678	-7.17
366.889	107.52
367.1	60.42
367.311	37.89
367.522	103.42
367.733	66.56
367.944	46.08
368.155	25.6
368.366	60.42
368.577	35.84
368.788	11.26
368.999	-5.12
369.209	33.79
369.42	99.33
369.631	74.75
369.842	37.89
370.053	-27.65
370.264	78.85
370.474	-3.07
370.685	50.18
370.896	-29.7
371.107	109.57
371.317	52.22
371.528	46.08
371.739	62.46
371.95	50.18
372.16	87.04
372.371	11.26
372.582	37.89
372.792	41.98
373.003	93.18
373.214	74.75
373.424	66.56
373.635	-56.32
373.846	52.22
374.056	33.79
374.267	33.79
374.477	111.61
374.688	17.41
374.898	68.61
375.109	41.98
375.319	19.46
375.53	76.8
375.74	25.6
375.951	-35.84
376.161	1.02
376.372	115.71
376.582	1.02
376.793	19.46
377.003	123.9
377.214	21.5
377.424	60.42
377.635	-15.36
377.845	50.18
378.055	101.37
378.266	1.02
378.476	41.98
378.686	68.61
378.897	46.08
379.107	64.51
379.317	41.98
379.528	66.56
379.738	84.99
379.948	35.84
380.158	76.8
380.369	82.94
380.579	95.23
380.789	-7.17
380.999	37.89
381.21	13.31
381.42	132.09
381.63	52.22
381.84	17.41
382.05	74.75
382.261	111.61
382.471	29.7
382.681	29.7
382.891	-35.84
383.101	171.01
383.311	58.37
383.521	1.02
383.731	-15.36
383.941	119.81
384.151	78.85
384.361	19.46
384.571	33.79
384.781	1.02
384.991	95.23
385.201	50.18
385.411	19.46
385.621	29.7
385.831	-19.46
386.041	44.03
386.251	3.07
386.461	62.46
386.671	72.7
386.881	15.36
387.091	66.56
387.301	76.8
387.511	44.03
387.72	41.98
387.93	11.26
388.14	41.98
388.35	33.79
388.56	142.33
388.769	101.37
388.979	3.07
389.189	37.89
389.399	9.22
389.609	93.18
389.818	54.27
390.028	62.46
390.238	27.65
390.447	31.74
390.657	91.13
390.867	70.65
391.076	-35.84
391.286	-23.55
391.496	74.75
391.705	56.32
391.915	132.09
392.125	117.76
392.334	46.08
392.544	44.03
392.753	21.5
392.963	115.71
393.172	50.18
393.382	7.17
393.591	181.25
393.801	99.33
394.01	89.09
394.22	119.81
394.429	1.02
394.639	60.42
394.848	39.94
395.058	107.52
395.267	76.8
395.477	25.6
395.686	101.37
395.895	128
396.105	142.33
396.314	33.79
396.524	9.22
396.733	3.07
396.942	101.37
397.152	54.27
397.361	107.52
397.57	128
397.78	146.43
397.989	103.42
398.198	33.79
398.407	66.56
398.617	33.79
398.826	60.42
399.035	91.13
399.244	142.33
399.453	107.52
399.663	9.22
399.872	115.71
400.081	74.75
400.29	111.61
400.499	115.71
400.708	107.52
400.917	78.85
401.127	70.65
401.336	91.13
401.545	132.09
401.754	58.37
401.963	132.09
402.172	132.09
402.381	132.09
402.59	123.9
402.799	103.42
403.008	76.8
403.217	109.57
403.426	66.56
403.635	58.37
403.844	68.61
404.053	150.53
404.262	41.98
404.471	191.49
404.68	78.85
404.888	123.9
405.097	46.08
405.306	82.94
405.515	203.77
405.724	148.48
405.933	164.86
406.142	97.28
406.35	125.95
406.559	99.33
406.768	164.86
406.977	150.53
407.185	246.78
407.394	142.33
407.603	185.34
407.812	228.35
408.02	105.47
408.229	183.29
408.438	185.34
408.646	191.49
408.855	187.39
409.064	183.29
409.272	224.25
409.481	271.36
409.69	244.73
409.898	242.68
410.107	220.16
410.315	248.83
410.524	320.51
410.733	285.69
410.941	359.42
411.15	320.51
411.358	394.23
411.567	345.08
411.775	351.23
411.984	287.74
412.192	437.24
412.401	328.7
412.609	453.63
412.818	361.47
413.026	373.75
413.234	427
413.443	418.81
413.651	476.15
413.86	386.04
414.068	519.16
414.276	537.59
414.485	517.11
414.693	570.36
414.901	599.03
415.11	500.73
415.318	447.48
415.526	562.17
415.734	637.94
415.943	666.61
416.151	633.85
416.359	678.9
416.567	683
416.776	740.34
416.984	795.64
417.192	781.3
417.4	803.83
417.608	809.97
417.817	844.79
418.025	926.71
418.233	932.85
418.441	906.23
418.649	979.95
418.857	959.47
419.065	1049.58
419.273	984.05
419.481	1031.15
419.689	1127.41
419.897	1082.35
420.105	1215.47
420.313	1219.57
420.521	1287.15
420.729	1319.92
420.937	1301.48
421.145	1393.64
421.353	1446.89
421.561	1516.52
421.769	1500.14
421.977	1709.03
422.185	1623.02
422.393	1745.89
422.601	1793
422.809	1688.55
423.017	1868.77
423.224	2059.23
423.432	1946.59
423.64	2003.94
423.848	2229.21
424.056	2190.3
424.263	2384.86
424.471	2255.84
424.679	2309.08
424.887	2448.35
425.094	2495.45
425.302	2589.66
425.51	2601.94
425.718	2788.31
425.925	2778.07
426.133	2859.99
426.341	2954.19
426.548	3001.3
426.756	3068.88
426.964	3220.43
427.171	3320.78
427.379	3437.52
427.586	3369.93
427.794	3576.78
428.001	3668.94
428.209	3828.68
428.417	3861.45
428.624	4092.87
428.832	4129.73
429.039	4105.15
429.247	4072.39
429.454	4404.16
429.662	4715.45
429.869	4436.92
430.076	4801.46
430.284	4598.71
430.491	4772.79
430.699	5137.33
430.906	5022.64
431.114	5241.78
431.321	5411.76
431.528	5510.06
431.736	5798.82
431.943	5987.24
432.15	5950.37
432.358	6128.55
432.565	6366.11
432.772	6259.62
432.979	6710.17
433.187	6824.86
433.394	6687.64
433.601	7136.15
433.808	7236.5
434.016	7222.16
434.223	7502.73
434.43	7877.51
434.637	7619.47
434.844	8035.21
435.052	8561.53
435.259	8207.23
435.466	8577.92
435.673	8219.52
435.88	8823.67
436.087	9284.47
436.294	9169.78
436.501	9208.69
436.708	9464.69
436.915	9540.46
437.122	9982.82
437.329	9917.29
437.537	10345.31
437.743	10457.95
437.95	10341.22
438.157	10974.04
438.364	11242.32
438.571	11129.69
438.778	11182.93
438.985	12270.4
439.192	12055.37
439.399	12165.96
439.606	11737.93
439.813	12919.61
440.02	13470.51
440.227	13202.23
440.433	13298.49
440.64	13511.47
440.847	13353.78
441.054	13880.11
441.261	14529.31
441.467	14209.83
441.674	14797.6
441.881	15196.95
442.088	15287.06
442.294	15033.11
442.501	15317.78
442.708	15682.32
442.914	16229.13
443.121	17062.65
443.328	16685.83
443.534	17894.13
443.741	17226.49
443.948	17081.08
444.154	18234.09
444.361	18115.31
444.568	18258.67
444.774	18260.71
444.981	18543.33
445.187	18942.69
445.394	19972.82
445.6	19595.99
445.807	21570.23
446.013	20540.1
446.22	20826.82
446.426	21416.63
446.633	21957.3
446.839	22721.19
447.046	21607.09
447.252	23114.4
447.459	22985.38
447.665	22815.4
447.871	23927.44
448.078	24812.17
448.284	23560.86
448.491	24228.49
448.697	25105.02
448.903	26024.56
449.11	26045.04
449.316	25549.43
449.522	25879.16
449.728	26591.85
449.935	26884.71
450.141	26815.08
450.347	27325.02
450.553	26864.23
450.76	27073.12
450.966	27720.28
451.172	27574.88
451.378	28346.96
451.584	27765.34
451.791	28351.06
451.997	28174.93
452.203	28928.58
452.409	29033.03
452.615	28605
452.821	27632.22
453.027	27349.6
453.233	28832.33
453.44	27585.12
453.646	28183.12
453.852	27906.65
454.058	28482.13
454.264	27585.12
454.47	28297.81
454.676	27720.28
454.882	28588.62
455.088	26090.1
455.294	26536.56
455.5	27226.72
455.705	27296.35
455.911	26169.97
456.117	25713.27
456.323	25363.07
456.529	24113.81
456.735	25115.26
456.941	24431.24
457.147	24013.46
457.352	23411.35
457.558	22850.21
457.764	23175.84
457.97	22895.27
458.176	22647.46
458.381	22020.78
458.587	21015.23
458.793	21236.41
458.999	20126.41
459.204	21727.92
459.41	21125.82
459.616	19552.98
459.821	19860.18
460.027	19509.97
460.233	19268.31
460.438	18313.96
460.644	18496.23
460.85	17464.05
461.055	17423.09
461.261	17079.04
461.466	16249.61
461.672	15485.72
461.878	16759.55
462.083	15459.09
462.289	15356.69
462.494	15102.75
462.7	14590.75
462.905	14236.45
463.111	14621.47
463.316	14605.09
463.522	14205.74
463.727	14357.28
463.932	14146.34
464.138	14435.11
464.343	14215.98
464.549	13929.26
464.754	14222.12
464.959	14005.03
465.165	14095.14
465.37	13452.08
465.575	13042.49
465.781	13507.38
465.986	13601.58
466.191	13159.22
466.397	12735.29
466.602	12454.72
466.807	12663.61
467.012	12665.66
467.218	12649.28
467.423	12524.35
467.628	12542.78
467.833	13079.35
468.038	12682.05
468.244	12348.23
468.449	12792.64
468.654	12485.44
468.859	12225.35
469.064	12340.04
469.269	11735.88
469.474	11987.79
469.679	11930.44
469.885	11625.29
470.09	11625.29
470.295	11586.38
470.5	11580.24
470.705	11535.18
470.91	11490.13
471.115	11289.43
471.32	11307.86
471.525	11305.81
471.73	10847.07
471.935	10912.6
472.139	10627.93
472.344	10779.48
472.549	10656.61
472.754	10552.16
472.959	10255.2
473.164	10103.65
473.369	10113.89
473.574	10304.35
473.778	10406.75
473.983	10240.87
474.188	10195.81
474.393	9636.72
474.598	9798.51
474.802	9556.85
475.007	9386.86
475.212	9610.09
475.417	9188.21
475.621	9167.73
475.826	9309.04
476.031	9030.52
476.235	8829.82
476.44	9055.09
476.645	8735.61
476.849	8858.49
477.054	8768.38
477.259	8795
477.463	8743.8
477.668	8430.46
477.872	8639.36
478.077	8412.03
478.282	8246.15
478.486	8221.57
478.691	8129.41
478.895	8121.22
479.1	8065.92
479.304	7949.19
479.509	7840.65
479.713	7842.7
479.918	7656.33
480.122	7541.64
480.326	7719.82
480.531	7791.5
480.735	7332.75
480.94	7668.62
481.144	7947.14
481.348	7512.97
481.553	7439.25
481.757	7334.8
481.961	7672.71
482.166	7750.54
482.37	7447.44
482.574	7398.29
482.778	7545.74
482.983	7691.15
483.187	7355.28
483.391	7420.81
483.595	7324.56
483.8	7087
484.004	7476.11
484.208	7615.37
484.412	7351.18
484.616	7381.9
484.821	7371.66
485.025	7291.79
485.229	7463.82
485.433	7326.61
485.637	7203.73
485.841	7351.18
486.045	7367.57
486.249	7406.48
486.453	7394.19
486.657	7410.57
486.861	7349.14
487.065	7154.58
487.269	7332.75
487.473	7259.03
487.677	7367.57
487.881	7523.21
488.085	7345.04
488.289	7371.66
488.493	7416.72
488.697	7449.49
488.901	7422.86
489.105	7429.01
489.309	7377.81
489.512	7498.64
489.716	7359.38
489.92	7605.13
490.124	7484.3
490.328	7699.34
490.531	7353.23
490.735	7521.17
490.939	7601.04
491.143	7762.83
491.346	7637.9
491.55	7680.91
491.754	7658.38
491.958	7844.74
492.161	7547.79
492.365	7787.4
492.569	7873.42
492.772	7631.76
492.976	7924.62
493.18	7973.77
493.383	8070.02
493.587	7961.48
493.79	7957.38
493.994	8065.92
494.197	8090.5
494.401	8278.91
494.605	8135.56
494.808	8158.08
495.012	8520.57
495.215	8430.46
495.419	8553.34
495.622	8430.46
495.825	8541.05
496.029	8627.07
496.232	8639.36
496.436	8483.71
496.639	8827.77
496.843	8897.4
497.046	9085.81
497.249	9196.4
497.453	8868.73
497.656	9208.69
497.859	9345.91
498.063	9577.33
498.266	9569.13
498.469	9538.41
498.673	9696.11
498.876	9880.43
499.079	9833.32
499.282	9880.43
499.485	10185.57
499.689	10316.64
499.892	10529.63
500.095	10546.02
500.298	10367.84
500.501	10347.36
500.705	10888.03
500.908	10931.03
501.111	10967.9
501.314	11144.02
501.517	10974.04
501.72	11363.15
501.923	11375.44
502.126	11623.25
502.329	11555.66
502.532	11770.7
502.735	11748.17
502.938	12004.17
503.141	12170.05
503.344	12288.84
503.547	12139.33
503.75	12542.78
503.953	12628.8
504.156	12882.75
504.359	12804.92
504.562	12870.46
504.765	13275.96
504.968	13251.38
505.17	13437.75
505.373	13230.9
505.576	13828.91
505.779	13857.58
505.982	13978.41
506.185	14166.82
506.387	14392.1
506.59	14281.51
506.793	14813.98
506.996	14717.73
507.198	15164.18
507.401	15008.54
507.604	15076.12
507.807	15610.64
508.009	15598.35
508.212	15797.01
508.415	15807.25
508.617	15858.45
508.82	16128.78
509.022	16302.86
509.225	16573.19
509.428	16739.07
509.63	16810.75
509.833	16861.95
510.035	17373.94
510.238	17214.2
510.44	17763.06
510.643	17871.6
510.845	17961.71
511.048	17601.27
511.25	18072.3
511.453	18416.36
511.655	19081.95
511.858	18594.53
512.06	18784.99
512.262	18997.98
512.465	19176.16
512.667	19260.12
512.87	19784.4
513.072	19698.39
513.274	20040.4
513.477	20136.65
513.679	20372.17
513.881	20546.25
514.084	20730.56
514.286	20775.62
514.488	20939.46
514.69	21342.91
514.893	21650.1
515.095	21627.57
515.297	21639.86
515.499	21881.52
515.701	22114.99
515.904	22502.06
516.106	22612.65
516.308	22827.68
516.51	22977.19
516.712	22862.5
516.914	23257.76
517.116	23696.02
517.318	23730.84
517.52	23818.9
517.722	24175.25
517.925	24109.71
518.127	24453.77
518.329	24976
518.531	24998.53
518.733	24994.43
518.935	25385.6
519.136	25498.23
519.338	25844.34
519.54	25846.39
519.742	26309.23
519.944	25950.84
520.146	26589.8
520.348	27040.36
520.55	26688.1
520.752	27232.86
520.954	27767.38
521.155	27335.26
521.357	27621.98
521.559	27957.85
521.761	28531.28
521.963	28365.39
522.164	28359.25
522.366	28359.25
522.568	29065.8
522.77	29127.24
522.971	29510.21
523.173	29080.13
523.375	29577.79
523.576	29315.65
523.778	29794.87
523.98	29983.29
524.181	30016.05
524.383	30155.32
524.584	30278.19
524.786	30482.99
524.988	30671.4
525.189	30913.06
525.391	31310.37
525.592	31369.76
525.794	31220.26
525.995	31658.52
526.197	31932.95
526.398	31423.01
526.6	31988.25
526.801	32100.89
527.003	32031.26
527.204	32299.54
527.406	32301.59
527.607	32506.38
527.808	32537.1
528.01	32371.22
528.211	32672.27
528.412	33149.45
528.614	32827.92
528.815	32936.46
529.016	33335.81
529.218	33092.1
529.419	33171.97
529.62	33346.05
529.822	33083.91
530.023	33520.13
530.224	33344
530.425	33339.91
530.626	33315.33
530.828	33260.04
531.029	33860.09
531.23	33374.72
531.431	33452.55
531.632	33960.44
531.833	33911.29
532.035	33878.52
532.236	33686.01
532.437	33888.76
532.638	33618.43
532.839	33858.04
533.04	34281.97
533.241	33808.89
533.442	34091.51
533.643	33878.52
533.844	33927.67
534.045	33878.52
534.246	34142.71
534.447	34038.26
534.648	33804.8
534.849	33831.42
535.05	33552.9
535.251	33980.92
535.451	34273.78
535.652	34509.3
535.853	34157.05
536.054	34122.23
536.255	34204.15
536.456	33780.22
536.657	34693.61
536.857	34138.62
537.058	33921.53
537.259	34236.92
537.46	33976.83
537.66	33862.14
537.861	33980.92
538.062	34085.37
538.263	34116.09
538.463	34011.64
538.664	34269.69
538.865	34396.66
539.065	34402.8
539.266	34200.05
539.466	34378.23
539.667	33884.67
539.868	34476.53
540.068	33843.71
540.269	33520.13
540.469	34021.88
540.67	34140.66
540.87	33956.35
541.071	33808.89
541.271	34052.6
541.472	33739.26
541.672	34052.6
541.873	33571.33
542.073	33526.27
542.274	34109.94
542.474	33561.09
542.675	33710.59
542.875	34073.08
543.075	33894.91
543.276	33950.2
543.476	34152.95
543.676	33700.35
543.877	33860.09
544.077	33714.69
544.277	33561.09
544.478	33305.09
544.678	33925.63
544.878	33829.37
545.078	33630.72
545.279	33841.66
545.479	33319.43
545.679	33491.46
545.879	34148.85
546.079	33567.23
546.28	33217.03
546.48	33634.81
546.68	33653.25
546.88	33735.17
547.08	33763.84
547.28	33886.71
547.48	33602.05
547.68	33737.21
547.88	33274.37
548.081	33954.3
548.281	33686.01
548.481	33487.36
548.681	33575.42
548.881	33595.9
549.081	33511.94
549.28	33450.5
549.48	33714.69
549.68	33257.99
549.88	33595.9
550.08	33024.52
550.28	33522.18
550.48	33468.93
550.68	33776.12
550.88	33243.65
551.08	33446.4
551.279	33634.81
551.479	33524.22
551.679	33602.05
551.879	33561.09
552.079	33784.32
552.278	33323.52
552.478	33532.42
552.678	33114.63
552.878	33501.7
553.077	32993.8
553.277	33145.35
553.477	33380.87
553.676	33344
553.876	33059.34
554.076	33298.95
554.275	33067.53
554.475	32899.59
554.674	33071.62
554.874	33014.28
555.074	32746
555.273	33036.81
555.473	33141.25
555.672	32875.02
555.872	32743.95
556.071	32659.98
556.271	33120.77
556.47	32905.74
556.67	32520.72
556.869	32653.84
557.068	32881.16
557.268	32688.65
557.467	32684.56
557.667	32600.59
557.866	32653.84
558.065	32780.81
558.265	32225.81
558.464	32580.11
558.663	32752.14
558.863	32043.54
559.062	32539.15
559.261	31978.01
559.461	32252.44
559.66	32014.87
559.859	32193.04
560.058	31953.43
560.258	32152.09
560.457	32064.02
560.656	31969.82
560.855	31949.34
561.054	32258.58
561.253	31558.17
561.453	31717.92
561.652	31722.01
561.851	31922.71
562.05	31449.63
562.249	31654.43
562.448	31707.68
562.647	31734.3
562.846	31736.35
563.045	31478.3
563.244	31146.53
563.443	31595.04
563.642	30933.54
563.841	31306.27
564.04	31050.28
564.239	31146.53
564.438	30601.77
564.637	31207.97
564.836	31255.08
565.035	30878.25
565.234	30790.19
565.432	30728.75
565.631	30730.8
565.83	30732.84
566.029	30695.98
566.228	30456.37
566.427	30419.5
566.625	30612.01
566.824	29788.73
567.023	30667.31
567.222	29831.74
567.42	30765.61
567.619	30294.58
567.818	30009.91
568.016	29909.56
568.215	30235.19
568.414	29760.06
568.612	30200.37
568.811	29858.36
569.01	29755.96
569.208	29207.11
569.407	29989.43
569.605	29583.93
569.804	29321.79
570.002	29231.68
570.201	29409.86
570.4	29117
570.598	28985.93
570.797	29135.43
570.995	28957.25
571.193	28766.79
571.392	29223.49
571.59	28539.47
571.789	28979.78
571.987	28785.22
572.186	28658.25
572.384	28549.71
572.582	28637.77
572.781	28805.7
572.979	28506.7
573.177	28451.41
573.376	28262.99
573.574	27914.84
573.772	28236.37
573.971	27871.83
574.169	27785.82
574.367	27695.71
574.565	27767.38
574.763	27695.71
574.962	27785.82
575.16	27423.33
575.358	27707.99
575.556	27157.09
575.754	27447.9
575.952	27357.79
576.151	27408.99
576.349	27105.89
576.547	27095.65
576.745	26940
576.943	26995.3
577.141	26921.57
577.339	27220.58
577.537	26710.63
577.735	26864.23
577.933	26428.01
578.131	26991.2
578.329	26671.72
578.527	26622.57
578.725	26200.69
578.923	26528.36
579.121	26229.36
579.319	26018.42
579.516	26428.01
579.714	26047.09
579.912	26110.58
580.11	25983.6
580.308	25811.57
580.506	25784.95
580.704	25328.25
580.901	25723.51
581.099	25932.4
581.297	25393.79
581.495	25510.52
581.692	25559.67
581.89	25375.36
582.088	25629.3
582.285	25246.33
582.483	25451.13
582.681	25135.74
582.878	25174.66
583.076	24939.14
583.274	25059.97
583.471	24773.25
583.669	25016.96
583.866	24660.62
584.064	24902.28
584.262	24509.07
584.459	24689.29
584.657	24582.79
584.854	24513.16
585.052	24101.52
585.249	24693.38
585.447	24273.55
585.644	24150.67
585.841	24011.41
586.039	23968.4
586.236	23878.29
586.434	23597.72
586.631	23825.04
586.828	23810.71
587.026	23704.21
587.223	23679.64
587.42	23321.24
587.618	23765.65
587.815	23356.06
588.012	23200.41
588.21	23265.95
588.407	23405.21
588.604	22962.85
588.801	23030.43
588.999	22938.27
589.196	22928.03
589.393	23042.72
589.59	22850.21
589.787	22594.22
589.984	22676.13
590.182	22422.19
590.379	22737.57
590.576	22207.15
590.773	22426.28
590.97	22190.77
591.167	22241.96
591.364	22180.53
591.561	22270.64
591.758	22078.13
591.955	22098.61
592.152	22061.74
592.349	21787.32
592.546	21607.09
592.743	21666.49
592.94	21596.85
593.137	21985.97
593.334	21801.65
593.531	21562.04
593.727	21510.84
593.924	21359.29
594.121	21455.54
594.318	21779.12
594.515	21131.97
594.712	21344.95
594.908	21072.57
595.105	21217.98
595.302	21045.95
595.499	21134.01
595.696	20882.11
595.892	20914.88
596.089	21158.59
596.286	20705.99
596.482	20538.05
596.679	20693.7
596.876	20794.05
597.072	20265.67
597.269	20550.34
597.466	20081.36
597.662	20435.66
597.859	20396.74
598.055	19921.62
598.252	19847.89
598.448	20067.02
598.645	20245.2
598.841	20056.78
599.038	19868.37
599.234	20122.32
599.431	19690.2
599.627	19624.66
599.824	19673.81
600.02	19567.32
600.217	19935.95
600.413	19284.7
600.609	19436.25
600.806	19337.94
601.002	19557.08
601.198	19174.11
601.395	19202.78
601.591	19165.92
601.787	19030.75
601.984	18944.73
602.18	19036.89
602.376	19010.27
602.572	18778.85
602.769	18830.05
602.965	18799.33
603.161	18885.34
603.357	18408.17
603.553	18590.44
603.75	18412.26
603.946	18322.15
604.142	18260.71
604.338	18174.7
604.534	18385.64
604.73	18078.44
604.926	18260.71
605.122	18158.31
605.318	18019.05
605.514	17795.82
605.71	18080.49
605.906	17722.1
606.102	17965.81
606.298	17773.3
606.494	17922.8
606.69	17728.24
606.886	17652.47
607.082	17722.1
607.278	17576.69
607.474	17656.56
607.67	17615.6
607.866	17519.35
608.062	17627.89
608.257	17431.29
608.453	17416.95
608.649	17447.67
608.845	17318.65
609.041	17152.76
609.236	17169.15
609.432	17167.1
609.628	17267.45
609.824	17148.67
610.019	16902.91
610.215	17146.62
610.411	17150.71
610.606	16880.38
610.802	16902.91
610.998	16952.06
611.193	16820.99
611.389	16751.36
611.584	16786.18
611.78	16538.37
611.976	16743.17
612.171	16569.09
612.367	16491.27
612.562	16466.69
612.758	16050.96
612.953	16317.19
613.149	16384.77
613.344	16231.18
613.539	16853.76
613.735	16304.9
613.93	16450.31
614.126	16397.06
614.321	16521.99
614.517	16253.7
614.712	16130.83
614.907	16165.64
615.103	16382.73
615.298	16022.28
615.493	15999.76
615.688	15844.11
615.884	16196.36
616.079	15962.89
616.274	16155.4
616.47	15954.7
616.665	15954.7
616.86	15651.6
617.055	15659.79
617.25	15809.29
617.445	15901.45
617.641	15547.15
617.836	15837.97
618.031	15348.5
618.226	15639.31
618.421	15442.71
618.616	15354.65
618.811	15442.71
619.006	15442.71
619.201	15213.34
619.396	15268.63
619.591	14779.17
619.786	15350.55
619.981	14893.85
620.176	15166.23
620.371	14820.13
620.566	14971.68
620.761	14973.72
620.956	14828.32
621.151	14740.26
621.346	14883.61
621.541	14496.55
621.735	14662.43
621.93	14373.67
622.125	14338.85
622.32	14193.45
622.515	14179.11
622.709	14043.95
622.904	14033.71
623.099	13980.46
623.294	14084.91
623.488	13759.28
623.683	13951.79
623.878	13577.01
624.072	13681.46
624.267	13544.24
624.462	13587.25
624.656	13398.84
624.851	13392.69
625.046	13273.91
625.24	13337.4
625.435	12960.57
625.629	13067.06
625.824	13194.04
626.018	12907.32
626.213	12804.92
626.407	12841.79
626.602	12563.26
626.796	12571.46
626.991	12704.57
627.185	12618.56
627.38	12600.13
627.574	12225.35
627.768	12321.6
627.963	12325.7
628.157	12239.69
628.352	12073.8
628.546	12112.71
628.74	12102.47
628.935	11858.76
629.129	11928.39
629.323	11805.52
629.517	11688.78
629.712	11752.27
629.906	11637.58
630.1	11334.48
630.294	11617.1
630.489	11408.21
630.683	11572.05
630.877	11260.76
631.071	11260.76
631.265	11277.14
631.459	10959.7
631.653	11250.52
631.848	11101.01
632.042	11113.3
632.236	10896.22
632.43	10855.26
632.624	10707.8
632.818	10644.32
633.012	10548.06
633.206	10687.32
633.4	10644.32
633.594	10412.9
633.788	10601.31
633.982	10371.94
634.176	10210.15
634.369	10216.29
634.563	10216.29
634.757	10060.65
634.951	10036.07
635.145	10019.69
635.339	9929.58
635.533	9962.34
635.726	9982.82
635.92	9833.32
636.114	9782.12
636.308	9778.03
636.501	9763.69
636.695	9780.07
636.889	9614.19
637.083	9644.91
637.276	9544.56
637.47	9274.23
637.664	9388.91
637.857	9382.77
638.051	9235.32
638.244	9294.71
638.438	9329.52
638.632	9159.54
638.825	8995.7
639.019	9001.85
639.212	8969.08
639.406	8975.22
639.599	8889.21
639.793	8817.53
639.986	8934.26
640.18	8842.11
640.373	8809.34
640.567	8555.39
640.76	8737.66
640.954	8559.49
641.147	8618.88
641.34	8469.37
641.534	8463.23
641.727	8450.94
641.92	8407.94
642.114	8452.99
642.307	8377.22
642.5	8254.34
642.694	8172.42
642.887	8160.13
643.08	8086.4
643.273	8164.23
643.467	8131.46
643.66	7914.38
643.853	7998.34
644.046	7844.74
644.239	7963.53
644.432	7893.9
644.626	7738.25
644.819	7639.95
645.012	7734.15
645.205	7742.35
645.398	7725.96
645.591	7533.45
645.784	7426.96
645.977	7435.15
646.17	7463.82
646.363	7482.25
646.556	7277.46
646.749	7480.21
646.942	7306.13
647.135	7467.92
647.328	7173.01
647.521	7187.35
647.714	7048.08
647.907	7138.2
648.099	6964.12
648.292	7060.37
648.485	7013.27
648.678	6865.82
648.871	6794.14
649.064	6841.24
649.256	6878.1
649.449	6833.05
649.642	6630.3
649.835	6777.75
650.027	6826.9
650.22	6663.07
650.413	6679.45
650.605	6652.83
650.798	6505.37
650.991	6450.08
651.183	6370.21
651.376	6460.32
651.568	6658.97
651.761	6437.79
651.954	6171.55
652.146	6278.05
652.339	6308.77
652.531	6165.41
652.724	6073.25
652.916	6179.75
653.109	6126.5
653.301	6081.44
653.494	6075.3
653.686	6007.72
653.879	6046.63
654.071	6026.15
654.263	6179.75
654.456	5874.6
654.648	5993.38
654.84	5727.14
655.033	5804.97
655.225	5968.8
655.417	5718.95
655.61	5800.87
655.802	5669.8
655.994	5811.11
656.186	5698.47
656.379	5645.23
656.571	5522.35
656.763	5649.32
656.955	5518.25
657.148	5655.47
657.34	5591.98
657.532	5475.24
657.724	5391.28
657.916	5532.59
658.108	5393.33
658.3	5245.87
658.492	5235.63
658.684	5270.45
658.876	5178.29
659.068	5235.63
659.26	5100.47
659.452	5170.1
659.644	5186.48
659.836	5088.18
660.028	5020.6
660.22	5125.04
660.412	5039.03
660.604	5026.74
660.796	4953.01
660.988	4977.59
661.18	4840.37
661.372	4875.19
661.563	4881.33
661.755	4924.34
661.947	4813.75
662.139	4733.88
662.331	4670.39
662.522	4670.39
662.714	4647.87
662.906	4811.7
663.097	4660.15
663.289	4711.35
663.481	4584.38
663.673	4680.63
663.864	4541.37
664.056	4590.52
664.247	4524.99
664.439	4389.82
664.631	4506.56
664.822	4369.34
665.014	4484.03
665.205	4336.57
665.397	4383.68
665.588	4375.49
665.78	4240.32
665.971	4322.24
666.163	4430.78
666.354	4338.62
666.546	4207.55
666.737	4238.27
666.929	4144.06
667.12	4295.61
667.311	4133.82
667.503	4068.29
667.694	4187.07
667.885	4080.58
668.077	4185.02
668.268	4080.58
668.459	3994.56
668.651	4072.39
668.842	3982.28
669.033	3873.73
669.224	4023.23
669.416	3879.88
669.607	3951.56
669.798	3816.39
669.989	3916.74
670.18	3824.58
670.371	3900.36
670.563	3779.53
670.754	3709.9
670.945	3804.1
671.136	3711.94
671.327	3761.09
671.518	3677.13
671.709	3752.9
671.9	3744.71
672.091	3673.03
672.282	3736.52
672.473	3777.48
672.664	3705.8
672.855	3662.79
673.046	3599.31
673.237	3578.83
673.428	3597.26
673.619	3539.91
673.809	3652.55
674	3625.93
674.191	3550.15
674.382	3462.09
674.573	3523.53
674.764	3474.38
674.954	3466.19
675.145	3480.52
675.336	3458
675.527	3484.62
675.717	3548.11
675.908	3378.12
676.099	3509.19
676.289	3345.36
676.48	3294.16
676.671	3271.63
676.861	3451.85
677.052	3386.32
677.243	3277.77
677.433	3339.21
677.624	3398.6
677.814	3396.56
678.005	3345.36
678.195	3433.42
678.386	3269.58
678.576	3210.19
678.767	3288.01
678.957	3230.67
679.148	3187.66
679.338	3245.01
679.529	3228.62
679.719	3224.53
679.909	3433.42
680.1	3255.25
680.29	3169.23
680.481	3154.9
680.671	3271.63
680.861	3107.79
681.052	3142.61
681.242	3253.2
681.432	3195.86
681.622	3179.47
681.813	3134.42
682.003	3146.7
682.193	3156.94
682.383	3107.79
682.573	3075.03
682.764	2982.87
682.954	3034.07
683.144	2950.1
683.334	3050.45
683.524	3032.02
683.714	2884.56
683.904	3038.16
684.094	3066.83
684.284	3058.64
684.474	3105.74
684.664	3003.35
684.854	2966.48
685.044	3027.92
685.234	3003.35
685.424	2948.05
685.614	2890.71
685.804	2968.53
685.994	2870.23
686.184	2843.6
686.374	2929.62
686.564	2870.23
686.753	2952.15
686.943	2833.36
687.133	2831.32
687.323	2778.07
687.513	2831.32
687.702	2687.96
687.892	2706.39
688.082	2706.39
688.272	2722.77
688.461	2724.82
688.651	2776.02
688.841	2677.72
689.03	2706.39
689.22	2616.28
689.41	2669.53
689.599	2757.59
689.789	2610.14
689.979	2683.86
690.168	2757.59
690.358	2735.06
690.547	2560.98
690.737	2591.7
690.926	2554.84
691.116	2483.16
691.305	2575.32
691.495	2558.94
691.684	2434.01
691.874	2565.08
692.063	2517.98
692.252	2499.55
692.442	2495.45
692.631	2395.1
692.82	2403.29
693.01	2511.83
693.199	2388.96
693.388	2286.56
693.578	2358.24
693.767	2386.91
693.956	2370.52
694.146	2335.71
694.335	2343.9
694.524	2270.17
694.713	2298.84
694.902	2309.08
695.092	2419.68
695.281	2233.31
695.47	2315.23
695.659	2311.13
695.848	2403.29
696.037	2266.08
696.226	2180.06
696.415	2241.5
696.604	2280.41
696.793	2261.98
696.982	2294.75
697.171	2255.84
697.36	2302.94
697.549	2167.77
697.738	2118.62
697.927	2171.87
698.116	2286.56
698.305	2184.16
698.494	2223.07
698.683	2165.73
698.872	2253.79
699.061	2212.83
699.25	2245.6
699.438	2157.54
699.627	2190.3
699.816	2139.1
700.005	2048.99
700.193	2073.57
700.382	2124.77
700.571	2196.45
700.76	2165.73
700.948	2114.53
701.137	2081.76
701.326	2132.96
701.514	2075.62
701.703	2020.32
701.892	2114.53
702.08	2218.97
702.269	2135.01
702.457	2182.11
702.646	2083.81
702.834	2032.61
703.023	2192.35
703.212	2089.95
703.4	2085.86
703.589	2020.32
703.777	2104.29
703.965	2071.52
704.154	2182.11
704.342	2069.47
704.531	2053.09
704.719	2073.57
704.907	2069.47
705.096	2059.23
705.284	1999.84
705.472	2046.94
705.661	1991.65
705.849	2153.44
706.037	2157.54
706.226	2016.23
706.414	2030.56
706.602	2044.9
706.79	1958.88
706.979	2008.03
707.167	2055.14
707.355	2003.94
707.543	2020.32
707.731	2108.38
707.919	2003.94
708.107	1983.46
708.296	1997.79
708.484	2044.9
708.672	2077.66
708.86	1991.65
709.048	2073.57
709.236	1942.5
709.424	2094.05
709.612	1999.84
709.8	2069.47
709.988	1995.75
710.176	2051.04
710.364	2053.09
710.551	2036.7
710.739	1936.35
710.927	1958.88
711.115	2036.7
711.303	2141.15
711.491	2122.72
711.679	1909.73
711.866	2065.38
712.054	2016.23
712.242	1987.55
712.43	1981.41
712.617	2032.61
712.805	1911.78
712.993	2077.66
713.181	2044.9
713.368	1903.59
713.556	1958.88
713.744	1944.55
713.931	2040.8
714.119	1993.7
714.306	1999.84
714.494	2051.04
714.682	1971.17
714.869	1926.11
715.057	1919.97
715.244	1936.35
715.432	1965.03
715.619	1973.22
715.807	1930.21
715.994	2022.37
716.182	2096.1
716.369	1946.59
716.556	1958.88
716.744	2010.08
716.931	1928.16
717.119	2053.09
717.306	1985.51
717.493	2094.05
717.681	1977.31
717.868	2147.3
718.055	2040.8
718.242	2055.14
718.43	2075.62
718.617	2001.89
718.804	1952.74
718.991	2081.76
719.179	2126.82
719.366	1983.46
719.553	1983.46
719.74	2024.42
719.927	1965.03
720.114	1942.5
720.301	1930.21
720.488	2036.7
720.676	2018.27
720.863	2053.09
721.05	1999.84
721.237	2051.04
721.424	1924.07
721.611	1983.46
721.798	1854.44
721.985	1868.77
722.172	2014.18
722.358	1987.55
722.545	1967.07
722.732	1942.5
722.919	1958.88
723.106	2016.23
723.293	1954.79
723.48	1975.27
723.667	2005.99
723.853	2020.32
724.04	2018.27
724.227	1956.83
724.414	1928.16
724.6	2010.08
724.787	2065.38
724.974	1934.31
725.161	1899.49
725.347	1999.84
725.534	2073.57
725.72	2040.8
725.907	2071.52
726.094	1876.96
726.28	1917.92
726.467	1942.5
726.653	1938.4
726.84	2069.47
727.027	2122.72
727.213	2040.8
727.4	2016.23
727.586	1942.5
727.773	1960.93
727.959	1967.07
728.145	2057.18
728.332	2081.76
728.518	1999.84
728.705	1985.51
728.891	2057.18
729.077	1975.27
729.264	1993.7
729.45	1985.51
729.636	1938.4
729.823	2020.32
730.009	2081.76
730.195	1967.07
730.382	2048.99
730.568	1958.88
730.754	2073.57
730.94	1905.63
731.126	2069.47
731.313	1934.31
731.499	2083.81
731.685	1967.07
731.871	2016.23
732.057	2003.94
732.243	2042.85
732.429	1917.92
732.615	1965.03
732.801	1946.59
732.987	1977.31
733.173	1993.7
733.359	1967.07
733.545	1987.55
733.731	1876.96
733.917	1924.07
734.103	1903.59
734.289	1983.46
734.475	1928.16
734.661	2051.04
734.847	2001.89
735.033	2046.94
735.219	1975.27
735.404	1950.69
735.59	1864.68
735.776	1903.59
735.962	2020.32
736.148	2010.08
736.333	1944.55
736.519	1895.4
736.705	1852.39
736.89	2036.7
737.076	1967.07
737.262	1934.31
737.447	1864.68
737.633	1950.69
737.819	2065.38
738.004	1993.7
738.19	1950.69
738.375	1979.36
738.561	1838.05
738.747	1889.25
738.932	1895.4
739.118	1913.83
739.303	1895.4
739.489	1881.06
739.674	1760.23
739.859	1932.26
740.045	1885.16
740.23	2008.03
740.416	1842.15
740.601	1852.39
740.786	1940.45
740.972	1821.67
741.157	1836
741.342	1790.95
741.528	1879.01
741.713	1848.29
741.898	1774.56
742.084	1919.97
742.269	1778.66
742.454	1811.43
742.639	1876.96
742.824	1811.43
743.01	1807.33
743.195	1799.14
743.38	1807.33
743.565	1838.05
743.75	1698.79
743.935	1706.98
744.12	1743.85
744.305	1649.64
744.49	1797.09
744.675	1706.98
744.86	1672.17
745.045	1774.56
745.23	1754.09
745.415	1680.36
745.6	1876.96
745.785	1709.03
745.97	1686.5
746.155	1772.52
746.34	1754.09
746.525	1682.41
746.71	1741.8
746.895	1450.99
747.079	1577.96
747.264	1631.21
747.449	1649.64
747.634	1598.44
747.819	1645.54
748.003	1582.06
748.188	1635.3
748.373	1639.4
748.557	1573.86
748.742	1512.42
748.927	1487.85
749.111	1631.21
749.296	1606.63
749.481	1553.38
749.665	1479.66
749.85	1526.76
750.034	1541.1
750.219	1528.81
750.404	1557.48
750.588	1493.99
750.773	1477.61
750.957	1553.38
751.141	1455.08
751.326	1463.27
751.51	1475.56
751.695	1442.79
751.879	1395.69
752.064	1418.22
752.248	1377.26
752.432	1426.41
752.617	1352.68
752.801	1444.84
752.985	1459.18
753.17	1463.27
753.354	1313.77
753.538	1377.26
753.722	1336.3
753.907	1285.1
754.091	1303.53
754.275	1319.92
754.459	1250.28
754.643	1321.96
754.828	1289.2
755.012	1303.53
755.196	1258.48
755.38	1313.77
755.564	1205.23
755.748	1272.81
755.932	1242.09
756.116	1258.48
756.3	1096.69
756.484	1190.89
756.668	1182.7
756.852	1051.63
757.036	1215.47
757.22	1248.24
757.404	1115.12
757.588	1172.46
757.772	1233.9
757.956	1168.37
758.14	1151.98
758.323	1082.35
758.507	1074.16
758.691	1065.97
758.875	1151.98
759.059	1111.02
759.242	1102.83
759.426	1041.39
759.61	1059.82
759.794	1049.58
759.977	1127.41
760.161	1104.88
760.345	1020.91
760.528	1049.58
760.712	1029.1
760.895	1025.01
761.079	1092.59
761.263	1041.39
761.446	975.86
761.63	1055.73
761.813	988.14
761.997	959.47
762.18	957.43
762.364	1041.39
762.547	1025.01
762.731	1010.67
762.914	998.38
763.098	932.85
763.281	1020.91
763.464	992.24
763.648	959.47
763.831	961.52
764.015	889.84
764.198	904.18
764.381	1012.72
764.564	910.32
764.748	1049.58
764.931	852.98
765.114	906.23
765.297	852.98
765.481	871.41
765.664	893.94
765.847	943.09
766.03	943.09
766.213	955.38
766.397	902.13
766.58	805.88
766.763	922.61
766.946	861.17
767.129	910.32
767.312	799.73
767.495	859.12
767.678	838.64
767.861	969.71
768.044	824.31
768.227	865.27
768.41	824.31
768.593	789.49
768.776	855.03
768.959	803.83
769.142	828.4
769.324	867.31
769.507	844.79
769.69	803.83
769.873	820.21
770.056	959.47
770.239	773.11
770.421	779.25
770.604	820.21
770.787	791.54
770.97	842.74
771.152	779.25
771.335	814.07
771.518	793.59
771.7	779.25
771.883	764.92
772.066	842.74
772.248	752.63
772.431	781.3
772.613	844.79
772.796	816.12
772.978	730.1
773.161	748.53
773.343	754.68
773.526	771.06
773.708	754.68
773.891	699.38
774.073	775.16
774.256	658.42
774.438	764.92
774.621	758.77
774.803	680.95
774.985	746.48
775.168	721.91
775.35	777.2
775.532	639.99
775.715	732.15
775.897	687.09
776.079	705.53
776.261	652.28
776.444	683
776.626	707.57
776.808	732.15
776.99	633.85
777.173	619.51
777.355	660.47
777.537	697.33
777.719	693.24
777.901	570.36
778.083	617.46
778.265	594.93
778.447	648.18
778.629	560.12
778.811	672.76
778.993	609.27
779.175	627.7
779.357	594.93
779.539	644.09
779.721	627.7
779.903	639.99
780.085	480.25
780.267	566.26
780.449	523.26
780.631	553.98
780.812	535.54
780.994	529.4
781.176	480.25
781.358	545.78
781.54	502.78
781.721	545.78
781.903	476.15
782.085	576.5
782.267	492.54
782.448	517.11
782.63	451.58
782.812	484.34
782.993	570.36
783.175	551.93
783.357	420.86
783.538	504.82
783.72	435.19
783.901	472.06
784.083	445.43
784.264	490.49
784.446	453.63
784.627	408.57
784.809	467.96
784.99	492.54
785.172	472.06
785.353	441.34
785.535	476.15
785.716	396.28
785.897	396.28
786.079	476.15
786.26	422.91
786.441	418.81
786.623	455.67
786.804	406.52
786.985	371.71
787.167	500.73
787.348	328.7
787.529	361.47
787.71	406.52
787.891	381.95
788.073	314.36
788.254	388.09
788.435	383.99
788.616	386.04
788.797	373.75
788.978	357.37
789.159	277.5
789.34	404.47
789.522	429.05
789.703	275.45
789.884	369.66
790.065	332.79
790.246	447.48
790.427	281.6
790.607	359.42
790.788	345.08
790.969	248.83
791.15	343.03
791.331	361.47
791.512	320.51
791.693	281.6
791.874	336.89
792.054	273.4
792.235	343.03
792.416	330.75
792.597	265.21
792.778	338.94
792.958	351.23
793.139	373.75
793.32	312.32
793.5	316.41
793.681	379.9
793.862	222.2
794.042	324.6
794.223	291.84
794.404	322.56
794.584	265.21
794.765	248.83
794.945	285.69
795.126	300.03
795.306	345.08
795.487	332.79
795.667	259.07
795.848	175.1
796.028	236.54
796.209	320.51
796.389	320.51
796.57	265.21
796.75	316.41
796.93	228.35
797.111	230.4
797.291	216.06
797.471	306.17
797.652	291.84
797.832	261.12
798.012	177.15
798.192	281.6
798.373	250.88
798.553	191.49
798.733	254.97
798.913	248.83
799.093	297.98
799.274	185.34
799.454	273.4
799.634	257.02
799.814	297.98
799.994	238.59
800.174	287.74
800.354	197.63
800.534	273.4
800.714	232.44
800.894	218.11
801.074	224.25
801.254	185.34
801.434	234.49
801.614	214.01
801.794	130.05
801.974	895.99
802.154	211.96
802.334	121.85
802.514	132.09
802.693	156.67
802.873	222.2
803.053	263.16
803.233	252.92
803.413	226.3
803.592	173.05
803.772	148.48
803.952	166.91
804.131	218.11
804.311	150.53
804.491	289.79
804.67	123.9
804.85	222.2
805.03	197.63
805.209	207.87
805.389	177.15
805.568	240.64
805.748	218.11
805.928	254.97
806.107	222.2
806.287	156.67
806.466	205.82
806.646	222.2
806.825	216.06
807.004	191.49
807.184	201.72
807.363	230.4
807.543	185.34
807.722	121.85
807.901	197.63
808.081	226.3
808.26	205.82
808.439	164.86
808.619	211.96
808.798	254.97
808.977	150.53
809.156	168.96
809.336	230.4
809.515	230.4
809.694	187.39
809.873	164.86
810.052	164.86
810.231	209.92
810.411	162.81
810.59	254.97
810.769	203.77
810.948	164.86
811.127	115.71
811.306	140.29
811.485	166.91
811.664	189.44
811.843	205.82
812.022	144.38
812.201	128
812.38	89.09
812.559	181.25
812.737	164.86
812.916	156.67
813.095	185.34
813.274	160.77
813.453	181.25
813.632	125.95
813.811	203.77
813.989	144.38
814.168	197.63
814.347	101.37
814.526	119.81
814.704	189.44
814.883	142.33
815.062	164.86
815.24	132.09
815.419	117.76
815.598	160.77
815.776	140.29
815.955	107.52
816.133	132.09
816.312	148.48
816.49	140.29
816.669	152.57
816.847	93.18
817.026	111.61
817.204	150.53
817.383	132.09
817.561	60.42
817.74	70.65
817.918	152.57
818.097	183.29
818.275	107.52
818.453	54.27
818.632	201.72
818.81	39.94
818.988	136.19
819.167	132.09
819.345	156.67
819.523	103.42
819.701	87.04
819.879	66.56
820.058	134.14
820.236	177.15
820.414	140.29
820.592	134.14
820.77	95.23
820.948	99.33
821.127	144.38
821.305	117.76
821.483	123.9
821.661	142.33
821.839	58.37
822.017	41.98
822.195	76.8
822.373	181.25
822.551	82.94
822.729	97.28
822.907	177.15
823.085	177.15
823.262	89.09
823.44	123.9
823.618	39.94
823.796	156.67
823.974	68.61
824.152	115.71
824.329	50.18
824.507	121.85
824.685	91.13
824.863	144.38
825.04	82.94
825.218	144.38
825.396	101.37
825.574	52.22
825.751	99.33
825.929	140.29
826.107	91.13
826.284	144.38
826.462	46.08
826.639	70.65
826.817	136.19
826.994	74.75
827.172	33.79
827.349	140.29
827.527	134.14
827.704	76.8
827.882	33.79
828.059	84.99
828.237	9.22
828.414	101.37
828.591	37.89
828.769	58.37
828.946	74.75
829.124	76.8
829.301	76.8
829.478	117.76
829.655	68.61
829.833	70.65
830.01	21.5
830.187	50.18
830.364	33.79
830.542	66.56
830.719	132.09
830.896	50.18
831.073	101.37
831.25	109.57
831.427	154.62
831.604	74.75
831.782	1.02
831.959	62.46
832.136	41.98
832.313	168.96
832.49	72.7
832.667	66.56
832.844	140.29
833.021	140.29
833.198	17.41
833.374	91.13
833.551	91.13
833.728	87.04
833.905	37.89
834.082	-1.02
834.259	29.7
834.436	150.53
834.612	52.22
834.789	101.37
834.966	109.57
835.143	41.98
835.319	-11.26
835.496	21.5
835.673	1.02
835.85	99.33
836.026	103.42
836.203	156.67
836.38	-41.98
836.556	158.72
836.733	1.02
836.909	78.85
837.086	37.89
837.262	25.6
837.439	82.94
837.616	62.46
837.792	19.46
837.968	46.08
838.145	-23.55
838.321	68.61
838.498	97.28
838.674	44.03
838.851	41.98
839.027	35.84
839.203	99.33
839.38	130.05
839.556	113.66
839.732	91.13
839.909	66.56
840.085	119.81
840.261	54.27
840.437	91.13
840.614	107.52
840.79	46.08
840.966	103.42
841.142	58.37
841.318	29.7
841.494	-46.08
841.671	140.29
841.847	101.37
842.023	-5.12
842.199	60.42
842.375	50.18
842.551	29.7
842.727	5.12
842.903	62.46
843.079	7.17
843.255	44.03
843.431	1.02
843.607	52.22
843.783	48.13
843.959	25.6
844.134	46.08
844.31	62.46
844.486	-23.55
844.662	76.8
844.838	-21.5
845.013	58.37
845.189	27.65
845.365	58.37
845.541	82.94
845.716	50.18
845.892	64.51
846.068	41.98
846.244	123.9
846.419	44.03
846.595	9.22
846.77	31.74
846.946	84.99
847.122	50.18
847.297	50.18
847.473	87.04
847.648	-5.12
847.824	7.17
847.999	-41.98
848.175	66.56
848.35	74.75
848.526	82.94
848.701	37.89
848.876	66.56
849.052	58.37
849.227	-11.26
849.403	5.12
849.578	-3.07
849.753	93.18
849.929	-7.17
850.104	5.12
850.279	17.41
850.454	-3.07
850.63	52.22
850.805	128
850.98	107.52
851.155	78.85
851.33	84.99
851.505	44.03
851.681	74.75
851.856	66.56
852.031	25.6
852.206	74.75
852.381	13.31
852.556	21.5
852.731	-11.26
852.906	41.98
853.081	-21.5
853.256	125.95
853.431	-7.17
853.606	44.03
853.781	66.56
853.956	1.02
854.131	52.22
854.305	13.31
854.48	52.22
854.655	-48.13
854.83	142.33
855.005	54.27
855.18	17.41
855.354	48.13
855.529	44.03
855.704	9.22
855.879	91.13
856.053	-11.26
856.228	78.85
856.403	13.31
856.577	50.18
856.752	17.41
856.926	29.7
857.101	-31.74
857.276	17.41
857.45	68.61
857.625	29.7
857.799	23.55
857.974	78.85
858.148	-13.31
858.323	19.46
858.497	33.79
858.672	52.22
858.846	41.98
859.02	99.33
859.195	-11.26
859.369	-7.17
859.543	9.22
859.718	-31.74
859.892	9.22
860.066	109.57
860.241	-23.55
860.415	-41.98
860.589	-64.51
860.763	-15.36
860.938	-7.17
861.112	123.9
861.286	41.98
861.46	78.85
861.634	-35.84
861.808	66.56
861.982	91.13
862.157	25.6
862.331	23.55
862.505	-21.5
862.679	-39.94
862.853	-23.55
863.027	-39.94
863.201	41.98
863.375	-29.7
863.549	125.95
863.722	35.84
863.896	54.27
864.07	37.89
864.244	27.65
864.418	1.02
864.592	62.46
864.766	56.32
864.939	-19.46
865.113	1.02
865.287	33.79
865.461	-31.74
865.634	1.02
865.808	-44.03
865.982	9.22
866.156	17.41
866.329	-15.36
866.503	95.23
866.676	17.41
866.85	48.13
867.024	-39.94
867.197	-7.17
867.371	13.31
867.544	1.02
867.718	-7.17
867.891	52.22
868.065	44.03
868.238	41.98
868.412	11.26
868.585	-39.94
868.759	1.02
868.932	44.03
869.105	27.65
869.279	-7.17
869.452	-7.17
869.625	1.02
869.799	35.84
869.972	-19.46
870.145	70.65
870.319	37.89
870.492	-46.08
870.665	-5.12
870.838	-1.02
871.011	25.6
871.185	37.89
871.358	-33.79
871.531	17.41
871.704	-33.79
871.877	33.79
872.05	39.94
872.223	7.17
872.396	-7.17
872.569	19.46
872.742	21.5
872.915	-31.74
873.088	23.55
873.261	3.07
873.434	25.6
873.607	9.22
873.78	-21.5
873.953	5.12
874.126	-15.36
874.299	21.5
874.471	39.94
874.644	-23.55
874.817	-68.61
874.99	84.99
875.163	23.55
875.335	11.26
875.508	17.41
875.681	27.65
875.853	35.84
876.026	58.37
876.199	41.98
876.371	35.84
876.544	-9.22
876.717	21.5
876.889	54.27
877.062	5.12
877.234	25.6
877.407	37.89
877.579	-35.84
877.752	41.98
877.924	46.08
878.097	48.13
878.269	17.41
878.442	-23.55
878.614	27.65
878.786	25.6
878.959	-52.22
879.131	-31.74
879.303	-70.65
879.476	-13.31
879.648	-15.36
879.82	68.61
879.993	31.74
880.165	3.07
880.337	66.56
880.509	-39.94
880.681	-7.17
880.854	-15.36
881.026	27.65
881.198	87.04
881.37	-64.51
881.542	66.56
881.714	-1.02
881.886	21.5
882.058	29.7
882.23	50.18
882.402	29.7
882.574	60.42
882.746	25.6
882.918	76.8
883.09	5.12
883.262	35.84
883.434	33.79
883.606	-62.46
883.778	-19.46
883.95	76.8
884.122	7.17
884.293	17.41
884.465	87.04
884.637	27.65
884.809	-7.17
884.98	74.75
885.152	-52.22
885.324	17.41
885.496	11.26
885.667	31.74
885.839	7.17
886.011	62.46
886.182	-11.26
886.354	-44.03
886.525	31.74
886.697	-3.07
886.869	80.89
887.04	25.6
887.212	25.6
887.383	-7.17
887.555	54.27
887.726	-54.27
887.897	27.65
888.069	60.42
888.24	54.27
888.412	33.79
888.583	-3.07
888.754	56.32
888.926	-56.32
889.097	91.13
889.268	-70.65
889.44	56.32
889.611	-39.94
889.782	-7.17
889.953	-19.46
890.125	60.42
890.296	-56.32
890.467	-60.42
890.638	-19.46
890.809	1.02
890.98	-41.98
891.151	-21.5
891.323	37.89
891.494	-31.74
891.665	76.8
891.836	-66.56
892.007	56.32
892.178	25.6
892.349	66.56
892.52	3.07
892.691	19.46
892.862	11.26
893.032	-70.65
893.203	70.65
893.374	41.98
893.545	111.61
893.716	-21.5
893.887	46.08
894.057	-7.17
894.228	-39.94
894.399	-60.42
894.57	58.37
894.74	-39.94
894.911	21.5
895.082	1.02
895.253	25.6
895.423	-1.02
895.594	56.32
895.764	-15.36
895.935	-23.55
896.106	5.12
896.276	9.22
896.447	1.02
896.617	-5.12
896.788	-23.55
896.958	-3.07
897.129	-7.17
897.299	-46.08
897.47	41.98
897.64	-11.26
897.81	-31.74
897.981	44.03
898.151	-35.84
898.322	-29.7
898.492	11.26
898.662	41.98
898.832	-13.31
899.003	11.26
899.173	-39.94
899.343	9.22
899.513	68.61
