Data from USB4F104151__132__14-44-04-827.txt Node

Date: Thu Mar 13 14:44:04 EDT 2025
User: louis
Spectrometer: USB4F10415
Trigger mode: 4
Integration Time (sec): 2.000000E-2
Scans to average: 1
Electric dark correction enabled: true
Nonlinearity correction enabled: false
Boxcar width: 0
XAxis mode: Wavelengths
Number of Pixels in Spectrum: 3648
>>>>>Begin Spectral Data<<<<<
178.204	-122.54
178.424	-122.54
178.644	-122.54
178.864	-122.54
179.084	-132.78
179.304	-9.9
179.524	-3.75
179.744	-5.8
179.964	-44.71
180.184	4.44
180.404	24.92
180.624	-34.47
180.844	29.01
181.064	-9.9
181.283	16.73
181.503	4.44
181.723	29.01
181.943	-26.28
182.163	57.68
182.383	20.82
182.602	-28.33
182.822	76.12
183.042	-36.52
183.262	37.2
183.482	12.63
183.701	-7.85
183.921	-44.71
184.141	-30.38
184.361	53.59
184.58	-34.47
184.8	-61.1
185.02	-1.71
185.239	67.92
185.459	-20.14
185.679	69.97
185.898	33.11
186.118	29.01
186.338	-7.85
186.557	37.2
186.777	-69.29
186.997	-11.95
187.216	12.63
187.436	45.4
187.655	16.73
187.875	51.54
188.095	-11.95
188.314	33.11
188.534	115.03
188.753	-20.14
188.973	45.4
189.192	20.82
189.412	20.82
189.631	41.3
189.851	-16.04
190.07	-52.91
190.29	-52.91
190.509	20.82
190.729	57.68
190.948	53.59
191.168	170.32
191.387	39.25
191.607	-18.09
191.826	4.44
192.045	-9.9
192.265	-11.95
192.484	45.4
192.704	-16.04
192.923	14.68
193.142	82.26
193.362	65.88
193.581	-24.23
193.8	8.53
194.02	78.16
194.239	12.63
194.458	-3.75
194.678	-42.67
194.897	39.25
195.116	37.2
195.335	47.44
195.555	-11.95
195.774	-36.52
195.993	-32.43
196.212	78.16
196.432	80.21
196.651	-32.43
196.87	45.4
197.089	98.64
197.308	-26.28
197.528	31.06
197.747	2.39
197.966	14.68
198.185	94.55
198.404	-81.58
198.623	26.96
198.842	29.01
199.062	65.88
199.281	100.69
199.5	29.01
199.719	78.16
199.938	20.82
200.157	29.01
200.376	-18.09
200.595	84.31
200.814	49.49
201.033	-30.38
201.252	6.49
201.471	37.2
201.69	6.49
201.909	45.4
202.128	43.35
202.347	6.49
202.566	37.2
202.785	29.01
203.004	-16.04
203.223	151.89
203.442	49.49
203.661	-9.9
203.879	57.68
204.098	8.53
204.317	-9.9
204.536	12.63
204.755	18.77
204.974	-9.9
205.193	37.2
205.411	110.93
205.63	39.25
205.849	82.26
206.068	-9.9
206.287	-52.91
206.505	74.07
206.724	31.06
206.943	69.97
207.162	22.87
207.381	-67.24
207.599	72.02
207.818	45.4
208.037	-61.1
208.255	-32.43
208.474	102.74
208.693	33.11
208.911	22.87
209.13	14.68
209.349	26.96
209.567	49.49
209.786	-20.14
210.005	35.16
210.223	18.77
210.442	41.3
210.661	-28.33
210.879	24.92
211.098	47.44
211.316	16.73
211.535	0.34
211.753	14.68
211.972	33.11
212.191	8.53
212.409	33.11
212.628	-24.23
212.846	-81.58
213.065	82.26
213.283	78.16
213.502	67.92
213.72	-65.19
213.938	76.12
214.157	53.59
214.375	-16.04
214.594	98.64
214.812	72.02
215.031	53.59
215.249	-7.85
215.467	-16.04
215.686	90.45
215.904	61.78
216.122	-63.15
216.341	20.82
216.559	80.21
216.778	14.68
216.996	63.83
217.214	-61.1
217.432	74.07
217.651	-57
217.869	55.64
218.087	-7.85
218.306	45.4
218.524	20.82
218.742	78.16
218.96	-16.04
219.179	-48.81
219.397	12.63
219.615	69.97
219.833	55.64
220.051	47.44
220.27	16.73
220.488	49.49
220.706	-46.76
220.924	10.58
221.142	-18.09
221.36	29.01
221.578	-40.62
221.796	20.82
222.015	53.59
222.233	-16.04
222.451	10.58
222.669	2.39
222.887	-1.71
223.105	61.78
223.323	35.16
223.541	-36.52
223.759	-52.91
223.977	12.63
224.195	8.53
224.413	20.82
224.631	74.07
224.849	12.63
225.067	102.74
225.285	-20.14
225.503	-7.85
225.721	-77.48
225.939	49.49
226.157	-34.47
226.375	53.59
226.592	61.78
226.81	102.74
227.028	63.83
227.246	29.01
227.464	-1.71
227.682	41.3
227.9	-11.95
228.117	33.11
228.335	24.92
228.553	35.16
228.771	29.01
228.989	-3.75
229.206	14.68
229.424	63.83
229.642	-11.95
229.86	-9.9
230.077	31.06
230.295	31.06
230.513	45.4
230.731	69.97
230.948	65.88
231.166	41.3
231.384	29.01
231.601	-69.29
231.819	20.82
232.037	47.44
232.254	-52.91
232.472	12.63
232.689	-95.91
232.907	57.68
233.125	8.53
233.342	16.73
233.56	-7.85
233.777	-28.33
233.995	39.25
234.213	-11.95
234.43	12.63
234.648	49.49
234.865	-20.14
235.083	78.16
235.3	63.83
235.518	61.78
235.735	22.87
235.953	37.2
236.17	63.83
236.388	-1.71
236.605	35.16
236.822	90.45
237.04	35.16
237.257	-52.91
237.475	-44.71
237.692	53.59
237.909	76.12
238.127	-1.71
238.344	76.12
238.562	-13.99
238.779	-108.2
238.996	-3.75
239.214	78.16
239.431	37.2
239.648	-20.14
239.865	67.92
240.083	-16.04
240.3	-61.1
240.517	-3.75
240.735	4.44
240.952	31.06
241.169	26.96
241.386	-1.71
241.603	-20.14
241.821	29.01
242.038	12.63
242.255	45.4
242.472	-42.67
242.689	57.68
242.907	-5.8
243.124	-26.28
243.341	31.06
243.558	-36.52
243.775	69.97
243.992	-54.95
244.209	31.06
244.426	47.44
244.643	53.59
244.86	4.44
245.078	41.3
245.295	86.36
245.512	18.77
245.729	0.34
245.946	74.07
246.163	100.69
246.38	-1.71
246.597	29.01
246.814	39.25
247.031	29.01
247.248	-50.86
247.464	55.64
247.681	22.87
247.898	57.68
248.115	76.12
248.332	-3.75
248.549	-1.71
248.766	131.41
248.983	45.4
249.2	98.64
249.417	29.01
249.633	-18.09
249.85	14.68
250.067	12.63
250.284	-22.19
250.501	10.58
250.717	131.41
250.934	-26.28
251.151	-20.14
251.368	2.39
251.585	33.11
251.801	-18.09
252.018	-7.85
252.235	88.4
252.451	53.59
252.668	6.49
252.885	53.59
253.102	24.92
253.318	0.34
253.535	26.96
253.752	6.49
253.968	-11.95
254.185	8.53
254.401	18.77
254.618	-3.75
254.835	57.68
255.051	69.97
255.268	0.34
255.484	39.25
255.701	29.01
255.917	45.4
256.134	-32.43
256.351	-16.04
256.567	61.78
256.784	-7.85
257	-11.95
257.217	-11.95
257.433	37.2
257.65	53.59
257.866	65.88
258.082	-71.34
258.299	-7.85
258.515	31.06
258.732	63.83
258.948	-57
259.165	6.49
259.381	37.2
259.597	37.2
259.814	-3.75
260.03	10.58
260.246	53.59
260.463	-1.71
260.679	41.3
260.895	20.82
261.112	2.39
261.328	-24.23
261.544	-34.47
261.761	143.7
261.977	-7.85
262.193	-24.23
262.409	-26.28
262.626	88.4
262.842	4.44
263.058	-3.75
263.274	-24.23
263.49	2.39
263.707	53.59
263.923	8.53
264.139	16.73
264.355	16.73
264.571	63.83
264.787	12.63
265.004	69.97
265.22	45.4
265.436	-50.86
265.652	8.53
265.868	20.82
266.084	-1.71
266.3	104.79
266.516	41.3
266.732	31.06
266.948	-3.75
267.164	-18.09
267.38	57.68
267.596	72.02
267.812	88.4
268.028	14.68
268.244	65.88
268.46	12.63
268.676	-48.81
268.892	20.82
269.108	-7.85
269.324	-20.14
269.54	-11.95
269.756	69.97
269.972	49.49
270.188	-20.14
270.403	61.78
270.619	-7.85
270.835	20.82
271.051	-3.75
271.267	37.2
271.483	94.55
271.698	-3.75
271.914	4.44
272.13	37.2
272.346	-9.9
272.562	4.44
272.777	39.25
272.993	-36.52
273.209	-24.23
273.425	61.78
273.64	59.73
273.856	53.59
274.072	14.68
274.287	-54.95
274.503	69.97
274.719	4.44
274.934	-11.95
275.15	-32.43
275.366	-11.95
275.581	-63.15
275.797	61.78
276.012	10.58
276.228	31.06
276.444	20.82
276.659	110.93
276.875	16.73
277.09	-20.14
277.306	-18.09
277.521	20.82
277.737	45.4
277.952	53.59
278.168	-50.86
278.383	121.17
278.599	-18.09
278.814	10.58
279.03	-50.86
279.245	84.31
279.461	0.34
279.676	-7.85
279.892	24.92
280.107	-13.99
280.322	33.11
280.538	22.87
280.753	-28.33
280.969	33.11
281.184	112.98
281.399	2.39
281.615	4.44
281.83	22.87
282.045	-61.1
282.26	45.4
282.476	88.4
282.691	22.87
282.906	-7.85
283.122	-28.33
283.337	-22.19
283.552	55.64
283.767	24.92
283.983	4.44
284.198	-7.85
284.413	49.49
284.628	-24.23
284.843	0.34
285.058	37.2
285.274	37.2
285.489	-3.75
285.704	-18.09
285.919	-52.91
286.134	10.58
286.349	-36.52
286.564	-36.52
286.779	110.93
286.995	-11.95
287.21	-13.99
287.425	45.4
287.64	-1.71
287.855	-26.28
288.07	8.53
288.285	135.51
288.5	55.64
288.715	80.21
288.93	24.92
289.145	82.26
289.36	29.01
289.575	4.44
289.79	59.73
290.004	6.49
290.219	-26.28
290.434	2.39
290.649	8.53
290.864	-36.52
291.079	-16.04
291.294	24.92
291.509	26.96
291.724	63.83
291.938	-32.43
292.153	65.88
292.368	-34.47
292.583	-44.71
292.798	10.58
293.012	12.63
293.227	-22.19
293.442	0.34
293.657	37.2
293.871	110.93
294.086	4.44
294.301	-20.14
294.516	-16.04
294.73	39.25
294.945	33.11
295.16	33.11
295.374	-11.95
295.589	8.53
295.804	-122.54
296.018	-3.75
296.233	4.44
296.447	-11.95
296.662	-32.43
296.877	-1.71
297.091	41.3
297.306	88.4
297.52	-3.75
297.735	22.87
297.949	8.53
298.164	53.59
298.378	12.63
298.593	-3.75
298.807	-24.23
299.022	-67.24
299.236	-24.23
299.451	102.74
299.665	-5.8
299.88	63.83
300.094	12.63
300.309	6.49
300.523	-38.57
300.737	53.59
300.952	2.39
301.166	-34.47
301.381	-24.23
301.595	4.44
301.809	45.4
302.024	61.78
302.238	-3.75
302.452	31.06
302.667	49.49
302.881	26.96
303.095	18.77
303.309	29.01
303.524	72.02
303.738	98.64
303.952	12.63
304.166	-11.95
304.381	10.58
304.595	45.4
304.809	4.44
305.023	84.31
305.237	20.82
305.452	22.87
305.666	29.01
305.88	53.59
306.094	-36.52
306.308	106.84
306.522	106.84
306.736	55.64
306.95	31.06
307.164	0.34
307.379	61.78
307.593	69.97
307.807	37.2
308.021	43.35
308.235	14.68
308.449	12.63
308.663	16.73
308.877	31.06
309.091	69.97
309.305	-9.9
309.519	0.34
309.733	20.82
309.947	-20.14
310.161	61.78
310.374	6.49
310.588	45.4
310.802	16.73
311.016	-46.76
311.23	67.92
311.444	22.87
311.658	-7.85
311.872	55.64
312.085	88.4
312.299	24.92
312.513	14.68
312.727	-7.85
312.941	14.68
313.154	45.4
313.368	22.87
313.582	14.68
313.796	-18.09
314.009	14.68
314.223	45.4
314.437	29.01
314.651	53.59
314.864	-9.9
315.078	-24.23
315.292	69.97
315.505	-18.09
315.719	22.87
315.933	-9.9
316.146	14.68
316.36	-26.28
316.573	-42.67
316.787	41.3
317.001	2.39
317.214	29.01
317.428	20.82
317.641	-73.39
317.855	37.2
318.068	121.17
318.282	-13.99
318.495	41.3
318.709	88.4
318.922	-16.04
319.136	88.4
319.349	6.49
319.563	24.92
319.776	24.92
319.99	8.53
320.203	33.11
320.417	-1.71
320.63	108.88
320.843	98.64
321.057	-5.8
321.27	6.49
321.483	-3.75
321.697	43.35
321.91	-20.14
322.124	37.2
322.337	16.73
322.55	-24.23
322.763	65.88
322.977	45.4
323.19	-118.44
323.403	92.5
323.617	31.06
323.83	55.64
324.043	57.68
324.256	6.49
324.469	-48.81
324.683	119.12
324.896	49.49
325.109	2.39
325.322	20.82
325.535	45.4
325.748	29.01
325.962	37.2
326.175	98.64
326.388	12.63
326.601	49.49
326.814	-20.14
327.027	-11.95
327.24	78.16
327.453	-1.71
327.666	22.87
327.879	-30.38
328.092	74.07
328.305	29.01
328.518	14.68
328.731	24.92
328.944	22.87
329.157	67.92
329.37	-48.81
329.583	96.6
329.796	37.2
330.009	-97.96
330.222	53.59
330.435	31.06
330.648	-1.71
330.861	39.25
331.073	12.63
331.286	29.01
331.499	65.88
331.712	-18.09
331.925	8.53
332.138	-40.62
332.35	104.79
332.563	-16.04
332.776	106.84
332.989	-26.28
333.202	96.6
333.414	12.63
333.627	24.92
333.84	82.26
334.053	74.07
334.265	80.21
334.478	2.39
334.691	86.36
334.903	37.2
335.116	65.88
335.329	22.87
335.541	-24.23
335.754	86.36
335.966	14.68
336.179	4.44
336.392	29.01
336.604	12.63
336.817	29.01
337.029	102.74
337.242	67.92
337.454	88.4
337.667	96.6
337.88	4.44
338.092	-36.52
338.305	41.3
338.517	65.88
338.729	43.35
338.942	112.98
339.154	49.49
339.367	-3.75
339.579	31.06
339.792	10.58
340.004	35.16
340.217	-16.04
340.429	24.92
340.641	45.4
340.854	20.82
341.066	-1.71
341.278	31.06
341.491	10.58
341.703	12.63
341.915	-1.71
342.128	100.69
342.34	-20.14
342.552	-36.52
342.764	53.59
342.977	78.16
343.189	61.78
343.401	12.63
343.613	65.88
343.826	24.92
344.038	-44.71
344.25	63.83
344.462	8.53
344.674	14.68
344.886	-16.04
345.099	53.59
345.311	-42.67
345.523	47.44
345.735	-26.28
345.947	-11.95
346.159	45.4
346.371	65.88
346.583	10.58
346.795	88.4
347.007	4.44
347.219	39.25
347.431	78.16
347.643	-5.8
347.855	24.92
348.067	31.06
348.279	57.68
348.491	61.78
348.703	-48.81
348.915	22.87
349.127	72.02
349.339	-22.19
349.551	-28.33
349.763	-9.9
349.975	-20.14
350.187	61.78
350.399	-73.39
350.61	53.59
350.822	35.16
351.034	2.39
351.246	4.44
351.458	53.59
351.669	37.2
351.881	74.07
352.093	29.01
352.305	20.82
352.517	69.97
352.728	67.92
352.94	82.26
353.152	61.78
353.363	6.49
353.575	37.2
353.787	-1.71
353.999	29.01
354.21	78.16
354.422	31.06
354.633	12.63
354.845	43.35
355.057	41.3
355.268	55.64
355.48	96.6
355.692	-52.91
355.903	24.92
356.115	37.2
356.326	-65.19
356.538	47.44
356.749	-32.43
356.961	12.63
357.172	24.92
357.384	6.49
357.595	63.83
357.807	12.63
358.018	-16.04
358.23	-28.33
358.441	82.26
358.653	129.36
358.864	31.06
359.075	29.01
359.287	26.96
359.498	80.21
359.709	-3.75
359.921	63.83
360.132	24.92
360.344	31.06
360.555	29.01
360.766	31.06
360.977	86.36
361.189	41.3
361.4	94.55
361.611	108.88
361.823	69.97
362.034	67.92
362.245	18.77
362.456	-3.75
362.667	51.54
362.879	-11.95
363.09	-40.62
363.301	10.58
363.512	-24.23
363.723	61.78
363.935	39.25
364.146	-20.14
364.357	104.79
364.568	72.02
364.779	24.92
364.99	94.55
365.201	-11.95
365.412	90.45
365.623	-28.33
365.834	31.06
366.045	37.2
366.256	33.11
366.467	45.4
366.678	-75.43
366.889	-3.75
367.1	12.63
367.311	20.82
367.522	29.01
367.733	69.97
367.944	74.07
368.155	4.44
368.366	31.06
368.577	57.68
368.788	33.11
368.999	51.54
369.209	53.59
369.42	45.4
369.631	117.08
369.842	12.63
370.053	-3.75
370.264	76.12
370.474	53.59
370.685	55.64
370.896	37.2
371.107	20.82
371.317	-46.76
371.528	-1.71
371.739	-28.33
371.95	53.59
372.16	-7.85
372.371	16.73
372.582	-36.52
372.792	4.44
373.003	47.44
373.214	29.01
373.424	-32.43
373.635	94.55
373.846	31.06
374.056	6.49
374.267	57.68
374.477	74.07
374.688	39.25
374.898	8.53
375.109	4.44
375.319	-11.95
375.53	20.82
375.74	57.68
375.951	63.83
376.161	-20.14
376.372	29.01
376.582	43.35
376.793	63.83
377.003	18.77
377.214	-77.48
377.424	-16.04
377.635	88.4
377.845	39.25
378.055	45.4
378.266	-93.87
378.476	63.83
378.686	-28.33
378.897	-28.33
379.107	8.53
379.317	-1.71
379.528	86.36
379.738	14.68
379.948	-36.52
380.158	69.97
380.369	-20.14
380.579	90.45
380.789	24.92
380.999	39.25
381.21	63.83
381.42	51.54
381.63	12.63
381.84	110.93
382.05	-5.8
382.261	106.84
382.471	2.39
382.681	6.49
382.891	69.97
383.101	-7.85
383.311	-36.52
383.521	-11.95
383.731	102.74
383.941	90.45
384.151	20.82
384.361	72.02
384.571	72.02
384.781	104.79
384.991	33.11
385.201	65.88
385.411	63.83
385.621	88.4
385.831	35.16
386.041	-3.75
386.251	20.82
386.461	20.82
386.671	39.25
386.881	74.07
387.091	92.5
387.301	37.2
387.511	41.3
387.72	55.64
387.93	-52.91
388.14	78.16
388.35	20.82
388.56	106.84
388.769	24.92
388.979	-3.75
389.189	74.07
389.399	84.31
389.609	29.01
389.818	143.7
390.028	65.88
390.238	-3.75
390.447	61.78
390.657	4.44
390.867	-26.28
391.076	4.44
391.286	45.4
391.496	39.25
391.705	2.39
391.915	74.07
392.125	69.97
392.334	61.78
392.544	37.2
392.753	-40.62
392.963	63.83
393.172	33.11
393.382	55.64
393.591	131.41
393.801	78.16
394.01	67.92
394.22	45.4
394.429	-7.85
394.639	4.44
394.848	100.69
395.058	0.34
395.267	110.93
395.477	82.26
395.686	0.34
395.895	110.93
396.105	100.69
396.314	29.01
396.524	63.83
396.733	33.11
396.942	39.25
397.152	61.78
397.361	100.69
397.57	45.4
397.78	33.11
397.989	33.11
398.198	102.74
398.407	57.68
398.617	33.11
398.826	98.64
399.035	110.93
399.244	47.44
399.453	137.56
399.663	94.55
399.872	41.3
400.081	53.59
400.29	115.03
400.499	51.54
400.708	90.45
400.917	92.5
401.127	102.74
401.336	94.55
401.545	143.7
401.754	69.97
401.963	145.75
402.172	96.6
402.381	69.97
402.59	96.6
402.799	98.64
403.008	90.45
403.217	74.07
403.426	121.17
403.635	69.97
403.844	115.03
404.053	184.66
404.262	139.6
404.471	88.4
404.68	82.26
404.888	106.84
405.097	135.51
405.306	129.36
405.515	164.18
405.724	115.03
405.933	121.17
406.142	239.95
406.35	186.71
406.559	96.6
406.768	102.74
406.977	180.56
407.185	121.17
407.394	143.7
407.603	29.01
407.812	121.17
408.02	244.05
408.229	129.36
408.438	258.39
408.646	168.27
408.855	180.56
409.064	188.75
409.272	147.8
409.481	325.97
409.69	223.57
409.898	196.95
410.107	209.23
410.315	285.01
410.524	209.23
410.733	227.67
410.941	293.2
411.15	229.71
411.358	217.43
411.567	416.08
411.775	278.87
411.984	303.44
412.192	309.58
412.401	289.1
412.609	362.83
412.818	352.59
413.026	340.3
413.234	325.97
413.443	346.45
413.651	397.65
413.86	446.8
414.068	438.61
414.276	414.03
414.485	463.18
414.693	491.85
414.901	522.57
415.11	495.95
415.318	514.38
415.526	448.85
415.734	518.48
415.943	536.91
416.151	637.26
416.359	565.58
416.567	645.45
416.776	581.96
416.984	651.6
417.192	756.04
417.4	684.36
417.608	594.25
417.817	778.57
418.025	756.04
418.233	940.36
418.441	790.86
418.649	864.58
418.857	887.11
419.065	1055.05
419.273	977.22
419.481	997.7
419.689	1026.37
419.897	1114.44
420.105	1020.23
420.313	1104.2
420.521	1182.02
420.729	1147.2
420.937	1208.64
421.145	1286.47
421.353	1438.02
421.561	1421.63
421.769	1278.27
421.977	1392.96
422.185	1438.02
422.393	1493.31
422.601	1610.04
422.809	1577.28
423.017	1691.96
423.224	1745.21
423.432	1855.8
423.64	1831.23
423.848	1988.92
424.056	1923.38
424.263	2062.65
424.471	2074.93
424.679	2099.51
424.887	2185.52
425.094	2253.11
425.302	2259.25
425.51	2289.97
425.718	2431.28
425.925	2490.67
426.133	2588.97
426.341	2674.99
426.548	2693.42
426.756	2818.35
426.964	2822.44
427.171	2890.03
427.379	3060.01
427.586	3129.64
427.794	3246.37
428.001	3244.32
428.209	3582.24
428.417	3463.46
428.624	3658.01
428.832	3772.7
429.039	3641.63
429.247	3637.53
429.454	4116.76
429.662	4208.92
429.869	3952.92
430.076	4270.36
430.284	4280.6
430.491	4358.42
430.699	4718.86
430.906	4536.59
431.114	4602.13
431.321	4782.35
431.528	4755.72
431.736	5312.77
431.943	5454.08
432.15	5265.67
432.358	5316.87
432.565	5699.84
432.772	5544.19
432.979	6074.62
433.187	5886.2
433.394	6228.21
433.601	6598.9
433.808	6512.88
434.016	6328.56
434.223	6766.83
434.43	7164.14
434.637	6902
434.844	7506.15
435.052	7475.43
435.259	7569.63
435.466	7590.11
435.673	7524.58
435.88	8102.11
436.087	8417.49
436.294	8204.5
436.501	8179.93
436.708	8206.55
436.915	8638.67
437.122	9023.69
437.329	8806.61
437.537	9093.32
437.743	9302.22
437.95	9300.17
438.157	9806.02
438.364	10318.01
438.571	10139.83
438.778	10301.62
438.985	10868.91
439.192	10604.72
439.399	11149.48
439.606	10703.03
439.813	11243.69
440.02	11962.53
440.227	11993.25
440.433	11620.52
440.64	11993.25
440.847	11944.1
441.054	12460.18
441.261	13009.04
441.467	12963.98
441.674	13152.4
441.881	13611.14
442.088	13574.28
442.294	13361.29
442.501	13955.2
442.708	14256.25
442.914	14471.29
443.121	15519.85
443.328	14880.88
443.534	15966.31
443.741	15462.51
443.948	14950.51
444.154	16265.31
444.361	16584.79
444.568	16404.57
444.774	16506.97
444.981	16543.83
445.187	17104.98
445.394	17772.61
445.6	17537.1
445.807	19114.03
446.013	17954.88
446.22	18665.53
446.426	19329.07
446.633	19480.62
446.839	20221.98
447.046	19347.5
447.252	20391.97
447.459	20324.38
447.665	20430.88
447.871	21313.55
448.078	22263.81
448.284	21243.92
448.491	22046.72
448.697	22564.86
448.903	23013.37
449.11	23056.37
449.316	22829.05
449.522	23207.92
449.728	23861.23
449.935	24053.73
450.141	24078.31
450.347	24860.63
450.553	23592.94
450.76	24170.47
450.966	24965.08
451.172	24426.46
451.378	25272.28
451.584	24727.52
451.791	25360.34
451.997	25327.57
452.203	25487.31
452.409	25552.85
452.615	25413.59
452.821	24745.95
453.027	24408.03
453.233	25901
453.44	24557.53
453.646	24772.57
453.852	24958.94
454.058	25704.4
454.264	24805.34
454.47	25051.1
454.676	24573.92
454.882	25499.6
455.088	23586.8
455.294	23832.55
455.5	24035.3
455.705	24324.07
455.911	22958.07
456.117	22681.6
456.323	22587.39
456.529	21372.94
456.735	22458.37
456.941	21678.09
457.147	21655.56
457.352	20723.74
457.558	20662.3
457.764	20652.06
457.97	20181.03
458.176	19955.75
458.381	20027.43
458.587	18976.82
458.793	18810.93
458.999	17887.3
459.204	19337.26
459.41	18645.05
459.616	17391.69
459.821	17555.53
460.027	17498.19
460.233	17209.42
460.438	16341.08
460.644	16429.15
460.85	15550.57
461.055	15401.07
461.261	15609.96
461.466	14319.74
461.672	13897.86
461.878	14731.38
462.083	14037.12
462.289	13602.95
462.494	13609.09
462.7	12732.56
462.905	12542.1
463.111	13033.61
463.316	12781.71
463.522	12597.4
463.727	12724.37
463.932	12519.57
464.138	12466.33
464.343	12730.52
464.549	12390.55
464.754	12810.39
464.959	12755.09
465.165	12359.83
465.37	11833.5
465.575	11702.43
465.781	12105.88
465.986	12226.71
466.191	11718.82
466.397	11268.27
466.602	10993.84
466.807	11477.16
467.012	11524.26
467.218	11456.68
467.423	10997.93
467.628	11268.27
467.833	11692.19
468.038	11159.72
468.244	10991.79
468.449	11344.04
468.654	11004.08
468.859	10926.25
469.064	10842.29
469.269	10432.69
469.474	10555.57
469.679	10696.88
469.885	10465.46
470.09	10655.92
470.295	10664.11
470.5	10164.41
470.705	10563.76
470.91	10055.87
471.115	9945.28
471.32	10483.89
471.525	10225.85
471.73	10031.29
471.935	9924.8
472.139	9539.78
472.344	9605.31
472.549	9658.56
472.754	9539.78
472.959	9228.49
473.164	8958.16
473.369	8853.71
473.574	9269.45
473.778	9232.58
473.983	9027.79
474.188	8933.58
474.393	8818.89
474.598	8847.57
474.802	8591.57
475.007	8499.41
475.212	8704.21
475.417	8294.61
475.621	8196.31
475.826	8323.29
476.031	7985.37
476.235	8061.15
476.44	8061.15
476.645	7860.45
476.849	8116.44
477.054	7737.57
477.259	7745.76
477.463	7676.13
477.668	7639.26
477.872	7610.59
478.077	7504.1
478.282	7303.4
478.486	7373.03
478.691	7270.63
478.895	7166.18
479.1	7201
479.304	7276.77
479.509	7002.35
479.713	7250.15
479.918	6779.12
480.122	6918.38
480.326	6967.53
480.531	7100.65
480.735	7166.18
480.94	6672.62
481.144	7035.11
481.348	6598.9
481.553	6809.84
481.757	6607.09
481.961	6650.1
482.166	6750.45
482.37	6672.62
482.574	6672.62
482.778	6672.62
482.983	6850.8
483.187	6672.62
483.391	6869.23
483.595	6531.31
483.8	6754.54
484.004	6695.15
484.208	6740.21
484.412	6600.94
484.616	6592.75
484.821	6656.24
485.025	6600.94
485.229	6701.3
485.433	6650.1
485.637	6467.83
485.841	6658.29
486.045	6758.64
486.249	6701.3
486.453	6711.53
486.657	6582.51
486.861	6824.17
487.065	6631.66
487.269	6643.95
487.473	6457.59
487.677	6705.39
487.881	6799.6
488.085	6725.87
488.289	6633.71
488.493	6764.78
488.697	6807.79
488.901	6805.74
489.105	6627.57
489.309	6734.06
489.512	6703.34
489.716	6736.11
489.92	6701.3
490.124	6543.6
490.328	6879.47
490.531	7031.02
490.735	6902
490.939	6858.99
491.143	6789.36
491.346	6697.2
491.55	6975.72
491.754	7002.35
491.958	6983.91
492.161	7012.59
492.365	6783.21
492.569	7059.69
492.772	6979.82
492.976	7055.59
493.18	7201
493.383	7256.29
493.587	7213.29
493.79	7311.59
493.994	7196.9
494.197	7344.36
494.401	7368.93
494.605	7293.16
494.808	7485.67
495.012	7551.2
495.215	7604.45
495.419	7569.63
495.622	7504.1
495.825	7762.14
496.029	7725.28
496.232	7819.49
496.436	7733.47
496.639	7862.49
496.843	7917.79
497.046	8052.95
497.249	8167.64
497.453	8507.6
497.656	8235.22
497.859	8372.44
498.063	8466.64
498.266	8687.82
498.469	8839.37
498.673	8599.76
498.876	8755.41
499.079	8970.44
499.282	8931.53
499.485	9044.17
499.689	9232.58
499.892	9138.38
500.095	9193.67
500.298	9525.44
500.501	9375.94
500.705	9826.5
500.908	9752.77
501.111	10031.29
501.314	9986.24
501.517	10172.6
501.72	10354.87
501.923	10252.47
502.126	10504.37
502.329	10498.23
502.532	10563.76
502.735	10582.2
502.938	10967.21
503.141	10936.49
503.344	11145.39
503.547	11157.68
503.75	11341.99
503.953	11366.57
504.156	11653.28
504.359	11667.62
504.562	11872.42
504.765	12064.93
504.968	12089.5
505.17	12314.78
505.373	12398.74
505.576	12583.06
505.779	12808.34
505.982	12644.5
506.185	12933.26
506.387	12949.65
506.59	13115.53
506.793	13432.97
506.996	13275.27
507.198	13746.31
507.401	13365.39
507.604	13701.25
507.807	13963.39
508.009	14305.4
508.212	14123.13
508.415	14532.73
508.617	14747.76
508.82	14520.44
509.022	14604.41
509.225	15028.34
509.428	15044.72
509.63	15239.28
509.833	15405.16
510.035	15626.34
510.238	15474.79
510.44	15896.67
510.643	16287.84
510.845	16136.29
511.048	16119.9
511.25	16388.19
511.453	16539.74
511.655	16932.95
511.858	17117.26
512.06	17002.58
512.262	17301.58
512.465	17412.17
512.667	17414.22
512.87	17928.26
513.072	17756.23
513.274	18229.31
513.477	18182.21
513.679	18604.09
513.881	18812.98
514.084	18860.09
514.286	19060.79
514.488	19130.42
514.69	19417.13
514.893	19798.06
515.095	19601.45
515.297	19965.99
515.499	20076.58
515.701	20135.97
515.904	20500.51
516.106	20676.63
516.308	20662.3
516.51	21250.07
516.712	21202.96
516.914	21370.9
517.116	21729.29
517.318	21702.67
517.52	21782.54
517.722	22036.49
517.925	22228.99
518.127	22398.98
518.329	22528
518.531	22497.28
518.733	23044.09
518.935	23044.09
519.136	23177.2
519.338	23287.79
519.54	23836.65
519.742	23881.7
519.944	23914.47
520.146	24199.14
520.348	24801.24
520.55	24723.42
520.752	25034.71
520.954	24989.66
521.155	24852.44
521.357	25425.87
521.559	25696.21
521.761	26146.76
521.963	26062.79
522.164	26085.32
522.366	26152.9
522.568	26482.63
522.77	26587.07
522.971	26947.51
523.173	26736.57
523.375	27088.82
523.576	27346.87
523.778	26935.23
523.98	27742.13
524.181	28069.8
524.383	27680.69
524.584	28477.35
524.786	28309.41
524.988	28239.78
525.189	28700.58
525.391	28510.11
525.592	28833.69
525.794	29058.97
525.995	28823.45
526.197	28985.24
526.398	28997.53
526.6	29280.15
526.801	29386.64
527.003	29970.32
527.204	29622.16
527.406	29835.15
527.607	29925.26
527.808	29800.33
528.01	29861.77
528.211	30187.4
528.412	30605.19
528.614	30422.92
528.815	30347.14
529.016	30603.14
529.218	30719.87
529.419	30490.5
529.62	30881.66
529.822	30300.04
530.023	30912.38
530.224	30852.99
530.425	30750.59
530.626	30766.98
530.828	30723.97
531.029	31481.72
531.23	31090.55
531.431	31256.44
531.632	31051.64
531.833	31242.1
532.035	31006.59
532.236	31209.34
532.437	31489.91
532.638	31080.32
532.839	31211.39
533.04	31768.43
533.241	31113.08
533.442	31709.04
533.643	31575.92
533.844	31672.18
534.045	31604.6
534.246	31364.98
534.447	31756.14
534.648	31438.71
534.849	31602.55
535.05	31506.29
535.251	31788.91
535.451	31698.8
535.652	31528.82
535.853	31946.61
536.054	31696.75
536.255	31846.26
536.456	31582.07
536.657	32112.49
536.857	31971.18
537.058	31463.29
537.259	31776.62
537.46	31735.67
537.66	31727.47
537.861	31967.09
538.062	31721.33
538.263	31405.94
538.463	31491.96
538.664	31414.13
538.865	31651.7
539.065	32116.59
539.266	31612.79
539.466	31854.45
539.667	31426.42
539.868	31838.06
540.068	31821.68
540.269	31559.54
540.469	31903.6
540.67	31643.51
540.87	31539.06
541.071	31692.66
541.271	31817.58
541.472	32053.1
541.672	31657.84
541.873	31332.22
542.073	31432.57
542.274	31438.71
542.474	31440.76
542.675	31287.16
542.875	32059.24
543.075	31549.3
543.276	31412.09
543.476	31580.02
543.676	31319.93
543.877	31690.61
544.077	31721.33
544.277	31414.13
544.478	31479.67
544.678	31629.17
544.878	31471.48
545.078	31588.21
545.279	31369.08
545.479	31149.95
545.679	31403.89
545.879	31340.41
546.079	31373.17
546.28	31500.15
546.48	31113.08
546.68	31702.9
546.88	31797.1
547.08	31512.44
547.28	31004.54
547.48	30879.61
547.68	31311.74
547.88	30920.57
548.081	31567.73
548.281	31186.81
548.481	31197.05
548.681	31463.29
548.881	31584.12
549.081	31233.91
549.28	31362.93
549.48	31397.75
549.68	31397.75
549.88	31692.66
550.08	31162.23
550.28	31369.08
550.48	31549.3
550.68	31283.06
550.88	31248.25
551.08	31065.98
551.279	31559.54
551.479	31174.52
551.679	30885.76
551.879	31315.83
552.079	31088.51
552.278	30930.81
552.478	30998.4
552.678	30922.62
552.878	31543.16
553.077	30875.52
553.277	30963.58
553.477	31135.61
553.676	31100.79
553.876	31049.6
554.076	30797.7
554.275	30820.22
554.475	30910.33
554.674	30883.71
554.874	30521.22
555.074	30756.74
555.273	30816.13
555.473	31022.97
555.672	30871.42
555.872	30640
556.071	30881.66
556.271	30822.27
556.47	30640
556.67	30652.29
556.869	30836.61
557.068	30613.38
557.268	30410.63
557.467	30465.92
557.667	30451.59
557.866	30433.16
558.065	30662.53
558.265	30330.76
558.464	30631.81
558.663	30551.94
558.863	30142.35
559.062	30435.2
559.261	30209.93
559.461	30607.23
559.66	30128.01
559.859	29837.2
560.058	29724.56
560.258	29949.84
560.457	29697.94
560.656	29714.32
560.855	29552.53
561.054	30101.39
561.253	29607.83
561.453	29718.42
561.652	29857.68
561.851	30134.15
562.05	29544.34
562.249	29636.5
562.448	29955.98
562.647	29517.71
562.846	28979.1
563.045	29579.15
563.244	29040.54
563.443	29656.98
563.642	28899.23
563.841	29317.01
564.04	29290.39
564.239	29122.46
564.438	28841.89
564.637	28972.96
564.836	29073.31
565.035	28766.11
565.234	28665.76
565.432	28823.45
565.631	29022.11
565.83	28637.09
566.029	28309.41
566.228	28620.7
566.427	28569.51
566.625	28264.36
566.824	27826.09
567.023	28561.31
567.222	27994.03
567.42	28063.66
567.619	28301.22
567.818	28112.81
568.016	27963.31
568.215	27975.59
568.414	28026.79
568.612	27957.16
568.811	27582.38
569.01	27793.33
569.208	27357.11
569.407	27592.62
569.605	27154.36
569.804	27264.95
570.002	27137.98
570.201	27250.61
570.4	27146.17
570.598	26959.8
570.797	27058.1
570.995	26871.74
571.193	26724.29
571.392	26716.09
571.59	26539.97
571.789	26888.12
571.987	26849.21
572.186	26929.08
572.384	26396.61
572.582	26625.98
572.781	26742.72
572.979	25862.09
573.177	26564.54
573.376	26230.73
573.574	26011.59
573.772	26320.84
573.971	26220.49
574.169	25692.11
574.367	25753.55
574.565	25724.88
574.763	25647.05
574.962	25495.5
575.16	25399.25
575.358	25518.03
575.556	25128.92
575.754	25784.27
575.952	25266.13
576.151	25327.57
576.349	24842.2
576.547	25296.85
576.745	25184.21
576.943	25120.73
577.141	25081.81
577.339	25178.07
577.537	24737.76
577.735	24809.43
577.933	24514.53
578.131	24872.92
578.329	24193
578.527	24274.91
578.725	24717.28
578.923	24692.7
579.121	24274.91
579.319	24016.87
579.516	24422.37
579.714	23988.2
579.912	24203.24
580.11	23953.38
580.308	24199.14
580.506	23834.6
580.704	23615.47
580.901	23814.12
581.099	23963.62
581.297	23476.21
581.495	23629.8
581.692	23699.44
581.89	23336.95
582.088	23463.92
582.285	23171.06
582.483	22978.55
582.681	23257.07
582.878	23332.85
583.076	22743.03
583.274	23134.2
583.471	22798.33
583.669	23039.99
583.866	22937.59
584.064	23203.83
584.262	22620.16
584.459	22693.88
584.657	22562.81
584.854	22685.69
585.052	22087.68
585.249	22495.23
585.447	22450.17
585.644	22093.83
585.841	22337.54
586.039	22515.71
586.236	22155.27
586.434	21989.38
586.631	22091.78
586.828	21997.57
587.026	21843.98
587.223	21790.73
587.42	21798.92
587.618	21606.41
587.815	21602.32
588.012	21665.8
588.21	21368.85
588.407	21653.51
588.604	21352.46
588.801	21168.15
588.999	21389.33
589.196	21475.34
589.393	20971.54
589.59	20961.3
589.787	20801.56
589.984	20957.21
590.182	20553.76
590.379	21205.01
590.576	20779.03
590.773	20762.65
590.97	20709.4
591.167	20836.38
591.364	20439.07
591.561	20686.87
591.758	20295.71
591.955	20330.53
592.152	20578.33
592.349	20146.21
592.546	20119.59
592.743	20205.6
592.94	19808.3
593.137	20176.93
593.334	20107.3
593.531	19699.75
593.727	19830.82
593.924	19781.67
594.121	19927.08
594.318	19537.96
594.515	19507.24
594.712	19738.66
594.908	19572.78
595.105	19681.32
595.302	19423.28
595.499	19632.17
595.696	19249.2
595.892	18946.1
596.089	19257.39
596.286	19413.04
596.482	19062.83
596.679	19064.88
596.876	19083.31
597.072	18978.87
597.269	18886.71
597.466	18546.75
597.662	18720.82
597.859	18640.95
598.055	18599.99
598.252	18468.92
598.448	18638.9
598.645	18214.98
598.841	18462.78
599.038	18221.12
599.234	18278.46
599.431	18051.14
599.627	18223.17
599.824	18165.82
600.02	17784.9
600.217	18227.26
600.413	17866.82
600.609	17868.87
600.806	17682.5
601.002	17856.58
601.198	17817.67
601.395	17530.95
601.591	17455.18
601.787	17473.61
601.984	17510.47
602.18	17754.18
602.376	17391.69
602.572	17612.87
602.769	17645.64
602.965	17246.29
603.161	17434.7
603.357	16978
603.553	17002.58
603.75	16908.37
603.946	16963.67
604.142	16959.57
604.338	16769.11
604.534	16900.18
604.73	16681.05
604.926	16908.37
605.122	16879.7
605.318	16474.2
605.514	16537.69
605.71	16355.42
605.906	16578.65
606.102	16617.56
606.298	16308.32
606.494	16513.11
606.69	16179.29
606.886	16371.8
607.082	16042.08
607.278	16408.67
607.474	15994.98
607.67	16359.52
607.866	15827.04
608.062	16207.97
608.257	16105.57
608.453	16224.35
608.649	16195.68
608.845	15845.48
609.041	15743.08
609.236	15954.02
609.432	15837.28
609.628	15652.97
609.824	15882.34
610.019	15569
610.215	15644.77
610.411	15597.67
610.606	15497.32
610.802	15528.04
610.998	15372.39
611.193	15519.85
611.389	15399.02
611.584	15351.92
611.78	15376.49
611.976	15511.66
612.171	15464.55
612.367	15323.24
612.562	15093.87
612.758	14835.83
612.953	14987.38
613.149	15310.96
613.344	14973.04
613.539	15280.24
613.735	14946.42
613.93	15222.89
614.126	14887.03
614.321	15280.24
614.517	15163.5
614.712	14864.5
614.907	14987.38
615.103	14985.33
615.298	14809.2
615.493	14999.66
615.688	14467.19
615.884	14921.84
616.079	14385.27
616.274	14841.97
616.47	14436.47
616.665	14594.17
616.86	14522.49
617.055	14588.02
617.25	14524.54
617.445	14594.17
617.641	14276.73
617.836	14418.04
618.031	14153.85
618.226	14176.38
618.421	14061.69
618.616	14520.44
618.811	14250.11
619.006	14352.51
619.201	13807.75
619.396	13971.58
619.591	13854.85
619.786	14026.88
619.981	13678.72
620.176	13873.28
620.371	13621.38
620.566	13596.81
620.761	13717.64
620.956	13736.07
621.151	13428.87
621.346	13631.62
621.541	13324.43
621.735	13371.53
621.93	13189.26
622.125	13228.17
622.32	13086.86
622.515	13127.82
622.709	13031.57
622.904	13066.38
623.099	12689.56
623.294	13142.16
623.488	12736.66
623.683	12718.23
623.878	12398.74
624.072	12480.66
624.267	12583.06
624.462	12374.17
624.656	12234.91
624.851	12310.68
625.046	12114.08
625.24	12048.54
625.435	12013.73
625.629	12122.27
625.824	11788.45
626.018	11884.7
626.213	11727.01
626.407	11927.71
626.602	11800.74
626.796	11645.09
626.991	11727.01
627.185	11579.56
627.38	11606.18
627.574	11460.77
627.768	11075.76
627.963	11370.66
628.157	11276.46
628.352	11247.79
628.546	11059.37
628.74	10977.45
628.935	11186.35
629.129	11047.08
629.323	10807.47
629.517	10754.23
629.712	10893.49
629.906	10664.11
630.1	10531
630.294	10326.2
630.489	10485.94
630.683	10399.93
630.877	10203.32
631.071	10334.39
631.265	10410.17
631.459	10047.68
631.653	10125.5
631.848	10191.03
632.042	10031.29
632.236	9924.8
632.43	10047.68
632.624	9910.46
632.818	9722.05
633.012	9799.87
633.206	9658.56
633.4	9722.05
633.594	9597.12
633.788	9744.58
633.982	9926.85
634.176	9590.98
634.369	9562.31
634.563	9439.43
634.757	9334.98
634.951	9298.12
635.145	9359.56
635.339	9361.61
635.533	9175.24
635.726	9148.62
635.92	9154.76
636.114	9072.84
636.308	8882.38
636.501	9054.41
636.695	8992.97
636.889	8861.9
637.083	8900.81
637.276	8689.87
637.47	8698.06
637.664	8577.23
637.857	8515.8
638.051	8601.81
638.244	8259.8
638.438	8517.84
638.632	8544.47
638.825	8417.49
639.019	8401.11
639.212	8290.52
639.406	8515.8
639.599	8263.9
639.793	8335.57
639.986	8016.09
640.18	8085.72
640.373	8046.81
640.567	8067.29
640.76	8081.63
640.954	7854.3
641.147	7844.06
641.34	7925.98
641.534	7643.36
641.727	7745.76
641.92	7747.81
642.114	7614.69
642.307	7594.21
642.5	7557.35
642.694	7442.66
642.887	7430.37
643.08	7510.24
643.273	7491.81
643.467	7471.33
643.66	7332.07
643.853	7160.04
644.046	7090.41
644.239	7033.07
644.432	7252.2
644.626	6955.24
644.819	7110.89
645.012	6934.76
645.205	7063.79
645.398	7074.03
645.591	6791.41
645.784	6953.2
645.977	6805.74
646.17	6848.75
646.363	6678.77
646.556	6654.19
646.749	6861.04
646.942	6779.12
647.135	6762.73
647.328	6607.09
647.521	6578.42
647.714	6422.77
647.907	6521.07
648.099	6549.75
648.292	6453.49
648.485	6383.86
648.678	6193.4
648.871	6275.32
649.064	6181.11
649.256	6301.94
649.449	6320.37
649.642	6267.13
649.835	6217.97
650.027	6091
650.22	6140.15
650.413	6033.66
650.605	6109.43
650.798	5968.12
650.991	5959.93
651.183	5994.75
651.376	6052.09
651.568	5861.63
651.761	5736.7
651.954	5767.42
652.146	5714.17
652.339	5843.2
652.531	5783.81
652.724	5665.02
652.916	5566.72
653.109	5654.78
653.301	5607.68
653.494	5599.49
653.686	5488.9
653.879	5632.26
654.071	5478.66
654.263	5607.68
654.456	5431.55
654.648	5396.74
654.84	5224.71
655.033	5255.43
655.225	5247.24
655.417	5218.57
655.61	5292.29
655.802	5271.81
655.994	5239.05
656.186	5327.11
656.379	5237
656.571	5060.87
656.763	5081.35
656.955	5073.16
657.148	4954.38
657.34	5067.02
657.532	5107.98
657.724	4878.6
657.916	5071.11
658.108	4995.34
658.3	4704.53
658.492	4841.74
658.684	4839.69
658.876	4909.32
659.068	4747.53
659.26	4624.65
659.452	4763.92
659.644	4784.4
659.836	4780.3
660.028	4682
660.22	4690.19
660.412	4688.14
660.604	4550.93
660.796	4671.76
660.988	4460.82
661.18	4477.2
661.372	4403.47
661.563	4446.48
661.755	4509.97
661.947	4512.02
662.139	4362.51
662.331	4405.52
662.522	4325.65
662.714	4389.14
662.906	4253.97
663.097	4276.5
663.289	4225.3
663.481	4215.06
663.673	4378.9
663.864	4266.26
664.056	4225.3
664.247	4200.73
664.439	4090.13
664.631	3967.26
664.822	4243.73
665.014	4120.85
665.205	4092.18
665.397	4002.07
665.588	4190.49
665.78	3983.64
665.971	3954.97
666.163	4026.65
666.354	3985.69
666.546	3985.69
666.737	3883.29
666.929	3838.23
667.12	3815.71
667.311	3957.02
667.503	3801.37
667.694	3780.89
667.885	3832.09
668.077	3731.74
668.268	3846.43
668.459	3600.67
668.651	3862.81
668.842	3830.04
669.033	3760.41
669.224	3701.02
669.416	3782.94
669.607	3735.84
669.798	3842.33
669.989	3684.64
670.18	3707.16
670.371	3572
670.563	3596.57
670.754	3615.01
670.945	3600.67
671.136	3502.37
671.327	3526.94
671.518	3467.55
671.709	3553.57
671.9	3643.68
672.091	3485.98
672.282	3543.33
672.473	3420.45
672.664	3510.56
672.855	3389.73
673.046	3399.97
673.237	3494.18
673.428	3361.06
673.619	3490.08
673.809	3348.77
674	3328.29
674.191	3520.8
674.382	3266.85
674.573	3387.68
674.764	3340.58
674.954	3412.26
675.145	3279.14
675.336	3305.76
675.527	3242.28
675.717	3236.13
675.908	3297.57
676.099	3316
676.289	3209.51
676.48	3318.05
676.671	3209.51
676.861	3197.22
677.052	3182.88
677.243	3283.24
677.433	3211.56
677.624	3363.11
677.814	3170.6
678.005	3137.83
678.195	3293.48
678.386	3135.78
678.576	3006.76
678.767	3131.69
678.957	2957.61
679.148	3162.41
679.338	3160.36
679.529	3098.92
679.719	3150.12
679.909	3117.35
680.1	3060.01
680.29	3109.16
680.481	2887.98
680.671	3043.62
680.861	3111.21
681.052	3004.71
681.242	3035.43
681.432	3092.77
681.622	3002.66
681.813	3039.53
682.003	3037.48
682.193	3047.72
682.383	3100.97
682.573	2941.22
682.764	2957.61
682.954	3051.81
683.144	2965.8
683.334	3029.29
683.524	2892.07
683.714	2904.36
683.904	2971.94
684.094	3010.86
684.284	3070.25
684.474	2971.94
684.664	3027.24
684.854	2908.46
685.044	2906.41
685.234	2840.87
685.424	2963.75
685.614	2773.29
685.804	2867.5
685.994	2894.12
686.184	2836.78
686.374	2855.21
686.564	2752.81
686.753	2810.15
686.943	2824.49
687.133	2801.96
687.323	2763.05
687.513	2785.58
687.702	2756.91
687.892	2842.92
688.082	2797.87
688.272	2783.53
688.461	2627.89
688.651	2726.19
688.841	2758.96
689.03	2771.24
689.22	2867.5
689.41	2627.89
689.599	2750.76
689.789	2681.13
689.979	2744.62
690.168	2627.89
690.358	2699.56
690.547	2521.39
690.737	2654.51
690.926	2666.8
691.116	2584.88
691.305	2652.46
691.495	2597.17
691.684	2507.06
691.874	2545.97
692.063	2666.8
692.252	2511.15
692.442	2650.41
692.631	2447.66
692.82	2701.61
693.01	2462
693.199	2484.53
693.388	2400.56
693.578	2445.62
693.767	2470.19
693.956	2560.3
694.146	2437.42
694.335	2478.38
694.524	2300.21
694.713	2525.49
694.902	2343.22
695.092	2404.66
695.281	2199.86
695.47	2535.73
695.659	2402.61
695.848	2324.79
696.037	2365.75
696.226	2433.33
696.415	2388.27
696.604	2373.94
696.793	2302.26
696.982	2355.51
697.171	2402.61
697.36	2410.8
697.549	2265.39
697.738	2316.59
697.927	2257.2
698.116	2294.07
698.305	2175.28
698.494	2365.75
698.683	2367.79
698.872	2328.88
699.061	2210.1
699.25	2400.56
699.438	2253.11
699.627	2285.87
699.816	2314.55
700.005	2173.24
700.193	2392.37
700.382	2267.44
700.571	2277.68
700.76	2335.03
700.948	2249.01
701.137	2273.59
701.326	2298.16
701.514	2187.57
701.703	2255.15
701.892	2373.94
702.08	2355.51
702.269	2285.87
702.457	2292.02
702.646	2220.34
702.834	2193.72
703.023	2226.48
703.212	2298.16
703.4	2283.83
703.589	2275.63
703.777	2326.83
703.965	2265.39
704.154	2240.82
704.342	2238.77
704.531	2183.48
704.719	2140.47
704.907	2216.24
705.096	2156.85
705.284	2308.4
705.472	2191.67
705.661	2277.68
705.849	2285.87
706.037	2324.79
706.226	2257.2
706.414	2322.74
706.602	2193.72
706.79	2187.57
706.979	2236.72
707.167	2267.44
707.355	2265.39
707.543	2220.34
707.731	2292.02
707.919	2365.75
708.107	2193.72
708.296	2240.82
708.484	2158.9
708.672	2343.22
708.86	2210.1
709.048	2244.92
709.236	2177.33
709.424	2152.76
709.612	2195.76
709.8	2038.07
709.988	2171.19
710.176	2242.87
710.364	2177.33
710.551	2185.52
710.739	2265.39
710.927	2191.67
711.115	2183.48
711.303	2341.17
711.491	2199.86
711.679	2265.39
711.866	2183.48
712.054	2203.96
712.242	2171.19
712.43	2298.16
712.617	2138.42
712.805	2275.63
712.993	2261.3
713.181	2142.52
713.368	2154.8
713.556	2191.67
713.744	2132.28
713.931	2257.2
714.119	2195.76
714.306	2214.2
714.494	2218.29
714.682	2177.33
714.869	2171.19
715.057	2154.8
715.244	2085.17
715.432	2191.67
715.619	2335.03
715.807	2234.68
715.994	2054.45
716.182	2132.28
716.369	2292.02
716.556	2134.32
716.744	2265.39
716.931	2158.9
717.119	2253.11
717.306	2242.87
717.493	2099.51
717.681	2224.44
717.868	2203.96
718.055	2126.13
718.242	2085.17
718.43	2224.44
718.617	2099.51
718.804	2238.77
718.991	2238.77
719.179	2265.39
719.366	2142.52
719.553	2253.11
719.74	2119.99
719.927	2177.33
720.114	2142.52
720.301	2208.05
720.488	2210.1
720.676	2160.95
720.863	2210.1
721.05	2289.97
721.237	2142.52
721.424	2117.94
721.611	2126.13
721.798	2156.85
721.985	2265.39
722.172	2117.94
722.358	2298.16
722.545	2152.76
722.732	2224.44
722.919	2197.81
723.106	2255.15
723.293	2240.82
723.48	2212.15
723.667	2076.98
723.853	2019.64
724.04	2142.52
724.227	2199.86
724.414	2142.52
724.6	2175.28
724.787	2265.39
724.974	2277.68
725.161	2257.2
725.347	2093.37
725.534	2263.35
725.72	2177.33
725.907	2193.72
726.094	2109.75
726.28	2269.49
726.467	2191.67
726.653	2158.9
726.84	2314.55
727.027	2308.4
727.213	2175.28
727.4	2117.94
727.586	2136.37
727.773	2185.52
727.959	2265.39
728.145	2224.44
728.332	2142.52
728.518	2122.04
728.705	2234.68
728.891	2199.86
729.077	2179.38
729.264	2224.44
729.45	2117.94
729.636	2193.72
729.823	2097.46
730.009	2267.44
730.195	2130.23
730.382	2199.86
730.568	2068.79
730.754	2144.56
730.94	2195.76
731.126	2232.63
731.313	2177.33
731.499	2259.25
731.685	2175.28
731.871	2185.52
732.057	2154.8
732.243	2244.92
732.429	2076.98
732.615	2154.8
732.801	2212.15
732.987	2109.75
733.173	2187.57
733.359	2160.95
733.545	2173.24
733.731	2015.54
733.917	2148.66
734.103	2191.67
734.289	2277.68
734.475	2142.52
734.661	2103.61
734.847	2199.86
735.033	2154.8
735.219	2158.9
735.404	2158.9
735.59	2126.13
735.776	2142.52
735.962	2093.37
736.148	2199.86
736.333	2058.55
736.519	2103.61
736.705	2134.32
736.89	2113.85
737.076	2185.52
737.262	2119.99
737.447	2234.68
737.633	2222.39
737.819	2220.34
738.004	2101.56
738.19	2126.13
738.375	2189.62
738.561	2060.6
738.747	2101.56
738.932	2007.35
739.118	2085.17
739.303	2054.45
739.489	2199.86
739.674	1978.68
739.859	2011.45
740.045	2054.45
740.23	2068.79
740.416	1980.73
740.601	2070.84
740.786	2003.25
740.972	2081.08
741.157	2005.3
741.342	1986.87
741.528	2029.88
741.713	2062.65
741.898	2003.25
742.084	2003.25
742.269	2013.49
742.454	2122.04
742.639	1982.78
742.824	1882.42
743.01	1956.15
743.195	2019.64
743.38	1866.04
743.565	2003.25
743.75	1952.06
743.935	1913.14
744.12	1935.67
744.305	1870.14
744.49	1868.09
744.675	1816.89
744.86	1790.27
745.045	1849.66
745.23	1941.82
745.415	1876.28
745.6	1900.86
745.785	1814.84
745.97	1851.71
746.155	1843.51
746.34	1845.56
746.525	1849.66
746.71	1802.55
746.895	1835.32
747.079	1749.31
747.264	1816.89
747.449	1800.51
747.634	1782.07
747.819	1732.92
748.003	1710.4
748.188	1741.11
748.373	1700.16
748.557	1614.14
748.742	1685.82
748.927	1708.35
749.111	1673.53
749.296	1679.68
749.481	1694.01
749.665	1624.38
749.85	1610.04
750.034	1642.81
750.219	1575.23
750.404	1528.13
750.588	1442.11
750.773	1495.36
750.957	1485.12
751.141	1642.81
751.326	1638.72
751.51	1462.59
751.695	1474.88
751.879	1546.56
752.064	1622.33
752.248	1540.41
752.432	1597.76
752.617	1454.4
752.801	1421.63
752.985	1421.63
753.17	1376.58
753.354	1442.11
753.538	1413.44
753.722	1347.9
753.907	1435.97
754.091	1298.75
754.275	1384.77
754.459	1429.82
754.643	1368.38
754.828	1380.67
755.012	1352
755.196	1376.58
755.38	1306.95
755.564	1300.8
755.748	1294.66
755.932	1329.47
756.116	1364.29
756.3	1278.27
756.484	1298.75
756.668	1247.55
756.852	1249.6
757.036	1229.12
757.22	1333.57
757.404	1184.07
757.588	1194.31
757.772	1179.97
757.956	1126.72
758.14	1118.53
758.323	1102.15
758.507	1204.55
758.691	1136.96
758.875	1149.25
759.059	1227.07
759.242	1182.02
759.426	1077.57
759.61	1139.01
759.794	1165.64
759.977	1153.35
760.161	1190.21
760.345	1130.82
760.528	1122.63
760.712	1210.69
760.895	1048.9
761.079	1034.57
761.263	1061.19
761.446	1022.28
761.63	1032.52
761.813	1114.44
761.997	1065.29
762.18	1036.61
762.364	981.32
762.547	1024.33
762.731	1012.04
762.914	1093.96
763.098	1020.23
763.281	1036.61
763.464	1032.52
763.648	999.75
763.831	948.55
764.015	1005.89
764.198	913.74
764.381	960.84
764.564	1012.04
764.748	932.17
764.931	1016.13
765.114	921.93
765.297	969.03
765.481	909.64
765.664	975.17
765.847	971.08
766.03	926.02
766.213	971.08
766.397	934.22
766.58	891.21
766.763	964.93
766.946	889.16
767.129	1012.04
767.312	874.82
767.495	930.12
767.678	758.09
767.861	883.02
768.044	958.79
768.227	917.83
768.41	901.45
768.593	860.49
768.776	926.02
768.959	864.58
769.142	905.54
769.324	913.74
769.507	815.43
769.69	803.15
769.873	829.77
770.056	907.59
770.239	811.34
770.421	897.35
770.604	878.92
770.787	753.99
770.97	813.38
771.152	809.29
771.335	721.23
771.518	794.95
771.7	950.6
771.883	889.16
772.066	819.53
772.248	762.19
772.431	835.91
772.613	751.95
772.796	813.38
772.978	799.05
773.161	817.48
773.343	823.62
773.526	780.62
773.708	733.51
773.891	618.83
774.073	731.47
774.256	627.02
774.438	706.89
774.621	682.31
774.803	686.41
774.985	661.84
775.168	698.7
775.35	778.57
775.532	643.4
775.715	733.51
775.897	647.5
776.079	631.12
776.261	647.5
776.444	690.51
776.626	655.69
776.808	655.69
776.99	694.6
777.173	606.54
777.355	672.08
777.537	692.55
777.719	643.4
777.901	600.4
778.083	610.64
778.265	651.6
778.447	647.5
778.629	549.2
778.811	684.36
778.993	590.16
779.175	594.25
779.357	536.91
779.539	541.01
779.721	577.87
779.903	559.44
780.085	620.88
780.267	563.53
780.449	575.82
780.631	594.25
780.812	504.14
780.994	495.95
781.176	586.06
781.358	489.81
781.54	454.99
781.721	581.96
781.903	520.53
782.085	504.14
782.267	547.15
782.448	512.33
782.63	481.61
782.812	520.53
782.993	487.76
783.175	555.34
783.357	454.99
783.538	502.09
783.72	450.89
783.901	430.41
784.083	454.99
784.264	493.9
784.446	446.8
784.627	473.42
784.809	479.57
784.99	463.18
785.172	391.5
785.353	348.5
785.535	434.51
785.716	381.26
785.897	364.88
786.079	407.89
786.26	510.29
786.441	407.89
786.623	411.98
786.804	375.12
786.985	366.93
787.167	434.51
787.348	401.74
787.529	364.88
787.71	414.03
787.891	377.17
788.073	436.56
788.254	430.41
788.435	418.13
788.616	364.88
788.797	328.02
788.978	389.46
789.159	348.5
789.34	399.7
789.522	373.07
789.703	305.49
789.884	366.93
790.065	330.06
790.246	381.26
790.427	297.3
790.607	336.21
790.788	385.36
790.969	266.58
791.15	346.45
791.331	389.46
791.512	336.21
791.693	315.73
791.874	338.26
792.054	375.12
792.235	336.21
792.416	262.48
792.597	299.34
792.778	323.92
792.958	364.88
793.139	358.74
793.32	350.54
793.5	258.39
793.681	424.27
793.862	291.15
794.042	307.54
794.223	225.62
794.404	303.44
794.584	211.28
794.765	203.09
794.945	250.19
795.126	280.91
795.306	364.88
795.487	295.25
795.667	301.39
795.848	373.07
796.028	280.91
796.209	319.82
796.389	254.29
796.57	293.2
796.75	301.39
796.93	221.52
797.111	102.74
797.291	235.86
797.471	215.38
797.652	276.82
797.832	270.67
798.012	266.58
798.192	315.73
798.373	262.48
798.553	209.23
798.733	239.95
798.913	176.47
799.093	248.15
799.274	256.34
799.454	278.87
799.634	258.39
799.814	289.1
799.994	266.58
800.174	301.39
800.354	227.67
800.534	254.29
800.714	252.24
800.894	225.62
801.074	262.48
801.254	172.37
801.434	205.14
801.614	186.71
801.794	160.08
801.974	790.86
802.154	260.43
802.334	242
802.514	92.5
802.693	166.23
802.873	215.38
803.053	225.62
803.233	127.32
803.413	250.19
803.592	186.71
803.772	168.27
803.952	254.29
804.131	242
804.311	143.7
804.491	237.91
804.67	119.12
804.85	162.13
805.03	194.9
805.209	209.23
805.389	227.67
805.568	172.37
805.748	180.56
805.928	250.19
806.107	242
806.287	192.85
806.466	203.09
806.646	143.7
806.825	131.41
807.004	147.8
807.184	160.08
807.363	188.75
807.543	143.7
807.722	192.85
807.901	168.27
808.081	151.89
808.26	168.27
808.439	225.62
808.619	196.95
808.798	174.42
808.977	160.08
809.156	201.04
809.336	194.9
809.515	143.7
809.694	102.74
809.873	149.84
810.052	125.27
810.231	184.66
810.411	225.62
810.59	164.18
810.769	127.32
810.948	188.75
811.127	96.6
811.306	158.03
811.485	133.46
811.664	176.47
811.843	98.64
812.022	119.12
812.201	143.7
812.38	127.32
812.559	110.93
812.737	158.03
812.916	96.6
813.095	135.51
813.274	121.17
813.453	119.12
813.632	147.8
813.811	213.33
813.989	115.03
814.168	153.94
814.347	47.44
814.526	203.09
814.704	115.03
814.883	237.91
815.062	162.13
815.24	172.37
815.419	147.8
815.598	252.24
815.776	82.26
815.955	82.26
816.133	110.93
816.312	194.9
816.49	139.6
816.669	127.32
816.847	80.21
817.026	125.27
817.204	86.36
817.383	131.41
817.561	172.37
817.74	100.69
817.918	198.99
818.097	112.98
818.275	137.56
818.453	137.56
818.632	125.27
818.81	98.64
818.988	61.78
819.167	172.37
819.345	139.6
819.523	45.4
819.701	106.84
819.879	153.94
820.058	78.16
820.236	119.12
820.414	86.36
820.592	119.12
820.77	53.59
820.948	143.7
821.127	63.83
821.305	72.02
821.483	94.55
821.661	127.32
821.839	86.36
822.017	94.55
822.195	123.22
822.373	102.74
822.551	53.59
822.729	151.89
822.907	33.11
823.085	112.98
823.262	37.2
823.44	61.78
823.618	82.26
823.796	61.78
823.974	63.83
824.152	72.02
824.329	53.59
824.507	88.4
824.685	61.78
824.863	121.17
825.04	125.27
825.218	86.36
825.396	20.82
825.574	102.74
825.751	22.87
825.929	94.55
826.107	35.16
826.284	127.32
826.462	84.31
826.639	133.46
826.817	135.51
826.994	149.84
827.172	86.36
827.349	151.89
827.527	106.84
827.704	65.88
827.882	94.55
828.059	117.08
828.237	8.53
828.414	164.18
828.591	82.26
828.769	82.26
828.946	53.59
829.124	106.84
829.301	49.49
829.478	80.21
829.655	-28.33
829.833	53.59
830.01	33.11
830.187	29.01
830.364	100.69
830.542	14.68
830.719	117.08
830.896	96.6
831.073	6.49
831.25	110.93
831.427	147.8
831.604	53.59
831.782	-42.67
831.959	86.36
832.136	98.64
832.313	55.64
832.49	86.36
832.667	-18.09
832.844	82.26
833.021	39.25
833.198	115.03
833.374	102.74
833.551	39.25
833.728	45.4
833.905	76.12
834.082	86.36
834.259	45.4
834.436	98.64
834.612	31.06
834.789	39.25
834.966	59.73
835.143	39.25
835.319	82.26
835.496	59.73
835.673	53.59
835.85	82.26
836.026	51.54
836.203	53.59
836.38	86.36
836.556	63.83
836.733	14.68
836.909	110.93
837.086	53.59
837.262	106.84
837.439	47.44
837.616	94.55
837.792	29.01
837.968	86.36
838.145	-20.14
838.321	98.64
838.498	29.01
838.674	129.36
838.851	78.16
839.027	55.64
839.203	94.55
839.38	51.54
839.556	43.35
839.732	88.4
839.909	80.21
840.085	57.68
840.261	-3.75
840.437	110.93
840.614	37.2
840.79	115.03
840.966	59.73
841.142	24.92
841.318	41.3
841.494	31.06
841.671	4.44
841.847	4.44
842.023	-3.75
842.199	86.36
842.375	82.26
842.551	37.2
842.727	39.25
842.903	108.88
843.079	39.25
843.255	80.21
843.431	4.44
843.607	67.92
843.783	-24.23
843.959	31.06
844.134	115.03
844.31	94.55
844.486	37.2
844.662	63.83
844.838	4.44
845.013	8.53
845.189	82.26
845.365	0.34
845.541	47.44
845.716	45.4
845.892	37.2
846.068	-11.95
846.244	-11.95
846.419	12.63
846.595	4.44
846.77	-1.71
846.946	96.6
847.122	-3.75
847.297	-34.47
847.473	72.02
847.648	45.4
847.824	-11.95
847.999	-16.04
848.175	41.3
848.35	90.45
848.526	37.2
848.701	69.97
848.876	55.64
849.052	94.55
849.227	12.63
849.403	49.49
849.578	110.93
849.753	59.73
849.929	29.01
850.104	16.73
850.279	6.49
850.454	-40.62
850.63	47.44
850.805	22.87
850.98	78.16
851.155	-38.57
851.33	33.11
851.505	4.44
851.681	98.64
851.856	12.63
852.031	94.55
852.206	78.16
852.381	45.4
852.556	110.93
852.731	67.92
852.906	8.53
853.081	20.82
853.256	135.51
853.431	112.98
853.606	-24.23
853.781	-36.52
853.956	-1.71
854.131	2.39
854.305	-1.71
854.48	-42.67
854.655	-18.09
854.83	-32.43
855.005	45.4
855.18	14.68
855.354	78.16
855.529	78.16
855.704	45.4
855.879	14.68
856.053	-3.75
856.228	-36.52
856.403	20.82
856.577	-34.47
856.752	-40.62
856.926	-18.09
857.101	31.06
857.276	-7.85
857.45	-13.99
857.625	8.53
857.799	4.44
857.974	-18.09
858.148	-20.14
858.323	29.01
858.497	-36.52
858.672	-44.71
858.846	2.39
859.02	74.07
859.195	-44.71
859.369	12.63
859.543	45.4
859.718	61.78
859.892	-24.23
860.066	20.82
860.241	6.49
860.415	-3.75
860.589	-54.95
860.763	-44.71
860.938	-5.8
861.112	53.59
861.286	-32.43
861.46	69.97
861.634	22.87
861.808	20.82
861.982	-69.29
862.157	-16.04
862.331	-52.91
862.505	4.44
862.679	37.2
862.853	10.58
863.027	55.64
863.201	78.16
863.375	-61.1
863.549	-20.14
863.722	-57
863.896	6.49
864.07	37.2
864.244	-50.86
864.418	29.01
864.592	74.07
864.766	12.63
864.939	-34.47
865.113	-16.04
865.287	57.68
865.461	37.2
865.634	59.73
865.808	-38.57
865.982	-16.04
866.156	39.25
866.329	18.77
866.503	8.53
866.676	24.92
866.85	49.49
867.024	80.21
867.197	-28.33
867.371	72.02
867.544	69.97
867.718	-87.72
867.891	55.64
868.065	6.49
868.238	63.83
868.412	41.3
868.585	-24.23
868.759	-28.33
868.932	-81.58
869.105	-26.28
869.279	-20.14
869.452	-65.19
869.625	43.35
869.799	39.25
869.972	59.73
870.145	47.44
870.319	55.64
870.492	-34.47
870.665	8.53
870.838	22.87
871.011	-52.91
871.185	31.06
871.358	-42.67
871.531	53.59
871.704	10.58
871.877	-32.43
872.05	-61.1
872.223	29.01
872.396	39.25
872.569	47.44
872.742	-38.57
872.915	41.3
873.088	-46.76
873.261	-3.75
873.434	-18.09
873.607	37.2
873.78	-7.85
873.953	37.2
874.126	20.82
874.299	35.16
874.471	69.97
874.644	41.3
874.817	-30.38
874.99	90.45
875.163	-34.47
875.335	-1.71
875.508	-18.09
875.681	20.82
875.853	0.34
876.026	-16.04
876.199	39.25
876.371	8.53
876.544	8.53
876.717	-11.95
876.889	12.63
877.062	4.44
877.234	16.73
877.407	4.44
877.579	-18.09
877.752	37.2
877.924	-24.23
878.097	-18.09
878.269	57.68
878.442	-28.33
878.614	12.63
878.786	22.87
878.959	51.54
879.131	-34.47
879.303	-24.23
879.476	37.2
879.648	6.49
879.82	20.82
879.993	-34.47
880.165	47.44
880.337	-24.23
880.509	0.34
880.681	-11.95
880.854	-44.71
881.026	4.44
881.198	47.44
881.37	-24.23
881.542	-11.95
881.714	-50.86
881.886	2.39
882.058	8.53
882.23	-16.04
882.402	4.44
882.574	57.68
882.746	65.88
882.918	41.3
883.09	16.73
883.262	35.16
883.434	-85.67
883.606	8.53
883.778	-48.81
883.95	45.4
884.122	24.92
884.293	6.49
884.465	-22.19
884.637	18.77
884.809	-3.75
884.98	20.82
885.152	14.68
885.324	4.44
885.496	22.87
885.667	4.44
885.839	10.58
886.011	53.59
886.182	-5.8
886.354	-1.71
886.525	-9.9
886.697	-3.75
886.869	20.82
887.04	-1.71
887.212	8.53
887.383	-59.05
887.555	20.82
887.726	-20.14
887.897	-1.71
888.069	61.78
888.24	31.06
888.412	-36.52
888.583	-18.09
888.754	14.68
888.926	-145.06
889.097	22.87
889.268	-36.52
889.44	8.53
889.611	-7.85
889.782	-1.71
889.953	8.53
890.125	-28.33
890.296	-85.67
890.467	33.11
890.638	35.16
890.809	67.92
890.98	-13.99
891.151	29.01
891.323	29.01
891.494	14.68
891.665	-44.71
891.836	35.16
892.007	10.58
892.178	35.16
892.349	20.82
892.52	-32.43
892.691	-16.04
892.862	55.64
893.032	45.4
893.203	14.68
893.374	-59.05
893.545	0.34
893.716	8.53
893.887	110.93
894.057	-20.14
894.228	-36.52
894.399	-22.19
894.57	-7.85
894.74	53.59
894.911	55.64
895.082	4.44
895.253	-52.91
895.423	-18.09
895.594	-1.71
895.764	45.4
895.935	31.06
896.106	-83.63
896.276	-3.75
896.447	14.68
896.617	12.63
896.788	20.82
896.958	10.58
897.129	-61.1
897.299	33.11
897.47	63.83
897.64	-13.99
897.81	-36.52
897.981	24.92
898.151	16.73
898.322	86.36
898.492	-9.9
898.662	39.25
898.832	6.49
899.003	6.49
899.173	14.68
899.343	-28.33
899.513	-44.71
