Data from USB4F104151__34__14-42-52-124.txt Node

Date: Thu Mar 13 14:42:52 EDT 2025
User: louis
Spectrometer: USB4F10415
Trigger mode: 4
Integration Time (sec): 2.000000E-2
Scans to average: 1
Electric dark correction enabled: true
Nonlinearity correction enabled: false
Boxcar width: 0
XAxis mode: Wavelengths
Number of Pixels in Spectrum: 3648
>>>>>Begin Spectral Data<<<<<
178.204	-15.87
178.424	-15.87
178.644	-15.87
178.864	-40.45
179.084	-81.41
179.304	0.51
179.524	-34.3
179.744	10.75
179.964	41.47
180.184	-26.11
180.404	-24.06
180.624	55.81
180.844	8.7
181.064	-22.02
181.283	-32.26
181.503	-7.68
181.723	29.18
181.943	-54.78
182.163	74.24
182.383	59.9
182.602	57.86
182.822	160.25
183.042	35.33
183.262	-1.54
183.482	51.71
183.701	20.99
183.921	10.75
184.141	35.33
184.361	96.77
184.58	39.42
184.8	64
185.02	76.29
185.239	51.71
185.459	45.57
185.679	57.86
185.898	49.66
186.118	88.57
186.338	23.04
186.557	121.34
186.777	6.66
186.997	8.7
187.216	39.42
187.436	139.77
187.655	43.52
187.875	23.04
188.095	8.7
188.314	82.43
188.534	39.42
188.753	98.81
188.973	14.85
189.192	94.72
189.412	8.7
189.631	8.7
189.851	23.04
190.07	102.91
190.29	-71.17
190.509	-60.93
190.729	33.28
190.948	135.68
191.168	68.09
191.387	104.96
191.607	-26.11
191.826	47.62
192.045	23.04
192.265	39.42
192.484	49.66
192.704	-15.87
192.923	-71.17
193.142	115.2
193.362	49.66
193.581	100.86
193.8	78.33
194.02	80.38
194.239	72.19
194.458	86.53
194.678	74.24
194.897	14.85
195.116	61.95
195.335	51.71
195.555	64
195.774	80.38
195.993	47.62
196.212	43.52
196.432	39.42
196.651	66.05
196.87	-13.82
197.089	154.11
197.308	59.9
197.528	35.33
197.747	47.62
197.966	190.97
198.185	59.9
198.404	-26.11
198.623	100.86
198.842	47.62
199.062	16.9
199.281	104.96
199.5	0.51
199.719	82.43
199.938	68.09
200.157	66.05
200.376	68.09
200.595	55.81
200.814	84.48
201.033	82.43
201.252	47.62
201.471	88.57
201.69	154.11
201.909	109.05
202.128	88.57
202.347	-15.87
202.566	4.61
202.785	-13.82
203.004	2.56
203.223	125.44
203.442	100.86
203.661	66.05
203.879	16.9
204.098	129.53
204.317	33.28
204.536	27.14
204.755	92.67
204.974	39.42
205.193	41.47
205.411	133.63
205.63	10.75
205.849	43.52
206.068	55.81
206.287	-9.73
206.505	68.09
206.724	31.23
206.943	4.61
207.162	90.62
207.381	100.86
207.599	31.23
207.818	25.09
208.037	47.62
208.255	49.66
208.474	39.42
208.693	18.94
208.911	-48.64
209.13	-26.11
209.349	51.71
209.567	43.52
209.786	90.62
210.005	129.53
210.223	84.48
210.442	-9.73
210.661	113.15
210.879	-1.54
211.098	88.57
211.316	66.05
211.535	31.23
211.753	43.52
211.972	76.29
212.191	0.51
212.409	23.04
212.628	104.96
212.846	115.2
213.065	47.62
213.283	66.05
213.502	66.05
213.72	125.44
213.938	18.94
214.157	-9.73
214.375	23.04
214.594	51.71
214.812	18.94
215.031	2.56
215.249	55.81
215.467	88.57
215.686	14.85
215.904	43.52
216.122	39.42
216.341	35.33
216.559	64
216.778	100.86
216.996	31.23
217.214	23.04
217.432	-19.97
217.651	2.56
217.869	4.61
218.087	90.62
218.306	80.38
218.524	12.8
218.742	35.33
218.96	14.85
219.179	29.18
219.397	55.81
219.615	131.58
219.833	107.01
220.051	55.81
220.27	2.56
220.488	27.14
220.706	88.57
220.924	14.85
221.142	16.9
221.36	0.51
221.578	72.19
221.796	39.42
222.015	88.57
222.233	27.14
222.451	125.44
222.669	2.56
222.887	51.71
223.105	51.71
223.323	8.7
223.541	8.7
223.759	49.66
223.977	39.42
224.195	158.21
224.413	74.24
224.631	57.86
224.849	14.85
225.067	115.2
225.285	16.9
225.503	-36.35
225.721	-24.06
225.939	-5.63
226.157	64
226.375	68.09
226.592	35.33
226.81	29.18
227.028	92.67
227.246	64
227.464	39.42
227.682	66.05
227.9	18.94
228.117	70.14
228.335	6.66
228.553	88.57
228.771	-42.5
228.989	12.8
229.206	47.62
229.424	74.24
229.642	31.23
229.86	-1.54
230.077	92.67
230.295	23.04
230.513	96.77
230.731	115.2
230.948	98.81
231.166	27.14
231.384	41.47
231.601	25.09
231.819	25.09
232.037	74.24
232.254	27.14
232.472	-7.68
232.689	35.33
232.907	64
233.125	45.57
233.342	-48.64
233.56	-5.63
233.777	-24.06
233.995	72.19
234.213	104.96
234.43	72.19
234.648	25.09
234.865	53.76
235.083	88.57
235.3	0.51
235.518	98.81
235.735	27.14
235.953	137.73
236.17	-38.4
236.388	64
236.605	-26.11
236.822	27.14
237.04	72.19
237.257	-26.11
237.475	23.04
237.692	16.9
237.909	109.05
238.127	84.48
238.344	-1.54
238.562	107.01
238.779	43.52
238.996	-67.07
239.214	16.9
239.431	141.82
239.648	-52.74
239.865	33.28
240.083	88.57
240.3	23.04
240.517	35.33
240.735	47.62
240.952	57.86
241.169	121.34
241.386	43.52
241.603	31.23
241.821	104.96
242.038	31.23
242.255	31.23
242.472	31.23
242.689	6.66
242.907	59.9
243.124	31.23
243.341	49.66
243.558	80.38
243.775	-1.54
243.992	-7.68
244.209	107.01
244.426	117.25
244.643	-5.63
244.86	33.28
245.078	51.71
245.295	84.48
245.512	-15.87
245.729	12.8
245.946	23.04
246.163	78.33
246.38	53.76
246.597	100.86
246.814	6.66
247.031	39.42
247.248	35.33
247.464	35.33
247.681	49.66
247.898	47.62
248.115	57.86
248.332	29.18
248.549	113.15
248.766	100.86
248.983	0.51
249.2	94.72
249.417	68.09
249.633	66.05
249.85	14.85
250.067	57.86
250.284	25.09
250.501	68.09
250.717	72.19
250.934	14.85
251.151	104.96
251.368	88.57
251.585	37.38
251.801	45.57
252.018	59.9
252.235	117.25
252.451	31.23
252.668	6.66
252.885	64
253.102	-26.11
253.318	59.9
253.535	80.38
253.752	72.19
253.968	68.09
254.185	31.23
254.401	64
254.618	55.81
254.835	35.33
255.051	98.81
255.268	84.48
255.484	45.57
255.701	0.51
255.917	-9.73
256.134	2.56
256.351	25.09
256.567	57.86
256.784	96.77
257	14.85
257.217	-56.83
257.433	39.42
257.65	90.62
257.866	23.04
258.082	-52.74
258.299	-87.55
258.515	107.01
258.732	31.23
258.948	25.09
259.165	96.77
259.381	74.24
259.597	51.71
259.814	57.86
260.03	2.56
260.246	64
260.463	64
260.679	47.62
260.895	-13.82
261.112	8.7
261.328	51.71
261.544	16.9
261.761	135.68
261.977	61.95
262.193	80.38
262.409	47.62
262.626	80.38
262.842	12.8
263.058	49.66
263.274	6.66
263.49	66.05
263.707	96.77
263.923	45.57
264.139	-34.3
264.355	47.62
264.571	72.19
264.787	49.66
265.004	94.72
265.22	115.2
265.436	74.24
265.652	96.77
265.868	66.05
266.084	78.33
266.3	102.91
266.516	18.94
266.732	64
266.948	6.66
267.164	31.23
267.38	43.52
267.596	49.66
267.812	92.67
268.028	64
268.244	2.56
268.46	57.86
268.676	2.56
268.892	6.66
269.108	8.7
269.324	-34.3
269.54	25.09
269.756	115.2
269.972	47.62
270.188	94.72
270.403	14.85
270.619	51.71
270.835	51.71
271.051	39.42
271.267	-17.92
271.483	18.94
271.698	80.38
271.914	6.66
272.13	66.05
272.346	88.57
272.562	49.66
272.777	64
272.993	-1.54
273.209	39.42
273.425	72.19
273.64	23.04
273.856	80.38
274.072	47.62
274.287	27.14
274.503	-42.5
274.719	61.95
274.934	-30.21
275.15	8.7
275.366	88.57
275.581	47.62
275.797	16.9
276.012	18.94
276.228	25.09
276.444	6.66
276.659	-9.73
276.875	90.62
277.09	25.09
277.306	31.23
277.521	20.99
277.737	90.62
277.952	53.76
278.168	14.85
278.383	23.04
278.599	53.76
278.814	72.19
279.03	104.96
279.245	59.9
279.461	43.52
279.676	66.05
279.892	43.52
280.107	14.85
280.322	55.81
280.538	-58.88
280.753	18.94
280.969	88.57
281.184	41.47
281.399	72.19
281.615	59.9
281.83	39.42
282.045	-24.06
282.26	33.28
282.476	8.7
282.691	10.75
282.906	47.62
283.122	53.76
283.337	6.66
283.552	127.49
283.767	31.23
283.983	80.38
284.198	35.33
284.413	90.62
284.628	10.75
284.843	125.44
285.058	121.34
285.274	-1.54
285.489	10.75
285.704	55.81
285.919	20.99
286.134	-5.63
286.349	64
286.564	55.81
286.779	47.62
286.995	29.18
287.21	-22.02
287.425	100.86
287.64	-32.26
287.855	25.09
288.07	55.81
288.285	43.52
288.5	94.72
288.715	47.62
288.93	49.66
289.145	41.47
289.36	6.66
289.575	47.62
289.79	139.77
290.004	14.85
290.219	27.14
290.434	-26.11
290.649	-54.78
290.864	39.42
291.079	6.66
291.294	25.09
291.509	76.29
291.724	78.33
291.938	35.33
292.153	72.19
292.368	64
292.583	6.66
292.798	88.57
293.012	113.15
293.227	74.24
293.442	-40.45
293.657	14.85
293.871	33.28
294.086	25.09
294.301	82.43
294.516	94.72
294.73	96.77
294.945	55.81
295.16	96.77
295.374	111.1
295.589	27.14
295.804	14.85
296.018	64
296.233	0.51
296.447	88.57
296.662	23.04
296.877	125.44
297.091	16.9
297.306	27.14
297.52	47.62
297.735	25.09
297.949	39.42
298.164	104.96
298.378	76.29
298.593	51.71
298.807	29.18
299.022	72.19
299.236	100.86
299.451	66.05
299.665	27.14
299.88	68.09
300.094	100.86
300.309	74.24
300.523	-7.68
300.737	6.66
300.952	51.71
301.166	72.19
301.381	25.09
301.595	78.33
301.809	23.04
302.024	14.85
302.238	23.04
302.452	6.66
302.667	16.9
302.881	88.57
303.095	12.8
303.309	14.85
303.524	-38.4
303.738	27.14
303.952	31.23
304.166	55.81
304.381	96.77
304.595	129.53
304.809	53.76
305.023	96.77
305.237	6.66
305.452	55.81
305.666	76.29
305.88	64
306.094	47.62
306.308	39.42
306.522	59.9
306.736	43.52
306.95	14.85
307.164	55.81
307.379	96.77
307.593	166.4
307.807	35.33
308.021	39.42
308.235	86.53
308.449	-1.54
308.663	64
308.877	88.57
309.091	27.14
309.305	23.04
309.519	-22.02
309.733	37.38
309.947	25.09
310.161	107.01
310.374	72.19
310.588	72.19
310.802	-11.78
311.016	45.57
311.23	2.56
311.444	41.47
311.658	31.23
311.872	70.14
312.085	117.25
312.299	80.38
312.513	6.66
312.727	-38.4
312.941	-11.78
313.154	133.63
313.368	82.43
313.582	27.14
313.796	133.63
314.009	0.51
314.223	68.09
314.437	43.52
314.651	12.8
314.864	14.85
315.078	55.81
315.292	-22.02
315.505	14.85
315.719	80.38
315.933	80.38
316.146	-17.92
316.36	18.94
316.573	131.58
316.787	57.86
317.001	23.04
317.214	78.33
317.428	29.18
317.641	20.99
317.855	-9.73
318.068	10.75
318.282	84.48
318.495	88.57
318.709	96.77
318.922	55.81
319.136	98.81
319.349	23.04
319.563	14.85
319.776	104.96
319.99	14.85
320.203	18.94
320.417	6.66
320.63	90.62
320.843	125.44
321.057	125.44
321.27	115.2
321.483	53.76
321.697	74.24
321.91	47.62
322.124	72.19
322.337	49.66
322.55	80.38
322.763	96.77
322.977	27.14
323.19	72.19
323.403	113.15
323.617	92.67
323.83	96.77
324.043	55.81
324.256	47.62
324.469	-91.65
324.683	49.66
324.896	72.19
325.109	55.81
325.322	-42.5
325.535	66.05
325.748	55.81
325.962	129.53
326.175	74.24
326.388	57.86
326.601	119.29
326.814	33.28
327.027	76.29
327.24	135.68
327.453	-30.21
327.666	47.62
327.879	64
328.092	31.23
328.305	29.18
328.518	33.28
328.731	27.14
328.944	41.47
329.157	72.19
329.37	23.04
329.583	55.81
329.796	84.48
330.009	37.38
330.222	23.04
330.435	66.05
330.648	39.42
330.861	57.86
331.073	82.43
331.286	35.33
331.499	154.11
331.712	43.52
331.925	72.19
332.138	43.52
332.35	92.67
332.563	66.05
332.776	57.86
332.989	14.85
333.202	152.06
333.414	70.14
333.627	35.33
333.84	64
334.053	162.3
334.265	51.71
334.478	88.57
334.691	55.81
334.903	2.56
335.116	55.81
335.329	55.81
335.541	57.86
335.754	92.67
335.966	-5.63
336.179	84.48
336.392	18.94
336.604	55.81
336.817	39.42
337.029	47.62
337.242	41.47
337.454	43.52
337.667	72.19
337.88	25.09
338.092	27.14
338.305	39.42
338.517	-24.06
338.729	96.77
338.942	109.05
339.154	47.62
339.367	35.33
339.579	-15.87
339.792	53.76
340.004	64
340.217	45.57
340.429	0.51
340.641	59.9
340.854	92.67
341.066	31.23
341.278	113.15
341.491	104.96
341.703	16.9
341.915	-32.26
342.128	43.52
342.34	72.19
342.552	84.48
342.764	49.66
342.977	35.33
343.189	137.73
343.401	20.99
343.613	14.85
343.826	68.09
344.038	-34.3
344.25	10.75
344.462	6.66
344.674	16.9
344.886	6.66
345.099	104.96
345.311	53.76
345.523	39.42
345.735	55.81
345.947	66.05
346.159	135.68
346.371	72.19
346.583	-15.87
346.795	88.57
347.007	64
347.219	37.38
347.431	39.42
347.643	66.05
347.855	64
348.067	82.43
348.279	31.23
348.491	14.85
348.703	47.62
348.915	14.85
349.127	27.14
349.339	80.38
349.551	14.85
349.763	64
349.975	2.56
350.187	96.77
350.399	61.95
350.61	94.72
350.822	37.38
351.034	57.86
351.246	59.9
351.458	43.52
351.669	-5.63
351.881	147.97
352.093	76.29
352.305	111.1
352.517	98.81
352.728	125.44
352.94	164.35
353.152	88.57
353.363	59.9
353.575	76.29
353.787	121.34
353.999	23.04
354.21	59.9
354.422	-1.54
354.633	18.94
354.845	76.29
355.057	137.73
355.268	8.7
355.48	92.67
355.692	64
355.903	55.81
356.115	14.85
356.326	35.33
356.538	154.11
356.749	6.66
356.961	104.96
357.172	55.81
357.384	39.42
357.595	129.53
357.807	16.9
358.018	68.09
358.23	-28.16
358.441	123.39
358.653	121.34
358.864	80.38
359.075	82.43
359.287	-9.73
359.498	47.62
359.709	51.71
359.921	100.86
360.132	23.04
360.344	104.96
360.555	16.9
360.766	64
360.977	12.8
361.189	35.33
361.4	-13.82
361.611	92.67
361.823	94.72
362.034	80.38
362.245	25.09
362.456	41.47
362.667	104.96
362.879	59.9
363.09	45.57
363.301	33.28
363.512	41.47
363.723	-54.78
363.935	90.62
364.146	100.86
364.357	18.94
364.568	47.62
364.779	14.85
364.99	64
365.201	47.62
365.412	121.34
365.623	-7.68
365.834	92.67
366.045	70.14
366.256	70.14
366.467	82.43
366.678	100.86
366.889	23.04
367.1	43.52
367.311	64
367.522	23.04
367.733	129.53
367.944	96.77
368.155	84.48
368.366	154.11
368.577	72.19
368.788	137.73
368.999	-26.11
369.209	72.19
369.42	154.11
369.631	94.72
369.842	119.29
370.053	10.75
370.264	100.86
370.474	18.94
370.685	27.14
370.896	90.62
371.107	84.48
371.317	80.38
371.528	37.38
371.739	82.43
371.95	6.66
372.16	66.05
372.371	104.96
372.582	61.95
372.792	41.47
373.003	64
373.214	33.28
373.424	133.63
373.635	78.33
373.846	23.04
374.056	82.43
374.267	37.38
374.477	53.76
374.688	18.94
374.898	18.94
375.109	125.44
375.319	55.81
375.53	107.01
375.74	104.96
375.951	10.75
376.161	41.47
376.372	82.43
376.582	51.71
376.793	80.38
377.003	84.48
377.214	111.1
377.424	113.15
377.635	143.87
377.845	47.62
378.055	51.71
378.266	-60.93
378.476	39.42
378.686	27.14
378.897	41.47
379.107	82.43
379.317	6.66
379.528	43.52
379.738	125.44
379.948	100.86
380.158	80.38
380.369	70.14
380.579	55.81
380.789	14.85
380.999	104.96
381.21	25.09
381.42	104.96
381.63	107.01
381.84	78.33
382.05	39.42
382.261	113.15
382.471	117.25
382.681	14.85
382.891	113.15
383.101	119.29
383.311	-52.74
383.521	53.76
383.731	100.86
383.941	80.38
384.151	80.38
384.361	78.33
384.571	39.42
384.781	96.77
384.991	111.1
385.201	115.2
385.411	109.05
385.621	84.48
385.831	39.42
386.041	55.81
386.251	-1.54
386.461	111.1
386.671	25.09
386.881	98.81
387.091	-28.16
387.301	66.05
387.511	90.62
387.72	141.82
387.93	123.39
388.14	-11.78
388.35	92.67
388.56	160.25
388.769	-1.54
388.979	14.85
389.189	16.9
389.399	70.14
389.609	145.92
389.818	82.43
390.028	90.62
390.238	64
390.447	57.86
390.657	57.86
390.867	78.33
391.076	-32.26
391.286	80.38
391.496	104.96
391.705	119.29
391.915	72.19
392.125	92.67
392.334	41.47
392.544	82.43
392.753	72.19
392.963	35.33
393.172	76.29
393.382	8.7
393.591	117.25
393.801	143.87
394.01	123.39
394.22	55.81
394.429	33.28
394.639	39.42
394.848	88.57
395.058	113.15
395.267	80.38
395.477	64
395.686	121.34
395.895	133.63
396.105	178.69
396.314	43.52
396.524	133.63
396.733	23.04
396.942	154.11
397.152	154.11
397.361	150.01
397.57	113.15
397.78	57.86
397.989	57.86
398.198	121.34
398.407	80.38
398.617	139.77
398.826	0.51
399.035	129.53
399.244	84.48
399.453	156.16
399.663	61.95
399.872	84.48
400.081	107.01
400.29	172.54
400.499	39.42
400.708	133.63
400.917	119.29
401.127	190.97
401.336	39.42
401.545	96.77
401.754	129.53
401.963	131.58
402.172	143.87
402.381	156.16
402.59	109.05
402.799	115.2
403.008	219.64
403.217	117.25
403.426	164.35
403.635	64
403.844	123.39
404.053	131.58
404.262	84.48
404.471	268.8
404.68	145.92
404.888	107.01
405.097	143.87
405.306	80.38
405.515	162.3
405.724	166.4
405.933	113.15
406.142	168.45
406.35	195.07
406.559	180.73
406.768	160.25
406.977	203.26
407.185	227.84
407.394	246.27
407.603	154.11
407.812	233.98
408.02	166.4
408.229	162.3
408.438	186.88
408.646	193.02
408.855	258.56
409.064	270.84
409.272	236.03
409.481	195.07
409.69	236.03
409.898	242.17
410.107	229.88
410.315	373.24
410.524	317.95
410.733	383.48
410.941	205.31
411.15	326.14
411.358	324.09
411.567	326.14
411.775	363
411.984	408.06
412.192	399.87
412.401	356.86
412.609	428.54
412.818	467.45
413.026	401.91
413.234	442.87
413.443	506.36
413.651	440.83
413.86	543.22
414.068	606.71
414.276	614.9
414.485	496.12
414.693	522.74
414.901	653.81
415.11	705.01
415.318	719.35
415.526	711.16
415.734	655.86
415.943	793.08
416.151	737.78
416.359	748.02
416.567	799.22
416.776	819.7
416.984	936.43
417.192	834.04
417.4	928.24
417.608	836.08
417.817	879.09
418.025	989.68
418.233	1071.6
418.441	1014.26
418.649	981.49
418.857	1065.46
419.065	1153.52
419.273	1161.71
419.481	1243.63
419.689	1300.97
419.897	1372.65
420.105	1360.36
420.313	1368.56
420.521	1464.81
420.729	1495.53
420.937	1505.77
421.145	1530.34
421.353	1573.35
421.561	1722.85
421.769	1769.96
421.977	1735.14
422.185	1599.98
422.393	1898.98
422.601	1876.45
422.809	2015.71
423.017	2089.44
423.224	2064.86
423.432	2101.73
423.64	2171.36
423.848	2318.81
424.056	2259.42
424.263	2537.95
424.471	2521.56
424.679	2640.34
424.887	2707.93
425.094	2793.94
425.302	2851.28
425.51	2959.83
425.718	2976.21
425.925	3054.03
426.133	3174.86
426.341	3193.3
426.548	3334.61
426.756	3369.42
426.964	3471.82
427.171	3678.66
427.379	3723.72
427.586	3926.47
427.794	3797.45
428.001	4198.85
428.209	4252.1
428.417	4309.44
428.624	4471.23
428.832	4602.3
429.039	4417.98
429.247	4549.05
429.454	4964.79
429.662	5185.97
429.869	4886.97
430.076	5159.35
430.284	5058.99
430.491	5333.42
430.699	5597.61
430.906	5540.27
431.114	5657
431.321	5921.19
431.528	5988.77
431.736	6195.62
431.943	6789.53
432.15	6576.54
432.358	6652.31
432.565	6898.07
432.772	6871.45
432.979	7166.35
433.187	7453.07
433.394	7313.81
433.601	7856.52
433.808	8020.36
434.016	7858.57
434.223	8235.39
434.43	8708.48
434.637	8358.27
434.844	9126.26
435.052	9214.32
435.259	9044.34
435.466	9279.86
435.673	9273.71
435.88	9701.74
436.087	10135.91
436.294	10396
436.501	10084.71
436.708	10246.5
436.915	10578.27
437.122	11065.69
437.329	10981.72
437.537	11282.77
437.743	11469.14
437.95	11348.31
438.157	12050.76
438.364	12239.17
438.571	12468.55
438.778	12411.2
438.985	13281.59
439.192	13285.69
439.399	13379.89
439.606	13080.89
439.813	14004.52
440.02	14727.46
440.227	14276.9
440.433	14410.02
440.64	14764.32
440.847	14762.27
441.054	15071.51
441.261	15870.22
441.467	15878.41
441.674	16279.82
441.881	16855.29
442.088	16761.09
442.294	16556.29
442.501	17025.28
442.708	17273.08
442.914	17907.95
443.121	18933.98
443.328	18114.8
443.534	19163.36
443.741	19007.71
443.948	18612.45
444.154	20289.74
444.361	19683.54
444.568	20091.09
444.774	20193.48
444.981	20318.41
445.187	20820.16
445.394	21627.06
445.6	21461.18
445.807	23361.69
446.013	22474.92
446.22	22806.69
446.426	23636.12
446.633	23902.36
446.839	25092.23
447.046	24133.78
447.252	25030.79
447.459	25168
447.665	25151.62
447.871	26024.05
448.078	27281.5
448.284	26267.76
448.491	26589.29
448.697	27949.14
448.903	28227.67
449.11	28334.16
449.316	27844.7
449.522	28233.81
449.728	29179.97
449.935	29745.21
450.141	29300.8
450.347	30163
450.553	29143.11
450.76	29276.23
450.966	30253.11
451.172	30365.74
451.378	31156.26
451.584	30595.12
451.791	31002.66
451.997	31242.28
452.203	31221.8
452.409	31512.61
452.615	31543.33
452.821	30220.34
453.027	29962.29
453.233	31658.01
453.44	30453.81
453.646	30455.86
453.852	30734.38
454.058	31649.82
454.264	30517.29
454.47	31254.56
454.676	30326.83
454.882	31500.32
455.088	28782.66
455.294	29077.57
455.5	29818.94
455.705	30033.97
455.911	28590.16
456.117	28256.34
456.323	27617.37
456.529	26529.9
456.735	27244.64
456.941	26855.53
457.147	26599.53
457.352	25776.25
457.558	25440.38
457.764	25776.25
457.97	25383.04
458.176	24639.62
458.381	24889.48
458.587	23173.28
458.793	23390.36
458.999	22233.26
459.204	23879.83
459.41	22999.2
459.616	21553.34
459.821	21622.97
460.027	21577.91
460.233	21000.38
460.438	20181.2
460.644	20439.24
460.85	19339.48
461.055	18841.82
461.261	18966.75
461.466	17588.47
461.672	17373.43
461.878	18077.93
462.083	17244.41
462.289	16668.93
462.494	16730.37
462.7	15894.8
462.905	15421.72
463.111	15862.03
463.316	16101.64
463.522	15739.15
463.727	15681.81
463.932	15782.16
464.138	15325.46
464.343	15440.15
464.549	15280.41
464.754	15710.48
464.959	15354.13
465.165	15393.05
465.37	14500.13
465.575	14158.12
465.781	14879
465.986	14649.63
466.191	14364.96
466.397	14047.53
466.602	13166.9
466.807	13986.09
467.012	13938.99
467.218	14057.77
467.423	13553.97
467.628	13814.06
467.833	14326.05
468.038	13850.92
468.244	13343.03
468.449	13959.47
468.654	13715.76
468.859	13367.6
469.064	13396.28
469.269	12765.5
469.474	12769.6
469.679	13072.7
469.885	12763.45
470.09	13033.79
470.295	12837.18
470.5	12417.35
470.705	12681.53
470.91	12306.76
471.115	12278.08
471.32	12384.58
471.525	12198.21
471.73	12216.65
471.935	12050.76
472.139	11841.87
472.344	11737.42
472.549	11796.81
472.754	11501.9
472.959	11278.68
473.164	11069.78
473.369	11084.12
473.574	11485.52
473.778	11229.52
473.983	11239.76
474.188	11159.89
474.393	10461.54
474.598	10721.63
474.802	10453.34
475.007	10396
475.212	10459.49
475.417	10082.66
475.621	10123.62
475.826	9939.3
476.031	10006.89
476.235	9765.23
476.44	10097
476.645	9619.82
476.849	9677.16
477.054	9677.16
477.259	9449.84
477.463	9494.9
477.668	9167.22
477.872	9253.23
478.077	9163.12
478.282	8706.43
478.486	8718.71
478.691	8952.18
478.895	8821.11
479.1	8690.04
479.304	8823.16
479.509	8501.63
479.713	8575.36
479.918	8626.56
480.122	8255.87
480.326	8444.29
480.531	8350.08
480.735	8212.87
480.94	8354.18
481.144	8601.98
481.348	8059.27
481.553	8227.2
481.757	8042.89
481.961	8188.29
482.166	8370.56
482.37	8302.98
482.574	8147.33
482.778	8014.21
482.983	8356.22
483.187	8325.5
483.391	8153.48
483.595	8020.36
483.8	8087.94
484.004	8292.74
484.208	8116.61
484.412	8092.04
484.616	8169.86
484.821	8077.7
485.025	7997.83
485.229	8133
485.433	7934.34
485.637	8094.08
485.841	8182.15
486.045	7868.81
486.249	8214.91
486.453	8159.62
486.657	8184.2
486.861	8020.36
487.065	7893.38
487.269	7946.63
487.473	7870.86
487.677	8223.11
487.881	8145.28
488.085	8194.43
488.289	8087.94
488.493	8180.1
488.697	8176
488.901	8153.48
489.105	8092.04
489.309	8133
489.512	8212.87
489.716	8079.75
489.92	8087.94
490.124	8319.36
490.328	8157.57
490.531	8366.46
490.735	8257.92
490.939	8282.5
491.143	8448.38
491.346	8257.92
491.55	8538.49
491.754	8442.24
491.958	8470.91
492.161	8419.71
492.365	8415.62
492.569	8409.47
492.772	8411.52
492.976	8579.45
493.18	8665.47
493.383	8855.93
493.587	8651.13
493.79	8950.14
493.994	8808.83
494.197	8870.26
494.401	8978.81
494.605	8907.13
494.808	9030.01
495.012	8993.14
495.215	9148.79
495.419	9329.01
495.622	9202.04
495.825	9279.86
496.029	9349.49
496.232	9429.36
496.436	9361.78
496.639	9927.02
496.843	9705.84
497.046	9843.05
497.249	9933.16
497.453	9978.22
497.656	10217.83
497.859	10193.25
498.063	10232.16
498.266	10418.53
498.469	10422.62
498.673	10443.1
498.876	10643.81
499.079	10846.55
499.282	10877.27
499.485	11061.59
499.689	11139.41
499.892	11258.2
500.095	11239.76
500.298	11573.58
500.501	11442.51
500.705	11981.13
500.908	11835.72
501.111	11774.28
501.314	12214.6
501.517	12110.15
501.72	12327.24
501.923	12437.83
502.126	12802.36
502.329	12853.56
502.532	12867.9
502.735	12826.94
502.938	12851.52
503.141	13312.31
503.344	13328.69
503.547	13662.51
503.75	13781.29
503.953	13875.5
504.156	14027.05
504.359	14106.92
504.562	14260.52
504.765	14594.34
504.968	14594.34
505.17	14874.91
505.373	14635.3
505.576	14973.21
505.779	15171.86
505.982	15462.68
506.185	15759.63
506.387	15704.34
506.59	15753.49
506.793	16085.26
506.996	15962.38
507.198	16709.89
507.401	16509.19
507.604	16611.59
507.807	17025.28
508.009	16781.57
508.212	17142.01
508.415	17426.68
508.617	17359.1
508.82	17637.62
509.022	17584.37
509.225	18297.06
509.428	18145.52
509.63	18370.79
509.833	18696.42
510.035	19065.05
510.238	18915.55
510.44	18950.37
510.643	19531.99
510.845	19575
511.048	19390.68
511.25	19816.66
511.453	19886.29
511.655	20463.82
511.858	20330.7
512.06	20541.64
512.262	20848.83
512.465	20699.33
512.667	21299.39
512.87	21532.86
513.072	21500.09
513.274	21809.33
513.477	21928.11
513.679	22069.42
513.881	22440.11
514.084	22679.72
514.286	22675.62
514.488	22667.43
514.69	23527.58
514.893	23582.87
515.095	23412.89
515.297	23707.8
515.499	23990.42
515.701	24373.39
515.904	24604.81
516.106	24785.03
516.308	25127.04
516.51	25247.87
516.712	25319.55
516.914	25456.76
517.116	25821.3
517.318	26120.31
517.52	26118.26
517.722	26269.81
517.925	26615.91
518.127	26912.87
518.329	26988.64
518.531	27080.8
518.733	27803.74
518.935	28029.01
519.136	27832.41
519.338	27816.02
519.54	28422.22
519.742	28629.07
519.944	28856.39
520.146	29450.3
520.348	29118.53
520.55	29558.84
520.752	29349.95
520.954	30197.81
521.155	29550.65
521.357	30156.85
521.559	30713.9
521.761	31115.3
521.963	30984.23
522.164	31180.84
522.366	31189.03
522.568	31664.16
522.77	31371.3
522.971	32194.58
523.173	32016.41
523.375	32127
523.576	32198.68
523.778	32530.45
523.98	33232.9
524.181	33013.77
524.383	32931.85
524.584	33363.97
524.786	33558.53
524.988	33314.82
525.189	33658.88
525.391	33939.45
525.592	34476.02
525.794	34441.2
525.995	34125.82
526.197	34340.85
526.398	34547.7
526.6	35196.9
526.801	34770.93
527.003	34883.56
527.204	35291.11
527.406	35342.31
527.607	35579.87
527.808	35858.4
528.01	34992.11
528.211	35721.18
528.412	36378.58
528.614	35796.96
528.815	35991.51
529.016	36345.81
529.218	36161.5
529.419	36409.3
529.62	36288.47
529.822	36462.55
530.023	36892.62
530.224	36513.75
530.425	36620.24
530.626	36464.6
530.828	36411.35
531.029	37015.5
531.23	36909
531.431	37103.56
531.632	37425.09
531.833	36890.57
532.035	37128.14
532.236	37048.27
532.437	37285.83
532.638	36997.07
532.839	37461.96
533.04	37601.22
533.241	37117.9
533.442	37914.56
533.643	37511.11
533.844	37234.63
534.045	37939.13
534.246	37158.86
534.447	37576.64
534.648	37371.85
534.849	37519.3
535.05	37210.06
535.251	37689.28
535.451	37441.48
535.652	37826.49
535.853	37558.21
536.054	37681.09
536.255	37668.8
536.456	37226.44
536.657	37871.55
536.857	37519.3
537.058	37429.19
537.259	38049.72
537.46	37474.24
537.66	37617.6
537.861	37754.82
538.062	37351.37
538.263	37912.51
538.463	37371.85
538.664	37695.42
538.865	37742.53
539.065	37992.38
539.266	37152.71
539.466	37791.68
539.667	37593.03
539.868	37855.17
540.068	37324.74
540.269	37257.16
540.469	37885.89
540.67	37859.26
540.87	37642.18
541.071	37490.63
541.271	37672.9
541.472	37597.12
541.672	37353.41
541.873	37818.3
542.073	36816.85
542.274	38049.72
542.474	37889.98
542.675	37433.28
542.875	37713.86
543.075	37488.58
543.276	37244.87
543.476	37652.42
543.676	37255.11
543.877	37521.35
544.077	37062.6
544.277	37240.78
544.478	37441.48
544.678	37507.01
544.878	36913.1
545.078	37007.31
545.279	37554.11
545.479	37121.99
545.679	37953.47
545.879	37343.17
546.079	37324.74
546.28	37515.2
546.48	37273.54
546.68	37197.77
546.88	37664.71
547.08	37355.46
547.28	37267.4
547.48	37132.23
547.68	37273.54
547.88	36982.73
548.081	36962.25
548.281	37228.49
548.481	37042.12
548.681	37427.14
548.881	37539.78
549.081	37234.63
549.28	37298.12
549.48	37070.79
549.68	37017.55
549.88	37365.7
550.08	37212.1
550.28	37287.88
550.48	37048.27
550.68	37199.82
550.88	37072.84
551.08	36917.2
551.279	37081.03
551.479	36853.71
551.679	37072.84
551.879	36691.92
552.079	37556.16
552.278	36853.71
552.478	37162.95
552.678	36999.12
552.878	37345.22
553.077	36884.43
553.277	36644.82
553.477	37267.4
553.676	37021.64
553.876	37121.99
554.076	36511.7
554.275	36747.22
554.475	36255.7
554.674	36949.96
554.874	36538.32
555.074	36978.64
555.273	37046.22
555.473	36900.81
555.672	36112.34
555.872	36337.62
556.071	36720.59
556.271	36628.43
556.47	36351.96
556.67	35889.12
556.869	36302.81
557.068	36474.84
557.268	35940.32
557.467	36349.91
557.667	36093.91
557.866	36263.89
558.065	36196.31
558.265	36286.42
558.464	35964.89
558.663	36458.45
558.863	35788.77
559.062	36378.58
559.261	35956.7
559.461	36091.87
559.66	35606.5
559.859	35751.9
560.058	35413.99
560.258	35459.04
560.457	35274.73
560.656	35751.9
560.855	35133.42
561.054	35588.06
561.253	35401.7
561.453	35680.22
561.652	35342.31
561.851	35438.56
562.05	35293.16
562.249	34959.34
562.448	35233.77
562.647	35622.88
562.846	35405.8
563.045	35467.23
563.244	35096.55
563.443	35327.97
563.642	34514.93
563.841	34451.44
564.04	34408.43
564.239	34566.13
564.438	34533.36
564.637	34349.04
564.836	34551.79
565.035	34052.09
565.234	34312.18
565.432	33998.84
565.631	34326.52
565.83	34433.01
566.029	34195.45
566.228	34166.77
566.427	33906.68
566.625	33542.14
566.824	33603.58
567.023	33931.26
567.222	33523.71
567.42	33869.82
567.619	33513.47
567.818	33275.91
568.016	33427.46
568.215	33581.06
568.414	33044.49
568.612	33748.99
568.811	32946.19
569.01	33388.55
569.208	32663.57
569.407	33146.89
569.605	32808.97
569.804	32907.27
570.002	32526.35
570.201	32538.64
570.4	32329.75
570.598	32589.84
570.797	32178.2
570.995	32110.61
571.193	31559.71
571.392	32391.19
571.59	31901.72
571.789	31672.35
571.987	31707.16
572.186	32118.81
572.384	31567.9
572.582	31969.3
572.781	31754.27
572.979	31127.59
573.177	31565.85
573.376	31262.75
573.574	31076.39
573.772	31494.18
573.971	30949.42
574.169	30693.42
574.367	30756.91
574.565	31328.29
574.763	31051.81
574.962	30904.36
575.16	30382.13
575.358	30492.72
575.556	30335.03
575.754	30838.83
575.952	30179.38
576.151	30488.62
576.349	30081.08
576.547	30240.82
576.745	29976.63
576.943	30300.21
577.141	30144.56
577.339	29911.1
577.537	30064.69
577.735	29569.08
577.933	29546.56
578.131	29761.59
578.329	29626.43
578.527	29216.83
578.725	29536.32
578.923	29390.91
579.121	29126.72
579.319	29167.68
579.516	29024.33
579.714	29464.64
579.912	29237.31
580.11	28823.62
580.308	28758.09
580.506	28614.73
580.704	28280.91
580.901	28600.4
581.099	28768.33
581.297	28000.34
581.495	28536.91
581.692	28672.07
581.89	28325.97
582.088	28346.45
582.285	28178.51
582.483	28164.18
582.681	28332.11
582.878	27799.64
583.076	27699.29
583.274	27852.89
583.471	27568.22
583.669	27600.99
583.866	27367.52
584.064	27838.55
584.262	27181.15
584.459	27351.13
584.657	27277.41
584.854	27295.84
585.052	26734.7
585.249	27107.43
585.447	27148.39
585.644	26749.03
585.841	27086.95
586.039	26605.67
586.236	26511.47
586.434	26474.6
586.631	26427.5
586.828	26538.09
587.026	26585.19
587.223	26095.73
587.42	26456.17
587.618	26136.69
587.815	25755.77
588.012	25884.79
588.21	25927.8
588.407	26118.26
588.604	25524.35
588.801	25321.6
588.999	25391.23
589.196	25784.44
589.393	25446.52
589.59	25182.34
589.787	25385.08
589.984	25157.76
590.182	25393.28
590.379	25319.55
590.576	24885.38
590.773	25270.4
590.97	24938.63
591.167	25104.51
591.364	24471.69
591.561	24815.75
591.758	24410.25
591.955	24576.14
592.152	24815.75
592.349	24445.07
592.546	24590.47
592.743	24469.64
592.94	23877.78
593.137	24170.64
593.334	24080.53
593.531	23453.85
593.727	24051.86
593.924	23955.6
594.121	23675.03
594.318	24129.68
594.515	23560.34
594.712	23687.32
594.908	23533.72
595.105	23412.89
595.302	23224.48
595.499	23511.19
595.696	23290.01
595.892	23066.78
596.089	23333.02
596.286	22896.8
596.482	23044.26
596.679	23165.09
596.876	23204
597.072	22646.95
597.269	22724.77
597.466	22714.53
597.662	22552.74
597.859	22325.42
598.055	22579.37
598.252	22382.76
598.448	22169.77
598.645	22280.36
598.841	21719.22
599.038	22444.2
599.234	21950.64
599.431	21860.53
599.627	21952.69
599.824	22306.99
600.02	21780.66
600.217	21731.51
600.413	21858.48
600.609	21395.64
600.806	21418.17
601.002	21385.4
601.198	21012.67
601.395	21070.01
601.591	21395.64
601.787	21348.54
601.984	21119.17
602.18	21291.2
602.376	21055.68
602.572	20811.97
602.769	20857.03
602.965	20760.77
603.161	20691.14
603.357	20594.89
603.553	20498.63
603.75	20418.76
603.946	20398.28
604.142	20738.24
604.338	20142.28
604.534	20304.07
604.73	20154.57
604.926	20089.04
605.122	19947.73
605.318	20027.6
605.514	20170.96
605.71	20070.61
605.906	20082.89
606.102	19728.59
606.298	19830.99
606.494	20009.17
606.69	19757.27
606.886	19712.21
607.082	19579.09
607.278	19763.41
607.474	19243.23
607.67	19503.32
607.866	19310.81
608.062	19529.94
608.257	19300.57
608.453	19085.53
608.649	19411.16
608.845	19153.12
609.041	18903.26
609.236	19063.01
609.432	19124.44
609.628	18974.94
609.824	18884.83
610.019	18827.49
610.215	18782.43
610.411	18835.68
610.606	18807.01
610.802	18723.04
610.998	18432.23
611.193	18858.21
611.389	18555.11
611.584	18489.57
611.78	18530.53
611.976	18497.77
612.171	18571.49
612.367	18372.84
612.562	18340.07
612.758	18229.48
612.953	18266.35
613.149	18262.25
613.344	18139.37
613.539	18397.42
613.735	18174.19
613.93	18266.35
614.126	17848.56
614.321	18284.78
614.517	18286.82
614.712	18243.82
614.907	17883.38
615.103	18389.22
615.298	17944.81
615.493	18143.47
615.688	17703.15
615.884	18321.64
616.079	17729.78
616.274	17846.51
616.47	17891.57
616.665	17752.31
616.86	17469.69
617.055	17580.28
617.25	17608.95
617.445	17815.79
617.641	17260.79
617.836	17570.04
618.031	17326.33
618.226	17408.25
618.421	17307.9
618.616	17332.47
618.811	16800
619.006	16998.65
619.201	17060.09
619.396	16918.78
619.591	16705.79
619.786	16865.53
619.981	16648.45
620.176	16695.55
620.371	16417.03
620.566	16693.51
620.761	16300.3
620.956	16396.55
621.151	16431.37
621.346	16212.23
621.541	16148.75
621.735	16367.88
621.93	15874.32
622.125	15849.74
622.32	15706.38
622.515	15767.82
622.709	15687.95
622.904	15546.64
623.099	15405.33
623.294	15485.2
623.488	15423.76
623.683	15288.6
623.878	14944.54
624.072	15444.24
624.267	15026.46
624.462	15036.7
624.656	14803.23
624.851	14958.88
625.046	14745.89
625.24	14731.55
625.435	14518.56
625.629	14360.87
625.824	14440.74
626.018	14117.16
626.213	14070.06
626.407	14100.78
626.602	14260.52
626.796	14178.6
626.991	14190.89
627.185	14020.91
627.38	13603.12
627.574	13682.99
627.768	13605.17
627.963	13635.89
628.157	13396.28
628.352	13502.77
628.546	13381.94
628.74	13388.08
628.935	13074.74
629.129	13330.74
629.323	12890.43
629.517	13181.24
629.712	13089.08
629.906	13173.05
630.1	12736.83
630.294	12448.07
630.489	12691.77
630.683	12826.94
630.877	12476.74
631.071	12636.48
631.265	12355.91
631.459	12349.76
631.653	12216.65
631.848	12122.44
632.042	12343.62
632.236	12208.45
632.43	12067.14
632.624	11962.7
632.818	11782.48
633.012	11675.98
633.206	11624.78
633.4	11837.77
633.594	11741.52
633.788	11729.23
633.982	11635.02
634.176	11667.79
634.369	11282.77
634.563	11389.27
634.757	11192.66
634.951	11135.32
635.145	11133.27
635.339	11295.06
635.533	10897.75
635.726	11245.91
635.92	11098.45
636.114	10912.09
636.308	10836.31
636.501	10692.96
636.695	10787.16
636.889	10674.53
637.083	10746.2
637.276	10529.12
637.47	10500.45
637.664	10393.95
637.857	10576.22
638.051	10168.68
638.244	10217.83
638.438	10185.06
638.632	10164.58
638.825	10260.84
639.019	10037.61
639.212	10031.46
639.406	10144.1
639.599	10029.41
639.793	9982.31
639.986	9632.11
640.18	9929.06
640.373	9642.35
640.567	9738.6
640.76	9513.33
640.954	9273.71
641.147	9517.42
641.34	9574.77
641.534	9585.01
641.727	9341.3
641.92	9277.81
642.114	9185.65
642.307	9056.63
642.5	9275.76
642.694	8915.32
642.887	8845.69
643.08	9066.87
643.273	9079.16
643.467	9042.29
643.66	8913.27
643.853	8851.83
644.046	8706.43
644.239	8829.31
644.432	8501.63
644.626	8542.59
644.819	8411.52
645.012	8411.52
645.205	8624.51
645.398	8550.78
645.591	8360.32
645.784	8327.55
645.977	8329.6
646.17	8485.25
646.363	8108.42
646.556	8194.43
646.749	8151.43
646.942	8046.98
647.135	8149.38
647.328	8075.65
647.521	7977.35
647.714	7766.41
647.907	7938.44
648.099	7797.13
648.292	7856.52
648.485	7608.72
648.678	7655.82
648.871	7586.19
649.064	7549.32
649.256	7498.13
649.449	7625.1
649.642	7354.77
649.835	7569.8
650.027	7256.47
650.22	7322
650.413	7264.66
650.605	7238.03
650.798	7272.85
650.991	7219.6
651.183	7166.35
651.376	7174.55
651.568	7297.42
651.761	7143.83
651.954	6977.94
652.146	7129.49
652.339	7100.82
652.531	6922.65
652.724	7020.95
652.916	6863.26
653.109	6887.83
653.301	6779.29
653.494	6846.87
653.686	6488.48
653.879	6805.91
654.071	6691.23
654.263	6685.08
654.456	6523.29
654.648	6490.52
654.84	6420.89
655.033	6543.77
655.225	6289.82
655.417	6521.24
655.61	6482.33
655.802	6416.8
655.994	6355.36
656.186	6218.15
656.379	6158.75
656.571	6300.06
656.763	6136.23
656.955	6009.25
657.148	6252.96
657.34	6048.16
657.532	6191.52
657.724	5818.79
657.916	6060.45
658.108	6035.88
658.3	6125.99
658.492	5874.09
658.684	5743.02
658.876	5691.82
659.068	5865.89
659.26	5814.7
659.452	5609.9
659.644	5595.56
659.836	5683.63
660.028	5616.04
660.22	5505.45
660.412	5591.47
660.604	5505.45
660.796	5732.78
660.988	5448.11
661.18	5425.58
661.372	5394.86
661.563	5327.28
661.755	5253.55
661.947	5161.39
662.139	5261.74
662.331	5218.74
662.522	5177.78
662.714	5071.28
662.906	5142.96
663.097	5171.63
663.289	5116.34
663.481	5087.67
663.673	5046.71
663.864	5099.95
664.056	4954.55
664.247	5085.62
664.439	4839.86
664.631	4956.6
664.822	4940.21
665.014	4846.01
665.205	4954.55
665.397	4786.61
665.588	4766.14
665.78	4846.01
665.971	4792.76
666.163	4819.38
666.354	4665.78
666.546	4721.08
666.737	4745.66
666.929	4655.54
667.12	4678.07
667.311	4575.67
667.503	4581.82
667.694	4483.52
667.885	4420.03
668.077	4469.18
668.268	4469.18
668.459	4438.46
668.651	4465.08
668.842	4479.42
669.033	4274.62
669.224	4274.62
669.416	4379.07
669.607	4297.15
669.798	4231.62
669.989	4450.75
670.18	4209.09
670.371	4131.26
670.563	4075.97
670.754	4161.98
670.945	4172.22
671.136	4010.43
671.327	4227.52
671.518	3996.1
671.709	4155.84
671.9	4014.53
672.091	4209.09
672.282	4020.67
672.473	4041.15
672.664	4041.15
672.855	3965.38
673.046	3875.27
673.237	3957.19
673.428	3736.01
673.619	3830.21
673.809	3787.21
674	4075.97
674.191	3807.69
674.382	3826.12
674.573	3668.42
674.764	3742.15
674.954	3744.2
675.145	3760.58
675.336	3678.66
675.527	3725.77
675.717	3809.73
675.908	3682.76
676.099	3627.46
676.289	3611.08
676.48	3621.32
676.671	3549.64
676.861	3523.02
677.052	3590.6
677.243	3455.44
677.433	3471.82
677.624	3500.49
677.814	3500.49
678.005	3473.87
678.195	3547.59
678.386	3381.71
678.576	3336.65
678.767	3348.94
678.957	3353.04
679.148	3504.59
679.338	3463.63
679.529	3389.9
679.719	3353.04
679.909	3475.91
680.1	3348.94
680.29	3305.93
680.481	3416.52
680.671	3307.98
680.861	3400.14
681.052	3273.17
681.242	3367.37
681.432	3205.58
681.622	3310.03
681.813	3170.77
682.003	3168.72
682.193	3129.81
682.383	3324.37
682.573	3123.66
682.764	3144.14
682.954	3178.96
683.144	3109.33
683.334	3070.42
683.524	3148.24
683.714	3066.32
683.904	3013.07
684.094	2998.74
684.284	3004.88
684.474	2998.74
684.664	2980.31
684.854	3099.09
685.044	3103.18
685.234	2965.97
685.424	2978.26
685.614	3000.79
685.804	2963.92
685.994	2884.05
686.184	2990.55
686.374	2908.63
686.564	2914.77
686.753	2890.2
686.943	2873.81
687.133	2783.7
687.323	2791.89
687.513	2865.62
687.702	2818.52
687.892	2738.65
688.082	2720.21
688.272	2849.24
688.461	2746.84
688.651	2877.91
688.841	2839
689.03	2785.75
689.22	2640.34
689.41	2687.45
689.599	2726.36
689.789	2810.33
689.979	2662.87
690.168	2746.84
690.358	2824.66
690.547	2660.82
690.737	2699.73
690.926	2605.53
691.116	2517.47
691.305	2722.26
691.495	2583
691.684	2621.91
691.874	2691.54
692.063	2570.71
692.252	2646.49
692.442	2564.57
692.631	2464.22
692.82	2529.75
693.01	2560.47
693.199	2433.5
693.388	2527.71
693.578	2472.41
693.767	2441.69
693.956	2576.86
694.146	2480.6
694.335	2519.51
694.524	2521.56
694.713	2550.23
694.902	2431.45
695.092	2423.26
695.281	2419.16
695.47	2429.4
695.659	2447.83
695.848	2408.92
696.037	2359.77
696.226	2417.12
696.415	2517.47
696.604	2355.68
696.793	2392.54
696.982	2324.96
697.171	2578.9
697.36	2406.88
697.549	2513.37
697.738	2337.24
697.927	2394.59
698.116	2337.24
698.305	2363.87
698.494	2306.52
698.683	2357.72
698.872	2456.03
699.061	2288.09
699.25	2496.99
699.438	2324.96
699.627	2308.57
699.816	2331.1
700.005	2410.97
700.193	2238.94
700.382	2376.16
700.571	2302.43
700.76	2245.09
700.948	2310.62
701.137	2320.86
701.326	2464.22
701.514	2294.24
701.703	2314.72
701.892	2324.96
702.08	2327
702.269	2214.37
702.457	2214.37
702.646	2300.38
702.834	2271.71
703.023	2312.67
703.212	2294.24
703.4	2230.75
703.589	2333.15
703.777	2365.92
703.965	2300.38
704.154	2292.19
704.342	2236.89
704.531	2304.48
704.719	2114.02
704.907	2259.42
705.096	2177.5
705.284	2259.42
705.472	2300.38
705.661	2154.98
705.849	2210.27
706.037	2183.65
706.226	2154.98
706.414	2220.51
706.602	2236.89
706.79	2361.82
706.979	2259.42
707.167	2238.94
707.355	2243.04
707.543	2214.37
707.731	2128.35
707.919	2300.38
708.107	2173.41
708.296	2200.03
708.484	2245.09
708.672	2349.53
708.86	2206.17
709.048	2204.13
709.236	2169.31
709.424	2195.93
709.612	2206.17
709.8	2240.99
709.988	2273.76
710.176	2193.89
710.364	2173.41
710.551	2247.13
710.739	2193.89
710.927	2193.89
711.115	2245.09
711.303	2275.81
711.491	2114.02
711.679	2247.13
711.866	2185.69
712.054	2335.2
712.242	2132.45
712.43	2222.56
712.617	2128.35
712.805	2249.18
712.993	2253.28
713.181	2136.54
713.368	2226.65
713.556	2144.74
713.744	2261.47
713.931	2228.7
714.119	2179.55
714.306	2068.96
714.494	2226.65
714.682	2173.41
714.869	2093.54
715.057	2142.69
715.244	2130.4
715.432	2111.97
715.619	2169.31
715.807	2144.74
715.994	2122.21
716.182	2136.54
716.369	2073.06
716.556	2071.01
716.744	2212.32
716.931	2087.39
717.119	2128.35
717.306	2204.13
717.493	2111.97
717.681	2095.58
717.868	2255.33
718.055	2159.07
718.242	2234.85
718.43	2169.31
718.617	2249.18
718.804	2197.98
718.991	2218.46
719.179	2140.64
719.366	2177.5
719.553	2120.16
719.74	2200.03
719.927	2212.32
720.114	2142.69
720.301	2062.82
720.488	2157.02
720.676	2111.97
720.863	2202.08
721.05	2238.94
721.237	2187.74
721.424	2148.83
721.611	2167.26
721.798	2060.77
721.985	1972.71
722.172	2001.38
722.358	2105.82
722.545	2105.82
722.732	2142.69
722.919	2134.5
723.106	2025.95
723.293	2091.49
723.48	2157.02
723.667	2052.58
723.853	2083.3
724.04	2091.49
724.227	2134.5
724.414	2066.91
724.6	2073.06
724.787	2109.92
724.974	2071.01
725.161	2085.34
725.347	1993.19
725.534	2064.86
725.72	2079.2
725.907	2095.58
726.094	2038.24
726.28	2075.1
726.467	2025.95
726.653	2105.82
726.84	2058.72
727.027	2243.04
727.213	2071.01
727.4	2152.93
727.586	1966.56
727.773	2105.82
727.959	2062.82
728.145	1950.18
728.332	2040.29
728.518	2048.48
728.705	2087.39
728.891	1933.79
729.077	2171.36
729.264	2025.95
729.45	2058.72
729.636	2107.87
729.823	1987.04
730.009	2032.1
730.195	1976.8
730.382	2050.53
730.568	1974.75
730.754	1892.84
730.94	1982.95
731.126	2015.71
731.313	2025.95
731.499	2085.34
731.685	2124.26
731.871	1997.28
732.057	1993.19
732.243	2044.38
732.429	1997.28
732.615	2054.62
732.801	2015.71
732.987	1980.9
733.173	2040.29
733.359	2005.47
733.545	1933.79
733.731	1976.8
733.917	1989.09
734.103	2050.53
734.289	1939.94
734.475	1939.94
734.661	2052.58
734.847	2030.05
735.033	1952.23
735.219	1958.37
735.404	1835.49
735.59	1950.18
735.776	1915.36
735.962	1956.32
736.148	2046.43
736.333	2081.25
736.519	1939.94
736.705	2005.47
736.89	1974.75
737.076	1806.82
737.262	1833.44
737.447	1892.84
737.633	1931.75
737.819	1878.5
738.004	1841.64
738.19	1858.02
738.375	1878.5
738.561	1853.92
738.747	1817.06
738.932	1868.26
739.118	1939.94
739.303	1843.68
739.489	1792.48
739.674	1849.83
739.859	1819.11
740.045	1874.4
740.23	1767.91
740.416	1800.68
740.601	1827.3
740.786	1710.57
740.972	1882.6
741.157	1800.68
741.342	1815.01
741.528	1765.86
741.713	1778.15
741.898	1737.19
742.084	1749.48
742.269	1923.55
742.454	1712.61
742.639	1739.24
742.824	1747.43
743.01	1759.72
743.195	1839.59
743.38	1784.29
743.565	1751.53
743.75	1657.32
743.935	1685.99
744.12	1808.87
744.305	1729
744.49	1763.81
744.675	1831.4
744.86	1546.73
745.045	1720.81
745.23	1599.98
745.415	1556.97
745.6	1608.17
745.785	1675.75
745.97	1587.69
746.155	1593.83
746.34	1587.69
746.525	1669.61
746.71	1661.41
746.895	1509.86
747.079	1579.5
747.264	1579.5
747.449	1565.16
747.634	1538.54
747.819	1516.01
748.003	1556.97
748.188	1538.54
748.373	1505.77
748.557	1575.4
748.742	1491.43
748.927	1501.67
749.111	1581.54
749.296	1481.19
749.481	1434.09
749.665	1571.3
749.85	1542.63
750.034	1395.18
750.219	1501.67
750.404	1403.37
750.588	1419.75
750.773	1423.85
750.957	1483.24
751.141	1219.05
751.326	1403.37
751.51	1339.88
751.695	1309.16
751.879	1343.98
752.064	1333.74
752.248	1415.66
752.432	1309.16
752.617	1343.98
752.801	1407.47
752.985	1317.36
753.17	1329.64
753.354	1245.68
753.538	1251.82
753.722	1290.73
753.907	1235.44
754.091	1210.86
754.275	1169.9
754.459	1178.09
754.643	1139.18
754.828	1196.53
755.012	1288.68
755.196	1249.77
755.38	1141.23
755.564	1235.44
755.748	1141.23
755.932	1235.44
756.116	1169.9
756.3	1180.14
756.484	1202.67
756.668	1063.41
756.852	1042.93
757.036	1186.29
757.22	1167.85
757.404	1096.18
757.588	1137.13
757.772	1137.13
757.956	1022.45
758.14	1126.89
758.323	1122.8
758.507	1116.65
758.691	1042.93
758.875	1169.9
759.059	1227.25
759.242	1122.8
759.426	1032.69
759.61	1008.11
759.794	1044.98
759.977	944.63
760.161	1120.75
760.345	1028.59
760.528	1120.75
760.712	1020.4
760.895	1006.06
761.079	1038.83
761.263	911.86
761.446	967.15
761.63	993.78
761.813	973.3
761.997	975.35
762.18	956.91
762.364	909.81
762.547	858.61
762.731	950.77
762.914	924.15
763.098	983.54
763.281	891.38
763.464	848.37
763.648	891.38
763.831	893.43
764.015	946.67
764.198	956.91
764.381	942.58
764.564	920.05
764.748	928.24
764.931	928.24
765.114	907.76
765.297	901.62
765.481	901.62
765.664	924.15
765.847	893.43
766.03	891.38
766.213	887.28
766.397	899.57
766.58	795.12
766.763	852.47
766.946	836.08
767.129	858.61
767.312	825.84
767.495	903.67
767.678	836.08
767.861	817.65
768.044	860.66
768.227	973.3
768.41	817.65
768.593	874.99
768.776	854.51
768.959	868.85
769.142	850.42
769.324	739.83
769.507	891.38
769.69	811.51
769.873	762.36
770.056	877.04
770.239	719.35
770.421	891.38
770.604	866.8
770.787	739.83
770.97	803.32
771.152	721.4
771.335	801.27
771.518	733.68
771.7	694.77
771.883	719.35
772.066	807.41
772.248	850.42
772.431	743.92
772.613	682.49
772.796	811.51
772.978	707.06
773.161	797.17
773.343	786.93
773.526	674.29
773.708	645.62
773.891	788.98
774.073	752.12
774.256	702.97
774.438	719.35
774.621	711.16
774.803	696.82
774.985	694.77
775.168	801.27
775.35	664.05
775.532	700.92
775.715	586.23
775.897	668.15
776.079	698.87
776.261	565.75
776.444	621.05
776.626	649.72
776.808	580.09
776.99	598.52
777.173	659.96
777.355	621.05
777.537	590.33
777.719	645.62
777.901	635.38
778.083	645.62
778.265	682.49
778.447	639.48
778.629	598.52
778.811	571.9
778.993	670.2
779.175	637.43
779.357	563.7
779.539	535.03
779.721	596.47
779.903	629.24
780.085	559.61
780.267	621.05
780.449	543.22
780.631	590.33
780.812	516.6
780.994	635.38
781.176	547.32
781.358	604.66
781.54	477.69
781.721	567.8
781.903	518.65
782.085	489.98
782.267	502.26
782.448	432.63
782.63	461.3
782.812	514.55
782.993	526.84
783.175	449.02
783.357	465.4
783.538	440.83
783.72	559.61
783.901	502.26
784.083	500.22
784.264	492.02
784.446	459.26
784.627	434.68
784.809	485.88
784.99	449.02
785.172	481.78
785.353	426.49
785.535	469.5
785.716	399.87
785.897	416.25
786.079	481.78
786.26	496.12
786.441	463.35
786.623	406.01
786.804	369.15
786.985	424.44
787.167	360.95
787.348	424.44
787.529	395.77
787.71	463.35
787.891	369.15
788.073	350.71
788.254	373.24
788.435	465.4
788.616	328.19
788.797	360.95
788.978	461.3
789.159	289.28
789.34	369.15
789.522	338.43
789.703	391.67
789.884	367.1
790.065	356.86
790.246	403.96
790.427	383.48
790.607	346.62
790.788	367.1
790.969	317.95
791.15	360.95
791.331	285.18
791.512	309.76
791.693	408.06
791.874	315.9
792.054	401.91
792.235	313.85
792.416	358.91
792.597	342.52
792.778	350.71
792.958	391.67
793.139	268.8
793.32	377.34
793.5	344.57
793.681	328.19
793.862	367.1
794.042	233.98
794.223	244.22
794.404	334.33
794.584	289.28
794.765	260.6
794.945	276.99
795.126	262.65
795.306	328.19
795.487	303.61
795.667	227.84
795.848	276.99
796.028	285.18
796.209	317.95
796.389	291.32
796.57	256.51
796.75	276.99
796.93	252.41
797.111	262.65
797.291	242.17
797.471	379.39
797.652	260.6
797.832	272.89
798.012	252.41
798.192	248.32
798.373	272.89
798.553	233.98
798.733	260.6
798.913	221.69
799.093	260.6
799.274	395.77
799.454	276.99
799.634	320
799.814	252.41
799.994	264.7
800.174	219.64
800.354	178.69
800.534	285.18
800.714	252.41
800.894	174.59
801.074	190.97
801.254	186.88
801.434	244.22
801.614	227.84
801.794	256.51
801.974	752.12
802.154	236.03
802.334	268.8
802.514	205.31
802.693	256.51
802.873	260.6
803.053	276.99
803.233	197.12
803.413	158.21
803.592	246.27
803.772	211.45
803.952	190.97
804.131	213.5
804.311	229.88
804.491	236.03
804.67	276.99
804.85	162.3
805.03	180.73
805.209	195.07
805.389	174.59
805.568	190.97
805.748	186.88
805.928	229.88
806.107	139.77
806.287	252.41
806.466	307.71
806.646	203.26
806.825	197.12
807.004	158.21
807.184	215.55
807.363	295.42
807.543	174.59
807.722	113.15
807.901	252.41
808.081	248.32
808.26	211.45
808.439	246.27
808.619	188.93
808.798	184.83
808.977	213.5
809.156	182.78
809.336	231.93
809.515	166.4
809.694	180.73
809.873	145.92
810.052	154.11
810.231	240.12
810.411	162.3
810.59	231.93
810.769	178.69
810.948	156.16
811.127	115.2
811.306	170.49
811.485	82.43
811.664	166.4
811.843	203.26
812.022	219.64
812.201	162.3
812.38	145.92
812.559	195.07
812.737	131.58
812.916	104.96
813.095	139.77
813.274	195.07
813.453	129.53
813.632	195.07
813.811	170.49
813.989	164.35
814.168	186.88
814.347	129.53
814.526	180.73
814.704	231.93
814.883	141.82
815.062	104.96
815.24	184.83
815.419	121.34
815.598	109.05
815.776	64
815.955	107.01
816.133	154.11
816.312	147.97
816.49	113.15
816.669	125.44
816.847	141.82
817.026	207.36
817.204	121.34
817.383	166.4
817.561	150.01
817.74	111.1
817.918	86.53
818.097	51.71
818.275	129.53
818.453	145.92
818.632	80.38
818.81	119.29
818.988	113.15
819.167	18.94
819.345	213.5
819.523	137.73
819.701	76.29
819.879	117.25
820.058	72.19
820.236	145.92
820.414	98.81
820.592	150.01
820.77	39.42
820.948	96.77
821.127	127.49
821.305	39.42
821.483	47.62
821.661	137.73
821.839	115.2
822.017	117.25
822.195	158.21
822.373	166.4
822.551	115.2
822.729	135.68
822.907	160.25
823.085	170.49
823.262	43.52
823.44	88.57
823.618	156.16
823.796	182.78
823.974	84.48
824.152	59.9
824.329	88.57
824.507	113.15
824.685	137.73
824.863	129.53
825.04	111.1
825.218	72.19
825.396	121.34
825.574	86.53
825.751	43.52
825.929	139.77
826.107	100.86
826.284	49.66
826.462	182.78
826.639	125.44
826.817	4.61
826.994	92.67
827.172	78.33
827.349	156.16
827.527	94.72
827.704	72.19
827.882	100.86
828.059	61.95
828.237	156.16
828.414	178.69
828.591	104.96
828.769	96.77
828.946	88.57
829.124	53.76
829.301	92.67
829.478	57.86
829.655	154.11
829.833	111.1
830.01	-28.16
830.187	74.24
830.364	76.29
830.542	133.63
830.719	158.21
830.896	92.67
831.073	170.49
831.25	135.68
831.427	61.95
831.604	107.01
831.782	16.9
831.959	72.19
832.136	102.91
832.313	104.96
832.49	14.85
832.667	158.21
832.844	113.15
833.021	145.92
833.198	109.05
833.374	74.24
833.551	25.09
833.728	25.09
833.905	90.62
834.082	-15.87
834.259	64
834.436	82.43
834.612	49.66
834.789	109.05
834.966	76.29
835.143	68.09
835.319	23.04
835.496	100.86
835.673	88.57
835.85	94.72
836.026	107.01
836.203	92.67
836.38	68.09
836.556	68.09
836.733	64
836.909	172.54
837.086	102.91
837.262	59.9
837.439	27.14
837.616	113.15
837.792	47.62
837.968	80.38
838.145	74.24
838.321	80.38
838.498	88.57
838.674	90.62
838.851	45.57
839.027	31.23
839.203	96.77
839.38	129.53
839.556	64
839.732	98.81
839.909	96.77
840.085	64
840.261	14.85
840.437	39.42
840.614	174.59
840.79	41.47
840.966	96.77
841.142	104.96
841.318	90.62
841.494	72.19
841.671	123.39
841.847	115.2
842.023	64
842.199	109.05
842.375	76.29
842.551	90.62
842.727	8.7
842.903	64
843.079	23.04
843.255	104.96
843.431	18.94
843.607	104.96
843.783	-5.63
843.959	94.72
844.134	66.05
844.31	33.28
844.486	33.28
844.662	88.57
844.838	113.15
845.013	135.68
845.189	121.34
845.365	109.05
845.541	78.33
845.716	23.04
845.892	51.71
846.068	59.9
846.244	143.87
846.419	100.86
846.595	-15.87
846.77	78.33
846.946	145.92
847.122	12.8
847.297	-48.64
847.473	64
847.648	-54.78
847.824	113.15
847.999	96.77
848.175	-22.02
848.35	133.63
848.526	41.47
848.701	98.81
848.876	96.77
849.052	123.39
849.227	84.48
849.403	49.66
849.578	104.96
849.753	64
849.929	64
850.104	39.42
850.279	72.19
850.454	72.19
850.63	64
850.805	125.44
850.98	88.57
851.155	41.47
851.33	31.23
851.505	-46.59
851.681	113.15
851.856	-1.54
852.031	96.77
852.206	94.72
852.381	37.38
852.556	47.62
852.731	47.62
852.906	18.94
853.081	123.39
853.256	76.29
853.431	10.75
853.606	2.56
853.781	31.23
853.956	-17.92
854.131	55.81
854.305	45.57
854.48	14.85
854.655	-1.54
854.83	33.28
855.005	33.28
855.18	49.66
855.354	141.82
855.529	23.04
855.704	-5.63
855.879	94.72
856.053	35.33
856.228	80.38
856.403	-50.69
856.577	45.57
856.752	51.71
856.926	64
857.101	43.52
857.276	20.99
857.45	68.09
857.625	61.95
857.799	82.43
857.974	137.73
858.148	23.04
858.323	66.05
858.497	115.2
858.672	27.14
858.846	-17.92
859.02	113.15
859.195	57.86
859.369	-9.73
859.543	-32.26
859.718	-15.87
859.892	115.2
860.066	74.24
860.241	74.24
860.415	6.66
860.589	14.85
860.763	64
860.938	-3.58
861.112	18.94
861.286	76.29
861.46	76.29
861.634	109.05
861.808	68.09
861.982	39.42
862.157	39.42
862.331	82.43
862.505	-38.4
862.679	-40.45
862.853	-28.16
863.027	10.75
863.201	-32.26
863.375	39.42
863.549	0.51
863.722	-7.68
863.896	64
864.07	25.09
864.244	35.33
864.418	64
864.592	33.28
864.766	0.51
864.939	47.62
865.113	31.23
865.287	64
865.461	25.09
865.634	35.33
865.808	27.14
865.982	23.04
866.156	100.86
866.329	16.9
866.503	14.85
866.676	18.94
866.85	2.56
867.024	59.9
867.197	29.18
867.371	-1.54
867.544	-38.4
867.718	121.34
867.891	23.04
868.065	-15.87
868.238	-7.68
868.412	14.85
868.585	-1.54
868.759	39.42
868.932	55.81
869.105	59.9
869.279	-7.68
869.452	72.19
869.625	47.62
869.799	109.05
869.972	29.18
870.145	66.05
870.319	8.7
870.492	-3.58
870.665	-19.97
870.838	0.51
871.011	-9.73
871.185	39.42
871.358	23.04
871.531	66.05
871.704	-5.63
871.877	-7.68
872.05	35.33
872.223	-22.02
872.396	43.52
872.569	29.18
872.742	-36.35
872.915	57.86
873.088	14.85
873.261	-48.64
873.434	45.57
873.607	41.47
873.78	-11.78
873.953	0.51
874.126	37.38
874.299	51.71
874.471	57.86
874.644	35.33
874.817	104.96
874.99	107.01
875.163	-54.78
875.335	49.66
875.508	10.75
875.681	64
875.853	57.86
876.026	55.81
876.199	23.04
876.371	53.76
876.544	72.19
876.717	74.24
876.889	-17.92
877.062	20.99
877.234	47.62
877.407	8.7
877.579	-44.54
877.752	78.33
877.924	-9.73
878.097	80.38
878.269	47.62
878.442	84.48
878.614	76.29
878.786	39.42
878.959	27.14
879.131	18.94
879.303	-15.87
879.476	14.85
879.648	25.09
879.82	39.42
879.993	-15.87
880.165	23.04
880.337	14.85
880.509	66.05
880.681	39.42
880.854	76.29
881.026	49.66
881.198	23.04
881.37	-15.87
881.542	84.48
881.714	-24.06
881.886	55.81
882.058	-13.82
882.23	18.94
882.402	18.94
882.574	-11.78
882.746	-42.5
882.918	43.52
883.09	49.66
883.262	6.66
883.434	2.56
883.606	33.28
883.778	29.18
883.95	66.05
884.122	-15.87
884.293	25.09
884.465	45.57
884.637	49.66
884.809	47.62
884.98	-17.92
885.152	-1.54
885.324	23.04
885.496	27.14
885.667	47.62
885.839	-28.16
886.011	47.62
886.182	6.66
886.354	61.95
886.525	78.33
886.697	27.14
886.869	64
887.04	45.57
887.212	137.73
887.383	115.2
887.555	35.33
887.726	-7.68
887.897	55.81
888.069	-26.11
888.24	-22.02
888.412	47.62
888.583	-15.87
888.754	25.09
888.926	39.42
889.097	31.23
889.268	8.7
889.44	-9.73
889.611	41.47
889.782	27.14
889.953	8.7
890.125	33.28
890.296	-3.58
890.467	61.95
890.638	-3.58
890.809	6.66
890.98	-44.54
891.151	45.57
891.323	12.8
891.494	6.66
891.665	10.75
891.836	8.7
892.007	27.14
892.178	47.62
892.349	-38.4
892.52	49.66
892.691	31.23
892.862	-73.21
893.032	16.9
893.203	96.77
893.374	-9.73
893.545	6.66
893.716	18.94
893.887	96.77
894.057	33.28
894.228	8.7
894.399	-5.63
894.57	20.99
894.74	-38.4
894.911	82.43
895.082	-7.68
895.253	33.28
895.423	0.51
895.594	80.38
895.764	82.43
895.935	-38.4
896.106	94.72
896.276	16.9
896.447	72.19
896.617	47.62
896.788	-26.11
896.958	-5.63
897.129	-54.78
897.299	49.66
897.47	64
897.64	49.66
897.81	-15.87
897.981	-5.63
898.151	51.71
898.322	-22.02
898.492	-24.06
898.662	2.56
898.832	-1.54
899.003	10.75
899.173	88.57
899.343	-46.59
899.513	47.62
