Data from USB4F104151__280__14-46-20-656.txt Node

Date: Thu Mar 13 14:46:20 EDT 2025
User: louis
Spectrometer: USB4F10415
Trigger mode: 4
Integration Time (sec): 2.000000E-2
Scans to average: 1
Electric dark correction enabled: true
Nonlinearity correction enabled: false
Boxcar width: 0
XAxis mode: Wavelengths
Number of Pixels in Spectrum: 3648
>>>>>Begin Spectral Data<<<<<
178.204	-91.48
178.424	-91.48
178.644	-91.48
178.864	-13.65
179.084	-132.44
179.304	8.87
179.524	66.22
179.744	-25.94
179.964	21.16
180.184	-38.23
180.404	-52.56
180.624	-11.61
180.844	23.21
181.064	-21.85
181.283	-3.41
181.503	8.87
181.723	25.26
181.943	-36.18
182.163	-27.99
182.383	-54.61
182.602	23.21
182.822	-21.85
183.042	31.4
183.262	45.74
183.482	21.16
183.701	-5.46
183.921	-36.18
184.141	0.68
184.361	43.69
184.58	72.36
184.8	4.78
185.02	35.5
185.239	-19.8
185.459	29.35
185.679	0.68
185.898	8.87
186.118	17.07
186.338	86.7
186.557	72.36
186.777	76.46
186.997	6.83
187.216	146.09
187.436	45.74
187.655	27.31
187.875	31.4
188.095	23.21
188.314	33.45
188.534	53.93
188.753	-27.99
188.973	49.83
189.192	111.27
189.412	53.93
189.631	-9.56
189.851	70.31
190.07	41.64
190.29	-27.99
190.509	58.03
190.729	86.7
190.948	33.45
191.168	103.08
191.387	64.17
191.607	-11.61
191.826	55.98
192.045	-1.37
192.265	49.83
192.484	-54.61
192.704	27.31
192.923	-15.7
193.142	58.03
193.362	64.17
193.581	53.93
193.8	0.68
194.02	70.31
194.239	-32.08
194.458	23.21
194.678	-36.18
194.897	-75.09
195.116	27.31
195.335	-19.8
195.555	70.31
195.774	-42.32
195.993	70.31
196.212	-52.56
196.432	19.11
196.651	70.31
196.87	-50.52
197.089	58.03
197.308	-19.8
197.528	-58.71
197.747	-52.56
197.966	-25.94
198.185	78.51
198.404	19.11
198.623	37.55
198.842	70.31
199.062	41.64
199.281	-19.8
199.5	23.21
199.719	31.4
199.938	2.73
200.157	86.7
200.376	58.03
200.595	33.45
200.814	21.16
201.033	-11.61
201.252	35.5
201.471	41.64
201.69	6.83
201.909	-1.37
202.128	25.26
202.347	105.13
202.566	23.21
202.785	53.93
203.004	-44.37
203.223	64.17
203.442	-52.56
203.661	-1.37
203.879	-11.61
204.098	53.93
204.317	23.21
204.536	-27.99
204.755	53.93
204.974	27.31
205.193	31.4
205.411	98.99
205.63	41.64
205.849	53.93
206.068	33.45
206.287	12.97
206.505	25.26
206.724	-89.43
206.943	51.88
207.162	6.83
207.381	33.45
207.599	6.83
207.818	25.26
208.037	47.79
208.255	-25.94
208.474	25.26
208.693	74.41
208.911	92.84
209.13	27.31
209.349	62.12
209.567	8.87
209.786	6.83
210.005	-17.75
210.223	-7.51
210.442	25.26
210.661	62.12
210.879	78.51
211.098	-50.52
211.316	12.97
211.535	19.11
211.753	8.87
211.972	96.94
212.191	-44.37
212.409	105.13
212.628	10.92
212.846	-44.37
213.065	37.55
213.283	94.89
213.502	-17.75
213.72	-25.94
213.938	21.16
214.157	-93.52
214.375	55.98
214.594	37.55
214.812	49.83
215.031	21.16
215.249	4.78
215.467	4.78
215.686	-3.41
215.904	88.75
216.122	-17.75
216.341	21.16
216.559	-3.41
216.778	-9.56
216.996	37.55
217.214	-23.89
217.432	51.88
217.651	49.83
217.869	-3.41
218.087	21.16
218.306	72.36
218.524	66.22
218.742	-52.56
218.96	25.26
219.179	-38.23
219.397	29.35
219.615	90.79
219.833	88.75
220.051	-30.04
220.27	4.78
220.488	45.74
220.706	15.02
220.924	-17.75
221.142	74.41
221.36	4.78
221.578	-1.37
221.796	-11.61
222.015	15.02
222.233	-3.41
222.451	-3.41
222.669	47.79
222.887	21.16
223.105	49.83
223.323	29.35
223.541	-11.61
223.759	86.7
223.977	58.03
224.195	-15.7
224.413	66.22
224.631	180.9
224.849	33.45
225.067	45.74
225.285	31.4
225.503	-1.37
225.721	-11.61
225.939	-75.09
226.157	62.12
226.375	119.46
226.592	-1.37
226.81	4.78
227.028	58.03
227.246	47.79
227.464	62.12
227.682	19.11
227.9	78.51
228.117	49.83
228.335	-56.66
228.553	21.16
228.771	70.31
228.989	70.31
229.206	-3.41
229.424	-27.99
229.642	27.31
229.86	-19.8
230.077	8.87
230.295	31.4
230.513	58.03
230.731	53.93
230.948	-42.32
231.166	45.74
231.384	-11.61
231.601	68.27
231.819	33.45
232.037	51.88
232.254	6.83
232.472	-11.61
232.689	-13.65
232.907	37.55
233.125	-11.61
233.342	-64.85
233.56	31.4
233.777	41.64
233.995	111.27
234.213	2.73
234.43	80.55
234.648	12.97
234.865	12.97
235.083	53.93
235.3	37.55
235.518	78.51
235.735	86.7
235.953	103.08
236.17	-17.75
236.388	21.16
236.605	-68.95
236.822	152.23
237.04	117.42
237.257	23.21
237.475	6.83
237.692	49.83
237.909	86.7
238.127	58.03
238.344	-1.37
238.562	74.41
238.779	-44.37
238.996	10.92
239.214	-1.37
239.431	94.89
239.648	-11.61
239.865	90.79
240.083	49.83
240.3	-11.61
240.517	-21.85
240.735	-1.37
240.952	41.64
241.169	25.26
241.386	31.4
241.603	-23.89
241.821	4.78
242.038	78.51
242.255	-11.61
242.472	-5.46
242.689	-79.19
242.907	76.46
243.124	23.21
243.341	-3.41
243.558	-1.37
243.775	39.59
243.992	-44.37
244.209	-3.41
244.426	135.85
244.643	15.02
244.86	21.16
245.078	-11.61
245.295	53.93
245.512	21.16
245.729	80.55
245.946	29.35
246.163	10.92
246.38	-1.37
246.597	70.31
246.814	37.55
247.031	60.07
247.248	51.88
247.464	41.64
247.681	-19.8
247.898	27.31
248.115	-7.51
248.332	-13.65
248.549	29.35
248.766	15.02
248.983	12.97
249.2	41.64
249.417	33.45
249.633	17.07
249.85	15.02
250.067	-3.41
250.284	0.68
250.501	60.07
250.717	12.97
250.934	23.21
251.151	12.97
251.368	-19.8
251.585	66.22
251.801	72.36
252.018	31.4
252.235	2.73
252.451	-99.67
252.668	0.68
252.885	43.69
253.102	39.59
253.318	64.17
253.535	-7.51
253.752	12.97
253.968	29.35
254.185	68.27
254.401	-52.56
254.618	62.12
254.835	-38.23
255.051	-15.7
255.268	-15.7
255.484	39.59
255.701	-25.94
255.917	37.55
256.134	-23.89
256.351	21.16
256.567	29.35
256.784	12.97
257	21.16
257.217	29.35
257.433	12.97
257.65	10.92
257.866	47.79
258.082	-48.47
258.299	12.97
258.515	-19.8
258.732	12.97
258.948	37.55
259.165	6.83
259.381	-1.37
259.597	-32.08
259.814	33.45
260.03	-3.41
260.246	31.4
260.463	29.35
260.679	70.31
260.895	70.31
261.112	90.79
261.328	21.16
261.544	6.83
261.761	111.27
261.977	8.87
262.193	-9.56
262.409	37.55
262.626	39.59
262.842	53.93
263.058	27.31
263.274	49.83
263.49	-1.37
263.707	-19.8
263.923	45.74
264.139	17.07
264.355	-17.75
264.571	25.26
264.787	53.93
265.004	88.75
265.22	-27.99
265.436	-17.75
265.652	19.11
265.868	33.45
266.084	17.07
266.3	68.27
266.516	37.55
266.732	62.12
266.948	86.7
267.164	6.83
267.38	94.89
267.596	-27.99
267.812	21.16
268.028	37.55
268.244	-42.32
268.46	53.93
268.676	-9.56
268.892	6.83
269.108	-54.61
269.324	8.87
269.54	-19.8
269.756	-34.13
269.972	-23.89
270.188	64.17
270.403	80.55
270.619	33.45
270.835	23.21
271.051	23.21
271.267	41.64
271.483	-66.9
271.698	29.35
271.914	62.12
272.13	-11.61
272.346	55.98
272.562	70.31
272.777	2.73
272.993	-25.94
273.209	-38.23
273.425	43.69
273.64	53.93
273.856	64.17
274.072	101.03
274.287	17.07
274.503	94.89
274.719	82.6
274.934	21.16
275.15	29.35
275.366	23.21
275.581	15.02
275.797	21.16
276.012	-40.28
276.228	51.88
276.444	-3.41
276.659	76.46
276.875	-27.99
277.09	86.7
277.306	-11.61
277.521	23.21
277.737	17.07
277.952	86.7
278.168	-17.75
278.383	39.59
278.599	62.12
278.814	111.27
279.03	78.51
279.245	82.6
279.461	31.4
279.676	66.22
279.892	-36.18
280.107	12.97
280.322	-7.51
280.538	53.93
280.753	-52.56
280.969	55.98
281.184	4.78
281.399	111.27
281.615	21.16
281.83	47.79
282.045	-13.65
282.26	8.87
282.476	0.68
282.691	-11.61
282.906	37.55
283.122	37.55
283.337	37.55
283.552	-7.51
283.767	41.64
283.983	0.68
284.198	-13.65
284.413	94.89
284.628	-15.7
284.843	-11.61
285.058	19.11
285.274	82.6
285.489	0.68
285.704	15.02
285.919	72.36
286.134	-50.52
286.349	-58.71
286.564	21.16
286.779	55.98
286.995	-46.42
287.21	23.21
287.425	55.98
287.64	23.21
287.855	80.55
288.07	-7.51
288.285	-3.41
288.5	74.41
288.715	37.55
288.93	-40.28
289.145	12.97
289.36	37.55
289.575	27.31
289.79	80.55
290.004	-11.61
290.219	86.7
290.434	-27.99
290.649	39.59
290.864	72.36
291.079	4.78
291.294	-11.61
291.509	31.4
291.724	82.6
291.938	-13.65
292.153	62.12
292.368	37.55
292.583	37.55
292.798	80.55
293.012	-9.56
293.227	58.03
293.442	-17.75
293.657	4.78
293.871	-25.94
294.086	53.93
294.301	111.27
294.516	19.11
294.73	37.55
294.945	58.03
295.16	168.62
295.374	62.12
295.589	33.45
295.804	78.51
296.018	21.16
296.233	78.51
296.447	37.55
296.662	-3.41
296.877	70.31
297.091	12.97
297.306	-3.41
297.52	25.26
297.735	55.98
297.949	-19.8
298.164	49.83
298.378	45.74
298.593	8.87
298.807	58.03
299.022	55.98
299.236	78.51
299.451	21.16
299.665	-25.94
299.88	-40.28
300.094	76.46
300.309	29.35
300.523	8.87
300.737	-19.8
300.952	6.83
301.166	-19.8
301.381	21.16
301.595	-21.85
301.809	4.78
302.024	4.78
302.238	4.78
302.452	12.97
302.667	-58.71
302.881	76.46
303.095	21.16
303.309	37.55
303.524	-52.56
303.738	-11.61
303.952	-9.56
304.166	84.65
304.381	0.68
304.595	29.35
304.809	17.07
305.023	121.51
305.237	-11.61
305.452	-68.95
305.666	70.31
305.88	62.12
306.094	41.64
306.308	45.74
306.522	35.5
306.736	-15.7
306.95	-7.51
307.164	47.79
307.379	2.73
307.593	45.74
307.807	-27.99
308.021	127.66
308.235	31.4
308.449	-15.7
308.663	-27.99
308.877	113.32
309.091	49.83
309.305	37.55
309.519	-44.37
309.733	-27.99
309.947	-11.61
310.161	27.31
310.374	-25.94
310.588	21.16
310.802	-13.65
311.016	21.16
311.23	10.92
311.444	23.21
311.658	4.78
311.872	55.98
312.085	-34.13
312.299	55.98
312.513	15.02
312.727	-3.41
312.941	45.74
313.154	23.21
313.368	47.79
313.582	29.35
313.796	64.17
314.009	35.5
314.223	64.17
314.437	55.98
314.651	-40.28
314.864	-3.41
315.078	-15.7
315.292	-50.52
315.505	31.4
315.719	66.22
315.933	62.12
316.146	-42.32
316.36	53.93
316.573	47.79
316.787	84.65
317.001	31.4
317.214	-38.23
317.428	21.16
317.641	-11.61
317.855	12.97
318.068	86.7
318.282	45.74
318.495	27.31
318.709	-19.8
318.922	-75.09
319.136	29.35
319.349	-19.8
319.563	-66.9
319.776	15.02
319.99	49.83
320.203	45.74
320.417	47.79
320.63	55.98
320.843	17.07
321.057	53.93
321.27	27.31
321.483	80.55
321.697	90.79
321.91	49.83
322.124	-25.94
322.337	66.22
322.55	41.64
322.763	105.13
322.977	-46.42
323.19	-11.61
323.403	6.83
323.617	-34.13
323.83	103.08
324.043	17.07
324.256	70.31
324.469	37.55
324.683	53.93
324.896	-23.89
325.109	96.94
325.322	35.5
325.535	72.36
325.748	12.97
325.962	29.35
326.175	-54.61
326.388	-52.56
326.601	29.35
326.814	68.27
327.027	41.64
327.24	84.65
327.453	19.11
327.666	72.36
327.879	33.45
328.092	4.78
328.305	0.68
328.518	-11.61
328.731	37.55
328.944	-9.56
329.157	12.97
329.37	86.7
329.583	58.03
329.796	-11.61
330.009	6.83
330.222	-1.37
330.435	49.83
330.648	47.79
330.861	53.93
331.073	64.17
331.286	45.74
331.499	117.42
331.712	47.79
331.925	-19.8
332.138	-42.32
332.35	70.31
332.563	86.7
332.776	74.41
332.989	-27.99
333.202	25.26
333.414	21.16
333.627	96.94
333.84	-9.56
334.053	-44.37
334.265	-17.75
334.478	-3.41
334.691	55.98
334.903	72.36
335.116	-23.89
335.329	53.93
335.541	21.16
335.754	58.03
335.966	6.83
336.179	45.74
336.392	6.83
336.604	43.69
336.817	23.21
337.029	-3.41
337.242	12.97
337.454	49.83
337.667	17.07
337.88	123.56
338.092	58.03
338.305	33.45
338.517	-23.89
338.729	47.79
338.942	31.4
339.154	-25.94
339.367	25.26
339.579	29.35
339.792	-11.61
340.004	53.93
340.217	37.55
340.429	33.45
340.641	55.98
340.854	-27.99
341.066	-40.28
341.278	45.74
341.491	82.6
341.703	4.78
341.915	-38.23
342.128	58.03
342.34	41.64
342.552	-23.89
342.764	0.68
342.977	72.36
343.189	80.55
343.401	37.55
343.613	31.4
343.826	41.64
344.038	15.02
344.25	64.17
344.462	33.45
344.674	-19.8
344.886	58.03
345.099	119.46
345.311	10.92
345.523	-9.56
345.735	-1.37
345.947	-7.51
346.159	55.98
346.371	51.88
346.583	29.35
346.795	80.55
347.007	-97.62
347.219	39.59
347.431	62.12
347.643	0.68
347.855	-64.85
348.067	74.41
348.279	62.12
348.491	55.98
348.703	62.12
348.915	60.07
349.127	37.55
349.339	6.83
349.551	-23.89
349.763	51.88
349.975	-11.61
350.187	-11.61
350.399	19.11
350.61	88.75
350.822	58.03
351.034	45.74
351.246	76.46
351.458	39.59
351.669	29.35
351.881	101.03
352.093	98.99
352.305	25.26
352.517	60.07
352.728	86.7
352.94	47.79
353.152	0.68
353.363	53.93
353.575	53.93
353.787	25.26
353.999	86.7
354.21	15.02
354.422	55.98
354.633	45.74
354.845	88.75
355.057	39.59
355.268	82.6
355.48	98.99
355.692	21.16
355.903	19.11
356.115	17.07
356.326	-3.41
356.538	68.27
356.749	101.03
356.961	98.99
357.172	78.51
357.384	29.35
357.595	23.21
357.807	86.7
358.018	4.78
358.23	70.31
358.441	111.27
358.653	86.7
358.864	39.59
359.075	15.02
359.287	10.92
359.498	127.66
359.709	23.21
359.921	78.51
360.132	92.84
360.344	45.74
360.555	37.55
360.766	45.74
360.977	98.99
361.189	47.79
361.4	12.97
361.611	76.46
361.823	-95.57
362.034	49.83
362.245	-19.8
362.456	15.02
362.667	47.79
362.879	72.36
363.09	-44.37
363.301	37.55
363.512	53.93
363.723	37.55
363.935	-3.41
364.146	21.16
364.357	25.26
364.568	49.83
364.779	-1.37
364.99	4.78
365.201	39.59
365.412	-1.37
365.623	-3.41
365.834	-9.56
366.045	-1.37
366.256	10.92
366.467	96.94
366.678	21.16
366.889	51.88
367.1	49.83
367.311	53.93
367.522	37.55
367.733	45.74
367.944	49.83
368.155	-25.94
368.366	23.21
368.577	29.35
368.788	-19.8
368.999	-3.41
369.209	19.11
369.42	137.9
369.631	121.51
369.842	6.83
370.053	35.5
370.264	31.4
370.474	31.4
370.685	-5.46
370.896	58.03
371.107	111.27
371.317	19.11
371.528	58.03
371.739	-1.37
371.95	43.69
372.16	29.35
372.371	-93.52
372.582	25.26
372.792	129.7
373.003	119.46
373.214	4.78
373.424	47.79
373.635	60.07
373.846	117.42
374.056	41.64
374.267	55.98
374.477	29.35
374.688	0.68
374.898	70.31
375.109	90.79
375.319	23.21
375.53	70.31
375.74	39.59
375.951	55.98
376.161	70.31
376.372	39.59
376.582	31.4
376.793	55.98
377.003	-52.56
377.214	74.41
377.424	49.83
377.635	-77.14
377.845	23.21
378.055	70.31
378.266	51.88
378.476	47.79
378.686	47.79
378.897	-11.61
379.107	12.97
379.317	-23.89
379.528	90.79
379.738	86.7
379.948	-68.95
380.158	78.51
380.369	-3.41
380.579	41.64
380.789	94.89
380.999	33.45
381.21	60.07
381.42	111.27
381.63	-11.61
381.84	70.31
382.05	107.18
382.261	74.41
382.471	68.27
382.681	8.87
382.891	92.84
383.101	53.93
383.311	47.79
383.521	-1.37
383.731	17.07
383.941	113.32
384.151	15.02
384.361	64.17
384.571	51.88
384.781	72.36
384.991	127.66
385.201	72.36
385.411	35.5
385.621	29.35
385.831	33.45
386.041	4.78
386.251	23.21
386.461	39.59
386.671	41.64
386.881	37.55
387.091	51.88
387.301	94.89
387.511	117.42
387.72	27.31
387.93	41.64
388.14	6.83
388.35	58.03
388.56	96.94
388.769	121.51
388.979	70.31
389.189	-1.37
389.399	58.03
389.609	23.21
389.818	70.31
390.028	-11.61
390.238	37.55
390.447	74.41
390.657	107.18
390.867	139.94
391.076	33.45
391.286	62.12
391.496	62.12
391.705	55.98
391.915	78.51
392.125	88.75
392.334	31.4
392.544	35.5
392.753	53.93
392.963	-36.18
393.172	10.92
393.382	29.35
393.591	66.22
393.801	41.64
394.01	129.7
394.22	25.26
394.429	47.79
394.639	-5.46
394.848	101.03
395.058	37.55
395.267	70.31
395.477	33.45
395.686	49.83
395.895	96.94
396.105	203.43
396.314	80.55
396.524	-38.23
396.733	80.55
396.942	53.93
397.152	58.03
397.361	123.56
397.57	137.9
397.78	139.94
397.989	105.13
398.198	80.55
398.407	96.94
398.617	12.97
398.826	78.51
399.035	62.12
399.244	47.79
399.453	64.17
399.663	109.22
399.872	125.61
400.081	62.12
400.29	121.51
400.499	43.69
400.708	72.36
400.917	94.89
401.127	103.08
401.336	101.03
401.545	113.32
401.754	127.66
401.963	62.12
402.172	6.83
402.381	68.27
402.59	182.95
402.799	94.89
403.008	101.03
403.217	125.61
403.426	113.32
403.635	17.07
403.844	62.12
404.053	80.55
404.262	125.61
404.471	152.23
404.68	92.84
404.888	80.55
405.097	74.41
405.306	98.99
405.515	131.75
405.724	78.51
405.933	156.33
406.142	119.46
406.35	209.58
406.559	123.56
406.768	131.75
406.977	221.86
407.185	131.75
407.394	197.29
407.603	113.32
407.812	154.28
408.02	135.85
408.229	125.61
408.438	211.62
408.646	238.25
408.855	191.14
409.064	185
409.272	174.76
409.481	238.25
409.69	250.53
409.898	250.53
410.107	201.38
410.315	342.69
410.524	213.67
410.733	264.87
410.941	242.34
411.15	275.11
411.358	307.88
411.567	283.3
411.775	316.07
411.984	334.5
412.192	357.03
412.401	283.3
412.609	348.84
412.818	318.12
413.026	400.04
413.234	391.84
413.443	357.03
413.651	449.19
413.86	490.15
414.068	406.18
414.276	490.15
414.485	490.15
414.693	658.08
414.901	578.21
415.11	574.11
415.318	580.26
415.526	580.26
415.734	643.74
415.943	617.12
416.151	707.23
416.359	660.13
416.567	754.34
416.776	727.71
416.984	766.62
417.192	821.92
417.4	811.68
417.608	696.99
417.817	711.33
418.025	866.97
418.233	916.12
418.441	858.78
418.649	948.89
418.857	940.7
419.065	975.52
419.273	1036.95
419.481	1104.54
419.689	1163.93
419.897	1045.15
420.105	1284.76
420.313	1315.48
420.521	1180.31
420.729	1333.91
420.937	1321.62
421.145	1381.01
421.353	1448.6
421.561	1497.75
421.769	1503.89
421.977	1645.2
422.185	1684.11
422.393	1637.01
422.601	1768.08
422.809	1903.25
423.017	1763.98
423.224	1843.85
423.432	1962.64
423.64	1991.31
423.848	2251.4
424.056	2138.76
424.263	2282.12
424.471	2249.35
424.679	2282.12
424.887	2470.53
425.094	2519.68
425.302	2577.03
425.51	2591.36
425.718	2648.71
425.925	2740.86
426.133	2853.5
426.341	2964.09
426.548	3138.17
426.756	3134.07
426.964	3019.39
427.171	3232.38
427.379	3289.72
427.586	3404.41
427.794	3537.52
428.001	3588.72
428.209	3908.21
428.417	3879.54
428.624	3998.32
428.832	4029.04
429.039	4004.46
429.247	4029.04
429.454	4387.43
429.662	4676.2
429.869	4428.39
430.076	4766.31
430.284	4604.52
430.491	4856.42
430.699	5102.17
430.906	5235.29
431.114	5169.76
431.321	5214.81
431.528	5356.12
431.736	5694.04
431.943	6091.34
432.15	5909.07
432.358	5988.94
432.565	6193.74
432.772	6283.85
432.979	6480.46
433.187	6648.39
433.394	6599.24
433.601	7213.63
433.808	7336.51
434.016	7273.02
434.223	7334.46
434.43	8008.24
434.637	7516.73
434.844	8167.98
435.052	8210.99
435.259	8182.32
435.466	8393.26
435.673	8432.17
435.88	8753.7
436.087	9157.15
436.294	9249.31
436.501	9163.29
436.708	9314.84
436.915	9517.59
437.122	10039.83
437.329	9861.65
437.537	10220.05
437.743	10371.6
437.95	10248.72
438.157	10953.22
438.364	11336.19
438.571	11201.02
438.778	11311.61
438.985	12354.03
439.192	11803.13
439.399	12435.95
439.606	12014.07
439.813	12802.54
440.02	13322.72
440.227	13081.06
440.433	13175.27
440.64	13545.95
440.847	13316.58
441.054	13744.6
441.261	14576.08
441.467	14610.89
441.674	14844.36
441.881	15126.98
442.088	15141.32
442.294	14954.95
442.501	15727.03
442.708	15950.26
442.914	16454.06
443.121	17439.14
443.328	16699.82
443.534	17830.3
443.741	17398.18
443.948	16982.44
444.154	18569.62
444.361	18356.63
444.568	18424.21
444.774	18231.7
444.981	18842
445.187	18917.77
445.394	20058.49
445.6	19771.77
445.807	21539.17
446.013	20732.27
446.22	21240.17
446.426	22143.32
446.633	22522.19
446.839	22827.34
447.046	21866.84
447.252	23286.09
447.459	23161.16
447.665	23435.59
447.871	24158.52
448.078	25522.47
448.284	24066.36
448.491	24840.5
448.697	25903.39
448.903	26378.52
449.11	26261.79
449.316	25809.18
449.522	26329.37
449.728	27050.25
449.935	27046.16
450.141	27517.19
450.347	28369.15
450.553	26994.96
450.76	27748.61
450.966	28352.76
451.172	28092.67
451.378	29051.12
451.584	28104.96
451.791	29044.98
451.997	28973.3
452.203	29714.66
452.409	29546.73
452.615	29485.29
452.821	28260.6
453.027	28096.77
453.233	29554.92
453.44	28670.2
453.646	28928.24
453.852	28924.15
454.058	29401.32
454.264	28629.24
454.47	29018.35
454.676	28322.04
454.882	29337.83
455.088	26767.63
455.294	27515.14
455.5	27590.92
455.705	27904.26
455.911	27042.06
456.117	26657.04
456.323	25827.62
456.529	24811.82
456.735	26251.55
456.941	25407.78
457.147	24748.34
457.352	24144.19
457.558	23791.94
457.764	24107.32
457.97	23693.63
458.176	22974.8
458.381	23069
458.587	21932.38
458.793	21819.74
458.999	20984.17
459.204	22182.23
459.41	21801.31
459.616	20246.9
459.821	20386.16
460.027	20078.97
460.233	20140.41
460.438	18794.89
460.644	19421.57
460.85	18250.13
461.055	18266.52
461.261	18045.34
461.466	16724.4
461.672	16218.55
461.878	17283.49
462.083	16486.83
462.289	15876.54
462.494	15866.3
462.7	15100.36
462.905	14832.07
463.111	15129.03
463.316	15274.43
463.522	14741.96
463.727	14997.96
463.932	14920.14
464.138	14920.14
464.343	15020.49
464.549	14567.88
464.754	14832.07
464.959	14811.59
465.165	14776.78
465.37	14256.59
465.575	13826.52
465.781	14318.03
465.986	14279.12
466.191	13908.44
466.397	13408.73
466.602	12923.37
466.807	13251.04
467.012	13359.58
467.218	13351.39
467.423	13238.75
467.628	13281.76
467.833	13881.81
468.038	13226.46
468.244	12917.22
468.449	13656.54
468.654	12931.56
468.859	12829.16
469.064	13013.48
469.269	12143.09
469.474	12470.76
469.679	12845.54
469.885	12184.05
470.09	12530.16
470.295	12497.39
470.5	12196.34
470.705	12138.99
470.91	11934.2
471.115	11960.82
471.32	12155.38
471.525	11891.19
471.73	11710.97
471.935	11809.27
472.139	11317.76
472.344	11733.5
472.549	11344.38
472.754	11203.07
472.959	10908.16
473.164	10846.73
473.369	10654.22
473.574	11063.81
473.778	10842.63
473.983	10902.02
474.188	10717.7
474.393	10435.08
474.598	10344.97
474.802	10299.92
475.007	10129.94
475.212	10174.99
475.417	9822.74
475.621	9962
475.826	9808.41
476.031	9683.48
476.235	9400.86
476.44	9425.43
476.645	9286.17
476.849	9443.87
477.054	9368.09
477.259	9183.77
477.463	9140.77
477.668	9030.18
477.872	9167.39
478.077	8921.63
478.282	8706.6
478.486	8901.15
478.691	8647.21
478.895	8499.75
479.1	8538.66
479.304	8624.68
479.509	8378.92
479.713	8452.65
479.918	8344.11
480.122	8225.33
480.326	8354.35
480.531	8354.35
480.735	8122.93
480.94	7938.61
481.144	8509.99
481.348	8112.69
481.553	8108.59
481.757	7852.59
481.961	8165.93
482.166	8245.8
482.37	8090.16
482.574	8002.1
482.778	7946.8
482.983	8151.6
483.187	8053.3
483.391	8016.43
483.595	7920.18
483.8	7844.4
484.004	7879.22
484.208	8124.97
484.412	7877.17
484.616	7934.51
484.821	7926.32
485.025	7983.66
485.229	8122.93
485.433	8012.34
485.637	7850.55
485.841	7766.58
486.045	7848.5
486.249	7930.42
486.453	7985.71
486.657	8028.72
486.861	7905.84
487.065	7852.59
487.269	8090.16
487.473	7795.25
487.677	8133.17
487.881	8069.68
488.085	7928.37
488.289	8229.42
488.493	7862.83
488.697	8034.86
488.901	8096.3
489.105	8084.02
489.309	8137.26
489.512	8266.28
489.716	8319.53
489.92	8137.26
490.124	8081.97
490.328	8157.74
490.531	8237.61
490.735	8299.05
490.939	8346.16
491.143	8362.54
491.346	8360.49
491.55	8376.87
491.754	8319.53
491.958	8469.03
492.161	8503.85
492.365	8553
492.569	8532.52
492.772	8493.61
492.976	8655.4
493.18	8598.06
493.383	8718.89
493.587	8761.89
493.79	8927.78
493.994	8806.95
494.197	8991.27
494.401	9056.8
494.605	9153.06
494.808	9155.1
495.012	9226.78
495.215	9378.33
495.419	9392.67
495.622	9407
495.825	9536.03
496.029	9458.2
496.232	9814.55
496.436	9773.59
496.639	10021.39
496.843	9785.88
497.046	10117.65
497.249	10383.88
497.453	10261.01
497.656	10451.47
497.859	10637.83
498.063	10596.87
498.266	10746.37
498.469	10801.67
498.673	10981.89
498.876	11215.36
499.079	11301.37
499.282	11291.13
499.485	11563.51
499.689	11489.79
499.892	11903.48
500.095	11622.91
500.298	11872.76
500.501	11844.09
500.705	12354.03
500.908	12313.07
501.111	12427.76
501.314	12777.96
501.517	12810.73
501.72	13136.35
501.923	12913.13
502.126	13279.71
502.329	13660.63
502.532	13488.6
502.735	13760.98
502.938	14047.7
503.141	13871.58
503.344	14518.73
503.547	14293.46
503.75	14324.18
503.953	14774.73
504.156	14905.8
504.359	14864.84
504.562	15069.64
504.765	15325.63
504.968	15815.1
505.17	16054.71
505.373	15960.5
505.576	16325.04
505.779	16441.78
505.982	16486.83
506.185	16675.24
506.387	16837.03
506.59	17136.04
506.793	17578.4
506.996	17361.31
507.198	17858.97
507.401	17834.39
507.604	18000.28
507.807	18524.56
508.009	18528.66
508.212	18733.45
508.415	18731.4
508.617	19216.77
508.82	19288.45
509.022	19306.88
509.225	19595.65
509.428	19984.76
509.63	20238.71
509.833	20242.81
510.035	20529.52
510.238	20355.44
510.44	20947.31
510.643	21322.09
510.845	21176.68
511.048	21281.13
511.25	21838.17
511.453	22014.3
511.655	22796.62
511.858	22483.28
512.06	22780.24
512.262	23116.11
512.465	23064.91
512.667	23368.01
512.87	23576.9
513.072	23761.22
513.274	24279.35
513.477	24228.15
513.679	24375.61
513.881	25022.76
514.084	25280.81
514.286	25092.4
514.488	25424.17
514.69	26089.76
514.893	26054.94
515.095	26251.55
515.297	26247.45
515.499	26966.29
515.701	27255.05
515.904	27255.05
516.106	27689.22
516.308	27918.59
516.51	27726.08
516.712	28076.29
516.914	28627.19
517.116	28854.51
517.318	29114.61
517.52	29085.93
517.722	29360.36
517.925	29700.33
518.127	30343.39
518.329	30802.13
518.531	30327
518.733	31113.42
518.935	31088.85
519.136	31291.6
519.338	31572.17
519.54	31852.74
519.742	32225.47
519.944	32172.22
520.146	32624.82
520.348	33198.26
520.55	33317.04
520.752	32921.78
520.954	33427.63
521.155	33495.21
521.357	33956
521.559	34431.13
521.761	34699.42
521.963	34744.47
522.164	34805.91
522.366	35080.34
522.568	35827.85
522.77	35467.41
522.971	36176
523.173	35881.1
523.375	36567.16
523.576	36419.71
523.778	36751.48
523.98	37265.52
524.181	37320.82
524.383	36528.25
524.584	37331.06
524.786	37458.03
524.988	37812.33
525.189	38525.02
525.391	38131.81
525.592	38324.32
525.794	38793.31
525.995	38488.16
526.197	38574.17
526.398	38938.71
526.6	38922.33
526.801	39409.75
527.003	39370.83
527.204	39725.13
527.406	39571.53
527.607	39815.24
527.808	39706.7
528.01	39551.06
528.211	39876.68
528.412	40972.35
528.614	40468.55
528.815	40572.99
529.016	40323.14
529.218	40187.97
529.419	40708.16
529.62	40603.71
529.822	41011.26
530.023	40732.73
530.224	40763.45
530.425	40677.44
530.626	41019.45
530.828	40738.88
531.029	41916.46
531.23	41146.42
531.431	41392.18
531.632	41416.75
531.833	41009.21
532.035	41619.5
532.236	41463.86
532.437	41773.1
532.638	41226.29
532.839	41842.73
533.04	41574.45
533.241	41283.64
533.442	42006.57
533.643	41519.15
533.844	41515.06
534.045	41867.31
534.246	41261.11
534.447	41998.38
534.648	41357.36
534.849	41967.66
535.05	41492.53
535.251	42100.78
535.451	41832.49
535.652	41852.97
535.853	41850.92
536.054	42317.86
536.255	41861.16
536.456	41627.7
536.657	42543.14
536.857	41623.6
537.058	41719.85
537.259	42063.91
537.46	41781.29
537.66	41846.83
537.861	41596.98
538.062	41551.92
538.263	41867.31
538.463	41855.02
538.664	42063.91
538.865	42207.27
539.065	41795.63
539.266	41812.01
539.466	42207.27
539.667	41132.09
539.868	42090.54
540.068	42274.85
540.269	41656.37
540.469	42076.2
540.67	41414.71
540.87	41793.58
541.071	41664.56
541.271	42065.96
541.472	41787.44
541.672	41914.41
541.873	41410.61
542.073	41117.75
542.274	42430.5
542.474	41814.06
542.675	41545.78
542.875	41879.6
543.075	42127.4
543.276	41431.09
543.476	41648.18
543.676	41871.4
543.877	41744.43
544.077	41826.35
544.277	41809.96
544.478	41502.77
544.678	41859.12
544.878	41580.59
545.078	41795.63
545.279	41756.72
545.479	41455.67
545.679	41465.91
545.879	41830.44
546.079	41695.28
546.28	41343.03
546.48	41166.9
546.68	41777.2
546.88	41789.48
547.08	41787.44
547.28	41543.73
547.48	41254.97
547.68	41680.94
547.88	41631.79
548.081	41513.01
548.281	41562.16
548.481	41363.51
548.681	41740.33
548.881	41490.48
549.081	41435.19
549.28	41410.61
549.48	41951.27
549.68	41379.89
549.88	41760.81
550.08	41711.66
550.28	41707.57
550.48	41611.31
550.68	41705.52
550.88	41193.53
551.08	41592.88
551.279	41435.19
551.479	40818.75
551.679	41351.22
551.879	41568.3
552.079	41420.85
552.278	41099.32
552.478	41293.88
552.678	41060.41
552.878	41588.78
553.077	41480.24
553.277	40636.48
553.477	41705.52
553.676	41345.08
553.876	40978.49
554.076	40962.11
554.275	40822.84
554.475	40489.02
554.674	41195.57
554.874	40857.66
555.074	40296.52
555.273	40935.48
555.473	41175.09
555.672	40677.44
555.872	40839.23
556.071	40992.83
556.271	40929.34
556.47	40525.89
556.67	40579.14
556.869	40673.34
557.068	40792.12
557.268	40536.13
557.467	40337.48
557.667	40779.84
557.866	40296.52
558.065	40601.66
558.265	40511.55
558.464	40147.01
558.663	40622.14
558.863	39917.64
559.062	40505.41
559.261	40056.9
559.461	40601.66
559.66	40226.88
559.859	40290.37
560.058	39831.63
560.258	40190.02
560.457	39524.43
560.656	40206.41
560.855	40024.14
561.054	39741.52
561.253	39770.19
561.453	39684.17
561.652	39854.15
561.851	39903.31
562.05	39446.61
562.249	39469.14
562.448	39821.39
562.647	39411.79
562.846	39565.39
563.045	39575.63
563.244	39135.32
563.443	39807.05
563.642	38774.88
563.841	39194.71
564.04	38922.33
564.239	39635.02
564.438	38805.59
564.637	39034.97
564.836	39067.73
565.035	38805.59
565.234	39090.26
565.432	38682.72
565.631	38461.54
565.83	38512.73
566.029	38600.8
566.228	38684.76
566.427	38066.28
566.625	38127.72
566.824	38010.98
567.023	38611.04
567.222	37929.06
567.42	38381.66
567.619	37910.63
567.818	38041.7
568.016	37709.93
568.215	38076.52
568.414	37988.45
568.612	37937.26
568.811	37498.99
569.01	37599.34
569.208	37318.77
569.407	37675.12
569.605	37068.92
569.804	37550.19
570.002	36931.7
570.201	37320.82
570.4	36577.4
570.598	37134.45
570.797	36667.52
570.995	37101.68
571.193	36419.71
571.392	37154.93
571.59	36184.19
571.789	36616.32
571.987	36229.25
572.186	36466.81
572.384	36268.16
572.582	36200.58
572.781	36079.75
572.979	35405.97
573.177	36130.95
573.376	36120.71
573.574	35602.57
573.772	35840.14
573.971	35549.32
574.169	35301.52
574.367	35678.35
574.565	35422.35
574.763	35061.91
574.962	35326.1
575.16	34861.21
575.358	35057.81
575.556	34797.72
575.754	35104.91
575.952	34701.47
576.151	35184.79
576.349	34482.33
576.547	34488.48
576.745	34633.88
576.943	34267.3
577.141	34316.45
577.339	34416.8
577.537	34058.4
577.735	34064.55
577.933	34148.51
578.131	33728.68
578.329	33982.63
578.527	33790.12
578.725	33560.75
578.923	33611.95
579.121	33253.55
579.319	33394.86
579.516	33335.47
579.714	33439.92
579.912	32936.12
580.11	33216.69
580.308	33368.24
580.506	33048.75
580.704	32534.71
580.901	32997.56
581.099	33278.13
581.297	32577.72
581.495	32542.91
581.692	32538.81
581.89	32248
582.088	32481.47
582.285	32288.96
582.483	32579.77
582.681	31893.7
582.878	31987.91
583.076	31639.75
583.274	31877.32
583.471	31451.34
583.669	31924.42
583.866	31406.28
584.064	31727.81
584.262	31181.01
584.459	31426.76
584.657	31420.62
584.854	31291.6
585.052	30658.77
585.249	31256.78
585.447	31160.53
585.644	30941.39
585.841	30771.41
586.039	30859.48
586.236	30345.44
586.434	30380.25
586.631	30271.71
586.828	30267.61
587.026	30277.85
587.223	30626.01
587.42	30093.54
587.618	29823.2
587.815	29583.59
588.012	29837.54
588.21	29720.81
588.407	30044.38
588.604	29217
588.801	29176.05
588.999	29311.21
589.196	29303.02
589.393	29266.16
589.59	29341.93
589.787	29243.63
589.984	28840.18
590.182	28520.7
590.379	29147.37
590.576	28788.98
590.773	28788.98
590.97	28549.37
591.167	28745.97
591.364	28008.7
591.561	28479.74
591.758	28127.49
591.955	28393.72
592.152	28401.91
592.349	28045.57
592.546	27869.44
592.743	28440.82
592.94	27541.77
593.137	27889.92
593.334	27613.45
593.531	27316.49
593.727	27470.09
593.924	27480.33
594.121	27308.3
594.318	27564.29
594.515	26910.99
594.712	27390.22
594.908	27087.12
595.105	27017.49
595.302	26728.72
595.499	27025.68
595.696	26616.08
595.892	26437.91
596.089	26767.63
596.286	26372.38
596.482	26605.84
596.679	26364.18
596.876	26337.56
597.072	26362.14
597.269	26083.61
597.466	25712.93
597.662	26040.61
597.859	25934.11
598.055	25807.14
598.252	25489.7
598.448	25585.96
598.645	25796.9
598.841	25483.56
599.038	25514.28
599.234	25168.17
599.431	25184.55
599.627	25213.23
599.824	25268.52
600.02	25051.44
600.217	25106.73
600.413	24860.98
600.609	24537.4
600.806	24607.03
601.002	24764.72
601.198	24809.78
601.395	24645.94
601.591	24490.29
601.787	24467.77
601.984	24463.67
602.18	24305.98
602.376	24232.25
602.572	23974.2
602.769	24129.85
602.965	23669.06
603.161	23941.44
603.357	23855.42
603.553	23820.61
603.75	23757.12
603.946	23507.27
604.142	23624
604.338	23273.8
604.534	23632.19
604.73	22935.88
604.926	23120.2
605.122	23325
605.318	22948.17
605.514	22823.25
605.71	22853.97
605.906	23023.95
606.102	23112.01
606.298	22753.62
606.494	22991.18
606.69	22851.92
606.886	22919.5
607.082	22368.6
607.278	22694.22
607.474	22227.29
607.67	22559.06
607.866	21940.57
608.062	22561.11
608.257	22049.11
608.453	22133.08
608.649	22124.89
608.845	22030.68
609.041	21975.39
609.236	22161.75
609.432	21944.67
609.628	21674.34
609.824	21645.66
610.019	21541.22
610.215	21748.06
610.411	21846.37
610.606	21510.5
610.802	21664.1
610.998	21653.86
611.193	21524.83
611.389	21404
611.584	21279.08
611.78	21279.08
611.976	21092.71
612.171	21098.86
612.367	21414.24
612.562	20955.5
612.758	20836.72
612.953	20617.58
613.149	21111.14
613.344	20728.17
613.539	20865.39
613.735	20838.76
613.93	20818.28
614.126	20758.89
614.321	21000.55
614.517	20912.49
614.712	20400.5
614.907	20517.23
615.103	20869.48
615.298	20330.87
615.493	20420.98
615.688	20111.74
615.884	20648.3
616.079	20128.12
616.274	20420.98
616.47	20011.39
616.665	20158.84
616.86	20109.69
617.055	20240.76
617.25	19888.51
617.445	19962.23
617.641	19734.91
617.836	19798.4
618.031	19265.92
618.226	20029.82
618.421	19571.07
618.616	19890.56
618.811	19186.05
619.006	19624.32
619.201	19085.7
619.396	19523.97
619.591	19030.41
619.786	19155.33
619.981	18981.26
620.176	18952.59
620.371	18944.39
620.566	18958.73
620.761	18889.1
620.956	18985.35
621.151	18557.33
621.346	18469.26
621.541	18305.43
621.735	18786.7
621.93	18069.91
622.125	18264.47
622.32	17938.84
622.515	17779.1
622.709	17691.04
622.904	17881.5
623.099	17523.1
623.294	17568.16
623.488	17465.76
623.683	17424.8
623.878	17158.56
624.072	17211.81
624.267	17412.51
624.462	17064.36
624.656	16822.7
624.851	16949.67
625.046	16617.9
625.24	16822.7
625.435	16347.57
625.629	16466.35
625.824	16480.69
626.018	16366
626.213	16052.66
626.407	16060.85
626.602	15974.84
626.796	16159.16
626.991	15890.87
627.185	15804.86
627.38	15815.1
627.574	15772.09
627.768	15438.27
627.963	15139.27
628.157	15249.86
628.352	15102.4
628.546	15022.53
628.74	15139.27
628.935	14965.19
629.129	15016.39
629.323	14588.36
629.517	14791.11
629.712	14490.06
629.906	14516.69
630.1	14477.77
630.294	14498.25
630.489	14354.9
630.683	14270.93
630.877	14227.92
631.071	14242.26
631.265	14246.35
631.459	14135.76
631.653	14090.71
631.848	13926.87
632.042	13842.9
632.236	13806.04
632.43	13720.03
632.624	13574.62
632.818	13668.83
633.012	13367.77
633.206	13398.49
633.4	13347.3
633.594	13255.14
633.788	13292
633.982	13337.06
634.176	12947.94
634.369	13130.21
634.563	13279.71
634.757	12771.82
634.951	12882.41
635.145	12792.3
635.339	12634.6
635.533	12409.33
635.726	12550.64
635.92	12442.09
636.114	12507.63
636.308	12313.07
636.501	12360.17
636.695	12198.38
636.889	12136.95
637.083	12042.74
637.276	11827.7
637.47	11850.23
637.664	11934.2
637.857	11622.91
638.051	11768.31
638.244	11473.4
638.438	11491.84
638.632	11457.02
638.825	11526.65
639.019	11467.26
639.212	11313.66
639.406	11262.46
639.599	11414.01
639.793	11317.76
639.986	11102.72
640.18	11082.24
640.373	11037.19
640.567	10863.11
640.76	10852.87
640.954	10885.64
641.147	10555.91
641.34	10541.58
641.534	10578.44
641.727	10584.59
641.92	10455.56
642.114	10449.42
642.307	10588.68
642.5	10469.9
642.694	10228.24
642.887	10117.65
643.08	10359.31
643.273	10105.36
643.467	10086.93
643.66	10146.32
643.853	9857.56
644.046	9869.84
644.239	9835.03
644.432	9855.51
644.626	9769.49
644.819	9667.1
645.012	9585.18
645.205	9644.57
645.398	9617.94
645.591	9366.04
645.784	9253.41
645.977	9454.11
646.17	9370.14
646.363	9064.99
646.556	9249.31
646.749	9034.27
646.942	9234.97
647.135	8886.82
647.328	9011.75
647.521	9108
647.714	8761.89
647.907	8954.4
648.099	8731.17
648.292	8804.9
648.485	8596.01
648.678	8600.1
648.871	8557.1
649.064	8602.15
649.256	8389.16
649.449	8405.55
649.642	8452.65
649.835	8245.8
650.027	8241.71
650.22	8227.37
650.413	8331.82
650.605	8210.99
650.798	8041.01
650.991	7817.78
651.183	8114.73
651.376	7854.64
651.568	7930.42
651.761	7742
651.954	7860.79
652.146	7813.68
652.339	7807.54
652.531	7901.75
652.724	7721.52
652.916	7443
653.109	7574.07
653.301	7397.95
653.494	7637.56
653.686	7445.05
653.879	7500.34
654.071	7289.4
654.263	7270.97
654.456	7311.93
654.648	7244.35
654.84	7068.22
655.033	7115.33
655.225	7068.22
655.417	6910.53
655.61	7062.08
655.802	7014.98
655.994	6877.76
656.186	6928.96
656.379	7002.69
656.571	6806.08
656.763	6683.2
656.955	6750.79
657.148	6715.97
657.34	6767.17
657.532	6603.33
657.724	6572.61
657.916	6582.85
658.108	6572.61
658.3	6484.55
658.492	6529.61
658.684	6349.39
658.876	6371.91
659.068	6380.11
659.26	6394.44
659.452	6193.74
659.644	6230.6
659.836	6279.75
660.028	6103.63
660.22	6011.47
660.412	6062.67
660.604	5974.61
660.796	5931.6
660.988	6044.24
661.18	5870.16
661.372	5861.97
661.563	5681.75
661.755	5976.66
661.947	5706.32
662.139	5724.76
662.331	5638.74
662.522	5460.57
662.714	5511.77
662.906	5386.84
663.097	5376.6
663.289	5378.65
663.481	5579.35
663.673	5276.25
663.864	5335.64
664.056	5423.7
664.247	5259.87
664.439	5145.18
664.631	5233.24
664.822	5266.01
665.014	5214.81
665.205	5093.98
665.397	5126.75
665.588	5204.57
665.78	5028.45
665.971	4958.81
666.163	4977.25
666.354	5012.06
666.546	4883.04
666.737	4840.03
666.929	4645.48
667.12	4952.67
667.311	4788.83
667.503	4774.5
667.694	4661.86
667.885	4760.16
668.077	4682.34
668.268	4620.9
668.459	4586.08
668.651	4455.01
668.842	4471.4
669.033	4475.49
669.224	4627.04
669.416	4608.61
669.607	4403.82
669.798	4371.05
669.989	4418.15
670.18	4381.29
670.371	4342.38
670.563	4186.73
670.754	4391.53
670.945	4184.68
671.136	4282.99
671.327	4323.94
671.518	4135.53
671.709	4110.96
671.9	4217.45
672.091	4239.98
672.282	4049.52
672.473	4199.02
672.664	4102.76
672.855	3971.69
673.046	4194.92
673.237	4088.43
673.428	4059.76
673.619	3963.5
673.809	4002.41
674	4166.25
674.191	3900.02
674.382	3990.13
674.573	4010.61
674.764	3986.03
674.954	3971.69
675.145	3838.58
675.336	3799.66
675.527	3781.23
675.717	3916.4
675.908	3779.18
676.099	3775.09
676.289	3895.92
676.48	3701.36
676.671	3717.75
676.861	3730.03
677.052	3633.78
677.243	3652.21
677.433	3660.4
677.624	3732.08
677.814	3523.19
678.005	3635.83
678.195	3584.63
678.386	3590.77
678.576	3601.01
678.767	3492.47
678.957	3627.64
679.148	3625.59
679.338	3506.81
679.529	3527.28
679.719	3486.33
679.909	3496.57
680.1	3451.51
680.29	3519.09
680.481	3445.37
680.671	3408.5
680.861	3408.5
681.052	3428.98
681.242	3363.45
681.432	3392.12
681.622	3355.26
681.813	3404.41
682.003	3297.91
682.193	3240.57
682.383	3281.53
682.573	3299.96
682.764	3345.02
682.954	3332.73
683.144	3265.14
683.334	3297.91
683.524	3332.73
683.714	3359.35
683.904	3279.48
684.094	3398.26
684.284	3342.97
684.474	3406.45
684.664	3183.23
684.854	3150.46
685.044	3201.66
685.234	3203.71
685.424	3209.85
685.614	3142.27
685.804	3283.58
685.994	3201.66
686.184	3244.67
686.374	3224.19
686.564	3170.94
686.753	3019.39
686.943	3056.25
687.133	3193.47
687.323	3031.68
687.513	3265.14
687.702	3222.14
687.892	3013.24
688.082	3115.64
688.272	3101.31
688.461	3211.9
688.651	3076.73
688.841	2957.95
689.03	3000.96
689.22	2896.51
689.41	2937.47
689.599	2951.81
689.789	3011.2
689.979	3007.1
690.168	2916.99
690.358	2902.65
690.547	2986.62
690.737	2849.41
690.926	2962.05
691.116	2847.36
691.305	2945.66
691.495	2863.74
691.684	2839.17
691.874	2906.75
692.063	2951.81
692.252	2962.05
692.442	2982.53
692.631	2921.09
692.82	2863.74
693.01	2900.61
693.199	2906.75
693.388	2769.54
693.578	2896.51
693.767	2716.29
693.956	2814.59
694.146	2865.79
694.335	2873.98
694.524	2708.1
694.713	2814.59
694.902	2740.86
695.092	2714.24
695.281	2691.71
695.47	2830.98
695.659	2536.07
695.848	2597.51
696.037	2617.99
696.226	2765.44
696.415	2769.54
696.604	2691.71
696.793	2687.62
696.982	2755.2
697.171	2654.85
697.36	2654.85
697.549	2693.76
697.738	2554.5
697.927	2679.43
698.116	2736.77
698.305	2695.81
698.494	2734.72
698.683	2609.79
698.872	2615.94
699.061	2609.79
699.25	2486.92
699.438	2605.7
699.627	2689.67
699.816	2620.03
700.005	2548.36
700.193	2478.72
700.382	2646.66
700.571	2546.31
700.76	2683.52
700.948	2620.03
701.137	2599.55
701.326	2486.92
701.514	2415.24
701.703	2478.72
701.892	2579.08
702.08	2556.55
702.269	2497.16
702.457	2548.36
702.646	2405
702.834	2474.63
703.023	2501.25
703.212	2488.96
703.4	2527.88
703.589	2486.92
703.777	2429.57
703.965	2445.96
704.154	2472.58
704.342	2302.6
704.531	2470.53
704.719	2462.34
704.907	2370.18
705.096	2392.71
705.284	2484.87
705.472	2316.94
705.661	2511.49
705.849	2378.37
706.037	2433.67
706.226	2448.01
706.414	2298.5
706.602	2372.23
706.79	2456.2
706.979	2331.27
707.167	2333.32
707.355	2396.81
707.543	2327.18
707.731	2331.27
707.919	2310.79
708.107	2316.94
708.296	2212.49
708.484	2333.32
708.672	2333.32
708.86	2312.84
709.048	2310.79
709.236	2194.06
709.424	2265.74
709.612	2282.12
709.8	2226.82
709.988	2273.93
710.176	2323.08
710.364	2167.43
710.551	2208.39
710.739	2149
710.927	2210.44
711.115	2325.13
711.303	2189.96
711.491	2130.57
711.679	2235.02
711.866	2200.2
712.054	2308.74
712.242	2194.06
712.43	2214.54
712.617	2243.21
712.805	2212.49
712.993	2118.28
713.181	2136.71
713.368	2177.67
713.556	2204.3
713.744	2069.13
713.931	2202.25
714.119	2202.25
714.306	1974.92
714.494	2187.91
714.682	2079.37
714.869	2007.69
715.057	2155.15
715.244	2171.53
715.432	2159.24
715.619	2089.61
715.807	1923.73
715.994	2075.27
716.182	2054.8
716.369	2093.71
716.556	2110.09
716.744	2028.17
716.931	1962.64
717.119	1931.92
717.306	1940.11
717.493	1938.06
717.681	1995.4
717.868	2022.03
718.055	2013.84
718.242	1948.3
718.43	2032.27
718.617	2032.27
718.804	2056.84
718.991	2069.13
719.179	2019.98
719.366	2028.17
719.553	1983.12
719.74	1897.1
719.927	1962.64
720.114	1933.97
720.301	1913.49
720.488	1843.85
720.676	1923.73
720.863	2024.08
721.05	1909.39
721.237	1813.13
721.424	1843.85
721.611	1895.05
721.798	1870.48
721.985	1819.28
722.172	1809.04
722.358	1800.85
722.545	1872.53
722.732	1802.9
722.919	1946.25
723.106	1847.95
723.293	1782.42
723.48	1731.22
723.667	1811.09
723.853	1757.84
724.04	1800.85
724.227	1741.46
724.414	1817.23
724.6	1766.03
724.787	1843.85
724.974	1792.66
725.161	1741.46
725.347	1700.5
725.534	1784.46
725.72	1806.99
725.907	1778.32
726.094	1833.61
726.28	1704.59
726.467	1794.7
726.653	1786.51
726.84	1786.51
727.027	1792.66
727.213	1675.92
727.4	1815.18
727.586	1702.54
727.773	1677.97
727.959	1802.9
728.145	1749.65
728.332	1749.65
728.518	1667.73
728.705	1829.52
728.891	1733.26
729.077	1700.5
729.264	1735.31
729.45	1671.83
729.636	1710.74
729.823	1731.22
730.009	1645.2
730.195	1677.97
730.382	1606.29
730.568	1684.11
730.754	1720.98
730.94	1626.77
731.126	1759.89
731.313	1702.54
731.499	1569.43
731.685	1684.11
731.871	1612.43
732.057	1720.98
732.243	1577.62
732.429	1637.01
732.615	1663.63
732.801	1661.59
732.987	1604.24
733.173	1647.25
733.359	1598.1
733.545	1618.58
733.731	1522.32
733.917	1647.25
734.103	1684.11
734.289	1669.78
734.475	1540.76
734.661	1540.76
734.847	1651.35
735.033	1522.32
735.219	1544.85
735.404	1497.75
735.59	1522.32
735.776	1585.81
735.962	1577.62
736.148	1514.13
736.333	1497.75
736.519	1626.77
736.705	1524.37
736.89	1569.43
737.076	1487.51
737.262	1540.76
737.447	1426.07
737.633	1421.97
737.819	1563.28
738.004	1389.21
738.19	1407.64
738.375	1424.02
738.561	1426.07
738.747	1507.99
738.932	1446.55
739.118	1489.56
739.303	1553.04
739.489	1487.51
739.674	1385.11
739.859	1356.44
740.045	1428.12
740.23	1497.75
740.416	1344.15
740.601	1485.46
740.786	1344.15
740.972	1295
741.157	1331.86
741.342	1430.16
741.528	1350.29
741.713	1432.21
741.898	1397.4
742.084	1323.67
742.269	1280.66
742.454	1315.48
742.639	1407.64
742.824	1383.06
743.01	1401.49
743.195	1430.16
743.38	1299.09
743.565	1262.23
743.75	1376.92
743.935	1323.67
744.12	1290.9
744.305	1331.86
744.49	1202.84
744.675	1276.57
744.86	1120.92
745.045	1227.42
745.23	1213.08
745.415	1176.22
745.6	1241.75
745.785	1161.88
745.97	1233.56
746.155	1254.04
746.34	1301.14
746.525	1215.13
746.71	1198.74
746.895	1180.31
747.079	1227.42
747.264	1196.7
747.449	1204.89
747.634	1200.79
747.819	1213.08
748.003	1184.41
748.188	1073.82
748.373	1168.02
748.557	1141.4
748.742	1157.78
748.927	1071.77
749.111	1196.7
749.296	1135.26
749.481	1118.87
749.665	1098.39
749.85	1069.72
750.034	1186.46
750.219	1028.76
750.404	1045.15
750.588	1063.58
750.773	1051.29
750.957	1102.49
751.141	1079.96
751.326	1014.43
751.51	952.99
751.695	957.08
751.879	1032.86
752.064	1028.76
752.248	1053.34
752.432	1045.15
752.617	985.76
752.801	955.04
752.985	963.23
753.17	963.23
753.354	987.8
753.538	973.47
753.722	959.13
753.907	950.94
754.091	881.31
754.275	1000.09
754.459	916.12
754.643	821.92
754.828	901.79
755.012	940.7
755.196	1006.24
755.38	836.25
755.564	785.05
755.748	938.65
755.932	873.12
756.116	803.49
756.3	869.02
756.484	725.66
756.668	850.59
756.852	791.2
757.036	803.49
757.22	817.82
757.404	780.96
757.588	819.87
757.772	842.4
757.956	815.77
758.14	815.77
758.323	776.86
758.507	815.77
758.691	844.45
758.875	815.77
759.059	879.26
759.242	729.76
759.426	752.29
759.61	780.96
759.794	766.62
759.977	858.78
760.161	832.16
760.345	809.63
760.528	799.39
760.712	752.29
760.895	713.38
761.079	799.39
761.263	664.22
761.446	768.67
761.63	699.04
761.813	783.01
761.997	676.51
762.18	711.33
762.364	754.34
762.547	637.6
762.731	774.81
762.914	692.9
763.098	711.33
763.281	660.13
763.464	733.86
763.648	631.46
763.831	719.52
764.015	660.13
764.198	774.81
764.381	744.1
764.564	707.23
764.748	684.7
764.931	660.13
765.114	596.64
765.297	627.36
765.481	572.07
765.664	672.42
765.847	662.18
766.03	649.89
766.213	664.22
766.397	653.98
766.58	653.98
766.763	680.61
766.946	561.83
767.129	613.03
767.312	684.7
767.495	582.31
767.678	713.38
767.861	637.6
768.044	637.6
768.227	610.98
768.41	613.03
768.593	670.37
768.776	578.21
768.959	643.74
769.142	606.88
769.324	651.94
769.507	660.13
769.69	635.55
769.873	633.5
770.056	645.79
770.239	582.31
770.421	639.65
770.604	645.79
770.787	619.17
770.97	604.83
771.152	527.01
771.335	537.25
771.518	549.54
771.7	672.42
771.883	547.49
772.066	506.53
772.248	600.74
772.431	625.31
772.613	656.03
772.796	580.26
772.978	529.06
773.161	561.83
773.343	565.92
773.526	545.44
773.708	434.85
773.891	555.68
774.073	529.06
774.256	539.3
774.438	559.78
774.621	512.67
774.803	557.73
774.985	504.48
775.168	553.63
775.35	557.73
775.532	586.4
775.715	563.87
775.897	553.63
776.079	457.38
776.261	471.72
776.444	436.9
776.626	496.29
776.808	459.43
776.99	490.15
777.173	500.39
777.355	457.38
777.537	492.2
777.719	531.11
777.901	438.95
778.083	496.29
778.265	432.8
778.447	512.67
778.629	426.66
778.811	449.19
778.993	467.62
779.175	512.67
779.357	473.76
779.539	397.99
779.721	375.46
779.903	406.18
780.085	377.51
780.267	383.65
780.449	361.13
780.631	438.95
780.812	406.18
780.994	443.04
781.176	361.13
781.358	375.46
781.54	400.04
781.721	397.99
781.903	365.22
782.085	357.03
782.267	348.84
782.448	367.27
782.63	387.75
782.812	371.37
782.993	416.42
783.175	383.65
783.357	268.97
783.538	299.69
783.72	332.45
783.901	408.23
784.083	309.93
784.264	357.03
784.446	318.12
784.627	328.36
784.809	373.41
784.99	332.45
785.172	275.11
785.353	275.11
785.535	285.35
785.716	307.88
785.897	301.73
786.079	359.08
786.26	307.88
786.441	365.22
786.623	303.78
786.804	332.45
786.985	268.97
787.167	291.49
787.348	258.73
787.529	266.92
787.71	334.5
787.891	295.59
788.073	260.77
788.254	326.31
788.435	297.64
788.616	275.11
788.797	293.54
788.978	316.07
789.159	301.73
789.34	258.73
789.522	268.97
789.703	307.88
789.884	242.34
790.065	283.3
790.246	271.01
790.427	250.53
790.607	275.11
790.788	305.83
790.969	316.07
791.15	236.2
791.331	266.92
791.512	250.53
791.693	178.86
791.874	297.64
792.054	326.31
792.235	201.38
792.416	150.18
792.597	207.53
792.778	205.48
792.958	250.53
793.139	246.44
793.32	283.3
793.5	144.04
793.681	303.78
793.862	205.48
794.042	230.06
794.223	211.62
794.404	211.62
794.584	262.82
794.765	195.24
794.945	187.05
795.126	283.3
795.306	160.42
795.487	230.06
795.667	264.87
795.848	225.96
796.028	242.34
796.209	258.73
796.389	283.3
796.57	238.25
796.75	154.28
796.93	176.81
797.111	113.32
797.291	109.22
797.471	180.9
797.652	154.28
797.832	168.62
798.012	217.77
798.192	146.09
798.373	129.7
798.553	170.66
798.733	164.52
798.913	123.56
799.093	182.95
799.274	168.62
799.454	209.58
799.634	170.66
799.814	189.1
799.994	123.56
800.174	185
800.354	228.01
800.534	170.66
800.714	203.43
800.894	111.27
801.074	217.77
801.254	195.24
801.434	139.94
801.614	109.22
801.794	182.95
801.974	750.24
802.154	152.23
802.334	217.77
802.514	135.85
802.693	160.42
802.873	162.47
803.053	221.86
803.233	156.33
803.413	103.08
803.592	176.81
803.772	144.04
803.952	162.47
804.131	115.37
804.311	205.48
804.491	244.39
804.67	82.6
804.85	160.42
805.03	111.27
805.209	225.96
805.389	82.6
805.568	115.37
805.748	154.28
805.928	230.06
806.107	94.89
806.287	228.01
806.466	133.8
806.646	76.46
806.825	164.52
807.004	121.51
807.184	219.82
807.363	135.85
807.543	148.14
807.722	139.94
807.901	152.23
808.081	164.52
808.26	131.75
808.439	115.37
808.619	94.89
808.798	68.27
808.977	129.7
809.156	178.86
809.336	133.8
809.515	115.37
809.694	45.74
809.873	103.08
810.052	98.99
810.231	101.03
810.411	164.52
810.59	139.94
810.769	137.9
810.948	119.46
811.127	94.89
811.306	39.59
811.485	66.22
811.664	141.99
811.843	121.51
812.022	92.84
812.201	103.08
812.38	105.13
812.559	82.6
812.737	156.33
812.916	115.37
813.095	86.7
813.274	39.59
813.453	199.34
813.632	127.66
813.811	111.27
813.989	152.23
814.168	127.66
814.347	96.94
814.526	45.74
814.704	197.29
814.883	154.28
815.062	94.89
815.24	113.32
815.419	86.7
815.598	103.08
815.776	35.5
815.955	119.46
816.133	105.13
816.312	103.08
816.49	72.36
816.669	86.7
816.847	62.12
817.026	150.18
817.204	29.35
817.383	90.79
817.561	49.83
817.74	86.7
817.918	82.6
818.097	105.13
818.275	80.55
818.453	115.37
818.632	131.75
818.81	92.84
818.988	74.41
819.167	90.79
819.345	29.35
819.523	82.6
819.701	98.99
819.879	98.99
820.058	39.59
820.236	43.69
820.414	117.42
820.592	105.13
820.77	115.37
820.948	43.69
821.127	39.59
821.305	47.79
821.483	103.08
821.661	119.46
821.839	135.85
822.017	103.08
822.195	53.93
822.373	86.7
822.551	53.93
822.729	137.9
822.907	90.79
823.085	211.62
823.262	-19.8
823.44	37.55
823.618	53.93
823.796	25.26
823.974	58.03
824.152	41.64
824.329	33.45
824.507	94.89
824.685	47.79
824.863	4.78
825.04	6.83
825.218	58.03
825.396	94.89
825.574	90.79
825.751	37.55
825.929	103.08
826.107	101.03
826.284	80.55
826.462	4.78
826.639	15.02
826.817	41.64
826.994	107.18
827.172	0.68
827.349	82.6
827.527	37.55
827.704	111.27
827.882	98.99
828.059	111.27
828.237	37.55
828.414	47.79
828.591	39.59
828.769	88.75
828.946	111.27
829.124	96.94
829.301	96.94
829.478	80.55
829.655	49.83
829.833	70.31
830.01	33.45
830.187	0.68
830.364	82.6
830.542	107.18
830.719	29.35
830.896	66.22
831.073	62.12
831.25	25.26
831.427	103.08
831.604	23.21
831.782	86.7
831.959	21.16
832.136	-17.75
832.313	111.27
832.49	45.74
832.667	29.35
832.844	21.16
833.021	94.89
833.198	21.16
833.374	8.87
833.551	66.22
833.728	33.45
833.905	-34.13
834.082	12.97
834.259	29.35
834.436	58.03
834.612	17.07
834.789	86.7
834.966	0.68
835.143	70.31
835.319	8.87
835.496	19.11
835.673	33.45
835.85	103.08
836.026	23.21
836.203	107.18
836.38	88.75
836.556	23.21
836.733	41.64
836.909	115.37
837.086	-27.99
837.262	15.02
837.439	6.83
837.616	78.51
837.792	92.84
837.968	55.98
838.145	-7.51
838.321	111.27
838.498	66.22
838.674	-1.37
838.851	90.79
839.027	37.55
839.203	45.74
839.38	6.83
839.556	70.31
839.732	119.46
839.909	31.4
840.085	86.7
840.261	-1.37
840.437	23.21
840.614	82.6
840.79	60.07
840.966	64.17
841.142	-3.41
841.318	6.83
841.494	45.74
841.671	4.78
841.847	43.69
842.023	31.4
842.199	-1.37
842.375	72.36
842.551	51.88
842.727	4.78
842.903	66.22
843.079	-27.99
843.255	70.31
843.431	31.4
843.607	72.36
843.783	-17.75
843.959	58.03
844.134	-11.61
844.31	21.16
844.486	43.69
844.662	-11.61
844.838	49.83
845.013	51.88
845.189	82.6
845.365	105.13
845.541	33.45
845.716	6.83
845.892	64.17
846.068	-36.18
846.244	-15.7
846.419	70.31
846.595	-11.61
846.77	78.51
846.946	21.16
847.122	-42.32
847.297	53.93
847.473	35.5
847.648	43.69
847.824	23.21
847.999	-3.41
848.175	68.27
848.35	86.7
848.526	68.27
848.701	29.35
848.876	80.55
849.052	41.64
849.227	-19.8
849.403	-1.37
849.578	58.03
849.753	70.31
849.929	49.83
850.104	12.97
850.279	53.93
850.454	74.41
850.63	111.27
850.805	70.31
850.98	17.07
851.155	37.55
851.33	-5.46
851.505	6.83
851.681	90.79
851.856	12.97
852.031	105.13
852.206	45.74
852.381	-77.14
852.556	25.26
852.731	62.12
852.906	-48.47
853.081	53.93
853.256	25.26
853.431	55.98
853.606	-21.85
853.781	4.78
853.956	6.83
854.131	23.21
854.305	-11.61
854.48	62.12
854.655	15.02
854.83	25.26
855.005	-23.89
855.18	72.36
855.354	4.78
855.529	-1.37
855.704	-21.85
855.879	62.12
856.053	47.79
856.228	-1.37
856.403	-19.8
856.577	-44.37
856.752	-11.61
856.926	23.21
857.101	19.11
857.276	-19.8
857.45	-50.52
857.625	4.78
857.799	-44.37
857.974	27.31
858.148	-17.75
858.323	-52.56
858.497	82.6
858.672	-15.7
858.846	41.64
859.02	23.21
859.195	-17.75
859.369	8.87
859.543	76.46
859.718	15.02
859.892	19.11
860.066	58.03
860.241	-32.08
860.415	72.36
860.589	6.83
860.763	8.87
860.938	-85.33
861.112	12.97
861.286	12.97
861.46	-27.99
861.634	-23.89
861.808	96.94
861.982	-27.99
862.157	2.73
862.331	12.97
862.505	0.68
862.679	-30.04
862.853	0.68
863.027	78.51
863.201	74.41
863.375	31.4
863.549	-9.56
863.722	-3.41
863.896	53.93
864.07	-44.37
864.244	53.93
864.418	-3.41
864.592	105.13
864.766	39.59
864.939	-3.41
865.113	-7.51
865.287	49.83
865.461	-21.85
865.634	-15.7
865.808	19.11
865.982	80.55
866.156	-25.94
866.329	-48.47
866.503	0.68
866.676	53.93
866.85	78.51
867.024	35.5
867.197	4.78
867.371	-75.09
867.544	0.68
867.718	39.59
867.891	0.68
868.065	-9.56
868.238	-11.61
868.412	29.35
868.585	25.26
868.759	41.64
868.932	4.78
869.105	-56.66
869.279	-25.94
869.452	-44.37
869.625	12.97
869.799	47.79
869.972	15.02
870.145	-1.37
870.319	86.7
870.492	10.92
870.665	-3.41
870.838	-3.41
871.011	-9.56
871.185	29.35
871.358	-32.08
871.531	29.35
871.704	21.16
871.877	-46.42
872.05	53.93
872.223	37.55
872.396	23.21
872.569	6.83
872.742	6.83
872.915	-42.32
873.088	55.98
873.261	-40.28
873.434	0.68
873.607	17.07
873.78	-44.37
873.953	39.59
874.126	-19.8
874.299	27.31
874.471	-81.24
874.644	45.74
874.817	-27.99
874.99	35.5
875.163	12.97
875.335	12.97
875.508	-19.8
875.681	86.7
875.853	4.78
876.026	-13.65
876.199	4.78
876.371	37.55
876.544	-62.8
876.717	-1.37
876.889	12.97
877.062	41.64
877.234	-48.47
877.407	74.41
877.579	70.31
877.752	51.88
877.924	-5.46
878.097	-17.75
878.269	33.45
878.442	4.78
878.614	-30.04
878.786	4.78
878.959	17.07
879.131	15.02
879.303	-27.99
879.476	21.16
879.648	113.32
879.82	21.16
879.993	82.6
880.165	101.03
880.337	-25.94
880.509	-27.99
880.681	-9.56
880.854	12.97
881.026	55.98
881.198	27.31
881.37	-56.66
881.542	-7.51
881.714	41.64
881.886	21.16
882.058	25.26
882.23	37.55
882.402	-73.04
882.574	37.55
882.746	29.35
882.918	-42.32
883.09	-21.85
883.262	29.35
883.434	29.35
883.606	-21.85
883.778	-3.41
883.95	31.4
884.122	-71
884.293	-15.7
884.465	12.97
884.637	41.64
884.809	8.87
884.98	25.26
885.152	47.79
885.324	-7.51
885.496	-17.75
885.667	-48.47
885.839	27.31
886.011	45.74
886.182	0.68
886.354	29.35
886.525	12.97
886.697	-27.99
886.869	-17.75
887.04	-42.32
887.212	17.07
887.383	33.45
887.555	-60.76
887.726	4.78
887.897	-15.7
888.069	37.55
888.24	-52.56
888.412	-15.7
888.583	53.93
888.754	49.83
888.926	-48.47
889.097	-11.61
889.268	-23.89
889.44	41.64
889.611	25.26
889.782	-27.99
889.953	0.68
890.125	82.6
890.296	-34.13
890.467	-23.89
890.638	0.68
890.809	8.87
890.98	-9.56
891.151	4.78
891.323	4.78
891.494	31.4
891.665	6.83
891.836	64.17
892.007	-36.18
892.178	-21.85
892.349	-3.41
892.52	-44.37
892.691	33.45
892.862	-1.37
893.032	37.55
893.203	17.07
893.374	94.89
893.545	31.4
893.716	4.78
893.887	-50.52
894.057	-34.13
894.228	70.31
894.399	21.16
894.57	45.74
894.74	25.26
894.911	66.22
895.082	23.21
895.253	-19.8
895.423	33.45
895.594	33.45
895.764	12.97
895.935	55.98
896.106	37.55
896.276	62.12
896.447	-27.99
896.617	-15.7
896.788	-48.47
896.958	29.35
897.129	-58.71
897.299	-25.94
897.47	55.98
897.64	-11.61
897.81	-83.28
897.981	-11.61
898.151	-60.76
898.322	55.98
898.492	66.22
898.662	29.35
898.832	-30.04
899.003	21.16
899.173	68.27
899.343	86.7
899.513	-15.7
