Data from USB4F104151__71__14-43-21-697.txt Node

Date: Thu Mar 13 14:43:21 EDT 2025
User: louis
Spectrometer: USB4F10415
Trigger mode: 4
Integration Time (sec): 2.000000E-2
Scans to average: 1
Electric dark correction enabled: true
Nonlinearity correction enabled: false
Boxcar width: 0
XAxis mode: Wavelengths
Number of Pixels in Spectrum: 3648
>>>>>Begin Spectral Data<<<<<
178.204	-176.98
178.424	-176.98
178.644	-176.98
178.864	-119.64
179.084	-111.44
179.304	-31.57
179.524	79.02
179.744	25.77
179.964	68.78
180.184	-82.77
180.404	-23.38
180.624	-31.57
180.844	11.43
181.064	-7
181.283	-31.57
181.503	-15.19
181.723	38.06
181.943	-121.68
182.163	44.2
182.383	-27.48
182.602	11.43
182.822	38.06
183.042	134.31
183.262	-13.14
183.482	1.19
183.701	60.59
183.921	17.58
184.141	-39.76
184.361	42.15
184.58	29.87
184.8	74.92
185.02	13.48
185.239	66.73
185.459	-35.67
185.679	25.77
185.898	5.29
186.118	-39.76
186.338	-27.48
186.557	25.77
186.777	-39.76
186.997	19.63
187.216	21.67
187.436	169.13
187.655	117.93
187.875	50.35
188.095	7.34
188.314	56.49
188.534	66.73
188.753	13.48
188.973	1.19
189.192	52.39
189.412	1.19
189.631	46.25
189.851	11.43
190.07	52.39
190.29	-19.29
190.509	-0.85
190.729	-64.34
190.948	68.78
191.168	117.93
191.387	38.06
191.607	-47.96
191.826	42.15
192.045	46.25
192.265	74.92
192.484	-37.72
192.704	44.2
192.923	13.48
193.142	107.69
193.362	56.49
193.581	58.54
193.8	44.2
194.02	54.44
194.239	-103.25
194.458	-4.95
194.678	27.82
194.897	-41.81
195.116	54.44
195.335	44.2
195.555	-7
195.774	25.77
195.993	56.49
196.212	27.82
196.432	-37.72
196.651	42.15
196.87	-11.09
197.089	-7
197.308	44.2
197.528	1.19
197.747	-29.52
197.966	-11.09
198.185	33.96
198.404	-17.24
198.623	74.92
198.842	74.92
199.062	50.35
199.281	25.77
199.5	9.39
199.719	33.96
199.938	85.16
200.157	81.07
200.376	-47.96
200.595	103.59
200.814	68.78
201.033	19.63
201.252	33.96
201.471	-2.9
201.69	50.35
201.909	66.73
202.128	-9.05
202.347	54.44
202.566	13.48
202.785	-78.68
203.004	-15.19
203.223	79.02
203.442	-41.81
203.661	25.77
203.879	11.43
204.098	31.91
204.317	-33.62
204.536	58.54
204.755	13.48
204.974	3.24
205.193	38.06
205.411	58.54
205.63	81.07
205.849	-9.05
206.068	60.59
206.287	83.11
206.505	-21.33
206.724	-54.1
206.943	17.58
207.162	33.96
207.381	-50
207.599	-29.52
207.818	17.58
208.037	1.19
208.255	-41.81
208.474	50.35
208.693	-2.9
208.911	-50
209.13	13.48
209.349	44.2
209.567	-7
209.786	33.96
210.005	58.54
210.223	23.72
210.442	-41.81
210.661	-4.95
210.879	54.44
211.098	33.96
211.316	19.63
211.535	58.54
211.753	9.39
211.972	-2.9
212.191	-2.9
212.409	56.49
212.628	17.58
212.846	-82.77
213.065	-68.44
213.283	91.31
213.502	-2.9
213.72	85.16
213.938	25.77
214.157	11.43
214.375	23.72
214.594	23.72
214.812	-25.43
215.031	-2.9
215.249	13.48
215.467	58.54
215.686	91.31
215.904	19.63
216.122	-21.33
216.341	76.97
216.559	21.67
216.778	9.39
216.996	25.77
217.214	-29.52
217.432	-37.72
217.651	5.29
217.869	-23.38
218.087	50.35
218.306	-29.52
218.524	25.77
218.742	17.58
218.96	-19.29
219.179	25.77
219.397	-15.19
219.615	36.01
219.833	-41.81
220.051	79.02
220.27	119.98
220.488	1.19
220.706	42.15
220.924	-52.05
221.142	-31.57
221.36	-33.62
221.578	-39.76
221.796	23.72
222.015	60.59
222.233	81.07
222.451	25.77
222.669	-2.9
222.887	72.87
223.105	-31.57
223.323	33.96
223.541	-70.48
223.759	-21.33
223.977	33.96
224.195	44.2
224.413	66.73
224.631	25.77
224.849	9.39
225.067	54.44
225.285	70.83
225.503	21.67
225.721	-70.48
225.939	50.35
226.157	27.82
226.375	136.36
226.592	42.15
226.81	50.35
227.028	21.67
227.246	33.96
227.464	31.91
227.682	66.73
227.9	68.78
228.117	70.83
228.335	38.06
228.553	9.39
228.771	-25.43
228.989	-4.95
229.206	-37.72
229.424	21.67
229.642	23.72
229.86	-15.19
230.077	74.92
230.295	72.87
230.513	54.44
230.731	52.39
230.948	58.54
231.166	74.92
231.384	9.39
231.601	17.58
231.819	132.26
232.037	68.78
232.254	-101.2
232.472	1.19
232.689	-0.85
232.907	-2.9
233.125	7.34
233.342	-78.68
233.56	44.2
233.777	33.96
233.995	29.87
234.213	-11.09
234.43	19.63
234.648	21.67
234.865	-23.38
235.083	93.35
235.3	-21.33
235.518	17.58
235.735	11.43
235.953	50.35
236.17	-21.33
236.388	-15.19
236.605	36.01
236.822	44.2
237.04	60.59
237.257	29.87
237.475	-37.72
237.692	66.73
237.909	17.58
238.127	15.53
238.344	81.07
238.562	9.39
238.779	19.63
238.996	9.39
239.214	42.15
239.431	107.69
239.648	-13.14
239.865	44.2
240.083	3.24
240.3	3.24
240.517	-97.11
240.735	54.44
240.952	124.07
241.169	87.21
241.386	-9.05
241.603	-0.85
241.821	-62.29
242.038	60.59
242.255	29.87
242.472	-11.09
242.689	-11.09
242.907	-56.15
243.124	17.58
243.341	-13.14
243.558	-29.52
243.775	-39.76
243.992	-9.05
244.209	1.19
244.426	9.39
244.643	58.54
244.86	-64.34
245.078	66.73
245.295	21.67
245.512	-54.1
245.729	-35.67
245.946	17.58
246.163	31.91
246.38	79.02
246.597	-19.29
246.814	17.58
247.031	1.19
247.248	25.77
247.464	-4.95
247.681	1.19
247.898	-4.95
248.115	-37.72
248.332	-13.14
248.549	29.87
248.766	54.44
248.983	29.87
249.2	11.43
249.417	74.92
249.633	-11.09
249.85	-21.33
250.067	17.58
250.284	17.58
250.501	-11.09
250.717	79.02
250.934	1.19
251.151	-11.09
251.368	-29.52
251.585	54.44
251.801	-2.9
252.018	-56.15
252.235	-2.9
252.451	33.96
252.668	3.24
252.885	25.77
253.102	-23.38
253.318	60.59
253.535	38.06
253.752	91.31
253.968	36.01
254.185	-11.09
254.401	-35.67
254.618	11.43
254.835	54.44
255.051	58.54
255.268	19.63
255.484	-17.24
255.701	-15.19
255.917	62.63
256.134	52.39
256.351	13.48
256.567	17.58
256.784	50.35
257	-9.05
257.217	-2.9
257.433	74.92
257.65	-19.29
257.866	42.15
258.082	-23.38
258.299	9.39
258.515	87.21
258.732	-27.48
258.948	9.39
259.165	17.58
259.381	-4.95
259.597	27.82
259.814	15.53
260.03	76.97
260.246	-15.19
260.463	76.97
260.679	68.78
260.895	23.72
261.112	-23.38
261.328	5.29
261.544	-2.9
261.761	107.69
261.977	44.2
262.193	11.43
262.409	113.83
262.626	-23.38
262.842	70.83
263.058	-7
263.274	40.11
263.49	97.45
263.707	62.63
263.923	42.15
264.139	21.67
264.355	52.39
264.571	105.64
264.787	62.63
265.004	-7
265.22	44.2
265.436	-64.34
265.652	-39.76
265.868	21.67
266.084	21.67
266.3	107.69
266.516	-43.86
266.732	-2.9
266.948	33.96
267.164	99.5
267.38	5.29
267.596	9.39
267.812	29.87
268.028	-7
268.244	42.15
268.46	-29.52
268.676	-15.19
268.892	17.58
269.108	-31.57
269.324	19.63
269.54	-7
269.756	11.43
269.972	-78.68
270.188	23.72
270.403	-41.81
270.619	44.2
270.835	60.59
271.051	33.96
271.267	-37.72
271.483	5.29
271.698	58.54
271.914	44.2
272.13	1.19
272.346	-9.05
272.562	38.06
272.777	-4.95
272.993	1.19
273.209	-35.67
273.425	68.78
273.64	-56.15
273.856	25.77
274.072	87.21
274.287	11.43
274.503	44.2
274.719	-21.33
274.934	-31.57
275.15	9.39
275.366	103.59
275.581	1.19
275.797	27.82
276.012	50.35
276.228	29.87
276.444	13.48
276.659	79.02
276.875	-41.81
277.09	38.06
277.306	81.07
277.521	13.48
277.737	7.34
277.952	27.82
278.168	-66.39
278.383	15.53
278.599	-54.1
278.814	62.63
279.03	27.82
279.245	50.35
279.461	-21.33
279.676	-31.57
279.892	-23.38
280.107	-17.24
280.322	42.15
280.538	54.44
280.753	58.54
280.969	19.63
281.184	40.11
281.399	66.73
281.615	21.67
281.83	72.87
282.045	-9.05
282.26	-19.29
282.476	66.73
282.691	21.67
282.906	-31.57
283.122	-2.9
283.337	58.54
283.552	-27.48
283.767	-2.9
283.983	66.73
284.198	21.67
284.413	19.63
284.628	-37.72
284.843	44.2
285.058	-80.72
285.274	56.49
285.489	-4.95
285.704	9.39
285.919	-60.24
286.134	-7
286.349	5.29
286.564	-4.95
286.779	11.43
286.995	-64.34
287.21	-35.67
287.425	17.58
287.64	3.24
287.855	25.77
288.07	42.15
288.285	93.35
288.5	66.73
288.715	-7
288.93	-4.95
289.145	-2.9
289.36	33.96
289.575	-27.48
289.79	-0.85
290.004	-0.85
290.219	42.15
290.434	58.54
290.649	17.58
290.864	-37.72
291.079	25.77
291.294	107.69
291.509	54.44
291.724	62.63
291.938	3.24
292.153	-19.29
292.368	17.58
292.583	17.58
292.798	68.78
293.012	85.16
293.227	9.39
293.442	66.73
293.657	17.58
293.871	17.58
294.086	95.4
294.301	85.16
294.516	5.29
294.73	-2.9
294.945	21.67
295.16	23.72
295.374	25.77
295.589	25.77
295.804	-11.09
296.018	25.77
296.233	3.24
296.447	74.92
296.662	9.39
296.877	3.24
297.091	3.24
297.306	27.82
297.52	36.01
297.735	-19.29
297.949	23.72
298.164	-9.05
298.378	1.19
298.593	46.25
298.807	-37.72
299.022	74.92
299.236	72.87
299.451	-17.24
299.665	48.3
299.88	83.11
300.094	119.98
300.309	3.24
300.523	-2.9
300.737	-7
300.952	17.58
301.166	29.87
301.381	17.58
301.595	60.59
301.809	-17.24
302.024	52.39
302.238	-88.92
302.452	62.63
302.667	38.06
302.881	13.48
303.095	38.06
303.309	50.35
303.524	44.2
303.738	3.24
303.952	-35.67
304.166	33.96
304.381	-43.86
304.595	68.78
304.809	60.59
305.023	36.01
305.237	-39.76
305.452	23.72
305.666	58.54
305.88	29.87
306.094	3.24
306.308	54.44
306.522	33.96
306.736	48.3
306.95	21.67
307.164	1.19
307.379	58.54
307.593	101.55
307.807	89.26
308.021	76.97
308.235	-13.14
308.449	-15.19
308.663	1.19
308.877	134.31
309.091	9.39
309.305	44.2
309.519	15.53
309.733	31.91
309.947	17.58
310.161	27.82
310.374	17.58
310.588	19.63
310.802	-23.38
311.016	17.58
311.23	17.58
311.444	-50
311.658	-15.19
311.872	87.21
312.085	25.77
312.299	87.21
312.513	83.11
312.727	1.19
312.941	17.58
313.154	33.96
313.368	11.43
313.582	52.39
313.796	-31.57
314.009	54.44
314.223	9.39
314.437	1.19
314.651	-31.57
314.864	17.58
315.078	17.58
315.292	50.35
315.505	-7
315.719	58.54
315.933	36.01
316.146	-31.57
316.36	-31.57
316.573	1.19
316.787	-7
317.001	33.96
317.214	40.11
317.428	13.48
317.641	66.73
317.855	-7
318.068	48.3
318.282	17.58
318.495	21.67
318.709	40.11
318.922	-21.33
319.136	76.97
319.349	68.78
319.563	52.39
319.776	42.15
319.99	21.67
320.203	74.92
320.417	42.15
320.63	27.82
320.843	46.25
321.057	25.77
321.27	3.24
321.483	109.74
321.697	13.48
321.91	-7
322.124	56.49
322.337	9.39
322.55	13.48
322.763	74.92
322.977	31.91
323.19	19.63
323.403	17.58
323.617	46.25
323.83	3.24
324.043	44.2
324.256	58.54
324.469	-0.85
324.683	91.31
324.896	13.48
325.109	1.19
325.322	-72.53
325.535	50.35
325.748	117.93
325.962	23.72
326.175	64.68
326.388	21.67
326.601	-7
326.814	1.19
327.027	11.43
327.24	3.24
327.453	-58.2
327.666	42.15
327.879	99.5
328.092	150.7
328.305	-4.95
328.518	21.67
328.731	-43.86
328.944	27.82
329.157	-35.67
329.37	-35.67
329.583	79.02
329.796	-4.95
330.009	-62.29
330.222	128.17
330.435	31.91
330.648	9.39
330.861	56.49
331.073	3.24
331.286	36.01
331.499	-7
331.712	1.19
331.925	-11.09
332.138	52.39
332.35	109.74
332.563	3.24
332.776	54.44
332.989	9.39
333.202	85.16
333.414	33.96
333.627	66.73
333.84	-31.57
334.053	7.34
334.265	29.87
334.478	1.19
334.691	19.63
334.903	15.53
335.116	19.63
335.329	33.96
335.541	11.43
335.754	25.77
335.966	-15.19
336.179	27.82
336.392	50.35
336.604	-29.52
336.817	31.91
337.029	109.74
337.242	36.01
337.454	64.68
337.667	52.39
337.88	44.2
338.092	-56.15
338.305	19.63
338.517	60.59
338.729	40.11
338.942	58.54
339.154	74.92
339.367	19.63
339.579	58.54
339.792	-37.72
340.004	-35.67
340.217	9.39
340.429	17.58
340.641	1.19
340.854	38.06
341.066	-31.57
341.278	29.87
341.491	79.02
341.703	21.67
341.915	9.39
342.128	83.11
342.34	15.53
342.552	7.34
342.764	15.53
342.977	21.67
343.189	50.35
343.401	-27.48
343.613	44.2
343.826	54.44
344.038	-15.19
344.25	-62.29
344.462	23.72
344.674	3.24
344.886	62.63
345.099	-15.19
345.311	74.92
345.523	17.58
345.735	54.44
345.947	68.78
346.159	7.34
346.371	60.59
346.583	38.06
346.795	122.02
347.007	85.16
347.219	11.43
347.431	25.77
347.643	91.31
347.855	-82.77
348.067	7.34
348.279	-23.38
348.491	58.54
348.703	23.72
348.915	5.29
349.127	113.83
349.339	25.77
349.551	-19.29
349.763	11.43
349.975	19.63
350.187	33.96
350.399	124.07
350.61	99.5
350.822	-45.91
351.034	-4.95
351.246	79.02
351.458	56.49
351.669	50.35
351.881	103.59
352.093	62.63
352.305	29.87
352.517	19.63
352.728	85.16
352.94	-7
353.152	52.39
353.363	62.63
353.575	95.4
353.787	3.24
353.999	29.87
354.21	50.35
354.422	-2.9
354.633	-13.14
354.845	21.67
355.057	5.29
355.268	64.68
355.48	29.87
355.692	11.43
355.903	-31.57
356.115	9.39
356.326	-2.9
356.538	60.59
356.749	29.87
356.961	103.59
357.172	33.96
357.384	56.49
357.595	91.31
357.807	95.4
358.018	-43.86
358.23	70.83
358.441	79.02
358.653	60.59
358.864	17.58
359.075	3.24
359.287	19.63
359.498	62.63
359.709	25.77
359.921	33.96
360.132	29.87
360.344	1.19
360.555	7.34
360.766	-37.72
360.977	-7
361.189	25.77
361.4	-31.57
361.611	74.92
361.823	113.83
362.034	3.24
362.245	-25.43
362.456	25.77
362.667	-47.96
362.879	50.35
363.09	74.92
363.301	29.87
363.512	-45.91
363.723	-27.48
363.935	-0.85
364.146	91.31
364.357	11.43
364.568	54.44
364.779	3.24
364.99	74.92
365.201	17.58
365.412	19.63
365.623	25.77
365.834	58.54
366.045	38.06
366.256	38.06
366.467	95.4
366.678	31.91
366.889	-21.33
367.1	62.63
367.311	29.87
367.522	21.67
367.733	44.2
367.944	50.35
368.155	21.67
368.366	50.35
368.577	91.31
368.788	46.25
368.999	-23.38
369.209	72.87
369.42	29.87
369.631	25.77
369.842	42.15
370.053	5.29
370.264	21.67
370.474	1.19
370.685	-27.48
370.896	50.35
371.107	79.02
371.317	70.83
371.528	42.15
371.739	11.43
371.95	17.58
372.16	-37.72
372.371	70.83
372.582	3.24
372.792	83.11
373.003	50.35
373.214	83.11
373.424	9.39
373.635	-31.57
373.846	70.83
374.056	99.5
374.267	103.59
374.477	95.4
374.688	-11.09
374.898	44.2
375.109	33.96
375.319	-23.38
375.53	-11.09
375.74	-4.95
375.951	17.58
376.161	60.59
376.372	50.35
376.582	74.92
376.793	1.19
377.003	-13.14
377.214	5.29
377.424	9.39
377.635	1.19
377.845	-31.57
378.055	76.97
378.266	13.48
378.476	60.59
378.686	-2.9
378.897	68.78
379.107	87.21
379.317	17.58
379.528	70.83
379.738	83.11
379.948	-47.96
380.158	-43.86
380.369	36.01
380.579	29.87
380.789	-80.72
380.999	76.97
381.21	79.02
381.42	99.5
381.63	33.96
381.84	124.07
382.05	27.82
382.261	31.91
382.471	52.39
382.681	72.87
382.891	99.5
383.101	50.35
383.311	52.39
383.521	36.01
383.731	29.87
383.941	68.78
384.151	81.07
384.361	74.92
384.571	36.01
384.781	3.24
384.991	93.35
385.201	66.73
385.411	17.58
385.621	95.4
385.831	42.15
386.041	74.92
386.251	36.01
386.461	11.43
386.671	9.39
386.881	36.01
387.091	15.53
387.301	-2.9
387.511	46.25
387.72	115.88
387.93	33.96
388.14	66.73
388.35	-2.9
388.56	17.58
388.769	74.92
388.979	27.82
389.189	15.53
389.399	95.4
389.609	29.87
389.818	50.35
390.028	13.48
390.238	58.54
390.447	-0.85
390.657	83.11
390.867	74.92
391.076	9.39
391.286	25.77
391.496	83.11
391.705	97.45
391.915	64.68
392.125	183.46
392.334	17.58
392.544	25.77
392.753	85.16
392.963	40.11
393.172	42.15
393.382	27.82
393.591	109.74
393.801	48.3
394.01	91.31
394.22	42.15
394.429	42.15
394.639	83.11
394.848	66.73
395.058	74.92
395.267	-17.24
395.477	74.92
395.686	72.87
395.895	107.69
396.105	76.97
396.314	25.77
396.524	44.2
396.733	21.67
396.942	91.31
397.152	107.69
397.361	50.35
397.57	42.15
397.78	93.35
397.989	27.82
398.198	138.41
398.407	15.53
398.617	-4.95
398.826	66.73
399.035	56.49
399.244	79.02
399.453	-21.33
399.663	74.92
399.872	109.74
400.081	-21.33
400.29	122.02
400.499	105.64
400.708	148.65
400.917	91.31
401.127	27.82
401.336	113.83
401.545	169.13
401.754	179.37
401.963	60.59
402.172	95.4
402.381	83.11
402.59	25.77
402.799	64.68
403.008	124.07
403.217	117.93
403.426	66.73
403.635	173.22
403.844	165.03
404.053	33.96
404.262	83.11
404.471	208.04
404.68	99.5
404.888	152.74
405.097	83.11
405.306	134.31
405.515	105.64
405.724	124.07
405.933	113.83
406.142	134.31
406.35	173.22
406.559	74.92
406.768	107.69
406.977	205.99
407.185	197.8
407.394	222.38
407.603	62.63
407.812	140.46
408.02	142.5
408.229	167.08
408.438	189.61
408.646	167.08
408.855	234.66
409.064	169.13
409.272	201.9
409.481	162.98
409.69	216.23
409.898	134.31
410.107	232.62
410.315	298.15
410.524	199.85
410.733	271.53
410.941	210.09
411.15	296.1
411.358	236.71
411.567	238.76
411.775	257.19
411.984	226.47
412.192	345.25
412.401	289.96
412.609	353.45
412.818	353.45
413.026	339.11
413.234	306.34
413.443	349.35
413.651	392.36
413.86	369.83
414.068	427.17
414.276	457.89
414.485	447.65
414.693	418.98
414.901	515.23
415.11	461.99
415.318	447.65
415.526	494.76
415.734	500.9
415.943	611.49
416.151	644.26
416.359	613.54
416.567	648.35
416.776	591.01
416.984	693.41
417.192	728.22
417.4	644.26
417.608	701.6
417.817	742.56
418.025	742.56
418.233	814.24
418.441	857.25
418.649	808.09
418.857	906.4
419.065	926.88
419.273	824.48
419.481	1041.56
419.689	1027.23
419.897	1135.77
420.105	1090.71
420.313	1109.15
420.521	1225.88
420.729	1172.63
420.937	1152.15
421.145	1275.03
421.353	1281.18
421.561	1393.81
421.769	1315.99
421.977	1483.92
422.185	1451.16
422.393	1528.98
422.601	1705.1
422.809	1598.61
423.017	1574.03
423.224	1762.45
423.432	1762.45
423.64	1811.6
423.848	1967.24
424.056	1864.85
424.263	2012.3
424.471	2110.6
424.679	2159.75
424.887	2131.08
425.094	2323.59
425.302	2174.09
425.51	2331.78
425.718	2393.22
425.925	2428.04
426.133	2479.24
426.341	2624.64
426.548	2772.1
426.756	2729.09
426.964	2788.48
427.171	2989.18
427.379	3050.62
427.586	3048.57
427.794	3239.03
428.001	3368.06
428.209	3447.93
428.417	3509.37
428.624	3785.84
428.832	3601.52
429.039	3630.2
429.247	3650.67
429.454	3906.67
429.662	4183.15
429.869	4035.69
430.076	4224.11
430.284	4236.39
430.491	4236.39
430.699	4660.32
430.906	4658.28
431.114	4555.88
431.321	4838.5
431.528	4947.04
431.736	5065.82
431.943	5612.63
432.15	5147.74
432.358	5473.37
432.565	5571.67
432.772	5712.98
432.979	5852.24
433.187	5917.78
433.394	5964.88
433.601	6491.21
433.808	6397
434.016	6366.28
434.223	6691.91
434.43	7070.78
434.637	7001.15
434.844	7390.27
435.052	7539.77
435.259	7580.73
435.466	7660.6
435.673	7490.62
435.88	8016.94
436.087	8383.53
436.294	8338.48
436.501	8133.68
436.708	8047.66
436.915	8639.53
437.122	9053.22
437.329	9102.37
437.537	9370.65
437.743	9497.63
437.95	9264.16
438.157	9747.48
438.364	10089.49
438.571	10124.3
438.778	10298.38
438.985	11224.06
439.192	10812.42
439.399	11103.23
439.606	10832.9
439.813	11392
440.02	12071.92
440.227	11783.16
440.433	11738.1
440.64	12192.75
440.847	11924.47
441.054	12289.01
441.261	13200.35
441.467	13140.96
441.674	13093.86
441.881	13818.84
442.088	13743.06
442.294	13646.81
442.501	13845.46
442.708	14210
442.914	14805.96
443.121	15180.74
443.328	14930.89
443.534	15997.88
443.741	15254.47
443.948	15281.09
444.154	16364.46
444.361	16288.69
444.568	16436.14
444.774	16346.03
444.981	16466.86
445.187	17284
445.394	17810.33
445.6	17675.16
445.807	19360.64
446.013	18604.94
446.22	18824.08
446.426	19436.42
446.633	19698.56
446.839	20341.62
447.046	19430.27
447.252	20822.89
447.459	20802.41
447.665	20925.29
447.871	21558.11
448.078	22422.36
448.284	21633.89
448.491	21916.51
448.697	22928.2
448.903	23429.96
449.11	23194.44
449.316	23112.52
449.522	23284.55
449.728	24410.93
449.935	24367.93
450.141	24197.95
450.347	24763.18
450.553	23989.05
450.76	24394.55
450.966	25256.75
451.172	24967.98
451.378	25727.78
451.584	24955.69
451.791	26086.17
451.997	25525.03
452.203	26184.48
452.409	26252.06
452.615	25793.31
452.821	24957.74
453.027	25060.14
453.233	26129.18
453.44	25309.99
453.646	25514.79
453.852	25563.94
454.058	25916.19
454.264	25434.92
454.47	25752.35
454.676	25150.25
454.882	26170.14
455.088	23845.69
455.294	24380.21
455.5	24499
455.705	25119.53
455.911	23626.56
456.117	23712.58
456.323	22958.92
456.529	21676.9
456.735	23311.17
456.941	22088.54
457.147	22027.1
457.352	21351.27
457.558	21377.89
457.764	21381.99
457.97	21054.31
458.176	20224.89
458.381	20300.66
458.587	19592.06
458.793	19499.91
458.999	18416.53
459.204	19843.96
459.41	19213.19
459.616	18045.85
459.821	18078.61
460.027	18119.57
460.233	17593.25
460.438	16737.2
460.644	17058.73
460.85	16188.34
461.055	15813.56
461.261	15901.62
461.466	14642.12
461.672	14203.86
461.878	15172.55
462.083	14320.59
462.289	14132.18
462.494	13851.61
462.7	13210.59
462.905	12954.6
463.111	13487.07
463.316	13341.66
463.522	13222.88
463.727	13059.04
463.932	13044.71
464.138	13186.02
464.343	12983.27
464.549	12633.07
464.754	12917.73
464.959	12911.59
465.165	12729.32
465.37	12217.33
465.575	11981.81
465.781	12366.83
465.986	12381.17
466.191	11996.15
466.397	11903.99
466.602	11183.1
466.807	11551.74
467.012	11717.62
467.218	11627.51
467.423	11371.52
467.628	11451.39
467.833	11686.9
468.038	11461.63
468.244	11119.62
468.449	11650.04
468.654	11283.45
468.859	11324.41
469.064	11064.32
469.269	10755.08
469.474	10720.26
469.679	11142.14
469.885	10710.02
470.09	10873.86
470.295	10837
470.5	10529.8
470.705	10673.16
470.91	10478.6
471.115	10368.01
471.32	10316.81
471.525	10370.06
471.73	10089.49
471.935	9931.8
472.139	9692.18
472.344	9798.68
472.549	9661.46
472.754	9741.33
472.959	9458.71
473.164	9120.8
473.369	9061.41
473.574	9520.15
473.778	9356.32
473.983	9270.3
474.188	9313.31
474.393	8815.65
474.598	8901.67
474.802	8905.76
475.007	8584.23
475.212	8889.38
475.417	8541.22
475.621	8514.6
475.826	8391.72
476.031	8389.67
476.235	8186.93
476.44	8311.85
476.645	8070.19
476.849	8176.69
477.054	7971.89
477.259	7947.31
477.463	7910.45
477.668	7777.33
477.872	7867.44
478.077	7513.14
478.282	7402.55
478.486	7466.04
478.691	7556.15
478.895	7547.96
479.1	7390.27
479.304	7248.96
479.509	7128.13
479.713	7388.22
479.918	7150.65
480.122	6972.48
480.326	7038.02
480.531	7236.67
480.735	7056.45
480.94	6999.1
481.144	7236.67
481.348	6874.18
481.553	6939.71
481.757	6571.08
481.961	6915.14
482.166	6945.86
482.37	6884.42
482.574	6741.06
482.778	6759.49
482.983	6882.37
483.187	6630.47
483.391	6849.6
483.595	6669.38
483.8	6743.11
484.004	6751.3
484.208	6915.14
484.412	6640.71
484.616	6773.83
484.821	6698.05
485.025	6640.71
485.229	6802.5
485.433	6646.85
485.637	6726.72
485.841	6571.08
486.045	6759.49
486.249	6786.12
486.453	6663.24
486.657	6636.61
486.861	6798.4
487.065	6646.85
487.269	6609.99
487.473	6587.46
487.677	6886.47
487.881	6814.79
488.085	6884.42
488.289	6771.78
488.493	6804.55
488.697	6874.18
488.901	6685.76
489.105	6693.96
489.309	6804.55
489.512	6931.52
489.716	6947.9
489.92	6851.65
490.124	6952
490.328	6853.7
490.531	6972.48
490.735	7050.3
490.939	6988.86
491.143	6906.95
491.346	6888.51
491.55	7205.95
491.754	6964.29
491.958	7128.13
492.161	6976.58
492.365	7081.02
492.569	7193.66
492.772	7197.76
492.976	7189.56
493.18	7226.43
493.383	7285.82
493.587	7179.33
493.79	7369.79
493.994	7328.83
494.197	7437.37
494.401	7496.76
494.605	7277.63
494.808	7676.98
495.012	7570.49
495.215	7621.69
495.419	7859.25
495.622	7869.49
495.825	7853.11
496.029	7865.39
496.232	8055.86
496.436	8012.85
496.639	8139.82
496.843	8141.87
497.046	8285.23
497.249	8426.54
497.453	8467.5
497.656	8518.7
497.859	8502.31
498.063	8700.97
498.266	8750.12
498.469	8930.34
498.673	8643.62
498.876	9135.14
499.079	8950.82
499.282	9073.7
499.485	9266.21
499.689	9315.36
499.892	9255.97
500.095	9522.2
500.298	9681.94
500.501	9552.92
500.705	9929.75
500.908	9923.6
501.111	9937.94
501.314	10267.66
501.517	10271.76
501.72	10554.38
501.923	10417.16
502.126	10607.62
502.329	10406.92
502.532	10630.15
502.735	10892.29
502.938	11084.8
503.141	11148.29
503.344	11265.02
503.547	11342.85
503.75	11686.9
503.953	11748.34
504.156	11746.3
504.359	11934.71
504.562	11807.73
504.765	12217.33
504.968	12514.28
505.17	12399.6
505.373	12364.78
505.576	12608.49
505.779	12872.68
505.982	12805.1
506.185	13165.54
506.387	13089.76
506.59	13124.58
506.793	13495.26
506.996	13669.34
507.198	13943.77
507.401	13792.22
507.604	14031.83
507.807	14160.85
508.009	14615.5
508.212	14529.48
508.415	14615.5
508.617	14709.71
508.82	14930.89
509.022	14916.55
509.225	15236.03
509.428	15465.41
509.63	15526.85
509.833	15518.65
510.035	16290.74
510.238	15903.67
510.44	15948.73
510.643	16376.75
510.845	16655.28
511.048	16524.21
511.25	16722.86
511.453	16792.49
511.655	17324.96
511.858	17083.3
512.06	17355.68
512.262	17413.02
512.465	17425.31
512.667	17918.87
512.87	18140.05
513.072	18031.51
513.274	18639.76
513.477	18482.06
513.679	18781.07
513.881	18670.48
514.084	19110.79
514.286	19284.87
514.488	19159.94
514.69	20046.71
514.893	19872.64
515.095	20089.72
515.297	20222.84
515.499	20382.58
515.701	20546.42
515.904	20816.75
516.106	21119.85
516.308	21076.84
516.51	21386.08
516.712	21386.08
516.914	21781.34
517.116	22154.07
517.318	21975.9
517.52	22215.51
517.722	22160.22
517.925	22569.81
518.127	22827.85
518.329	22831.95
518.531	22987.6
518.733	23415.62
518.935	23692.1
519.136	24083.26
519.338	24120.12
519.54	24386.36
519.742	24470.33
519.944	24390.45
520.146	24898.35
520.348	24828.72
520.55	25101.1
520.752	25148.2
520.954	25514.79
521.155	25580.32
521.357	25893.66
521.559	26039.07
521.761	26213.15
521.963	26233.63
522.164	26546.97
522.366	26868.5
522.568	26917.65
522.77	27067.15
522.971	27548.42
523.173	27548.42
523.375	27564.81
523.576	27466.5
523.778	27734.79
523.98	27986.69
524.181	28416.76
524.383	28306.17
524.584	28744.44
524.786	28842.74
524.988	28283.64
525.189	28558.07
525.391	29205.23
525.592	29385.45
525.794	29491.94
525.995	29358.83
526.197	29455.08
526.398	29389.55
526.6	30098.14
526.801	29780.71
527.003	30124.77
527.204	30024.42
527.406	30130.91
527.607	30391
527.808	30630.62
528.01	30014.18
528.211	30493.4
528.412	31062.74
528.614	31027.92
528.815	30859.99
529.016	31359.69
529.218	30946
529.419	31281.87
529.62	31101.65
529.822	31027.92
530.023	31242.96
530.224	31251.15
530.425	31253.2
530.626	31185.61
530.828	31058.64
531.029	31742.66
531.23	31912.64
531.431	31670.98
531.632	31816.39
531.833	31775.43
532.035	31314.64
532.236	32070.34
532.437	31863.49
532.638	31775.43
532.839	31994.56
533.04	31904.45
533.241	31404.75
533.442	32002.75
533.643	31853.25
533.844	31838.92
534.045	31992.51
534.246	31720.13
534.447	32105.15
534.648	31982.27
534.849	32199.36
535.05	32004.8
535.251	32217.79
535.451	31752.9
535.652	32150.21
535.853	31847.11
536.054	32277.18
536.255	32508.6
536.456	31871.68
536.657	32518.84
536.857	32215.74
537.058	32148.16
537.259	32180.93
537.46	32477.88
537.66	32056
537.861	32010.95
538.062	32125.63
538.263	32309.95
538.463	32221.89
538.664	31912.64
538.865	32238.27
539.065	32105.15
539.266	31802.05
539.466	32596.67
539.667	31808.2
539.868	32383.68
540.068	32088.77
540.269	31943.36
540.469	32412.35
540.67	31646.41
540.87	32318.14
541.071	32015.04
541.271	32096.96
541.472	32142.02
541.672	31716.04
541.873	31820.49
542.073	31474.38
542.274	31992.51
542.474	32088.77
542.675	31736.52
542.875	32236.22
543.075	31742.66
543.276	31601.35
543.476	32035.52
543.676	31765.19
543.877	32162.5
544.077	31918.79
544.277	31759.05
544.478	31937.22
544.678	32135.87
544.878	31523.53
545.078	31800.01
545.279	31668.94
545.479	31980.23
545.679	32125.63
545.879	31597.26
546.079	31920.84
546.28	31861.44
546.48	31883.97
546.68	31982.27
546.88	31572.68
547.08	32152.26
547.28	31949.51
547.48	31277.77
547.68	31869.64
547.88	31613.64
548.081	31599.3
548.281	31857.35
548.481	31716.04
548.681	31845.06
548.881	31607.5
549.081	31754.95
549.28	31414.99
549.48	31597.26
549.68	31386.32
549.88	32277.18
550.08	31589.06
550.28	31685.32
550.48	31414.99
550.68	31959.75
550.88	31326.92
551.08	31462.09
551.279	31584.97
551.479	31187.66
551.679	31406.8
551.879	31609.54
552.079	31687.37
552.278	31421.13
552.478	31314.64
552.678	31038.16
552.878	31871.68
553.077	31306.44
553.277	31382.22
553.477	31750.85
553.676	31302.35
553.876	31417.04
554.076	31253.2
554.275	31099.6
554.475	31195.85
554.674	30767.83
554.874	31398.6
555.074	30925.52
555.273	31343.31
555.473	31425.23
555.672	31148.75
555.872	30929.62
556.071	30962.39
556.271	31185.61
556.47	30972.63
556.67	30763.73
556.869	31288.01
557.068	30939.86
557.268	30477.02
557.467	30685.91
557.667	30778.07
557.866	31109.84
558.065	30903
558.265	30401.24
558.464	30558.94
558.663	31048.4
558.863	30470.87
559.062	30837.46
559.261	30278.36
559.461	30470.87
559.66	30126.81
559.859	30436.06
560.058	30026.46
560.258	30153.44
560.457	30018.27
560.656	30192.35
560.855	30208.73
561.054	30380.76
561.253	29842.15
561.453	30100.19
561.652	30264.03
561.851	30237.41
562.05	30175.97
562.249	29922.02
562.448	30008.03
562.647	29663.97
562.846	29639.4
563.045	30399.19
563.244	29473.51
563.443	29887.2
563.642	29143.79
563.841	29356.78
564.04	29166.32
564.239	29946.59
564.438	29209.32
564.637	29348.59
564.836	29358.83
565.035	28889.84
565.234	29238
565.432	29016.82
565.631	28752.63
565.83	29272.81
566.029	28947.18
566.228	28689.14
566.427	28865.27
566.625	28556.02
566.824	28496.63
567.023	29108.97
567.222	28244.73
567.42	28611.32
567.619	28748.53
567.818	28766.96
568.016	28310.27
568.215	28455.67
568.414	28388.09
568.612	28252.92
568.811	27982.59
569.01	28019.46
569.208	27568.9
569.407	28027.65
569.605	27861.76
569.804	27847.43
570.002	27843.33
570.201	27781.89
570.4	27745.03
570.598	27456.26
570.797	27532.04
570.995	27419.4
571.193	27286.28
571.392	27597.57
571.59	27269.9
571.789	27271.95
571.987	27245.32
572.186	26886.93
572.384	26950.42
572.582	26811.15
572.781	27091.73
572.979	26229.53
573.177	26878.74
573.376	26897.17
573.574	26762
573.772	26641.17
573.971	26366.74
574.169	26329.88
574.367	26293.02
574.565	26217.24
574.763	26395.42
574.962	26434.33
575.16	25981.73
575.358	26073.88
575.556	25678.63
575.754	25920.29
575.952	25758.5
576.151	25971.49
576.349	25557.8
576.547	25725.73
576.745	25713.44
576.943	25574.18
577.141	25545.51
577.339	25453.35
577.537	25062.19
577.735	25396.01
577.933	24818.48
578.131	25324.33
578.329	25129.77
578.527	24898.35
578.725	24941.36
578.923	25047.85
579.121	24910.64
579.319	24798
579.516	24937.26
579.714	24552.24
579.912	24527.67
580.11	24601.4
580.308	24607.54
580.506	24292.15
580.704	23989.05
580.901	24163.13
581.099	24265.53
581.297	23923.52
581.495	23952.19
581.692	24142.65
581.89	23767.87
582.088	24034.11
582.285	23814.98
582.483	23993.15
582.681	23849.79
582.878	23675.71
583.076	23450.44
583.274	23616.32
583.471	23243.59
583.669	23446.34
583.866	23354.18
584.064	23122.76
584.262	23157.58
584.459	23325.51
584.657	22846.29
584.854	23257.93
585.052	22803.28
585.249	23049.03
585.447	23087.95
585.644	22555.47
585.841	22850.38
586.039	22889.29
586.236	22420.31
586.434	22608.72
586.631	22555.47
586.828	22127.45
587.026	22584.15
587.223	22358.87
587.42	22235.99
587.618	22074.2
587.815	21787.49
588.012	22119.26
588.21	21810.01
588.407	21969.76
588.604	21947.23
588.801	21642.08
588.999	21783.39
589.196	21705.57
589.393	21650.27
589.59	21406.56
589.787	21347.17
589.984	21537.63
590.182	21275.49
590.379	21605.22
590.576	21148.52
590.773	21490.53
590.97	20915.05
591.167	21289.83
591.364	20669.3
591.561	21042.03
591.758	21005.16
591.955	20736.88
592.152	20951.91
592.349	20818.8
592.546	20777.84
592.743	20843.37
592.94	20491.12
593.137	20722.54
593.334	20624.24
593.531	20511.6
593.727	20509.55
593.924	20550.51
594.121	20011.9
594.318	20515.7
594.515	20005.75
594.712	20126.58
594.908	19891.07
595.105	19952.51
595.302	19747.71
595.499	19618.69
595.696	19870.59
595.892	19514.24
596.089	19260.29
596.286	19485.57
596.482	19712.89
596.679	19420.03
596.876	19739.52
597.072	19215.24
597.269	19235.72
597.466	19172.23
597.662	19037.06
597.859	19497.86
598.055	19049.35
598.252	18834.32
598.448	19057.54
598.645	18860.94
598.841	18502.54
599.038	18764.68
599.234	18842.51
599.431	18650
599.627	18619.28
599.824	18801.55
600.02	18568.08
600.217	18537.36
600.413	18506.64
600.609	18357.14
600.806	18480.02
601.002	18174.87
601.198	18310.04
601.395	18185.11
601.591	18154.39
601.787	17922.97
601.984	17898.39
602.18	18332.56
602.376	17785.76
602.572	17943.45
602.769	17611.68
602.965	17687.45
603.161	17718.17
603.357	17437.6
603.553	17386.4
603.75	17556.38
603.946	17693.6
604.142	17417.12
604.338	17406.88
604.534	17337.25
604.73	17296.29
604.926	17355.68
605.122	17247.14
605.318	17200.04
605.514	16960.42
605.71	16855.98
605.906	16876.46
606.102	16763.82
606.298	17124.26
606.494	16675.76
606.69	16810.92
606.886	16735.15
607.082	16491.44
607.278	16497.58
607.474	16401.33
607.67	16843.69
607.866	16163.76
608.062	16509.87
608.257	16331.7
608.453	16270.26
608.649	16518.06
608.845	16200.63
609.041	16370.61
609.236	16284.59
609.432	16217.01
609.628	16466.86
609.824	16053.17
610.019	16094.13
610.215	16405.42
610.411	16241.59
610.606	15895.48
610.802	15979.45
610.998	16083.89
611.193	15868.86
611.389	15819.71
611.584	15778.75
611.78	15584.19
611.976	15860.66
612.171	15690.68
612.367	15643.58
612.562	15381.44
612.758	15483.84
612.953	15360.96
613.149	15549.37
613.344	15412.16
613.539	15662.01
613.735	15453.12
613.93	15276.99
614.126	15475.65
614.321	15281.09
614.517	15410.11
614.712	15391.68
614.907	15293.38
615.103	15463.36
615.298	15317.95
615.493	15451.07
615.688	15147.97
615.884	15416.26
616.079	14959.56
616.274	14975.94
616.47	15018.95
616.665	15035.33
616.86	14984.13
617.055	14771.15
617.25	14797.77
617.445	14914.5
617.641	14681.03
617.836	14965.7
618.031	14484.43
618.226	14810.06
618.421	14488.53
618.616	14676.94
618.811	14373.84
619.006	14771.15
619.201	14117.84
619.396	14339.02
619.591	14224.34
619.786	14382.03
619.981	14050.26
620.176	14158.8
620.371	13919.19
620.566	13962.2
620.761	13935.57
620.956	14019.54
621.151	13779.93
621.346	13966.29
621.541	13755.35
621.735	13685.72
621.93	13358.05
622.125	13640.67
622.32	13140.96
622.515	13466.59
622.709	13276.13
622.904	13243.36
623.099	13124.58
623.294	13333.47
623.488	12819.43
623.683	12989.41
623.878	12901.35
624.072	12897.25
624.267	12778.47
624.462	12807.14
624.656	12649.45
624.851	12794.86
625.046	12452.84
625.24	12344.3
625.435	12289.01
625.629	12534.76
625.824	12258.29
626.018	12182.51
626.213	12239.86
626.407	12047.35
626.602	12063.73
626.796	12110.83
626.991	11883.51
627.185	11779.06
627.38	11631.61
627.574	11631.61
627.768	11631.61
627.963	11447.29
628.157	11539.45
628.352	11473.92
628.546	11377.66
628.74	11578.36
628.935	11246.59
629.129	11150.34
629.323	10994.69
629.517	11125.76
629.712	10970.12
629.906	10947.59
630.1	10894.34
630.294	10923.01
630.489	10814.47
630.683	10767.37
630.877	10855.43
631.071	10753.03
631.265	10601.48
631.459	10374.16
631.653	10394.64
631.848	10300.43
632.042	10308.62
632.236	10292.24
632.43	10275.85
632.624	10380.3
632.818	10159.12
633.012	10171.41
633.206	10146.83
633.4	10007.57
633.594	9630.74
633.788	9839.64
633.982	9948.18
634.176	9679.89
634.369	9821.2
634.563	9557.02
634.757	9602.07
634.951	9597.98
635.145	9679.89
635.339	9499.67
635.533	9391.13
635.726	9554.97
635.92	9282.59
636.114	9362.46
636.308	9268.25
636.501	9143.33
636.695	9159.71
636.889	8967.2
637.083	9034.78
637.276	8848.42
637.47	8963.11
637.664	8793.12
637.857	9022.5
638.051	8834.08
638.244	8741.93
638.438	8801.32
638.632	8612.9
638.825	8643.62
639.019	8520.74
639.212	8483.88
639.406	8440.87
639.599	8430.63
639.793	8465.45
639.986	8188.97
640.18	8348.72
640.373	8283.18
640.567	8102.96
640.76	8070.19
640.954	8283.18
641.147	7992.37
641.34	7973.94
641.534	8133.68
641.727	8145.97
641.92	8059.95
642.114	7875.63
642.307	7795.76
642.5	7685.17
642.694	7742.52
642.887	7803.96
643.08	7687.22
643.273	7631.93
643.467	7648.31
643.66	7703.61
643.853	7562.3
644.046	7441.47
644.239	7418.94
644.432	7185.47
644.626	7312.44
644.819	7283.77
645.012	7222.33
645.205	7251
645.398	7310.4
645.591	7058.49
645.784	7144.51
645.977	6931.52
646.17	7199.8
646.363	6997.06
646.556	6904.9
646.749	6941.76
646.942	6900.8
647.135	6747.2
647.328	6880.32
647.521	6841.41
647.714	6530.12
647.907	6779.97
648.099	6548.55
648.292	6458.44
648.485	6620.23
648.678	6358.09
648.871	6704.2
649.064	6456.39
649.256	6628.42
649.449	6319.18
649.642	6280.27
649.835	6196.3
650.027	6116.43
650.22	6278.22
650.413	6210.64
650.605	6145.1
650.798	6181.96
650.991	6218.83
651.183	6030.41
651.376	6093.9
651.568	5989.46
651.761	5964.88
651.954	6114.38
652.146	5825.62
652.339	5874.77
652.531	5866.58
652.724	5784.66
652.916	5753.94
653.109	5772.37
653.301	5782.61
653.494	5647.44
653.686	5698.64
653.879	5715.03
654.071	5653.59
654.263	5571.67
654.456	5624.92
654.648	5538.9
654.84	5456.98
655.033	5461.08
655.225	5450.84
655.417	5389.4
655.61	5604.44
655.802	5334.11
655.994	5248.09
656.186	5395.54
656.379	5424.22
656.571	5135.45
656.763	5227.61
656.955	5055.58
657.148	5268.57
657.34	5082.21
657.532	5055.58
657.724	5026.91
657.916	5022.81
658.108	5096.54
658.3	5125.21
658.492	5106.78
658.684	4936.8
658.876	4979.81
659.068	4908.13
659.26	4793.44
659.452	4834.4
659.644	4836.45
659.836	4861.02
660.028	4805.73
660.22	4766.82
660.412	4748.39
660.604	4666.47
660.796	4725.86
660.988	4572.26
661.18	4723.81
661.372	4570.21
661.563	4533.35
661.755	4574.31
661.947	4588.64
662.139	4576.36
662.331	4484.2
662.522	4543.59
662.714	4398.18
662.906	4357.22
663.097	4375.66
663.289	4332.65
663.481	4396.14
663.673	4353.13
663.864	4379.75
664.056	4334.7
664.247	4189.29
664.439	4076.65
664.631	4185.19
664.822	4181.1
665.014	4150.38
665.205	4090.99
665.397	3990.64
665.588	4080.75
665.78	4027.5
665.971	4027.5
666.163	3896.43
666.354	3959.92
666.546	3896.43
666.737	4009.07
666.929	3959.92
667.12	3763.31
667.311	3820.66
667.503	3906.67
667.694	3884.14
667.885	3808.37
668.077	3736.69
668.268	3667.06
668.459	3730.55
668.651	3679.35
668.842	3720.31
669.033	3673.2
669.224	3665.01
669.416	3744.88
669.607	3638.39
669.798	3636.34
669.989	3681.39
670.18	3777.65
670.371	3589.24
670.563	3656.82
670.754	3581.04
670.945	3679.35
671.136	3384.44
671.327	3601.52
671.518	3466.36
671.709	3503.22
671.9	3581.04
672.091	3572.85
672.282	3449.97
672.473	3449.97
672.664	3376.25
672.855	3482.74
673.046	3482.74
673.237	3441.78
673.428	3449.97
673.619	3351.67
673.809	3449.97
674	3304.57
674.191	3204.22
674.382	3335.29
674.573	3191.93
674.764	3228.79
674.954	3255.42
675.145	3130.49
675.336	3253.37
675.527	3296.38
675.717	3236.99
675.908	3279.99
676.099	3150.97
676.289	3257.46
676.48	3181.69
676.671	3085.44
676.861	3175.55
677.052	3267.7
677.243	3024
677.433	3017.85
677.624	3153.02
677.814	3091.58
678.005	3028.09
678.195	3175.55
678.386	2925.69
678.576	3005.56
678.767	3067
678.957	3067
679.148	2890.88
679.338	3081.34
679.529	2993.28
679.719	3099.77
679.909	2888.83
680.1	2980.99
680.29	3019.9
680.481	2966.65
680.671	2868.35
680.861	2978.94
681.052	2927.74
681.242	2987.13
681.432	2929.79
681.622	2884.73
681.813	2925.69
682.003	2851.97
682.193	2884.73
682.383	2829.44
682.573	2808.96
682.764	2884.73
682.954	2854.02
683.144	2872.45
683.334	2770.05
683.524	2802.82
683.714	2876.54
683.904	2841.73
684.094	2790.53
684.284	2806.91
684.474	2729.09
684.664	2692.23
684.854	2813.06
685.044	2825.34
685.234	2819.2
685.424	2761.86
685.614	2673.79
685.804	2780.29
685.994	2737.28
686.184	2770.05
686.374	2770.05
686.564	2671.75
686.753	2794.62
686.943	2694.27
687.133	2796.67
687.323	2579.59
687.513	2602.11
687.702	2606.21
687.892	2708.61
688.082	2638.98
688.272	2620.55
688.461	2546.82
688.651	2509.96
688.841	2503.81
689.03	2614.4
689.22	2536.58
689.41	2485.38
689.599	2458.76
689.789	2571.4
689.979	2507.91
690.168	2466.95
690.358	2444.42
690.547	2499.72
690.737	2450.57
690.926	2587.78
691.116	2362.5
691.305	2477.19
691.495	2430.09
691.684	2305.16
691.874	2309.26
692.063	2380.93
692.252	2335.88
692.442	2446.47
692.631	2323.59
692.82	2413.7
693.01	2421.89
693.199	2286.73
693.388	2239.62
693.578	2305.16
693.767	2376.84
693.956	2167.95
694.146	2278.54
694.335	2188.43
694.524	2329.74
694.713	2243.72
694.902	2223.24
695.092	2258.06
695.281	2174.09
695.47	2180.23
695.659	2251.91
695.848	2153.61
696.037	2253.96
696.226	2182.28
696.415	2102.41
696.604	2253.96
696.793	2112.65
696.982	2188.43
697.171	2163.85
697.36	2034.83
697.549	2176.14
697.738	2065.55
697.927	2149.51
698.116	2049.16
698.305	2092.17
698.494	2061.45
698.683	2165.9
698.872	2231.43
699.061	2120.84
699.25	1967.24
699.438	2067.6
699.627	1942.67
699.816	2176.14
700.005	2094.22
700.193	2073.74
700.382	2147.47
700.571	2008.2
700.76	2057.36
700.948	2053.26
701.137	2092.17
701.326	2024.59
701.514	2016.4
701.703	2065.55
701.892	2000.01
702.08	2055.31
702.269	2004.11
702.457	2016.4
702.646	1975.44
702.834	1918.09
703.023	1950.86
703.212	2051.21
703.4	2040.97
703.589	1985.68
703.777	2067.6
703.965	1920.14
704.154	2028.68
704.342	1991.82
704.531	2145.42
704.719	1936.53
704.907	1922.19
705.096	2073.74
705.284	2002.06
705.472	2086.03
705.661	1944.72
705.849	1950.86
706.037	2088.07
706.226	2026.64
706.414	1961.1
706.602	1926.29
706.79	2081.93
706.979	1961.1
707.167	2067.6
707.355	1967.24
707.543	1909.9
707.731	2020.49
707.919	1995.92
708.107	1926.29
708.296	1909.9
708.484	1899.66
708.672	2026.64
708.86	2020.49
709.048	1897.61
709.236	1909.9
709.424	1938.57
709.612	1993.87
709.8	1922.19
709.988	2051.21
710.176	2008.2
710.364	2036.88
710.551	2018.44
710.739	2049.16
710.927	2000.01
711.115	1952.91
711.303	2036.88
711.491	1991.82
711.679	1971.34
711.866	1909.9
712.054	2008.2
712.242	1881.23
712.43	1957
712.617	1967.24
712.805	1967.24
712.993	1836.17
713.181	1830.03
713.368	1928.33
713.556	2000.01
713.744	1975.44
713.931	1967.24
714.119	1926.29
714.306	1991.82
714.494	2000.01
714.682	2008.2
714.869	1920.14
715.057	1952.91
715.244	1895.57
715.432	1987.72
715.619	1967.24
715.807	2018.44
715.994	1944.72
716.182	1799.31
716.369	1930.38
716.556	1995.92
716.744	1903.76
716.931	1815.69
717.119	1973.39
717.306	1922.19
717.493	1959.05
717.681	1901.71
717.868	1920.14
718.055	1879.18
718.242	1938.57
718.43	1877.13
718.617	1899.66
718.804	1916.05
718.991	1909.9
719.179	2051.21
719.366	1895.57
719.553	1934.48
719.74	1918.09
719.927	1905.81
720.114	1895.57
720.301	1938.57
720.488	1830.03
720.676	1893.52
720.863	1971.34
721.05	1930.38
721.237	1979.53
721.424	1914
721.611	1952.91
721.798	1959.05
721.985	1944.72
722.172	1844.37
722.358	1887.37
722.545	1950.86
722.732	2022.54
722.919	1936.53
723.106	1895.57
723.293	1866.89
723.48	1754.26
723.667	1854.61
723.853	1928.33
724.04	1920.14
724.227	2057.36
724.414	1809.55
724.6	1963.15
724.787	1983.63
724.974	1944.72
725.161	1893.52
725.347	1954.96
725.534	1942.67
725.72	1961.1
725.907	1983.63
726.094	2000.01
726.28	1870.99
726.467	1918.09
726.653	1873.04
726.84	1959.05
727.027	2022.54
727.213	1789.07
727.4	1938.57
727.586	1879.18
727.773	1862.8
727.959	1846.41
728.145	1846.41
728.332	1993.87
728.518	1893.52
728.705	1873.04
728.891	1911.95
729.077	1981.58
729.264	1879.18
729.45	1950.86
729.636	2032.78
729.823	1969.29
730.009	1879.18
730.195	1993.87
730.382	1836.17
730.568	1830.03
730.754	1866.89
730.94	1936.53
731.126	1936.53
731.313	1952.91
731.499	1979.53
731.685	1946.76
731.871	1981.58
732.057	1926.29
732.243	1899.66
732.429	1903.76
732.615	1873.04
732.801	1977.48
732.987	1928.33
733.173	1911.95
733.359	1881.23
733.545	1868.94
733.731	1893.52
733.917	1920.14
734.103	1911.95
734.289	1870.99
734.475	1832.08
734.661	1938.57
734.847	1971.34
735.033	1877.13
735.219	1870.99
735.404	1877.13
735.59	1889.42
735.776	1877.13
735.962	2000.01
736.148	1842.32
736.333	1909.9
736.519	1844.37
736.705	1860.75
736.89	1944.72
737.076	1936.53
737.262	1866.89
737.447	1782.93
737.633	1803.41
737.819	1832.08
738.004	1860.75
738.19	1791.12
738.375	1868.94
738.561	1807.5
738.747	1778.83
738.932	1787.02
739.118	1926.29
739.303	1909.9
739.489	1942.67
739.674	1827.98
739.859	1768.59
740.045	1803.41
740.23	1862.8
740.416	1838.22
740.601	1827.98
740.786	1813.65
740.972	1737.87
741.157	1760.4
741.342	1780.88
741.528	1815.69
741.713	1807.5
741.898	1825.93
742.084	1758.35
742.269	1813.65
742.454	1748.11
742.639	1744.02
742.824	1782.93
743.01	1805.46
743.195	1789.07
743.38	1705.1
743.565	1717.39
743.75	1756.3
743.935	1715.34
744.12	1717.39
744.305	1664.15
744.49	1686.67
744.675	1631.38
744.86	1676.43
745.045	1791.12
745.23	1729.68
745.415	1692.82
745.6	1680.53
745.785	1569.94
745.97	1658
746.155	1758.35
746.34	1528.98
746.525	1541.27
746.71	1584.27
746.895	1610.9
747.079	1672.34
747.264	1592.47
747.449	1590.42
747.634	1602.71
747.819	1531.03
748.003	1524.88
748.188	1567.89
748.373	1549.46
748.557	1467.54
748.742	1549.46
748.927	1494.16
749.111	1483.92
749.296	1516.69
749.481	1475.73
749.665	1492.12
749.85	1414.29
750.034	1565.84
750.219	1467.54
750.404	1377.43
750.588	1453.2
750.773	1404.05
750.957	1406.1
751.141	1311.89
751.326	1445.01
751.51	1281.18
751.695	1311.89
751.879	1344.66
752.064	1361.05
752.248	1334.42
752.432	1328.28
752.617	1348.76
752.801	1377.43
752.985	1320.09
753.17	1387.67
753.354	1389.72
753.538	1326.23
753.722	1332.37
753.907	1311.89
754.091	1172.63
754.275	1209.5
754.459	1238.17
754.643	1215.64
754.828	1254.55
755.012	1270.94
755.196	1254.55
755.38	1248.41
755.564	1205.4
755.748	1213.59
755.932	1131.67
756.116	1105.05
756.3	1213.59
756.484	1209.5
756.668	1094.81
756.852	1055.9
757.036	1156.25
757.22	1123.48
757.404	1117.34
757.588	1139.87
757.772	1008.8
757.956	1139.87
758.14	1035.42
758.323	1121.43
758.507	1119.39
758.691	1096.86
758.875	1078.43
759.059	1070.23
759.242	1059.99
759.426	1045.66
759.61	1059.99
759.794	1090.71
759.977	1041.56
760.161	1115.29
760.345	1062.04
760.528	1076.38
760.712	1051.8
760.895	890.01
761.079	918.68
761.263	992.41
761.446	894.11
761.63	947.36
761.813	918.68
761.997	967.84
762.18	1033.37
762.364	961.69
762.547	879.77
762.731	867.49
762.914	986.27
763.098	922.78
763.281	851.1
763.464	828.57
763.648	1037.47
763.831	976.03
764.015	904.35
764.198	935.07
764.381	1008.8
764.564	920.73
764.748	840.86
764.931	951.45
765.114	885.92
765.297	902.3
765.481	883.87
765.664	801.95
765.847	863.39
766.03	912.54
766.213	781.47
766.397	990.36
766.58	832.67
766.763	765.09
766.946	869.53
767.129	879.77
767.312	787.61
767.495	814.24
767.678	822.43
767.861	847.01
768.044	797.85
768.227	840.86
768.41	777.37
768.593	928.92
768.776	697.5
768.959	765.09
769.142	820.38
769.324	734.37
769.507	793.76
769.69	816.29
769.873	730.27
770.056	734.37
770.239	779.42
770.421	797.85
770.604	779.42
770.787	781.47
770.97	765.09
771.152	681.12
771.335	787.61
771.518	789.66
771.7	857.25
771.883	795.81
772.066	746.66
772.248	728.22
772.431	683.17
772.613	795.81
772.796	689.31
772.978	631.97
773.161	713.89
773.343	777.37
773.526	728.22
773.708	699.55
773.891	658.59
774.073	644.26
774.256	674.98
774.438	777.37
774.621	746.66
774.803	681.12
774.985	668.83
775.168	656.54
775.35	648.35
775.532	738.46
775.715	695.46
775.897	642.21
776.079	631.97
776.261	574.63
776.444	679.07
776.626	642.21
776.808	599.2
776.99	533.67
777.173	582.82
777.355	597.15
777.537	615.59
777.719	535.71
777.901	672.93
778.083	591.01
778.265	584.87
778.447	586.91
778.629	554.15
778.811	599.2
778.993	490.66
779.175	619.68
779.357	496.8
779.539	484.52
779.721	519.33
779.903	509.09
780.085	607.39
780.267	550.05
780.449	609.44
780.631	572.58
780.812	603.3
780.994	568.48
781.176	459.94
781.358	476.32
781.54	492.71
781.721	496.8
781.903	466.08
782.085	488.61
782.267	509.09
782.448	500.9
782.63	504.99
782.812	558.24
782.993	449.7
783.175	451.75
783.357	449.7
783.538	459.94
783.72	502.95
783.901	406.69
784.083	517.28
784.264	492.71
784.446	388.26
784.627	447.65
784.809	388.26
784.99	410.79
785.172	502.95
785.353	500.9
785.535	339.11
785.716	418.98
785.897	388.26
786.079	464.04
786.26	406.69
786.441	408.74
786.623	322.73
786.804	341.16
786.985	453.8
787.167	386.21
787.348	439.46
787.529	380.07
787.71	402.6
787.891	437.41
788.073	298.15
788.254	361.64
788.435	388.26
788.616	328.87
788.797	363.69
788.978	294.05
789.159	312.49
789.34	418.98
789.522	255.14
789.703	431.27
789.884	371.88
790.065	324.77
790.246	357.54
790.427	253.09
790.607	324.77
790.788	349.35
790.969	349.35
791.15	326.82
791.331	271.53
791.512	324.77
791.693	306.34
791.874	296.1
792.054	353.45
792.235	304.29
792.416	298.15
792.597	281.77
792.778	414.88
792.958	402.6
793.139	199.85
793.32	257.19
793.5	283.81
793.681	339.11
793.862	353.45
794.042	234.66
794.223	304.29
794.404	304.29
794.584	253.09
794.765	349.35
794.945	265.38
795.126	251.05
795.306	320.68
795.487	234.66
795.667	232.62
795.848	296.1
796.028	308.39
796.209	257.19
796.389	191.66
796.57	267.43
796.75	257.19
796.93	265.38
797.111	238.76
797.291	224.42
797.471	304.29
797.652	273.57
797.832	257.19
798.012	230.57
798.192	214.18
798.373	289.96
798.553	175.27
798.733	230.57
798.913	259.24
799.093	246.95
799.274	271.53
799.454	160.94
799.634	263.33
799.814	287.91
799.994	201.9
800.174	181.42
800.354	257.19
800.534	191.66
800.714	283.81
800.894	165.03
801.074	193.7
801.254	236.71
801.434	230.57
801.614	173.22
801.794	167.08
801.974	707.74
802.154	279.72
802.334	195.75
802.514	218.28
802.693	205.99
802.873	218.28
803.053	214.18
803.233	136.36
803.413	228.52
803.592	195.75
803.772	218.28
803.952	173.22
804.131	214.18
804.311	183.46
804.491	242.85
804.67	238.76
804.85	175.27
805.03	165.03
805.209	216.23
805.389	195.75
805.568	124.07
805.748	115.88
805.928	140.46
806.107	195.75
806.287	169.13
806.466	222.38
806.646	199.85
806.825	181.42
807.004	146.6
807.184	222.38
807.363	205.99
807.543	183.46
807.722	134.31
807.901	183.46
808.081	124.07
808.26	173.22
808.439	148.65
808.619	183.46
808.798	148.65
808.977	103.59
809.156	107.69
809.336	154.79
809.515	185.51
809.694	175.27
809.873	189.61
810.052	156.84
810.231	191.66
810.411	66.73
810.59	167.08
810.769	91.31
810.948	222.38
811.127	126.12
811.306	50.35
811.485	115.88
811.664	261.29
811.843	165.03
812.022	175.27
812.201	134.31
812.38	128.17
812.559	132.26
812.737	62.63
812.916	107.69
813.095	79.02
813.274	160.94
813.453	173.22
813.632	160.94
813.811	191.66
813.989	150.7
814.168	173.22
814.347	144.55
814.526	167.08
814.704	152.74
814.883	214.18
815.062	122.02
815.24	193.7
815.419	107.69
815.598	132.26
815.776	79.02
815.955	142.5
816.133	87.21
816.312	165.03
816.49	126.12
816.669	91.31
816.847	130.22
817.026	173.22
817.204	23.72
817.383	115.88
817.561	83.11
817.74	115.88
817.918	179.37
818.097	91.31
818.275	-7
818.453	156.84
818.632	58.54
818.81	95.4
818.988	54.44
819.167	74.92
819.345	74.92
819.523	62.63
819.701	201.9
819.879	107.69
820.058	115.88
820.236	148.65
820.414	109.74
820.592	54.44
820.77	68.78
820.948	105.64
821.127	117.93
821.305	132.26
821.483	1.19
821.661	181.42
821.839	103.59
822.017	58.54
822.195	87.21
822.373	99.5
822.551	76.97
822.729	128.17
822.907	44.2
823.085	60.59
823.262	44.2
823.44	113.83
823.618	83.11
823.796	21.67
823.974	42.15
824.152	107.69
824.329	132.26
824.507	158.89
824.685	21.67
824.863	58.54
825.04	124.07
825.218	162.98
825.396	58.54
825.574	66.73
825.751	140.46
825.929	165.03
826.107	115.88
826.284	107.69
826.462	46.25
826.639	46.25
826.817	44.2
826.994	158.89
827.172	52.39
827.349	132.26
827.527	93.35
827.704	91.31
827.882	89.26
828.059	70.83
828.237	103.59
828.414	79.02
828.591	40.11
828.769	117.93
828.946	70.83
829.124	85.16
829.301	50.35
829.478	83.11
829.655	111.78
829.833	99.5
830.01	76.97
830.187	25.77
830.364	27.82
830.542	46.25
830.719	60.59
830.896	103.59
831.073	42.15
831.25	124.07
831.427	124.07
831.604	107.69
831.782	119.98
831.959	83.11
832.136	74.92
832.313	54.44
832.49	119.98
832.667	101.55
832.844	11.43
833.021	85.16
833.198	58.54
833.374	64.68
833.551	107.69
833.728	85.16
833.905	156.84
834.082	-41.81
834.259	17.58
834.436	109.74
834.612	52.39
834.789	128.17
834.966	91.31
835.143	72.87
835.319	40.11
835.496	124.07
835.673	23.72
835.85	74.92
836.026	60.59
836.203	-7
836.38	66.73
836.556	29.87
836.733	1.19
836.909	74.92
837.086	17.58
837.262	38.06
837.439	52.39
837.616	36.01
837.792	58.54
837.968	58.54
838.145	5.29
838.321	66.73
838.498	-4.95
838.674	25.77
838.851	36.01
839.027	60.59
839.203	85.16
839.38	74.92
839.556	5.29
839.732	58.54
839.909	40.11
840.085	101.55
840.261	58.54
840.437	-15.19
840.614	-15.19
840.79	42.15
840.966	54.44
841.142	72.87
841.318	52.39
841.494	101.55
841.671	46.25
841.847	-7
842.023	42.15
842.199	9.39
842.375	29.87
842.551	-19.29
842.727	-58.2
842.903	83.11
843.079	-23.38
843.255	17.58
843.431	44.2
843.607	36.01
843.783	-11.09
843.959	99.5
844.134	38.06
844.31	111.78
844.486	17.58
844.662	25.77
844.838	1.19
845.013	17.58
845.189	33.96
845.365	-7
845.541	17.58
845.716	25.77
845.892	124.07
846.068	85.16
846.244	42.15
846.419	3.24
846.595	5.29
846.77	9.39
846.946	105.64
847.122	21.67
847.297	48.3
847.473	85.16
847.648	40.11
847.824	33.96
847.999	1.19
848.175	-21.33
848.35	42.15
848.526	95.4
848.701	25.77
848.876	52.39
849.052	9.39
849.227	76.97
849.403	-31.57
849.578	33.96
849.753	17.58
849.929	36.01
850.104	68.78
850.279	107.69
850.454	58.54
850.63	33.96
850.805	40.11
850.98	29.87
851.155	25.77
851.33	70.83
851.505	11.43
851.681	83.11
851.856	-15.19
852.031	21.67
852.206	42.15
852.381	-33.62
852.556	-4.95
852.731	19.63
852.906	3.24
853.081	58.54
853.256	15.53
853.431	33.96
853.606	-15.19
853.781	-4.95
853.956	-35.67
854.131	101.55
854.305	70.83
854.48	38.06
854.655	9.39
854.83	44.2
855.005	23.72
855.18	27.82
855.354	-37.72
855.529	3.24
855.704	-54.1
855.879	1.19
856.053	-15.19
856.228	-19.29
856.403	-4.95
856.577	66.73
856.752	-19.29
856.926	9.39
857.101	38.06
857.276	33.96
857.45	-80.72
857.625	132.26
857.799	38.06
857.974	58.54
858.148	9.39
858.323	62.63
858.497	17.58
858.672	3.24
858.846	60.59
859.02	17.58
859.195	-15.19
859.369	-66.39
859.543	36.01
859.718	52.39
859.892	48.3
860.066	17.58
860.241	-29.52
860.415	36.01
860.589	-62.29
860.763	74.92
860.938	-70.48
861.112	36.01
861.286	-4.95
861.46	54.44
861.634	11.43
861.808	-17.24
861.982	-43.86
862.157	-70.48
862.331	-15.19
862.505	25.77
862.679	25.77
862.853	72.87
863.027	-7
863.201	132.26
863.375	-64.34
863.549	3.24
863.722	-39.76
863.896	38.06
864.07	15.53
864.244	5.29
864.418	-27.48
864.592	1.19
864.766	-39.76
864.939	38.06
865.113	-47.96
865.287	-37.72
865.461	-72.53
865.634	-23.38
865.808	-23.38
865.982	-27.48
866.156	31.91
866.329	74.92
866.503	25.77
866.676	27.82
866.85	36.01
867.024	-74.58
867.197	52.39
867.371	29.87
867.544	44.2
867.718	56.49
867.891	-47.96
868.065	50.35
868.238	7.34
868.412	33.96
868.585	36.01
868.759	-76.63
868.932	23.72
869.105	29.87
869.279	1.19
869.452	-7
869.625	81.07
869.799	5.29
869.972	23.72
870.145	-43.86
870.319	11.43
870.492	13.48
870.665	-17.24
870.838	-21.33
871.011	-138.07
871.185	-23.38
871.358	9.39
871.531	58.54
871.704	109.74
871.877	1.19
872.05	-45.91
872.223	-35.67
872.396	36.01
872.569	46.25
872.742	-11.09
872.915	1.19
873.088	-7
873.261	-21.33
873.434	25.77
873.607	-4.95
873.78	66.73
873.953	42.15
874.126	1.19
874.299	36.01
874.471	-21.33
874.644	58.54
874.817	76.97
874.99	25.77
875.163	1.19
875.335	74.92
875.508	42.15
875.681	85.16
875.853	17.58
876.026	-39.76
876.199	23.72
876.371	-27.48
876.544	42.15
876.717	-60.24
876.889	-33.62
877.062	-15.19
877.234	-45.91
877.407	-15.19
877.579	62.63
877.752	27.82
877.924	11.43
878.097	17.58
878.269	79.02
878.442	-0.85
878.614	-2.9
878.786	-2.9
878.959	-31.57
879.131	33.96
879.303	-56.15
879.476	42.15
879.648	3.24
879.82	-80.72
879.993	-39.76
880.165	-93.01
880.337	-33.62
880.509	-15.19
880.681	29.87
880.854	-19.29
881.026	-2.9
881.198	50.35
881.37	60.59
881.542	60.59
881.714	66.73
881.886	9.39
882.058	-35.67
882.23	50.35
882.402	74.92
882.574	36.01
882.746	-25.43
882.918	44.2
883.09	70.83
883.262	-45.91
883.434	62.63
883.606	68.78
883.778	50.35
883.95	74.92
884.122	-39.76
884.293	-2.9
884.465	-19.29
884.637	60.59
884.809	-13.14
884.98	7.34
885.152	25.77
885.324	29.87
885.496	-21.33
885.667	36.01
885.839	-56.15
886.011	119.98
886.182	5.29
886.354	-29.52
886.525	-70.48
886.697	74.92
886.869	-37.72
887.04	-23.38
887.212	58.54
887.383	58.54
887.555	1.19
887.726	50.35
887.897	-27.48
888.069	40.11
888.24	74.92
888.412	27.82
888.583	-13.14
888.754	33.96
888.926	17.58
889.097	-19.29
889.268	-93.01
889.44	33.96
889.611	-15.19
889.782	-21.33
889.953	17.58
890.125	36.01
890.296	-52.05
890.467	9.39
890.638	-19.29
890.809	-27.48
890.98	-27.48
891.151	50.35
891.323	66.73
891.494	58.54
891.665	-80.72
891.836	-88.92
892.007	19.63
892.178	66.73
892.349	-7
892.52	27.82
892.691	-37.72
892.862	-88.92
893.032	-93.01
893.203	74.92
893.374	-4.95
893.545	11.43
893.716	-13.14
893.887	13.48
894.057	23.72
894.228	17.58
894.399	-23.38
894.57	64.68
894.74	-19.29
894.911	42.15
895.082	-86.87
895.253	-76.63
895.423	-31.57
895.594	13.48
895.764	-60.24
895.935	17.58
896.106	9.39
896.276	-56.15
896.447	-31.57
896.617	54.44
896.788	-70.48
896.958	-37.72
897.129	-21.33
897.299	-19.29
897.47	33.96
897.64	-33.62
897.81	46.25
897.981	-35.67
898.151	9.39
898.322	36.01
898.492	-31.57
898.662	-37.72
898.832	70.83
899.003	-27.48
899.173	23.72
899.343	-37.72
899.513	-54.1
