Data from USB4F104151__272__14-46-10-457.txt Node

Date: Thu Mar 13 14:46:10 EDT 2025
User: louis
Spectrometer: USB4F10415
Trigger mode: 4
Integration Time (sec): 2.000000E-2
Scans to average: 1
Electric dark correction enabled: true
Nonlinearity correction enabled: false
Boxcar width: 0
XAxis mode: Wavelengths
Number of Pixels in Spectrum: 3648
>>>>>Begin Spectral Data<<<<<
178.204	-132.61
178.424	-132.61
178.644	-132.61
178.864	-140.8
179.084	-99.84
179.304	-56.83
179.524	-28.16
179.744	31.23
179.964	51.71
180.184	29.18
180.404	-15.87
180.624	-19.97
180.844	-32.26
181.064	14.85
181.283	-11.78
181.503	-1.54
181.723	39.42
181.943	20.99
182.163	33.28
182.383	-44.54
182.602	-36.35
182.822	45.57
183.042	88.57
183.262	57.86
183.482	137.73
183.701	12.8
183.921	41.47
184.141	98.81
184.361	45.57
184.58	-1.54
184.8	23.04
185.02	-15.87
185.239	47.62
185.459	47.62
185.679	94.72
185.898	12.8
186.118	113.15
186.338	53.76
186.557	33.28
186.777	-22.02
186.997	-9.73
187.216	33.28
187.436	-11.78
187.655	43.52
187.875	14.85
188.095	16.9
188.314	135.68
188.534	129.53
188.753	-7.68
188.973	86.53
189.192	70.14
189.412	23.04
189.631	-3.58
189.851	-15.87
190.07	125.44
190.29	-58.88
190.509	16.9
190.729	102.91
190.948	70.14
191.168	70.14
191.387	41.47
191.607	86.53
191.826	39.42
192.045	23.04
192.265	-22.02
192.484	-5.63
192.704	66.05
192.923	-11.78
193.142	160.25
193.362	6.66
193.581	4.61
193.8	29.18
194.02	23.04
194.239	-17.92
194.458	51.71
194.678	47.62
194.897	25.09
195.116	-5.63
195.335	10.75
195.555	-7.68
195.774	16.9
195.993	74.24
196.212	0.51
196.432	55.81
196.651	18.94
196.87	64
197.089	123.39
197.308	78.33
197.528	-22.02
197.747	-11.78
197.966	-15.87
198.185	33.28
198.404	6.66
198.623	45.57
198.842	23.04
199.062	39.42
199.281	51.71
199.5	94.72
199.719	61.95
199.938	-7.68
200.157	55.81
200.376	80.38
200.595	70.14
200.814	88.57
201.033	-24.06
201.252	90.62
201.471	4.61
201.69	154.11
201.909	82.43
202.128	2.56
202.347	47.62
202.566	-11.78
202.785	-17.92
203.004	23.04
203.223	72.19
203.442	-1.54
203.661	37.38
203.879	41.47
204.098	80.38
204.317	-26.11
204.536	104.96
204.755	29.18
204.974	16.9
205.193	39.42
205.411	135.68
205.63	49.66
205.849	41.47
206.068	59.9
206.287	70.14
206.505	61.95
206.724	-17.92
206.943	8.7
207.162	39.42
207.381	41.47
207.599	49.66
207.818	-28.16
208.037	88.57
208.255	-3.58
208.474	37.38
208.693	-36.35
208.911	-24.06
209.13	61.95
209.349	70.14
209.567	102.91
209.786	66.05
210.005	-26.11
210.223	8.7
210.442	-1.54
210.661	113.15
210.879	61.95
211.098	113.15
211.316	-17.92
211.535	107.01
211.753	16.9
211.972	41.47
212.191	78.33
212.409	-19.97
212.628	29.18
212.846	-24.06
213.065	53.76
213.283	143.87
213.502	25.09
213.72	61.95
213.938	39.42
214.157	-19.97
214.375	88.57
214.594	-28.16
214.812	-1.54
215.031	29.18
215.249	102.91
215.467	72.19
215.686	82.43
215.904	49.66
216.122	16.9
216.341	102.91
216.559	4.61
216.778	70.14
216.996	6.66
217.214	39.42
217.432	37.38
217.651	-28.16
217.869	6.66
218.087	70.14
218.306	72.19
218.524	133.63
218.742	23.04
218.96	66.05
219.179	55.81
219.397	29.18
219.615	80.38
219.833	135.68
220.051	-3.58
220.27	129.53
220.488	88.57
220.706	35.33
220.924	20.99
221.142	-3.58
221.36	72.19
221.578	14.85
221.796	86.53
222.015	-3.58
222.233	14.85
222.451	41.47
222.669	45.57
222.887	82.43
223.105	4.61
223.323	78.33
223.541	-3.58
223.759	-44.54
223.977	55.81
224.195	107.01
224.413	76.29
224.631	45.57
224.849	4.61
225.067	27.14
225.285	0.51
225.503	113.15
225.721	20.99
225.939	-11.78
226.157	31.23
226.375	188.93
226.592	68.09
226.81	-3.58
227.028	61.95
227.246	76.29
227.464	-15.87
227.682	78.33
227.9	119.29
228.117	39.42
228.335	49.66
228.553	-13.82
228.771	61.95
228.989	61.95
229.206	23.04
229.424	33.28
229.642	12.8
229.86	-75.26
230.077	45.57
230.295	8.7
230.513	86.53
230.731	-3.58
230.948	152.06
231.166	98.81
231.384	29.18
231.601	0.51
231.819	29.18
232.037	0.51
232.254	-30.21
232.472	49.66
232.689	41.47
232.907	57.86
233.125	-26.11
233.342	78.33
233.56	53.76
233.777	-9.73
233.995	37.38
234.213	39.42
234.43	-19.97
234.648	-11.78
234.865	82.43
235.083	57.86
235.3	82.43
235.518	20.99
235.735	84.48
235.953	70.14
236.17	98.81
236.388	39.42
236.605	35.33
236.822	16.9
237.04	31.23
237.257	94.72
237.475	-13.82
237.692	4.61
237.909	70.14
238.127	33.28
238.344	20.99
238.562	104.96
238.779	25.09
238.996	-24.06
239.214	66.05
239.431	57.86
239.648	-7.68
239.865	61.95
240.083	-1.54
240.3	64
240.517	47.62
240.735	23.04
240.952	33.28
241.169	29.18
241.386	57.86
241.603	82.43
241.821	49.66
242.038	59.9
242.255	57.86
242.472	45.57
242.689	64
242.907	78.33
243.124	20.99
243.341	20.99
243.558	14.85
243.775	12.8
243.992	-11.78
244.209	66.05
244.426	129.53
244.643	33.28
244.86	55.81
245.078	16.9
245.295	100.86
245.512	16.9
245.729	37.38
245.946	82.43
246.163	117.25
246.38	53.76
246.597	45.57
246.814	45.57
247.031	6.66
247.248	84.48
247.464	61.95
247.681	55.81
247.898	0.51
248.115	16.9
248.332	-26.11
248.549	23.04
248.766	119.29
248.983	49.66
249.2	31.23
249.417	51.71
249.633	29.18
249.85	37.38
250.067	-7.68
250.284	-34.3
250.501	80.38
250.717	14.85
250.934	2.56
251.151	55.81
251.368	88.57
251.585	29.18
251.801	6.66
252.018	33.28
252.235	70.14
252.451	78.33
252.668	20.99
252.885	49.66
253.102	102.91
253.318	78.33
253.535	41.47
253.752	29.18
253.968	37.38
254.185	-17.92
254.401	20.99
254.618	61.95
254.835	20.99
255.051	70.14
255.268	-1.54
255.484	25.09
255.701	29.18
255.917	12.8
256.134	41.47
256.351	49.66
256.567	18.94
256.784	14.85
257	-15.87
257.217	20.99
257.433	49.66
257.65	90.62
257.866	23.04
258.082	94.72
258.299	12.8
258.515	23.04
258.732	72.19
258.948	-3.58
259.165	-3.58
259.381	-9.73
259.597	64
259.814	35.33
260.03	86.53
260.246	-3.58
260.463	16.9
260.679	94.72
260.895	-7.68
261.112	70.14
261.328	51.71
261.544	66.05
261.761	86.53
261.977	55.81
262.193	-3.58
262.409	55.81
262.626	74.24
262.842	14.85
263.058	-7.68
263.274	64
263.49	39.42
263.707	61.95
263.923	78.33
264.139	-9.73
264.355	61.95
264.571	78.33
264.787	80.38
265.004	31.23
265.22	104.96
265.436	45.57
265.652	33.28
265.868	53.76
266.084	20.99
266.3	115.2
266.516	8.7
266.732	57.86
266.948	61.95
267.164	88.57
267.38	82.43
267.596	96.77
267.812	74.24
268.028	107.01
268.244	55.81
268.46	80.38
268.676	121.34
268.892	70.14
269.108	-11.78
269.324	4.61
269.54	4.61
269.756	86.53
269.972	39.42
270.188	-24.06
270.403	6.66
270.619	23.04
270.835	20.99
271.051	4.61
271.267	84.48
271.483	0.51
271.698	104.96
271.914	119.29
272.13	-42.5
272.346	88.57
272.562	-3.58
272.777	61.95
272.993	23.04
273.209	23.04
273.425	45.57
273.64	53.76
273.856	-13.82
274.072	29.18
274.287	23.04
274.503	117.25
274.719	78.33
274.934	90.62
275.15	-9.73
275.366	78.33
275.581	16.9
275.797	47.62
276.012	8.7
276.228	68.09
276.444	20.99
276.659	53.76
276.875	78.33
277.09	78.33
277.306	84.48
277.521	78.33
277.737	12.8
277.952	66.05
278.168	4.61
278.383	0.51
278.599	12.8
278.814	41.47
279.03	20.99
279.245	82.43
279.461	23.04
279.676	94.72
279.892	41.47
280.107	-28.16
280.322	39.42
280.538	84.48
280.753	70.14
280.969	66.05
281.184	57.86
281.399	164.35
281.615	49.66
281.83	78.33
282.045	49.66
282.26	16.9
282.476	20.99
282.691	80.38
282.906	4.61
283.122	102.91
283.337	104.96
283.552	39.42
283.767	-11.78
283.983	-22.02
284.198	12.8
284.413	33.28
284.628	-11.78
284.843	74.24
285.058	4.61
285.274	37.38
285.489	115.2
285.704	70.14
285.919	8.7
286.134	59.9
286.349	35.33
286.564	-26.11
286.779	94.72
286.995	-15.87
287.21	12.8
287.425	70.14
287.64	74.24
287.855	37.38
288.07	16.9
288.285	39.42
288.5	80.38
288.715	74.24
288.93	12.8
289.145	45.57
289.36	39.42
289.575	88.57
289.79	82.43
290.004	-42.5
290.219	61.95
290.434	16.9
290.649	4.61
290.864	37.38
291.079	41.47
291.294	16.9
291.509	53.76
291.724	47.62
291.938	39.42
292.153	43.52
292.368	-1.54
292.583	0.51
292.798	23.04
293.012	86.53
293.227	0.51
293.442	16.9
293.657	98.81
293.871	92.67
294.086	78.33
294.301	53.76
294.516	45.57
294.73	70.14
294.945	59.9
295.16	147.97
295.374	53.76
295.589	45.57
295.804	55.81
296.018	88.57
296.233	156.16
296.447	8.7
296.662	61.95
296.877	96.77
297.091	113.15
297.306	113.15
297.52	53.76
297.735	31.23
297.949	27.14
298.164	33.28
298.378	94.72
298.593	29.18
298.807	-11.78
299.022	90.62
299.236	45.57
299.451	-17.92
299.665	14.85
299.88	45.57
300.094	61.95
300.309	86.53
300.523	109.05
300.737	8.7
300.952	18.94
301.166	37.38
301.381	98.81
301.595	39.42
301.809	2.56
302.024	88.57
302.238	27.14
302.452	23.04
302.667	29.18
302.881	78.33
303.095	29.18
303.309	14.85
303.524	-11.78
303.738	20.99
303.952	16.9
304.166	86.53
304.381	-65.02
304.595	123.39
304.809	12.8
305.023	-7.68
305.237	31.23
305.452	100.86
305.666	115.2
305.88	4.61
306.094	20.99
306.308	-28.16
306.522	53.76
306.736	29.18
306.95	53.76
307.164	45.57
307.379	25.09
307.593	107.01
307.807	59.9
308.021	49.66
308.235	94.72
308.449	-28.16
308.663	45.57
308.877	96.77
309.091	-46.59
309.305	131.58
309.519	-11.78
309.733	29.18
309.947	61.95
310.161	129.53
310.374	53.76
310.588	70.14
310.802	16.9
311.016	55.81
311.23	70.14
311.444	111.1
311.658	80.38
311.872	139.77
312.085	-3.58
312.299	4.61
312.513	119.29
312.727	61.95
312.941	20.99
313.154	45.57
313.368	49.66
313.582	80.38
313.796	61.95
314.009	16.9
314.223	10.75
314.437	64
314.651	84.48
314.864	31.23
315.078	-28.16
315.292	-17.92
315.505	25.09
315.719	16.9
315.933	70.14
316.146	31.23
316.36	31.23
316.573	-3.58
316.787	98.81
317.001	23.04
317.214	20.99
317.428	70.14
317.641	47.62
317.855	23.04
318.068	96.77
318.282	12.8
318.495	61.95
318.709	41.47
318.922	31.23
319.136	41.47
319.349	96.77
319.563	12.8
319.776	37.38
319.99	68.09
320.203	61.95
320.417	92.67
320.63	41.47
320.843	115.2
321.057	74.24
321.27	33.28
321.483	61.95
321.697	96.77
321.91	57.86
322.124	129.53
322.337	4.61
322.55	72.19
322.763	33.28
322.977	78.33
323.19	53.76
323.403	104.96
323.617	64
323.83	49.66
324.043	70.14
324.256	55.81
324.469	4.61
324.683	96.77
324.896	80.38
325.109	66.05
325.322	61.95
325.535	53.76
325.748	82.43
325.962	-3.58
326.175	45.57
326.388	25.09
326.601	88.57
326.814	74.24
327.027	68.09
327.24	29.18
327.453	76.29
327.666	61.95
327.879	29.18
328.092	88.57
328.305	18.94
328.518	25.09
328.731	107.01
328.944	45.57
329.157	59.9
329.37	129.53
329.583	64
329.796	160.25
330.009	-3.58
330.222	25.09
330.435	47.62
330.648	29.18
330.861	90.62
331.073	88.57
331.286	109.05
331.499	111.1
331.712	57.86
331.925	72.19
332.138	33.28
332.35	107.01
332.563	20.99
332.776	88.57
332.989	25.09
333.202	49.66
333.414	33.28
333.627	-15.87
333.84	10.75
334.053	143.87
334.265	6.66
334.478	4.61
334.691	123.39
334.903	78.33
335.116	20.99
335.329	53.76
335.541	82.43
335.754	94.72
335.966	35.33
336.179	113.15
336.392	4.61
336.604	10.75
336.817	41.47
337.029	55.81
337.242	123.39
337.454	80.38
337.667	25.09
337.88	88.57
338.092	45.57
338.305	74.24
338.517	70.14
338.729	43.52
338.942	29.18
339.154	78.33
339.367	0.51
339.579	111.1
339.792	88.57
340.004	113.15
340.217	74.24
340.429	55.81
340.641	0.51
340.854	25.09
341.066	37.38
341.278	45.57
341.491	133.63
341.703	94.72
341.915	64
342.128	113.15
342.34	47.62
342.552	90.62
342.764	16.9
342.977	51.71
343.189	94.72
343.401	66.05
343.613	16.9
343.826	70.14
344.038	113.15
344.25	94.72
344.462	-1.54
344.674	49.66
344.886	-13.82
345.099	61.95
345.311	127.49
345.523	33.28
345.735	39.42
345.947	45.57
346.159	18.94
346.371	23.04
346.583	16.9
346.795	152.06
347.007	70.14
347.219	51.71
347.431	61.95
347.643	66.05
347.855	-19.97
348.067	102.91
348.279	-3.58
348.491	4.61
348.703	70.14
348.915	84.48
349.127	-9.73
349.339	31.23
349.551	61.95
349.763	66.05
349.975	12.8
350.187	152.06
350.399	53.76
350.61	2.56
350.822	29.18
351.034	66.05
351.246	55.81
351.458	57.86
351.669	29.18
351.881	86.53
352.093	41.47
352.305	49.66
352.517	74.24
352.728	107.01
352.94	41.47
353.152	29.18
353.363	80.38
353.575	78.33
353.787	70.14
353.999	29.18
354.21	135.68
354.422	39.42
354.633	37.38
354.845	41.47
355.057	88.57
355.268	37.38
355.48	29.18
355.692	10.75
355.903	57.86
356.115	-28.16
356.326	-9.73
356.538	64
356.749	45.57
356.961	94.72
357.172	47.62
357.384	35.33
357.595	80.38
357.807	43.52
358.018	82.43
358.23	72.19
358.441	31.23
358.653	66.05
358.864	61.95
359.075	20.99
359.287	66.05
359.498	35.33
359.709	127.49
359.921	31.23
360.132	119.29
360.344	111.1
360.555	8.7
360.766	16.9
360.977	92.67
361.189	102.91
361.4	80.38
361.611	152.06
361.823	57.86
362.034	25.09
362.245	-15.87
362.456	61.95
362.667	57.86
362.879	37.38
363.09	35.33
363.301	61.95
363.512	49.66
363.723	82.43
363.935	49.66
364.146	-17.92
364.357	66.05
364.568	-7.68
364.779	14.85
364.99	113.15
365.201	0.51
365.412	72.19
365.623	18.94
365.834	14.85
366.045	113.15
366.256	61.95
366.467	4.61
366.678	47.62
366.889	72.19
367.1	57.86
367.311	64
367.522	111.1
367.733	33.28
367.944	47.62
368.155	-9.73
368.366	43.52
368.577	61.95
368.788	57.86
368.999	66.05
369.209	72.19
369.42	80.38
369.631	80.38
369.842	55.81
370.053	-11.78
370.264	94.72
370.474	35.33
370.685	82.43
370.896	-1.54
371.107	68.09
371.317	16.9
371.528	90.62
371.739	39.42
371.95	51.71
372.16	102.91
372.371	-13.82
372.582	20.99
372.792	10.75
373.003	111.1
373.214	102.91
373.424	86.53
373.635	45.57
373.846	113.15
374.056	68.09
374.267	37.38
374.477	113.15
374.688	37.38
374.898	74.24
375.109	53.76
375.319	111.1
375.53	98.81
375.74	47.62
375.951	96.77
376.161	51.71
376.372	23.04
376.582	86.53
376.793	64
377.003	12.8
377.214	68.09
377.424	18.94
377.635	115.2
377.845	37.38
378.055	154.11
378.266	74.24
378.476	96.77
378.686	70.14
378.897	39.42
379.107	76.29
379.317	45.57
379.528	70.14
379.738	143.87
379.948	121.34
380.158	27.14
380.369	90.62
380.579	127.49
380.789	49.66
380.999	111.1
381.21	74.24
381.42	72.19
381.63	41.47
381.84	20.99
382.05	55.81
382.261	123.39
382.471	53.76
382.681	47.62
382.891	111.1
383.101	111.1
383.311	74.24
383.521	-7.68
383.731	31.23
383.941	72.19
384.151	-5.63
384.361	94.72
384.571	33.28
384.781	76.29
384.991	125.44
385.201	131.58
385.411	-3.58
385.621	70.14
385.831	127.49
386.041	45.57
386.251	53.76
386.461	45.57
386.671	23.04
386.881	88.57
387.091	47.62
387.301	29.18
387.511	33.28
387.72	135.68
387.93	123.39
388.14	23.04
388.35	29.18
388.56	68.09
388.769	82.43
388.979	113.15
389.189	78.33
389.399	64
389.609	-1.54
389.818	135.68
390.028	72.19
390.238	78.33
390.447	90.62
390.657	82.43
390.867	61.95
391.076	4.61
391.286	51.71
391.496	94.72
391.705	70.14
391.915	45.57
392.125	111.1
392.334	86.53
392.544	127.49
392.753	29.18
392.963	98.81
393.172	80.38
393.382	82.43
393.591	111.1
393.801	100.86
394.01	74.24
394.22	90.62
394.429	70.14
394.639	14.85
394.848	80.38
395.058	64
395.267	23.04
395.477	74.24
395.686	113.15
395.895	127.49
396.105	131.58
396.314	121.34
396.524	45.57
396.733	123.39
396.942	143.87
397.152	92.67
397.361	113.15
397.57	61.95
397.78	37.38
397.989	201.21
398.198	154.11
398.407	14.85
398.617	35.33
398.826	102.91
399.035	129.53
399.244	68.09
399.453	86.53
399.663	164.35
399.872	102.91
400.081	158.21
400.29	117.25
400.499	94.72
400.708	102.91
400.917	53.76
401.127	88.57
401.336	127.49
401.545	209.4
401.754	88.57
401.963	53.76
402.172	59.9
402.381	111.1
402.59	72.19
402.799	168.45
403.008	137.73
403.217	111.1
403.426	182.78
403.635	133.63
403.844	217.6
404.053	143.87
404.262	78.33
404.471	193.02
404.68	127.49
404.888	143.87
405.097	184.83
405.306	143.87
405.515	111.1
405.724	129.53
405.933	209.4
406.142	184.83
406.35	168.45
406.559	154.11
406.768	190.97
406.977	217.6
407.185	172.54
407.394	201.21
407.603	193.02
407.812	217.6
408.02	193.02
408.229	246.27
408.438	209.4
408.646	238.08
408.855	242.17
409.064	250.36
409.272	170.49
409.481	324.09
409.69	272.89
409.898	324.09
410.107	266.75
410.315	360.95
410.524	248.32
410.733	367.1
410.941	254.46
411.15	299.52
411.358	344.57
411.567	383.48
411.775	365.05
411.984	283.13
412.192	471.54
412.401	367.1
412.609	504.31
412.818	412.15
413.026	418.3
413.234	496.12
413.443	383.48
413.651	504.31
413.86	514.55
414.068	487.93
414.276	592.37
414.485	578.04
414.693	590.33
414.901	623.09
415.11	563.7
415.318	569.85
415.526	637.43
415.734	684.53
415.943	680.44
416.151	733.68
416.359	754.16
416.567	760.31
416.776	791.03
416.984	850.42
417.192	836.08
417.4	881.14
417.608	907.76
417.817	918
418.025	1014.26
418.233	995.82
418.441	995.82
418.649	975.35
418.857	1178.09
419.065	1042.93
419.273	1114.61
419.481	1114.61
419.689	1274.35
419.897	1391.08
420.105	1352.17
420.313	1339.88
420.521	1462.76
420.729	1429.99
420.937	1520.1
421.145	1569.26
421.353	1610.22
421.561	1606.12
421.769	1612.26
421.977	1819.11
422.185	1651.17
422.393	1929.7
422.601	2015.71
422.809	1948.13
423.017	2003.43
423.224	2130.4
423.432	2109.92
423.64	2175.45
423.848	2404.83
424.056	2238.94
424.263	2413.02
424.471	2425.31
424.679	2564.57
424.887	2691.54
425.094	2752.98
425.302	2888.15
425.51	2871.76
425.718	2865.62
425.925	2974.16
426.133	3183.06
426.341	3338.7
426.548	3422.67
426.756	3443.15
426.964	3432.91
427.171	3549.64
427.379	3803.59
427.586	3897.8
427.794	3903.94
428.001	4178.37
428.209	4338.11
428.417	4346.3
428.624	4719.03
428.832	4362.69
429.039	4436.41
429.247	4456.89
429.454	4872.63
429.662	5259.7
429.869	4772.28
430.076	5265.84
430.284	4944.31
430.491	5241.26
430.699	5558.7
430.906	5476.78
431.114	5591.47
431.321	5771.69
431.528	5890.47
431.736	6177.19
431.943	6656.41
432.15	6492.57
432.358	6615.45
432.565	6830.49
432.772	6709.66
432.979	7172.5
433.187	7375.25
433.394	7328.14
433.601	7895.43
433.808	7836.04
434.016	7842.18
434.223	8073.6
434.43	8573.31
434.637	8540.54
434.844	9073.01
435.052	9081.21
435.259	9105.78
435.466	9322.87
435.673	9116.02
435.88	9699.69
436.087	10187.11
436.294	10047.85
436.501	10111.33
436.708	10295.65
436.915	10588.51
437.122	11014.49
437.329	10948.95
437.537	11413.84
437.743	11553.1
437.95	11319.64
438.157	12120.39
438.364	12341.57
438.571	12413.25
438.778	12581.18
438.985	13535.54
439.192	13328.69
439.399	13506.87
439.606	13181.24
439.813	13861.16
440.02	14571.81
440.227	14383.4
440.433	14229.8
440.64	14848.29
440.847	14663.97
441.054	15151.38
441.261	16044.3
441.467	16109.83
441.674	16371.97
441.881	16570.63
442.088	16875.77
442.294	16814.34
442.501	17019.13
442.708	17328.38
442.914	18088.17
443.121	19128.54
443.328	18381.03
443.534	19511.51
443.741	19273.95
443.948	18862.3
444.154	20443.34
444.361	19998.93
444.568	20177.1
444.774	20281.55
444.981	20283.59
445.187	20891.84
445.394	21704.88
445.6	21643.45
445.807	23869.59
446.013	23046.3
446.22	23175.33
446.426	24334.48
446.633	24635.53
446.839	25407.61
447.046	24240.27
447.252	25688.18
447.459	25641.08
447.665	25489.53
447.871	26443.88
448.078	28106.84
448.284	26789.99
448.491	27316.32
448.697	28368.98
448.903	28704.84
449.11	29069.38
449.316	28602.44
449.522	29261.89
449.728	29868.09
449.935	30040.12
450.141	30095.41
450.347	31109.16
450.553	29888.57
450.76	30535.73
450.966	31580.19
451.172	30711.85
451.378	32002.07
451.584	31225.89
451.791	31784.99
451.997	31649.82
452.203	32526.35
452.409	32407.57
452.615	32417.81
452.821	31082.53
453.027	30916.65
453.233	32905.23
453.44	31084.58
453.646	31469.6
453.852	31479.84
454.058	32417.81
454.264	31916.06
454.47	32028.7
454.676	31127.59
454.882	32249.88
455.088	29685.82
455.294	30425.14
455.5	30677.04
455.705	30744.62
455.911	29644.86
456.117	29280.32
456.323	29022.28
456.529	27435.1
456.735	28764.23
456.941	27824.22
457.147	27721.82
457.352	26581.1
457.558	26577
457.764	26507.37
457.97	26071.15
458.176	25440.38
458.381	25534.59
458.587	24299.66
458.793	24318.09
458.999	23048.35
459.204	24653.96
459.41	24402.06
459.616	22560.94
459.821	22509.74
460.027	22444.2
460.233	21905.59
460.438	21070.01
460.644	21352.63
460.85	20494.54
461.055	19937.49
461.261	19685.59
461.466	18391.27
461.672	17889.52
461.878	19187.93
462.083	18116.84
462.289	17445.11
462.494	17387.77
462.7	16484.61
462.905	16314.63
463.111	16756.99
463.316	16861.44
463.522	16337.16
463.727	16572.68
463.932	16236.81
464.138	16365.83
464.343	16429.32
464.549	15798.54
464.754	16376.07
464.959	16156.94
465.165	16003.34
465.37	15718.67
465.575	15182.1
465.781	15915.28
465.986	15995.15
466.191	15350.04
466.397	15012.12
466.602	14092.58
466.807	14872.86
467.012	14930.2
467.218	14874.91
467.423	14299.43
467.628	14711.07
467.833	15102.23
468.038	14450.98
468.244	14385.44
468.449	14774.56
468.654	14405.92
468.859	14364.96
469.064	14104.87
469.269	13525.3
469.474	13676.85
469.679	13928.75
469.885	13627.7
470.09	13969.71
470.295	13801.77
470.5	13488.43
470.705	13654.32
470.91	13211.96
471.115	13263.16
471.32	13279.54
471.525	13408.56
471.73	12777.79
471.935	12935.48
472.139	12497.22
472.344	12661.05
472.549	12405.06
472.754	12374.34
472.959	12185.93
473.164	11999.56
473.369	11694.41
473.574	12167.49
473.778	12171.59
473.983	12040.52
474.188	11747.66
474.393	11366.74
474.598	11438.42
474.802	11350.35
475.007	11286.87
475.212	11270.48
475.417	10858.84
475.621	10983.77
475.826	11063.64
476.031	10641.76
476.235	10449.25
476.44	10662.24
476.645	10434.91
476.849	10606.94
477.054	10428.77
477.259	10068.33
477.463	10209.64
477.668	9990.5
477.872	10250.6
478.077	9847.15
478.282	9664.88
478.486	9578.86
478.691	9609.58
478.895	9580.91
479.1	9435.5
479.304	9445.74
479.509	9175.41
479.713	9425.26
479.918	9296.24
480.122	9073.01
480.326	9120.12
480.531	9271.67
480.735	8999.29
480.94	8911.22
481.144	9240.95
481.348	8802.68
481.553	8917.37
481.757	8878.46
481.961	8833.4
482.166	8900.98
482.37	8925.56
482.574	8790.39
482.778	8665.47
482.983	9093.49
483.187	8933.75
483.391	8755.58
483.595	8716.67
483.8	8649.08
484.004	8991.09
484.208	8927.61
484.412	8868.22
484.616	8810.87
484.821	8946.04
485.025	8538.49
485.229	8663.42
485.433	8651.13
485.637	8991.09
485.841	8993.14
486.045	8792.44
486.249	8743.29
486.453	8786.3
486.657	8765.82
486.861	8921.46
487.065	8657.28
487.269	8769.91
487.473	8782.2
487.677	8655.23
487.881	8880.5
488.085	8798.59
488.289	8896.89
488.493	8991.09
488.697	8911.22
488.901	8929.66
489.105	9013.62
489.309	8995.19
489.512	8960.38
489.716	8909.18
489.92	8788.35
490.124	9009.53
490.328	9142.64
490.531	9052.53
490.735	9202.04
490.939	9306.48
491.143	9163.12
491.346	9036.15
491.55	9212.28
491.754	9331.06
491.958	9496.94
492.161	9292.15
492.365	9468.27
492.569	9460.08
492.772	9312.63
492.976	9748.84
493.18	9746.8
493.383	9666.92
493.587	9853.29
493.79	9955.69
493.994	9537.9
494.197	9990.5
494.401	10078.57
494.605	10064.23
494.808	10234.21
495.012	10213.73
495.215	10334.56
495.419	10322.27
495.622	10174.82
495.825	10668.38
496.029	10396
496.232	10797.4
496.436	10760.54
496.639	11039.06
496.843	10914.14
497.046	11254.1
497.249	11268.44
497.453	11381.07
497.656	11497.81
497.859	11569.49
498.063	11538.77
498.266	11968.84
498.469	11774.28
498.673	11948.36
498.876	12083.53
499.079	12230.98
499.282	12417.35
499.485	12742.97
499.689	12671.29
499.892	12882.24
500.095	12808.51
500.298	13623.6
500.501	13185.33
500.705	13613.36
500.908	13584.69
501.111	13881.64
501.314	13805.87
501.517	14158.12
501.72	14274.85
501.923	14307.62
502.126	14813.47
502.329	14647.58
502.532	14887.2
502.735	15112.47
502.938	15309.08
503.141	15491.35
503.344	15751.44
503.547	15778.06
503.75	16152.84
503.953	16275.72
504.156	16412.93
504.359	16679.17
504.562	16611.59
504.765	17164.54
504.968	17432.82
505.17	17494.26
505.373	17780.98
505.576	17866.99
505.779	18092.27
505.982	18348.26
506.185	18538.73
506.387	18780.39
506.59	18907.36
506.793	19265.75
506.996	19181.79
507.198	19640.53
507.401	19353.82
507.604	19732.69
507.807	20371.66
508.009	20480.2
508.212	20590.79
508.415	20437.19
508.617	21051.58
508.82	21240
509.022	21338.3
509.225	21747.89
509.428	21708.98
509.63	22044.85
509.833	22057.14
510.035	22579.37
510.238	22911.14
510.44	23077.02
510.643	23525.53
510.845	23797.91
511.048	23785.62
511.25	24098.96
511.453	24115.34
511.655	25196.67
511.858	24805.51
512.06	24971.39
512.262	25360.51
512.465	25301.12
512.667	25886.84
512.87	26261.62
513.072	26339.44
513.274	26378.35
513.477	27005.03
513.679	27158.63
513.881	27555.93
514.084	28041.3
514.286	27994.2
514.488	28127.31
514.69	28784.71
514.893	28932.17
515.095	28731.47
515.297	29435.97
515.499	29423.68
515.701	30007.35
515.904	29984.82
516.106	30173.24
516.308	30771.24
516.51	31285.28
516.712	30939.18
516.914	31488.03
517.116	31954.97
517.318	31963.16
517.52	32389.14
517.722	32309.27
517.925	32866.31
518.127	33464.32
518.329	33431.55
518.531	33740.8
518.733	34050.04
518.935	34555.89
519.136	34445.3
519.338	34965.48
519.54	34975.72
519.742	35549.15
519.944	35385.32
520.146	35948.51
520.348	36253.65
520.55	36304.85
520.752	36679.63
520.954	37197.77
521.155	37199.82
521.357	37711.81
521.559	37763.01
521.761	38766.51
521.963	38703.03
522.164	38266.81
522.366	39057.32
522.568	38807.47
522.77	39835.55
522.971	39759.78
523.173	39837.6
523.375	40208.28
523.576	40001.44
523.778	40445.85
523.98	40648.6
524.181	40806.29
524.383	41174.92
524.584	41879.42
524.786	41480.07
524.988	41418.63
525.189	41715.59
525.391	42106.75
525.592	42493.82
525.794	42350.46
525.995	42887.03
526.197	42753.91
526.398	43159.41
526.6	43251.56
526.801	43298.67
527.003	43663.21
527.204	43472.74
527.406	43542.38
527.607	44334.94
527.808	43986.78
528.01	43616.1
528.211	44117.85
528.412	45320.01
528.614	44724.05
528.815	44730.2
529.016	45416.27
529.218	45264.72
529.419	44709.72
529.62	44801.88
529.822	45041.49
530.023	45231.95
530.224	45377.36
530.425	45197.13
530.626	45094.74
530.828	44595.03
531.029	46126.91
531.23	45535.05
531.431	45426.51
531.632	45784.9
531.833	45979.46
532.035	45592.39
532.236	46008.13
532.437	46237.5
532.638	45338.44
532.839	45954.88
533.04	46161.73
533.241	45600.58
533.442	46434.11
533.643	45940.55
533.844	46415.68
534.045	46372.67
534.246	45809.48
534.447	46532.41
534.648	45948.74
534.849	46370.62
535.05	46217.02
535.251	46712.63
535.451	45872.96
535.652	46376.76
535.853	46583.61
536.054	46360.38
536.255	46710.58
536.456	46239.55
536.657	46640.95
536.857	46591.8
537.058	46171.97
537.259	46456.64
537.46	46614.33
537.66	46415.68
537.861	46661.43
538.062	46081.86
538.263	46655.29
538.463	46284.61
538.664	46090.05
538.865	46364.48
539.065	46694.2
539.266	46022.47
539.466	46341.95
539.667	46020.42
539.868	47236.91
540.068	46475.07
540.269	46419.77
540.469	46737.21
540.67	46325.57
540.87	46149.44
541.071	46626.62
541.271	46634.81
541.472	46444.35
541.672	46214.97
541.873	46114.62
542.073	45702.98
542.274	46532.41
542.474	46161.73
542.675	46313.28
542.875	46444.35
543.075	46651.19
543.276	45789
543.476	46937.91
543.676	46450.49
543.877	46438.2
544.077	46196.54
544.277	46055.23
544.478	46614.33
544.678	45817.67
544.878	46282.56
545.078	46313.28
545.279	45748.04
545.479	46278.46
545.679	45983.55
545.879	46112.58
546.079	46321.47
546.28	45979.46
546.48	45770.57
546.68	46413.63
546.88	46327.61
547.08	46280.51
547.28	45938.5
547.48	45725.51
547.68	46143.3
547.88	46008.13
548.081	46022.47
548.281	45940.55
548.481	46038.85
548.681	46333.76
548.881	45938.5
549.081	45946.69
549.28	46188.35
549.48	46120.77
549.68	46147.39
549.88	46397.24
550.08	45866.82
550.28	46532.41
550.48	46067.52
550.68	46147.39
550.88	45975.36
551.08	45983.55
551.279	46065.47
551.479	45383.5
551.679	45741.89
551.879	45875.01
552.079	46057.28
552.278	45680.45
552.478	46214.97
552.678	46096.19
552.878	46401.34
553.077	46022.47
553.277	45754.18
553.477	46294.85
553.676	45774.66
553.876	45987.65
554.076	45803.33
554.275	45467.47
554.475	45244.24
554.674	45702.98
554.874	45799.24
555.074	45309.77
555.273	45782.85
555.473	45623.11
555.672	45426.51
555.872	45649.74
556.071	45514.57
556.271	46040.9
556.47	45291.34
556.67	45258.57
556.869	45498.19
557.068	45184.85
557.268	44969.81
557.467	45285.2
557.667	45393.74
557.866	45301.58
558.065	44961.62
558.265	45117.26
558.464	44828.5
558.663	45498.19
558.863	44666.71
559.062	45205.33
559.261	44674.9
559.461	45475.66
559.66	44705.62
559.859	44207.97
560.058	44283.74
560.258	44715.86
560.457	44238.68
560.656	44402.52
560.855	44570.46
561.054	44541.78
561.253	44013.41
561.453	44042.08
561.652	44531.54
561.851	44513.11
562.05	44191.58
562.249	44078.94
562.448	44140.38
562.647	44355.42
562.846	44091.23
563.045	43825
563.244	43409.26
563.443	44193.63
563.642	43337.58
563.841	43673.45
564.04	43564.9
564.239	43599.72
564.438	43308.91
564.637	43728.74
564.836	43378.54
565.035	43448.17
565.234	43196.27
565.432	43249.52
565.631	42977.14
565.83	43614.05
566.029	43081.58
566.228	42907.51
566.427	42647.41
566.625	42338.17
566.824	41863.04
567.023	42911.6
567.222	42213.24
567.42	42671.99
567.619	42045.31
567.818	41990.02
568.016	42129.28
568.215	42665.84
568.414	42293.11
568.612	42481.53
568.811	41977.73
569.01	41887.62
569.208	41322.38
569.407	42395.51
569.605	41486.21
569.804	41901.95
570.002	41369.48
570.201	41648
570.4	41017.23
570.598	41056.14
570.797	41179.02
570.995	41287.56
571.193	40249.24
571.392	41199.5
571.59	40720.27
571.789	40830.86
571.987	40689.56
572.186	40818.58
572.384	40193.95
572.582	40363.93
572.781	40789.91
572.979	39784.35
573.177	40179.61
573.376	40060.83
573.574	39667.62
573.772	39890.85
573.971	39872.42
574.169	39516.07
574.367	39714.72
574.565	39749.54
574.763	39327.66
574.962	39430.05
575.16	38764.46
575.358	39245.74
575.556	38531
575.754	39458.73
575.952	38453.17
576.151	38973.36
576.349	38307.77
576.547	38524.85
576.745	38576.05
576.943	38711.22
577.141	38619.06
577.339	38608.82
577.537	37910.46
577.735	38016.96
577.933	37971.9
578.131	38215.61
578.329	37697.47
578.527	37795.78
578.725	37910.46
578.923	37943.23
579.121	37437.38
579.319	37623.75
579.516	37742.53
579.714	37289.93
579.912	37128.14
580.11	36886.48
580.308	36831.18
580.506	36765.65
580.704	36196.31
580.901	36603.86
581.099	36667.34
581.297	36173.78
581.495	36546.51
581.692	36597.71
581.89	36118.49
582.088	36114.39
582.285	35842.01
582.483	36354.01
582.681	35928.03
582.878	35618.78
583.076	35569.63
583.274	35829.73
583.471	35219.43
583.669	35416.04
583.866	35166.18
584.064	35516.39
584.262	34719.73
584.459	35389.41
584.657	34875.37
584.854	35307.49
585.052	34250.74
585.249	34815.98
585.447	34648.05
585.644	34465.78
585.841	34459.63
586.039	34695.15
586.236	33914.87
586.434	34287.6
586.631	33951.74
586.828	33837.05
587.026	34060.28
587.223	33765.37
587.42	33841.15
587.618	33808.38
587.815	33751.04
588.012	33138.69
588.21	33189.89
588.407	33404.93
588.604	33099.78
588.801	33095.69
588.999	33304.58
589.196	32901.13
589.393	32989.19
589.59	32495.63
589.787	32565.26
589.984	32684.05
590.182	32006.17
590.379	32374.8
590.576	32051.22
590.773	32206.87
590.97	32186.39
591.167	32276.5
591.364	31727.64
591.561	31784.99
591.758	31641.63
591.955	31526.94
592.152	31807.51
592.349	31430.69
592.546	31393.82
592.743	31428.64
592.94	30828.59
593.137	31350.82
593.334	31232.04
593.531	30648.36
593.727	30738.47
593.924	30660.65
594.121	30648.36
594.318	30457.9
594.515	30380.08
594.712	30500.91
594.908	30441.52
595.105	30289.97
595.302	29986.87
595.499	30044.21
595.696	29929.53
595.892	29696.06
596.089	29818.94
596.286	29747.26
596.482	29673.53
596.679	29737.02
596.876	29560.89
597.072	29370.43
597.269	29405.25
597.466	28895.3
597.662	29102.15
597.859	29177.92
598.055	28969.03
598.252	28624.97
598.448	28995.65
598.645	28575.82
598.841	28575.82
599.038	28690.51
599.234	28690.51
599.431	28115.03
599.627	28289.1
599.824	28565.58
600.02	28207.19
600.217	28344.4
600.413	28067.92
600.609	27744.34
600.806	27793.5
601.002	27799.64
601.198	27580.51
601.395	27572.32
601.591	27418.72
601.787	27449.44
601.984	27177.06
602.18	27508.83
602.376	27115.62
602.572	27031.65
602.769	26841.19
602.965	26722.41
603.161	26763.37
603.357	26859.62
603.553	26876.01
603.75	26851.43
603.946	26275.95
604.142	26388.59
604.338	26337.39
604.534	26335.34
604.73	25860.21
604.926	25882.74
605.122	26175.6
605.318	25899.12
605.514	25690.23
605.71	25483.39
605.906	25215.1
606.102	25567.35
606.298	25403.52
606.494	25487.48
606.69	25712.76
606.886	25813.11
607.082	25149.57
607.278	25170.05
607.474	25137.28
607.67	25108.61
607.866	24731.78
608.062	25018.5
608.257	24825.99
608.453	25122.94
608.649	24727.69
608.845	24891.52
609.041	24742.02
609.236	24641.67
609.432	24653.96
609.628	24637.58
609.824	24262.8
610.019	24445.07
610.215	24254.61
610.411	24408.2
610.606	24199.31
610.802	24221.84
610.998	24066.19
611.193	24180.88
611.389	23838.87
611.584	23941.27
611.78	23759
611.976	23632.02
612.171	23918.74
612.367	23863.44
612.562	23513.24
612.758	23617.69
612.953	23306.4
613.149	23546.01
613.344	23531.67
613.539	23441.56
613.735	23474.33
613.93	23480.47
614.126	23064.74
614.321	23429.27
614.517	23337.12
614.712	23054.5
614.907	23230.62
615.103	23091.36
615.298	23064.74
615.493	23271.58
615.688	22706.34
615.884	23328.92
616.079	22847.65
616.274	23048.35
616.47	22282.41
616.665	22630.57
616.86	22266.03
617.055	22227.12
617.25	22376.62
617.445	22403.24
617.641	22018.22
617.836	22530.22
618.031	22270.12
618.226	22225.07
618.421	21754.04
618.616	22182.06
618.811	21645.49
619.006	22036.66
619.201	21665.97
619.396	21582.01
619.591	21381.31
619.786	21332.15
619.981	21035.2
620.176	21244.09
620.371	20967.62
620.566	21108.93
620.761	21258.43
620.956	21196.99
621.151	20517.06
621.346	21020.86
621.541	20408.52
621.735	20715.72
621.93	20461.77
622.125	20545.73
622.32	20117.71
622.515	20392.14
622.709	19761.36
622.904	19972.3
623.099	19933.39
623.294	19796.18
623.488	19517.65
623.683	19527.89
623.878	19232.99
624.072	19747.03
624.267	19288.28
624.462	19280.09
624.656	18770.15
624.851	18702.56
625.046	18772.19
625.24	18634.98
625.435	18731.23
625.629	18395.37
625.824	18313.45
626.018	18211.05
626.213	18202.86
626.407	18510.05
626.602	17641.71
626.796	18004.21
626.991	17871.09
627.185	17729.78
627.38	17838.32
627.574	17285.37
627.768	17324.28
627.963	17477.88
628.157	17000.7
628.352	17420.53
628.546	17121.53
628.74	16802.05
628.935	16959.74
629.129	17219.83
629.323	16486.66
629.517	16548.1
629.712	16462.08
629.906	16476.42
630.1	16331.01
630.294	16423.17
630.489	16081.16
630.683	16253.19
630.877	15884.56
631.071	15864.08
631.265	16142.6
631.459	15902.99
631.653	15730.96
631.848	15685.9
632.042	15579.41
632.236	15460.63
632.43	15438.1
632.624	15595.79
632.818	15098.14
633.012	15003.93
633.206	14864.67
633.4	15091.99
633.594	14983.45
633.788	14872.86
633.982	14719.26
634.176	14563.62
634.369	14539.04
634.563	14446.88
634.757	14418.21
634.951	14455.08
635.145	14260.52
635.339	14031.15
635.533	14262.57
635.726	14010.67
635.92	13918.51
636.114	14000.43
636.308	13957.42
636.501	13754.67
636.695	13748.53
636.889	13617.46
637.083	13484.34
637.276	13424.95
637.47	13379.89
637.664	13287.73
637.857	13267.25
638.051	13148.47
638.244	13056.31
638.438	13132.09
638.632	13312.31
638.825	12869.95
639.019	12753.21
639.212	12816.7
639.406	12869.95
639.599	12620.1
639.793	12622.14
639.986	12525.89
640.18	12579.14
640.373	12622.14
640.567	12079.43
640.76	12187.97
640.954	12093.77
641.147	12140.87
641.34	11931.98
641.534	11942.22
641.727	11858.25
641.92	12013.9
642.114	11768.14
642.307	11553.1
642.5	11483.47
642.694	11374.93
642.887	11358.55
643.08	11536.72
643.273	11278.68
643.467	11360.59
643.66	11405.65
643.853	11182.42
644.046	10979.67
644.239	10932.57
644.432	11008.34
644.626	10965.34
644.819	10965.34
645.012	10948.95
645.205	10883.42
645.398	10838.36
645.591	10654.05
645.784	10461.54
645.977	10326.37
646.17	10488.16
646.363	10385.76
646.556	10195.3
646.749	10230.12
646.942	10281.32
647.135	10146.15
647.328	10008.94
647.521	9793.9
647.714	9859.43
647.907	9830.76
648.099	9742.7
648.292	9879.91
648.485	9920.87
648.678	9527.66
648.871	9494.9
649.064	9531.76
649.256	9480.56
649.449	9511.28
649.642	9388.4
649.835	9335.15
650.027	9159.03
650.22	9314.67
650.413	9093.49
650.605	9171.32
650.798	9120.12
650.991	8864.12
651.183	8966.52
651.376	8950.14
651.568	8933.75
651.761	8913.27
651.954	8790.39
652.146	8806.78
652.339	8745.34
652.531	8739.19
652.724	8513.92
652.916	8444.29
653.109	8378.75
653.301	8337.79
653.494	8587.64
653.686	8446.34
653.879	8458.62
654.071	8249.73
654.263	8010.12
654.456	8149.38
654.648	8178.05
654.84	8028.55
655.033	7965.06
655.225	8098.18
655.417	7999.88
655.61	7963.01
655.802	7852.42
655.994	7610.76
656.186	7891.34
656.379	7668.11
656.571	7641.48
656.763	7733.64
656.955	7483.79
657.148	7588.24
657.34	7440.78
657.532	7299.47
657.724	7309.71
657.916	7238.03
658.108	7235.99
658.3	7313.81
658.492	7221.65
658.684	7098.77
658.876	7059.86
659.068	6867.35
659.26	7059.86
659.452	7043.48
659.644	6941.08
659.836	7006.61
660.028	6767
660.22	6756.76
660.412	7029.14
660.604	6683.03
660.796	6685.08
660.988	6541.72
661.18	6386.08
661.372	6513.05
661.563	6601.12
661.755	6480.29
661.947	6418.85
662.139	6361.5
662.331	6457.76
662.522	6154.66
662.714	6312.35
662.906	6064.55
663.097	6144.42
663.289	5988.77
663.481	6152.61
663.673	6148.51
663.864	6005.16
664.056	5810.6
664.247	5857.7
664.439	5829.03
664.631	5794.22
664.822	5929.38
665.014	5855.65
665.205	5702.06
665.397	5595.56
665.588	5820.84
665.78	5677.48
665.971	5736.87
666.163	5673.39
666.354	5511.6
666.546	5530.03
666.737	5403.05
666.929	5484.97
667.12	5276.08
667.311	5435.82
667.503	5347.76
667.694	5280.18
667.885	5259.7
668.077	5169.59
668.268	5214.64
668.459	5108.15
668.651	5114.29
668.842	5050.8
669.033	5095.86
669.224	5058.99
669.416	5124.53
669.607	4891.06
669.798	4977.08
669.989	4944.31
670.18	5028.28
670.371	5032.37
670.563	4948.4
670.754	4895.16
670.945	4870.58
671.136	4751.8
671.327	4741.56
671.518	4671.93
671.709	4600.25
671.9	4694.46
672.091	4624.83
672.282	4620.73
672.473	4594.11
672.664	4610.49
672.855	4669.88
673.046	4469.18
673.237	4508.09
673.428	4510.14
673.619	4497.85
673.809	4508.09
674	4403.64
674.191	4487.61
674.382	4321.73
674.573	4379.07
674.764	4319.68
674.954	4368.83
675.145	4323.77
675.336	4291.01
675.527	4356.54
675.717	4299.2
675.908	4264.38
676.099	4231.62
676.289	4243.9
676.48	4204.99
676.671	4223.42
676.861	4256.19
677.052	4035.01
677.243	4159.94
677.433	4129.22
677.624	4213.18
677.814	4008.39
678.005	4190.66
678.195	4075.97
678.386	4065.73
678.576	3996.1
678.767	3936.71
678.957	4039.11
679.148	3840.45
679.338	4053.44
679.529	4020.67
679.719	4010.43
679.909	3928.52
680.1	3967.43
680.29	3895.75
680.481	3815.88
680.671	3975.62
680.861	3838.41
681.052	3946.95
681.242	3801.54
681.432	3873.22
681.622	3824.07
681.813	3764.68
682.003	3897.8
682.193	3791.3
682.383	3858.89
682.573	3830.21
682.764	3838.41
682.954	3641.8
683.144	3750.34
683.334	3740.1
683.524	3805.64
683.714	3658.18
683.904	3799.49
684.094	3879.36
684.284	3682.76
684.474	3740.1
684.664	3717.58
684.854	3699.14
685.044	3774.92
685.234	3658.18
685.424	3807.69
685.614	3594.7
685.804	3656.14
685.994	3656.14
686.184	3668.42
686.374	3641.8
686.564	3611.08
686.753	3592.65
686.943	3637.7
687.133	3633.61
687.323	3690.95
687.513	3477.96
687.702	3602.89
687.892	3502.54
688.082	3645.9
688.272	3637.7
688.461	3434.96
688.651	3584.46
688.841	3389.9
689.03	3469.77
689.22	3441.1
689.41	3408.33
689.599	3461.58
689.789	3441.1
689.979	3445.2
690.168	3375.56
690.358	3402.19
690.547	3465.68
690.737	3226.06
690.926	3449.29
691.116	3338.7
691.305	3420.62
691.495	3322.32
691.684	3334.61
691.874	3355.08
692.063	3355.08
692.252	3396.04
692.442	3383.76
692.631	3154.38
692.82	3236.3
693.01	3328.46
693.199	3449.29
693.388	3217.87
693.578	3334.61
693.767	3228.11
693.956	3236.3
694.146	3191.25
694.335	3209.68
694.524	3103.18
694.713	3310.03
694.902	3162.58
695.092	3226.06
695.281	3185.1
695.47	3129.81
695.659	3189.2
695.848	3107.28
696.037	3107.28
696.226	3224.01
696.415	3191.25
696.604	3103.18
696.793	2986.45
696.982	3101.14
697.171	3109.33
697.36	3133.9
697.549	3068.37
697.738	3035.6
697.927	3051.99
698.116	3080.66
698.305	3037.65
698.494	3101.14
698.683	3023.31
698.872	3080.66
699.061	3056.08
699.25	2963.92
699.438	3045.84
699.627	2972.11
699.816	3129.81
700.005	3027.41
700.193	3002.83
700.382	3060.18
700.571	3004.88
700.76	2976.21
700.948	2965.97
701.137	2896.34
701.326	2892.24
701.514	2843.09
701.703	2998.74
701.892	2933.2
702.08	2916.82
702.269	3000.79
702.457	2927.06
702.646	2884.05
702.834	2947.54
703.023	2865.62
703.212	2781.65
703.4	2884.05
703.589	2839
703.777	2847.19
703.965	2761.17
704.154	2841.04
704.342	2822.61
704.531	2828.76
704.719	2789.85
704.907	2798.04
705.096	2703.83
705.284	2716.12
705.472	2718.17
705.661	2765.27
705.849	2912.72
706.037	2724.31
706.226	2728.41
706.414	2761.17
706.602	2724.31
706.79	2736.6
706.979	2793.94
707.167	2814.42
707.355	2773.46
707.543	2781.65
707.731	2699.73
707.919	2693.59
708.107	2607.58
708.296	2546.14
708.484	2757.08
708.672	2646.49
708.86	2660.82
709.048	2693.59
709.236	2675.16
709.424	2707.93
709.612	2709.97
709.8	2601.43
709.988	2558.42
710.176	2585.05
710.364	2585.05
710.551	2673.11
710.739	2560.47
710.927	2628.06
711.115	2556.38
711.303	2568.66
711.491	2572.76
711.679	2601.43
711.866	2568.66
712.054	2490.84
712.242	2519.51
712.43	2634.2
712.617	2597.34
712.805	2505.18
712.993	2415.07
713.181	2453.98
713.368	2527.71
713.556	2548.19
713.744	2316.76
713.931	2537.95
714.119	2458.07
714.306	2583
714.494	2372.06
714.682	2406.88
714.869	2404.83
715.057	2443.74
715.244	2470.36
715.432	2496.99
715.619	2382.3
715.807	2335.2
715.994	2355.68
716.182	2490.84
716.369	2417.12
716.556	2335.2
716.744	2355.68
716.931	2384.35
717.119	2384.35
717.306	2253.28
717.493	2355.68
717.681	2402.78
717.868	2331.1
718.055	2382.3
718.242	2288.09
718.43	2286.05
718.617	2249.18
718.804	2314.72
718.991	2236.89
719.179	2310.62
719.366	2281.95
719.553	2310.62
719.74	2163.17
719.927	2228.7
720.114	2281.95
720.301	2204.13
720.488	2298.33
720.676	2298.33
720.863	2281.95
721.05	2273.76
721.237	2208.22
721.424	2259.42
721.611	2247.13
721.798	2191.84
721.985	2273.76
722.172	2095.58
722.358	2099.68
722.545	2150.88
722.732	2058.72
722.919	2138.59
723.106	2068.96
723.293	2109.92
723.48	2066.91
723.667	2146.78
723.853	2081.25
724.04	2118.11
724.227	2175.45
724.414	2068.96
724.6	2073.06
724.787	2081.25
724.974	2101.73
725.161	2007.52
725.347	2089.44
725.534	1993.19
725.72	2003.43
725.907	2105.82
726.094	2021.86
726.28	1968.61
726.467	1946.08
726.653	1964.51
726.84	2122.21
727.027	1976.8
727.213	1982.95
727.4	1982.95
727.586	1980.9
727.773	1956.32
727.959	1982.95
728.145	1966.56
728.332	1954.27
728.518	1948.13
728.705	1970.66
728.891	2044.38
729.077	1962.47
729.264	1864.16
729.45	1962.47
729.636	1941.99
729.823	1915.36
730.009	1978.85
730.195	1978.85
730.382	1919.46
730.568	1896.93
730.754	1851.88
730.94	1851.88
731.126	1896.93
731.313	1999.33
731.499	1839.59
731.685	1929.7
731.871	1901.03
732.057	1872.36
732.243	1894.88
732.429	1831.4
732.615	1823.2
732.801	1784.29
732.987	1925.6
733.173	1929.7
733.359	1864.16
733.545	1843.68
733.731	1851.88
733.917	1896.93
734.103	1847.78
734.289	1724.9
734.475	1798.63
734.661	1849.83
734.847	1851.88
735.033	1733.09
735.219	1800.68
735.404	1815.01
735.59	1747.43
735.776	1780.2
735.962	1800.68
736.148	1731.05
736.333	1804.77
736.519	1657.32
736.705	1763.81
736.89	1724.9
737.076	1776.1
737.262	1706.47
737.447	1825.25
737.633	1708.52
737.819	1786.34
738.004	1663.46
738.19	1602.02
738.375	1659.37
738.561	1595.88
738.747	1642.98
738.932	1718.76
739.118	1716.71
739.303	1610.22
739.489	1685.99
739.674	1733.09
739.859	1595.88
740.045	1618.41
740.23	1606.12
740.416	1520.1
740.601	1608.17
740.786	1597.93
740.972	1544.68
741.157	1597.93
741.342	1597.93
741.528	1602.02
741.713	1552.87
741.898	1606.12
742.084	1602.02
742.269	1542.63
742.454	1561.06
742.639	1587.69
742.824	1651.17
743.01	1593.83
743.195	1577.45
743.38	1493.48
743.565	1561.06
743.75	1503.72
743.935	1487.34
744.12	1460.71
744.305	1446.38
744.49	1415.66
744.675	1479.15
744.86	1372.65
745.045	1559.02
745.23	1397.23
745.415	1411.56
745.6	1542.63
745.785	1423.85
745.97	1456.62
746.155	1415.66
746.34	1475.05
746.525	1415.66
746.71	1495.53
746.895	1343.98
747.079	1352.17
747.264	1397.23
747.449	1309.16
747.634	1384.94
747.819	1403.37
748.003	1352.17
748.188	1266.16
748.373	1290.73
748.557	1323.5
748.742	1300.97
748.927	1278.44
749.111	1327.6
749.296	1241.58
749.481	1194.48
749.665	1235.44
749.85	1137.13
750.034	1237.49
750.219	1294.83
750.404	1217.01
750.588	1221.1
750.773	1116.65
750.957	1266.16
751.141	1184.24
751.326	1221.1
751.51	1192.43
751.695	1171.95
751.879	1198.57
752.064	1192.43
752.248	1118.7
752.432	1214.96
752.617	1237.49
752.801	1149.42
752.985	987.63
753.17	1174
753.354	1130.99
753.538	1049.07
753.722	1051.12
753.907	1126.89
754.091	1038.83
754.275	1061.36
754.459	1085.94
754.643	1167.85
754.828	1055.22
755.012	1196.53
755.196	1055.22
755.38	1053.17
755.564	1061.36
755.748	985.58
755.932	987.63
756.116	940.53
756.3	1087.98
756.484	999.92
756.668	930.29
756.852	1012.21
757.036	1026.54
757.22	948.72
757.404	967.15
757.588	866.8
757.772	981.49
757.956	963.06
758.14	965.11
758.323	874.99
758.507	930.29
758.691	948.72
758.875	956.91
759.059	922.1
759.242	852.47
759.426	938.48
759.61	909.81
759.794	872.95
759.977	893.43
760.161	901.62
760.345	922.1
760.528	784.88
760.712	858.61
760.895	893.43
761.079	881.14
761.263	733.68
761.446	848.37
761.63	930.29
761.813	881.14
761.997	729.59
762.18	913.91
762.364	815.6
762.547	868.85
762.731	831.99
762.914	866.8
763.098	778.74
763.281	846.32
763.464	815.6
763.648	768.5
763.831	872.95
764.015	850.42
764.198	864.75
764.381	758.26
764.564	782.84
764.748	739.83
764.931	750.07
765.114	745.97
765.297	754.16
765.481	805.36
765.664	879.09
765.847	702.97
766.03	717.3
766.213	676.34
766.397	840.18
766.58	670.2
766.763	741.88
766.946	709.11
767.129	731.64
767.312	733.68
767.495	756.21
767.678	766.45
767.861	696.82
768.044	711.16
768.227	745.97
768.41	680.44
768.593	725.49
768.776	709.11
768.959	766.45
769.142	717.3
769.324	627.19
769.507	688.63
769.69	705.01
769.873	702.97
770.056	694.77
770.239	659.96
770.421	762.36
770.604	729.59
770.787	653.81
770.97	692.73
771.152	631.29
771.335	758.26
771.518	627.19
771.7	645.62
771.883	659.96
772.066	645.62
772.248	635.38
772.431	602.61
772.613	664.05
772.796	684.53
772.978	659.96
773.161	750.07
773.343	561.66
773.526	578.04
773.708	672.25
773.891	565.75
774.073	612.85
774.256	580.09
774.438	602.61
774.621	565.75
774.803	635.38
774.985	594.42
775.168	553.46
775.35	610.81
775.532	596.47
775.715	565.75
775.897	647.67
776.079	635.38
776.261	520.7
776.444	619
776.626	559.61
776.808	594.42
776.99	594.42
777.173	612.85
777.355	475.64
777.537	619
777.719	608.76
777.901	596.47
778.083	539.13
778.265	569.85
778.447	633.33
778.629	512.5
778.811	504.31
778.993	500.22
779.175	582.14
779.357	512.5
779.539	528.89
779.721	573.94
779.903	573.94
780.085	504.31
780.267	492.02
780.449	444.92
780.631	610.81
780.812	528.89
780.994	522.74
781.176	383.48
781.358	414.2
781.54	473.59
781.721	514.55
781.903	471.54
782.085	377.34
782.267	434.68
782.448	395.77
782.63	432.63
782.812	487.93
782.993	389.63
783.175	463.35
783.357	406.01
783.538	471.54
783.72	459.26
783.901	430.59
784.083	311.8
784.264	442.87
784.446	340.47
784.627	410.11
784.809	422.39
784.99	463.35
785.172	463.35
785.353	397.82
785.535	389.63
785.716	365.05
785.897	385.53
786.079	358.91
786.26	369.15
786.441	375.29
786.623	264.7
786.804	344.57
786.985	410.11
787.167	373.24
787.348	285.18
787.529	389.63
787.71	432.63
787.891	367.1
788.073	365.05
788.254	266.75
788.435	363
788.616	322.04
788.797	315.9
788.978	311.8
789.159	252.41
789.34	375.29
789.522	315.9
789.703	350.71
789.884	348.67
790.065	281.08
790.246	348.67
790.427	303.61
790.607	301.56
790.788	299.52
790.969	289.28
791.15	274.94
791.331	346.62
791.512	283.13
791.693	250.36
791.874	233.98
792.054	367.1
792.235	346.62
792.416	256.51
792.597	285.18
792.778	307.71
792.958	389.63
793.139	307.71
793.32	295.42
793.5	252.41
793.681	266.75
793.862	225.79
794.042	268.8
794.223	233.98
794.404	252.41
794.584	274.94
794.765	209.4
794.945	307.71
795.126	301.56
795.306	242.17
795.487	258.56
795.667	313.85
795.848	295.42
796.028	268.8
796.209	225.79
796.389	279.04
796.57	311.8
796.75	252.41
796.93	213.5
797.111	258.56
797.291	244.22
797.471	246.27
797.652	213.5
797.832	236.03
798.012	279.04
798.192	219.64
798.373	213.5
798.553	209.4
798.733	299.52
798.913	193.02
799.093	270.84
799.274	201.21
799.454	197.12
799.634	213.5
799.814	258.56
799.994	209.4
800.174	213.5
800.354	254.46
800.534	217.6
800.714	223.74
800.894	199.16
801.074	276.99
801.254	176.64
801.434	178.69
801.614	254.46
801.794	150.01
801.974	791.03
802.154	168.45
802.334	244.22
802.514	199.16
802.693	166.4
802.873	147.97
803.053	143.87
803.233	209.4
803.413	197.12
803.592	170.49
803.772	127.49
803.952	137.73
804.131	158.21
804.311	166.4
804.491	217.6
804.67	111.1
804.85	139.77
805.03	158.21
805.209	145.92
805.389	201.21
805.568	164.35
805.748	98.81
805.928	221.69
806.107	125.44
806.287	201.21
806.466	182.78
806.646	184.83
806.825	174.59
807.004	139.77
807.184	170.49
807.363	178.69
807.543	217.6
807.722	139.77
807.901	188.93
808.081	276.99
808.26	96.77
808.439	100.86
808.619	176.64
808.798	107.01
808.977	205.31
809.156	152.06
809.336	184.83
809.515	168.45
809.694	164.35
809.873	125.44
810.052	135.68
810.231	164.35
810.411	111.1
810.59	102.91
810.769	96.77
810.948	188.93
811.127	127.49
811.306	217.6
811.485	250.36
811.664	186.88
811.843	184.83
812.022	127.49
812.201	160.25
812.38	156.16
812.559	88.57
812.737	211.45
812.916	35.33
813.095	94.72
813.274	102.91
813.453	176.64
813.632	164.35
813.811	111.1
813.989	139.77
814.168	166.4
814.347	190.97
814.526	115.2
814.704	156.16
814.883	201.21
815.062	64
815.24	195.07
815.419	64
815.598	88.57
815.776	16.9
815.955	164.35
816.133	111.1
816.312	113.15
816.49	86.53
816.669	88.57
816.847	139.77
817.026	133.63
817.204	127.49
817.383	80.38
817.561	92.67
817.74	145.92
817.918	111.1
818.097	154.11
818.275	102.91
818.453	147.97
818.632	121.34
818.81	135.68
818.988	94.72
819.167	172.54
819.345	164.35
819.523	143.87
819.701	53.76
819.879	152.06
820.058	137.73
820.236	104.96
820.414	94.72
820.592	127.49
820.77	49.66
820.948	109.05
821.127	102.91
821.305	141.82
821.483	68.09
821.661	180.73
821.839	78.33
822.017	174.59
822.195	121.34
822.373	162.3
822.551	96.77
822.729	127.49
822.907	70.14
823.085	158.21
823.262	29.18
823.44	53.76
823.618	82.43
823.796	66.05
823.974	96.77
824.152	61.95
824.329	29.18
824.507	80.38
824.685	82.43
824.863	37.38
825.04	127.49
825.218	111.1
825.396	86.53
825.574	53.76
825.751	64
825.929	143.87
826.107	53.76
826.284	80.38
826.462	20.99
826.639	45.57
826.817	61.95
826.994	57.86
827.172	78.33
827.349	119.29
827.527	43.52
827.704	61.95
827.882	82.43
828.059	57.86
828.237	37.38
828.414	141.82
828.591	31.23
828.769	111.1
828.946	39.42
829.124	94.72
829.301	80.38
829.478	94.72
829.655	72.19
829.833	86.53
830.01	64
830.187	82.43
830.364	74.24
830.542	86.53
830.719	94.72
830.896	164.35
831.073	66.05
831.25	96.77
831.427	104.96
831.604	152.06
831.782	92.67
831.959	111.1
832.136	53.76
832.313	45.57
832.49	86.53
832.667	29.18
832.844	66.05
833.021	113.15
833.198	170.49
833.374	68.09
833.551	59.9
833.728	45.57
833.905	55.81
834.082	-17.92
834.259	86.53
834.436	131.58
834.612	102.91
834.789	72.19
834.966	23.04
835.143	53.76
835.319	18.94
835.496	100.86
835.673	61.95
835.85	115.2
836.026	6.66
836.203	170.49
836.38	25.09
836.556	51.71
836.733	57.86
836.909	70.14
837.086	78.33
837.262	-9.73
837.439	53.76
837.616	20.99
837.792	53.76
837.968	61.95
838.145	27.14
838.321	23.04
838.498	37.38
838.674	135.68
838.851	53.76
839.027	90.62
839.203	20.99
839.38	20.99
839.556	29.18
839.732	141.82
839.909	8.7
840.085	78.33
840.261	-19.97
840.437	61.95
840.614	78.33
840.79	135.68
840.966	31.23
841.142	72.19
841.318	86.53
841.494	90.62
841.671	96.77
841.847	31.23
842.023	64
842.199	129.53
842.375	113.15
842.551	78.33
842.727	39.42
842.903	109.05
843.079	-11.78
843.255	64
843.431	43.52
843.607	88.57
843.783	23.04
843.959	102.91
844.134	84.48
844.31	64
844.486	59.9
844.662	25.09
844.838	45.57
845.013	119.29
845.189	86.53
845.365	66.05
845.541	39.42
845.716	53.76
845.892	61.95
846.068	23.04
846.244	113.15
846.419	90.62
846.595	16.9
846.77	4.61
846.946	113.15
847.122	47.62
847.297	-26.11
847.473	123.39
847.648	29.18
847.824	98.81
847.999	-3.58
848.175	127.49
848.35	29.18
848.526	2.56
848.701	104.96
848.876	20.99
849.052	-42.5
849.227	25.09
849.403	20.99
849.578	70.14
849.753	0.51
849.929	-3.58
850.104	23.04
850.279	86.53
850.454	55.81
850.63	64
850.805	47.62
850.98	-7.68
851.155	4.61
851.33	88.57
851.505	37.38
851.681	119.29
851.856	61.95
852.031	86.53
852.206	0.51
852.381	8.7
852.556	-28.16
852.731	78.33
852.906	35.33
853.081	119.29
853.256	20.99
853.431	14.85
853.606	6.66
853.781	20.99
853.956	33.28
854.131	55.81
854.305	72.19
854.48	70.14
854.655	59.9
854.83	80.38
855.005	-30.21
855.18	55.81
855.354	37.38
855.529	111.1
855.704	12.8
855.879	45.57
856.053	45.57
856.228	20.99
856.403	35.33
856.577	-11.78
856.752	-46.59
856.926	23.04
857.101	53.76
857.276	23.04
857.45	-11.78
857.625	55.81
857.799	37.38
857.974	6.66
858.148	35.33
858.323	45.57
858.497	-28.16
858.672	-7.68
858.846	25.09
859.02	-19.97
859.195	4.61
859.369	-7.68
859.543	33.28
859.718	-17.92
859.892	20.99
860.066	143.87
860.241	12.8
860.415	-60.93
860.589	-7.68
860.763	-1.54
860.938	31.23
861.112	29.18
861.286	29.18
861.46	66.05
861.634	-17.92
861.808	96.77
861.982	-17.92
862.157	4.61
862.331	37.38
862.505	14.85
862.679	29.18
862.853	-1.54
863.027	18.94
863.201	86.53
863.375	90.62
863.549	37.38
863.722	-5.63
863.896	-1.54
864.07	-3.58
864.244	37.38
864.418	-7.68
864.592	10.75
864.766	6.66
864.939	14.85
865.113	-48.64
865.287	82.43
865.461	6.66
865.634	102.91
865.808	4.61
865.982	84.48
866.156	-17.92
866.329	-81.41
866.503	-7.68
866.676	-3.58
866.85	-11.78
867.024	-13.82
867.197	152.06
867.371	49.66
867.544	23.04
867.718	-17.92
867.891	61.95
868.065	-19.97
868.238	45.57
868.412	45.57
868.585	45.57
868.759	14.85
868.932	39.42
869.105	20.99
869.279	25.09
869.452	-11.78
869.625	-48.64
869.799	12.8
869.972	-44.54
870.145	-36.35
870.319	-15.87
870.492	20.99
870.665	-32.26
870.838	43.52
871.011	-11.78
871.185	119.29
871.358	31.23
871.531	33.28
871.704	0.51
871.877	-36.35
872.05	82.43
872.223	16.9
872.396	8.7
872.569	41.47
872.742	23.04
872.915	14.85
873.088	6.66
873.261	-52.74
873.434	6.66
873.607	64
873.78	68.09
873.953	-24.06
874.126	43.52
874.299	20.99
874.471	27.14
874.644	-28.16
874.817	31.23
874.99	41.47
875.163	41.47
875.335	31.23
875.508	53.76
875.681	86.53
875.853	16.9
876.026	-19.97
876.199	14.85
876.371	0.51
876.544	61.95
876.717	6.66
876.889	6.66
877.062	-32.26
877.234	-5.63
877.407	12.8
877.579	-32.26
877.752	47.62
877.924	20.99
878.097	74.24
878.269	20.99
878.442	-1.54
878.614	8.7
878.786	37.38
878.959	4.61
879.131	18.94
879.303	-5.63
879.476	8.7
879.648	78.33
879.82	102.91
879.993	20.99
880.165	-97.79
880.337	-28.16
880.509	31.23
880.681	-58.88
880.854	23.04
881.026	-9.73
881.198	61.95
881.37	31.23
881.542	37.38
881.714	80.38
881.886	-44.54
882.058	18.94
882.23	-24.06
882.402	94.72
882.574	8.7
882.746	-22.02
882.918	49.66
883.09	61.95
883.262	61.95
883.434	-22.02
883.606	39.42
883.778	88.57
883.95	129.53
884.122	70.14
884.293	74.24
884.465	4.61
884.637	66.05
884.809	-1.54
884.98	47.62
885.152	10.75
885.324	61.95
885.496	-85.5
885.667	-9.73
885.839	33.28
886.011	78.33
886.182	55.81
886.354	14.85
886.525	78.33
886.697	16.9
886.869	-26.11
887.04	23.04
887.212	53.76
887.383	39.42
887.555	66.05
887.726	64
887.897	16.9
888.069	16.9
888.24	12.8
888.412	53.76
888.583	16.9
888.754	16.9
888.926	10.75
889.097	-13.82
889.268	-52.74
889.44	-38.4
889.611	45.57
889.782	-50.69
889.953	-44.54
890.125	57.86
890.296	20.99
890.467	16.9
890.638	-26.11
890.809	39.42
890.98	-40.45
891.151	-1.54
891.323	-3.58
891.494	86.53
891.665	-26.11
891.836	29.18
892.007	12.8
892.178	2.56
892.349	25.09
892.52	37.38
892.691	29.18
892.862	-36.35
893.032	31.23
893.203	20.99
893.374	-42.5
893.545	0.51
893.716	-15.87
893.887	4.61
894.057	-11.78
894.228	29.18
894.399	-28.16
894.57	29.18
894.74	57.86
894.911	-3.58
895.082	47.62
895.253	37.38
895.423	8.7
895.594	20.99
895.764	-1.54
895.935	-34.3
896.106	14.85
896.276	4.61
896.447	-38.4
896.617	-60.93
896.788	-54.78
896.958	10.75
897.129	74.24
897.299	12.8
897.47	0.51
897.64	109.05
897.81	2.56
897.981	35.33
898.151	-60.93
898.322	-3.58
898.492	-19.97
898.662	-58.88
898.832	14.85
899.003	4.61
899.173	6.66
899.343	4.61
899.513	20.99
