Data from USB4F104151__300__14-46-38-351.txt Node

Date: Thu Mar 13 14:46:38 EDT 2025
User: louis
Spectrometer: USB4F10415
Trigger mode: 4
Integration Time (sec): 2.000000E-2
Scans to average: 1
Electric dark correction enabled: true
Nonlinearity correction enabled: false
Boxcar width: 0
XAxis mode: Wavelengths
Number of Pixels in Spectrum: 3648
>>>>>Begin Spectral Data<<<<<
178.204	-76.97
178.424	-76.97
178.644	-76.97
178.864	-142.5
179.084	-99.5
179.304	39.76
179.524	4.95
179.744	29.52
179.964	58.2
180.184	23.38
180.404	-25.77
180.624	-62.63
180.844	25.43
181.064	-56.49
181.283	-40.11
181.503	-33.96
181.723	37.72
181.943	-23.72
182.163	115.54
182.383	-72.87
182.602	64.34
182.822	-19.63
183.042	95.06
183.262	-3.24
183.482	64.34
183.701	68.44
183.921	19.29
184.141	97.11
184.361	107.35
184.58	80.72
184.8	60.24
185.02	-11.43
185.239	78.68
185.459	21.33
185.679	95.06
185.898	7
186.118	29.52
186.338	70.48
186.557	144.21
186.777	19.29
186.997	17.24
187.216	29.52
187.436	129.88
187.655	-5.29
187.875	45.91
188.095	70.48
188.314	136.02
188.534	-9.39
188.753	107.35
188.973	56.15
189.192	54.1
189.412	56.15
189.631	25.43
189.851	-9.39
190.07	4.95
190.29	37.72
190.509	60.24
190.729	39.76
190.948	72.53
191.168	90.96
191.387	97.11
191.607	-1.19
191.826	64.34
192.045	86.87
192.265	58.2
192.484	21.33
192.704	17.24
192.923	62.29
193.142	119.64
193.362	95.06
193.581	162.64
193.8	31.57
194.02	45.91
194.239	80.72
194.458	37.72
194.678	33.62
194.897	23.38
195.116	4.95
195.335	37.72
195.555	90.96
195.774	39.76
195.993	2.9
196.212	23.38
196.432	-44.2
196.651	39.76
196.87	9.05
197.089	101.2
197.308	37.72
197.528	103.25
197.747	52.05
197.966	-1.19
198.185	37.72
198.404	54.1
198.623	33.62
198.842	60.24
199.062	11.09
199.281	103.25
199.5	86.87
199.719	78.68
199.938	37.72
200.157	86.87
200.376	45.91
200.595	103.25
200.814	50
201.033	-44.2
201.252	45.91
201.471	54.1
201.69	72.53
201.909	95.06
202.128	131.92
202.347	58.2
202.566	62.29
202.785	39.76
203.004	90.96
203.223	86.87
203.442	99.16
203.661	54.1
203.879	99.16
204.098	35.67
204.317	7
204.536	66.39
204.755	54.1
204.974	62.29
205.193	-3.24
205.411	54.1
205.63	123.73
205.849	90.96
206.068	29.52
206.287	37.72
206.505	103.25
206.724	60.24
206.943	7
207.162	-7.34
207.381	90.96
207.599	68.44
207.818	78.68
208.037	80.72
208.255	62.29
208.474	156.5
208.693	21.33
208.911	70.48
209.13	136.02
209.349	105.3
209.567	129.88
209.786	80.72
210.005	-11.43
210.223	7
210.442	39.76
210.661	37.72
210.879	54.1
211.098	62.29
211.316	-3.24
211.535	86.87
211.753	88.92
211.972	119.64
212.191	54.1
212.409	58.2
212.628	70.48
212.846	-17.58
213.065	68.44
213.283	136.02
213.502	0.85
213.72	33.62
213.938	39.76
214.157	29.52
214.375	62.29
214.594	64.34
214.812	52.05
215.031	103.25
215.249	7
215.467	47.96
215.686	56.15
215.904	115.54
216.122	29.52
216.341	84.82
216.559	47.96
216.778	56.15
216.996	43.86
217.214	70.48
217.432	56.15
217.651	105.3
217.869	88.92
218.087	37.72
218.306	-25.77
218.524	64.34
218.742	86.87
218.96	39.76
219.179	0.85
219.397	86.87
219.615	123.73
219.833	93.01
220.051	-11.43
220.27	95.06
220.488	15.19
220.706	29.52
220.924	33.62
221.142	-42.15
221.36	-5.29
221.578	23.38
221.796	33.62
222.015	119.64
222.233	41.81
222.451	29.52
222.669	15.19
222.887	88.92
223.105	107.35
223.323	37.72
223.541	-44.2
223.759	15.19
223.977	93.01
224.195	70.48
224.413	54.1
224.631	39.76
224.849	99.16
225.067	70.48
225.285	17.24
225.503	33.62
225.721	37.72
225.939	64.34
226.157	62.29
226.375	170.83
226.592	-23.72
226.81	47.96
227.028	78.68
227.246	113.49
227.464	9.05
227.682	95.06
227.9	62.29
228.117	39.76
228.335	95.06
228.553	13.14
228.771	21.33
228.989	27.48
229.206	7
229.424	54.1
229.642	17.24
229.86	45.91
230.077	29.52
230.295	64.34
230.513	95.06
230.731	37.72
230.948	95.06
231.166	80.72
231.384	-36.01
231.601	21.33
231.819	78.68
232.037	86.87
232.254	25.43
232.472	21.33
232.689	33.62
232.907	50
233.125	105.3
233.342	95.06
233.56	37.72
233.777	-7.34
233.995	23.38
234.213	54.1
234.43	107.35
234.648	0.85
234.865	54.1
235.083	113.49
235.3	25.43
235.518	142.16
235.735	47.96
235.953	29.52
236.17	47.96
236.388	99.16
236.605	95.06
236.822	129.88
237.04	95.06
237.257	43.86
237.475	66.39
237.692	74.58
237.909	62.29
238.127	82.77
238.344	150.36
238.562	76.63
238.779	21.33
238.996	-1.19
239.214	70.48
239.431	37.72
239.648	33.62
239.865	66.39
240.083	127.83
240.3	-7.34
240.517	-44.2
240.735	-9.39
240.952	15.19
241.169	78.68
241.386	54.1
241.603	19.29
241.821	52.05
242.038	74.58
242.255	-17.58
242.472	2.9
242.689	62.29
242.907	50
243.124	74.58
243.341	0.85
243.558	72.53
243.775	13.14
243.992	-5.29
244.209	7
244.426	37.72
244.643	66.39
244.86	17.24
245.078	62.29
245.295	86.87
245.512	47.96
245.729	86.87
245.946	80.72
246.163	70.48
246.38	119.64
246.597	15.19
246.814	29.52
247.031	-13.48
247.248	82.77
247.464	82.77
247.681	109.4
247.898	15.19
248.115	97.11
248.332	-27.82
248.549	74.58
248.766	27.48
248.983	80.72
249.2	7
249.417	107.35
249.633	64.34
249.85	105.3
250.067	23.38
250.284	0.85
250.501	95.06
250.717	54.1
250.934	27.48
251.151	62.29
251.368	-9.39
251.585	66.39
251.801	-3.24
252.018	37.72
252.235	31.57
252.451	-33.96
252.668	58.2
252.885	45.91
253.102	-17.58
253.318	4.95
253.535	33.62
253.752	56.15
253.968	60.24
254.185	17.24
254.401	-3.24
254.618	56.15
254.835	27.48
255.051	111.44
255.268	129.88
255.484	84.82
255.701	41.81
255.917	62.29
256.134	31.57
256.351	39.76
256.567	93.01
256.784	17.24
257	-23.72
257.217	62.29
257.433	70.48
257.65	70.48
257.866	47.96
258.082	50
258.299	-3.24
258.515	78.68
258.732	37.72
258.948	17.24
259.165	70.48
259.381	58.2
259.597	-11.43
259.814	13.14
260.03	88.92
260.246	82.77
260.463	13.14
260.679	127.83
260.895	66.39
261.112	66.39
261.328	50
261.544	45.91
261.761	88.92
261.977	82.77
262.193	-64.68
262.409	101.2
262.626	41.81
262.842	103.25
263.058	15.19
263.274	72.53
263.49	21.33
263.707	29.52
263.923	66.39
264.139	21.33
264.355	97.11
264.571	64.34
264.787	58.2
265.004	82.77
265.22	86.87
265.436	66.39
265.652	25.43
265.868	27.48
266.084	54.1
266.3	4.95
266.516	54.1
266.732	-1.19
266.948	142.16
267.164	45.91
267.38	54.1
267.596	13.14
267.812	52.05
268.028	50
268.244	29.52
268.46	56.15
268.676	7
268.892	78.68
269.108	58.2
269.324	50
269.54	-3.24
269.756	62.29
269.972	19.29
270.188	-27.82
270.403	33.62
270.619	23.38
270.835	17.24
271.051	68.44
271.267	13.14
271.483	47.96
271.698	82.77
271.914	50
272.13	-66.73
272.346	76.63
272.562	33.62
272.777	45.91
272.993	54.1
273.209	74.58
273.425	90.96
273.64	70.48
273.856	142.16
274.072	111.44
274.287	29.52
274.503	74.58
274.719	103.25
274.934	-9.39
275.15	-19.63
275.366	62.29
275.581	39.76
275.797	68.44
276.012	37.72
276.228	31.57
276.444	45.91
276.659	84.82
276.875	17.24
277.09	82.77
277.306	50
277.521	86.87
277.737	45.91
277.952	95.06
278.168	64.34
278.383	97.11
278.599	70.48
278.814	88.92
279.03	160.59
279.245	52.05
279.461	50
279.676	74.58
279.892	45.91
280.107	39.76
280.322	25.43
280.538	50
280.753	50
280.969	17.24
281.184	78.68
281.399	146.26
281.615	105.3
281.83	25.43
282.045	-1.19
282.26	29.52
282.476	41.81
282.691	2.9
282.906	54.1
283.122	115.54
283.337	17.24
283.552	72.53
283.767	45.91
283.983	78.68
284.198	41.81
284.413	50
284.628	29.52
284.843	82.77
285.058	64.34
285.274	62.29
285.489	17.24
285.704	119.64
285.919	78.68
286.134	-33.96
286.349	4.95
286.564	103.25
286.779	72.53
286.995	47.96
287.21	82.77
287.425	97.11
287.64	25.43
287.855	58.2
288.07	78.68
288.285	64.34
288.5	80.72
288.715	62.29
288.93	103.25
289.145	64.34
289.36	101.2
289.575	37.72
289.79	82.77
290.004	21.33
290.219	78.68
290.434	33.62
290.649	35.67
290.864	78.68
291.079	25.43
291.294	64.34
291.509	119.64
291.724	62.29
291.938	80.72
292.153	68.44
292.368	-25.77
292.583	103.25
292.798	50
293.012	193.36
293.227	-19.63
293.442	21.33
293.657	70.48
293.871	80.72
294.086	-15.53
294.301	119.64
294.516	133.97
294.73	72.53
294.945	33.62
295.16	33.62
295.374	70.48
295.589	103.25
295.804	66.39
296.018	64.34
296.233	-3.24
296.447	-1.19
296.662	-3.24
296.877	70.48
297.091	90.96
297.306	29.52
297.52	113.49
297.735	105.3
297.949	56.15
298.164	45.91
298.378	43.86
298.593	21.33
298.807	78.68
299.022	39.76
299.236	109.4
299.451	58.2
299.665	43.86
299.88	29.52
300.094	64.34
300.309	66.39
300.523	4.95
300.737	60.24
300.952	64.34
301.166	131.92
301.381	-44.2
301.595	37.72
301.809	80.72
302.024	45.91
302.238	21.33
302.452	156.5
302.667	-1.19
302.881	90.96
303.095	15.19
303.309	45.91
303.524	60.24
303.738	62.29
303.952	15.19
304.166	111.44
304.381	47.96
304.595	4.95
304.809	25.43
305.023	70.48
305.237	45.91
305.452	54.1
305.666	95.06
305.88	82.77
306.094	97.11
306.308	111.44
306.522	45.91
306.736	86.87
306.95	66.39
307.164	45.91
307.379	105.3
307.593	33.62
307.807	23.38
308.021	115.54
308.235	45.91
308.449	19.29
308.663	37.72
308.877	105.3
309.091	29.52
309.305	103.25
309.519	-11.43
309.733	97.11
309.947	45.91
310.161	21.33
310.374	80.72
310.588	86.87
310.802	0.85
311.016	39.76
311.23	37.72
311.444	56.15
311.658	21.33
311.872	88.92
312.085	62.29
312.299	86.87
312.513	88.92
312.727	115.54
312.941	123.73
313.154	47.96
313.368	23.38
313.582	78.68
313.796	21.33
314.009	103.25
314.223	103.25
314.437	97.11
314.651	58.2
314.864	66.39
315.078	37.72
315.292	86.87
315.505	54.1
315.719	86.87
315.933	68.44
316.146	105.3
316.36	72.53
316.573	88.92
316.787	-36.01
317.001	72.53
317.214	-15.53
317.428	70.48
317.641	41.81
317.855	113.49
318.068	37.72
318.282	95.06
318.495	150.36
318.709	86.87
318.922	82.77
319.136	142.16
319.349	66.39
319.563	41.81
319.776	41.81
319.99	70.48
320.203	35.67
320.417	86.87
320.63	29.52
320.843	129.88
321.057	47.96
321.27	136.02
321.483	125.78
321.697	62.29
321.91	115.54
322.124	64.34
322.337	-19.63
322.55	33.62
322.763	146.26
322.977	90.96
323.19	-31.91
323.403	97.11
323.617	76.63
323.83	64.34
324.043	76.63
324.256	78.68
324.469	-7.34
324.683	45.91
324.896	66.39
325.109	72.53
325.322	60.24
325.535	103.25
325.748	54.1
325.962	62.29
326.175	80.72
326.388	101.2
326.601	107.35
326.814	15.19
327.027	70.48
327.24	109.4
327.453	4.95
327.666	0.85
327.879	103.25
328.092	64.34
328.305	62.29
328.518	103.25
328.731	-11.43
328.944	62.29
329.157	70.48
329.37	56.15
329.583	107.35
329.796	86.87
330.009	56.15
330.222	86.87
330.435	25.43
330.648	45.91
330.861	45.91
331.073	43.86
331.286	60.24
331.499	97.11
331.712	50
331.925	86.87
332.138	97.11
332.35	25.43
332.563	9.05
332.776	7
332.989	39.76
333.202	93.01
333.414	70.48
333.627	90.96
333.84	90.96
334.053	56.15
334.265	97.11
334.478	70.48
334.691	4.95
334.903	56.15
335.116	56.15
335.329	50
335.541	129.88
335.754	211.79
335.966	37.72
336.179	80.72
336.392	105.3
336.604	50
336.817	86.87
337.029	41.81
337.242	97.11
337.454	70.48
337.667	82.77
337.88	58.2
338.092	86.87
338.305	107.35
338.517	0.85
338.729	88.92
338.942	174.93
339.154	50
339.367	88.92
339.579	88.92
339.792	62.29
340.004	66.39
340.217	80.72
340.429	117.59
340.641	23.38
340.854	45.91
341.066	33.62
341.278	70.48
341.491	45.91
341.703	54.1
341.915	50
342.128	86.87
342.34	86.87
342.552	-42.15
342.764	115.54
342.977	47.96
343.189	78.68
343.401	47.96
343.613	72.53
343.826	45.91
344.038	-3.24
344.25	88.92
344.462	29.52
344.674	13.14
344.886	41.81
345.099	62.29
345.311	45.91
345.523	62.29
345.735	39.76
345.947	29.52
346.159	66.39
346.371	54.1
346.583	50
346.795	90.96
347.007	86.87
347.219	58.2
347.431	62.29
347.643	29.52
347.855	74.58
348.067	47.96
348.279	-3.24
348.491	105.3
348.703	144.21
348.915	72.53
349.127	95.06
349.339	54.1
349.551	56.15
349.763	111.44
349.975	78.68
350.187	4.95
350.399	115.54
350.61	109.4
350.822	29.52
351.034	62.29
351.246	74.58
351.458	56.15
351.669	105.3
351.881	95.06
352.093	95.06
352.305	54.1
352.517	95.06
352.728	68.44
352.94	39.76
353.152	84.82
353.363	-25.77
353.575	97.11
353.787	72.53
353.999	105.3
354.21	64.34
354.422	50
354.633	86.87
354.845	80.72
355.057	33.62
355.268	107.35
355.48	74.58
355.692	31.57
355.903	56.15
356.115	93.01
356.326	11.09
356.538	111.44
356.749	99.16
356.961	162.64
357.172	76.63
357.384	21.33
357.595	103.25
357.807	39.76
358.018	56.15
358.23	86.87
358.441	127.83
358.653	4.95
358.864	58.2
359.075	29.52
359.287	35.67
359.498	70.48
359.709	74.58
359.921	64.34
360.132	74.58
360.344	58.2
360.555	70.48
360.766	70.48
360.977	109.4
361.189	70.48
361.4	-27.82
361.611	62.29
361.823	74.58
362.034	103.25
362.245	-7.34
362.456	160.59
362.667	86.87
362.879	21.33
363.09	80.72
363.301	125.78
363.512	54.1
363.723	54.1
363.935	62.29
364.146	74.58
364.357	54.1
364.568	127.83
364.779	62.29
364.99	160.59
365.201	33.62
365.412	119.64
365.623	66.39
365.834	90.96
366.045	99.16
366.256	111.44
366.467	90.96
366.678	101.2
366.889	127.83
367.1	111.44
367.311	21.33
367.522	41.81
367.733	78.68
367.944	68.44
368.155	72.53
368.366	129.88
368.577	37.72
368.788	78.68
368.999	62.29
369.209	78.68
369.42	148.31
369.631	142.16
369.842	111.44
370.053	15.19
370.264	144.21
370.474	-3.24
370.685	0.85
370.896	136.02
371.107	45.91
371.317	31.57
371.528	37.72
371.739	66.39
371.95	41.81
372.16	131.92
372.371	78.68
372.582	21.33
372.792	39.76
373.003	78.68
373.214	146.26
373.424	140.12
373.635	66.39
373.846	101.2
374.056	78.68
374.267	162.64
374.477	103.25
374.688	64.34
374.898	133.97
375.109	56.15
375.319	72.53
375.53	90.96
375.74	76.63
375.951	4.95
376.161	109.4
376.372	127.83
376.582	66.39
376.793	90.96
377.003	70.48
377.214	103.25
377.424	66.39
377.635	119.64
377.845	78.68
378.055	121.68
378.266	37.72
378.476	31.57
378.686	90.96
378.897	13.14
379.107	103.25
379.317	95.06
379.528	72.53
379.738	66.39
379.948	-36.01
380.158	45.91
380.369	97.11
380.579	78.68
380.789	90.96
380.999	66.39
381.21	25.43
381.42	185.17
381.63	78.68
381.84	136.02
382.05	105.3
382.261	62.29
382.471	127.83
382.681	0.85
382.891	127.83
383.101	58.2
383.311	74.58
383.521	66.39
383.731	72.53
383.941	131.92
384.151	107.35
384.361	115.54
384.571	105.3
384.781	90.96
384.991	119.64
385.201	70.48
385.411	64.34
385.621	74.58
385.831	90.96
386.041	131.92
386.251	47.96
386.461	138.07
386.671	103.25
386.881	103.25
387.091	31.57
387.301	121.68
387.511	72.53
387.72	86.87
387.93	103.25
388.14	29.52
388.35	78.68
388.56	136.02
388.769	78.68
388.979	162.64
389.189	146.26
389.399	37.72
389.609	164.69
389.818	37.72
390.028	156.5
390.238	133.97
390.447	105.3
390.657	107.35
390.867	-15.53
391.076	127.83
391.286	97.11
391.496	113.49
391.705	119.64
391.915	136.02
392.125	115.54
392.334	80.72
392.544	131.92
392.753	103.25
392.963	11.09
393.172	82.77
393.382	23.38
393.591	111.44
393.801	185.17
394.01	84.82
394.22	140.12
394.429	64.34
394.639	-3.24
394.848	64.34
395.058	82.77
395.267	105.3
395.477	82.77
395.686	103.25
395.895	146.26
396.105	201.55
396.314	107.35
396.524	115.54
396.733	58.2
396.942	99.16
397.152	107.35
397.361	203.6
397.57	119.64
397.78	140.12
397.989	181.07
398.198	162.64
398.407	103.25
398.617	115.54
398.826	121.68
399.035	111.44
399.244	101.2
399.453	217.94
399.663	113.49
399.872	185.17
400.081	68.44
400.29	144.21
400.499	131.92
400.708	121.68
400.917	86.87
401.127	185.17
401.336	133.97
401.545	138.07
401.754	213.84
401.963	209.75
402.172	97.11
402.381	127.83
402.59	164.69
402.799	164.69
403.008	146.26
403.217	183.12
403.426	148.31
403.635	219.99
403.844	88.92
404.053	195.41
404.262	168.79
404.471	164.69
404.68	156.5
404.888	162.64
405.097	215.89
405.306	148.31
405.515	144.21
405.724	246.61
405.933	205.65
406.142	138.07
406.35	262.99
406.559	203.6
406.768	195.41
406.977	181.07
407.185	275.28
407.394	185.17
407.603	260.95
407.812	224.08
408.02	273.23
408.229	260.95
408.438	176.98
408.646	230.23
408.855	258.9
409.064	297.81
409.272	295.76
409.481	291.66
409.69	312.14
409.898	308.05
410.107	410.45
410.315	373.58
410.524	375.63
410.733	389.97
410.941	332.62
411.15	482.13
411.358	377.68
411.567	424.78
411.775	385.87
411.984	441.17
412.192	406.35
412.401	475.98
412.609	541.52
412.818	664.4
413.026	529.23
413.234	514.89
413.443	652.11
413.651	574.28
413.86	615.24
414.068	658.25
414.276	602.96
414.485	627.53
414.693	670.54
414.901	684.87
415.11	697.16
415.318	791.37
415.526	746.31
415.734	858.95
415.943	850.76
416.151	865.1
416.359	904.01
416.567	918.34
416.776	1022.79
416.984	1012.55
417.192	967.49
417.4	1008.45
417.608	992.07
417.817	1145.67
418.025	1227.59
418.233	1221.44
418.441	1217.35
418.649	1227.59
418.857	1235.78
419.065	1338.18
419.273	1303.36
419.481	1424.19
419.689	1514.3
419.897	1622.84
420.105	1622.84
420.313	1536.83
420.521	1737.53
420.729	1819.45
420.937	1794.87
421.145	1760.06
421.353	1936.18
421.561	2054.97
421.769	2063.16
421.977	2011.96
422.185	2079.54
422.393	2310.96
422.601	2229.04
422.809	2415.41
423.017	2415.41
423.224	2474.8
423.432	2493.23
423.64	2609.97
423.848	2700.08
424.056	2685.74
424.263	2913.06
424.471	2974.5
424.679	3121.96
424.887	3138.34
425.094	3132.2
425.302	3314.47
425.51	3296.04
425.718	3466.02
425.925	3517.22
426.133	3693.34
426.341	3971.86
426.548	4059.93
426.756	4059.93
426.964	4193.05
427.171	4369.17
427.379	4569.87
427.586	4522.77
427.794	4690.7
428.001	4823.82
428.209	5141.25
428.417	5067.53
428.624	5260.04
428.832	5262.09
429.039	5268.23
429.247	5364.48
429.454	5804.8
429.662	6099.7
429.869	5612.29
430.076	6238.97
430.284	6152.95
430.491	6255.35
430.699	6488.82
430.906	6546.16
431.114	6566.64
431.321	7181.03
431.528	7203.56
431.736	7602.91
431.943	7848.67
432.15	7568.1
432.358	7746.27
432.565	8241.88
432.772	8037.08
432.979	8467.16
433.187	8647.38
433.394	8786.64
433.601	9091.79
433.808	9403.08
434.016	9282.25
434.223	9525.96
434.43	10314.42
434.637	10072.76
434.844	10621.62
435.052	10863.28
435.259	10701.49
435.466	10879.66
435.673	10932.91
435.88	11430.57
436.087	12001.95
436.294	12161.69
436.501	11729.57
436.708	11985.57
436.915	12534.42
437.122	12882.58
437.329	12956.3
437.537	12984.98
437.743	13501.06
437.95	13406.86
438.157	14019.2
438.364	14727.8
438.571	14473.85
438.778	14500.47
438.985	15917.67
439.192	15348.33
439.399	15897.19
439.606	15217.26
439.813	16628.31
440.02	17414.73
440.227	17111.63
440.433	16786.01
440.64	17187.41
440.847	17248.85
441.054	17883.72
441.261	18844.21
441.467	18317.89
441.674	18844.21
441.881	19704.36
442.088	19493.42
442.294	19528.24
442.501	19923.49
442.708	20419.1
442.914	20865.56
443.121	22073.86
443.328	21293.58
443.534	23200.24
443.741	22311.42
443.948	22012.42
444.154	23417.33
444.361	23359.98
444.568	23542.25
444.774	23638.51
444.981	23847.4
445.187	24420.83
445.394	25485.78
445.6	24918.49
445.807	27646.38
446.013	26382.79
446.22	27025.85
446.426	27863.47
446.633	27996.59
446.839	29458.84
447.046	27920.81
447.252	29499.8
447.459	29407.64
447.665	29419.92
447.871	30562.69
448.078	32008.56
448.284	30306.69
448.491	31236.47
448.697	32442.73
448.903	32999.77
449.11	32946.53
449.316	32663.91
449.522	33386.84
449.728	34064.72
449.935	34173.26
450.141	34029.9
450.347	35246.4
450.553	34027.85
450.76	34619.72
450.966	35447.1
451.172	35305.79
451.378	36276.52
451.584	35391.8
451.791	36438.31
451.997	35922.23
452.203	36708.65
452.409	37050.66
452.615	36714.79
452.821	35193.15
453.027	35408.19
453.233	36866.34
453.44	35383.61
453.646	36038.96
453.852	36059.44
454.058	36770.08
454.264	35631.41
454.47	36440.36
454.676	35359.03
454.882	36528.42
455.088	33632.6
455.294	33952.08
455.5	34660.68
455.705	34816.32
455.911	33161.56
456.117	33597.78
456.323	32559.46
456.529	31390.07
456.735	32412.01
456.941	31869.3
457.147	31205.75
457.352	30032.27
457.558	29956.49
457.764	30036.36
457.97	29170.07
458.176	29170.07
458.381	28891.55
458.587	27265.46
458.793	27531.7
458.999	25866.7
459.204	28084.65
459.41	27140.54
459.616	25399.76
459.821	24934.87
460.027	25307.6
460.233	24689.12
460.438	23704.04
460.644	23734.76
460.85	22817.27
461.055	22532.61
461.261	22196.74
461.466	20701.72
461.672	20097.57
461.878	21527.05
462.083	20009.51
462.289	19708.46
462.494	19552.81
462.7	18534.97
462.905	18022.98
463.111	18631.23
463.316	18963
463.522	18420.28
463.727	18317.89
463.932	18383.42
464.138	18154.05
464.343	18190.91
464.549	17842.76
464.754	18049.6
464.959	18356.8
465.165	17947.2
465.37	17304.14
465.575	16626.26
465.781	17572.43
465.986	17791.56
466.191	16804.44
466.397	16509.53
466.602	15884.9
466.807	16650.84
467.012	16382.56
467.218	16228.96
467.423	16003.68
467.628	16323.16
467.833	16681.56
468.038	16331.36
468.244	15802.98
468.449	16323.16
468.654	16110.18
468.859	15805.03
469.064	15817.32
469.269	14971.5
469.474	15168.11
469.679	15579.75
469.885	15086.19
470.09	15321.71
470.295	15250.03
470.5	14699.13
470.705	14813.81
470.91	14639.73
471.115	14523
471.32	14658.17
471.525	14625.4
471.73	14226.04
471.935	14146.17
472.139	13529.73
472.344	14006.91
472.549	13679.24
472.754	13648.52
472.959	13265.55
473.164	12939.92
473.369	13007.5
473.574	13400.71
473.778	13062.8
473.983	13138.57
474.188	13224.59
474.393	12475.03
474.598	12399.26
474.802	12501.65
475.007	12235.42
475.212	12358.3
475.417	11862.69
475.621	11930.27
475.826	12249.75
476.031	11661.99
476.235	11645.6
476.44	11655.84
476.645	11336.36
476.849	11578.02
477.054	11293.35
477.259	11156.14
477.463	11203.24
477.668	10742.45
477.872	11076.27
478.077	10742.45
478.282	10551.99
478.486	10613.43
478.691	10261.18
478.895	10379.96
479.1	10103.48
479.304	10416.82
479.509	10130.11
479.713	10420.92
479.918	10027.71
480.122	9966.27
480.326	9962.17
480.531	9876.16
480.735	9781.95
480.94	9878.21
481.144	10066.62
481.348	9753.28
481.553	9720.51
481.757	9362.12
481.961	9616.07
482.166	9530.05
482.37	9523.91
482.574	9507.52
482.778	9523.91
482.983	9849.54
483.187	9325.26
483.391	9726.66
483.595	9568.96
483.8	9448.13
484.004	9597.63
484.208	9859.77
484.412	9517.76
484.616	9728.7
484.821	9497.28
485.025	9454.28
485.229	9626.31
485.433	9460.42
485.637	9503.43
485.841	9360.07
486.045	9532.1
486.249	9433.8
486.453	9556.68
486.657	9620.16
486.861	9476.8
487.065	9468.61
487.269	9450.18
487.473	9441.99
487.677	9437.89
487.881	9523.91
488.085	9566.92
488.289	9458.37
488.493	9626.31
488.697	9589.44
488.901	9462.47
489.105	9540.29
489.309	9591.49
489.512	9427.65
489.716	9724.61
489.92	9519.81
490.124	9669.31
490.328	9749.18
490.531	9611.97
490.735	9910.97
490.939	9679.55
491.143	9679.55
491.346	9712.32
491.55	9716.42
491.754	9880.25
491.958	9935.55
492.161	9827.01
492.365	10105.53
492.569	9974.46
492.772	10060.48
492.976	10044.09
493.18	10031.8
493.383	10209.98
493.587	10273.46
493.79	10453.69
493.994	10040
494.197	10261.18
494.401	10586.8
494.605	10465.97
494.808	10762.93
495.012	10607.28
495.215	10568.37
495.419	10672.82
495.622	11010.73
495.825	11063.98
496.029	11033.26
496.232	11088.56
496.436	11256.49
496.639	11293.35
496.843	11467.43
497.046	11520.68
497.249	11657.89
497.453	11813.54
497.656	11995.81
497.859	11791.01
498.063	12087.96
498.266	12319.39
498.469	12319.39
498.673	12393.11
498.876	12427.93
499.079	12651.16
499.282	12532.37
499.485	13007.5
499.689	12841.62
499.892	13124.24
500.095	13169.29
500.298	13603.46
500.501	13259.4
500.705	13752.96
500.908	13929.09
501.111	13896.32
501.314	13963.9
501.517	14033.54
501.72	14283.39
501.923	14447.22
502.126	14652.02
502.329	14852.72
502.532	14885.49
502.735	14977.65
502.938	15317.61
503.141	15569.51
503.344	15530.6
503.547	15667.81
503.75	15643.24
503.953	16175.71
504.156	16003.68
504.359	16421.47
504.562	16329.31
504.765	16841.3
504.968	16917.08
505.17	17189.46
505.373	17089.1
505.576	17592.9
505.779	17611.34
505.982	17867.33
506.185	18053.7
506.387	18197.06
506.59	18330.17
506.793	18518.59
506.996	18643.51
507.198	19257.9
507.401	18876.98
507.604	19175.98
507.807	19458.6
508.009	19630.63
508.212	19773.99
508.415	20193.83
508.617	20179.49
508.82	20521.5
509.022	20240.93
509.225	20840.98
509.428	20812.31
509.63	21533.2
509.833	21051.92
510.035	21617.16
510.238	21608.97
510.44	22125.06
510.643	22170.12
510.845	22469.12
511.048	22288.9
511.25	22462.97
511.453	22860.28
511.655	23712.24
511.858	23398.9
512.06	23601.65
512.262	24091.11
512.465	23886.31
512.667	24230.37
512.87	24142.31
513.072	24332.77
513.274	24934.87
513.477	25219.54
513.679	25162.2
513.881	25567.7
514.084	25809.36
514.286	25958.86
514.488	25973.19
514.69	26806.72
514.893	26851.77
515.095	26999.23
515.297	27169.21
515.499	27234.74
515.701	27664.82
515.904	27726.25
516.106	28021.16
516.308	28199.34
516.51	28750.24
516.712	29086.11
516.914	28799.39
517.116	29692.3
517.318	29507.99
517.52	29839.76
517.722	29727.12
517.925	29981.07
518.127	30493.06
518.329	30851.45
518.531	30808.45
518.733	30855.55
518.935	31615.35
519.136	31549.81
519.338	31895.92
519.54	31777.14
519.742	32377.19
519.944	32291.18
520.146	32502.12
520.348	32956.77
520.55	33118.56
520.752	33192.28
520.954	33833.3
521.155	33593.68
521.357	34089.29
521.559	34308.43
521.761	34849.09
521.963	34519.37
522.164	34720.07
522.366	35412.28
522.568	35940.66
522.77	35510.58
522.971	36436.27
523.173	36024.62
523.375	35961.14
523.576	36495.66
523.778	36282.67
523.98	36636.97
524.181	37091.62
524.383	37101.86
524.584	37691.67
524.786	37671.19
524.988	37046.56
525.189	38099.22
525.391	38344.97
525.592	38371.6
525.794	38111.5
525.995	38435.08
526.197	38922.5
526.398	38678.79
526.6	38715.65
526.801	39315.71
527.003	39203.07
527.204	39213.31
527.406	39981.3
527.607	39387.39
527.808	39979.25
528.01	39430.4
528.211	39997.68
528.412	40128.75
528.614	39950.58
528.815	40417.52
529.016	40298.73
529.218	40202.48
529.419	40466.67
529.62	40073.46
529.822	40464.62
530.023	40698.09
530.224	40503.53
530.425	40753.38
530.626	40251.63
530.828	40435.95
531.029	41437.41
531.23	40501.48
531.431	41058.53
531.632	41011.43
531.833	41408.73
532.035	40978.66
532.236	41068.77
532.437	41779.42
532.638	41050.34
532.839	41214.18
533.04	41611.48
533.241	40829.16
533.442	41814.23
533.643	41287.9
533.844	41496.8
534.045	41597.15
534.246	41177.31
534.447	41937.11
534.648	41412.83
534.849	41541.85
535.05	41128.16
535.251	41398.49
535.451	41306.34
535.652	41877.72
535.853	41746.65
536.054	41732.31
536.255	41910.49
536.456	41488.6
536.657	42066.13
536.857	41457.88
537.058	41289.95
537.259	41720.02
537.46	41722.07
537.66	41199.84
537.861	41560.28
538.062	41441.5
538.263	41668.83
538.463	41107.68
538.664	41400.54
538.865	42021.08
539.065	41638.11
539.266	40980.71
539.466	41980.12
539.667	40949.99
539.868	41820.38
540.068	41525.47
540.269	41066.72
540.469	41607.39
540.67	41408.73
540.87	41201.89
541.071	41179.36
541.271	41341.15
541.472	41531.61
541.672	41306.34
541.873	40937.7
542.073	40685.8
542.274	41257.18
542.474	41222.37
542.675	40968.42
542.875	41556.19
543.075	41058.53
543.276	40868.07
543.476	41490.65
543.676	41062.63
543.877	41396.45
544.077	41122.02
544.277	41224.42
544.478	41218.27
544.678	41150.69
544.878	40595.69
545.078	40927.46
545.279	40943.84
545.479	40716.52
545.679	41085.15
545.879	41351.39
546.079	41109.73
546.28	40974.56
546.48	40849.64
546.68	41197.79
546.88	40997.09
547.08	41072.87
547.28	41015.52
547.48	40575.21
547.68	41189.6
547.88	40567.02
548.081	40708.33
548.281	40558.83
548.481	40380.65
548.681	41275.62
548.881	40982.76
549.081	40765.67
549.28	40542.44
549.48	41212.13
549.68	40687.85
549.88	41044.2
550.08	40706.28
550.28	41023.72
550.48	41079.01
550.68	40870.12
550.88	40476.91
551.08	40425.71
551.279	40526.06
551.479	39991.54
551.679	40528.11
551.879	40534.25
552.079	40720.62
552.278	40337.65
552.478	40499.44
552.678	40356.08
552.878	40640.75
553.077	40345.84
553.277	40116.47
553.477	41019.62
553.676	40472.81
553.876	40489.2
554.076	40429.8
554.275	40554.73
554.475	39938.29
554.674	40382.7
554.874	40069.36
555.074	40077.55
555.273	40130.8
555.473	40474.86
555.672	39991.54
555.872	39846.13
556.071	39848.18
556.271	40534.25
556.47	39891.19
556.67	39622.9
556.869	40202.48
557.068	40102.13
557.268	39788.79
557.467	39698.68
557.667	39729.4
557.866	39563.51
558.065	39522.55
558.265	39145.73
558.464	39282.94
558.663	39805.17
558.863	38887.68
559.062	39715.06
559.261	39264.51
559.461	40001.78
559.66	38715.65
559.859	39377.15
560.058	39018.75
560.258	39446.78
560.457	38576.39
560.656	39457.02
560.855	38963.46
561.054	38820.1
561.253	38969.6
561.453	38684.94
561.652	38758.66
561.851	38887.68
562.05	38834.44
562.249	38318.35
562.448	39262.46
562.647	38660.36
562.846	38355.21
563.045	38598.92
563.244	38258.96
563.443	38422.8
563.642	38035.73
563.841	38045.97
564.04	37835.03
564.239	38205.71
564.438	37923.09
564.637	37544.22
564.836	38058.26
565.035	37658.9
565.234	38105.36
565.432	37878.04
565.631	37376.28
565.83	37916.95
566.029	37329.18
566.228	37151.01
566.427	37261.6
566.625	37108
566.824	37105.95
567.023	37208.35
567.222	36596.01
567.42	37284.12
567.619	36725.03
567.818	36641.06
568.016	36729.12
568.215	36852
568.414	36626.73
568.612	36858.15
568.811	36393.26
569.01	36466.98
569.208	36077.87
569.407	36036.91
569.605	35723.57
569.804	36299.05
570.002	35664.18
570.201	36129.07
570.4	35592.5
570.598	35881.27
570.797	35619.13
570.995	35928.37
571.193	35078.46
571.392	35756.34
571.59	35365.18
571.789	35404.09
571.987	35055.93
572.186	35225.92
572.384	34730.31
572.582	35187
572.781	34830.66
572.979	34515.27
573.177	34746.69
573.376	34939.2
573.574	34576.71
573.772	34767.17
573.971	34543.94
574.169	34226.51
574.367	34314.57
574.565	34335.05
574.763	33988.94
574.962	34228.56
575.16	33728.85
575.358	34093.39
575.556	33413.46
575.754	34109.77
575.952	33522.01
576.151	33700.18
576.349	33358.17
576.547	33620.31
576.745	33306.97
576.943	33341.78
577.141	33298.78
577.339	33145.18
577.537	33235.29
577.735	33196.38
577.933	32813.41
578.131	33372.5
578.329	32405.86
578.527	32680.29
578.725	32676.19
578.923	32686.43
579.121	32438.63
579.319	32328.04
579.516	32545.12
579.714	32477.54
579.912	32057.71
580.11	31959.41
580.308	32190.83
580.506	32086.38
580.704	31510.9
580.901	31883.63
581.099	32295.27
581.297	31529.33
581.495	31332.73
581.692	31547.76
581.89	31449.46
582.088	31687.03
582.285	31500.66
582.483	31471.99
582.681	30984.57
582.878	30894.46
583.076	30570.88
583.274	31148.41
583.471	30706.05
583.669	30978.43
583.866	30513.54
584.064	30484.87
584.262	30122.38
584.459	30540.16
584.657	30257.54
584.854	30624.13
585.052	29780.37
585.249	30271.88
585.447	30208.39
585.644	29682.06
585.841	29641.11
586.039	30308.74
586.236	29860.24
586.434	29784.46
586.631	29680.02
586.828	29503.89
587.026	29755.79
587.223	29428.12
587.42	29112.73
587.618	29415.83
587.815	28719.52
588.012	28959.13
588.21	28963.23
588.407	29131.16
588.604	28944.8
588.801	28703.14
588.999	28578.21
589.196	28719.52
589.393	28563.87
589.59	28375.46
589.787	28111.27
589.984	28217.77
590.182	27953.58
590.379	28205.48
590.576	28053.93
590.773	27732.4
590.97	27898.28
591.167	28072.36
591.364	27500.98
591.561	27826.6
591.758	27595.18
591.955	27568.56
592.152	27357.62
592.349	27466.16
592.546	27058.62
592.743	27423.15
592.94	26839.48
593.137	26882.49
593.334	27142.58
593.531	26661.31
593.727	26814.91
593.924	26769.85
594.121	26345.92
594.318	26487.23
594.515	26511.81
594.712	26778.04
594.908	26352.07
595.105	26585.54
595.302	25936.33
595.499	26249.67
595.696	25831.88
595.892	26120.65
596.089	25932.23
596.286	25760.2
596.482	25833.93
596.679	25790.92
596.876	25565.65
597.072	25364.95
597.269	25543.12
597.466	25338.32
597.662	25219.54
597.859	24963.54
598.055	25569.74
598.252	24988.12
598.448	25190.87
598.645	25215.44
598.841	24508.9
599.038	24678.88
599.234	24795.61
599.431	24783.32
599.627	24500.7
599.824	24576.48
600.02	24424.93
600.217	24615.39
600.413	24494.56
600.609	24095.21
600.806	24021.48
601.002	24263.14
601.198	23978.47
601.395	24064.49
601.591	24058.34
601.787	23763.43
601.984	23636.46
602.18	23861.74
602.376	23544.3
602.572	23761.39
602.769	23532.01
602.965	23476.72
603.161	23349.75
603.357	23132.66
603.553	23159.28
603.75	23159.28
603.946	22772.22
604.142	23093.75
604.338	22626.81
604.534	22751.74
604.73	22880.76
604.926	22782.46
605.122	22987.25
605.318	22485.5
605.514	22399.49
605.71	22462.97
605.906	22518.27
606.102	22274.56
606.298	22237.7
606.494	22413.82
606.69	22231.55
606.886	22077.96
607.082	21821.96
607.278	22022.66
607.474	21887.5
607.67	22014.47
607.866	21473.81
608.062	22110.72
608.257	21647.88
608.453	21649.93
608.649	21740.04
608.845	21563.92
609.041	21633.55
609.236	21504.53
609.432	21297.68
609.628	21293.58
609.824	21393.93
610.019	21236.24
610.215	21471.76
610.411	20951.57
610.606	21340.69
610.802	21025.3
610.998	21269.01
611.193	21127.7
611.389	20982.29
611.584	20861.46
611.78	20812.31
611.976	20949.53
612.171	20740.63
612.367	20935.19
612.562	20744.73
612.758	20558.36
612.953	20621.85
613.149	20787.74
613.344	20400.67
613.539	20859.42
613.735	20505.12
613.93	20566.56
614.126	20431.39
614.321	20738.58
614.517	20455.97
614.712	20296.22
614.907	20013.6
615.103	20331.04
615.298	20247.07
615.493	20668.95
615.688	20222.5
615.884	20492.83
616.079	20032.04
616.274	19986.98
616.47	20085.28
616.665	20034.08
616.86	19792.42
617.055	19964.45
617.25	19716.65
617.445	20052.52
617.641	19501.61
617.836	19730.98
618.031	19386.93
618.226	19538.48
618.421	19518
618.616	19950.12
618.811	19245.62
619.006	19788.33
619.201	19040.82
619.396	19323.44
619.591	18811.45
619.786	19190.32
619.981	18797.11
620.176	19253.81
620.371	18913.84
620.566	18663.99
620.761	18813.49
620.956	18668.09
621.151	18545.21
621.346	18629.18
621.541	18233.92
621.735	18444.86
621.93	17961.54
622.125	18246.21
622.32	18014.79
622.515	17961.54
622.709	17570.38
622.904	17830.47
623.099	17484.36
623.294	17592.9
623.488	17470.03
623.683	17257.04
623.878	17527.37
624.072	17179.22
624.267	17160.78
624.462	16878.16
624.656	16931.41
624.851	16833.11
625.046	16812.63
625.24	16669.27
625.435	16632.41
625.629	16464.47
625.824	16462.43
626.018	16142.94
626.213	16249.44
626.407	16253.53
626.602	15825.51
626.796	16013.92
626.991	15639.14
627.185	15653.48
627.38	15852.13
627.574	15549.03
627.768	15712.87
627.963	15630.95
628.157	15372.91
628.352	15596.14
628.546	15301.23
628.74	15211.12
628.935	14901.87
629.129	15037.04
629.323	14774.9
629.517	14789.24
629.712	14629.49
629.906	14721.65
630.1	14541.43
630.294	14606.97
630.489	14455.42
630.683	14410.36
630.877	14498.42
631.071	14119.55
631.265	14490.23
631.459	14258.81
631.653	14238.33
631.848	13836.93
632.042	13824.64
632.236	13847.17
632.43	13638.28
632.624	13826.69
632.818	13589.13
633.012	13527.69
633.206	13521.54
633.4	13398.66
633.594	13525.64
633.788	13290.12
633.982	13189.77
634.176	13240.97
634.369	12911.25
634.563	13122.19
634.757	12665.49
634.951	12878.48
635.145	12851.86
635.339	12735.12
635.533	12685.97
635.726	12767.89
635.92	12292.76
636.114	12472.98
636.308	12321.43
636.501	12346.01
636.695	12382.87
636.889	11991.71
637.083	12022.43
637.276	12069.53
637.47	12092.06
637.664	12018.33
637.857	11829.92
638.051	11713.19
638.244	11874.98
638.438	11686.56
638.632	11610.79
638.825	11702.95
639.019	11387.56
639.212	11420.33
639.406	11641.51
639.599	11158.19
639.793	11256.49
639.986	11059.88
640.18	11219.63
640.373	11117.23
640.567	10967.73
640.76	10984.11
640.954	10828.46
641.147	10783.41
641.34	10611.38
641.534	10850.99
641.727	10887.86
641.92	10400.44
642.114	10365.62
642.307	10478.26
642.5	10324.66
642.694	10523.32
642.887	10470.07
643.08	10365.62
643.273	10357.43
643.467	10189.5
643.66	10195.64
643.853	9992.89
644.046	9939.65
644.239	10033.85
644.432	9917.12
644.626	9894.59
644.819	9880.25
645.012	9730.75
645.205	9687.75
645.398	9687.75
645.591	9706.18
645.784	9720.51
645.977	9474.76
646.17	9499.33
646.363	9263.82
646.556	9286.34
646.749	9341.64
646.942	9362.12
647.135	9169.61
647.328	9149.13
647.521	9079.5
647.714	8979.15
647.907	8923.85
648.099	8870.61
648.292	9038.54
648.485	8919.76
648.678	8729.3
648.871	8858.32
649.064	8567.51
649.256	8794.83
649.449	8622.8
649.642	8454.87
649.835	8458.96
650.027	8475.35
650.22	8442.58
650.413	8372.95
650.605	8415.96
650.798	8446.68
650.991	8387.29
651.183	8250.07
651.376	8297.17
651.568	8131.29
651.761	8075.99
651.954	8049.37
652.146	8176.34
652.339	8016.6
652.531	7887.58
652.724	7764.7
652.916	7830.24
653.109	7828.19
653.301	7934.68
653.494	7928.54
653.686	7740.13
653.879	7779.04
654.071	7635.68
654.263	7500.51
654.456	7494.37
654.648	7590.63
654.84	7412.45
655.033	7320.29
655.225	7445.22
655.417	7150.31
655.61	7299.81
655.802	7484.13
655.994	7181.03
656.186	7326.44
656.379	7283.43
656.571	7295.72
656.763	7002.86
656.955	7170.79
657.148	7117.54
657.34	7060.2
657.532	6877.93
657.724	6879.98
657.916	6890.22
658.108	6888.17
658.3	6748.91
658.492	6779.63
658.684	6583.02
658.876	6697.71
659.068	6632.18
659.26	6669.04
659.452	6468.34
659.644	6515.44
659.836	6570.74
660.028	6648.56
660.22	6324.98
660.412	6347.51
660.604	6488.82
660.796	6367.99
660.988	6390.52
661.18	6142.71
661.372	6249.21
661.563	6181.62
661.755	6025.98
661.947	6189.81
662.139	6025.98
662.331	6173.43
662.522	6099.7
662.714	5993.21
662.906	5985.02
663.097	6019.83
663.289	5886.72
663.481	5812.99
663.673	5894.91
663.864	5810.94
664.056	5823.23
664.247	5823.23
664.439	5804.8
664.631	5700.35
664.822	5753.6
665.014	5714.69
665.205	5649.15
665.397	5597.95
665.588	5616.38
665.78	5614.34
665.971	5600
666.163	5561.09
666.354	5573.38
666.546	5495.55
666.737	5468.93
666.929	5499.65
667.12	5288.71
667.311	5485.31
667.503	5298.95
667.694	5317.38
667.885	5165.83
668.077	5272.32
668.268	5192.45
668.459	5241.61
668.651	5200.65
668.842	5247.75
669.033	5065.48
669.224	4977.42
669.416	5149.45
669.607	5161.73
669.798	5036.81
669.989	4961.03
670.18	4920.07
670.371	4936.46
670.563	5067.53
670.754	4856.59
670.945	4782.86
671.136	4819.72
671.327	4793.1
671.518	4797.2
671.709	4854.54
671.9	4885.26
672.091	4741.9
672.282	4807.44
672.473	4858.64
672.664	4567.82
672.855	4692.75
673.046	4545.3
673.237	4649.74
673.428	4627.21
673.619	4576.02
673.809	4469.52
674	4569.87
674.191	4420.37
674.382	4371.22
674.573	4522.77
674.764	4389.65
674.954	4571.92
675.145	4285.2
675.336	4342.55
675.527	4393.75
675.717	4330.26
675.908	4209.43
676.099	4297.49
676.289	4266.77
676.48	4320.02
676.671	4209.43
676.861	4324.12
677.052	4064.02
677.243	4164.37
677.433	4240.15
677.624	4219.67
677.814	4010.78
678.005	4168.47
678.195	4193.05
678.386	4170.52
678.576	4055.83
678.767	4115.22
678.957	4111.13
679.148	4234
679.338	4006.68
679.529	4010.78
679.719	3994.39
679.909	4076.31
680.1	4045.59
680.29	3980.06
680.481	3816.22
680.671	4027.16
680.861	3920.67
681.052	3969.82
681.242	3781.4
681.432	3935
681.622	3889.95
681.813	3717.92
682.003	3767.07
682.193	3816.22
682.383	3808.03
682.573	3920.67
682.764	3787.55
682.954	3715.87
683.144	3810.08
683.334	3707.68
683.524	3724.06
683.714	3736.35
683.904	3744.54
684.094	3595.04
684.284	3734.3
684.474	3674.91
684.664	3683.1
684.854	3572.51
685.044	3660.57
685.234	3607.33
685.424	3494.69
685.614	3476.26
685.804	3490.59
685.994	3509.02
686.184	3545.89
686.374	3642.14
686.564	3537.7
686.753	3429.15
686.943	3293.99
687.133	3425.06
687.323	3298.08
687.513	3375.91
687.702	3511.07
687.892	3330.85
688.082	3339.04
688.272	3494.69
688.461	3449.63
688.651	3398.43
688.841	3324.71
689.03	3382.05
689.22	3248.93
689.41	3199.78
689.599	3255.08
689.789	3265.32
689.979	3218.21
690.168	3158.82
690.358	3177.25
690.547	3228.45
690.737	3244.84
690.926	3199.78
691.116	3126.05
691.305	3117.86
691.495	3142.44
691.684	3109.67
691.874	3195.68
692.063	3093.29
692.252	3044.13
692.442	3031.85
692.631	3015.46
692.82	3019.56
693.01	2931.5
693.199	3011.37
693.388	3021.61
693.578	3111.72
693.767	3035.94
693.956	2937.64
694.146	2978.6
694.335	2997.03
694.524	2884.39
694.713	2859.82
694.902	2876.2
695.092	2833.19
695.281	2726.7
695.47	2784.04
695.659	2792.23
695.848	2765.61
696.037	2814.76
696.226	2825
696.415	2761.52
696.604	2923.3
696.793	2781.99
696.982	2761.52
697.171	2913.06
697.36	2802.47
697.549	2743.08
697.738	2642.73
697.927	2765.61
698.116	2657.07
698.305	2839.34
698.494	2681.64
698.683	2767.66
698.872	2761.52
699.061	2679.6
699.25	2718.51
699.438	2628.4
699.627	2704.17
699.816	2677.55
700.005	2798.38
700.193	2630.45
700.382	2702.12
700.571	2622.25
700.76	2741.04
700.948	2702.12
701.137	2642.73
701.326	2655.02
701.514	2642.73
701.703	2579.25
701.892	2626.35
702.08	2665.26
702.269	2517.81
702.457	2595.63
702.646	2644.78
702.834	2657.07
703.023	2716.46
703.212	2691.88
703.4	2618.16
703.589	2474.8
703.777	2691.88
703.965	2554.67
704.154	2609.97
704.342	2554.67
704.531	2523.95
704.719	2569.01
704.907	2638.64
705.096	2569.01
705.284	2644.78
705.472	2491.18
705.661	2605.87
705.849	2587.44
706.037	2581.29
706.226	2536.24
706.414	2569.01
706.602	2382.64
706.79	2521.9
706.979	2501.42
707.167	2419.5
707.355	2466.61
707.543	2521.9
707.731	2423.6
707.919	2515.76
708.107	2394.93
708.296	2478.9
708.484	2476.85
708.672	2519.85
708.86	2534.19
709.048	2458.42
709.236	2423.6
709.424	2417.46
709.612	2454.32
709.8	2417.46
709.988	2380.59
710.176	2491.18
710.364	2558.77
710.551	2339.63
710.739	2507.57
710.927	2351.92
711.115	2446.13
711.303	2505.52
711.491	2388.78
711.679	2245.43
711.866	2372.4
712.054	2450.22
712.242	2356.02
712.43	2399.02
712.617	2431.79
712.805	2417.46
712.993	2587.44
713.181	2446.13
713.368	2372.4
713.556	2513.71
713.744	2358.07
713.931	2374.45
714.119	2528.05
714.306	2413.36
714.494	2437.94
714.682	2415.41
714.869	2401.07
715.057	2372.4
715.244	2396.98
715.432	2343.73
715.619	2366.26
715.807	2364.21
715.994	2470.7
716.182	2399.02
716.369	2413.36
716.556	2548.53
716.744	2442.03
716.931	2304.82
717.119	2413.36
717.306	2364.21
717.493	2298.67
717.681	2499.38
717.868	2372.4
718.055	2519.85
718.242	2300.72
718.43	2380.59
718.617	2290.48
718.804	2292.53
718.991	2374.45
719.179	2425.65
719.366	2503.47
719.553	2401.07
719.74	2306.87
719.927	2396.98
720.114	2372.4
720.301	2282.29
720.488	2413.36
720.676	2294.58
720.863	2278.19
721.05	2298.67
721.237	2380.59
721.424	2394.93
721.611	2261.81
721.798	2364.21
721.985	2409.26
722.172	2345.78
722.358	2450.22
722.545	2345.78
722.732	2347.83
722.919	2427.7
723.106	2388.78
723.293	2290.48
723.48	2353.97
723.667	2317.11
723.853	2300.72
724.04	2386.74
724.227	2364.21
724.414	2333.49
724.6	2335.54
724.787	2351.92
724.974	2421.55
725.161	2351.92
725.347	2255.67
725.534	2308.91
725.72	2298.67
725.907	2341.68
726.094	2282.29
726.28	2331.44
726.467	2349.87
726.653	2265.91
726.84	2325.3
727.027	2437.94
727.213	2417.46
727.4	2308.91
727.586	2372.4
727.773	2368.31
727.959	2227
728.145	2347.83
728.332	2241.33
728.518	2308.91
728.705	2380.59
728.891	2231.09
729.077	2304.82
729.264	2249.52
729.45	2341.68
729.636	2429.74
729.823	2192.18
730.009	2296.63
730.195	2431.79
730.382	2296.63
730.568	2360.11
730.754	2298.67
730.94	2292.53
731.126	2313.01
731.313	2327.35
731.499	2265.91
731.685	2356.02
731.871	2308.91
732.057	2417.46
732.243	2315.06
732.429	2249.52
732.615	2292.53
732.801	2351.92
732.987	2167.6
733.173	2208.56
733.359	2302.77
733.545	2323.25
733.731	2229.04
733.917	2409.26
734.103	2335.54
734.289	2313.01
734.475	2214.71
734.661	2335.54
734.847	2313.01
735.033	2341.68
735.219	2163.51
735.404	2317.11
735.59	2194.23
735.776	2220.85
735.962	2308.91
736.148	2298.67
736.333	2188.08
736.519	2224.95
736.705	2210.61
736.89	2220.85
737.076	2171.7
737.262	2200.37
737.447	2351.92
737.633	2235.19
737.819	2210.61
738.004	2274.1
738.19	2169.65
738.375	2153.27
738.561	2229.04
738.747	2202.42
738.932	2177.84
739.118	2233.14
739.303	2224.95
739.489	2214.71
739.674	2153.27
739.859	2069.3
740.045	2128.69
740.23	2163.51
740.416	2134.84
740.601	2183.99
740.786	2118.45
740.972	2147.12
741.157	2132.79
741.342	2075.45
741.528	2145.08
741.713	2130.74
741.898	2159.41
742.084	2073.4
742.269	2097.97
742.454	2063.16
742.639	2057.01
742.824	2063.16
743.01	2138.93
743.195	2046.77
743.38	2081.59
743.565	2022.2
743.75	1893.18
743.935	2097.97
744.12	1981.24
744.305	1942.33
744.49	1882.94
744.675	1940.28
744.86	1981.24
745.045	1925.94
745.23	1940.28
745.415	1962.81
745.6	1930.04
745.785	1971
745.97	2095.93
746.155	1915.7
746.34	1889.08
746.525	1790.78
746.71	1884.98
746.895	1944.38
747.079	1907.51
747.264	1880.89
747.449	1794.87
747.634	1831.74
747.819	1850.17
748.003	1813.31
748.188	1751.87
748.373	1741.63
748.557	1778.49
748.742	1723.2
748.927	1819.45
749.111	1635.13
749.296	1686.33
749.481	1684.28
749.665	1694.52
749.85	1618.75
750.034	1692.48
750.219	1690.43
750.404	1669.95
750.588	1631.04
750.773	1614.65
750.957	1588.03
751.141	1618.75
751.326	1518.4
751.51	1553.21
751.695	1600.32
751.879	1590.08
752.064	1594.17
752.248	1563.45
752.432	1710.91
752.617	1504.06
752.801	1483.58
752.985	1471.29
753.17	1540.93
753.354	1620.8
753.538	1532.73
753.722	1547.07
753.907	1495.87
754.091	1547.07
754.275	1434.43
754.459	1368.9
754.643	1440.58
754.828	1350.46
755.012	1493.82
755.196	1508.16
755.38	1377.09
755.564	1401.66
755.748	1377.09
755.932	1319.75
756.116	1317.7
756.3	1424.19
756.484	1473.34
756.668	1362.75
756.852	1311.55
757.036	1278.79
757.22	1325.89
757.404	1295.17
757.588	1315.65
757.772	1286.98
757.956	1340.22
758.14	1268.55
758.323	1176.39
758.507	1389.38
758.691	1254.21
758.875	1319.75
759.059	1235.78
759.242	1264.45
759.426	1203.01
759.61	1207.11
759.794	1268.55
759.977	1192.77
760.161	1241.92
760.345	1309.51
760.528	1213.25
760.712	1229.63
760.895	1188.68
761.079	1004.36
761.263	1073.99
761.446	1069.89
761.63	1143.62
761.813	1186.63
761.997	1080.13
762.18	1104.71
762.364	1080.13
762.547	1022.79
762.731	1053.51
762.914	940.87
763.098	1053.51
763.281	1030.98
763.464	1049.41
763.648	1102.66
763.831	1088.32
764.015	1039.17
764.198	979.78
764.381	1114.95
764.564	1080.13
764.748	1012.55
764.931	940.87
765.114	1014.6
765.297	1004.36
765.481	1047.37
765.664	1098.56
765.847	938.82
766.03	1061.7
766.213	1012.55
766.397	1028.93
766.58	1088.32
766.763	1047.37
766.946	947.01
767.129	1010.5
767.312	869.19
767.495	949.06
767.678	832.33
767.861	883.53
768.044	1004.36
768.227	951.11
768.41	998.21
768.593	951.11
768.776	951.11
768.959	996.17
769.142	940.87
769.324	969.54
769.507	965.45
769.69	865.1
769.873	942.92
770.056	949.06
770.239	977.73
770.421	947.01
770.604	922.44
770.787	916.3
770.97	910.15
771.152	942.92
771.335	947.01
771.518	877.38
771.7	865.1
771.883	932.68
772.066	875.34
772.248	914.25
772.431	891.72
772.613	906.06
772.796	951.11
772.978	842.57
773.161	852.81
773.343	938.82
773.526	832.33
773.708	807.75
773.891	766.79
774.073	940.87
774.256	688.97
774.438	897.86
774.621	836.42
774.803	912.2
774.985	799.56
775.168	848.71
775.35	731.98
775.532	799.56
775.715	727.88
775.897	770.89
776.079	817.99
776.261	770.89
776.444	691.02
776.626	787.27
776.808	820.04
776.99	676.68
777.173	772.94
777.355	774.99
777.537	672.59
777.719	783.18
777.901	668.49
778.083	701.26
778.265	688.97
778.447	756.55
778.629	734.03
778.811	684.87
778.993	783.18
779.175	684.87
779.357	742.22
779.539	674.64
779.721	686.92
779.903	650.06
780.085	623.44
780.267	693.07
780.449	615.24
780.631	719.69
780.812	686.92
780.994	596.81
781.176	596.81
781.358	684.87
781.54	576.33
781.721	602.96
781.903	574.28
782.085	605
782.267	564.04
782.448	551.76
782.63	512.85
782.812	455.5
782.993	619.34
783.175	562
783.357	529.23
783.538	553.8
783.72	566.09
783.901	545.61
784.083	619.34
784.264	488.27
784.446	459.6
784.627	537.42
784.809	500.56
784.99	504.65
785.172	617.29
785.353	586.57
785.535	521.04
785.716	426.83
785.897	504.65
786.079	473.93
786.26	598.86
786.441	543.57
786.623	492.37
786.804	484.17
786.985	459.6
787.167	463.69
787.348	482.13
787.529	512.85
787.71	498.51
787.891	488.27
788.073	512.85
788.254	398.16
788.435	430.93
788.616	480.08
788.797	428.88
788.978	422.73
789.159	447.31
789.34	494.41
789.522	357.2
789.703	353.1
789.884	512.85
790.065	406.35
790.246	389.97
790.427	410.45
790.607	451.41
790.788	455.5
790.969	385.87
791.15	324.43
791.331	359.25
791.512	414.54
791.693	424.78
791.874	394.06
792.054	414.54
792.235	392.02
792.416	412.5
792.597	291.66
792.778	398.16
792.958	408.4
793.139	383.82
793.32	318.29
793.5	398.16
793.681	338.77
793.862	430.93
794.042	367.44
794.223	322.38
794.404	340.82
794.584	332.62
794.765	377.68
794.945	355.15
795.126	416.59
795.306	287.57
795.487	340.82
795.667	275.28
795.848	422.73
796.028	312.14
796.209	326.48
796.389	373.58
796.57	340.82
796.75	373.58
796.93	338.77
797.111	308.05
797.291	238.42
797.471	336.72
797.652	293.71
797.832	318.29
798.012	273.23
798.192	324.43
798.373	332.62
798.553	328.53
798.733	299.86
798.913	230.23
799.093	340.82
799.274	334.67
799.454	269.14
799.634	334.67
799.814	344.91
799.994	369.49
800.174	295.76
800.354	275.28
800.534	301.9
800.714	269.14
800.894	312.14
801.074	283.47
801.254	299.86
801.434	318.29
801.614	250.71
801.794	303.95
801.974	861
802.154	238.42
802.334	316.24
802.514	217.94
802.693	295.76
802.873	230.23
803.053	320.34
803.233	148.31
803.413	250.71
803.592	172.88
803.772	246.61
803.952	316.24
804.131	217.94
804.311	303.95
804.491	258.9
804.67	244.56
804.85	226.13
805.03	271.19
805.209	260.95
805.389	258.9
805.568	250.71
805.748	222.03
805.928	283.47
806.107	193.36
806.287	252.75
806.466	209.75
806.646	187.22
806.825	209.75
807.004	299.86
807.184	234.32
807.363	168.79
807.543	191.31
807.722	170.83
807.901	336.72
808.081	193.36
808.26	209.75
808.439	238.42
808.619	230.23
808.798	209.75
808.977	209.75
809.156	299.86
809.336	187.22
809.515	271.19
809.694	238.42
809.873	234.32
810.052	234.32
810.231	226.13
810.411	234.32
810.59	267.09
810.769	168.79
810.948	148.31
811.127	146.26
811.306	131.92
811.485	224.08
811.664	285.52
811.843	160.59
812.022	260.95
812.201	176.98
812.38	242.51
812.559	146.26
812.737	267.09
812.916	189.27
813.095	199.51
813.274	258.9
813.453	170.83
813.632	152.4
813.811	152.4
813.989	113.49
814.168	201.55
814.347	181.07
814.526	172.88
814.704	279.38
814.883	230.23
815.062	189.27
815.24	217.94
815.419	78.68
815.598	156.5
815.776	105.3
815.955	217.94
816.133	70.48
816.312	172.88
816.49	127.83
816.669	123.73
816.847	138.07
817.026	133.97
817.204	138.07
817.383	121.68
817.561	119.64
817.74	195.41
817.918	166.74
818.097	152.4
818.275	140.12
818.453	142.16
818.632	103.25
818.81	154.45
818.988	127.83
819.167	117.59
819.345	109.4
819.523	103.25
819.701	88.92
819.879	121.68
820.058	185.17
820.236	123.73
820.414	242.51
820.592	111.44
820.77	103.25
820.948	154.45
821.127	107.35
821.305	144.21
821.483	123.73
821.661	217.94
821.839	203.6
822.017	193.36
822.195	127.83
822.373	185.17
822.551	121.68
822.729	185.17
822.907	181.07
823.085	242.51
823.262	103.25
823.44	138.07
823.618	179.03
823.796	187.22
823.974	160.59
824.152	78.68
824.329	127.83
824.507	144.21
824.685	127.83
824.863	113.49
825.04	138.07
825.218	185.17
825.396	197.46
825.574	148.31
825.751	179.03
825.929	201.55
826.107	123.73
826.284	234.32
826.462	152.4
826.639	45.91
826.817	142.16
826.994	119.64
827.172	25.43
827.349	160.59
827.527	121.68
827.704	47.96
827.882	88.92
828.059	138.07
828.237	88.92
828.414	144.21
828.591	78.68
828.769	154.45
828.946	113.49
829.124	78.68
829.301	101.2
829.478	95.06
829.655	70.48
829.833	131.92
830.01	86.87
830.187	154.45
830.364	101.2
830.542	78.68
830.719	170.83
830.896	164.69
831.073	60.24
831.25	52.05
831.427	172.88
831.604	97.11
831.782	127.83
831.959	127.83
832.136	31.57
832.313	181.07
832.49	138.07
832.667	193.36
832.844	52.05
833.021	164.69
833.198	144.21
833.374	140.12
833.551	154.45
833.728	90.96
833.905	86.87
834.082	31.57
834.259	197.46
834.436	144.21
834.612	66.39
834.789	58.2
834.966	70.48
835.143	97.11
835.319	119.64
835.496	140.12
835.673	115.54
835.85	62.29
836.026	84.82
836.203	95.06
836.38	82.77
836.556	148.31
836.733	29.52
836.909	170.83
837.086	95.06
837.262	146.26
837.439	86.87
837.616	66.39
837.792	97.11
837.968	70.48
838.145	74.58
838.321	78.68
838.498	60.24
838.674	152.4
838.851	136.02
839.027	133.97
839.203	90.96
839.38	62.29
839.556	70.48
839.732	152.4
839.909	103.25
840.085	181.07
840.261	-3.24
840.437	70.48
840.614	113.49
840.79	62.29
840.966	64.34
841.142	164.69
841.318	13.14
841.494	95.06
841.671	66.39
841.847	78.68
842.023	43.86
842.199	78.68
842.375	105.3
842.551	103.25
842.727	82.77
842.903	68.44
843.079	-15.53
843.255	140.12
843.431	86.87
843.607	68.44
843.783	29.52
843.959	86.87
844.134	68.44
844.31	136.02
844.486	62.29
844.662	78.68
844.838	90.96
845.013	136.02
845.189	95.06
845.365	82.77
845.541	60.24
845.716	62.29
845.892	23.38
846.068	21.33
846.244	37.72
846.419	82.77
846.595	11.09
846.77	78.68
846.946	95.06
847.122	99.16
847.297	99.16
847.473	62.29
847.648	37.72
847.824	113.49
847.999	7
848.175	62.29
848.35	127.83
848.526	54.1
848.701	95.06
848.876	107.35
849.052	111.44
849.227	82.77
849.403	35.67
849.578	88.92
849.753	88.92
849.929	152.4
850.104	56.15
850.279	47.96
850.454	144.21
850.63	62.29
850.805	37.72
850.98	21.33
851.155	95.06
851.33	29.52
851.505	60.24
851.681	88.92
851.856	39.76
852.031	107.35
852.206	70.48
852.381	54.1
852.556	78.68
852.731	111.44
852.906	64.34
853.081	37.72
853.256	33.62
853.431	78.68
853.606	47.96
853.781	17.24
853.956	47.96
854.131	41.81
854.305	-3.24
854.48	78.68
854.655	29.52
854.83	-1.19
855.005	152.4
855.18	74.58
855.354	74.58
855.529	187.22
855.704	-3.24
855.879	47.96
856.053	-3.24
856.228	19.29
856.403	17.24
856.577	144.21
856.752	-19.63
856.926	54.1
857.101	80.72
857.276	41.81
857.45	86.87
857.625	84.82
857.799	45.91
857.974	52.05
858.148	-17.58
858.323	41.81
858.497	-3.24
858.672	7
858.846	15.19
859.02	37.72
859.195	31.57
859.369	56.15
859.543	72.53
859.718	64.34
859.892	60.24
860.066	76.63
860.241	80.72
860.415	82.77
860.589	15.19
860.763	80.72
860.938	33.62
861.112	74.58
861.286	43.86
861.46	-3.24
861.634	29.52
861.808	99.16
861.982	41.81
862.157	78.68
862.331	4.95
862.505	64.34
862.679	66.39
862.853	50
863.027	25.43
863.201	82.77
863.375	119.64
863.549	70.48
863.722	95.06
863.896	119.64
864.07	39.76
864.244	25.43
864.418	119.64
864.592	11.09
864.766	68.44
864.939	47.96
865.113	33.62
865.287	133.97
865.461	-23.72
865.634	82.77
865.808	-15.53
865.982	56.15
866.156	35.67
866.329	84.82
866.503	84.82
866.676	86.87
866.85	84.82
867.024	80.72
867.197	37.72
867.371	62.29
867.544	37.72
867.718	-27.82
867.891	27.48
868.065	27.48
868.238	7
868.412	45.91
868.585	62.29
868.759	4.95
868.932	54.1
869.105	-3.24
869.279	35.67
869.452	88.92
869.625	13.14
869.799	72.53
869.972	54.1
870.145	2.9
870.319	66.39
870.492	41.81
870.665	29.52
870.838	25.43
871.011	56.15
871.185	-11.43
871.358	115.54
871.531	13.14
871.704	7
871.877	105.3
872.05	4.95
872.223	54.1
872.396	70.48
872.569	15.19
872.742	9.05
872.915	88.92
873.088	70.48
873.261	39.76
873.434	11.09
873.607	-5.29
873.78	54.1
873.953	-27.82
874.126	74.58
874.299	7
874.471	21.33
874.644	-36.01
874.817	15.19
874.99	129.88
875.163	-23.72
875.335	-9.39
875.508	58.2
875.681	23.38
875.853	4.95
876.026	70.48
876.199	86.87
876.371	56.15
876.544	31.57
876.717	-3.24
876.889	25.43
877.062	37.72
877.234	29.52
877.407	64.34
877.579	17.24
877.752	39.76
877.924	45.91
878.097	13.14
878.269	31.57
878.442	23.38
878.614	74.58
878.786	136.02
878.959	74.58
879.131	45.91
879.303	-93.35
879.476	45.91
879.648	37.72
879.82	80.72
879.993	7
880.165	33.62
880.337	54.1
880.509	76.63
880.681	15.19
880.854	23.38
881.026	45.91
881.198	144.21
881.37	11.09
881.542	70.48
881.714	2.9
881.886	-11.43
882.058	45.91
882.23	-33.96
882.402	58.2
882.574	121.68
882.746	56.15
882.918	31.57
883.09	45.91
883.262	78.68
883.434	80.72
883.606	7
883.778	39.76
883.95	56.15
884.122	-9.39
884.293	86.87
884.465	-48.3
884.637	54.1
884.809	35.67
884.98	-17.58
885.152	9.05
885.324	74.58
885.496	41.81
885.667	-36.01
885.839	56.15
886.011	107.35
886.182	0.85
886.354	45.91
886.525	25.43
886.697	4.95
886.869	13.14
887.04	-64.68
887.212	62.29
887.383	47.96
887.555	35.67
887.726	19.29
887.897	47.96
888.069	15.19
888.24	54.1
888.412	31.57
888.583	50
888.754	41.81
888.926	58.2
889.097	-1.19
889.268	-68.78
889.44	13.14
889.611	2.9
889.782	52.05
889.953	-15.53
890.125	123.73
890.296	7
890.467	4.95
890.638	23.38
890.809	33.62
890.98	21.33
891.151	129.88
891.323	15.19
891.494	15.19
891.665	74.58
891.836	68.44
892.007	90.96
892.178	13.14
892.349	7
892.52	-23.72
892.691	29.52
892.862	25.43
893.032	7
893.203	7
893.374	56.15
893.545	50
893.716	13.14
893.887	21.33
894.057	-52.39
894.228	21.33
894.399	47.96
894.57	76.63
894.74	-48.3
894.911	113.49
895.082	50
895.253	-48.3
895.423	21.33
895.594	97.11
895.764	47.96
895.935	-3.24
896.106	80.72
896.276	45.91
896.447	13.14
896.617	47.96
896.788	52.05
896.958	45.91
897.129	15.19
897.299	50
897.47	127.83
897.64	90.96
897.81	37.72
897.981	7
898.151	13.14
898.322	37.72
898.492	84.82
898.662	70.48
898.832	54.1
899.003	31.57
899.173	-9.39
899.343	-7.34
899.513	-31.91
