Data from USB4F104151__102__14-43-41-273.txt Node

Date: Thu Mar 13 14:43:41 EDT 2025
User: louis
Spectrometer: USB4F10415
Trigger mode: 4
Integration Time (sec): 2.000000E-2
Scans to average: 1
Electric dark correction enabled: true
Nonlinearity correction enabled: false
Boxcar width: 0
XAxis mode: Wavelengths
Number of Pixels in Spectrum: 3648
>>>>>Begin Spectral Data<<<<<
178.204	-109.4
178.424	-109.4
178.644	-109.4
178.864	-95.06
179.084	-148.31
179.304	-41.81
179.524	25.77
179.744	-17.24
179.964	-21.33
180.184	9.39
180.404	5.29
180.624	40.11
180.844	11.43
181.064	-52.05
181.283	40.11
181.503	-11.09
181.723	11.43
181.943	-31.57
182.163	42.15
182.383	46.25
182.602	48.3
182.822	124.07
183.042	29.87
183.262	29.87
183.482	-58.2
183.701	1.19
183.921	31.91
184.141	3.24
184.361	36.01
184.58	13.48
184.8	15.53
185.02	-41.81
185.239	17.58
185.459	-27.48
185.679	27.82
185.898	33.96
186.118	9.39
186.338	-25.43
186.557	25.77
186.777	64.68
186.997	-11.09
187.216	-64.34
187.436	50.35
187.655	38.06
187.875	64.68
188.095	15.53
188.314	79.02
188.534	31.91
188.753	-19.29
188.973	40.11
189.192	99.5
189.412	-0.85
189.631	13.48
189.851	-35.67
190.07	60.59
190.29	25.77
190.509	40.11
190.729	-17.24
190.948	54.44
191.168	76.97
191.387	68.78
191.607	1.19
191.826	38.06
192.045	107.69
192.265	58.54
192.484	42.15
192.704	21.67
192.923	23.72
193.142	150.7
193.362	48.3
193.581	-9.05
193.8	42.15
194.02	46.25
194.239	-9.05
194.458	13.48
194.678	-2.9
194.897	-66.39
195.116	66.73
195.335	54.44
195.555	29.87
195.774	-23.38
195.993	25.77
196.212	46.25
196.432	15.53
196.651	25.77
196.87	33.96
197.089	130.22
197.308	46.25
197.528	40.11
197.747	58.54
197.966	23.72
198.185	25.77
198.404	-62.29
198.623	40.11
198.842	-47.96
199.062	113.83
199.281	15.53
199.5	-9.05
199.719	25.77
199.938	72.87
200.157	5.29
200.376	33.96
200.595	-27.48
200.814	42.15
201.033	9.39
201.252	52.39
201.471	44.2
201.69	56.49
201.909	60.59
202.128	15.53
202.347	-33.62
202.566	-52.05
202.785	-7
203.004	5.29
203.223	95.4
203.442	29.87
203.661	-84.82
203.879	66.73
204.098	5.29
204.317	-39.76
204.536	62.63
204.755	-27.48
204.974	33.96
205.193	-2.9
205.411	-0.85
205.63	-9.05
205.849	50.35
206.068	-7
206.287	-84.82
206.505	17.58
206.724	-52.05
206.943	76.97
207.162	9.39
207.381	23.72
207.599	-17.24
207.818	-27.48
208.037	-0.85
208.255	3.24
208.474	42.15
208.693	17.58
208.911	25.77
209.13	29.87
209.349	93.35
209.567	36.01
209.786	21.67
210.005	40.11
210.223	60.59
210.442	29.87
210.661	7.34
210.879	87.21
211.098	46.25
211.316	-19.29
211.535	70.83
211.753	25.77
211.972	-2.9
212.191	19.63
212.409	83.11
212.628	-11.09
212.846	74.92
213.065	15.53
213.283	13.48
213.502	-21.33
213.72	13.48
213.938	128.17
214.157	38.06
214.375	29.87
214.594	-4.95
214.812	-7
215.031	7.34
215.249	7.34
215.467	29.87
215.686	11.43
215.904	91.31
216.122	3.24
216.341	-33.62
216.559	-23.38
216.778	105.64
216.996	48.3
217.214	-2.9
217.432	-27.48
217.651	13.48
217.869	9.39
218.087	46.25
218.306	79.02
218.524	33.96
218.742	60.59
218.96	50.35
219.179	83.11
219.397	33.96
219.615	-2.9
219.833	-7
220.051	38.06
220.27	62.63
220.488	87.21
220.706	-11.09
220.924	11.43
221.142	-29.52
221.36	-21.33
221.578	9.39
221.796	-9.05
222.015	-88.92
222.233	29.87
222.451	103.59
222.669	9.39
222.887	-33.62
223.105	-25.43
223.323	62.63
223.541	-47.96
223.759	74.92
223.977	21.67
224.195	54.44
224.413	3.24
224.631	25.77
224.849	29.87
225.067	68.78
225.285	7.34
225.503	-9.05
225.721	5.29
225.939	-33.62
226.157	38.06
226.375	138.41
226.592	-4.95
226.81	50.35
227.028	70.83
227.246	46.25
227.464	21.67
227.682	5.29
227.9	29.87
228.117	3.24
228.335	56.49
228.553	-9.05
228.771	-64.34
228.989	38.06
229.206	40.11
229.424	-2.9
229.642	23.72
229.86	31.91
230.077	66.73
230.295	62.63
230.513	50.35
230.731	38.06
230.948	93.35
231.166	105.64
231.384	44.2
231.601	29.87
231.819	89.26
232.037	-41.81
232.254	56.49
232.472	29.87
232.689	-37.72
232.907	-23.38
233.125	13.48
233.342	68.78
233.56	-11.09
233.777	1.19
233.995	9.39
234.213	23.72
234.43	-9.05
234.648	-52.05
234.865	-4.95
235.083	72.87
235.3	46.25
235.518	19.63
235.735	5.29
235.953	66.73
236.17	36.01
236.388	-64.34
236.605	-27.48
236.822	66.73
237.04	21.67
237.257	128.17
237.475	-45.91
237.692	-11.09
237.909	9.39
238.127	38.06
238.344	-68.44
238.562	38.06
238.779	-29.52
238.996	91.31
239.214	36.01
239.431	15.53
239.648	46.25
239.865	87.21
240.083	58.54
240.3	19.63
240.517	48.3
240.735	54.44
240.952	38.06
241.169	17.58
241.386	76.97
241.603	40.11
241.821	15.53
242.038	48.3
242.255	-2.9
242.472	-50
242.689	13.48
242.907	3.24
243.124	31.91
243.341	-60.24
243.558	-43.86
243.775	19.63
243.992	-11.09
244.209	48.3
244.426	58.54
244.643	54.44
244.86	54.44
245.078	79.02
245.295	74.92
245.512	29.87
245.729	-11.09
245.946	5.29
246.163	62.63
246.38	-0.85
246.597	-0.85
246.814	48.3
247.031	-23.38
247.248	79.02
247.464	25.77
247.681	9.39
247.898	21.67
248.115	111.78
248.332	54.44
248.549	23.72
248.766	101.55
248.983	87.21
249.2	87.21
249.417	15.53
249.633	40.11
249.85	13.48
250.067	13.48
250.284	46.25
250.501	-19.29
250.717	103.59
250.934	-27.48
251.151	5.29
251.368	50.35
251.585	79.02
251.801	5.29
252.018	-80.72
252.235	91.31
252.451	5.29
252.668	21.67
252.885	46.25
253.102	76.97
253.318	5.29
253.535	31.91
253.752	97.45
253.968	-60.24
254.185	-7
254.401	40.11
254.618	42.15
254.835	-19.29
255.051	74.92
255.268	29.87
255.484	-19.29
255.701	21.67
255.917	-25.43
256.134	-31.57
256.351	31.91
256.567	-11.09
256.784	-15.19
257	19.63
257.217	5.29
257.433	9.39
257.65	29.87
257.866	103.59
258.082	-31.57
258.299	-39.76
258.515	25.77
258.732	50.35
258.948	7.34
259.165	29.87
259.381	29.87
259.597	54.44
259.814	9.39
260.03	21.67
260.246	48.3
260.463	40.11
260.679	46.25
260.895	29.87
261.112	9.39
261.328	-13.14
261.544	70.83
261.761	95.4
261.977	-25.43
262.193	9.39
262.409	-0.85
262.626	25.77
262.842	31.91
263.058	17.58
263.274	99.5
263.49	1.19
263.707	79.02
263.923	36.01
264.139	-68.44
264.355	-11.09
264.571	70.83
264.787	-0.85
265.004	38.06
265.22	11.43
265.436	-39.76
265.652	21.67
265.868	-0.85
266.084	-9.05
266.3	79.02
266.516	40.11
266.732	38.06
266.948	19.63
267.164	-4.95
267.38	31.91
267.596	5.29
267.812	-2.9
268.028	-41.81
268.244	3.24
268.46	91.31
268.676	-31.57
268.892	44.2
269.108	31.91
269.324	-9.05
269.54	46.25
269.756	33.96
269.972	-27.48
270.188	62.63
270.403	-0.85
270.619	-0.85
270.835	21.67
271.051	46.25
271.267	11.43
271.483	-66.39
271.698	38.06
271.914	48.3
272.13	124.07
272.346	5.29
272.562	58.54
272.777	101.55
272.993	46.25
273.209	7.34
273.425	48.3
273.64	9.39
273.856	97.45
274.072	-11.09
274.287	54.44
274.503	13.48
274.719	-13.14
274.934	58.54
275.15	29.87
275.366	9.39
275.581	-27.48
275.797	15.53
276.012	42.15
276.228	7.34
276.444	1.19
276.659	87.21
276.875	-25.43
277.09	15.53
277.306	-35.67
277.521	29.87
277.737	21.67
277.952	21.67
278.168	31.91
278.383	-11.09
278.599	-15.19
278.814	11.43
279.03	111.78
279.245	81.07
279.461	21.67
279.676	7.34
279.892	-0.85
280.107	9.39
280.322	48.3
280.538	42.15
280.753	-2.9
280.969	21.67
281.184	40.11
281.399	21.67
281.615	17.58
281.83	25.77
282.045	-7
282.26	15.53
282.476	-27.48
282.691	17.58
282.906	42.15
283.122	128.17
283.337	-35.67
283.552	-0.85
283.767	54.44
283.983	-7
284.198	25.77
284.413	70.83
284.628	15.53
284.843	-7
285.058	70.83
285.274	23.72
285.489	27.82
285.704	15.53
285.919	29.87
286.134	9.39
286.349	52.39
286.564	21.67
286.779	62.63
286.995	46.25
287.21	-21.33
287.425	87.21
287.64	19.63
287.855	23.72
288.07	13.48
288.285	25.77
288.5	46.25
288.715	74.92
288.93	36.01
289.145	48.3
289.36	13.48
289.575	-41.81
289.79	52.39
290.004	5.29
290.219	31.91
290.434	7.34
290.649	13.48
290.864	-50
291.079	11.43
291.294	13.48
291.509	13.48
291.724	38.06
291.938	11.43
292.153	29.87
292.368	66.73
292.583	107.69
292.798	9.39
293.012	31.91
293.227	-72.53
293.442	15.53
293.657	13.48
293.871	-19.29
294.086	54.44
294.301	99.5
294.516	79.02
294.73	-19.29
294.945	-2.9
295.16	-66.39
295.374	-68.44
295.589	44.2
295.804	-64.34
296.018	17.58
296.233	29.87
296.447	-7
296.662	23.72
296.877	122.02
297.091	70.83
297.306	7.34
297.52	-0.85
297.735	29.87
297.949	-64.34
298.164	9.39
298.378	-23.38
298.593	-9.05
298.807	5.29
299.022	-2.9
299.236	76.97
299.451	46.25
299.665	-7
299.88	-23.38
300.094	1.19
300.309	-56.15
300.523	21.67
300.737	-62.29
300.952	46.25
301.166	38.06
301.381	-62.29
301.595	-27.48
301.809	95.4
302.024	25.77
302.238	-9.05
302.452	74.92
302.667	-11.09
302.881	46.25
303.095	46.25
303.309	21.67
303.524	42.15
303.738	44.2
303.952	29.87
304.166	23.72
304.381	-23.38
304.595	21.67
304.809	-11.09
305.023	5.29
305.237	-78.68
305.452	23.72
305.666	15.53
305.88	79.02
306.094	144.55
306.308	31.91
306.522	70.83
306.736	70.83
306.95	76.97
307.164	31.91
307.379	-19.29
307.593	79.02
307.807	31.91
308.021	-2.9
308.235	95.4
308.449	-25.43
308.663	-2.9
308.877	46.25
309.091	38.06
309.305	46.25
309.519	-29.52
309.733	40.11
309.947	-43.86
310.161	13.48
310.374	13.48
310.588	103.59
310.802	48.3
311.016	25.77
311.23	-23.38
311.444	-52.05
311.658	-7
311.872	25.77
312.085	9.39
312.299	38.06
312.513	54.44
312.727	103.59
312.941	9.39
313.154	44.2
313.368	29.87
313.582	-27.48
313.796	62.63
314.009	7.34
314.223	-7
314.437	13.48
314.651	9.39
314.864	31.91
315.078	70.83
315.292	1.19
315.505	46.25
315.719	5.29
315.933	66.73
316.146	-2.9
316.36	-0.85
316.573	60.59
316.787	29.87
317.001	-35.67
317.214	-47.96
317.428	31.91
317.641	-72.53
317.855	-33.62
318.068	-7
318.282	1.19
318.495	23.72
318.709	38.06
318.922	-58.2
319.136	87.21
319.349	27.82
319.563	15.53
319.776	38.06
319.99	-9.05
320.203	42.15
320.417	5.29
320.63	15.53
320.843	-23.38
321.057	33.96
321.27	29.87
321.483	-2.9
321.697	117.93
321.91	62.63
322.124	23.72
322.337	66.73
322.55	33.96
322.763	-0.85
322.977	-35.67
323.19	33.96
323.403	-2.9
323.617	13.48
323.83	58.54
324.043	-64.34
324.256	29.87
324.469	-88.92
324.683	52.39
324.896	56.49
325.109	17.58
325.322	-7
325.535	13.48
325.748	54.44
325.962	33.96
326.175	29.87
326.388	64.68
326.601	27.82
326.814	-0.85
327.027	46.25
327.24	29.87
327.453	-9.05
327.666	38.06
327.879	21.67
328.092	58.54
328.305	72.87
328.518	87.21
328.731	-2.9
328.944	38.06
329.157	11.43
329.37	-2.9
329.583	132.26
329.796	74.92
330.009	27.82
330.222	58.54
330.435	124.07
330.648	-4.95
330.861	29.87
331.073	48.3
331.286	128.17
331.499	56.49
331.712	-33.62
331.925	54.44
332.138	46.25
332.35	48.3
332.563	-19.29
332.776	89.26
332.989	-21.33
333.202	70.83
333.414	3.24
333.627	42.15
333.84	38.06
334.053	54.44
334.265	13.48
334.478	40.11
334.691	11.43
334.903	38.06
335.116	-84.82
335.329	33.96
335.541	-11.09
335.754	103.59
335.966	87.21
336.179	23.72
336.392	-47.96
336.604	-23.38
336.817	9.39
337.029	-7
337.242	29.87
337.454	13.48
337.667	21.67
337.88	79.02
338.092	52.39
338.305	29.87
338.517	83.11
338.729	1.19
338.942	89.26
339.154	7.34
339.367	13.48
339.579	46.25
339.792	5.29
340.004	83.11
340.217	50.35
340.429	52.39
340.641	-11.09
340.854	64.68
341.066	31.91
341.278	79.02
341.491	97.45
341.703	31.91
341.915	54.44
342.128	23.72
342.34	76.97
342.552	40.11
342.764	48.3
342.977	56.49
343.189	-54.1
343.401	56.49
343.613	36.01
343.826	117.93
344.038	62.63
344.25	-9.05
344.462	70.83
344.674	48.3
344.886	33.96
345.099	62.63
345.311	122.02
345.523	-21.33
345.735	-43.86
345.947	15.53
346.159	11.43
346.371	-2.9
346.583	-43.86
346.795	38.06
347.007	48.3
347.219	144.55
347.431	95.4
347.643	5.29
347.855	50.35
348.067	46.25
348.279	-13.14
348.491	-25.43
348.703	33.96
348.915	79.02
349.127	89.26
349.339	7.34
349.551	21.67
349.763	38.06
349.975	29.87
350.187	70.83
350.399	117.93
350.61	-2.9
350.822	23.72
351.034	29.87
351.246	89.26
351.458	17.58
351.669	103.59
351.881	54.44
352.093	19.63
352.305	50.35
352.517	124.07
352.728	15.53
352.94	-39.76
353.152	83.11
353.363	-17.24
353.575	33.96
353.787	31.91
353.999	5.29
354.21	103.59
354.422	70.83
354.633	66.73
354.845	-9.05
355.057	29.87
355.268	5.29
355.48	15.53
355.692	33.96
355.903	103.59
356.115	-72.53
356.326	31.91
356.538	50.35
356.749	15.53
356.961	115.88
357.172	117.93
357.384	-11.09
357.595	70.83
357.807	21.67
358.018	5.29
358.23	70.83
358.441	87.21
358.653	42.15
358.864	-2.9
359.075	79.02
359.287	13.48
359.498	111.78
359.709	66.73
359.921	-11.09
360.132	91.31
360.344	66.73
360.555	70.83
360.766	25.77
360.977	5.29
361.189	128.17
361.4	31.91
361.611	13.48
361.823	79.02
362.034	81.07
362.245	25.77
362.456	-27.48
362.667	-2.9
362.879	17.58
363.09	50.35
363.301	87.21
363.512	19.63
363.723	29.87
363.935	33.96
364.146	81.07
364.357	-15.19
364.568	-11.09
364.779	-21.33
364.99	66.73
365.201	48.3
365.412	33.96
365.623	1.19
365.834	66.73
366.045	70.83
366.256	56.49
366.467	85.16
366.678	13.48
366.889	-58.2
367.1	52.39
367.311	62.63
367.522	-2.9
367.733	29.87
367.944	58.54
368.155	-35.67
368.366	21.67
368.577	66.73
368.788	54.44
368.999	46.25
369.209	66.73
369.42	74.92
369.631	140.46
369.842	50.35
370.053	-0.85
370.264	54.44
370.474	15.53
370.685	56.49
370.896	38.06
371.107	23.72
371.317	29.87
371.528	5.29
371.739	74.92
371.95	-0.85
372.16	-15.19
372.371	-21.33
372.582	38.06
372.792	58.54
373.003	115.88
373.214	60.59
373.424	29.87
373.635	66.73
373.846	85.16
374.056	25.77
374.267	46.25
374.477	105.64
374.688	56.49
374.898	-50
375.109	62.63
375.319	79.02
375.53	15.53
375.74	29.87
375.951	21.67
376.161	74.92
376.372	31.91
376.582	-17.24
376.793	64.68
377.003	56.49
377.214	5.29
377.424	54.44
377.635	21.67
377.845	-9.05
378.055	54.44
378.266	-31.57
378.476	64.68
378.686	46.25
378.897	31.91
379.107	56.49
379.317	13.48
379.528	23.72
379.738	62.63
379.948	-23.38
380.158	72.87
380.369	38.06
380.579	23.72
380.789	105.64
380.999	21.67
381.21	91.31
381.42	83.11
381.63	52.39
381.84	42.15
382.05	62.63
382.261	119.98
382.471	29.87
382.681	9.39
382.891	70.83
383.101	42.15
383.311	23.72
383.521	25.77
383.731	79.02
383.941	25.77
384.151	29.87
384.361	50.35
384.571	-2.9
384.781	9.39
384.991	62.63
385.201	124.07
385.411	44.2
385.621	-4.95
385.831	-23.38
386.041	-0.85
386.251	46.25
386.461	99.5
386.671	1.19
386.881	54.44
387.091	42.15
387.301	144.55
387.511	5.29
387.72	33.96
387.93	31.91
388.14	3.24
388.35	25.77
388.56	62.63
388.769	58.54
388.979	79.02
389.189	11.43
389.399	-7
389.609	97.45
389.818	111.78
390.028	74.92
390.238	72.87
390.447	54.44
390.657	81.07
390.867	40.11
391.076	17.58
391.286	103.59
391.496	56.49
391.705	169.13
391.915	64.68
392.125	56.49
392.334	60.59
392.544	62.63
392.753	48.3
392.963	91.31
393.172	99.5
393.382	-9.05
393.591	103.59
393.801	46.25
394.01	29.87
394.22	54.44
394.429	70.83
394.639	-43.86
394.848	89.26
395.058	85.16
395.267	42.15
395.477	97.45
395.686	33.96
395.895	72.87
396.105	195.75
396.314	81.07
396.524	31.91
396.733	103.59
396.942	109.74
397.152	-7
397.361	136.36
397.57	72.87
397.78	101.55
397.989	85.16
398.198	54.44
398.407	50.35
398.617	5.29
398.826	50.35
399.035	54.44
399.244	40.11
399.453	74.92
399.663	99.5
399.872	95.4
400.081	54.44
400.29	79.02
400.499	72.87
400.708	128.17
400.917	134.31
401.127	138.41
401.336	70.83
401.545	140.46
401.754	146.6
401.963	107.69
402.172	107.69
402.381	-4.95
402.59	13.48
402.799	95.4
403.008	95.4
403.217	48.3
403.426	128.17
403.635	64.68
403.844	103.59
404.053	160.94
404.262	-11.09
404.471	148.65
404.68	105.64
404.888	115.88
405.097	64.68
405.306	91.31
405.515	126.12
405.724	113.83
405.933	212.14
406.142	99.5
406.35	179.37
406.559	122.02
406.768	203.94
406.977	152.74
407.185	156.84
407.394	128.17
407.603	70.83
407.812	152.74
408.02	154.79
408.229	201.9
408.438	208.04
408.646	152.74
408.855	203.94
409.064	177.32
409.272	140.46
409.481	267.43
409.69	228.52
409.898	212.14
410.107	269.48
410.315	162.98
410.524	271.53
410.733	335.01
410.941	226.47
411.15	369.83
411.358	341.16
411.567	349.35
411.775	251.05
411.984	335.01
412.192	357.54
412.401	359.59
412.609	480.42
412.818	480.42
413.026	470.18
413.234	384.16
413.443	414.88
413.651	455.84
413.86	480.42
414.068	615.59
414.276	533.67
414.485	519.33
414.693	507.04
414.901	529.57
415.11	619.68
415.318	580.77
415.526	554.15
415.734	638.11
415.943	591.01
416.151	627.87
416.359	746.66
416.567	732.32
416.776	828.57
416.984	775.33
417.192	816.29
417.4	824.48
417.608	742.56
417.817	818.33
418.025	857.25
418.233	984.22
418.441	894.11
418.649	988.32
418.857	988.32
419.065	1039.51
419.273	1043.61
419.481	1117.34
419.689	1211.54
419.897	1217.69
420.105	1189.02
420.313	1277.08
420.521	1324.18
420.729	1356.95
420.937	1279.13
421.145	1479.83
421.353	1438.87
421.561	1522.84
421.769	1651.86
421.977	1637.52
422.185	1686.67
422.393	1815.69
422.601	1979.53
422.809	1819.79
423.017	1922.19
423.224	2004.11
423.432	1957
423.64	1957
423.848	2223.24
424.056	2120.84
424.263	2122.89
424.471	2243.72
424.679	2247.82
424.887	2618.5
425.094	2608.26
425.302	2651.27
425.51	2737.28
425.718	2774.14
425.925	2718.85
426.133	2923.65
426.341	3140.73
426.548	3177.59
426.756	3124.35
426.964	3259.51
427.171	3464.31
427.379	3495.03
427.586	3478.65
427.794	3437.69
428.001	3722.35
428.209	3873.9
428.417	3789.94
428.624	4127.85
428.832	4138.09
429.039	4220.01
429.247	4222.06
429.454	4598.88
429.662	4985.95
429.869	4533.35
430.076	4787.3
430.284	4691.04
430.491	4994.14
430.699	5028.96
430.906	4985.95
431.114	5356.63
431.321	5428.31
431.528	5375.06
431.736	5956.69
431.943	6272.07
432.15	6100.05
432.358	6026.32
432.565	6466.63
432.772	6493.26
432.979	6632.52
433.187	6616.13
433.394	6870.08
433.601	7287.87
433.808	7248.96
434.016	7132.22
434.223	7480.38
434.43	8025.14
434.637	8023.09
434.844	8287.28
435.052	8651.81
435.259	8483.88
435.466	8688.68
435.673	8477.74
435.88	9104.42
436.087	9511.96
436.294	9315.36
436.501	9258.01
436.708	9409.56
436.915	9876.5
437.122	10290.19
437.329	10294.29
437.537	10523.66
437.743	10566.67
437.95	10599.43
438.157	10992.64
438.364	11342.85
438.571	11410.43
438.778	11463.68
438.985	12426.22
439.192	11934.71
439.399	12458.99
439.606	11928.56
439.813	12639.21
440.02	13781.98
440.227	13448.16
440.433	13312.99
440.64	13796.31
440.847	13562.84
441.054	13906.9
441.261	15109.06
441.467	14683.08
441.674	15045.57
441.881	15578.04
442.088	15539.13
442.294	15424.45
442.501	15838.14
442.708	16096.18
442.914	16585.65
443.121	17406.88
443.328	16890.79
443.534	18201.49
443.741	17652.64
443.948	17400.74
444.154	18625.42
444.361	18271.12
444.568	18625.42
444.774	18793.36
444.981	18938.76
445.187	19352.45
445.394	20124.54
445.6	20108.15
445.807	21928.8
446.013	20878.19
446.22	21496.67
446.426	22137.69
446.633	22020.95
446.839	23145.29
447.046	22479.7
447.252	23143.24
447.459	23264.07
447.665	23302.98
447.871	24386.36
448.078	25256.75
448.284	24369.97
448.491	25051.95
448.697	25586.47
448.903	26237.72
449.11	26411.8
449.316	26073.88
449.522	26327.83
449.728	27138.83
449.935	27403.02
450.141	27577.09
450.347	27939.58
450.553	27233.04
450.76	27511.56
450.966	28513.02
451.172	28457.72
451.378	28969.71
451.584	28328.7
451.791	29244.14
451.997	28945.14
452.203	29491.94
452.409	29672.17
452.615	29539.05
452.821	28449.53
453.027	27847.43
453.233	29508.33
453.44	28371.71
453.646	28588.79
453.852	28545.78
454.058	29623.01
454.264	28535.54
454.47	29489.9
454.676	28271.36
454.882	29577.96
455.088	26671.89
455.294	27413.26
455.5	27681.54
455.705	28162.81
455.911	26997.52
456.117	26342.17
456.323	26235.67
456.529	24591.16
456.735	26088.22
456.941	25131.82
457.147	24736.56
457.352	24070.97
457.558	23741.25
457.764	24032.06
457.97	23733.06
458.176	22801.23
458.381	23077.71
458.587	21697.38
458.793	21924.7
458.999	20982.63
459.204	22211.42
459.41	21648.22
459.616	20083.58
459.821	20286.33
460.027	20185.97
460.233	19772.28
460.438	19000.2
460.644	19053.45
460.85	18258.84
461.055	17922.97
461.261	17869.72
461.466	16493.49
461.672	15995.83
461.878	17134.5
462.083	16169.91
462.289	15907.77
462.494	15551.42
462.7	14904.26
462.905	14758.86
463.111	15014.85
463.316	15006.66
463.522	14422.99
463.727	14654.41
463.932	14597.07
464.138	14511.05
464.343	14654.41
464.549	14027.73
464.754	14396.37
464.959	14418.89
465.165	14355.41
465.37	13673.43
465.575	13327.33
465.781	13988.82
465.986	13962.2
466.191	13616.09
466.397	12950.5
466.602	12545
466.807	12901.35
467.012	13130.72
467.218	13026.28
467.423	12817.38
467.628	12991.46
467.833	13411.29
468.038	12960.74
468.244	12534.76
468.449	13212.64
468.654	12913.64
468.859	12475.37
469.064	12579.82
469.269	12024.82
469.474	12198.9
469.679	12522.48
469.885	12049.39
470.09	12114.93
470.295	12186.61
470.5	11834.36
470.705	12170.22
470.91	11744.25
471.115	11725.82
471.32	11652.09
471.525	11877.37
471.73	11402.24
471.935	11164.67
472.139	10953.73
472.344	11049.99
472.549	10937.35
472.754	10867.72
472.959	10566.67
473.164	10470.41
473.369	10437.64
473.574	10951.68
473.778	10640.39
473.983	10359.82
474.188	10714.12
474.393	9911.32
474.598	10091.54
474.802	10052.63
475.007	9671.7
475.212	9890.84
475.417	9436.19
475.621	9505.82
475.826	9593.88
476.031	9237.53
476.235	9251.87
476.44	9378.84
476.645	8999.97
476.849	9139.23
477.054	9055.26
477.259	8840.23
477.463	9137.18
477.668	8604.71
477.872	8782.88
478.077	8684.58
478.282	8418.35
478.486	8350.76
478.691	8449.07
478.895	8279.08
479.1	8354.86
479.304	8295.47
479.509	8025.14
479.713	8246.32
479.918	8049.71
480.122	7713.84
480.326	8006.7
480.531	8027.18
480.735	7781.43
480.94	7699.51
481.144	8072.24
481.348	7674.93
481.553	7783.48
481.757	7451.7
481.961	7719.99
482.166	7654.45
482.37	7558.2
482.574	7738.42
482.778	7664.69
482.983	7855.15
483.187	7660.6
483.391	7631.93
483.595	7556.15
483.8	7248.96
484.004	7586.87
484.208	7631.93
484.412	7568.44
484.616	7470.14
484.821	7476.28
485.025	7500.86
485.229	7711.8
485.433	7480.38
485.637	7666.74
485.841	7537.72
486.045	7533.62
486.249	7672.89
486.453	7507
486.657	7619.64
486.861	7636.02
487.065	7402.55
487.269	7533.62
487.473	7472.18
487.677	7484.47
487.881	7715.89
488.085	7601.21
488.289	7648.31
488.493	7509.05
488.697	7636.02
488.901	7474.23
489.105	7779.38
489.309	7773.24
489.512	7705.65
489.716	7640.12
489.92	7642.17
490.124	7810.1
490.328	7820.34
490.531	7668.79
490.735	7787.57
490.939	7844.91
491.143	7738.42
491.346	7693.37
491.55	7758.9
491.754	7781.43
491.958	7861.3
492.161	7912.5
492.365	8070.19
492.569	7869.49
492.772	7910.45
492.976	8246.32
493.18	8070.19
493.383	8299.56
493.587	8150.06
493.79	8369.19
493.994	8172.59
494.197	8328.24
494.401	8467.5
494.605	8371.24
494.808	8399.91
495.012	8496.17
495.215	8551.46
495.419	8682.53
495.622	8576.04
495.825	8698.92
496.029	8727.59
496.232	8979.49
496.436	8965.15
496.639	9249.82
496.843	9172
497.046	9108.51
497.249	9382.94
497.453	9411.61
497.656	9442.33
497.859	9407.52
498.063	9561.11
498.266	9819.16
498.469	9935.89
498.673	9903.12
498.876	10093.58
499.079	10136.59
499.282	10243.09
499.485	10482.7
499.689	10392.59
499.892	10454.03
500.095	10480.65
500.298	11072.51
500.501	10705.93
500.705	11236.35
500.908	11172.86
501.111	11404.28
501.314	11531.26
501.517	11588.6
501.72	11529.21
501.923	11764.73
502.126	11955.19
502.329	12119.03
502.532	12037.11
502.735	12260.34
502.938	12514.28
503.141	12565.48
503.344	12651.5
503.547	12610.54
503.75	12999.65
503.953	13077.48
504.156	13067.24
504.359	13417.44
504.562	13288.42
504.765	13648.86
504.968	13632.47
505.17	13919.19
505.373	14015.44
505.576	14232.53
505.779	14418.89
505.982	14382.03
506.185	14558.16
506.387	15025.09
506.59	15070.15
506.793	15283.14
506.996	15256.51
507.198	15676.35
507.401	15492.03
507.604	15989.69
507.807	16237.49
508.009	15961.02
508.212	16513.97
508.415	16395.18
508.617	16612.27
508.82	16655.28
509.022	16806.83
509.225	17099.69
509.428	17380.26
509.63	17443.74
509.833	17453.98
510.035	17949.59
510.238	17918.87
510.44	18365.33
510.643	18523.02
510.845	18582.42
511.048	18283.41
511.25	18766.73
511.453	18987.91
511.655	19641.21
511.858	19127.17
512.06	19751.81
512.262	19831.68
512.465	19850.11
512.667	20267.89
512.87	20206.45
513.072	20286.33
513.274	20603.76
513.477	20859.76
513.679	21300.07
513.881	21476.19
514.084	21488.48
514.286	21703.52
514.488	21523.3
514.69	22000.47
514.893	22197.08
515.095	22219.61
515.297	22856.53
515.499	23112.52
515.701	22952.78
515.904	23401.29
516.106	23311.17
516.308	23782.21
516.51	24027.96
516.712	24087.36
516.914	24531.76
517.116	24871.73
517.318	24927.02
517.52	24963.89
517.722	24781.62
517.925	25666.34
518.127	25977.63
518.329	25903.9
518.531	25578.28
518.733	26546.97
518.935	26360.6
519.136	26405.66
519.338	26917.65
519.54	27155.21
519.742	27288.33
519.944	27165.45
520.146	28011.26
520.348	27779.84
520.55	27867.91
520.752	27861.76
520.954	28756.72
521.155	28332.79
521.357	28902.13
521.559	29006.58
521.761	29706.98
521.963	29119.21
522.164	29717.22
522.366	29557.48
522.568	30188.25
522.77	29885.15
522.971	30583.51
523.173	30606.04
523.375	30870.23
523.576	30761.69
523.778	31118.03
523.98	31109.84
524.181	31111.89
524.383	31118.03
524.584	31701.7
524.786	31879.88
524.988	31933.12
525.189	31871.68
525.391	32107.2
525.592	32592.57
525.794	32694.97
525.995	32664.25
526.197	32492.22
526.398	32608.95
526.6	33206.96
526.801	33071.79
527.003	32996.02
527.204	33331.89
527.406	33551.02
527.607	33809.06
527.808	33843.88
528.01	32901.81
528.211	33546.92
528.412	34288.29
528.614	34222.75
528.815	33977
529.016	34204.32
529.218	34308.77
529.419	34017.96
529.62	34263.71
529.822	34374.3
530.023	34542.24
530.224	34683.55
530.425	34341.53
530.626	34194.08
530.828	34343.58
531.029	35363.47
531.23	34620.06
531.431	34955.93
531.632	34650.78
531.833	35062.42
532.035	34841.24
532.236	34509.47
532.437	35000.98
532.638	34615.96
532.839	35422.86
533.04	35439.25
533.241	34841.24
533.442	35551.88
533.643	35285.65
533.844	35357.33
534.045	34917.01
534.246	35230.35
534.447	35166.87
534.648	35189.39
534.849	35209.87
535.05	35095.19
535.251	35283.6
535.451	35267.22
535.652	35394.19
535.853	34857.62
536.054	35150.48
536.255	35359.38
536.456	35115.67
536.657	35373.71
536.857	35359.38
537.058	35162.77
537.259	35492.49
537.46	35195.54
537.66	34894.49
537.861	35054.23
538.062	35248.78
538.263	35252.88
538.463	35211.92
538.664	35185.3
538.865	35136.15
539.065	35326.61
539.266	34876.05
539.466	35555.98
539.667	34628.25
539.868	35365.52
540.068	35046.04
540.269	34826.9
540.469	35211.92
540.67	35068.56
540.87	35168.91
541.071	35179.15
541.271	35142.29
541.472	35197.59
541.672	35119.76
541.873	34988.69
542.073	34579.1
542.274	35414.67
542.474	34917.01
542.675	34419.36
542.875	35043.99
543.075	34761.37
543.276	34562.72
543.476	34876.05
543.676	34751.13
543.877	35050.13
544.077	34687.64
544.277	34888.34
544.478	34556.57
544.678	35158.67
544.878	34689.69
545.078	34902.68
545.279	34257.57
545.479	34675.35
545.679	34785.94
545.879	34925.21
546.079	35046.04
546.28	34753.18
546.48	34425.5
546.68	34847.38
546.88	34828.95
547.08	34939.54
547.28	34421.41
547.48	34439.84
547.68	34603.67
547.88	34304.67
548.081	34785.94
548.281	34992.79
548.481	34362.01
548.681	34671.26
548.881	34564.76
549.081	34400.93
549.28	34603.67
549.48	34673.31
549.68	34581.15
549.88	35062.42
550.08	34149.03
550.28	34460.32
550.48	34331.29
550.68	34536.09
550.88	34216.61
551.08	34349.73
551.279	34511.52
551.479	34259.62
551.679	34675.35
551.879	33880.74
552.079	34697.88
552.278	34278.05
552.478	34228.9
552.678	34513.56
552.878	34804.38
553.077	33899.17
553.277	34124.45
553.477	34421.41
553.676	33731.24
553.876	34140.83
554.076	34118.31
554.275	34355.87
554.475	33995.43
554.674	34071.2
554.874	34423.45
555.074	33968.8
555.273	34196.13
555.473	34200.22
555.672	33489.58
555.872	33501.87
556.071	34116.26
556.271	34161.31
556.47	33852.07
556.67	33671.85
556.869	33450.67
557.068	33821.35
557.268	33628.84
557.467	33823.4
557.667	33909.41
557.866	33815.21
558.065	33452.72
558.265	33422
558.464	33174.19
558.663	33594.03
558.863	33073.84
559.062	33456.81
559.261	33120.95
559.461	33516.2
559.66	33065.65
559.859	33090.23
560.058	32688.82
560.258	33288.88
560.457	32914.1
560.656	33276.59
560.855	33090.23
561.054	32823.99
561.253	32957.11
561.453	32760.5
561.652	32740.02
561.851	33018.55
562.05	32598.71
562.249	32633.53
562.448	33108.66
562.647	32582.33
562.846	32375.48
563.045	32985.78
563.244	32238.27
563.443	32950.96
563.642	31830.72
563.841	32070.34
564.04	32230.08
564.239	32174.78
564.438	32201.41
564.637	32131.78
564.836	32291.52
565.035	32082.63
565.234	31857.35
565.432	31804.1
565.631	31951.56
565.83	31943.36
566.029	31636.17
566.228	31595.21
566.427	31519.43
566.625	31351.5
566.824	31288.01
567.023	31351.5
567.222	31193.81
567.42	31496.91
567.619	31419.08
567.818	31066.83
568.016	31247.05
568.215	31535.82
568.414	31179.47
568.612	31038.16
568.811	30720.73
569.01	30859.99
569.208	30452.44
569.407	30757.59
569.605	30362.33
569.804	30714.58
570.002	30362.33
570.201	30587.61
570.4	30298.84
570.598	30094.05
570.797	30292.7
570.995	30005.98
571.193	29926.11
571.392	30229.21
571.59	29940.45
571.789	29813.48
571.987	29788.9
572.186	29797.09
572.384	29528.81
572.582	29690.6
572.781	29577.96
572.979	29260.52
573.177	29291.24
573.376	29596.39
573.574	29158.13
573.772	29151.98
573.971	29115.12
574.169	28754.68
574.367	29004.53
574.565	29121.26
574.763	29151.98
574.962	28900.08
575.16	28300.03
575.358	29131.5
575.556	28228.35
575.754	28613.37
575.952	28388.09
576.151	28359.42
576.349	27976.45
576.547	28259.07
576.745	28474.1
576.943	28396.28
577.141	28203.77
577.339	28015.36
577.537	27831.04
577.735	27933.44
577.933	27587.33
578.131	27771.65
578.329	27511.56
578.527	27454.22
578.725	27474.7
578.923	27513.61
579.121	27419.4
579.319	27349.77
579.516	27564.81
579.714	27056.91
579.912	27249.42
580.11	27214.6
580.308	26919.7
580.506	27134.73
580.704	26344.22
580.901	26815.25
581.099	27067.15
581.297	26784.53
581.495	26639.12
581.692	26635.03
581.89	26391.32
582.088	26538.77
582.285	26286.87
582.483	26534.68
582.681	26254.11
582.878	26235.67
583.076	25918.24
583.274	26168.09
583.471	26184.48
583.669	25981.73
583.866	25551.65
584.064	25766.69
584.262	25518.89
584.459	25604.9
584.657	25443.11
584.854	25711.39
585.052	25434.92
585.249	25426.73
585.447	25305.9
585.644	25205.55
585.841	25076.52
586.039	25404.2
586.236	25154.35
586.434	25056.04
586.631	24703.79
586.828	25119.53
587.026	24765.23
587.223	24685.36
587.42	24607.54
587.618	24689.46
587.815	24302.39
588.012	24339.26
588.21	24230.71
588.407	24689.46
588.604	24394.55
588.801	24034.11
588.999	24089.4
589.196	23968.57
589.393	23915.33
589.59	24091.45
589.787	24030.01
589.984	23612.23
590.182	23366.47
590.379	23851.84
590.576	23491.4
590.773	23360.33
590.97	23249.74
591.167	23333.7
591.364	23096.14
591.561	23214.92
591.758	23245.64
591.955	23270.22
592.152	23149.39
592.349	22940.49
592.546	22987.6
592.743	22938.44
592.94	22522.71
593.137	22772.56
593.334	22741.84
593.531	22276.95
593.727	22692.69
593.924	22573.91
594.121	22219.61
594.318	22348.63
594.515	22111.07
594.712	22414.16
594.908	22229.85
595.105	22088.54
595.302	21738.33
595.499	22010.71
595.696	21867.36
595.892	21556.07
596.089	21599.07
596.286	21724
596.482	21484.39
596.679	21640.03
596.876	21754.72
597.072	21465.96
597.269	21287.78
597.466	21099.37
597.662	21205.86
597.859	21111.66
598.055	21287.78
598.252	21027.69
598.448	20984.68
598.645	20872.04
598.841	20558.7
599.038	20919.15
599.234	20644.72
599.431	20634.48
599.627	20525.94
599.824	20667.25
600.02	20276.09
600.217	20566.9
600.413	20188.02
600.609	20288.37
600.806	19952.51
601.002	20513.65
601.198	20091.77
601.395	20222.84
601.591	19876.73
601.787	19970.94
601.984	19831.68
602.18	20028.28
602.376	19909.5
602.572	19628.93
602.769	19813.24
602.965	19317.64
603.161	19581.82
603.357	19499.91
603.553	19626.88
603.75	19426.18
603.946	19364.74
604.142	19362.69
604.338	19006.34
604.534	19022.73
604.73	19139.46
604.926	18996.1
605.122	19065.74
605.318	18781.07
605.514	18764.68
605.71	18586.51
605.906	18482.06
606.102	18844.56
606.298	18684.81
606.494	18629.52
606.69	18551.7
606.886	18518.93
607.082	18154.39
607.278	18350.99
607.474	18299.8
607.67	18549.65
607.866	18041.75
608.062	18336.66
608.257	18135.96
608.453	17871.77
608.649	18127.77
608.845	17978.26
609.041	18097.05
609.236	17777.56
609.432	17978.26
609.628	17808.28
609.824	17945.5
610.019	17867.67
610.215	17724.32
610.411	17589.15
610.606	17707.93
610.802	17734.56
610.998	17759.13
611.193	17646.49
611.389	17789.85
611.584	17161.12
611.78	17398.69
611.976	17314.72
612.171	17580.96
612.367	17200.04
612.562	17116.07
612.758	17134.5
612.953	16982.95
613.149	17249.19
613.344	17216.42
613.539	17247.14
613.735	16921.51
613.93	17210.28
614.126	16765.87
614.321	17226.66
614.517	16950.18
614.712	17064.87
614.907	17036.2
615.103	16956.33
615.298	16692.14
615.493	16847.79
615.688	16710.57
615.884	16645.04
616.079	16677.8
616.274	16538.54
616.47	16636.84
616.665	16419.76
616.86	16604.08
617.055	16468.91
617.25	16462.77
617.445	16565.17
617.641	16374.7
617.836	16389.04
618.031	16307.12
618.226	16456.62
618.421	16206.77
618.616	16327.6
618.811	15944.63
619.006	16171.96
619.201	16145.33
619.396	15756.22
619.591	15680.44
619.786	15815.61
619.981	15518.65
620.176	15936.44
620.371	15911.86
620.566	15723.45
620.761	15455.17
620.956	15498.17
621.151	15317.95
621.346	15326.14
621.541	15215.55
621.735	15092.68
621.93	15322.05
622.125	15223.75
622.32	14777.29
622.515	14703.56
622.709	14728.14
622.904	14984.13
623.099	14689.23
623.294	14758.86
623.488	14185.43
623.683	14291.92
623.878	14394.32
624.072	14408.65
624.267	14136.27
624.462	13974.49
624.656	13632.47
624.851	14152.66
625.046	13784.02
625.24	13900.76
625.435	13611.99
625.629	13609.95
625.824	13634.52
626.018	13695.96
626.213	13161.44
626.407	13442.01
626.602	13204.45
626.796	13239.26
626.991	13292.51
627.185	13218.78
627.38	12975.08
627.574	12952.55
627.768	12831.72
627.963	12583.91
628.157	12665.83
628.352	12751.85
628.546	12317.68
628.74	12573.67
628.935	12383.21
629.129	12389.36
629.323	12309.49
629.517	12155.89
629.712	12289.01
629.906	12090.35
630.1	11940.85
630.294	12149.75
630.489	11854.84
630.683	12010.48
630.877	11707.38
631.071	11523.07
631.265	11830.26
631.459	11459.58
631.653	11457.53
631.848	11551.74
632.042	11289.6
632.236	11512.83
632.43	11322.37
632.624	11416.57
632.818	11240.45
633.012	11213.82
633.206	11115.52
633.4	11236.35
633.594	10935.3
633.788	10947.59
633.982	10877.96
634.176	10884.1
634.369	10650.63
634.563	10750.98
634.757	10544.14
634.951	10636.3
635.145	10607.62
635.339	10644.49
635.533	10325.01
635.726	10490.89
635.92	10132.5
636.114	10183.7
636.308	10150.93
636.501	10380.3
636.695	10058.77
636.889	10064.91
637.083	9974.8
637.276	9978.9
637.47	9933.84
637.664	9896.98
637.857	9679.89
638.051	9970.71
638.244	9847.83
638.438	9741.33
638.632	9524.25
638.825	9376.8
639.019	9514.01
639.212	9448.47
639.406	9417.75
639.599	9126.94
639.793	9206.81
639.986	9262.11
640.18	9425.95
640.373	9264.16
640.567	9161.76
640.76	9036.83
640.954	8987.68
641.147	8832.04
641.34	8942.63
641.534	8885.28
641.727	8854.56
641.92	8696.87
642.114	8840.23
642.307	8674.34
642.5	8586.28
642.694	8502.31
642.887	8580.14
643.08	8461.35
643.273	8299.56
643.467	8418.35
643.66	8375.34
643.853	8150.06
644.046	8172.59
644.239	8162.35
644.432	8295.47
644.626	8188.97
644.819	8195.12
645.012	8096.82
645.205	8139.82
645.398	7906.35
645.591	7945.27
645.784	7844.91
645.977	7812.15
646.17	7849.01
646.363	7699.51
646.556	7803.96
646.749	7699.51
646.942	7648.31
647.135	7609.4
647.328	7636.02
647.521	7437.37
647.714	7492.66
647.907	7386.17
648.099	7380.03
648.292	7451.7
648.485	7208
648.678	7345.21
648.871	6861.89
649.064	7113.79
649.256	7109.69
649.449	7124.03
649.642	7042.11
649.835	7029.82
650.027	7052.35
650.22	7087.17
650.413	6777.92
650.605	6888.51
650.798	6890.56
650.991	6872.13
651.183	6702.15
651.376	6691.91
651.568	6732.87
651.761	6741.06
651.954	6673.48
652.146	6577.22
652.339	6673.48
652.531	6581.32
652.724	6519.88
652.916	6257.74
653.109	6339.66
653.301	6270.03
653.494	6454.34
653.686	6165.58
653.879	6190.16
654.071	6239.31
654.263	6251.6
654.456	6085.71
654.648	6306.89
654.84	5913.68
655.033	6059.09
655.225	5968.98
655.417	6030.41
655.61	5901.39
655.802	6011.98
655.994	5954.64
656.186	5831.76
656.379	5805.14
656.571	6048.85
656.763	5626.96
656.955	5870.67
657.148	5708.88
657.34	5862.48
657.532	5665.88
657.724	5538.9
657.916	5606.49
658.108	5592.15
658.3	5624.92
658.492	5610.58
658.684	5448.79
658.876	5483.61
659.068	5422.17
659.26	5411.93
659.452	5448.79
659.644	5305.43
659.836	5338.2
660.028	5198.94
660.22	5227.61
660.412	5272.67
660.604	5127.26
660.796	5192.8
660.988	5069.92
661.18	5071.97
661.372	5117.02
661.563	5012.57
661.755	4953.18
661.947	4889.7
662.139	5047.39
662.331	4957.28
662.522	4895.84
662.714	4871.26
662.906	4889.7
663.097	4813.92
663.289	4684.9
663.481	4811.87
663.673	4801.63
663.864	4605.03
664.056	4482.15
664.247	4633.7
664.439	4613.22
664.631	4559.97
664.822	4471.91
665.014	4578.4
665.205	4488.29
665.397	4572.26
665.588	4488.29
665.78	4482.15
665.971	4529.25
666.163	4488.29
666.354	4484.2
666.546	4471.91
666.737	4326.5
666.929	4330.6
667.12	4371.56
667.311	4365.42
667.503	4179.05
667.694	4326.5
667.885	4258.92
668.077	4248.68
668.268	4187.24
668.459	4177
668.651	4242.54
668.842	4217.96
669.033	3980.4
669.224	4154.48
669.416	4152.43
669.607	4177
669.798	4007.02
669.989	4152.43
670.18	4013.17
670.371	3988.59
670.563	4004.97
670.754	4107.37
670.945	4039.79
671.136	4078.7
671.327	3939.44
671.518	3912.81
671.709	3882.1
671.9	3980.4
672.091	3939.44
672.282	3906.67
672.473	3759.22
672.664	3818.61
672.855	3777.65
673.046	3820.66
673.237	3812.46
673.428	3791.98
673.619	3830.9
673.809	3617.91
674	3765.36
674.191	3798.13
674.382	3677.3
674.573	3773.55
674.764	3642.48
674.954	3560.56
675.145	3511.41
675.336	3548.28
675.527	3581.04
675.717	3415.16
675.908	3515.51
676.099	3546.23
676.289	3716.21
676.48	3472.5
676.671	3626.1
676.861	3503.22
677.052	3472.5
677.243	3492.98
677.433	3548.28
677.624	3499.13
677.814	3415.16
678.005	3314.81
678.195	3478.65
678.386	3320.95
678.576	3241.08
678.767	3394.68
678.957	3267.7
679.148	3513.46
679.338	3476.6
679.529	3447.93
679.719	3454.07
679.909	3267.7
680.1	3486.84
680.29	3261.56
680.481	3267.7
680.671	3398.77
680.861	3316.86
681.052	3216.51
681.242	3243.13
681.432	3314.81
681.622	3165.31
681.813	3312.76
682.003	3302.52
682.193	3257.46
682.383	3134.59
682.573	3216.51
682.764	3159.16
682.954	3173.5
683.144	3107.96
683.334	3226.75
683.524	3134.59
683.714	3284.09
683.904	3191.93
684.094	3198.07
684.284	3134.59
684.474	3153.02
684.664	3179.64
684.854	3114.11
685.044	2946.17
685.234	3077.24
685.424	3093.63
685.614	3040.38
685.804	3087.48
685.994	3134.59
686.184	3120.25
686.374	3126.39
686.564	2937.98
686.753	3034.24
686.943	2880.64
687.133	2962.56
687.323	2856.06
687.513	3009.66
687.702	2917.5
687.892	2937.98
688.082	2872.45
688.272	2980.99
688.461	3026.04
688.651	3073.15
688.841	2798.72
689.03	2882.69
689.22	2831.49
689.41	2876.54
689.599	2782.34
689.789	2782.34
689.979	2813.06
690.168	2802.82
690.358	2722.95
690.547	2765.95
690.737	2733.18
690.926	2749.57
691.116	2751.62
691.305	2894.97
691.495	2692.23
691.684	2622.59
691.874	2595.97
692.063	2696.32
692.252	2503.81
692.442	2720.9
692.631	2489.48
692.82	2729.09
693.01	2581.64
693.199	2675.84
693.388	2636.93
693.578	2548.87
693.767	2579.59
693.956	2491.52
694.146	2454.66
694.335	2391.17
694.524	2489.48
694.713	2487.43
694.902	2460.81
695.092	2382.98
695.281	2610.31
695.47	2389.13
695.659	2471.04
695.848	2454.66
696.037	2397.32
696.226	2471.04
696.415	2442.37
696.604	2497.67
696.793	2344.07
696.982	2421.89
697.171	2454.66
697.36	2503.81
697.549	2380.93
697.738	2487.43
697.927	2344.07
698.116	2442.37
698.305	2401.41
698.494	2374.79
698.683	2348.17
698.872	2307.21
699.061	2290.82
699.25	2389.13
699.438	2331.78
699.627	2364.55
699.816	2264.2
700.005	2260.1
700.193	2243.72
700.382	2278.54
700.571	2258.06
700.76	2395.27
700.948	2315.4
701.137	2337.93
701.326	2225.29
701.514	2176.14
701.703	2110.6
701.892	2286.73
702.08	2268.3
702.269	2233.48
702.457	2159.75
702.646	2143.37
702.834	2200.71
703.023	2237.58
703.212	2307.21
703.4	2126.99
703.589	2165.9
703.777	2094.22
703.965	2114.7
704.154	2333.83
704.342	2184.33
704.531	2196.62
704.719	2086.03
704.907	2102.41
705.096	2122.89
705.284	2151.56
705.472	2081.93
705.661	2014.35
705.849	2116.75
706.037	2192.52
706.226	2208.9
706.414	2192.52
706.602	2188.43
706.79	2057.36
706.979	2235.53
707.167	2110.6
707.355	2110.6
707.543	2100.36
707.731	2077.83
707.919	2102.41
708.107	2053.26
708.296	2090.12
708.484	1991.82
708.672	2178.19
708.86	2163.85
709.048	2081.93
709.236	2030.73
709.424	2172.04
709.612	2118.79
709.8	2069.64
709.988	2036.88
710.176	2153.61
710.364	2071.69
710.551	2114.7
710.739	2153.61
710.927	2051.21
711.115	2010.25
711.303	1979.53
711.491	2102.41
711.679	2053.26
711.866	2079.88
712.054	2053.26
712.242	1983.63
712.43	2088.07
712.617	1971.34
712.805	1987.72
712.993	2024.59
713.181	2043.02
713.368	2030.73
713.556	2094.22
713.744	1942.67
713.931	2096.27
714.119	2030.73
714.306	1993.87
714.494	2079.88
714.682	2045.07
714.869	2079.88
715.057	2073.74
715.244	1975.44
715.432	2004.11
715.619	1969.29
715.807	2151.56
715.994	2094.22
716.182	2047.12
716.369	2088.07
716.556	2077.83
716.744	2016.4
716.931	2008.2
717.119	2153.61
717.306	2051.21
717.493	2135.18
717.681	2077.83
717.868	2067.6
718.055	2020.49
718.242	2012.3
718.43	2047.12
718.617	2108.55
718.804	1997.96
718.991	2053.26
719.179	1989.77
719.366	2114.7
719.553	2020.49
719.74	1963.15
719.927	1934.48
720.114	1989.77
720.301	1975.44
720.488	2061.45
720.676	2030.73
720.863	1973.39
721.05	2047.12
721.237	2016.4
721.424	2079.88
721.611	2086.03
721.798	1989.77
721.985	2012.3
722.172	1981.58
722.358	2069.64
722.545	2006.16
722.732	2032.78
722.919	1954.96
723.106	1969.29
723.293	1991.82
723.48	2096.27
723.667	2081.93
723.853	2053.26
724.04	2122.89
724.227	2049.16
724.414	2135.18
724.6	2126.99
724.787	2110.6
724.974	1981.58
725.161	2043.02
725.347	1948.81
725.534	2045.07
725.72	2086.03
725.907	2112.65
726.094	2165.9
726.28	2063.5
726.467	2110.6
726.653	1930.38
726.84	2137.23
727.027	2006.16
727.213	2006.16
727.4	2106.51
727.586	2090.12
727.773	1840.27
727.959	2012.3
728.145	2036.88
728.332	2020.49
728.518	2094.22
728.705	2167.95
728.891	2053.26
729.077	1959.05
729.264	1981.58
729.45	2053.26
729.636	2094.22
729.823	2065.55
730.009	2008.2
730.195	2004.11
730.382	2114.7
730.568	2030.73
730.754	2137.23
730.94	2045.07
731.126	2104.46
731.313	2016.4
731.499	2079.88
731.685	2122.89
731.871	1995.92
732.057	2061.45
732.243	2165.9
732.429	1979.53
732.615	2016.4
732.801	2020.49
732.987	1995.92
733.173	2018.44
733.359	1997.96
733.545	1979.53
733.731	2028.68
733.917	2094.22
734.103	2094.22
734.289	2077.83
734.475	1991.82
734.661	2032.78
734.847	1989.77
735.033	2036.88
735.219	2063.5
735.404	2120.84
735.59	2061.45
735.776	1981.58
735.962	2049.16
736.148	1952.91
736.333	1959.05
736.519	1981.58
736.705	2028.68
736.89	1957
737.076	1948.81
737.262	2000.01
737.447	1922.19
737.633	1957
737.819	2024.59
738.004	2051.21
738.19	2020.49
738.375	1979.53
738.561	2004.11
738.747	1989.77
738.932	2008.2
739.118	1981.58
739.303	1836.17
739.489	2012.3
739.674	1860.75
739.859	2096.27
740.045	1971.34
740.23	2077.83
740.416	1965.2
740.601	2049.16
740.786	1948.81
740.972	1922.19
741.157	1940.62
741.342	1889.42
741.528	1873.04
741.713	1946.76
741.898	1856.65
742.084	1901.71
742.269	1875.09
742.454	1940.62
742.639	1825.93
742.824	1907.85
743.01	1881.23
743.195	1819.79
743.38	1875.09
743.565	1817.74
743.75	1834.13
743.935	1899.66
744.12	1799.31
744.305	1766.54
744.49	1713.3
744.675	1754.26
744.86	1758.35
745.045	1793.17
745.23	1774.74
745.415	1801.36
745.6	1840.27
745.785	1760.4
745.97	1760.4
746.155	1856.65
746.34	1750.16
746.525	1733.78
746.71	1684.62
746.895	1698.96
747.079	1866.89
747.264	1739.92
747.449	1694.86
747.634	1621.14
747.819	1635.47
748.003	1639.57
748.188	1637.52
748.373	1668.24
748.557	1590.42
748.742	1531.03
748.927	1592.47
749.111	1580.18
749.296	1590.42
749.481	1553.55
749.665	1571.99
749.85	1496.21
750.034	1528.98
750.219	1488.02
750.404	1463.44
750.588	1547.41
750.773	1520.79
750.957	1465.49
751.141	1563.79
751.326	1408.15
751.51	1463.44
751.695	1434.77
751.879	1453.2
752.064	1610.9
752.248	1389.72
752.432	1535.12
752.617	1479.83
752.801	1404.05
752.985	1397.91
753.17	1418.39
753.354	1469.59
753.538	1397.91
753.722	1299.61
753.907	1334.42
754.091	1301.65
754.275	1299.61
754.459	1365.14
754.643	1299.61
754.828	1318.04
755.012	1324.18
755.196	1285.27
755.38	1350.81
755.564	1309.85
755.748	1328.28
755.932	1193.11
756.116	1299.61
756.3	1219.74
756.484	1315.99
756.668	1303.7
756.852	1135.77
757.036	1209.5
757.22	1291.41
757.404	1254.55
757.588	1189.02
757.772	1121.43
757.956	1156.25
758.14	1205.4
758.323	1164.44
758.507	1209.5
758.691	1219.74
758.875	1086.62
759.059	1182.87
759.242	1119.39
759.426	1135.77
759.61	1205.4
759.794	1113.24
759.977	1201.3
760.161	1225.88
760.345	1146.01
760.528	1057.95
760.712	1055.9
760.895	1074.33
761.079	1043.61
761.263	1023.13
761.446	1008.8
761.63	980.12
761.813	978.08
761.997	1090.71
762.18	971.93
762.364	955.55
762.547	947.36
762.731	1064.09
762.914	1014.94
763.098	1045.66
763.281	957.6
763.464	1006.75
763.648	976.03
763.831	953.5
764.015	1014.94
764.198	865.44
764.381	941.21
764.564	992.41
764.748	883.87
764.931	1062.04
765.114	920.73
765.297	922.78
765.481	914.59
765.664	916.64
765.847	867.49
766.03	965.79
766.213	902.3
766.397	988.32
766.58	810.14
766.763	963.74
766.946	906.4
767.129	890.01
767.312	842.91
767.495	908.44
767.678	832.67
767.861	890.01
768.044	967.84
768.227	791.71
768.41	816.29
768.593	801.95
768.776	908.44
768.959	885.92
769.142	947.36
769.324	892.06
769.507	771.23
769.69	894.11
769.873	916.64
770.056	963.74
770.239	890.01
770.421	797.85
770.604	783.52
770.787	826.53
770.97	826.53
771.152	818.33
771.335	769.18
771.518	838.81
771.7	777.37
771.883	881.82
772.066	791.71
772.248	742.56
772.431	808.09
772.613	849.05
772.796	701.6
772.978	797.85
773.161	840.86
773.343	783.52
773.526	711.84
773.708	701.6
773.891	812.19
774.073	701.6
774.256	717.98
774.438	699.55
774.621	711.84
774.803	713.89
774.985	711.84
775.168	767.13
775.35	670.88
775.532	746.66
775.715	658.59
775.897	677.02
776.079	679.07
776.261	636.06
776.444	705.7
776.626	644.26
776.808	705.7
776.99	580.77
777.173	679.07
777.355	695.46
777.537	656.54
777.719	685.22
777.901	619.68
778.083	541.86
778.265	570.53
778.447	570.53
778.629	560.29
778.811	591.01
778.993	717.98
779.175	588.96
779.357	570.53
779.539	609.44
779.721	621.73
779.903	621.73
780.085	480.42
780.267	621.73
780.449	507.04
780.631	613.54
780.812	543.91
780.994	548
781.176	578.72
781.358	533.67
781.54	623.78
781.721	539.81
781.903	572.58
782.085	490.66
782.267	570.53
782.448	543.91
782.63	464.04
782.812	539.81
782.993	496.8
783.175	509.09
783.357	464.04
783.538	513.19
783.72	373.92
783.901	406.69
784.083	486.56
784.264	435.36
784.446	486.56
784.627	449.7
784.809	453.8
784.99	517.28
785.172	400.55
785.353	390.31
785.535	443.56
785.716	384.16
785.897	398.5
786.079	461.99
786.26	394.4
786.441	455.84
786.623	416.93
786.804	406.69
786.985	353.45
787.167	507.04
787.348	332.97
787.529	400.55
787.71	492.71
787.891	425.12
788.073	398.5
788.254	365.73
788.435	449.7
788.616	353.45
788.797	312.49
788.978	425.12
789.159	314.53
789.34	464.04
789.522	314.53
789.703	390.31
789.884	470.18
790.065	394.4
790.246	373.92
790.427	384.16
790.607	341.16
790.788	406.69
790.969	296.1
791.15	431.27
791.331	349.35
791.512	283.81
791.693	324.77
791.874	300.2
792.054	382.12
792.235	318.63
792.416	326.82
792.597	294.05
792.778	382.12
792.958	353.45
793.139	349.35
793.32	277.67
793.5	251.05
793.681	316.58
793.862	287.91
794.042	273.57
794.223	265.38
794.404	275.62
794.584	267.43
794.765	328.87
794.945	267.43
795.126	318.63
795.306	300.2
795.487	218.28
795.667	267.43
795.848	316.58
796.028	261.29
796.209	210.09
796.389	208.04
796.57	283.81
796.75	185.51
796.93	251.05
797.111	285.86
797.291	261.29
797.471	265.38
797.652	292.01
797.832	304.29
798.012	236.71
798.192	310.44
798.373	228.52
798.553	201.9
798.733	246.95
798.913	222.38
799.093	269.48
799.274	214.18
799.454	279.72
799.634	283.81
799.814	251.05
799.994	236.71
800.174	294.05
800.354	269.48
800.534	216.23
800.714	212.14
800.894	169.13
801.074	253.09
801.254	205.99
801.434	261.29
801.614	183.46
801.794	201.9
801.974	867.49
802.154	201.9
802.334	203.94
802.514	251.05
802.693	267.43
802.873	122.02
803.053	226.47
803.233	210.09
803.413	201.9
803.592	169.13
803.772	165.03
803.952	171.18
804.131	134.31
804.311	205.99
804.491	251.05
804.67	212.14
804.85	113.83
805.03	162.98
805.209	253.09
805.389	201.9
805.568	181.42
805.748	97.45
805.928	185.51
806.107	144.55
806.287	160.94
806.466	226.47
806.646	136.36
806.825	154.79
807.004	146.6
807.184	177.32
807.363	218.28
807.543	160.94
807.722	156.84
807.901	199.85
808.081	152.74
808.26	115.88
808.439	230.57
808.619	138.41
808.798	220.33
808.977	136.36
809.156	236.71
809.336	171.18
809.515	144.55
809.694	177.32
809.873	70.83
810.052	185.51
810.231	160.94
810.411	193.7
810.59	171.18
810.769	146.6
810.948	140.46
811.127	177.32
811.306	113.83
811.485	138.41
811.664	193.7
811.843	113.83
812.022	197.8
812.201	119.98
812.38	136.36
812.559	124.07
812.737	113.83
812.916	81.07
813.095	103.59
813.274	201.9
813.453	162.98
813.632	169.13
813.811	136.36
813.989	119.98
814.168	144.55
814.347	101.55
814.526	105.64
814.704	169.13
814.883	119.98
815.062	132.26
815.24	226.47
815.419	66.73
815.598	144.55
815.776	150.7
815.955	107.69
816.133	107.69
816.312	148.65
816.49	119.98
816.669	54.44
816.847	187.56
817.026	136.36
817.204	101.55
817.383	220.33
817.561	103.59
817.74	122.02
817.918	134.31
818.097	173.22
818.275	111.78
818.453	111.78
818.632	158.89
818.81	48.3
818.988	117.93
819.167	40.11
819.345	99.5
819.523	48.3
819.701	99.5
819.879	140.46
820.058	103.59
820.236	97.45
820.414	140.46
820.592	152.74
820.77	107.69
820.948	54.44
821.127	124.07
821.305	152.74
821.483	105.64
821.661	130.22
821.839	115.88
822.017	42.15
822.195	76.97
822.373	126.12
822.551	66.73
822.729	136.36
822.907	91.31
823.085	93.35
823.262	79.02
823.44	44.2
823.618	70.83
823.796	70.83
823.974	119.98
824.152	50.35
824.329	50.35
824.507	62.63
824.685	36.01
824.863	115.88
825.04	148.65
825.218	122.02
825.396	91.31
825.574	46.25
825.751	95.4
825.929	162.98
826.107	50.35
826.284	89.26
826.462	103.59
826.639	87.21
826.817	74.92
826.994	56.49
827.172	-7
827.349	136.36
827.527	87.21
827.704	72.87
827.882	119.98
828.059	36.01
828.237	70.83
828.414	15.53
828.591	81.07
828.769	95.4
828.946	36.01
829.124	152.74
829.301	111.78
829.478	29.87
829.655	15.53
829.833	124.07
830.01	83.11
830.187	99.5
830.364	122.02
830.542	128.17
830.719	185.51
830.896	25.77
831.073	5.29
831.25	138.41
831.427	154.79
831.604	122.02
831.782	-0.85
831.959	154.79
832.136	5.29
832.313	54.44
832.49	40.11
832.667	58.54
832.844	33.96
833.021	56.49
833.198	38.06
833.374	119.98
833.551	74.92
833.728	66.73
833.905	87.21
834.082	13.48
834.259	29.87
834.436	70.83
834.612	29.87
834.789	119.98
834.966	38.06
835.143	33.96
835.319	40.11
835.496	93.35
835.673	-9.05
835.85	72.87
836.026	95.4
836.203	130.22
836.38	54.44
836.556	91.31
836.733	-7
836.909	97.45
837.086	79.02
837.262	124.07
837.439	58.54
837.616	62.63
837.792	17.58
837.968	50.35
838.145	-21.33
838.321	70.83
838.498	138.41
838.674	50.35
838.851	62.63
839.027	103.59
839.203	83.11
839.38	36.01
839.556	97.45
839.732	17.58
839.909	5.29
840.085	70.83
840.261	81.07
840.437	62.63
840.614	5.29
840.79	9.39
840.966	87.21
841.142	-27.48
841.318	21.67
841.494	76.97
841.671	44.2
841.847	105.64
842.023	7.34
842.199	-19.29
842.375	58.54
842.551	13.48
842.727	-7
842.903	29.87
843.079	-45.91
843.255	-17.24
843.431	72.87
843.607	5.29
843.783	-23.38
843.959	70.83
844.134	21.67
844.31	58.54
844.486	56.49
844.662	3.24
844.838	54.44
845.013	70.83
845.189	40.11
845.365	74.92
845.541	62.63
845.716	40.11
845.892	21.67
846.068	13.48
846.244	-0.85
846.419	58.54
846.595	36.01
846.77	-11.09
846.946	38.06
847.122	-11.09
847.297	74.92
847.473	111.78
847.648	-35.67
847.824	42.15
847.999	-76.63
848.175	56.49
848.35	54.44
848.526	103.59
848.701	40.11
848.876	56.49
849.052	85.16
849.227	62.63
849.403	33.96
849.578	-2.9
849.753	62.63
849.929	46.25
850.104	-0.85
850.279	79.02
850.454	48.3
850.63	79.02
850.805	40.11
850.98	52.39
851.155	21.67
851.33	38.06
851.505	9.39
851.681	103.59
851.856	15.53
852.031	113.83
852.206	70.83
852.381	46.25
852.556	21.67
852.731	5.29
852.906	83.11
853.081	25.77
853.256	33.96
853.431	13.48
853.606	25.77
853.781	9.39
853.956	-27.48
854.131	-17.24
854.305	-17.24
854.48	23.72
854.655	-15.19
854.83	1.19
855.005	23.72
855.18	50.35
855.354	-19.29
855.529	5.29
855.704	-21.33
855.879	64.68
856.053	38.06
856.228	70.83
856.403	-43.86
856.577	9.39
856.752	-4.95
856.926	15.53
857.101	-2.9
857.276	-0.85
857.45	111.78
857.625	91.31
857.799	-58.2
857.974	-9.05
858.148	15.53
858.323	1.19
858.497	-27.48
858.672	58.54
858.846	36.01
859.02	54.44
859.195	36.01
859.369	-11.09
859.543	52.39
859.718	38.06
859.892	9.39
860.066	38.06
860.241	40.11
860.415	99.5
860.589	-25.43
860.763	31.91
860.938	9.39
861.112	64.68
861.286	-21.33
861.46	56.49
861.634	76.97
861.808	48.3
861.982	-19.29
862.157	-27.48
862.331	11.43
862.505	17.58
862.679	1.19
862.853	-19.29
863.027	54.44
863.201	107.69
863.375	-0.85
863.549	38.06
863.722	-27.48
863.896	54.44
864.07	-50
864.244	-58.2
864.418	-39.76
864.592	23.72
864.766	-19.29
864.939	42.15
865.113	-23.38
865.287	5.29
865.461	-21.33
865.634	29.87
865.808	9.39
865.982	13.48
866.156	-68.44
866.329	-43.86
866.503	76.97
866.676	42.15
866.85	58.54
867.024	42.15
867.197	58.54
867.371	74.92
867.544	56.49
867.718	54.44
867.891	21.67
868.065	-41.81
868.238	70.83
868.412	40.11
868.585	-58.2
868.759	56.49
868.932	-43.86
869.105	52.39
869.279	5.29
869.452	-9.05
869.625	-13.14
869.799	17.58
869.972	-50
870.145	-17.24
870.319	46.25
870.492	-54.1
870.665	-2.9
870.838	-74.58
871.011	-60.24
871.185	-2.9
871.358	33.96
871.531	-19.29
871.704	42.15
871.877	54.44
872.05	38.06
872.223	-43.86
872.396	70.83
872.569	27.82
872.742	-19.29
872.915	68.78
873.088	17.58
873.261	25.77
873.434	46.25
873.607	31.91
873.78	72.87
873.953	-35.67
874.126	72.87
874.299	40.11
874.471	-74.58
874.644	-62.29
874.817	58.54
874.99	79.02
875.163	1.19
875.335	97.45
875.508	29.87
875.681	15.53
875.853	5.29
876.026	-50
876.199	-17.24
876.371	9.39
876.544	-23.38
876.717	-25.43
876.889	-56.15
877.062	46.25
877.234	21.67
877.407	29.87
877.579	-39.76
877.752	33.96
877.924	-72.53
878.097	48.3
878.269	42.15
878.442	5.29
878.614	29.87
878.786	-11.09
878.959	-7
879.131	-39.76
879.303	-19.29
879.476	-31.57
879.648	-31.57
879.82	-50
879.993	21.67
880.165	-0.85
880.337	17.58
880.509	-7
880.681	-43.86
880.854	17.58
881.026	52.39
881.198	95.4
881.37	25.77
881.542	-11.09
881.714	-50
881.886	44.2
882.058	33.96
882.23	-47.96
882.402	3.24
882.574	54.44
882.746	-39.76
882.918	-13.14
883.09	38.06
883.262	29.87
883.434	38.06
883.606	-56.15
883.778	11.43
883.95	-11.09
884.122	5.29
884.293	-2.9
884.465	40.11
884.637	-56.15
884.809	-17.24
884.98	48.3
885.152	-19.29
885.324	-23.38
885.496	-25.43
885.667	25.77
885.839	-13.14
886.011	70.83
886.182	70.83
886.354	-17.24
886.525	58.54
886.697	29.87
886.869	-52.05
887.04	36.01
887.212	29.87
887.383	79.02
887.555	-39.76
887.726	-23.38
887.897	-19.29
888.069	7.34
888.24	-0.85
888.412	-27.48
888.583	9.39
888.754	-58.2
888.926	-43.86
889.097	17.58
889.268	-52.05
889.44	-0.85
889.611	-19.29
889.782	-70.48
889.953	-84.82
890.125	36.01
890.296	-64.34
890.467	-13.14
890.638	-13.14
890.809	-19.29
890.98	23.72
891.151	-2.9
891.323	27.82
891.494	-37.72
891.665	-60.24
891.836	21.67
892.007	5.29
892.178	87.21
892.349	-0.85
892.52	38.06
892.691	-2.9
892.862	-52.05
893.032	-33.62
893.203	38.06
893.374	5.29
893.545	7.34
893.716	-52.05
893.887	40.11
894.057	-11.09
894.228	3.24
894.399	-9.05
894.57	89.26
894.74	13.48
894.911	54.44
895.082	70.83
895.253	17.58
895.423	-66.39
895.594	-35.67
895.764	-2.9
895.935	-31.57
896.106	50.35
896.276	9.39
896.447	21.67
896.617	31.91
896.788	-7
896.958	-2.9
897.129	-2.9
897.299	-27.48
897.47	87.21
897.64	-52.05
897.81	25.77
897.981	103.59
898.151	5.29
898.322	29.87
898.492	-93.01
898.662	-21.33
898.832	-39.76
899.003	25.77
899.173	7.34
899.343	46.25
899.513	-23.38
