Data from USB4F104151__274__14-46-11-198.txt Node

Date: Thu Mar 13 14:46:11 EDT 2025
User: louis
Spectrometer: USB4F10415
Trigger mode: 4
Integration Time (sec): 2.000000E-2
Scans to average: 1
Electric dark correction enabled: true
Nonlinearity correction enabled: false
Boxcar width: 0
XAxis mode: Wavelengths
Number of Pixels in Spectrum: 3648
>>>>>Begin Spectral Data<<<<<
178.204	-57.86
178.424	-57.86
178.644	-57.86
178.864	-188.93
179.084	-53.76
179.304	-53.76
179.524	28.16
179.744	-72.19
179.964	52.74
180.184	-29.18
180.404	48.64
180.624	-12.8
180.844	-0.51
181.064	-20.99
181.283	19.97
181.503	-45.57
181.723	85.5
181.943	-39.42
182.163	122.37
182.383	5.63
182.602	56.83
182.822	30.21
183.042	79.36
183.262	-12.8
183.482	-23.04
183.701	38.4
183.921	44.54
184.141	-14.85
184.361	58.88
184.58	-12.8
184.8	9.73
185.02	19.97
185.239	42.5
185.459	-41.47
185.679	108.03
185.898	-51.71
186.118	15.87
186.338	-98.81
186.557	7.68
186.777	-23.04
186.997	73.21
187.216	46.59
187.436	93.69
187.655	11.78
187.875	15.87
188.095	17.92
188.314	19.97
188.534	60.93
188.753	-6.66
188.973	42.5
189.192	81.41
189.412	9.73
189.631	15.87
189.851	1.54
190.07	-8.7
190.29	-45.57
190.509	-57.86
190.729	52.74
190.948	67.07
191.168	77.31
191.387	9.73
191.607	-39.42
191.826	32.26
192.045	7.68
192.265	-10.75
192.484	-33.28
192.704	56.83
192.923	-16.9
193.142	116.22
193.362	-8.7
193.581	46.59
193.8	-4.61
194.02	73.21
194.239	-27.14
194.458	19.97
194.678	3.58
194.897	15.87
195.116	-16.9
195.335	26.11
195.555	56.83
195.774	-41.47
195.993	54.78
196.212	77.31
196.432	7.68
196.651	-45.57
196.87	26.11
197.089	93.69
197.308	81.41
197.528	75.26
197.747	32.26
197.966	19.97
198.185	108.03
198.404	44.54
198.623	50.69
198.842	44.54
199.062	26.11
199.281	75.26
199.5	-23.04
199.719	17.92
199.938	22.02
200.157	-6.66
200.376	19.97
200.595	97.79
200.814	11.78
201.033	32.26
201.252	65.02
201.471	7.68
201.69	36.35
201.909	24.06
202.128	9.73
202.347	65.02
202.566	-10.75
202.785	-23.04
203.004	-20.99
203.223	46.59
203.442	77.31
203.661	-0.51
203.879	-39.42
204.098	58.88
204.317	32.26
204.536	7.68
204.755	15.87
204.974	56.83
205.193	15.87
205.411	116.22
205.63	11.78
205.849	3.58
206.068	42.5
206.287	24.06
206.505	114.17
206.724	-29.18
206.943	-4.61
207.162	-61.95
207.381	-23.04
207.599	67.07
207.818	67.07
208.037	-0.51
208.255	19.97
208.474	11.78
208.693	-8.7
208.911	44.54
209.13	7.68
209.349	65.02
209.567	22.02
209.786	75.26
210.005	-0.51
210.223	-25.09
210.442	-14.85
210.661	34.3
210.879	17.92
211.098	44.54
211.316	46.59
211.535	-49.66
211.753	-25.09
211.972	77.31
212.191	17.92
212.409	9.73
212.628	38.4
212.846	32.26
213.065	36.35
213.283	69.12
213.502	-25.09
213.72	54.78
213.938	44.54
214.157	3.58
214.375	101.89
214.594	9.73
214.812	-29.18
215.031	-8.7
215.249	26.11
215.467	52.74
215.686	110.08
215.904	48.64
216.122	3.58
216.341	56.83
216.559	24.06
216.778	116.22
216.996	81.41
217.214	26.11
217.432	19.97
217.651	32.26
217.869	-43.52
218.087	22.02
218.306	32.26
218.524	-0.51
218.742	28.16
218.96	3.58
219.179	19.97
219.397	73.21
219.615	85.5
219.833	-33.28
220.051	-14.85
220.27	81.41
220.488	122.37
220.706	36.35
220.924	17.92
221.142	-12.8
221.36	24.06
221.578	73.21
221.796	58.88
222.015	67.07
222.233	81.41
222.451	89.6
222.669	-23.04
222.887	75.26
223.105	32.26
223.323	42.5
223.541	32.26
223.759	1.54
223.977	99.84
224.195	32.26
224.413	103.93
224.631	-23.04
224.849	11.78
225.067	52.74
225.285	-41.47
225.503	22.02
225.721	7.68
225.939	56.83
226.157	28.16
226.375	50.69
226.592	7.68
226.81	89.6
227.028	81.41
227.246	77.31
227.464	-16.9
227.682	7.68
227.9	34.3
228.117	-49.66
228.335	3.58
228.553	-23.04
228.771	15.87
228.989	48.64
229.206	-6.66
229.424	79.36
229.642	65.02
229.86	-31.23
230.077	-4.61
230.295	17.92
230.513	101.89
230.731	58.88
230.948	73.21
231.166	52.74
231.384	26.11
231.601	7.68
231.819	3.58
232.037	-49.66
232.254	77.31
232.472	11.78
232.689	-33.28
232.907	42.5
233.125	9.73
233.342	91.65
233.56	-31.23
233.777	32.26
233.995	-0.51
234.213	32.26
234.43	-16.9
234.648	-66.05
234.865	7.68
235.083	87.55
235.3	48.64
235.518	40.45
235.735	32.26
235.953	122.37
236.17	-37.38
236.388	34.3
236.605	1.54
236.822	40.45
237.04	60.93
237.257	48.64
237.475	-16.9
237.692	83.45
237.909	75.26
238.127	-20.99
238.344	19.97
238.562	26.11
238.779	3.58
238.996	-25.09
239.214	65.02
239.431	110.08
239.648	11.78
239.865	56.83
240.083	3.58
240.3	24.06
240.517	-8.7
240.735	48.64
240.952	65.02
241.169	124.41
241.386	-41.47
241.603	19.97
241.821	5.63
242.038	81.41
242.255	24.06
242.472	58.88
242.689	32.26
242.907	132.61
243.124	46.59
243.341	28.16
243.558	11.78
243.775	-0.51
243.992	-4.61
244.209	91.65
244.426	48.64
244.643	77.31
244.86	19.97
245.078	40.45
245.295	36.35
245.512	34.3
245.729	-12.8
245.946	50.69
246.163	65.02
246.38	42.5
246.597	32.26
246.814	75.26
247.031	34.3
247.248	34.3
247.464	-14.85
247.681	32.26
247.898	48.64
248.115	22.02
248.332	83.45
248.549	50.69
248.766	65.02
248.983	46.59
249.2	58.88
249.417	28.16
249.633	-0.51
249.85	-0.51
250.067	26.11
250.284	17.92
250.501	1.54
250.717	77.31
250.934	-55.81
251.151	44.54
251.368	73.21
251.585	50.69
251.801	81.41
252.018	-0.51
252.235	81.41
252.451	-49.66
252.668	17.92
252.885	34.3
253.102	-25.09
253.318	56.83
253.535	15.87
253.752	65.02
253.968	50.69
254.185	42.5
254.401	-39.42
254.618	93.69
254.835	-16.9
255.051	99.84
255.268	-20.99
255.484	101.89
255.701	-0.51
255.917	40.45
256.134	50.69
256.351	56.83
256.567	58.88
256.784	50.69
257	-94.72
257.217	40.45
257.433	40.45
257.65	24.06
257.866	81.41
258.082	5.63
258.299	52.74
258.515	56.83
258.732	-33.28
258.948	40.45
259.165	73.21
259.381	-16.9
259.597	-25.09
259.814	105.98
260.03	19.97
260.246	56.83
260.463	5.63
260.679	69.12
260.895	-6.66
261.112	48.64
261.328	69.12
261.544	-57.86
261.761	91.65
261.977	32.26
262.193	19.97
262.409	97.79
262.626	26.11
262.842	15.87
263.058	-41.47
263.274	9.73
263.49	-49.66
263.707	36.35
263.923	122.37
264.139	-55.81
264.355	28.16
264.571	99.84
264.787	-0.51
265.004	136.7
265.22	-10.75
265.436	52.74
265.652	9.73
265.868	65.02
266.084	40.45
266.3	26.11
266.516	-86.53
266.732	50.69
266.948	-8.7
267.164	7.68
267.38	9.73
267.596	-10.75
267.812	48.64
268.028	87.55
268.244	38.4
268.46	73.21
268.676	48.64
268.892	65.02
269.108	9.73
269.324	13.82
269.54	-61.95
269.756	52.74
269.972	7.68
270.188	-8.7
270.403	81.41
270.619	19.97
270.835	-0.51
271.051	-10.75
271.267	3.58
271.483	83.45
271.698	-74.24
271.914	-39.42
272.13	114.17
272.346	56.83
272.562	-29.18
272.777	34.3
272.993	85.5
273.209	7.68
273.425	91.65
273.64	15.87
273.856	-0.51
274.072	3.58
274.287	-23.04
274.503	65.02
274.719	58.88
274.934	32.26
275.15	-23.04
275.366	11.78
275.581	5.63
275.797	15.87
276.012	7.68
276.228	-51.71
276.444	62.98
276.659	99.84
276.875	3.58
277.09	56.83
277.306	-12.8
277.521	65.02
277.737	-10.75
277.952	60.93
278.168	-74.24
278.383	99.84
278.599	38.4
278.814	65.02
279.03	54.78
279.245	65.02
279.461	5.63
279.676	73.21
279.892	-61.95
280.107	9.73
280.322	28.16
280.538	105.98
280.753	28.16
280.969	85.5
281.184	-41.47
281.399	-6.66
281.615	-25.09
281.83	30.21
282.045	-47.62
282.26	-12.8
282.476	32.26
282.691	65.02
282.906	11.78
283.122	40.45
283.337	-4.61
283.552	146.94
283.767	24.06
283.983	24.06
284.198	69.12
284.413	24.06
284.628	54.78
284.843	44.54
285.058	69.12
285.274	32.26
285.489	-8.7
285.704	28.16
285.919	32.26
286.134	44.54
286.349	5.63
286.564	58.88
286.779	112.13
286.995	52.74
287.21	40.45
287.425	40.45
287.64	11.78
287.855	34.3
288.07	65.02
288.285	89.6
288.5	36.35
288.715	77.31
288.93	-14.85
289.145	40.45
289.36	40.45
289.575	26.11
289.79	32.26
290.004	48.64
290.219	34.3
290.434	48.64
290.649	36.35
290.864	36.35
291.079	58.88
291.294	11.78
291.509	54.78
291.724	101.89
291.938	50.69
292.153	44.54
292.368	73.21
292.583	44.54
292.798	22.02
293.012	108.03
293.227	71.17
293.442	34.3
293.657	83.45
293.871	85.5
294.086	26.11
294.301	116.22
294.516	73.21
294.73	40.45
294.945	89.6
295.16	15.87
295.374	28.16
295.589	32.26
295.804	13.82
296.018	83.45
296.233	22.02
296.447	13.82
296.662	11.78
296.877	54.78
297.091	24.06
297.306	7.68
297.52	-2.56
297.735	9.73
297.949	40.45
298.164	-0.51
298.378	32.26
298.593	19.97
298.807	-8.7
299.022	22.02
299.236	103.93
299.451	-8.7
299.665	-23.04
299.88	67.07
300.094	73.21
300.309	26.11
300.523	17.92
300.737	32.26
300.952	48.64
301.166	17.92
301.381	36.35
301.595	52.74
301.809	48.64
302.024	83.45
302.238	24.06
302.452	89.6
302.667	48.64
302.881	83.45
303.095	7.68
303.309	-16.9
303.524	44.54
303.738	-8.7
303.952	-12.8
304.166	93.69
304.381	42.5
304.595	40.45
304.809	-4.61
305.023	38.4
305.237	-14.85
305.452	1.54
305.666	87.55
305.88	99.84
306.094	44.54
306.308	9.73
306.522	159.23
306.736	24.06
306.95	67.07
307.164	-12.8
307.379	73.21
307.593	99.84
307.807	19.97
308.021	116.22
308.235	73.21
308.449	-25.09
308.663	32.26
308.877	65.02
309.091	93.69
309.305	44.54
309.519	-0.51
309.733	93.69
309.947	15.87
310.161	75.26
310.374	71.17
310.588	83.45
310.802	-23.04
311.016	-25.09
311.23	48.64
311.444	28.16
311.658	71.17
311.872	-6.66
312.085	-0.51
312.299	44.54
312.513	73.21
312.727	-6.66
312.941	-29.18
313.154	97.79
313.368	24.06
313.582	42.5
313.796	-4.61
314.009	89.6
314.223	69.12
314.437	34.3
314.651	15.87
314.864	5.63
315.078	-49.66
315.292	13.82
315.505	15.87
315.719	73.21
315.933	19.97
316.146	54.78
316.36	-16.9
316.573	108.03
316.787	30.21
317.001	-0.51
317.214	-72.19
317.428	-16.9
317.641	15.87
317.855	40.45
318.068	-6.66
318.282	17.92
318.495	32.26
318.709	93.69
318.922	13.82
319.136	93.69
319.349	17.92
319.563	32.26
319.776	89.6
319.99	-74.24
320.203	122.37
320.417	15.87
320.63	22.02
320.843	146.94
321.057	11.78
321.27	32.26
321.483	36.35
321.697	60.93
321.91	105.98
322.124	32.26
322.337	60.93
322.55	69.12
322.763	-0.51
322.977	15.87
323.19	36.35
323.403	60.93
323.617	15.87
323.83	17.92
324.043	15.87
324.256	24.06
324.469	36.35
324.683	67.07
324.896	28.16
325.109	1.54
325.322	-4.61
325.535	62.98
325.748	9.73
325.962	24.06
326.175	5.63
326.388	42.5
326.601	-33.28
326.814	81.41
327.027	38.4
327.24	40.45
327.453	7.68
327.666	52.74
327.879	15.87
328.092	159.23
328.305	65.02
328.518	13.82
328.731	65.02
328.944	48.64
329.157	34.3
329.37	42.5
329.583	-6.66
329.796	32.26
330.009	42.5
330.222	48.64
330.435	67.07
330.648	52.74
330.861	3.58
331.073	75.26
331.286	69.12
331.499	50.69
331.712	-8.7
331.925	26.11
332.138	-0.51
332.35	-4.61
332.563	-33.28
332.776	103.93
332.989	-23.04
333.202	58.88
333.414	32.26
333.627	11.78
333.84	-2.56
334.053	44.54
334.265	15.87
334.478	56.83
334.691	56.83
334.903	108.03
335.116	9.73
335.329	-16.9
335.541	26.11
335.754	101.89
335.966	36.35
336.179	42.5
336.392	-8.7
336.604	83.45
336.817	81.41
337.029	42.5
337.242	56.83
337.454	110.08
337.667	69.12
337.88	67.07
338.092	81.41
338.305	50.69
338.517	17.92
338.729	105.98
338.942	138.75
339.154	7.68
339.367	7.68
339.579	7.68
339.792	-4.61
340.004	65.02
340.217	-25.09
340.429	17.92
340.641	34.3
340.854	-39.42
341.066	24.06
341.278	15.87
341.491	56.83
341.703	5.63
341.915	75.26
342.128	65.02
342.34	22.02
342.552	15.87
342.764	-2.56
342.977	19.97
343.189	114.17
343.401	9.73
343.613	19.97
343.826	69.12
344.038	-0.51
344.25	101.89
344.462	-4.61
344.674	91.65
344.886	-82.43
345.099	-0.51
345.311	26.11
345.523	3.58
345.735	34.3
345.947	83.45
346.159	32.26
346.371	85.5
346.583	56.83
346.795	122.37
347.007	15.87
347.219	26.11
347.431	17.92
347.643	93.69
347.855	24.06
348.067	69.12
348.279	-27.14
348.491	-41.47
348.703	73.21
348.915	1.54
349.127	15.87
349.339	120.32
349.551	42.5
349.763	89.6
349.975	75.26
350.187	114.17
350.399	89.6
350.61	65.02
350.822	52.74
351.034	19.97
351.246	65.02
351.458	83.45
351.669	110.08
351.881	110.08
352.093	44.54
352.305	60.93
352.517	44.54
352.728	52.74
352.94	103.93
353.152	36.35
353.363	28.16
353.575	24.06
353.787	32.26
353.999	40.45
354.21	93.69
354.422	58.88
354.633	85.5
354.845	3.58
355.057	46.59
355.268	-0.51
355.48	103.93
355.692	52.74
355.903	32.26
356.115	-12.8
356.326	56.83
356.538	69.12
356.749	85.5
356.961	144.89
357.172	60.93
357.384	-16.9
357.595	105.98
357.807	58.88
358.018	60.93
358.23	-0.51
358.441	56.83
358.653	110.08
358.864	22.02
359.075	48.64
359.287	56.83
359.498	26.11
359.709	32.26
359.921	-16.9
360.132	54.78
360.344	50.69
360.555	28.16
360.766	79.36
360.977	-12.8
361.189	85.5
361.4	42.5
361.611	157.18
361.823	56.83
362.034	89.6
362.245	19.97
362.456	91.65
362.667	32.26
362.879	71.17
363.09	15.87
363.301	-45.57
363.512	-12.8
363.723	11.78
363.935	26.11
364.146	77.31
364.357	-18.94
364.568	89.6
364.779	28.16
364.99	65.02
365.201	34.3
365.412	99.84
365.623	26.11
365.834	58.88
366.045	9.73
366.256	65.02
366.467	58.88
366.678	40.45
366.889	17.92
367.1	32.26
367.311	69.12
367.522	34.3
367.733	155.13
367.944	48.64
368.155	-4.61
368.366	65.02
368.577	97.79
368.788	75.26
368.999	24.06
369.209	34.3
369.42	108.03
369.631	118.27
369.842	11.78
370.053	132.61
370.264	116.22
370.474	9.73
370.685	75.26
370.896	-20.99
371.107	3.58
371.317	50.69
371.528	50.69
371.739	75.26
371.95	19.97
372.16	99.84
372.371	-33.28
372.582	-37.38
372.792	65.02
373.003	40.45
373.214	50.69
373.424	58.88
373.635	58.88
373.846	69.12
374.056	19.97
374.267	138.75
374.477	26.11
374.688	56.83
374.898	77.31
375.109	34.3
375.319	52.74
375.53	101.89
375.74	120.32
375.951	32.26
376.161	101.89
376.372	153.09
376.582	9.73
376.793	69.12
377.003	91.65
377.214	65.02
377.424	56.83
377.635	75.26
377.845	58.88
378.055	40.45
378.266	30.21
378.476	17.92
378.686	-20.99
378.897	81.41
379.107	52.74
379.317	85.5
379.528	11.78
379.738	120.32
379.948	38.4
380.158	105.98
380.369	65.02
380.579	34.3
380.789	83.45
380.999	32.26
381.21	19.97
381.42	175.61
381.63	50.69
381.84	89.6
382.05	108.03
382.261	112.13
382.471	22.02
382.681	-14.85
382.891	83.45
383.101	56.83
383.311	-25.09
383.521	-6.66
383.731	60.93
383.941	138.75
384.151	73.21
384.361	15.87
384.571	32.26
384.781	26.11
384.991	85.5
385.201	110.08
385.411	73.21
385.621	65.02
385.831	52.74
386.041	83.45
386.251	75.26
386.461	73.21
386.671	17.92
386.881	73.21
387.091	65.02
387.301	124.41
387.511	30.21
387.72	134.65
387.93	56.83
388.14	15.87
388.35	89.6
388.56	75.26
388.769	73.21
388.979	40.45
389.189	-0.51
389.399	50.69
389.609	89.6
389.818	65.02
390.028	114.17
390.238	130.56
390.447	40.45
390.657	15.87
390.867	40.45
391.076	114.17
391.286	36.35
391.496	17.92
391.705	116.22
391.915	75.26
392.125	15.87
392.334	46.59
392.544	110.08
392.753	52.74
392.963	-0.51
393.172	73.21
393.382	9.73
393.591	105.98
393.801	73.21
394.01	155.13
394.22	40.45
394.429	15.87
394.639	146.94
394.848	114.17
395.058	26.11
395.267	48.64
395.477	44.54
395.686	95.74
395.895	134.65
396.105	163.33
396.314	83.45
396.524	34.3
396.733	34.3
396.942	116.22
397.152	75.26
397.361	130.56
397.57	103.93
397.78	67.07
397.989	79.36
398.198	110.08
398.407	77.31
398.617	44.54
398.826	81.41
399.035	87.55
399.244	138.75
399.453	89.6
399.663	67.07
399.872	85.5
400.081	48.64
400.29	157.18
400.499	36.35
400.708	165.37
400.917	99.84
401.127	50.69
401.336	36.35
401.545	173.57
401.754	142.85
401.963	114.17
402.172	52.74
402.381	97.79
402.59	114.17
402.799	155.13
403.008	132.61
403.217	91.65
403.426	163.33
403.635	32.26
403.844	67.07
404.053	105.98
404.262	167.42
404.471	95.74
404.68	122.37
404.888	173.57
405.097	155.13
405.306	124.41
405.515	171.52
405.724	173.57
405.933	183.81
406.142	220.67
406.35	267.77
406.559	194.05
406.768	114.17
406.977	151.04
407.185	159.23
407.394	198.14
407.603	151.04
407.812	261.63
408.02	232.96
408.229	220.67
408.438	185.85
408.646	163.33
408.855	112.13
409.064	179.71
409.272	237.05
409.481	261.63
409.69	241.15
409.898	267.77
410.107	263.68
410.315	312.83
410.524	298.49
410.733	343.55
410.941	286.2
411.15	273.92
411.358	329.21
411.567	333.31
411.775	386.55
411.984	343.55
412.192	431.61
412.401	394.75
412.609	443.9
412.818	450.04
413.026	462.33
413.234	531.96
413.443	417.27
413.651	462.33
413.86	560.63
414.068	542.2
414.276	564.73
414.485	552.44
414.693	581.11
414.901	663.03
415.11	583.16
415.318	642.55
415.526	599.54
415.734	679.41
415.943	712.18
416.151	685.56
416.359	697.85
416.567	802.29
416.776	886.26
416.984	826.87
417.192	892.4
417.4	898.55
417.608	876.02
417.817	931.31
418.025	910.83
418.233	992.75
418.441	994.8
418.649	1080.82
418.857	1101.3
419.065	1082.86
419.273	1146.35
419.481	1220.08
419.689	1265.13
419.897	1412.59
420.105	1279.47
420.313	1431.02
420.521	1465.83
420.729	1408.49
420.937	1502.7
421.145	1543.66
421.353	1623.53
421.561	1654.25
421.769	1768.93
421.977	1768.93
422.185	1875.43
422.393	1850.85
422.601	2045.41
422.809	2067.94
423.017	1920.48
423.224	2115.04
423.432	2180.57
423.64	2088.42
423.848	2334.17
424.056	2278.88
424.263	2438.62
424.471	2469.34
424.679	2495.96
424.887	2620.89
425.094	2774.49
425.302	2727.38
425.51	2846.16
425.718	2928.08
425.925	2981.33
426.133	3132.88
426.341	3202.51
426.548	3425.74
426.756	3390.92
426.964	3468.75
427.171	3661.26
427.379	3827.14
427.586	3825.09
427.794	3853.77
428.001	4095.43
428.209	4228.54
428.417	4341.18
428.624	4490.68
428.832	4464.06
429.039	4400.57
429.247	4492.73
429.454	4838.84
429.662	5230
429.869	4861.37
430.076	5100.98
430.284	5098.93
430.491	5240.24
430.699	5494.19
430.906	5414.32
431.114	5602.73
431.321	5864.87
431.528	6036.9
431.736	6421.92
431.943	6690.2
432.15	6563.23
432.358	6514.08
432.565	6776.22
432.772	6948.25
432.979	7425.42
433.187	7327.12
433.394	7329.17
433.601	7892.36
433.808	7996.81
434.016	7957.89
434.223	8146.31
434.43	8742.27
434.637	8410.5
434.844	9045.37
435.052	9209.2
435.259	9071.99
435.466	9155.96
435.673	9041.27
435.88	9805.16
436.087	10184.04
436.294	10200.42
436.501	9969
436.708	10110.31
436.915	10589.53
437.122	11035.99
437.329	10880.35
437.537	11255.12
437.743	11552.08
437.95	11566.42
438.157	12006.73
438.364	12488
438.571	12309.83
438.778	12414.27
438.985	13524.27
439.192	13124.92
439.399	13522.23
439.606	13264.18
439.813	14081.32
440.02	14974.24
440.227	14585.12
440.433	14449.96
440.64	14853.41
440.847	14929.18
441.054	15338.77
441.261	16229.64
441.467	15850.77
441.674	16274.7
441.881	16868.61
442.088	16839.94
442.294	16723.2
442.501	17159.42
442.708	17423.61
442.914	18275.56
443.121	18885.86
443.328	18193.64
443.534	19645.65
443.741	19289.31
443.948	18967.77
444.154	20202.7
444.361	20255.95
444.568	20208.84
444.774	20274.38
444.981	20460.74
445.187	21331.13
445.394	22338.73
445.6	21619.89
445.807	23612.57
446.013	22897.83
446.22	23383.2
446.426	24382.6
446.633	24616.07
446.839	25255.04
447.046	24521.87
447.252	26195.06
447.459	25613.43
447.665	25578.62
447.871	26801.26
448.078	28159.06
448.284	26856.55
448.491	27696.22
448.697	28519.5
448.903	29312.06
449.11	29420.61
449.316	28879.94
449.522	29416.51
449.728	30057.53
449.935	30290.99
450.141	30590
450.347	31140.9
450.553	29783.1
450.76	30819.37
450.966	31427.62
451.172	31360.03
451.378	32140.31
451.584	31108.13
451.791	32263.19
451.997	32263.19
452.203	32560.14
452.409	32709.64
452.615	32805.9
452.821	31452.19
453.027	31005.73
453.233	32769.04
453.44	31530.01
453.646	32103.45
453.852	32263.19
454.058	32703.5
454.264	31749.15
454.47	32408.59
454.676	31214.63
454.882	32803.85
455.088	29408.32
455.294	30233.65
455.5	30610.48
455.705	31067.17
455.911	29676.6
456.117	29363.26
456.323	29318.21
456.529	27438.17
456.735	28789.83
456.941	28142.67
457.147	27409.5
457.352	26926.18
457.558	26623.08
457.764	26719.34
457.97	26268.78
458.176	25513.08
458.381	25638.01
458.587	24437.9
458.793	24312.97
458.999	23215.26
459.204	24562.83
459.41	24261.77
459.616	22480.04
459.821	22705.32
460.027	22465.71
460.233	22029.49
460.438	20970.69
460.644	21112
460.85	20411.59
461.055	19901.65
461.261	20128.97
461.466	18457.83
461.672	17943.79
461.878	19096.8
462.083	17726.71
462.289	17417.46
462.494	17554.68
462.7	16911.61
462.905	16420.1
463.111	16923.9
463.316	16944.38
463.522	16475.4
463.727	16868.61
463.932	16477.44
464.138	16268.55
464.343	16495.88
464.549	16010.51
464.754	16485.64
464.959	16254.22
465.165	16172.3
465.37	15559.95
465.575	15172.89
465.781	16014.6
465.986	15994.12
466.191	15279.38
466.397	15019.29
466.602	14277.93
466.807	14708
467.012	14834.97
467.218	14834.97
467.423	14652.7
467.628	14632.22
467.833	15658.26
468.038	14636.32
468.244	14576.93
468.449	15025.43
468.654	14349.61
468.859	14499.11
469.064	14243.11
469.269	13700.4
469.474	13909.29
469.679	14150.95
469.885	13784.37
470.09	13974.83
470.295	13901.1
470.5	13458.74
470.705	13737.26
470.91	13233.46
471.115	13100.34
471.32	13647.15
471.525	13378.87
471.73	12989.75
471.935	12942.65
472.139	12401.99
472.344	12854.59
472.549	12541.25
472.754	12426.56
472.959	12199.24
473.164	11881.8
473.369	11818.32
473.574	12410.18
473.778	11928.91
473.983	12027.21
474.188	11781.45
474.393	11492.69
474.598	11349.33
474.802	11294.04
475.007	11429.2
475.212	11257.17
475.417	11058.52
475.621	10849.63
475.826	10945.88
476.031	10923.35
476.235	10603.87
476.44	10837.34
476.645	10536.29
476.849	10511.71
477.054	10483.04
477.259	10364.26
477.463	10290.53
477.668	9762.16
477.872	10071.4
478.077	10050.92
478.282	9581.93
478.486	9733.48
478.691	9534.83
478.895	9514.35
479.1	9653.61
479.304	9489.78
479.509	9117.04
479.713	9493.87
479.918	9153.91
480.122	8983.93
480.326	9239.92
480.531	9219.44
480.735	9094.52
480.94	8904.06
481.144	9340.27
481.348	9059.7
481.553	9045.37
481.757	8748.41
481.961	9008.5
482.166	9004.41
482.37	8895.86
482.574	8791.42
482.778	8766.84
482.983	8953.21
483.187	8719.74
483.391	8854.9
483.595	8877.43
483.8	8840.57
484.004	8990.07
484.208	9020.79
484.412	8764.79
484.616	8920.44
484.821	8772.99
485.025	8598.91
485.229	8889.72
485.433	8748.41
485.637	8859
485.841	8705.4
486.045	8770.94
486.249	8699.26
486.453	8875.38
486.657	8783.23
486.861	8818.04
487.065	8711.55
487.269	8856.95
487.473	8908.15
487.677	8727.93
487.881	9004.41
488.085	8938.87
488.289	8938.87
488.493	9080.18
488.697	9018.74
488.901	8895.86
489.105	8971.64
489.309	8914.3
489.512	9115
489.716	8967.54
489.92	8971.64
490.124	9223.54
490.328	9104.76
490.531	9037.17
490.735	9307.51
490.939	9141.62
491.143	9194.87
491.346	9166.2
491.55	9436.53
491.754	9477.49
491.958	9309.55
492.161	9311.6
492.365	9610.61
492.569	9366.9
492.772	9422.19
492.976	9702.76
493.18	9727.34
493.383	9688.43
493.587	10098.02
493.79	9997.67
493.994	9616.75
494.197	9903.46
494.401	10016.1
494.605	9946.47
494.808	10120.55
495.012	10265.96
495.215	10495.33
495.419	10653.02
495.622	10526.05
495.825	10556.77
496.029	10583.39
496.232	10714.46
496.436	10788.19
496.639	11134.29
496.843	11128.15
497.046	11298.13
497.249	11156.82
497.453	11435.35
497.656	11728.21
497.859	11713.87
498.063	11869.51
498.266	12055.88
498.469	11728.21
498.673	12229.96
498.876	12236.1
499.079	12356.93
499.282	12492.1
499.485	12668.22
499.689	12825.92
499.892	12797.24
500.095	12934.46
500.298	13299
500.501	13172.02
500.705	13688.11
500.908	13901.1
501.111	13872.43
501.314	14122.28
501.517	14103.85
501.72	14409
501.923	14208.3
502.126	14814.49
502.329	14990.62
502.532	15013.15
502.735	15287.57
502.938	15557.91
503.141	15447.32
503.344	15641.87
503.547	15940.88
503.75	16256.26
503.953	16131.34
504.156	16311.56
504.359	16676.1
504.562	16768.26
504.765	17083.64
504.968	17186.04
505.17	17706.23
505.373	17437.94
505.576	17695.99
505.779	18339.05
505.982	18101.48
506.185	18590.95
506.387	18531.56
506.59	18877.66
506.793	19242.2
506.996	18765.03
507.198	19510.49
507.401	19885.26
507.604	19973.33
507.807	20501.7
508.009	20491.46
508.212	20528.33
508.415	20966.59
508.617	21298.36
508.82	21572.79
509.022	21460.15
509.225	21777.59
509.428	21855.41
509.63	22299.82
509.833	22379.69
510.035	22889.63
510.238	22666.41
510.44	23227.55
510.643	23684.25
510.845	23653.53
511.048	23800.98
511.25	23905.43
511.453	23917.72
511.655	25119.87
511.858	24697.99
512.06	25326.72
512.262	25144.45
512.465	25273.47
512.667	25865.33
512.87	26217.58
513.072	26305.65
513.274	26907.75
513.477	27257.95
513.679	27290.72
513.881	27444.32
514.084	27565.15
514.286	28019.8
514.488	28353.62
514.69	28955.72
514.893	28965.96
515.095	29219.91
515.297	29678.65
515.499	29553.73
515.701	30030.9
515.904	30583.85
516.106	30549.04
516.308	30995.5
516.51	31132.71
516.712	30981.16
516.914	31568.93
517.116	32060.44
517.318	32275.48
517.52	32285.72
517.722	32736.27
517.925	33045.51
518.127	33375.23
518.329	33686.53
518.531	33342.47
518.733	34106.36
518.935	34657.26
519.136	34573.3
519.338	35251.17
519.54	35304.42
519.742	35599.33
519.944	35736.54
520.146	36361.17
520.348	36709.33
520.55	36752.34
520.752	36463.57
520.954	37675.97
521.155	37536.71
521.357	37766.08
521.559	38239.16
521.761	38400.95
521.963	38712.24
522.164	38998.96
522.366	38886.32
522.568	39404.45
522.77	39433.13
522.971	40119.2
523.173	39656.35
523.375	40373.14
523.576	40446.87
523.778	39988.13
523.98	40696.72
524.181	41128.84
524.383	40743.83
524.584	41956.22
524.786	41591.69
524.988	41657.22
525.189	41847.68
525.391	42595.19
525.592	42578.81
525.794	42853.23
525.995	42818.42
526.197	43107.18
526.398	43283.31
526.6	43395.95
526.801	43750.24
527.003	43557.74
527.204	43678.57
527.406	44454.75
527.607	44315.48
527.808	44577.62
528.01	43830.12
528.211	44421.98
528.412	44940.11
528.614	45038.42
528.815	44882.77
529.016	45302.6
529.218	45040.46
529.419	45542.22
529.62	45308.75
529.822	45036.37
530.023	45421.39
530.224	45511.5
530.425	45280.08
530.626	45294.41
530.828	45036.37
531.029	46132.03
531.23	45855.56
531.431	45503.31
531.632	45880.13
531.833	45962.05
532.035	45970.24
532.236	45722.44
532.437	46158.66
532.638	45843.27
532.839	46187.33
533.04	46517.05
533.241	46029.63
533.442	46412.6
533.643	46254.91
533.844	46396.22
534.045	46486.33
534.246	46041.92
534.447	46693.18
534.648	45949.76
534.849	46506.81
535.05	46238.53
535.251	46420.8
535.451	46361.4
535.652	46609.21
535.853	46498.62
536.054	46836.53
536.255	46873.4
536.456	46244.67
536.657	47024.95
536.857	46529.34
537.058	46129.98
537.259	47031.09
537.46	46928.69
537.66	46281.53
537.861	46601.02
538.062	46551.87
538.263	46891.83
538.463	46572.35
538.664	46353.21
538.865	46705.46
539.065	47059.76
539.266	46738.23
539.466	46625.59
539.667	46287.68
539.868	47172.4
540.068	46601.02
540.269	46744.37
540.469	46848.82
540.67	46560.06
540.87	46428.99
541.071	46711.61
541.271	46431.04
541.472	46873.4
541.672	46437.18
541.873	46742.33
542.073	46205.76
542.274	47029.04
542.474	46592.83
542.675	46385.98
542.875	47194.93
543.075	46412.6
543.276	46181.18
543.476	46779.19
543.676	46072.64
543.877	46717.75
544.077	46500.67
544.277	46453.56
544.478	46601.02
544.678	46269.25
544.878	46379.84
545.078	46537.53
545.279	46299.97
545.479	46256.96
545.679	46617.4
545.879	46742.33
546.079	46496.57
546.28	46431.04
546.48	45837.12
546.68	46412.6
546.88	46207.81
547.08	46328.64
547.28	46304.06
547.48	46093.12
547.68	46377.79
547.88	46394.17
548.081	46293.82
548.281	46707.51
548.481	46129.98
548.681	46461.76
548.881	46578.49
549.081	46000.96
549.28	46175.04
549.48	46451.52
549.68	45828.93
549.88	46953.27
550.08	46011.2
550.28	46240.57
550.48	46359.36
550.68	46435.13
550.88	45716.29
551.08	46181.18
551.279	46248.77
551.479	45740.87
551.679	46041.92
551.879	46324.54
552.079	46158.66
552.278	46134.08
552.478	46562.11
552.678	46445.37
552.878	46244.67
553.077	46240.57
553.277	45742.92
553.477	46533.43
553.676	45976.39
553.876	45820.74
554.076	46023.49
554.275	46017.35
554.475	45419.34
554.674	45658.95
554.874	45962.05
555.074	45638.47
555.273	45515.59
555.473	45814.6
555.672	45380.43
555.872	45171.53
556.071	45468.49
556.271	45884.23
556.47	45310.8
556.67	44813.14
556.869	45253.45
557.068	45597.51
557.268	45251.41
557.467	45138.77
557.667	45151.06
557.866	45247.31
558.065	45239.12
558.265	45214.54
558.464	45239.12
558.663	45425.48
558.863	44663.64
559.062	45323.08
559.261	44958.55
559.461	45085.52
559.66	44376.92
559.859	44643.16
560.058	44571.48
560.258	44712.79
560.457	43983.71
560.656	44911.44
560.855	44796.76
561.054	45106
561.253	44331.87
561.453	44004.19
561.652	44487.51
561.851	44505.94
562.05	44075.87
562.249	44016.48
562.448	44475.23
562.647	44151.65
562.846	44323.68
563.045	43823.97
563.244	43735.91
563.443	44254.04
563.642	43412.33
563.841	43651.94
564.04	43776.87
564.239	43774.82
564.438	43527.02
564.637	43475.82
564.836	43860.83
565.035	43213.68
565.234	43484.01
565.432	43391.85
565.631	43174.77
565.83	43234.16
566.029	43072.37
566.228	42787.7
566.427	43029.36
566.625	42759.03
566.824	42406.78
567.023	43273.07
567.222	41835.39
567.42	42959.73
567.619	42861.43
567.818	42560.37
568.016	42365.82
568.215	42660.73
568.414	42353.53
568.612	42611.57
568.811	42427.26
569.01	41819.01
569.208	41757.57
569.407	41710.47
569.605	41436.04
569.804	42269.56
570.002	41431.94
570.201	41624.45
570.4	41433.99
570.598	41171.85
570.797	41067.41
570.995	41198.48
571.193	41229.19
571.392	41110.41
571.59	40405.91
571.789	40987.53
571.987	40999.82
572.186	40733.59
572.384	40248.22
572.582	40446.87
572.781	40928.14
572.979	39756.71
573.177	40270.75
573.376	40536.98
573.574	39981.98
573.772	40256.41
573.971	39797.66
574.169	39859.1
574.367	39302.06
574.565	39723.94
574.763	39455.65
574.962	39326.63
575.16	39240.62
575.358	39109.55
575.556	38779.82
575.754	39252.91
575.952	38966.19
576.151	39254.95
576.349	38728.63
576.547	38732.72
576.745	38429.62
576.943	38556.6
577.141	38368.18
577.339	38876.08
577.537	38069.18
577.735	38462.39
577.933	38034.36
578.131	38290.36
578.329	37876.67
578.527	37897.15
578.725	37768.13
578.923	37745.6
579.121	37825.47
579.319	37526.47
579.516	37737.41
579.714	37034.95
579.912	37055.43
580.11	37024.72
580.308	36887.5
580.506	37155.79
580.704	36762.58
580.901	36981.71
581.099	36844.49
581.297	35970.01
581.495	36518.87
581.692	36715.47
581.89	36019.16
582.088	36633.55
582.285	35922.91
582.483	36322.26
582.681	36228.06
582.878	35990.49
583.076	35308.52
583.274	36127.7
583.471	35398.63
583.669	35415.01
583.866	35519.46
584.064	35584.99
584.262	34997.23
584.459	35283.94
584.657	34991.08
584.854	34804.72
585.052	34552.82
585.249	35183.59
585.447	35283.94
585.644	34907.12
585.841	34890.73
586.039	34810.86
586.236	34208.76
586.434	33958.91
586.631	34311.16
586.828	34178.04
587.026	33932.28
587.223	33807.36
587.42	33975.29
587.618	34040.82
587.815	33281.03
588.012	33395.71
588.21	33451.01
588.407	33516.54
588.604	33391.62
588.801	33057.8
588.999	32982.02
589.196	32906.25
589.393	33502.21
589.59	32766.99
589.787	32605.2
589.984	32377.87
590.182	32470.03
590.379	32422.93
590.576	32105.49
590.773	32185.36
590.97	32162.84
591.167	32070.68
591.364	31816.73
591.561	31751.2
591.758	31659.04
591.955	31851.55
592.152	31702.04
592.349	31493.15
592.546	31583.26
592.743	31421.47
592.94	30700.59
593.137	31427.62
593.334	31339.55
593.531	31044.65
593.727	31149.09
593.924	31149.09
594.121	30590
594.318	30981.16
594.515	30321.71
594.712	30878.76
594.908	30338.1
595.105	30772.27
595.302	30340.15
595.499	30198.84
595.696	30299.19
595.892	30008.37
596.089	30538.8
596.286	30184.5
596.482	29824.06
596.679	29568.06
596.876	29824.06
597.072	29520.96
597.269	29492.29
597.466	29158.47
597.662	29137.99
597.859	29271.11
598.055	29148.23
598.252	28970.05
598.448	28773.45
598.645	28611.66
598.841	28646.47
599.038	28988.49
599.234	28623.95
599.431	28306.51
599.627	28193.87
599.824	28470.35
600.02	28494.93
600.217	28163.15
600.413	28292.18
600.609	28068.95
600.806	27538.52
601.002	27749.46
601.198	27753.56
601.395	27573.34
601.591	27530.33
601.787	27788.38
601.984	27411.55
602.18	27526.24
602.376	27022.44
602.572	27268.19
602.769	27090.02
602.965	26844.26
603.161	26877.03
603.357	26688.62
603.553	26666.09
603.75	26750.06
603.946	26786.92
604.142	26911.85
604.338	26221.68
604.534	26225.78
604.73	26115.19
604.926	26053.75
605.122	26418.28
605.318	26373.23
605.514	25736.31
605.71	25676.92
605.906	25820.28
606.102	25775.22
606.298	25801.85
606.494	25693.3
606.69	25635.96
606.886	25523.32
607.082	24962.18
607.278	25410.68
607.474	25128.06
607.67	25316.48
607.866	24704.14
608.062	25175.17
608.257	24874.12
608.453	24994.95
608.649	24917.12
608.845	24685.7
609.041	24528.01
609.236	24779.91
609.432	24675.46
609.628	24618.12
609.824	24487.05
610.019	24190.09
610.215	24415.37
610.411	24456.33
610.606	24145.04
610.802	24206.48
610.998	24243.34
611.193	24247.44
611.389	23954.58
611.584	23987.35
611.78	24020.11
611.976	24038.55
612.171	24059.02
612.367	23792.79
612.562	23792.79
612.758	23643.29
612.953	23225.5
613.149	23913.62
613.344	23405.72
613.539	23813.27
613.735	23649.43
613.93	23346.33
614.126	23198.88
614.321	23346.33
614.517	23233.69
614.712	23108.77
614.907	23186.59
615.103	23276.7
615.298	22922.4
615.493	23325.85
615.688	22680.74
615.884	23256.22
616.079	22627.49
616.274	22965.41
616.47	22744.23
616.665	22750.37
616.86	22670.5
617.055	22545.58
617.25	22449.32
617.445	22461.61
617.641	22166.7
617.836	22557.86
618.031	22109.36
618.226	22365.35
618.421	22168.75
618.616	22277.29
618.811	22082.74
619.006	22406.31
619.201	21419.19
619.396	22021.3
619.591	21281.98
619.786	22224.04
619.981	21406.91
620.176	21406.91
620.371	21161.15
620.566	21468.34
620.761	21073.09
620.956	21200.06
621.151	20659.4
621.346	20817.09
621.541	20706.5
621.735	20909.25
621.93	20325.58
622.125	20335.82
622.32	20233.42
622.515	20495.56
622.709	20114.64
622.904	20169.93
623.099	19774.67
623.294	19907.79
623.488	19555.54
623.683	19676.37
623.878	19303.64
624.072	19500.25
624.267	19365.08
624.462	19467.48
624.656	19055.84
624.851	19131.61
625.046	19068.13
625.24	18769.12
625.435	18638.05
625.629	18439.4
625.824	18406.63
626.018	18410.73
626.213	17966.32
626.407	18398.44
626.602	17917.17
626.796	18044.14
626.991	17999.09
627.185	17812.72
627.38	17702.13
627.574	17849.58
627.768	17521.91
627.963	17442.04
628.157	17208.57
628.352	17126.65
628.546	16919.81
628.74	17212.67
628.935	16973.05
629.129	16688.39
629.323	16393.48
629.517	16874.75
629.712	16731.39
629.906	16555.27
630.1	16291.08
630.294	16534.79
630.489	16366.85
630.683	16065.8
630.877	15932.68
631.071	15918.35
631.265	16063.75
631.459	15740.18
631.653	15627.54
631.848	15803.66
632.042	15652.11
632.236	15684.88
632.43	15236.38
632.624	15183.13
632.818	15486.23
633.012	14998.81
633.206	15058.2
633.4	15088.92
633.594	15029.53
633.788	14861.6
633.982	14908.7
634.176	14664.99
634.369	14634.27
634.563	14507.3
634.757	14482.72
634.951	14501.15
635.145	14204.2
635.339	14425.38
635.533	14148.9
635.726	13983.02
635.92	14054.7
636.114	13827.37
636.308	14007.59
636.501	13745.45
636.695	13880.62
636.889	13575.47
637.083	13516.08
637.276	13657.39
637.47	13542.71
637.664	13395.25
637.857	13477.17
638.051	13331.76
638.244	13028.67
638.438	13131.06
638.632	13063.48
638.825	13036.86
639.019	12913.98
639.212	12633.41
639.406	12641.6
639.599	12666.17
639.793	12660.03
639.986	12660.03
640.18	12414.27
640.373	12752.19
640.567	12309.83
640.76	12283.2
640.954	12072.26
641.147	12320.07
641.34	12088.65
641.534	11951.43
641.727	12162.37
641.92	11818.32
642.114	11730.25
642.307	11914.57
642.5	11631.95
642.694	11396.43
642.887	11439.44
643.08	11558.22
643.273	11148.63
643.467	11492.69
643.66	11281.75
643.853	10915.16
644.046	10941.79
644.239	11115.86
644.432	11062.62
644.626	11109.72
644.819	10915.16
645.012	10868.06
645.205	10618.21
645.398	10591.58
645.591	10687.84
645.784	10476.9
645.977	10437.98
646.17	10554.72
646.363	10265.96
646.556	10179.94
646.749	10159.46
646.942	10360.16
647.135	9876.84
647.328	10157.41
647.521	9936.23
647.714	9905.51
647.907	10001.77
648.099	9692.52
648.292	9889.13
648.485	9764.2
648.678	9575.79
648.871	9594.22
649.064	9350.51
649.256	9694.57
649.449	9327.99
649.642	9416.05
649.835	9444.72
650.027	9239.92
650.22	9241.97
650.413	9178.48
650.605	9266.55
650.798	9215.35
650.991	8928.63
651.183	8920.44
651.376	9026.93
651.568	9016.69
651.761	9004.41
651.954	8770.94
652.146	8670.59
652.339	8930.68
652.531	8514.94
652.724	8695.16
652.916	8555.9
653.109	8576.38
653.301	8377.73
653.494	8355.2
653.686	8340.86
653.879	8476.03
654.071	8220.03
654.263	8283.52
654.456	8148.36
654.648	8353.15
654.84	7933.32
655.033	7890.31
655.225	8054.15
655.417	8013.19
655.61	7994.76
655.802	7783.82
655.994	7761.29
656.186	7755.15
656.379	7691.66
656.571	7785.87
656.763	7282.06
656.955	7462.29
657.148	7486.86
657.34	7501.2
657.532	7349.65
657.724	7226.77
657.916	7269.78
658.108	7372.18
658.3	7261.59
658.492	7265.68
658.684	7101.84
658.876	7230.87
659.068	7241.11
659.26	7060.88
659.452	6968.73
659.644	6845.85
659.836	6913.43
660.028	6919.57
660.22	6612.38
660.412	6745.5
660.604	6622.62
660.796	6542.75
660.988	6700.44
661.18	6536.6
661.372	6661.53
661.563	6571.42
661.755	6561.18
661.947	6479.26
662.139	6413.73
662.331	6421.92
662.522	6167.97
662.714	6155.68
662.906	6262.18
663.097	6061.48
663.289	6108.58
663.481	6200.74
663.673	6057.38
663.864	5877.16
664.056	5975.46
664.247	5905.83
664.439	5825.96
664.631	5815.72
664.822	5905.83
665.014	5819.82
665.205	5946.79
665.397	5744.04
665.588	5782.95
665.78	5672.36
665.971	5524.91
666.163	5586.35
666.354	5430.7
666.546	5533.1
666.737	5434.8
666.929	5508.52
667.12	5551.53
667.311	5471.66
667.503	5305.78
667.694	5416.37
667.885	5186.99
668.077	5266.86
668.268	5447.08
668.459	5195.18
668.651	5164.47
668.842	5170.61
669.033	5078.45
669.224	4863.41
669.416	5225.9
669.607	5045.68
669.798	4914.61
669.989	5103.03
670.18	4922.8
670.371	4939.19
670.563	4832.69
670.754	5033.4
670.945	4726.2
671.136	4971.96
671.327	4746.68
671.518	4660.66
671.709	4871.61
671.9	4824.5
672.091	4769.21
672.282	4705.72
672.473	4666.81
672.664	4648.38
672.855	4627.9
673.046	4668.86
673.237	4724.15
673.428	4677.05
673.619	4580.79
673.809	4466.11
674	4482.49
674.191	4466.11
674.382	4449.72
674.573	4421.05
674.764	4349.37
674.954	4406.72
675.145	4283.84
675.336	4279.74
675.527	4324.8
675.717	4369.85
675.908	4226.5
676.099	4300.22
676.289	4226.5
676.48	4302.27
676.671	4115.91
676.861	4212.16
677.052	4208.06
677.243	4210.11
677.433	4201.92
677.624	4097.47
677.814	4079.04
678.005	4238.78
678.195	4064.71
678.386	4107.71
678.576	4103.62
678.767	3941.83
678.957	3990.98
679.148	4052.42
679.338	3964.36
679.529	4042.18
679.719	3907.01
679.909	4038.08
680.1	3923.4
680.29	3870.15
680.481	3886.53
680.671	3941.83
680.861	3937.73
681.052	3802.57
681.242	3818.95
681.432	3915.2
681.622	3837.38
681.813	3878.34
682.003	3878.34
682.193	3759.56
682.383	3997.12
682.573	3866.05
682.764	3868.1
682.954	3769.8
683.144	3911.11
683.334	3927.49
683.524	3794.37
683.714	3775.94
683.904	3808.71
684.094	3612.1
684.284	3730.89
684.474	3683.78
684.664	3757.51
684.854	3749.32
685.044	3691.98
685.234	3632.58
685.424	3655.11
685.614	3722.7
685.804	3671.5
685.994	3624.39
686.184	3542.47
686.374	3595.72
686.564	3612.1
686.753	3691.98
686.943	3575.24
687.133	3620.3
687.323	3589.58
687.513	3526.09
687.702	3464.65
687.892	3538.38
688.082	3589.58
688.272	3505.61
688.461	3521.99
688.651	3698.12
688.841	3657.16
689.03	3485.13
689.22	3444.17
689.41	3452.36
689.599	3505.61
689.789	3603.91
689.979	3472.84
690.168	3407.31
690.358	3370.44
690.547	3427.79
690.737	3390.92
690.926	3493.32
691.116	3284.43
691.305	3505.61
691.495	3395.02
691.684	3384.78
691.874	3448.27
692.063	3300.81
692.252	3306.96
692.442	3358.16
692.631	3278.29
692.82	3233.23
693.01	3309.01
693.199	3276.24
693.388	3280.33
693.578	3272.14
693.767	3235.28
693.956	3241.42
694.146	3251.66
694.335	3139.02
694.524	3317.2
694.713	3257.81
694.902	3014.1
695.092	3309.01
695.281	3134.93
695.47	3259.85
695.659	3136.98
695.848	3173.84
696.037	3251.66
696.226	3153.36
696.415	3116.5
696.604	3202.51
696.793	3247.57
696.982	3145.17
697.171	3188.18
697.36	3081.68
697.549	3145.17
697.738	3073.49
697.927	3114.45
698.116	3055.06
698.305	3046.87
698.494	2899.41
698.683	3065.3
698.872	3026.39
699.061	3087.82
699.25	3016.15
699.438	3024.34
699.627	3061.2
699.816	3139.02
700.005	3022.29
700.193	3079.63
700.382	2981.33
700.571	3102.16
700.76	3073.49
700.948	2852.31
701.137	3032.53
701.326	2993.62
701.514	2842.07
701.703	3010
701.892	2854.36
702.08	2948.56
702.269	2862.55
702.457	2923.99
702.646	2907.6
702.834	2874.84
703.023	2866.64
703.212	2923.99
703.4	2831.83
703.589	2878.93
703.777	2797.01
703.965	2813.4
704.154	2874.84
704.342	2915.8
704.531	2891.22
704.719	2731.48
704.907	2866.64
705.096	2868.69
705.284	2774.49
705.472	2620.89
705.661	2727.38
705.849	2907.6
706.037	2711
706.226	2784.73
706.414	2723.29
706.602	2772.44
706.79	2774.49
706.979	2854.36
707.167	2706.9
707.355	2715.09
707.543	2696.66
707.731	2635.22
707.919	2624.98
708.107	2680.28
708.296	2700.76
708.484	2543.07
708.672	2633.18
708.86	2663.9
709.048	2694.61
709.236	2588.12
709.424	2614.74
709.612	2645.46
709.8	2526.68
709.988	2725.33
710.176	2534.87
710.364	2551.26
710.551	2665.94
710.739	2678.23
710.927	2604.5
711.115	2594.26
711.303	2573.78
711.491	2655.7
711.679	2557.4
711.866	2401.76
712.054	2563.54
712.242	2377.18
712.43	2588.12
712.617	2448.86
712.805	2491.87
712.993	2489.82
713.181	2434.52
713.368	2506.2
713.556	2350.56
713.744	2467.29
713.931	2647.51
714.119	2424.28
714.306	2444.76
714.494	2506.2
714.682	2506.2
714.869	2487.77
715.057	2342.36
715.244	2422.24
715.432	2360.8
715.619	2317.79
715.807	2340.32
715.994	2498.01
716.182	2334.17
716.369	2352.6
716.556	2467.29
716.744	2235.87
716.931	2244.06
717.119	2215.39
717.306	2407.9
717.493	2362.84
717.681	2305.5
717.868	2235.87
718.055	2401.76
718.242	2342.36
718.43	2328.03
718.617	2371.04
718.804	2305.5
718.991	2250.21
719.179	2272.73
719.366	2166.24
719.553	2319.84
719.74	2219.49
719.927	2186.72
720.114	2227.68
720.301	2168.29
720.488	2106.85
720.676	2121.18
720.863	2254.3
721.05	2260.45
721.237	2219.49
721.424	2260.45
721.611	2170.33
721.798	2141.66
721.985	2031.07
722.172	2203.1
722.358	2190.81
722.545	2137.57
722.732	2137.57
722.919	2166.24
723.106	2166.24
723.293	2170.33
723.48	2182.62
723.667	2096.61
723.853	2190.81
724.04	2094.56
724.227	2156
724.414	2112.99
724.6	2031.07
724.787	2160.1
724.974	2117.09
725.161	2063.84
725.347	2061.79
725.534	2074.08
725.72	2141.66
725.907	2215.39
726.094	2053.6
726.28	1998.31
726.467	2039.26
726.653	1998.31
726.84	2086.37
727.027	2057.7
727.213	1975.78
727.4	1996.26
727.586	2121.18
727.773	1996.26
727.959	1951.2
728.145	1965.54
728.332	2031.07
728.518	2006.5
728.705	1934.82
728.891	1809.89
729.077	1990.11
729.264	1930.72
729.45	1967.59
729.636	1988.07
729.823	2010.59
730.009	1922.53
730.195	1900
730.382	1924.58
730.568	1850.85
730.754	1883.62
730.94	1912.29
731.126	1867.24
731.313	1900
731.499	1811.94
731.685	2008.55
731.871	1836.52
732.057	1803.75
732.243	2010.59
732.429	1852.9
732.615	1863.14
732.801	1957.35
732.987	1850.85
733.173	1846.76
733.359	1852.9
733.545	1795.56
733.731	1799.65
733.917	1785.32
734.103	1838.56
734.289	1867.24
734.475	1842.66
734.661	1834.47
734.847	1809.89
735.033	1811.94
735.219	1906.15
735.404	1740.26
735.59	1842.66
735.776	1797.6
735.962	1736.17
736.148	1828.32
736.333	1828.32
736.519	1725.93
736.705	1813.99
736.89	1687.01
737.076	1811.94
737.262	1777.12
737.447	1629.67
737.633	1658.34
737.819	1742.31
738.004	1773.03
738.19	1605.1
738.375	1764.84
738.561	1738.21
738.747	1707.49
738.932	1730.02
739.118	1699.3
739.303	1668.58
739.489	1822.18
739.674	1557.99
739.859	1641.96
740.045	1684.97
740.23	1760.74
740.416	1553.9
740.601	1637.86
740.786	1560.04
740.972	1592.81
741.157	1613.29
741.342	1633.77
741.528	1576.42
741.713	1590.76
741.898	1510.89
742.084	1566.18
742.269	1603.05
742.454	1484.27
742.639	1551.85
742.824	1523.18
743.01	1498.6
743.195	1523.18
743.38	1580.52
743.565	1510.89
743.75	1541.61
743.935	1500.65
744.12	1482.22
744.305	1490.41
744.49	1424.87
744.675	1529.32
744.86	1484.27
745.045	1465.83
745.23	1416.68
745.415	1461.74
745.6	1428.97
745.785	1404.39
745.97	1504.75
746.155	1410.54
746.34	1474.03
746.525	1293.8
746.71	1420.78
746.895	1302
747.079	1375.72
747.264	1424.87
747.449	1342.96
747.634	1351.15
747.819	1420.78
748.003	1297.9
748.188	1318.38
748.373	1293.8
748.557	1314.28
748.742	1314.28
748.927	1281.52
749.111	1302
749.296	1281.52
749.481	1263.08
749.665	1324.52
749.85	1320.43
750.034	1224.17
750.219	1179.12
750.404	1279.47
750.588	1146.35
750.773	1228.27
750.957	1199.6
751.141	1162.73
751.326	1181.17
751.51	1138.16
751.695	1236.46
751.879	1115.63
752.064	1218.03
752.248	1048.05
752.432	1099.25
752.617	1211.89
752.801	1150.45
752.985	1050.1
753.17	1129.97
753.354	1125.87
753.538	1125.87
753.722	1099.25
753.907	1060.34
754.091	957.94
754.275	1064.43
754.459	998.9
754.643	1023.47
754.828	1146.35
755.012	959.99
755.196	970.23
755.38	1158.64
755.564	1054.19
755.748	970.23
755.932	984.56
756.116	1050.1
756.3	1048.05
756.484	1027.57
756.668	1007.09
756.852	951.79
757.036	1015.28
757.22	953.84
757.404	976.37
757.588	1013.23
757.772	900.59
757.956	957.94
758.14	908.79
758.323	908.79
758.507	1007.09
758.691	968.18
758.875	919.03
759.059	906.74
759.242	853.49
759.426	927.22
759.61	822.77
759.794	835.06
759.977	880.11
760.161	974.32
760.345	773.62
760.528	859.63
760.712	888.31
760.895	896.5
761.079	818.68
761.263	837.11
761.446	706.04
761.63	892.4
761.813	796.15
761.997	820.72
762.18	921.07
762.364	826.87
762.547	804.34
762.731	843.25
762.914	853.49
763.098	787.96
763.281	876.02
763.464	740.85
763.648	792.05
763.831	749.04
764.015	849.4
764.198	777.72
764.381	837.11
764.564	747
764.748	763.38
764.931	790
765.114	777.72
765.297	771.57
765.481	749.04
765.664	787.96
765.847	802.29
766.03	644.6
766.213	699.89
766.397	818.68
766.58	740.85
766.763	738.8
766.946	658.93
767.129	753.14
767.312	706.04
767.495	714.23
767.678	689.65
767.861	710.13
768.044	622.07
768.227	708.09
768.41	691.7
768.593	730.61
768.776	712.18
768.959	708.09
769.142	732.66
769.324	671.22
769.507	617.97
769.69	646.65
769.873	687.61
770.056	769.52
770.239	794.1
770.421	669.17
770.604	736.76
770.787	691.7
770.97	718.33
771.152	777.72
771.335	689.65
771.518	656.89
771.7	685.56
771.883	650.74
772.066	656.89
772.248	620.02
772.431	634.36
772.613	712.18
772.796	630.26
772.978	648.69
773.161	605.69
773.343	679.41
773.526	585.21
773.708	591.35
773.891	624.12
774.073	613.88
774.256	630.26
774.438	683.51
774.621	617.97
774.803	599.54
774.985	558.58
775.168	652.79
775.35	597.49
775.532	615.93
775.715	466.42
775.897	622.07
776.079	630.26
776.261	534.01
776.444	630.26
776.626	550.39
776.808	497.14
776.99	534.01
777.173	523.77
777.355	517.62
777.537	605.69
777.719	572.92
777.901	527.86
778.083	519.67
778.265	478.71
778.447	534.01
778.629	556.54
778.811	400.89
778.993	474.62
779.175	517.62
779.357	470.52
779.539	519.67
779.721	536.06
779.903	460.28
780.085	482.81
780.267	466.42
780.449	525.82
780.631	474.62
780.812	456.19
780.994	491
781.176	417.27
781.358	409.08
781.54	445.95
781.721	495.1
781.903	419.32
782.085	474.62
782.267	495.1
782.448	413.18
782.63	429.56
782.812	499.19
782.993	419.32
783.175	386.55
783.357	437.75
783.538	394.75
783.72	417.27
783.901	499.19
784.083	417.27
784.264	384.51
784.446	327.16
784.627	337.4
784.809	486.9
784.99	296.44
785.172	370.17
785.353	361.98
785.535	400.89
785.716	312.83
785.897	390.65
786.079	376.31
786.26	310.78
786.441	296.44
786.623	318.97
786.804	417.27
786.985	310.78
787.167	351.74
787.348	337.4
787.529	306.68
787.71	388.6
787.891	388.6
788.073	372.22
788.254	308.73
788.435	345.59
788.616	361.98
788.797	359.93
788.978	288.25
789.159	282.11
789.34	390.65
789.522	288.25
789.703	329.21
789.884	282.11
790.065	306.68
790.246	355.83
790.427	343.55
790.607	327.16
790.788	310.78
790.969	290.3
791.15	353.79
791.331	284.16
791.512	290.3
791.693	257.53
791.874	273.92
792.054	304.64
792.235	337.4
792.416	298.49
792.597	310.78
792.778	212.48
792.958	286.2
793.139	278.01
793.32	310.78
793.5	175.61
793.681	310.78
793.862	282.11
794.042	232.96
794.223	278.01
794.404	269.82
794.584	239.1
794.765	200.19
794.945	290.3
795.126	253.44
795.306	189.95
795.487	298.49
795.667	269.82
795.848	179.71
796.028	290.3
796.209	220.67
796.389	269.82
796.57	237.05
796.75	196.09
796.93	200.19
797.111	261.63
797.291	187.9
797.471	286.2
797.652	245.24
797.832	222.72
798.012	237.05
798.192	222.72
798.373	171.52
798.553	216.57
798.733	163.33
798.913	138.75
799.093	253.44
799.274	269.82
799.454	249.34
799.634	179.71
799.814	228.86
799.994	224.76
800.174	151.04
800.354	148.99
800.534	81.41
800.714	206.33
800.894	155.13
801.074	173.57
801.254	140.8
801.434	226.81
801.614	153.09
801.794	173.57
801.974	747
802.154	255.48
802.334	239.1
802.514	255.48
802.693	198.14
802.873	237.05
803.053	206.33
803.233	187.9
803.413	89.6
803.592	157.18
803.772	200.19
803.952	228.86
804.131	163.33
804.311	206.33
804.491	192
804.67	148.99
804.85	83.45
805.03	67.07
805.209	189.95
805.389	163.33
805.568	130.56
805.748	79.36
805.928	105.98
806.107	181.76
806.287	144.89
806.466	159.23
806.646	95.74
806.825	132.61
807.004	134.65
807.184	175.61
807.363	167.42
807.543	130.56
807.722	118.27
807.901	134.65
808.081	194.05
808.26	83.45
808.439	196.09
808.619	138.75
808.798	163.33
808.977	110.08
809.156	194.05
809.336	71.17
809.515	200.19
809.694	173.57
809.873	142.85
810.052	153.09
810.231	208.38
810.411	179.71
810.59	173.57
810.769	118.27
810.948	179.71
811.127	60.93
811.306	122.37
811.485	114.17
811.664	157.18
811.843	155.13
812.022	159.23
812.201	155.13
812.38	89.6
812.559	32.26
812.737	196.09
812.916	48.64
813.095	108.03
813.274	181.76
813.453	161.28
813.632	112.13
813.811	81.41
813.989	67.07
814.168	157.18
814.347	58.88
814.526	114.17
814.704	194.05
814.883	163.33
815.062	114.17
815.24	126.46
815.419	138.75
815.598	171.52
815.776	67.07
815.955	110.08
816.133	17.92
816.312	85.5
816.49	110.08
816.669	151.04
816.847	148.99
817.026	148.99
817.204	52.74
817.383	140.8
817.561	75.26
817.74	75.26
817.918	83.45
818.097	95.74
818.275	81.41
818.453	122.37
818.632	155.13
818.81	120.32
818.988	128.51
819.167	114.17
819.345	87.55
819.523	9.73
819.701	93.69
819.879	65.02
820.058	105.98
820.236	73.21
820.414	36.35
820.592	97.79
820.77	110.08
820.948	67.07
821.127	32.26
821.305	130.56
821.483	75.26
821.661	83.45
821.839	97.79
822.017	36.35
822.195	91.65
822.373	134.65
822.551	56.83
822.729	81.41
822.907	99.84
823.085	157.18
823.262	108.03
823.44	46.59
823.618	142.85
823.796	56.83
823.974	99.84
824.152	83.45
824.329	42.5
824.507	69.12
824.685	15.87
824.863	79.36
825.04	40.45
825.218	138.75
825.396	155.13
825.574	26.11
825.751	114.17
825.929	46.59
826.107	77.31
826.284	99.84
826.462	32.26
826.639	42.5
826.817	28.16
826.994	65.02
827.172	71.17
827.349	77.31
827.527	110.08
827.704	101.89
827.882	58.88
828.059	67.07
828.237	71.17
828.414	87.55
828.591	36.35
828.769	9.73
828.946	48.64
829.124	140.8
829.301	73.21
829.478	46.59
829.655	151.04
829.833	73.21
830.01	24.06
830.187	103.93
830.364	50.69
830.542	56.83
830.719	81.41
830.896	65.02
831.073	95.74
831.25	116.22
831.427	75.26
831.604	22.02
831.782	36.35
831.959	65.02
832.136	15.87
832.313	110.08
832.49	19.97
832.667	42.5
832.844	142.85
833.021	56.83
833.198	124.41
833.374	142.85
833.551	58.88
833.728	56.83
833.905	73.21
834.082	9.73
834.259	85.5
834.436	116.22
834.612	65.02
834.789	87.55
834.966	1.54
835.143	26.11
835.319	-31.23
835.496	105.98
835.673	130.56
835.85	54.78
836.026	118.27
836.203	99.84
836.38	56.83
836.556	48.64
836.733	40.45
836.909	62.98
837.086	-8.7
837.262	32.26
837.439	75.26
837.616	65.02
837.792	54.78
837.968	175.61
838.145	7.68
838.321	105.98
838.498	24.06
838.674	36.35
838.851	97.79
839.027	87.55
839.203	91.65
839.38	54.78
839.556	-6.66
839.732	56.83
839.909	19.97
840.085	73.21
840.261	-66.05
840.437	83.45
840.614	73.21
840.79	34.3
840.966	101.89
841.142	36.35
841.318	50.69
841.494	19.97
841.671	48.64
841.847	38.4
842.023	7.68
842.199	42.5
842.375	73.21
842.551	-59.9
842.727	60.93
842.903	40.45
843.079	-0.51
843.255	46.59
843.431	-2.56
843.607	56.83
843.783	9.73
843.959	81.41
844.134	67.07
844.31	97.79
844.486	50.69
844.662	36.35
844.838	-18.94
845.013	-37.38
845.189	40.45
845.365	60.93
845.541	67.07
845.716	42.5
845.892	95.74
846.068	-12.8
846.244	9.73
846.419	15.87
846.595	-33.28
846.77	73.21
846.946	91.65
847.122	-0.51
847.297	67.07
847.473	114.17
847.648	52.74
847.824	58.88
847.999	17.92
848.175	32.26
848.35	-10.75
848.526	32.26
848.701	69.12
848.876	44.54
849.052	112.13
849.227	-6.66
849.403	-8.7
849.578	87.55
849.753	34.3
849.929	26.11
850.104	-72.19
850.279	48.64
850.454	-10.75
850.63	108.03
850.805	97.79
850.98	32.26
851.155	54.78
851.33	19.97
851.505	81.41
851.681	101.89
851.856	-39.42
852.031	44.54
852.206	17.92
852.381	-14.85
852.556	38.4
852.731	44.54
852.906	-6.66
853.081	52.74
853.256	44.54
853.431	-4.61
853.606	60.93
853.781	13.82
853.956	-33.28
854.131	-2.56
854.305	40.45
854.48	15.87
854.655	24.06
854.83	30.21
855.005	87.55
855.18	77.31
855.354	69.12
855.529	81.41
855.704	9.73
855.879	99.84
856.053	62.98
856.228	73.21
856.403	17.92
856.577	48.64
856.752	5.63
856.926	-39.42
857.101	48.64
857.276	40.45
857.45	44.54
857.625	69.12
857.799	40.45
857.974	36.35
858.148	-12.8
858.323	62.98
858.497	48.64
858.672	-57.86
858.846	44.54
859.02	-23.04
859.195	24.06
859.369	-12.8
859.543	81.41
859.718	48.64
859.892	24.06
860.066	3.58
860.241	-0.51
860.415	26.11
860.589	-6.66
860.763	-12.8
860.938	-25.09
861.112	17.92
861.286	24.06
861.46	-12.8
861.634	-49.66
861.808	75.26
861.982	40.45
862.157	48.64
862.331	-4.61
862.505	-8.7
862.679	50.69
862.853	28.16
863.027	-20.99
863.201	32.26
863.375	15.87
863.549	-12.8
863.722	24.06
863.896	19.97
864.07	-55.81
864.244	-45.57
864.418	44.54
864.592	36.35
864.766	-55.81
864.939	71.17
865.113	19.97
865.287	15.87
865.461	-49.66
865.634	7.68
865.808	65.02
865.982	36.35
866.156	11.78
866.329	-18.94
866.503	32.26
866.676	69.12
866.85	22.02
867.024	48.64
867.197	52.74
867.371	34.3
867.544	28.16
867.718	-66.05
867.891	26.11
868.065	-64
868.238	38.4
868.412	48.64
868.585	-74.24
868.759	58.88
868.932	30.21
869.105	79.36
869.279	91.65
869.452	-6.66
869.625	56.83
869.799	-4.61
869.972	15.87
870.145	-33.28
870.319	40.45
870.492	-90.62
870.665	-6.66
870.838	28.16
871.011	-31.23
871.185	17.92
871.358	44.54
871.531	26.11
871.704	1.54
871.877	40.45
872.05	22.02
872.223	-23.04
872.396	7.68
872.569	-10.75
872.742	48.64
872.915	50.69
873.088	-37.38
873.261	7.68
873.434	34.3
873.607	28.16
873.78	65.02
873.953	44.54
874.126	7.68
874.299	-6.66
874.471	56.83
874.644	-78.33
874.817	73.21
874.99	28.16
875.163	-0.51
875.335	-55.81
875.508	34.3
875.681	77.31
875.853	-29.18
876.026	32.26
876.199	-8.7
876.371	56.83
876.544	-41.47
876.717	-20.99
876.889	-12.8
877.062	15.87
877.234	-0.51
877.407	48.64
877.579	15.87
877.752	11.78
877.924	11.78
878.097	15.87
878.269	17.92
878.442	11.78
878.614	50.69
878.786	-25.09
878.959	46.59
879.131	-2.56
879.303	-61.95
879.476	73.21
879.648	9.73
879.82	9.73
879.993	-45.57
880.165	-49.66
880.337	-8.7
880.509	-45.57
880.681	-100.86
880.854	40.45
881.026	7.68
881.198	85.5
881.37	-20.99
881.542	-31.23
881.714	-12.8
881.886	65.02
882.058	9.73
882.23	-27.14
882.402	7.68
882.574	-47.62
882.746	-29.18
882.918	32.26
883.09	-0.51
883.262	-31.23
883.434	26.11
883.606	-49.66
883.778	17.92
883.95	24.06
884.122	-49.66
884.293	50.69
884.465	-14.85
884.637	-16.9
884.809	-25.09
884.98	58.88
885.152	69.12
885.324	56.83
885.496	-107.01
885.667	32.26
885.839	17.92
886.011	30.21
886.182	-23.04
886.354	75.26
886.525	17.92
886.697	48.64
886.869	-25.09
887.04	-82.43
887.212	77.31
887.383	13.82
887.555	-37.38
887.726	-20.99
887.897	-41.47
888.069	-25.09
888.24	77.31
888.412	36.35
888.583	28.16
888.754	34.3
888.926	15.87
889.097	-64
889.268	-37.38
889.44	32.26
889.611	-41.47
889.782	48.64
889.953	-16.9
890.125	32.26
890.296	-18.94
890.467	83.45
890.638	-31.23
890.809	28.16
890.98	-25.09
891.151	56.83
891.323	-20.99
891.494	-8.7
891.665	40.45
891.836	9.73
892.007	28.16
892.178	32.26
892.349	-12.8
892.52	17.92
892.691	17.92
892.862	-47.62
893.032	-27.14
893.203	-18.94
893.374	19.97
893.545	-23.04
893.716	11.78
893.887	1.54
894.057	44.54
894.228	17.92
894.399	-16.9
894.57	1.54
894.74	-16.9
894.911	-41.47
895.082	-90.62
895.253	40.45
895.423	15.87
895.594	7.68
895.764	-14.85
895.935	-33.28
896.106	52.74
896.276	-33.28
896.447	-25.09
896.617	34.3
896.788	-82.43
896.958	-33.28
897.129	-41.47
897.299	-8.7
897.47	7.68
897.64	17.92
897.81	-31.23
897.981	85.5
898.151	15.87
898.322	-6.66
898.492	-14.85
898.662	81.41
898.832	-51.71
899.003	9.73
899.173	-45.57
899.343	-53.76
899.513	32.26
