Data from USB4F104151__44__14-43-00-202.txt Node

Date: Thu Mar 13 14:43:00 EDT 2025
User: louis
Spectrometer: USB4F10415
Trigger mode: 4
Integration Time (sec): 2.000000E-2
Scans to average: 1
Electric dark correction enabled: true
Nonlinearity correction enabled: false
Boxcar width: 0
XAxis mode: Wavelengths
Number of Pixels in Spectrum: 3648
>>>>>Begin Spectral Data<<<<<
178.204	-125.61
178.424	-125.61
178.644	-125.61
178.864	-150.18
179.084	-117.42
179.304	11.61
179.524	-58.03
179.744	-6.83
179.964	42.32
180.184	-0.68
180.404	54.61
180.624	-21.16
180.844	13.65
181.064	-8.87
181.283	32.08
181.503	-47.79
181.723	-10.92
181.943	-68.27
182.163	46.42
182.383	-39.59
182.602	17.75
182.822	-6.83
183.042	38.23
183.262	-43.69
183.482	-60.07
183.701	21.85
183.921	25.94
184.141	-96.94
184.361	50.52
184.58	-131.75
184.8	5.46
185.02	15.7
185.239	103.76
185.459	-49.83
185.679	48.47
185.898	-55.98
186.118	25.94
186.338	-17.07
186.557	91.48
186.777	46.42
186.997	15.7
187.216	13.65
187.436	13.65
187.655	56.66
187.875	5.46
188.095	1.37
188.314	15.7
188.534	44.37
188.753	-15.02
188.973	64.85
189.192	-25.26
189.412	89.43
189.631	-31.4
189.851	21.85
190.07	87.38
190.29	3.41
190.509	5.46
190.729	46.42
190.948	-10.92
191.168	81.24
191.387	128.34
191.607	13.65
191.826	-19.11
192.045	17.75
192.265	5.46
192.484	9.56
192.704	-27.31
192.923	-84.65
193.142	-4.78
193.362	66.9
193.581	42.32
193.8	9.56
194.02	19.8
194.239	30.04
194.458	-51.88
194.678	-47.79
194.897	-51.88
195.116	32.08
195.335	-23.21
195.555	46.42
195.774	-0.68
195.993	-2.73
196.212	56.66
196.432	-29.35
196.651	-10.92
196.87	-12.97
197.089	111.96
197.308	40.28
197.528	9.56
197.747	42.32
197.966	-74.41
198.185	79.19
198.404	3.41
198.623	5.46
198.842	73.04
199.062	25.94
199.281	48.47
199.5	21.85
199.719	38.23
199.938	5.46
200.157	30.04
200.376	54.61
200.595	71
200.814	-35.5
201.033	-8.87
201.252	58.71
201.471	60.76
201.69	21.85
201.909	64.85
202.128	-19.11
202.347	5.46
202.566	66.9
202.785	-25.26
203.004	-4.78
203.223	99.67
203.442	56.66
203.661	30.04
203.879	-37.55
204.098	-82.6
204.317	21.85
204.536	75.09
204.755	23.89
204.974	64.85
205.193	19.8
205.411	7.51
205.63	107.86
205.849	13.65
206.068	-2.73
206.287	-51.88
206.505	7.51
206.724	-2.73
206.943	54.61
207.162	46.42
207.381	15.7
207.599	-6.83
207.818	1.37
208.037	30.04
208.255	-55.98
208.474	21.85
208.693	36.18
208.911	-2.73
209.13	-29.35
209.349	62.8
209.567	32.08
209.786	23.89
210.005	34.13
210.223	-0.68
210.442	-23.21
210.661	21.85
210.879	30.04
211.098	-10.92
211.316	-2.73
211.535	54.61
211.753	-2.73
211.972	5.46
212.191	13.65
212.409	13.65
212.628	-25.26
212.846	-98.99
213.065	-6.83
213.283	-0.68
213.502	40.28
213.72	-8.87
213.938	23.89
214.157	-25.26
214.375	-23.21
214.594	7.51
214.812	54.61
215.031	30.04
215.249	-76.46
215.467	-35.5
215.686	9.56
215.904	54.61
216.122	1.37
216.341	75.09
216.559	30.04
216.778	-10.92
216.996	30.04
217.214	30.04
217.432	-0.68
217.651	77.14
217.869	30.04
218.087	-8.87
218.306	1.37
218.524	21.85
218.742	42.32
218.96	11.61
219.179	-31.4
219.397	48.47
219.615	48.47
219.833	52.56
220.051	-51.88
220.27	40.28
220.488	7.51
220.706	-6.83
220.924	-15.02
221.142	-41.64
221.36	-29.35
221.578	13.65
221.796	32.08
222.015	-2.73
222.233	-74.41
222.451	48.47
222.669	36.18
222.887	-43.69
223.105	42.32
223.323	21.85
223.541	32.08
223.759	95.57
223.977	-41.64
224.195	73.04
224.413	40.28
224.631	13.65
224.849	46.42
225.067	-6.83
225.285	30.04
225.503	-33.45
225.721	-64.17
225.939	-82.6
226.157	-51.88
226.375	75.09
226.592	-33.45
226.81	7.51
227.028	50.52
227.246	101.72
227.464	21.85
227.682	38.23
227.9	11.61
228.117	-6.83
228.335	87.38
228.553	1.37
228.771	30.04
228.989	17.75
229.206	-15.02
229.424	15.7
229.642	-4.78
229.86	19.8
230.077	103.76
230.295	9.56
230.513	21.85
230.731	48.47
230.948	71
231.166	46.42
231.384	-39.59
231.601	5.46
231.819	85.33
232.037	-19.11
232.254	21.85
232.472	-17.07
232.689	-49.83
232.907	7.51
233.125	-49.83
233.342	17.75
233.56	-51.88
233.777	3.41
233.995	-8.87
234.213	71
234.43	21.85
234.648	17.75
234.865	-27.31
235.083	40.28
235.3	-10.92
235.518	79.19
235.735	54.61
235.953	36.18
236.17	-41.64
236.388	15.7
236.605	30.04
236.822	75.09
237.04	11.61
237.257	5.46
237.475	21.85
237.692	-35.5
237.909	1.37
238.127	-27.31
238.344	-45.74
238.562	-8.87
238.779	1.37
238.996	-25.26
239.214	-2.73
239.431	38.23
239.648	-27.31
239.865	93.52
240.083	30.04
240.3	-101.03
240.517	-27.31
240.735	-29.35
240.952	-4.78
241.169	27.99
241.386	7.51
241.603	40.28
241.821	-12.97
242.038	-43.69
242.255	-10.92
242.472	-35.5
242.689	79.19
242.907	73.04
243.124	-37.55
243.341	54.61
243.558	38.23
243.775	-4.78
243.992	-19.11
244.209	34.13
244.426	54.61
244.643	81.24
244.86	38.23
245.078	1.37
245.295	60.76
245.512	40.28
245.729	-2.73
245.946	54.61
246.163	-84.65
246.38	-76.46
246.597	50.52
246.814	62.8
247.031	-10.92
247.248	-10.92
247.464	9.56
247.681	58.71
247.898	23.89
248.115	34.13
248.332	-51.88
248.549	64.85
248.766	25.94
248.983	15.7
249.2	48.47
249.417	66.9
249.633	-27.31
249.85	38.23
250.067	-0.68
250.284	9.56
250.501	46.42
250.717	99.67
250.934	-74.41
251.151	-98.99
251.368	50.52
251.585	40.28
251.801	15.7
252.018	-31.4
252.235	-19.11
252.451	9.56
252.668	-33.45
252.885	25.94
253.102	23.89
253.318	-0.68
253.535	13.65
253.752	-19.11
253.968	-21.16
254.185	-10.92
254.401	15.7
254.618	9.56
254.835	30.04
255.051	64.85
255.268	13.65
255.484	-31.4
255.701	7.51
255.917	13.65
256.134	-33.45
256.351	32.08
256.567	-33.45
256.784	3.41
257	-49.83
257.217	-0.68
257.433	54.61
257.65	-2.73
257.866	79.19
258.082	21.85
258.299	-41.64
258.515	7.51
258.732	-23.21
258.948	-39.59
259.165	3.41
259.381	38.23
259.597	-43.69
259.814	-8.87
260.03	54.61
260.246	17.75
260.463	21.85
260.679	62.8
260.895	34.13
261.112	19.8
261.328	-10.92
261.544	-35.5
261.761	34.13
261.977	21.85
262.193	13.65
262.409	38.23
262.626	11.61
262.842	23.89
263.058	-68.27
263.274	58.71
263.49	60.76
263.707	23.89
263.923	-10.92
264.139	87.38
264.355	54.61
264.571	-2.73
264.787	-0.68
265.004	9.56
265.22	-2.73
265.436	-19.11
265.652	5.46
265.868	81.24
266.084	-0.68
266.3	-23.21
266.516	-19.11
266.732	-2.73
266.948	-29.35
267.164	-72.36
267.38	19.8
267.596	95.57
267.812	152.91
268.028	66.9
268.244	13.65
268.46	-10.92
268.676	15.7
268.892	21.85
269.108	-0.68
269.324	7.51
269.54	-35.5
269.756	36.18
269.972	13.65
270.188	68.95
270.403	-31.4
270.619	-64.17
270.835	36.18
271.051	15.7
271.267	-35.5
271.483	75.09
271.698	83.28
271.914	13.65
272.13	13.65
272.346	48.47
272.562	7.51
272.777	-12.97
272.993	21.85
273.209	-0.68
273.425	-10.92
273.64	-23.21
273.856	48.47
274.072	21.85
274.287	62.8
274.503	58.71
274.719	13.65
274.934	-8.87
275.15	-15.02
275.366	56.66
275.581	21.85
275.797	13.65
276.012	-94.89
276.228	-10.92
276.444	19.8
276.659	42.32
276.875	58.71
277.09	38.23
277.306	7.51
277.521	-25.26
277.737	-8.87
277.952	-2.73
278.168	-10.92
278.383	50.52
278.599	87.38
278.814	54.61
279.03	21.85
279.245	58.71
279.461	21.85
279.676	89.43
279.892	-23.21
280.107	38.23
280.322	83.28
280.538	21.85
280.753	-43.69
280.969	30.04
281.184	93.52
281.399	40.28
281.615	-15.02
281.83	111.96
282.045	5.46
282.26	-27.31
282.476	13.65
282.691	7.51
282.906	-47.79
283.122	13.65
283.337	-33.45
283.552	-6.83
283.767	79.19
283.983	42.32
284.198	71
284.413	30.04
284.628	-25.26
284.843	9.56
285.058	-19.11
285.274	30.04
285.489	56.66
285.704	-41.64
285.919	62.8
286.134	52.56
286.349	5.46
286.564	5.46
286.779	30.04
286.995	34.13
287.21	17.75
287.425	32.08
287.64	46.42
287.855	52.56
288.07	-8.87
288.285	-0.68
288.5	19.8
288.715	81.24
288.93	46.42
289.145	-15.02
289.36	50.52
289.575	-12.97
289.79	71
290.004	-19.11
290.219	30.04
290.434	-43.69
290.649	34.13
290.864	48.47
291.079	-15.02
291.294	-10.92
291.509	75.09
291.724	64.85
291.938	-27.31
292.153	-0.68
292.368	-6.83
292.583	-8.87
292.798	11.61
293.012	81.24
293.227	-0.68
293.442	-21.16
293.657	19.8
293.871	95.57
294.086	1.37
294.301	62.8
294.516	-62.12
294.73	15.7
294.945	-51.88
295.16	-10.92
295.374	23.89
295.589	38.23
295.804	17.75
296.018	11.61
296.233	81.24
296.447	105.81
296.662	-35.5
296.877	95.57
297.091	103.76
297.306	30.04
297.52	5.46
297.735	103.76
297.949	21.85
298.164	-15.02
298.378	-23.21
298.593	-10.92
298.807	-12.97
299.022	38.23
299.236	-10.92
299.451	-2.73
299.665	11.61
299.88	-2.73
300.094	-17.07
300.309	5.46
300.523	-10.92
300.737	-17.07
300.952	7.51
301.166	91.48
301.381	-27.31
301.595	89.43
301.809	130.39
302.024	-19.11
302.238	-35.5
302.452	21.85
302.667	89.43
302.881	71
303.095	23.89
303.309	-35.5
303.524	23.89
303.738	-19.11
303.952	-58.03
304.166	128.34
304.381	17.75
304.595	54.61
304.809	50.52
305.023	38.23
305.237	66.9
305.452	40.28
305.666	89.43
305.88	21.85
306.094	9.56
306.308	-41.64
306.522	42.32
306.736	50.52
306.95	5.46
307.164	73.04
307.379	-0.68
307.593	1.37
307.807	46.42
308.021	9.56
308.235	-31.4
308.449	54.61
308.663	-101.03
308.877	30.04
309.091	54.61
309.305	-31.4
309.519	11.61
309.733	46.42
309.947	32.08
310.161	60.76
310.374	-6.83
310.588	56.66
310.802	62.8
311.016	13.65
311.23	54.61
311.444	-15.02
311.658	58.71
311.872	32.08
312.085	87.38
312.299	15.7
312.513	83.28
312.727	52.56
312.941	1.37
313.154	-2.73
313.368	38.23
313.582	62.8
313.796	-37.55
314.009	15.7
314.223	79.19
314.437	40.28
314.651	-58.03
314.864	15.7
315.078	38.23
315.292	21.85
315.505	9.56
315.719	-0.68
315.933	50.52
316.146	-0.68
316.36	-68.27
316.573	103.76
316.787	-10.92
317.001	30.04
317.214	13.65
317.428	17.75
317.641	-23.21
317.855	19.8
318.068	-29.35
318.282	15.7
318.495	38.23
318.709	23.89
318.922	30.04
319.136	89.43
319.349	36.18
319.563	-19.11
319.776	56.66
319.99	13.65
320.203	46.42
320.417	-23.21
320.63	87.38
320.843	120.15
321.057	27.99
321.27	75.09
321.483	25.94
321.697	73.04
321.91	-98.99
322.124	32.08
322.337	3.41
322.55	-49.83
322.763	-2.73
322.977	-25.26
323.19	30.04
323.403	-15.02
323.617	5.46
323.83	64.85
324.043	21.85
324.256	77.14
324.469	54.61
324.683	1.37
324.896	-58.03
325.109	32.08
325.322	-41.64
325.535	-25.26
325.748	-29.35
325.962	-10.92
326.175	21.85
326.388	42.32
326.601	25.94
326.814	-0.68
327.027	5.46
327.24	15.7
327.453	-72.36
327.666	38.23
327.879	81.24
328.092	54.61
328.305	7.51
328.518	-6.83
328.731	13.65
328.944	32.08
329.157	1.37
329.37	23.89
329.583	21.85
329.796	15.7
330.009	-84.65
330.222	-15.02
330.435	23.89
330.648	122.2
330.861	15.7
331.073	-8.87
331.286	17.75
331.499	30.04
331.712	46.42
331.925	-19.11
332.138	71
332.35	60.76
332.563	1.37
332.776	40.28
332.989	-8.87
333.202	34.13
333.414	-23.21
333.627	32.08
333.84	23.89
334.053	-2.73
334.265	-17.07
334.478	56.66
334.691	-17.07
334.903	38.23
335.116	-19.11
335.329	52.56
335.541	-51.88
335.754	62.8
335.966	17.75
336.179	64.85
336.392	62.8
336.604	9.56
336.817	-10.92
337.029	-2.73
337.242	-6.83
337.454	13.65
337.667	-12.97
337.88	83.28
338.092	58.71
338.305	9.56
338.517	50.52
338.729	111.96
338.942	79.19
339.154	64.85
339.367	21.85
339.579	56.66
339.792	-68.27
340.004	42.32
340.217	13.65
340.429	34.13
340.641	48.47
340.854	9.56
341.066	-41.64
341.278	79.19
341.491	13.65
341.703	95.57
341.915	5.46
342.128	95.57
342.34	83.28
342.552	-2.73
342.764	64.85
342.977	48.47
343.189	23.89
343.401	54.61
343.613	13.65
343.826	40.28
344.038	48.47
344.25	54.61
344.462	34.13
344.674	46.42
344.886	15.7
345.099	-10.92
345.311	11.61
345.523	-15.02
345.735	-21.16
345.947	5.46
346.159	95.57
346.371	-10.92
346.583	-10.92
346.795	73.04
347.007	23.89
347.219	81.24
347.431	-55.98
347.643	87.38
347.855	-23.21
348.067	83.28
348.279	-49.83
348.491	62.8
348.703	46.42
348.915	81.24
349.127	-8.87
349.339	25.94
349.551	58.71
349.763	30.04
349.975	-25.26
350.187	7.51
350.399	34.13
350.61	23.89
350.822	-31.4
351.034	32.08
351.246	-10.92
351.458	13.65
351.669	-2.73
351.881	71
352.093	48.47
352.305	48.47
352.517	1.37
352.728	83.28
352.94	30.04
353.152	5.46
353.363	-15.02
353.575	46.42
353.787	25.94
353.999	23.89
354.21	87.38
354.422	-23.21
354.633	-8.87
354.845	-60.07
355.057	-0.68
355.268	17.75
355.48	58.71
355.692	-17.07
355.903	17.75
356.115	56.66
356.326	-35.5
356.538	64.85
356.749	56.66
356.961	103.76
357.172	-8.87
357.384	-8.87
357.595	60.76
357.807	-10.92
358.018	56.66
358.23	5.46
358.441	23.89
358.653	87.38
358.864	1.37
359.075	46.42
359.287	11.61
359.498	-6.83
359.709	-8.87
359.921	32.08
360.132	-19.11
360.344	-47.79
360.555	87.38
360.766	62.8
360.977	21.85
361.189	111.96
361.4	-25.26
361.611	-8.87
361.823	58.71
362.034	89.43
362.245	-43.69
362.456	103.76
362.667	-19.11
362.879	-17.07
363.09	32.08
363.301	5.46
363.512	-88.75
363.723	-35.5
363.935	30.04
364.146	54.61
364.357	-6.83
364.568	23.89
364.779	1.37
364.99	120.15
365.201	-55.98
365.412	81.24
365.623	7.51
365.834	56.66
366.045	19.8
366.256	46.42
366.467	54.61
366.678	99.67
366.889	34.13
367.1	-2.73
367.311	-8.87
367.522	-27.31
367.733	54.61
367.944	38.23
368.155	-4.78
368.366	5.46
368.577	7.51
368.788	21.85
368.999	-49.83
369.209	62.8
369.42	120.15
369.631	116.05
369.842	42.32
370.053	-17.07
370.264	-10.92
370.474	-23.21
370.685	7.51
370.896	36.18
371.107	27.99
371.317	75.09
371.528	54.61
371.739	50.52
371.95	87.38
372.16	48.47
372.371	62.8
372.582	13.65
372.792	-23.21
373.003	46.42
373.214	105.81
373.424	111.96
373.635	-76.46
373.846	48.47
374.056	71
374.267	-2.73
374.477	-23.21
374.688	75.09
374.898	52.56
375.109	5.46
375.319	60.76
375.53	-31.4
375.74	71
375.951	-21.16
376.161	62.8
376.372	79.19
376.582	-8.87
376.793	71
377.003	114
377.214	7.51
377.424	32.08
377.635	21.85
377.845	-6.83
378.055	-12.97
378.266	-2.73
378.476	54.61
378.686	-35.5
378.897	44.37
379.107	-23.21
379.317	23.89
379.528	-58.03
379.738	15.7
379.948	-10.92
380.158	62.8
380.369	23.89
380.579	77.14
380.789	-35.5
380.999	75.09
381.21	-10.92
381.42	114
381.63	-4.78
381.84	30.04
382.05	54.61
382.261	128.34
382.471	46.42
382.681	36.18
382.891	81.24
383.101	42.32
383.311	34.13
383.521	5.46
383.731	71
383.941	13.65
384.151	71
384.361	23.89
384.571	-15.02
384.781	71
384.991	95.57
385.201	9.56
385.411	111.96
385.621	-19.11
385.831	-39.59
386.041	56.66
386.251	17.75
386.461	48.47
386.671	-51.88
386.881	42.32
387.091	15.7
387.301	-10.92
387.511	58.71
387.72	95.57
387.93	-19.11
388.14	44.37
388.35	-31.4
388.56	83.28
388.769	23.89
388.979	-12.97
389.189	60.76
389.399	54.61
389.609	120.15
389.818	56.66
390.028	-25.26
390.238	85.33
390.447	64.85
390.657	-19.11
390.867	21.85
391.076	-70.31
391.286	30.04
391.496	5.46
391.705	48.47
391.915	-2.73
392.125	-2.73
392.334	17.75
392.544	64.85
392.753	101.72
392.963	-25.26
393.172	15.7
393.382	40.28
393.591	95.57
393.801	40.28
394.01	79.19
394.22	83.28
394.429	91.48
394.639	58.71
394.848	87.38
395.058	50.52
395.267	30.04
395.477	58.71
395.686	144.72
395.895	71
396.105	132.44
396.314	114
396.524	66.9
396.733	68.95
396.942	140.63
397.152	111.96
397.361	13.65
397.57	87.38
397.78	154.96
397.989	105.81
398.198	177.49
398.407	54.61
398.617	52.56
398.826	1.37
399.035	122.2
399.244	91.48
399.453	54.61
399.663	79.19
399.872	157.01
400.081	66.9
400.29	56.66
400.499	21.85
400.708	132.44
400.917	17.75
401.127	122.2
401.336	77.14
401.545	154.96
401.754	30.04
401.963	124.24
402.172	93.52
402.381	79.19
402.59	91.48
402.799	111.96
403.008	140.63
403.217	103.76
403.426	99.67
403.635	120.15
403.844	146.77
404.053	128.34
404.262	157.01
404.471	134.48
404.68	138.58
404.888	111.96
405.097	95.57
405.306	138.58
405.515	173.39
405.724	157.01
405.933	107.86
406.142	128.34
406.35	214.35
406.559	89.43
406.768	202.07
406.977	222.55
407.185	161.11
407.394	210.26
407.603	140.63
407.812	138.58
408.02	249.17
408.229	218.45
408.438	173.39
408.646	161.11
408.855	185.68
409.064	202.07
409.272	288.08
409.481	224.59
409.69	216.4
409.898	243.03
410.107	263.51
410.315	310.61
410.524	308.56
410.733	343.38
410.941	261.46
411.15	316.75
411.358	384.34
411.567	345.42
411.775	425.29
411.984	390.48
412.192	322.9
412.401	357.71
412.609	449.87
412.818	406.86
413.026	396.62
413.234	390.48
413.443	529.74
413.651	449.87
413.86	447.82
414.068	517.45
414.276	564.56
414.485	554.32
414.693	578.89
414.901	611.66
415.11	630.09
415.318	693.58
415.526	738.63
415.734	769.35
415.943	707.91
416.151	707.91
416.359	730.44
416.567	830.79
416.776	800.07
416.984	853.32
417.192	922.95
417.4	933.19
417.608	820.55
417.817	875.85
418.025	959.81
418.233	1094.98
418.441	1025.35
418.649	1090.88
418.857	1135.94
419.065	1193.28
419.273	1076.55
419.481	1221.95
419.689	1260.87
419.897	1322.31
420.105	1310.02
420.313	1418.56
420.521	1473.85
420.729	1525.05
420.937	1449.28
421.145	1494.33
421.353	1652.03
421.561	1717.56
421.769	1836.35
421.977	1828.15
422.185	1918.26
422.393	1989.94
422.601	2014.52
422.809	2028.85
423.017	2108.73
423.224	2192.69
423.432	2325.81
423.64	2202.93
423.848	2467.12
424.056	2350.39
424.263	2467.12
424.471	2503.98
424.679	2614.57
424.887	2704.68
425.094	2889
425.302	2874.67
425.51	3028.26
425.718	3095.85
425.925	3118.37
426.133	3101.99
426.341	3374.37
426.548	3538.21
426.756	3585.31
426.964	3521.82
427.171	3685.66
427.379	3808.54
427.586	3777.82
427.794	4003.1
428.001	4158.74
428.209	4396.31
428.417	4318.48
428.624	4650.25
428.832	4615.44
429.039	4707.6
429.247	4586.77
429.454	5053.7
429.662	5229.83
429.869	4979.98
430.076	5328.13
430.284	5281.03
430.491	5512.45
430.699	5829.88
430.906	5903.61
431.114	5856.51
431.321	6077.69
431.528	6178.04
431.736	6534.39
431.943	6939.88
432.15	6626.54
432.358	6847.72
432.565	7202.02
432.772	7224.55
432.979	7576.8
433.187	7580.9
433.394	7791.84
433.601	8178.9
433.808	8283.35
434.016	8168.66
434.223	8510.68
434.43	9116.87
434.637	8783.06
434.844	9327.82
435.052	9712.83
435.259	9231.56
435.466	9579.72
435.673	9508.04
435.88	10044.6
436.087	10609.84
436.294	10572.98
436.501	10296.5
436.708	10552.5
436.915	10863.79
437.122	11363.5
437.329	11353.26
437.537	11738.27
437.743	11949.22
437.95	11904.16
438.157	12334.23
438.364	12971.15
438.571	12942.48
438.778	12866.7
438.985	14122.11
439.192	13585.54
439.399	13937.79
439.606	13530.25
439.813	14294.14
440.02	15234.16
440.227	15051.89
440.433	14709.88
440.64	15369.32
440.847	15606.89
441.054	15572.07
441.261	16778.33
441.467	16438.36
441.674	16809.04
441.881	17230.93
442.088	17267.79
442.294	17044.56
442.501	17646.66
442.708	18054.21
442.914	18689.08
443.121	19430.44
443.328	18881.59
443.534	20331.55
443.741	19475.5
443.948	19469.36
444.154	20945.94
444.361	20452.38
444.568	20749.34
444.774	20517.92
444.981	21003.28
445.187	21902.34
445.394	22375.42
445.6	22404.1
445.807	24312.8
446.013	23501.81
446.22	23825.39
446.426	24693.72
446.633	24931.29
446.839	26074.06
447.046	24417.25
447.252	26311.62
447.459	26395.59
447.665	25932.75
447.871	26911.67
448.078	28261.29
448.284	27073.46
448.491	27671.47
448.697	28545.95
448.903	29182.87
449.11	29301.65
449.316	28928.92
449.522	29313.94
449.728	30063.5
449.935	30413.7
450.141	30346.12
450.347	30987.13
450.553	29944.72
450.76	30888.83
450.966	31925.1
451.172	31312.76
451.378	32150.38
451.584	31015.8
451.791	32093.04
451.997	32027.5
452.203	32590.69
452.409	32992.09
452.615	32344.94
452.821	31302.52
453.027	30927.74
453.233	32668.51
453.44	31396.73
453.646	31673.2
453.852	32015.21
454.058	32346.98
454.264	31282.04
454.47	32269.16
454.676	31247.22
454.882	32330.6
455.088	29567.89
455.294	30180.23
455.5	30714.75
455.705	30436.23
455.911	29533.07
456.117	28861.34
456.323	28382.12
456.529	27089.85
456.735	28197.8
456.941	27833.26
457.147	27292.6
457.352	26360.77
457.558	26170.31
457.764	26375.11
457.97	25803.72
458.176	25375.7
458.381	25457.62
458.587	24007.65
458.793	24065
458.999	22686.72
459.204	24400.86
459.41	23628.78
459.616	22078.47
459.821	22332.42
460.027	22160.39
460.233	21548.04
460.438	20634.65
460.644	20960.28
460.85	19946.53
461.055	19473.45
461.261	19641.39
461.466	18156.61
461.672	17491.02
461.878	18789.43
462.083	17591.37
462.289	17298.51
462.494	17163.34
462.7	16256.09
462.905	15846.5
463.111	16532.57
463.316	16417.88
463.522	16028.77
463.727	16426.07
463.932	16311.39
464.138	15848.55
464.343	16270.43
464.549	15531.11
464.754	15922.27
464.959	15834.21
465.165	15737.96
465.37	15357.03
465.575	14705.78
465.781	15606.89
465.986	15375.47
466.191	14673.01
466.397	14840.95
466.602	13958.27
466.807	14158.97
467.012	14398.59
467.218	14419.07
467.423	14103.68
467.628	14326.91
467.833	14769.27
468.038	14298.24
468.244	14052.48
468.449	14316.67
468.654	13794.43
468.859	13880.45
469.064	14054.53
469.269	13212.81
469.474	13202.57
469.679	13646.98
469.885	13173.9
470.09	13370.51
470.295	13284.49
470.5	12792.98
470.705	13014.16
470.91	12977.3
471.115	12666
471.32	12528.79
471.525	12838.03
471.73	12547.22
471.935	12334.23
472.139	11840.67
472.344	12086.43
472.549	12037.28
472.754	11736.23
472.959	11773.09
473.164	11297.96
473.369	11211.95
473.574	11500.71
473.778	11431.08
473.983	11392.17
474.188	11349.16
474.393	10880.18
474.598	10925.23
474.802	10949.81
475.007	10753.2
475.212	10921.13
475.417	10316.98
475.621	10536.12
475.826	10486.97
476.031	10321.08
476.235	10181.82
476.44	10106.04
476.645	9909.44
476.849	10165.43
477.054	10044.6
477.259	9794.75
477.463	9850.05
477.668	9559.24
477.872	9725.12
478.077	9514.18
478.282	9301.19
478.486	9147.59
478.691	9129.16
478.895	9262.28
479.1	8887.5
479.304	8819.92
479.509	8535.25
479.713	9024.72
479.918	8879.31
480.122	8486.1
480.326	8819.92
480.531	8697.04
480.735	8639.7
480.94	8467.67
481.144	8942.8
481.348	8289.49
481.553	8465.62
481.757	8328.41
481.961	8402.13
482.166	8500.44
482.37	8369.37
482.574	8230.1
482.778	8273.11
482.983	8426.71
483.187	8326.36
483.391	8510.68
483.595	8277.21
483.8	8312.02
484.004	8275.16
484.208	8502.48
484.412	8406.23
484.616	8539.35
484.821	8455.38
485.025	8092.89
485.229	8309.97
485.433	8559.83
485.637	8264.92
485.841	8309.97
486.045	8385.75
486.249	8336.6
486.453	8312.02
486.657	8312.02
486.861	8348.89
487.065	8049.88
487.269	8283.35
487.473	8125.66
487.677	8606.93
487.881	8600.79
488.085	8365.27
488.289	8561.87
488.493	8223.96
488.697	8467.67
488.901	8256.73
489.105	8334.55
489.309	8232.15
489.512	8459.48
489.716	8426.71
489.92	8469.72
490.124	8518.87
490.328	8621.27
490.531	8484.05
490.735	8488.15
490.939	8322.26
491.143	8459.48
491.346	8447.19
491.55	8824.01
491.754	8598.74
491.958	8731.86
492.161	8584.4
492.365	8701.14
492.569	8715.47
492.772	8625.36
492.976	8961.23
493.18	8895.69
493.383	9092.3
493.587	8926.41
493.79	9092.3
493.994	9016.52
494.197	9223.37
494.401	9321.67
494.605	9329.86
494.808	9614.53
495.012	9436.36
495.215	9542.85
495.419	9409.73
495.622	9575.62
495.825	9577.67
496.029	9665.73
496.232	9741.5
496.436	9774.27
496.639	9936.06
496.843	9950.4
497.046	10106.04
497.249	10364.09
497.453	10521.78
497.656	10339.51
497.859	10572.98
498.063	10534.07
498.266	10900.65
498.469	10669.23
498.673	10990.77
498.876	10826.93
499.079	11248.81
499.282	11123.88
499.485	11566.24
499.689	11572.39
499.892	11699.36
500.095	11588.77
500.298	11941.02
500.501	11793.57
500.705	12160.16
500.908	12389.53
501.111	12260.51
501.314	12571.8
501.517	12516.5
501.72	12956.82
501.923	12731.54
502.126	12989.58
502.329	13341.83
502.532	13403.27
502.735	13526.15
502.938	13843.59
503.141	13804.67
503.344	14042.24
503.547	13956.22
503.75	14181.5
503.953	14466.17
504.156	14689.4
504.359	14584.95
504.562	14840.95
504.765	14920.82
504.968	15031.41
505.17	15287.4
505.373	15283.31
505.576	15533.16
505.779	15666.28
505.982	15717.48
506.185	15971.43
506.387	16299.1
506.59	16460.89
506.793	16714.84
506.996	16591.96
507.198	17163.34
507.401	16874.58
507.604	17040.47
507.807	17515.59
508.009	17837.13
508.212	17800.26
508.415	18070.59
508.617	18265.15
508.82	18324.54
509.022	18113.6
509.225	18560.06
509.428	18869.3
509.63	19127.35
509.833	19020.85
510.035	19467.31
510.238	19428.4
510.44	19735.59
510.643	20161.57
510.845	20366.37
511.048	20046.88
511.25	20479
511.453	20646.94
511.655	21523.47
511.858	21099.54
512.06	21083.16
512.262	21468.17
512.465	21361.68
512.667	21888.01
512.87	22098.95
513.072	22113.28
513.274	22428.67
513.477	22678.52
513.679	22791.16
513.881	23290.87
514.084	23573.49
514.286	23466.99
514.488	23499.76
514.69	24337.38
514.893	24146.92
515.095	24433.63
515.297	24810.46
515.499	25050.07
515.701	24871.9
515.904	25304.02
516.106	25238.48
516.308	25629.65
516.51	25580.49
516.712	25672.65
516.914	26381.25
517.116	26973.11
517.318	26794.94
517.52	26868.67
517.722	27050.94
517.925	27225.01
518.127	27954.09
518.329	28052.39
518.531	27513.78
518.733	28314.53
518.935	28568.48
519.136	28687.26
519.338	29131.67
519.54	28928.92
519.742	29412.24
519.944	29801.36
520.146	29907.85
520.348	30000.01
520.55	30264.2
520.752	30407.56
520.954	30546.82
521.155	30950.27
521.357	30851.97
521.559	31361.91
521.761	32047.98
521.963	31648.63
522.164	31941.49
522.366	32408.42
522.568	32557.92
522.77	32289.64
522.971	33104.73
523.173	32811.87
523.375	33211.23
523.576	33094.49
523.778	33035.1
523.98	33704.79
524.181	33856.34
524.383	34042.7
524.584	34302.79
524.786	34333.51
524.988	33973.07
525.189	34677.57
525.391	34872.13
525.592	34884.42
525.794	35042.11
525.995	35105.6
526.197	35201.85
526.398	35593.01
526.6	35910.45
526.801	35668.79
527.003	35836.72
527.204	36025.14
527.406	35701.56
527.607	36174.64
527.808	36231.98
528.01	35828.53
528.211	36309.8
528.412	37036.83
528.614	36850.47
528.815	36727.59
529.016	36780.84
529.218	36660.01
529.419	36909.86
529.62	36885.28
529.822	36946.72
530.023	36815.65
530.224	37067.55
530.425	37038.88
530.626	37272.35
530.828	36670.25
531.029	37767.96
531.23	37309.21
531.431	37284.64
531.632	37395.23
531.833	37759.77
532.035	37370.65
532.236	37554.97
532.437	37813.01
532.638	37380.89
532.839	37772.05
533.04	38259.47
533.241	37493.53
533.442	38497.03
533.643	38030.1
533.844	37903.12
534.045	37645.08
534.246	37493.53
534.447	37823.25
534.648	38243.09
534.849	38136.59
535.05	37704.47
535.251	38017.81
535.451	37655.32
535.652	37946.13
535.853	38210.32
536.054	38042.38
536.255	37874.45
536.456	37624.6
536.657	37948.18
536.857	37845.78
537.058	37741.33
537.259	38124.3
537.46	37985.04
537.66	38089.49
537.861	37864.21
538.062	37413.66
538.263	38458.12
538.463	37937.94
538.664	37471
538.865	37640.98
539.065	38155.02
539.266	37819.16
539.466	38363.92
539.667	37536.54
539.868	38335.24
540.068	37925.65
540.269	37653.27
540.469	37929.75
540.67	37581.59
540.87	37827.35
541.071	37706.52
541.271	38028.05
541.472	37970.71
541.672	37534.49
541.873	37233.44
542.073	37006.11
542.274	37856.02
542.474	37679.89
542.675	37458.71
542.875	37860.12
543.075	37798.68
543.276	37462.81
543.476	37716.76
543.676	37647.13
543.877	37722.9
544.077	37729.05
544.277	37571.35
544.478	37565.21
544.678	37362.46
544.878	37540.63
545.078	37374.75
545.279	37356.32
545.479	37229.34
545.679	37495.58
545.879	37505.82
546.079	37479.19
546.28	37446.43
546.48	37356.32
546.68	37434.14
546.88	37362.46
547.08	37389.08
547.28	37657.37
547.48	37024.54
547.68	37466.91
547.88	37010.21
548.081	37536.54
548.281	37249.82
548.481	37358.36
548.681	37739.29
548.881	37393.18
549.081	37262.11
549.28	37389.08
549.48	37268.25
549.68	37530.39
549.88	37415.71
550.08	37358.36
550.28	37481.24
550.48	37186.33
550.68	37307.16
550.88	37270.3
551.08	36961.06
551.279	37415.71
551.479	36922.15
551.679	37139.23
551.879	36977.44
552.079	37253.92
552.278	37028.64
552.478	36717.35
552.678	37020.45
552.878	37538.58
553.077	37077.79
553.277	36807.46
553.477	37159.71
553.676	36997.92
553.876	36922.15
554.076	36678.44
554.275	36748.07
554.475	36694.82
554.674	36911.91
554.874	36799.27
555.074	36795.17
555.273	36713.25
555.473	36662.05
555.672	36969.25
555.872	37006.11
556.071	36584.23
556.271	36600.61
556.47	36332.33
556.67	36332.33
556.869	36631.33
557.068	36440.87
557.268	35824.43
557.467	36326.19
557.667	35941.17
557.866	36481.83
558.065	36150.06
558.265	36004.66
558.464	35857.2
558.663	36520.74
558.863	35672.88
559.062	36072.24
559.261	36100.91
559.461	36105.01
559.66	35380.03
559.859	35861.3
560.058	35625.78
560.258	35650.36
560.457	35816.24
560.656	35644.21
560.855	35617.59
561.054	35554.1
561.253	35617.59
561.453	35463.99
561.652	35744.56
561.851	35689.27
562.05	35183.42
562.249	35316.54
562.448	35222.33
562.647	35169.08
562.846	34827.07
563.045	35105.6
563.244	34808.64
563.443	35418.94
563.642	34714.44
563.841	34605.89
564.04	34736.96
564.239	35040.06
564.438	34796.35
564.637	34743.11
564.836	34513.73
565.035	34227.02
565.234	34190.16
565.432	34777.92
565.631	34204.49
565.83	34173.77
566.029	33958.74
566.228	34093.9
566.427	34370.38
566.625	34007.89
566.824	33581.91
567.023	34261.83
567.222	33131.36
567.42	34057.04
567.619	33569.62
567.818	33602.39
568.016	33649.49
568.215	33758.03
568.414	33336.15
568.612	33678.16
568.811	33041.25
569.01	33358.68
569.208	32844.64
569.407	33151.84
569.605	32719.71
569.804	33233.75
570.002	32455.53
570.201	33057.63
570.4	32750.43
570.598	32385.9
570.797	32512.87
570.995	32453.48
571.193	32301.93
571.392	32220.01
571.59	32205.67
571.789	32129.9
571.987	31880.05
572.186	32107.37
572.384	31802.22
572.582	32496.49
572.781	32097.13
572.979	31624.05
573.177	31531.89
573.376	31916.91
573.574	31601.52
573.772	31761.26
573.971	31409.01
574.169	31091.58
574.367	31343.48
574.565	31497.08
574.763	31249.27
574.962	31058.81
575.16	30987.13
575.358	31124.35
575.556	30897.02
575.754	31015.8
575.952	30464.9
576.151	30925.69
576.349	30428.04
576.547	30342.02
576.745	30577.54
576.943	30331.78
577.141	30335.88
577.339	30475.14
577.537	29365.14
577.735	29950.86
577.933	29739.92
578.131	30024.59
578.329	29717.39
578.527	29664.14
578.725	29868.94
578.923	29715.34
579.121	29522.83
579.319	29320.09
579.516	29309.85
579.714	29440.92
579.912	28902.3
580.11	28988.31
580.308	29084.57
580.506	29285.27
580.704	28926.88
580.901	28912.54
581.099	29006.75
581.297	28758.94
581.495	28740.51
581.692	28593.06
581.89	28683.17
582.088	28935.07
582.285	28251.05
582.483	28609.44
582.681	28181.42
582.878	28427.17
583.076	27784.11
583.274	28214.18
583.471	27700.14
583.669	28242.85
583.866	27767.73
584.064	28017.58
584.262	27450.29
584.459	27997.1
584.657	27487.15
584.854	27556.78
585.052	27265.97
585.249	27370.42
585.447	27358.13
585.644	27124.66
585.841	27372.47
586.039	27222.97
586.236	26966.97
586.434	26923.96
586.631	26686.4
586.828	26991.55
587.026	26579.9
587.223	26678.21
587.42	26543.04
587.618	26631.1
587.815	26405.83
588.012	26487.75
588.21	26143.69
588.407	26366.91
588.604	26168.26
588.801	26110.92
588.999	26121.16
589.196	25869.26
589.393	25949.13
589.59	25613.26
589.787	25678.8
589.984	25553.87
590.182	25377.75
590.379	25492.43
590.576	25496.53
590.773	25527.25
590.97	25236.44
591.167	25369.55
591.364	24947.67
591.561	25220.05
591.758	25015.26
591.955	24953.82
592.152	25086.93
592.349	24697.82
592.546	24859.61
592.743	24681.44
592.94	24398.82
593.137	24445.92
593.334	24755.16
593.531	24368.1
593.727	24167.4
593.924	24519.65
594.121	24054.76
594.318	24298.47
594.515	24075.24
594.712	24419.3
594.908	23895.02
595.105	23956.46
595.302	23591.92
595.499	23731.18
595.696	23772.14
595.892	23608.3
596.089	23444.46
596.286	23452.66
596.482	23172.08
596.679	23323.63
596.876	23372.78
597.072	23411.7
597.269	23276.53
597.466	23264.24
597.662	23032.82
597.859	22871.03
598.055	22879.22
598.252	22709.24
598.448	22645.76
598.645	22621.18
598.841	22696.95
599.038	22596.6
599.234	22467.58
599.431	22379.52
599.627	21937.16
599.824	22350.85
600.02	22193.15
600.217	22137.86
600.413	21904.39
600.609	21734.41
600.806	21574.67
601.002	21988.36
601.198	21922.82
601.395	21824.52
601.591	21558.28
601.787	21806.09
601.984	21398.54
602.18	21414.93
602.376	21439.5
602.572	21160.98
602.769	21218.32
602.965	21419.02
603.161	21195.79
603.357	20888.6
603.553	20849.69
603.75	20835.35
603.946	20782.1
604.142	21054.48
604.338	20755.48
604.534	20798.49
604.73	20419.61
604.926	20378.65
605.122	20399.13
605.318	20220.96
605.514	20331.55
605.71	20059.17
605.906	20044.84
606.102	19938.34
606.298	19850.28
606.494	19889.19
606.69	20132.9
606.886	20313.12
607.082	19610.67
607.278	20100.13
607.474	19649.58
607.67	19872.81
607.866	19698.73
608.062	19723.3
608.257	19768.36
608.453	19561.51
608.649	19612.71
608.845	19326
609.041	19557.42
609.236	19420.2
609.432	19409.97
609.628	19356.72
609.824	19147.83
610.019	19045.43
610.215	19278.9
610.411	19491.88
610.606	18869.3
610.802	19158.06
610.998	18857.01
611.193	19098.67
611.389	19051.57
611.584	18859.06
611.78	18908.21
611.976	18768.95
612.171	18908.21
612.367	18981.94
612.562	18764.85
612.758	18650.17
612.953	18709.56
613.149	18641.98
613.344	18672.7
613.539	18891.83
613.735	18596.92
613.93	18644.02
614.126	18463.8
614.321	18420.8
614.517	18154.56
614.712	18406.46
614.907	18267.2
615.103	18353.21
615.298	18162.75
615.493	18592.83
615.688	18234.43
615.884	18629.69
616.079	17691.72
616.274	18242.62
616.47	18064.45
616.665	18289.73
616.86	18023.49
617.055	17917
617.25	17642.57
617.445	17796.17
617.641	17513.55
617.836	17634.38
618.031	17716.29
618.226	17671.24
618.421	17423.44
618.616	17769.54
618.811	17359.95
619.006	17601.61
619.201	17368.14
619.396	17413.2
619.591	16895.06
619.786	17200.21
619.981	16712.79
620.176	17130.58
620.371	16614.49
620.566	16856.15
620.761	16819.28
620.956	16946.26
621.151	16383.07
621.346	16512.09
621.541	16444.51
621.735	16704.6
621.93	16057.44
622.125	16110.69
622.32	16073.82
622.515	16112.74
622.709	16106.59
622.904	15783.01
623.099	15803.49
623.294	15864.93
623.488	15522.92
623.683	15467.63
623.878	15529.06
624.072	15477.87
624.267	15606.89
624.462	15303.79
624.656	15086.7
624.851	15158.38
625.046	14906.48
625.24	15121.52
625.435	14808.18
625.629	14720.12
625.824	14703.73
626.018	14748.79
626.213	14486.65
626.407	14476.41
626.602	14417.02
626.796	14353.53
626.991	14328.95
627.185	14261.37
627.38	14165.12
627.574	14134.4
627.768	14001.28
627.963	14040.19
628.157	13843.59
628.352	13943.94
628.546	13474.95
628.74	13679.75
628.935	13487.24
629.129	13628.55
629.323	13483.14
629.517	13368.46
629.712	13145.23
629.906	13124.75
630.1	12928.14
630.294	13024.4
630.489	13014.16
630.683	13046.93
630.877	12717.2
631.071	12713.11
631.265	12713.11
631.459	12592.28
631.653	12635.28
631.848	12504.21
632.042	12246.17
632.236	12330.14
632.43	12332.19
632.624	12360.86
632.818	12102.81
633.012	11904.16
633.206	12074.14
633.4	11967.65
633.594	11592.87
633.788	12059.81
633.982	11865.25
634.176	11900.06
634.369	11588.77
634.563	11789.47
634.757	11572.39
634.951	11453.61
635.145	11439.27
635.339	11424.93
635.533	11435.17
635.726	11433.13
635.92	11175.08
636.114	11099.31
636.308	11185.32
636.501	11308.2
636.695	10923.18
636.889	10820.78
637.083	10867.89
637.276	10818.74
637.47	10761.39
637.664	10771.63
637.857	10710.19
638.051	10575.03
638.244	10749.11
638.438	10396.85
638.632	10382.52
638.825	9995.45
639.019	10413.24
639.212	10151.1
639.406	10249.4
639.599	10120.38
639.793	10083.52
639.986	10081.47
640.18	9942.21
640.373	9827.52
640.567	9917.63
640.76	9729.22
640.954	9954.49
641.147	9721.02
641.34	9462.98
641.534	9671.87
641.727	9544.9
641.92	9354.44
642.114	9655.49
642.307	9571.52
642.5	9465.03
642.694	9102.54
642.887	9233.61
643.08	9235.66
643.273	9147.59
643.467	9108.68
643.66	9018.57
643.853	8973.52
644.046	8772.82
644.239	8885.45
644.432	8912.08
644.626	8725.71
644.819	8713.42
645.012	8658.13
645.205	8729.81
645.398	8688.85
645.591	8418.52
645.784	8543.44
645.977	8471.76
646.17	8418.52
646.363	8281.3
646.556	8340.69
646.749	8377.56
646.942	8324.31
647.135	8115.42
647.328	8307.93
647.521	8226.01
647.714	8060.12
647.907	8008.92
648.099	7830.75
648.292	8137.95
648.485	7922.91
648.678	8041.69
648.871	7949.53
649.064	7849.18
649.256	7709.92
649.449	7566.56
649.642	7574.75
649.835	7552.23
650.027	7554.27
650.22	7488.74
650.413	7599.33
650.605	7533.79
650.798	7511.27
650.991	7226.6
651.183	7304.42
651.376	7292.13
651.568	7183.59
651.761	7081.19
651.954	7349.48
652.146	6968.56
652.339	7212.26
652.531	7107.82
652.724	7054.57
652.916	6706.41
653.109	6933.74
653.301	6857.96
653.494	7005.42
653.686	6831.34
653.879	6937.84
654.071	6829.29
654.263	6712.56
654.456	6853.87
654.648	6776.05
654.84	6718.7
655.033	6595.82
655.225	6530.29
655.417	6327.54
655.61	6499.57
655.802	6604.02
655.994	6329.59
656.186	6370.55
656.379	6362.36
656.571	6288.63
656.763	6292.73
656.955	6139.13
657.148	6184.18
657.34	6268.15
657.532	6149.37
657.724	6104.31
657.916	6067.45
658.108	6079.74
658.3	6137.08
658.492	5963
658.684	5903.61
658.876	5866.75
659.068	5897.47
659.26	5907.71
659.452	5870.84
659.644	5715.2
659.836	5807.36
660.028	5797.12
660.22	5674.24
660.412	5653.76
660.604	5534.98
660.796	5657.85
660.988	5639.42
661.18	5487.87
661.372	5395.72
661.563	5577.98
661.755	5502.21
661.947	5326.08
662.139	5346.56
662.331	5354.76
662.522	5317.89
662.714	5338.37
662.906	5211.4
663.097	5305.6
663.289	5285.12
663.481	5207.3
663.673	5346.56
663.864	5178.63
664.056	5203.21
664.247	5076.23
664.439	4979.98
664.631	5057.8
664.822	4924.68
665.014	4953.35
665.205	4850.96
665.397	4875.53
665.588	4994.31
665.78	4756.75
665.971	4902.15
666.163	4885.77
666.354	4717.84
666.546	4762.89
666.737	4773.13
666.929	4801.8
667.12	4695.31
667.311	4810
667.503	4828.43
667.694	4744.46
667.885	4668.69
668.077	4734.22
668.268	4633.87
668.459	4551.95
668.651	4463.89
668.842	4486.42
669.033	4461.84
669.224	4424.98
669.416	4392.21
669.607	4554
669.798	4463.89
669.989	4304.15
670.18	4338.96
670.371	4259.09
670.563	4347.15
670.754	4265.24
670.945	4261.14
671.136	4230.42
671.327	4154.65
671.518	4132.12
671.709	4191.51
671.9	4314.39
672.091	4166.93
672.282	4109.59
672.473	4111.64
672.664	4218.13
672.855	4160.79
673.046	4001.05
673.237	4089.11
673.428	4031.77
673.619	4107.54
673.809	4029.72
674	4001.05
674.191	3972.38
674.382	3955.99
674.573	4011.29
674.764	3874.07
674.954	3972.38
675.145	3888.41
675.336	3831.07
675.527	3843.35
675.717	3876.12
675.908	3743
676.099	3773.72
676.289	3683.61
676.48	3826.97
676.671	3888.41
676.861	3673.37
677.052	3781.92
677.243	3798.3
677.433	3661.09
677.624	3745.05
677.814	3544.35
678.005	3632.41
678.195	3661.09
678.386	3626.27
678.576	3740.96
678.767	3556.64
678.957	3708.19
679.148	3667.23
679.338	3640.61
679.529	3495.2
679.719	3626.27
679.909	3570.97
680.1	3630.37
680.29	3581.21
680.481	3511.58
680.671	3618.08
680.861	3493.15
681.052	3536.16
681.242	3532.06
681.432	3538.21
681.622	3478.82
681.813	3458.34
682.003	3495.2
682.193	3407.14
682.383	3421.47
682.573	3439.9
682.764	3290.4
682.954	3417.38
683.144	3407.14
683.334	3317.03
683.524	3405.09
683.714	3284.26
683.904	3208.48
684.094	3269.92
684.284	3333.41
684.474	3394.85
684.664	3224.87
684.854	3251.49
685.044	3286.31
685.234	3173.67
685.424	3220.77
685.614	3183.91
685.804	3179.81
685.994	3245.35
686.184	3192.1
686.374	3179.81
686.564	3235.11
686.753	3079.46
686.943	3097.89
687.133	3106.09
687.323	3138.85
687.513	3036.45
687.702	3149.09
687.892	2962.73
688.082	2972.97
688.272	3046.69
688.461	3093.8
688.651	3136.81
688.841	2932.01
689.03	3011.88
689.22	2868.52
689.41	2901.29
689.599	2907.43
689.789	3020.07
689.979	2987.3
690.168	2913.58
690.358	2878.76
690.547	2864.43
690.737	2807.08
690.926	2823.47
691.116	2759.98
691.305	2907.43
691.495	2850.09
691.684	2893.1
691.874	2747.69
692.063	2684.2
692.252	2759.98
692.442	2766.12
692.631	2590
692.82	2749.74
693.01	2698.54
693.199	2780.46
693.388	2602.29
693.578	2704.68
693.767	2776.36
693.956	2673.96
694.146	2596.14
694.335	2708.78
694.524	2555.18
694.713	2483.5
694.902	2512.18
695.092	2667.82
695.281	2610.48
695.47	2510.13
695.659	2528.56
695.848	2463.02
696.037	2495.79
696.226	2583.85
696.415	2512.18
696.604	2520.37
696.793	2512.18
696.982	2514.22
697.171	2512.18
697.36	2536.75
697.549	2440.5
697.738	2503.98
697.927	2463.02
698.116	2432.3
698.305	2424.11
698.494	2430.26
698.683	2616.62
698.872	2479.41
699.061	2422.06
699.25	2383.15
699.438	2426.16
699.627	2448.69
699.816	2587.95
700.005	2315.57
700.193	2340.15
700.382	2393.39
700.571	2370.87
700.76	2299.19
700.948	2360.63
701.137	2391.34
701.326	2288.95
701.514	2360.63
701.703	2483.5
701.892	2383.15
702.08	2503.98
702.269	2272.56
702.457	2182.45
702.646	2450.74
702.834	2342.19
703.023	2381.11
703.212	2282.8
703.4	2317.62
703.589	2340.15
703.777	2467.12
703.965	2268.47
704.154	2284.85
704.342	2381.11
704.531	2286.9
704.719	2209.08
704.907	2307.38
705.096	2223.41
705.284	2303.28
705.472	2233.65
705.661	2270.51
705.849	2293.04
706.037	2288.95
706.226	2227.51
706.414	2364.72
706.602	2252.08
706.79	2377.01
706.979	2180.4
707.167	2225.46
707.355	2243.89
707.543	2303.28
707.731	2247.99
707.919	2235.7
708.107	2186.55
708.296	2172.21
708.484	2274.61
708.672	2295.09
708.86	2250.03
709.048	2127.16
709.236	2153.78
709.424	2225.46
709.612	2241.84
709.8	2192.69
709.988	2178.36
710.176	2276.66
710.364	2204.98
710.551	2327.86
710.739	2223.41
710.927	2078.01
711.115	2260.27
711.303	2209.08
711.491	2301.23
711.679	2237.75
711.866	2129.2
712.054	2262.32
712.242	2233.65
712.43	2147.64
712.617	2086.2
712.805	2286.9
712.993	2143.54
713.181	2143.54
713.368	2184.5
713.556	2200.88
713.744	2186.55
713.931	2272.56
714.119	2254.13
714.306	2256.18
714.494	2143.54
714.682	2188.6
714.869	2225.46
715.057	2118.97
715.244	2139.44
715.432	2176.31
715.619	2233.65
715.807	2178.36
715.994	2211.12
716.182	2262.32
716.369	2204.98
716.556	2217.27
716.744	2211.12
716.931	2168.12
717.119	2153.78
717.306	2227.51
717.493	2278.71
717.681	2276.66
717.868	2164.02
718.055	2078.01
718.242	2073.91
718.43	2241.84
718.617	2211.12
718.804	2266.42
718.991	2217.27
719.179	2172.21
719.366	2204.98
719.553	2149.68
719.74	2217.27
719.927	2225.46
720.114	2155.83
720.301	2166.07
720.488	2237.75
720.676	2055.48
720.863	2245.94
721.05	2145.59
721.237	2293.04
721.424	2317.62
721.611	2164.02
721.798	2118.97
721.985	2106.68
722.172	2151.73
722.358	2176.31
722.545	2180.4
722.732	2153.78
722.919	2157.88
723.106	2135.35
723.293	2241.84
723.48	2118.97
723.667	2071.86
723.853	2118.97
724.04	2127.16
724.227	2096.44
724.414	2094.39
724.6	2137.4
724.787	2118.97
724.974	2309.43
725.161	2114.87
725.347	2135.35
725.534	2168.12
725.72	2311.47
725.907	2170.16
726.094	2219.32
726.28	2172.21
726.467	2184.5
726.653	2153.78
726.84	2202.93
727.027	2200.88
727.213	2200.88
727.4	2153.78
727.586	2096.44
727.773	2227.51
727.959	2155.83
728.145	2217.27
728.332	2102.58
728.518	2200.88
728.705	2286.9
728.891	2190.64
729.077	2159.92
729.264	2143.54
729.45	2174.26
729.636	2215.22
729.823	2233.65
730.009	2315.57
730.195	2254.13
730.382	2153.78
730.568	2200.88
730.754	2217.27
730.94	2118.97
731.126	2268.47
731.313	2073.91
731.499	2168.12
731.685	2274.61
731.871	2133.3
732.057	2266.42
732.243	2194.74
732.429	2159.92
732.615	2243.89
732.801	2225.46
732.987	2221.36
733.173	2227.51
733.359	2159.92
733.545	2243.89
733.731	2143.54
733.917	2211.12
734.103	2143.54
734.289	2090.29
734.475	2172.21
734.661	2258.23
734.847	2200.88
735.033	2121.01
735.219	2080.05
735.404	2184.5
735.59	2170.16
735.776	2209.08
735.962	2166.07
736.148	2145.59
736.333	2184.5
736.519	2118.97
736.705	1973.56
736.89	2102.58
737.076	2106.68
737.262	2114.87
737.447	2043.19
737.633	2057.53
737.819	2028.85
738.004	2129.2
738.19	2131.25
738.375	2102.58
738.561	2106.68
738.747	1994.04
738.932	2024.76
739.118	2114.87
739.303	2055.48
739.489	2053.43
739.674	1991.99
739.859	1948.98
740.045	2080.05
740.23	2102.58
740.416	2073.91
740.601	2131.25
740.786	2045.24
740.972	2098.49
741.157	2053.43
741.342	2018.61
741.528	2069.81
741.713	2071.86
741.898	2045.24
742.084	1977.66
742.269	2002.23
742.454	1959.22
742.639	2010.42
742.824	1867.06
743.01	1912.12
743.195	2043.19
743.38	1987.89
743.565	1908.02
743.75	1905.98
743.935	1953.08
744.12	1996.09
744.305	1951.03
744.49	1867.06
744.675	1965.37
744.86	1897.78
745.045	1793.34
745.23	1774.91
745.415	1848.63
745.6	1922.36
745.785	1826.11
745.97	1828.15
746.155	1807.67
746.34	1869.11
746.525	1783.1
746.71	1846.59
746.895	1756.47
747.079	1742.14
747.264	1750.33
747.449	1824.06
747.634	1783.1
747.819	1822.01
748.003	1799.48
748.188	1846.59
748.373	1629.5
748.557	1717.56
748.742	1684.8
748.927	1735.99
749.111	1631.55
749.296	1725.75
749.481	1668.41
749.665	1725.75
749.85	1617.21
750.034	1703.23
750.219	1670.46
750.404	1594.68
750.588	1594.68
750.773	1563.97
750.957	1563.97
751.141	1555.77
751.326	1520.96
751.51	1457.47
751.695	1615.16
751.879	1520.96
752.064	1504.57
752.248	1553.73
752.432	1639.74
752.617	1510.72
752.801	1406.27
752.985	1414.46
753.17	1406.27
753.354	1525.05
753.538	1400.13
753.722	1477.95
753.907	1393.98
754.091	1475.9
754.275	1436.99
754.459	1348.93
754.643	1449.28
754.828	1414.46
755.012	1357.12
755.196	1307.97
755.38	1379.65
755.564	1303.87
755.748	1383.74
755.932	1410.37
756.116	1324.35
756.3	1303.87
756.484	1228.1
756.668	1258.82
756.852	1318.21
757.036	1215.81
757.22	1365.31
757.404	1201.48
757.588	1283.39
757.772	1221.95
757.956	1219.91
758.14	1203.52
758.323	1201.48
758.507	1178.95
758.691	1248.58
758.875	1160.52
759.059	1162.56
759.242	1185.09
759.426	1094.98
759.61	1084.74
759.794	1224
759.977	1113.41
760.161	1271.11
760.345	1178.95
760.528	1092.93
760.712	1254.72
760.895	1115.46
761.079	1086.79
761.263	1056.07
761.446	1094.98
761.63	1111.36
761.813	1056.07
761.997	1054.02
762.18	1037.64
762.364	1039.69
762.547	1049.93
762.731	1078.6
762.914	1033.54
763.098	1131.84
763.281	947.53
763.464	1037.64
763.648	1049.93
763.831	931.14
764.015	1080.64
764.198	963.91
764.381	1099.08
764.564	1062.21
764.748	1021.25
764.931	1025.35
765.114	1043.78
765.297	1066.31
765.481	906.57
765.664	982.34
765.847	972.1
766.03	974.15
766.213	965.96
766.397	982.34
766.58	918.86
766.763	988.49
766.946	1013.06
767.129	898.38
767.312	996.68
767.495	863.56
767.678	888.14
767.861	974.15
768.044	906.57
768.227	881.99
768.41	1013.06
768.593	955.72
768.776	982.34
768.959	875.85
769.142	845.13
769.324	925
769.507	884.04
769.69	890.18
769.873	857.42
770.056	1021.25
770.239	853.32
770.421	947.53
770.604	927.05
770.787	884.04
770.97	906.57
771.152	836.94
771.335	841.03
771.518	865.61
771.7	867.66
771.883	824.65
772.066	859.46
772.248	767.31
772.431	853.32
772.613	873.8
772.796	853.32
772.978	873.8
773.161	834.89
773.343	816.46
773.526	738.63
773.708	689.48
773.891	783.69
774.073	791.88
774.256	746.83
774.438	777.55
774.621	775.5
774.803	755.02
774.985	771.4
775.168	785.74
775.35	671.05
775.532	755.02
775.715	755.02
775.897	742.73
776.079	701.77
776.261	669
776.444	720.2
776.626	707.91
776.808	689.48
776.99	720.2
777.173	660.81
777.355	777.55
777.537	734.54
777.719	701.77
777.901	714.06
778.083	705.87
778.265	648.52
778.447	654.67
778.629	652.62
778.811	628.04
778.993	654.67
779.175	664.91
779.357	656.72
779.539	578.89
779.721	636.24
779.903	531.79
780.085	537.93
780.267	701.77
780.449	666.96
780.631	603.47
780.812	595.28
780.994	525.65
781.176	562.51
781.358	619.85
781.54	472.4
781.721	578.89
781.903	603.47
782.085	566.6
782.267	593.23
782.448	439.63
782.63	480.59
782.812	537.93
782.993	589.13
783.175	507.21
783.357	533.84
783.538	525.65
783.72	542.03
783.901	531.79
784.083	445.77
784.264	505.17
784.446	449.87
784.627	474.45
784.809	468.3
784.99	482.64
785.172	456.01
785.353	546.12
785.535	507.21
785.716	523.6
785.897	400.72
786.079	425.29
786.26	458.06
786.441	398.67
786.623	456.01
786.804	441.68
786.985	441.68
787.167	365.9
787.348	458.06
787.529	447.82
787.71	480.59
787.891	402.77
788.073	341.33
788.254	374.1
788.435	443.73
788.616	425.29
788.797	349.52
788.978	357.71
789.159	406.86
789.34	390.48
789.522	333.14
789.703	355.66
789.884	376.14
790.065	357.71
790.246	449.87
790.427	361.81
790.607	451.92
790.788	308.56
790.969	410.96
791.15	353.62
791.331	361.81
791.512	349.52
791.693	415.06
791.874	345.42
792.054	410.96
792.235	376.14
792.416	306.51
792.597	431.44
792.778	341.33
792.958	345.42
793.139	359.76
793.32	337.23
793.5	318.8
793.681	365.9
793.862	341.33
794.042	343.38
794.223	228.69
794.404	300.37
794.584	271.7
794.765	261.46
794.945	324.94
795.126	316.75
795.306	261.46
795.487	310.61
795.667	294.22
795.848	308.56
796.028	267.6
796.209	286.03
796.389	410.96
796.57	326.99
796.75	206.16
796.93	236.88
797.111	312.66
797.291	181.59
797.471	318.8
797.652	292.18
797.832	259.41
798.012	308.56
798.192	243.03
798.373	202.07
798.553	187.73
798.733	259.41
798.913	208.21
799.093	292.18
799.274	202.07
799.454	261.46
799.634	249.17
799.814	249.17
799.994	300.37
800.174	255.31
800.354	234.83
800.534	189.78
800.714	267.6
800.894	228.69
801.074	204.11
801.254	173.39
801.434	300.37
801.614	251.22
801.794	193.87
801.974	775.5
802.154	183.63
802.334	243.03
802.514	255.31
802.693	267.6
802.873	163.15
803.053	251.22
803.233	185.68
803.413	247.12
803.592	218.45
803.772	212.31
803.952	185.68
804.131	152.91
804.311	146.77
804.491	228.69
804.67	128.34
804.85	247.12
805.03	222.55
805.209	269.65
805.389	132.44
805.568	271.7
805.748	195.92
805.928	210.26
806.107	238.93
806.287	189.78
806.466	144.72
806.646	243.03
806.825	173.39
807.004	185.68
807.184	177.49
807.363	169.3
807.543	255.31
807.722	230.74
807.901	218.45
808.081	251.22
808.26	114
808.439	189.78
808.619	116.05
808.798	210.26
808.977	212.31
809.156	152.91
809.336	152.91
809.515	122.2
809.694	116.05
809.873	179.54
810.052	163.15
810.231	118.1
810.411	142.68
810.59	238.93
810.769	202.07
810.948	138.58
811.127	81.24
811.306	165.2
811.485	154.96
811.664	175.44
811.843	169.3
812.022	189.78
812.201	103.76
812.38	136.53
812.559	120.15
812.737	157.01
812.916	130.39
813.095	157.01
813.274	111.96
813.453	128.34
813.632	118.1
813.811	144.72
813.989	79.19
814.168	144.72
814.347	40.28
814.526	103.76
814.704	154.96
814.883	191.83
815.062	99.67
815.24	163.15
815.419	177.49
815.598	136.53
815.776	79.19
815.955	120.15
816.133	91.48
816.312	128.34
816.49	122.2
816.669	173.39
816.847	116.05
817.026	146.77
817.204	171.35
817.383	138.58
817.561	132.44
817.74	71
817.918	148.82
818.097	79.19
818.275	85.33
818.453	138.58
818.632	128.34
818.81	136.53
818.988	181.59
819.167	103.76
819.345	150.87
819.523	71
819.701	136.53
819.879	73.04
820.058	21.85
820.236	54.61
820.414	114
820.592	95.57
820.77	73.04
820.948	95.57
821.127	62.8
821.305	140.63
821.483	114
821.661	126.29
821.839	64.85
822.017	157.01
822.195	91.48
822.373	185.68
822.551	122.2
822.729	128.34
822.907	66.9
823.085	62.8
823.262	34.13
823.44	71
823.618	101.72
823.796	118.1
823.974	103.76
824.152	120.15
824.329	7.51
824.507	71
824.685	62.8
824.863	64.85
825.04	46.42
825.218	169.3
825.396	64.85
825.574	54.61
825.751	52.56
825.929	134.48
826.107	66.9
826.284	73.04
826.462	154.96
826.639	-0.68
826.817	-37.55
826.994	122.2
827.172	25.94
827.349	163.15
827.527	62.8
827.704	99.67
827.882	56.66
828.059	50.52
828.237	93.52
828.414	120.15
828.591	62.8
828.769	111.96
828.946	99.67
829.124	163.15
829.301	17.75
829.478	114
829.655	62.8
829.833	146.77
830.01	21.85
830.187	15.7
830.364	111.96
830.542	48.47
830.719	34.13
830.896	32.08
831.073	30.04
831.25	30.04
831.427	54.61
831.604	93.52
831.782	66.9
831.959	87.38
832.136	-23.21
832.313	64.85
832.49	81.24
832.667	32.08
832.844	38.23
833.021	46.42
833.198	91.48
833.374	64.85
833.551	46.42
833.728	9.56
833.905	99.67
834.082	-72.36
834.259	62.8
834.436	62.8
834.612	34.13
834.789	46.42
834.966	-43.69
835.143	107.86
835.319	-23.21
835.496	114
835.673	54.61
835.85	91.48
836.026	109.91
836.203	134.48
836.38	50.52
836.556	36.18
836.733	13.65
836.909	40.28
837.086	50.52
837.262	13.65
837.439	40.28
837.616	30.04
837.792	54.61
837.968	34.13
838.145	58.71
838.321	25.94
838.498	30.04
838.674	103.76
838.851	32.08
839.027	66.9
839.203	1.37
839.38	48.47
839.556	-31.4
839.732	105.81
839.909	-0.68
840.085	132.44
840.261	30.04
840.437	91.48
840.614	34.13
840.79	128.34
840.966	21.85
841.142	73.04
841.318	-4.78
841.494	38.23
841.671	17.75
841.847	25.94
842.023	56.66
842.199	62.8
842.375	64.85
842.551	-33.45
842.727	38.23
842.903	38.23
843.079	-15.02
843.255	54.61
843.431	15.7
843.607	54.61
843.783	-0.68
843.959	54.61
844.134	-6.83
844.31	83.28
844.486	-19.11
844.662	62.8
844.838	7.51
845.013	27.99
845.189	62.8
845.365	42.32
845.541	58.71
845.716	21.85
845.892	13.65
846.068	9.56
846.244	-19.11
846.419	46.42
846.595	-27.31
846.77	73.04
846.946	9.56
847.122	21.85
847.297	9.56
847.473	81.24
847.648	73.04
847.824	60.76
847.999	-19.11
848.175	58.71
848.35	15.7
848.526	87.38
848.701	27.99
848.876	89.43
849.052	5.46
849.227	19.8
849.403	-29.35
849.578	79.19
849.753	48.47
849.929	25.94
850.104	34.13
850.279	62.8
850.454	54.61
850.63	34.13
850.805	-19.11
850.98	27.99
851.155	-19.11
851.33	-37.55
851.505	7.51
851.681	25.94
851.856	-6.83
852.031	7.51
852.206	46.42
852.381	-43.69
852.556	46.42
852.731	34.13
852.906	9.56
853.081	-39.59
853.256	38.23
853.431	9.56
853.606	34.13
853.781	5.46
853.956	-76.46
854.131	-10.92
854.305	-98.99
854.48	-17.07
854.655	11.61
854.83	23.89
855.005	15.7
855.18	50.52
855.354	-35.5
855.529	171.35
855.704	-19.11
855.879	5.46
856.053	-8.87
856.228	-70.31
856.403	-55.98
856.577	30.04
856.752	-10.92
856.926	-6.83
857.101	-19.11
857.276	3.41
857.45	64.85
857.625	13.65
857.799	15.7
857.974	-17.07
858.148	-74.41
858.323	-2.73
858.497	-43.69
858.672	50.52
858.846	-39.59
859.02	-25.26
859.195	-66.22
859.369	-8.87
859.543	95.57
859.718	30.04
859.892	17.75
860.066	-33.45
860.241	-2.73
860.415	-8.87
860.589	-23.21
860.763	15.7
860.938	-60.07
861.112	25.94
861.286	-31.4
861.46	-12.97
861.634	-31.4
861.808	42.32
861.982	-19.11
862.157	-51.88
862.331	-4.78
862.505	-49.83
862.679	-39.59
862.853	-55.98
863.027	-43.69
863.201	89.43
863.375	15.7
863.549	1.37
863.722	27.99
863.896	66.9
864.07	73.04
864.244	25.94
864.418	7.51
864.592	54.61
864.766	30.04
864.939	52.56
865.113	-41.64
865.287	21.85
865.461	-2.73
865.634	13.65
865.808	66.9
865.982	11.61
866.156	17.75
866.329	-23.21
866.503	9.56
866.676	17.75
866.85	-66.22
867.024	11.61
867.197	7.51
867.371	95.57
867.544	21.85
867.718	-2.73
867.891	38.23
868.065	30.04
868.238	75.09
868.412	71
868.585	17.75
868.759	-74.41
868.932	-19.11
869.105	-43.69
869.279	-8.87
869.452	-39.59
869.625	-43.69
869.799	21.85
869.972	-19.11
870.145	-55.98
870.319	-55.98
870.492	-27.31
870.665	1.37
870.838	-8.87
871.011	-60.07
871.185	21.85
871.358	79.19
871.531	15.7
871.704	-60.07
871.877	-31.4
872.05	-66.22
872.223	23.89
872.396	-35.5
872.569	25.94
872.742	-0.68
872.915	34.13
873.088	-123.56
873.261	21.85
873.434	9.56
873.607	103.76
873.78	32.08
873.953	21.85
874.126	-23.21
874.299	54.61
874.471	-39.59
874.644	-17.07
874.817	-66.22
874.99	64.85
875.163	9.56
875.335	50.52
875.508	-15.02
875.681	81.24
875.853	19.8
876.026	15.7
876.199	19.8
876.371	23.89
876.544	-51.88
876.717	40.28
876.889	19.8
877.062	-19.11
877.234	17.75
877.407	-2.73
877.579	-27.31
877.752	-4.78
877.924	1.37
878.097	48.47
878.269	38.23
878.442	19.8
878.614	23.89
878.786	25.94
878.959	-27.31
879.131	-0.68
879.303	19.8
879.476	36.18
879.648	52.56
879.82	-8.87
879.993	-37.55
880.165	-82.6
880.337	-92.84
880.509	38.23
880.681	-121.51
880.854	-76.46
881.026	-55.98
881.198	32.08
881.37	-10.92
881.542	1.37
881.714	-43.69
881.886	95.57
882.058	46.42
882.23	-0.68
882.402	-82.6
882.574	-0.68
882.746	52.56
882.918	-12.97
883.09	5.46
883.262	-25.26
883.434	-80.55
883.606	-64.17
883.778	-107.18
883.95	-8.87
884.122	15.7
884.293	-25.26
884.465	-2.73
884.637	38.23
884.809	-33.45
884.98	-19.11
885.152	-17.07
885.324	79.19
885.496	-19.11
885.667	3.41
885.839	32.08
886.011	15.7
886.182	-6.83
886.354	-21.16
886.525	-80.55
886.697	7.51
886.869	-88.75
887.04	38.23
887.212	15.7
887.383	58.71
887.555	-6.83
887.726	60.76
887.897	54.61
888.069	5.46
888.24	-15.02
888.412	-25.26
888.583	-19.11
888.754	73.04
888.926	-10.92
889.097	42.32
889.268	-49.83
889.44	-15.02
889.611	-25.26
889.782	1.37
889.953	-15.02
890.125	-19.11
890.296	-49.83
890.467	1.37
890.638	5.46
890.809	-17.07
890.98	15.7
891.151	-31.4
891.323	-33.45
891.494	40.28
891.665	44.37
891.836	17.75
892.007	25.94
892.178	5.46
892.349	-53.93
892.52	9.56
892.691	83.28
892.862	-27.31
893.032	-72.36
893.203	-64.17
893.374	15.7
893.545	-15.02
893.716	-109.22
893.887	5.46
894.057	30.04
894.228	-88.75
894.399	34.13
894.57	17.75
894.74	-55.98
894.911	-10.92
895.082	-76.46
895.253	-19.11
895.423	13.65
895.594	40.28
895.764	-76.46
895.935	5.46
896.106	-35.5
896.276	-49.83
896.447	-43.69
896.617	-51.88
896.788	50.52
896.958	7.51
897.129	-19.11
897.299	5.46
897.47	34.13
897.64	50.52
897.81	44.37
897.981	-53.93
898.151	5.46
898.322	-41.64
898.492	-0.68
898.662	15.7
898.832	-25.26
899.003	7.51
899.173	-45.74
899.343	-51.88
899.513	-27.31
