Data from USB4F104151__185__14-45-08-413.txt Node

Date: Thu Mar 13 14:45:08 EDT 2025
User: louis
Spectrometer: USB4F10415
Trigger mode: 4
Integration Time (sec): 2.000000E-2
Scans to average: 1
Electric dark correction enabled: true
Nonlinearity correction enabled: false
Boxcar width: 0
XAxis mode: Wavelengths
Number of Pixels in Spectrum: 3648
>>>>>Begin Spectral Data<<<<<
178.204	-121.17
178.424	-121.17
178.644	-121.17
178.864	-82.26
179.084	-139.6
179.304	13.99
179.524	-2.39
179.744	-26.96
179.964	24.23
180.184	54.95
180.404	1.71
180.624	-55.64
180.844	32.43
181.064	1.71
181.283	9.9
181.503	-26.96
181.723	-26.96
181.943	46.76
182.163	50.86
182.383	-8.53
182.602	63.15
182.822	54.95
183.042	77.48
183.262	-20.82
183.482	-8.53
183.701	87.72
183.921	46.76
184.141	-39.25
184.361	65.19
184.58	22.19
184.8	7.85
185.02	30.38
185.239	46.76
185.459	9.9
185.679	50.86
185.898	-12.63
186.118	-18.77
186.338	-10.58
186.557	7.85
186.777	-22.87
186.997	46.76
187.216	34.47
187.436	71.34
187.655	63.15
187.875	91.82
188.095	30.38
188.314	63.15
188.534	71.34
188.753	22.19
188.973	95.91
189.192	52.91
189.412	16.04
189.631	54.95
189.851	3.75
190.07	97.96
190.29	13.99
190.509	30.38
190.729	28.33
190.948	67.24
191.168	95.91
191.387	46.76
191.607	16.04
191.826	-16.73
192.045	46.76
192.265	69.29
192.484	48.81
192.704	38.57
192.923	-98.64
193.142	71.34
193.362	24.23
193.581	63.15
193.8	7.85
194.02	22.19
194.239	1.71
194.458	65.19
194.678	13.99
194.897	54.95
195.116	34.47
195.335	71.34
195.555	36.52
195.774	22.19
195.993	50.86
196.212	-24.92
196.432	42.67
196.651	-72.02
196.87	-57.68
197.089	93.87
197.308	83.63
197.528	54.95
197.747	26.28
197.966	48.81
198.185	22.19
198.404	36.52
198.623	20.14
198.842	42.67
199.062	71.34
199.281	126.63
199.5	-24.92
199.719	30.38
199.938	9.9
200.157	38.57
200.376	48.81
200.595	16.04
200.814	-10.58
201.033	13.99
201.252	120.49
201.471	22.19
201.69	136.87
201.909	42.67
202.128	100.01
202.347	-49.49
202.566	128.68
202.785	71.34
203.004	-2.39
203.223	73.39
203.442	42.67
203.661	-2.39
203.879	-10.58
204.098	54.95
204.317	-22.87
204.536	63.15
204.755	59.05
204.974	71.34
205.193	1.71
205.411	24.23
205.63	28.33
205.849	91.82
206.068	5.8
206.287	26.28
206.505	-10.58
206.724	18.09
206.943	67.24
207.162	65.19
207.381	18.09
207.599	22.19
207.818	22.19
208.037	75.43
208.255	36.52
208.474	54.95
208.693	93.87
208.911	104.11
209.13	97.96
209.349	63.15
209.567	79.53
209.786	9.9
210.005	79.53
210.223	71.34
210.442	-18.77
210.661	5.8
210.879	81.58
211.098	87.72
211.316	26.28
211.535	50.86
211.753	73.39
211.972	32.43
212.191	16.04
212.409	20.14
212.628	54.95
212.846	38.57
213.065	20.14
213.283	71.34
213.502	-16.73
213.72	48.81
213.938	-33.11
214.157	73.39
214.375	40.62
214.594	-16.73
214.812	91.82
215.031	34.47
215.249	-12.63
215.467	106.15
215.686	26.28
215.904	30.38
216.122	-26.96
216.341	24.23
216.559	-0.34
216.778	54.95
216.996	91.82
217.214	18.09
217.432	54.95
217.651	-6.49
217.869	93.87
218.087	79.53
218.306	38.57
218.524	13.99
218.742	97.96
218.96	75.43
219.179	-20.82
219.397	65.19
219.615	102.06
219.833	73.39
220.051	-14.68
220.27	106.15
220.488	79.53
220.706	46.76
220.924	30.38
221.142	104.11
221.36	67.24
221.578	79.53
221.796	22.19
222.015	18.09
222.233	65.19
222.451	48.81
222.669	-14.68
222.887	91.82
223.105	-31.06
223.323	67.24
223.541	-18.77
223.759	91.82
223.977	-16.73
224.195	104.11
224.413	-16.73
224.631	71.34
224.849	36.52
225.067	75.43
225.285	54.95
225.503	63.15
225.721	-6.49
225.939	13.99
226.157	73.39
226.375	145.06
226.592	26.28
226.81	24.23
227.028	71.34
227.246	65.19
227.464	38.57
227.682	97.96
227.9	95.91
228.117	50.86
228.335	18.09
228.553	30.38
228.771	50.86
228.989	30.38
229.206	-2.39
229.424	71.34
229.642	79.53
229.86	-16.73
230.077	65.19
230.295	26.28
230.513	1.71
230.731	57
230.948	89.77
231.166	48.81
231.384	81.58
231.601	-39.25
231.819	42.67
232.037	67.24
232.254	5.8
232.472	-6.49
232.689	42.67
232.907	24.23
233.125	40.62
233.342	22.19
233.56	50.86
233.777	114.34
233.995	104.11
234.213	50.86
234.43	18.09
234.648	-2.39
234.865	81.58
235.083	-55.64
235.3	5.8
235.518	42.67
235.735	73.39
235.953	110.25
236.17	122.54
236.388	-2.39
236.605	71.34
236.822	36.52
237.04	91.82
237.257	57
237.475	13.99
237.692	65.19
237.909	59.05
238.127	57
238.344	40.62
238.562	-43.35
238.779	1.71
238.996	-57.68
239.214	140.97
239.431	54.95
239.648	28.33
239.865	71.34
240.083	54.95
240.3	61.1
240.517	79.53
240.735	24.23
240.952	54.95
241.169	24.23
241.386	36.52
241.603	30.38
241.821	-41.3
242.038	65.19
242.255	57
242.472	11.95
242.689	16.04
242.907	93.87
243.124	61.1
243.341	136.87
243.558	-18.77
243.775	26.28
243.992	24.23
244.209	54.95
244.426	71.34
244.643	61.1
244.86	63.15
245.078	57
245.295	30.38
245.512	118.44
245.729	34.47
245.946	26.28
246.163	42.67
246.38	65.19
246.597	61.1
246.814	32.43
247.031	-2.39
247.248	-2.39
247.464	104.11
247.681	-16.73
247.898	-10.58
248.115	71.34
248.332	5.8
248.549	95.91
248.766	89.77
248.983	59.05
249.2	79.53
249.417	13.99
249.633	-2.39
249.85	30.38
250.067	34.47
250.284	124.58
250.501	147.11
250.717	69.29
250.934	16.04
251.151	42.67
251.368	42.67
251.585	-2.39
251.801	-2.39
252.018	3.75
252.235	38.57
252.451	34.47
252.668	34.47
252.885	136.87
253.102	100.01
253.318	-26.96
253.535	59.05
253.752	30.38
253.968	63.15
254.185	9.9
254.401	22.19
254.618	20.14
254.835	91.82
255.051	147.11
255.268	65.19
255.484	40.62
255.701	100.01
255.917	77.48
256.134	3.75
256.351	79.53
256.567	-24.92
256.784	79.53
257	40.62
257.217	38.57
257.433	48.81
257.65	81.58
257.866	40.62
258.082	48.81
258.299	-29.01
258.515	16.04
258.732	48.81
258.948	22.19
259.165	13.99
259.381	87.72
259.597	-0.34
259.814	22.19
260.03	38.57
260.246	30.38
260.463	83.63
260.679	54.95
260.895	89.77
261.112	79.53
261.328	-10.58
261.544	63.15
261.761	169.64
261.977	9.9
262.193	-63.83
262.409	65.19
262.626	1.71
262.842	34.47
263.058	-10.58
263.274	87.72
263.49	-37.2
263.707	104.11
263.923	30.38
264.139	63.15
264.355	22.19
264.571	46.76
264.787	69.29
265.004	48.81
265.22	-18.77
265.436	18.09
265.652	46.76
265.868	120.49
266.084	20.14
266.3	79.53
266.516	61.1
266.732	40.62
266.948	5.8
267.164	38.57
267.38	122.54
267.596	65.19
267.812	81.58
268.028	128.68
268.244	-6.49
268.46	48.81
268.676	-10.58
268.892	42.67
269.108	26.28
269.324	81.58
269.54	30.38
269.756	24.23
269.972	52.91
270.188	81.58
270.403	5.8
270.619	52.91
270.835	-2.39
271.051	34.47
271.267	36.52
271.483	57
271.698	-8.53
271.914	24.23
272.13	-6.49
272.346	46.76
272.562	-24.92
272.777	87.72
272.993	13.99
273.209	65.19
273.425	79.53
273.64	-22.87
273.856	118.44
274.072	-35.16
274.287	-0.34
274.503	97.96
274.719	38.57
274.934	38.57
275.15	-2.39
275.366	-49.49
275.581	67.24
275.797	112.3
276.012	104.11
276.228	54.95
276.444	30.38
276.659	114.34
276.875	-24.92
277.09	22.19
277.306	-43.35
277.521	-31.06
277.737	42.67
277.952	24.23
278.168	20.14
278.383	-59.73
278.599	89.77
278.814	75.43
279.03	13.99
279.245	54.95
279.461	5.8
279.676	118.44
279.892	-8.53
280.107	46.76
280.322	32.43
280.538	42.67
280.753	30.38
280.969	87.72
281.184	63.15
281.399	38.57
281.615	-0.34
281.83	48.81
282.045	18.09
282.26	124.58
282.476	42.67
282.691	57
282.906	-35.16
283.122	50.86
283.337	40.62
283.552	46.76
283.767	26.28
283.983	100.01
284.198	40.62
284.413	63.15
284.628	-45.4
284.843	-26.96
285.058	46.76
285.274	1.71
285.489	48.81
285.704	87.72
285.919	9.9
286.134	-2.39
286.349	-39.25
286.564	69.29
286.779	79.53
286.995	-6.49
287.21	-6.49
287.425	-53.59
287.64	28.33
287.855	42.67
288.07	13.99
288.285	54.95
288.5	87.72
288.715	87.72
288.93	-24.92
289.145	18.09
289.36	-84.31
289.575	13.99
289.79	93.87
290.004	81.58
290.219	75.43
290.434	18.09
290.649	44.71
290.864	63.15
291.079	22.19
291.294	71.34
291.509	67.24
291.724	46.76
291.938	-29.01
292.153	89.77
292.368	63.15
292.583	13.99
292.798	54.95
293.012	32.43
293.227	42.67
293.442	38.57
293.657	108.2
293.871	89.77
294.086	13.99
294.301	89.77
294.516	34.47
294.73	-2.39
294.945	54.95
295.16	9.9
295.374	122.54
295.589	79.53
295.804	69.29
296.018	67.24
296.233	83.63
296.447	63.15
296.662	5.8
296.877	65.19
297.091	32.43
297.306	5.8
297.52	-6.49
297.735	30.38
297.949	77.48
298.164	75.43
298.378	-22.87
298.593	18.09
298.807	140.97
299.022	1.71
299.236	140.97
299.451	73.39
299.665	38.57
299.88	-2.39
300.094	-43.35
300.309	65.19
300.523	57
300.737	13.99
300.952	40.62
301.166	67.24
301.381	54.95
301.595	38.57
301.809	59.05
302.024	61.1
302.238	-61.78
302.452	155.3
302.667	97.96
302.881	73.39
303.095	54.95
303.309	63.15
303.524	73.39
303.738	59.05
303.952	30.38
304.166	97.96
304.381	16.04
304.595	104.11
304.809	44.71
305.023	26.28
305.237	-8.53
305.452	147.11
305.666	57
305.88	112.3
306.094	91.82
306.308	97.96
306.522	69.29
306.736	16.04
306.95	22.19
307.164	7.85
307.379	-43.35
307.593	128.68
307.807	87.72
308.021	85.67
308.235	61.1
308.449	30.38
308.663	75.43
308.877	71.34
309.091	73.39
309.305	59.05
309.519	13.99
309.733	95.91
309.947	26.28
310.161	106.15
310.374	75.43
310.588	48.81
310.802	-29.01
311.016	30.38
311.23	24.23
311.444	40.62
311.658	-55.64
311.872	75.43
312.085	71.34
312.299	48.81
312.513	-2.39
312.727	145.06
312.941	-14.68
313.154	16.04
313.368	22.19
313.582	38.57
313.796	71.34
314.009	-18.77
314.223	48.81
314.437	130.73
314.651	34.47
314.864	30.38
315.078	48.81
315.292	48.81
315.505	30.38
315.719	81.58
315.933	22.19
316.146	46.76
316.36	1.71
316.573	91.82
316.787	63.15
317.001	59.05
317.214	-33.11
317.428	63.15
317.641	-10.58
317.855	-10.58
318.068	65.19
318.282	46.76
318.495	126.63
318.709	30.38
318.922	147.11
319.136	128.68
319.349	89.77
319.563	-24.92
319.776	79.53
319.99	-31.06
320.203	50.86
320.417	145.06
320.63	71.34
320.843	143.02
321.057	52.91
321.27	50.86
321.483	54.95
321.697	75.43
321.91	40.62
322.124	30.38
322.337	-18.77
322.55	-14.68
322.763	-35.16
322.977	57
323.19	95.91
323.403	7.85
323.617	26.28
323.83	13.99
324.043	63.15
324.256	120.49
324.469	5.8
324.683	100.01
324.896	83.63
325.109	87.72
325.322	-29.01
325.535	79.53
325.748	40.62
325.962	18.09
326.175	81.58
326.388	42.67
326.601	89.77
326.814	81.58
327.027	30.38
327.24	11.95
327.453	-51.54
327.666	67.24
327.879	179.88
328.092	85.67
328.305	81.58
328.518	75.43
328.731	24.23
328.944	44.71
329.157	-67.92
329.37	38.57
329.583	112.3
329.796	71.34
330.009	-2.39
330.222	13.99
330.435	22.19
330.648	5.8
330.861	73.39
331.073	44.71
331.286	106.15
331.499	71.34
331.712	5.8
331.925	75.43
332.138	114.34
332.35	87.72
332.563	-18.77
332.776	79.53
332.989	79.53
333.202	40.62
333.414	24.23
333.627	13.99
333.84	54.95
334.053	32.43
334.265	40.62
334.478	46.76
334.691	67.24
334.903	38.57
335.116	50.86
335.329	20.14
335.541	-18.77
335.754	50.86
335.966	65.19
336.179	153.26
336.392	97.96
336.604	30.38
336.817	54.95
337.029	24.23
337.242	67.24
337.454	54.95
337.667	38.57
337.88	83.63
338.092	54.95
338.305	48.81
338.517	38.57
338.729	83.63
338.942	57
339.154	85.67
339.367	20.14
339.579	120.49
339.792	5.8
340.004	89.77
340.217	34.47
340.429	87.72
340.641	3.75
340.854	65.19
341.066	50.86
341.278	50.86
341.491	13.99
341.703	91.82
341.915	106.15
342.128	57
342.34	79.53
342.552	1.71
342.764	-6.49
342.977	95.91
343.189	54.95
343.401	46.76
343.613	-16.73
343.826	63.15
344.038	75.43
344.25	-10.58
344.462	-31.06
344.674	63.15
344.886	95.91
345.099	42.67
345.311	71.34
345.523	79.53
345.735	16.04
345.947	16.04
346.159	5.8
346.371	63.15
346.583	77.48
346.795	132.78
347.007	95.91
347.219	93.87
347.431	-8.53
347.643	114.34
347.855	13.99
348.067	112.3
348.279	46.76
348.491	87.72
348.703	67.24
348.915	59.05
349.127	67.24
349.339	7.85
349.551	7.85
349.763	32.43
349.975	22.19
350.187	32.43
350.399	50.86
350.61	52.91
350.822	87.72
351.034	67.24
351.246	50.86
351.458	120.49
351.669	112.3
351.881	30.38
352.093	54.95
352.305	44.71
352.517	11.95
352.728	124.58
352.94	149.16
353.152	85.67
353.363	40.62
353.575	69.29
353.787	87.72
353.999	73.39
354.21	65.19
354.422	65.19
354.633	104.11
354.845	57
355.057	87.72
355.268	46.76
355.48	67.24
355.692	-26.96
355.903	81.58
356.115	-16.73
356.326	-35.16
356.538	38.57
356.749	30.38
356.961	153.26
357.172	9.9
357.384	13.99
357.595	122.54
357.807	46.76
358.018	5.8
358.23	30.38
358.441	128.68
358.653	54.95
358.864	9.9
359.075	44.71
359.287	65.19
359.498	5.8
359.709	67.24
359.921	75.43
360.132	42.67
360.344	59.05
360.555	63.15
360.766	65.19
360.977	30.38
361.189	97.96
361.4	83.63
361.611	130.73
361.823	42.67
362.034	102.06
362.245	-6.49
362.456	87.72
362.667	65.19
362.879	-2.39
363.09	95.91
363.301	-18.77
363.512	120.49
363.723	63.15
363.935	54.95
364.146	122.54
364.357	95.91
364.568	73.39
364.779	-0.34
364.99	112.3
365.201	50.86
365.412	63.15
365.623	52.91
365.834	97.96
366.045	13.99
366.256	48.81
366.467	97.96
366.678	42.67
366.889	48.81
367.1	-26.96
367.311	97.96
367.522	22.19
367.733	75.43
367.944	130.73
368.155	59.05
368.366	140.97
368.577	104.11
368.788	79.53
368.999	30.38
369.209	61.1
369.42	79.53
369.631	106.15
369.842	30.38
370.053	48.81
370.264	79.53
370.474	32.43
370.685	108.2
370.896	38.57
371.107	44.71
371.317	97.96
371.528	18.09
371.739	102.06
371.95	120.49
372.16	112.3
372.371	87.72
372.582	42.67
372.792	71.34
373.003	18.09
373.214	18.09
373.424	114.34
373.635	63.15
373.846	112.3
374.056	46.76
374.267	95.91
374.477	71.34
374.688	26.28
374.898	67.24
375.109	71.34
375.319	63.15
375.53	143.02
375.74	67.24
375.951	71.34
376.161	63.15
376.372	136.87
376.582	1.71
376.793	95.91
377.003	61.1
377.214	85.67
377.424	95.91
377.635	71.34
377.845	54.95
378.055	91.82
378.266	13.99
378.476	57
378.686	52.91
378.897	40.62
379.107	161.45
379.317	65.19
379.528	95.91
379.738	87.72
379.948	71.34
380.158	75.43
380.369	95.91
380.579	-8.53
380.789	28.33
380.999	44.71
381.21	136.87
381.42	186.02
381.63	-26.96
381.84	81.58
382.05	69.29
382.261	114.34
382.471	22.19
382.681	87.72
382.891	122.54
383.101	100.01
383.311	48.81
383.521	36.52
383.731	100.01
383.941	95.91
384.151	65.19
384.361	50.86
384.571	104.11
384.781	73.39
384.991	116.39
385.201	114.34
385.411	83.63
385.621	108.2
385.831	46.76
386.041	97.96
386.251	110.25
386.461	81.58
386.671	65.19
386.881	52.91
387.091	38.57
387.301	138.92
387.511	50.86
387.72	89.77
387.93	118.44
388.14	128.68
388.35	71.34
388.56	59.05
388.769	161.45
388.979	5.8
389.189	57
389.399	116.39
389.609	153.26
389.818	30.38
390.028	89.77
390.238	100.01
390.447	65.19
390.657	126.63
390.867	73.39
391.076	110.25
391.286	110.25
391.496	71.34
391.705	30.38
391.915	61.1
392.125	63.15
392.334	59.05
392.544	95.91
392.753	95.91
392.963	130.73
393.172	120.49
393.382	48.81
393.591	116.39
393.801	5.8
394.01	67.24
394.22	186.02
394.429	75.43
394.639	57
394.848	46.76
395.058	91.82
395.267	102.06
395.477	89.77
395.686	143.02
395.895	106.15
396.105	97.96
396.314	161.45
396.524	177.83
396.733	85.67
396.942	112.3
397.152	198.31
397.361	153.26
397.57	46.76
397.78	104.11
397.989	177.83
398.198	169.64
398.407	104.11
398.617	97.96
398.826	161.45
399.035	95.91
399.244	91.82
399.453	134.82
399.663	161.45
399.872	124.58
400.081	163.5
400.29	63.15
400.499	87.72
400.708	128.68
400.917	145.06
401.127	40.62
401.336	106.15
401.545	202.41
401.754	118.44
401.963	136.87
402.172	87.72
402.381	95.91
402.59	169.64
402.799	100.01
403.008	116.39
403.217	67.24
403.426	151.21
403.635	100.01
403.844	149.16
404.053	81.58
404.262	143.02
404.471	194.22
404.68	267.94
404.888	128.68
405.097	130.73
405.306	157.35
405.515	245.41
405.724	136.87
405.933	202.41
406.142	220.84
406.35	214.7
406.559	153.26
406.768	214.7
406.977	292.52
407.185	243.37
407.394	235.18
407.603	186.02
407.812	261.8
408.02	294.57
408.229	308.9
408.438	214.7
408.646	259.75
408.855	222.89
409.064	202.41
409.272	239.27
409.481	288.42
409.69	319.14
409.898	294.57
410.107	333.48
410.315	399.01
410.524	396.96
410.733	313
410.941	360.1
411.15	401.06
411.358	394.92
411.567	356.01
411.775	392.87
411.984	439.97
412.192	437.92
412.401	419.49
412.609	585.38
412.818	554.66
413.026	515.75
413.234	450.21
413.443	546.47
413.651	579.23
413.86	620.19
414.068	616.1
414.276	587.43
414.485	669.34
414.693	700.06
414.901	718.5
415.11	804.51
415.318	702.11
415.526	718.5
415.734	851.61
415.943	849.57
416.151	868
416.359	845.47
416.567	906.91
416.776	964.25
416.984	1007.26
417.192	1058.46
417.4	1074.84
417.608	1027.74
417.817	1179.29
418.025	1199.77
418.233	1250.97
418.441	1216.15
418.649	1324.69
418.857	1279.64
419.065	1439.38
419.273	1466
419.481	1502.87
419.689	1441.43
419.897	1621.65
420.105	1586.83
420.313	1586.83
420.521	1783.44
420.729	1726.1
420.937	1793.68
421.145	1740.43
421.353	1912.46
421.561	2021
421.769	2135.69
421.977	2121.35
422.185	2152.07
422.393	2174.6
422.601	2387.59
422.809	2350.73
423.017	2512.52
423.224	2533
423.432	2653.83
423.64	2670.21
423.848	2920.06
424.056	2692.74
424.263	2928.25
424.471	3059.32
424.679	3012.22
424.887	3184.25
425.094	3217.02
425.302	3339.9
425.51	3405.43
425.718	3458.68
425.925	3513.97
426.133	3823.22
426.341	3806.83
426.548	4161.13
426.756	4220.52
426.964	4134.51
427.171	4486.76
427.379	4578.92
427.586	4486.76
427.794	4505.19
428.001	4912.74
428.209	5119.58
428.417	4875.87
428.624	5207.64
428.832	5289.56
429.039	5318.23
429.247	5371.48
429.454	5897.81
429.662	6295.11
429.869	6018.64
430.076	6057.55
430.284	5944.91
430.491	6526.54
430.699	6690.37
430.906	6673.99
431.114	6721.09
431.321	6901.31
431.528	7132.73
431.736	7763.51
431.943	7949.87
432.15	7820.85
432.358	7953.97
432.565	8332.84
432.772	8338.99
432.979	8558.12
433.187	8582.7
433.394	8828.45
433.601	9491.99
433.808	9516.57
434.016	9303.58
434.223	9612.82
434.43	10249.74
434.637	10208.78
434.844	10829.32
435.052	10911.24
435.259	10903.04
435.466	10958.34
435.673	10974.72
435.88	11628.03
436.087	12080.63
436.294	12011
436.501	12039.67
436.708	12295.66
436.915	12576.23
437.122	13178.34
437.329	13157.86
437.537	13336.03
437.743	13891.03
437.95	13624.79
438.157	14304.72
438.364	14859.72
438.571	14886.34
438.778	14843.34
438.985	16528.81
439.192	15560.13
439.399	15885.75
439.606	15760.83
439.813	16450.99
440.02	17665.44
440.227	17401.25
440.433	17073.57
440.64	17667.49
440.847	17493.41
441.054	17958.3
441.261	19355.01
441.467	18972.04
441.674	19367.3
441.881	19996.03
442.088	19824
442.294	20047.22
442.501	20415.86
442.708	20772.21
442.914	21280.1
443.121	22404.44
443.328	21904.73
443.534	23473.48
443.741	22484.31
443.948	22441.3
444.154	24014.14
444.361	23854.4
444.568	23921.98
444.774	24231.22
444.981	24350.01
445.187	24812.85
445.394	26203.42
445.6	26168.6
445.807	28124.41
446.013	26766.61
446.22	27364.62
446.426	28642.55
446.633	29037.81
446.839	29678.82
447.046	28581.11
447.252	30340.32
447.459	30248.16
447.665	29918.43
447.871	31526.09
448.078	32611.51
448.284	31222.99
448.491	32298.17
448.697	33481.9
448.903	33922.21
449.11	34069.67
449.316	33227.95
449.522	34270.37
449.728	35150.99
449.935	35669.13
450.141	35548.3
450.347	36580.48
450.553	35024.02
450.76	35400.85
450.966	36627.58
451.172	36504.7
451.378	37399.66
451.584	36498.56
451.791	37577.84
451.997	37127.28
452.203	38487.14
452.409	38171.75
452.615	38093.93
452.821	36643.96
453.027	36312.19
453.233	37993.57
453.44	36629.63
453.646	37317.75
453.852	37217.39
454.058	37688.43
454.264	36922.49
454.47	37409.9
454.676	36641.92
454.882	37743.72
455.088	34704.54
455.294	35288.21
455.5	35908.74
455.705	36371.58
455.911	34520.22
456.117	34092.19
456.323	33748.14
456.529	32259.26
456.735	33463.47
456.941	32703.67
457.147	32326.85
457.352	31521.99
457.558	30821.59
457.764	30950.61
457.97	30301.4
458.176	29680.87
458.381	29668.58
458.587	28404.99
458.793	28097.79
458.999	27231.5
459.204	28902.64
459.41	28146.94
459.616	26416.41
459.821	26473.75
460.027	26305.82
460.233	25564.45
460.438	24718.64
460.644	24569.14
460.85	23450.95
461.055	23471.43
461.261	23106.89
461.466	21564.77
461.672	20882.8
461.878	22132.06
462.083	20913.52
462.289	20387.19
462.494	20348.28
462.7	19486.08
462.905	18857.35
463.111	19420.55
463.316	19418.5
463.522	18898.31
463.727	18929.03
463.932	19090.82
464.138	18640.27
464.343	18836.88
464.549	18443.67
464.754	18867.59
464.959	18937.23
465.165	18587.02
465.37	18007.45
465.575	17458.59
465.781	18359.7
465.986	18474.38
466.191	17733.02
466.397	17118.63
466.602	16389.55
466.807	17196.45
467.012	17012.14
467.218	16893.35
467.423	16733.61
467.628	16821.67
467.833	17581.47
468.038	16741.8
468.244	16618.93
468.449	17159.59
468.654	16496.05
468.859	16487.86
469.064	16442.8
469.269	15668.67
469.474	15812.03
469.679	16313.78
469.885	15545.79
470.09	15730.11
470.295	15836.6
470.5	15418.82
470.705	15480.25
470.91	15050.18
471.115	15140.29
471.32	15427.01
471.525	15015.37
471.73	14685.64
471.935	14792.14
472.139	14192.08
472.344	14407.12
472.549	14069.2
472.754	14398.93
472.959	13983.19
473.164	13755.86
473.369	13483.48
473.574	13952.47
473.778	13772.25
473.983	13469.15
474.188	13800.92
474.393	13153.76
474.598	13204.96
474.802	12811.75
475.007	12776.94
475.212	12940.77
475.417	12326.38
475.621	12717.54
475.826	12582.38
476.031	12293.62
476.235	12228.08
476.44	12219.89
476.645	11920.88
476.849	11990.52
477.054	11906.55
477.259	11501.05
477.463	11564.54
477.668	11312.64
477.872	11642.36
478.077	11228.67
478.282	10774.02
478.486	11122.18
478.691	10706.44
478.895	10982.92
479.1	10782.21
479.304	10759.69
479.509	10515.98
479.713	10681.86
479.918	10595.85
480.122	10309.13
480.326	10444.3
480.531	10468.87
480.735	10182.16
480.94	10264.08
481.144	10450.44
481.348	10098.19
481.553	10114.58
481.757	9967.12
481.961	9930.26
482.166	10092.05
482.37	10024.47
482.574	10069.52
482.778	9944.59
482.983	10083.86
483.187	10081.81
483.391	9920.02
483.595	9879.06
483.8	9858.58
484.004	9958.93
484.208	9993.75
484.412	9811.48
484.616	10065.43
484.821	9987.6
485.025	9860.63
485.229	10061.33
485.433	10038.8
485.637	9811.48
485.841	9823.76
486.045	9903.64
486.249	9944.59
486.453	9965.07
486.657	9788.95
486.861	10196.5
487.065	9745.94
487.269	9844.24
487.473	9842.2
487.677	9965.07
487.881	10214.93
488.085	9928.21
488.289	9946.64
488.493	10006.03
488.697	9944.59
488.901	9975.31
489.105	9770.52
489.309	10071.57
489.512	10038.8
489.716	9960.98
489.92	10124.82
490.124	10309.13
490.328	10071.57
490.531	10348.04
490.735	10071.57
490.939	10483.21
491.143	10028.56
491.346	10171.92
491.55	10511.88
491.754	10460.68
491.958	10489.35
492.161	10450.44
492.365	10427.92
492.569	10642.95
492.772	10501.64
492.976	10735.11
493.18	10774.02
493.383	10919.43
493.587	10931.72
493.79	11030.02
493.994	10743.3
494.197	11005.44
494.401	10993.15
494.605	11132.42
494.808	11279.87
495.012	11365.89
495.215	11367.93
495.419	11521.53
495.622	11402.75
495.825	11601.4
496.029	11501.05
496.232	11789.81
496.436	11634.17
496.639	12047.86
496.843	12013.04
497.046	12488.17
497.249	12359.15
497.453	12553.71
497.656	12711.4
497.859	12633.58
498.063	12899.81
498.266	13170.15
498.469	13004.26
498.673	13268.45
498.876	13344.22
499.079	13606.36
499.282	13538.78
499.485	13952.47
499.689	13792.73
499.892	13823.45
500.095	14040.53
500.298	14478.8
500.501	14470.61
500.705	14812.62
500.908	14785.99
501.111	14996.93
501.314	15209.92
501.517	15404.48
501.72	15627.71
501.923	15343.04
502.126	15963.58
502.329	16156.08
502.532	16045.49
502.735	16354.74
502.938	16655.79
503.141	16684.46
503.344	16913.83
503.547	17034.66
503.75	17331.62
503.953	17708.44
504.156	17571.23
504.359	17780.12
504.562	17913.24
504.765	18394.51
504.968	18345.36
505.17	18873.74
505.373	18675.09
505.576	19041.67
505.779	19158.41
505.982	19099.02
506.185	19819.9
506.387	19725.69
506.59	20157.82
506.793	20583.79
506.996	20268.41
507.198	20989.29
507.401	20833.64
507.604	21003.63
507.807	21720.42
508.009	21648.74
508.212	21759.33
508.415	21919.07
508.617	22560.08
508.82	22431.06
509.022	22320.47
509.225	23102.79
509.428	23008.59
509.63	23551.3
509.833	23539.01
510.035	24368.44
510.238	23930.17
510.44	24124.73
510.643	24448.31
510.845	24839.47
511.048	24689.97
511.25	25445.67
511.453	25238.83
511.655	26113.31
511.858	26133.79
512.06	26012.96
512.262	26258.71
512.465	26359.06
512.667	26866.96
512.87	27008.27
513.072	27208.97
513.274	27581.7
513.477	28101.89
513.679	28032.25
513.881	28802.29
514.084	28425.46
514.286	28675.32
514.488	29132.01
514.69	29914.34
514.893	29863.14
515.095	30072.03
515.297	30287.07
515.499	30362.84
515.701	30837.97
515.904	31306.96
516.106	31253.71
516.308	31558.86
516.51	32191.68
516.712	31876.29
516.914	32519.35
517.116	32836.79
517.318	32935.09
517.52	33154.22
517.722	33508.52
517.925	33580.2
518.127	34258.08
518.329	34626.71
518.531	34235.55
518.733	34946.2
518.935	35447.95
519.136	35134.61
519.338	35916.93
519.54	35638.41
519.742	35957.89
519.944	36312.19
520.146	36842.62
520.348	36893.82
520.55	37020.79
520.752	37229.68
520.954	38069.35
521.155	37803.11
521.357	38282.34
521.559	38736.99
521.761	38958.17
521.963	38814.81
522.164	39062.61
522.366	39435.34
522.568	39527.5
522.77	39691.34
522.971	40381.51
523.173	40299.59
523.375	40707.13
523.576	40643.65
523.778	40645.69
523.98	41141.3
524.181	41622.58
524.383	41464.88
524.584	41923.63
524.786	42284.07
524.988	41864.24
525.189	42308.65
525.391	42390.56
525.592	42968.09
525.794	42773.53
525.995	42763.29
526.197	43158.55
526.398	43099.16
526.6	43740.18
526.801	43707.41
527.003	43545.62
527.204	43914.25
527.406	44274.7
527.607	44155.91
527.808	44635.14
528.01	44010.51
528.211	44174.34
528.412	44995.58
528.614	44930.05
528.815	44913.66
529.016	45050.88
529.218	44604.42
529.419	45296.63
529.62	45194.23
529.822	44979.2
530.023	45173.75
530.224	45501.43
530.425	45456.37
530.626	44897.28
530.828	45300.73
531.029	46330.86
531.23	45392.89
531.431	45579.25
531.632	45755.38
531.833	46140.39
532.035	45753.33
532.236	46148.59
532.437	46259.18
532.638	45497.33
532.839	46222.31
533.04	46124.01
533.241	45786.1
533.442	46824.42
533.643	46195.69
533.844	46636
534.045	46451.69
534.246	46029.8
534.447	46304.23
534.648	46478.31
534.849	46445.54
535.05	45849.58
535.251	46156.78
535.451	46339.05
535.652	46468.07
535.853	46283.75
536.054	46269.42
536.255	46631.91
536.456	46003.18
536.657	46713.83
536.857	46179.31
537.058	46214.12
537.259	46533.6
537.46	46353.38
537.66	46164.97
537.861	46259.18
538.062	46271.46
538.263	46623.72
538.463	46040.04
538.664	46384.1
538.865	46124.01
539.065	46506.98
539.266	45915.12
539.466	46195.69
539.667	45835.25
539.868	46662.63
540.068	46517.22
540.269	45894.64
540.469	46402.53
540.67	46058.48
540.87	46318.57
541.071	46189.55
541.271	46332.9
541.472	46238.7
541.672	45941.74
541.873	45968.37
542.073	45616.11
542.274	46715.87
542.474	46054.38
542.675	45681.65
542.875	45972.46
543.075	45624.31
543.276	45689.84
543.476	46169.07
543.676	45618.16
543.877	46040.04
544.077	46027.76
544.277	45831.15
544.478	46083.05
544.678	45874.16
544.878	45863.92
545.078	46226.41
545.279	45870.06
545.479	45784.05
545.679	45640.69
545.879	46009.32
546.079	45720.56
546.28	45790.19
546.48	45720.56
546.68	45915.12
546.88	45648.88
547.08	45730.8
547.28	45419.51
547.48	45173.75
547.68	45825.01
547.88	45323.26
548.081	45710.32
548.281	45933.55
548.481	45495.28
548.681	45829.1
548.881	45581.3
549.081	45579.25
549.28	45323.26
549.48	46062.57
549.68	45343.73
549.88	45982.7
550.08	45276.15
550.28	45288.44
550.48	45655.03
550.68	45636.59
550.88	45079.55
551.08	45456.37
551.279	45315.06
551.479	44923.9
551.679	45591.54
551.879	45079.55
552.079	45161.47
552.278	45130.75
552.478	45370.36
552.678	45120.51
552.878	45458.42
553.077	45097.98
553.277	44837.89
553.477	45321.21
553.676	44786.69
553.876	45222.9
554.076	45145.08
554.275	45267.96
554.475	44485.64
554.674	45245.43
554.874	45016.06
555.074	44616.71
555.273	44803.07
555.473	44907.52
555.672	44557.31
555.872	44264.46
556.071	44616.71
556.271	45026.3
556.47	44436.48
556.67	44483.59
556.869	44528.64
557.068	44719.1
557.268	44293.13
557.467	44428.29
557.667	44481.54
557.866	44338.18
558.065	44157.96
558.265	44114.95
558.464	44125.19
558.663	44284.93
558.863	43863.05
559.062	44827.65
559.261	43820.05
559.461	44502.02
559.66	43592.72
559.859	43764.75
560.058	43639.82
560.258	43793.42
560.457	43463.7
560.656	43912.2
560.855	43742.22
561.054	43961.36
561.253	43019.29
561.453	43287.57
561.652	43496.47
561.851	43791.37
562.05	43068.44
562.249	43215.9
562.448	43580.43
562.647	43289.62
562.846	43193.37
563.045	43002.91
563.244	42794.01
563.443	42964
563.642	42585.12
563.841	43033.63
564.04	42722.33
564.239	43076.63
564.438	42193.96
564.637	42867.74
564.836	43080.73
565.035	42318.88
565.234	42730.53
565.432	42265.64
565.631	41860.14
565.83	42198.05
566.029	42118.18
566.228	41851.95
566.427	41839.66
566.625	41585.71
566.824	41471.03
567.023	42150.95
567.222	40825.92
567.42	42015.79
567.619	41317.43
567.818	41438.26
568.016	41372.72
568.215	41385.01
568.414	41024.57
568.612	41212.98
568.811	41040.95
569.01	41362.48
569.208	40254.53
569.407	40739.9
569.605	40805.44
569.804	40930.36
570.002	40459.33
570.201	40801.34
570.4	40350.79
570.598	40420.42
570.797	40240.2
570.995	40502.34
571.193	39898.19
571.392	40125.51
571.59	40041.54
571.789	40066.12
571.987	39906.38
572.186	40152.13
572.384	39515.22
572.582	39990.34
572.781	39666.77
572.979	39208.02
573.177	39392.34
573.376	39685.2
573.574	39496.78
573.772	39507.02
573.971	38833.24
574.169	39025.75
574.367	39023.7
574.565	38878.3
574.763	38800.47
574.962	38562.91
575.16	38296.67
575.358	38564.96
575.556	38022.25
575.754	38653.02
575.952	38149.22
576.151	38220.9
576.349	37723.24
576.547	38169.7
576.745	37563.5
576.943	38018.15
577.141	37497.97
577.339	37911.66
577.537	37622.89
577.735	37768.3
577.933	37196.92
578.131	36973.69
578.329	36877.43
578.527	37069.94
578.725	37000.31
578.923	37139.57
579.121	36607.1
579.319	36811.9
579.516	36838.52
579.714	36379.78
579.912	36621.44
580.11	36156.55
580.308	35937.41
580.506	36201.6
580.704	35710.09
580.901	36043.91
581.099	36301.95
581.297	35431.57
581.495	35568.78
581.692	35765.38
581.89	35597.45
582.088	35665.03
582.285	35832.97
582.483	35724.43
582.681	35574.92
582.878	35337.36
583.076	35351.7
583.274	35163.28
583.471	34735.26
583.669	34786.46
583.866	34782.36
584.064	34659.48
584.262	34294.94
584.459	34888.85
584.657	34565.28
584.854	34620.57
585.052	33791.14
585.249	34335.9
585.447	34186.4
585.644	34036.9
585.841	33918.12
586.039	34229.41
586.236	33717.42
586.434	33430.7
586.631	33467.56
586.828	33361.07
587.026	33156.27
587.223	33242.29
587.42	33096.88
587.618	33531.05
587.815	32738.49
588.012	33000.63
588.21	32599.23
588.407	32804.02
588.604	32601.27
588.801	32322.75
588.999	32232.64
589.196	32539.83
589.393	32130.24
589.59	32031.94
589.787	32144.58
589.984	31945.92
590.182	31937.73
590.379	31894.72
590.576	31509.71
590.773	31872.2
590.97	31706.31
591.167	31556.81
591.364	31483.08
591.561	31521.99
591.758	31038.67
591.955	31532.23
592.152	31575.24
592.349	31108.3
592.546	31016.15
592.743	31050.96
592.94	30547.16
593.137	30631.13
593.334	31093.97
593.531	30123.23
593.727	30418.14
593.924	30276.83
594.121	30020.83
594.318	30170.33
594.515	29842.66
594.712	30328.03
594.908	29949.15
595.105	30166.24
595.302	29498.6
595.499	30004.45
595.696	29508.84
595.892	29412.59
596.089	29478.12
596.286	29289.71
596.482	29422.83
596.679	29105.39
596.876	29093.1
597.072	28871.92
597.269	29457.64
597.466	28622.07
597.662	28323.07
597.859	28382.46
598.055	28732.66
598.252	28318.97
598.448	28386.55
598.645	28099.84
598.841	27876.61
599.038	28208.38
599.234	28548.34
599.431	27798.79
599.627	27936
599.824	28353.79
600.02	27499.78
600.217	27901.18
600.413	27376.9
600.609	27577.61
600.806	27514.12
601.002	27495.69
601.198	27155.72
601.395	27538.69
601.591	27182.35
601.787	26946.83
601.984	26959.12
602.18	26658.07
602.376	26918.16
602.572	26651.92
602.769	26703.12
602.965	26418.46
603.161	26430.74
603.357	26266.91
603.553	26187.04
603.75	26285.34
603.946	26092.83
604.142	26207.51
604.338	25933.09
604.534	26045.73
604.73	25885.98
604.926	25431.33
605.122	26000.67
605.318	25873.7
605.514	25666.85
605.71	25328.94
605.906	25349.42
606.102	25388.33
606.298	25498.92
606.494	25310.5
606.69	25275.69
606.886	25505.06
607.082	24952.11
607.278	24984.88
607.474	24808.75
607.67	25222.44
607.866	24444.21
608.062	25036.08
608.257	24886.57
608.453	24575.28
608.649	24550.71
608.845	24696.11
609.041	24282.42
609.236	24366.39
609.432	24288.57
609.628	24534.32
609.824	24280.38
610.019	24030.52
610.215	23991.61
610.411	24220.99
610.606	24296.76
610.802	23999.8
610.998	23752
611.193	24141.11
611.389	23723.33
611.584	23762.24
611.78	23676.23
611.976	23598.4
612.171	23729.47
612.367	23680.32
612.562	23465.28
612.758	23463.24
612.953	23172.43
613.149	23770.43
613.344	23317.83
613.539	23432.52
613.735	23536.96
613.93	23338.31
614.126	23213.38
614.321	23438.66
614.517	23332.17
614.712	23049.55
614.907	22969.68
615.103	23012.68
615.298	22926.67
615.493	23078.22
615.688	22504.79
615.884	22916.43
616.079	22463.83
616.274	22879.57
616.47	22523.22
616.665	22549.84
616.86	22529.36
617.055	22830.41
617.25	22371.67
617.445	22570.32
617.641	22304.09
617.836	22144.34
618.031	22084.95
618.226	22271.32
618.421	21992.8
618.616	21927.26
618.811	21849.44
619.006	22119.77
619.201	21538.15
619.396	21902.68
619.591	21386.6
619.786	21523.81
619.981	21427.56
620.176	21587.3
620.371	20964.71
620.566	21214.57
620.761	20946.28
620.956	21194.09
621.151	20532.59
621.346	20862.32
621.541	20571.5
621.735	20796.78
621.93	20565.36
622.125	20397.43
622.32	20358.52
622.515	20223.35
622.709	19858.81
622.904	20321.65
623.099	19914.11
623.294	19670.4
623.488	19559.81
623.683	19854.72
623.878	19215.75
624.072	19547.52
624.267	19105.16
624.462	19019.14
624.656	19176.84
624.851	19217.8
625.046	18783.63
625.24	18949.51
625.435	18609.55
625.629	18525.58
625.824	18742.67
626.018	18462.1
626.213	18173.33
626.407	18154.9
626.602	18034.07
626.796	18040.22
626.991	17857.95
627.185	17806.75
627.38	17782.17
627.574	17370.53
627.768	17391.01
627.963	17255.84
628.157	17243.56
628.352	17288.61
628.546	16979.37
628.74	17094.05
628.935	16973.22
629.129	16870.83
629.323	16741.8
629.517	16809.39
629.712	16491.95
629.906	16307.63
630.1	16149.94
630.294	16532.91
630.489	16229.81
630.683	16334.26
630.877	15977.91
631.071	16162.23
631.265	16080.31
631.459	15846.84
631.653	15824.31
631.848	15785.4
632.042	15683
632.236	15732.15
632.43	15226.31
632.624	15517.12
632.818	15390.14
633.012	15162.82
633.206	14853.58
633.4	15144.39
633.594	14792.14
633.788	14837.19
633.982	14910.92
634.176	14951.88
634.369	14597.58
634.563	14656.97
634.757	14513.61
634.951	14616.01
635.145	14525.9
635.339	14353.87
635.533	14329.3
635.726	14269.9
635.92	14142.93
636.114	14099.92
636.308	13809.11
636.501	13868.5
636.695	13704.67
636.889	13819.35
637.083	13465.05
637.276	13379.04
637.47	13585.88
637.664	13526.49
637.857	13307.36
638.051	13268.45
638.244	13153.76
638.438	13080.04
638.632	13043.17
638.825	13055.46
639.019	12891.62
639.212	12764.65
639.406	13080.04
639.599	12690.92
639.793	12860.9
639.986	12500.46
640.18	12658.15
640.373	12156.4
640.567	12254.7
640.76	12326.38
640.954	12396.01
641.147	12203.5
641.34	12168.69
641.534	12039.67
641.727	11978.23
641.92	11779.57
642.114	11818.49
642.307	11679.22
642.5	11859.45
642.694	11640.31
642.887	11703.8
643.08	11697.66
643.273	11605.5
643.467	11359.74
643.66	11228.67
643.853	11402.75
644.046	11113.99
644.239	11427.32
644.432	11085.31
644.626	10868.23
644.819	11089.41
645.012	11099.65
645.205	11040.26
645.398	10804.74
645.591	10690.06
645.784	10802.69
645.977	10671.62
646.17	10497.55
646.363	10468.87
646.556	10434.06
646.749	10558.99
646.942	10550.79
647.135	10319.37
647.328	10358.28
647.521	10253.84
647.714	9969.17
647.907	10253.84
648.099	9952.79
648.292	10055.19
648.485	9895.44
648.678	9707.03
648.871	9741.85
649.064	9522.71
649.256	9737.75
649.449	9747.99
649.642	9684.5
649.835	9459.23
650.027	9379.36
650.22	9524.76
650.413	9408.03
650.605	9502.23
650.798	9293.34
650.991	9082.4
651.183	9131.55
651.376	9051.68
651.568	9248.29
651.761	9076.26
651.954	8943.14
652.146	9014.82
652.339	8957.47
652.531	8730.15
652.724	8934.95
652.916	8662.57
653.109	8896.03
653.301	8691.24
653.494	8486.44
653.686	8281.64
653.879	8420.91
654.071	8394.28
654.263	8515.11
654.456	8365.61
654.648	8402.47
654.84	8263.21
655.033	8197.68
655.225	8142.38
655.417	8039.98
655.61	8156.72
655.802	7943.73
655.994	8089.14
656.186	8025.65
656.379	7972.4
656.571	7886.39
656.763	7697.97
656.955	7650.87
657.148	7814.71
657.34	7714.36
657.532	7593.53
657.724	7519.8
657.916	7646.77
658.108	7519.8
658.3	7380.54
658.492	7722.55
658.684	7386.68
658.876	7462.46
659.068	7321.15
659.26	7298.62
659.452	7249.47
659.644	7188.03
659.836	7183.93
660.028	7378.49
660.22	6966.85
660.412	6975.04
660.604	6989.38
660.796	6864.45
660.988	7069.25
661.18	7083.58
661.372	6878.79
661.563	6923.84
661.755	6813.25
661.947	6895.17
662.139	6745.67
662.331	6757.96
662.522	6542.92
662.714	6544.97
662.906	6624.84
663.097	6454.86
663.289	6461
663.481	6448.71
663.673	6542.92
663.864	6295.11
664.056	6280.78
664.247	6379.08
664.439	6329.93
664.631	6389.32
664.822	6245.96
665.014	6291.02
665.205	6047.31
665.397	6118.99
665.588	6108.75
665.78	5949.01
665.971	5971.54
666.163	5926.48
666.354	5946.96
666.546	5977.68
666.737	5985.87
666.929	5701.2
667.12	5828.18
667.311	5707.35
667.503	5787.22
667.694	5676.63
667.885	5676.63
668.077	5740.12
668.268	5600.85
668.459	5578.33
668.651	5471.83
668.842	5559.89
669.033	5469.78
669.224	5408.34
669.416	5510.74
669.607	5400.15
669.798	5404.25
669.989	5469.78
670.18	5283.42
670.371	5236.31
670.563	5330.52
670.754	5244.51
670.945	5291.61
671.136	5240.41
671.327	5166.68
671.518	5039.71
671.709	5236.31
671.9	5133.92
672.091	5097.05
672.282	5002.85
672.473	5045.85
672.664	4865.63
672.855	5035.61
673.046	4892.26
673.237	4929.12
673.428	4906.59
673.619	5082.72
673.809	4867.68
674	4912.74
674.191	4775.52
674.382	4836.96
674.573	4970.08
674.764	4720.23
674.954	4638.31
675.145	4791.91
675.336	4757.09
675.527	4630.12
675.717	4646.5
675.908	4601.44
676.099	4765.28
676.289	4646.5
676.48	4451.94
676.671	4666.98
676.861	4611.68
677.052	4398.7
677.243	4357.74
677.433	4550.25
677.624	4626.02
677.814	4472.42
678.005	4449.89
678.195	4396.65
678.386	4384.36
678.576	4333.16
678.767	4503.14
678.957	4351.59
679.148	4306.54
679.338	4382.31
679.529	4480.61
679.719	4449.89
679.909	4462.18
680.1	4355.69
680.29	4372.07
680.481	4300.39
680.671	4265.58
680.861	4253.29
681.052	4202.09
681.242	4177.51
681.432	4259.43
681.622	4175.47
681.813	4175.47
682.003	4302.44
682.193	4154.99
682.383	4167.28
682.573	4159.08
682.764	4224.62
682.954	4275.82
683.144	4097.64
683.334	4126.32
683.524	4243.05
683.714	3966.57
683.904	3905.14
684.094	4040.3
684.284	3841.65
684.474	4079.21
684.664	4087.4
684.854	3980.91
685.044	3956.33
685.234	3905.14
685.424	3931.76
685.614	3864.18
685.804	4021.87
685.994	3898.99
686.184	3866.22
686.374	3825.26
686.564	3806.83
686.753	3784.3
686.943	3923.57
687.133	3729.01
687.323	3909.23
687.513	3757.68
687.702	3741.3
687.892	3874.42
688.082	3583.6
688.272	3733.11
688.461	3675.76
688.651	3757.68
688.841	3610.23
689.03	3702.39
689.22	3632.76
689.41	3724.91
689.599	3692.15
689.789	3667.57
689.979	3470.97
690.168	3577.46
690.358	3563.12
690.547	3513.97
690.737	3462.77
690.926	3503.73
691.116	3337.85
691.305	3536.5
691.495	3446.39
691.684	3413.62
691.874	3438.2
692.063	3468.92
692.252	3262.07
692.442	3311.22
692.631	3354.23
692.82	3323.51
693.01	3315.32
693.199	3346.04
693.388	3192.44
693.578	3307.13
693.767	3339.9
693.956	3223.16
694.146	3169.91
694.335	3307.13
694.524	3325.56
694.713	3280.5
694.902	3137.15
695.092	3282.55
695.281	3223.16
695.47	3118.72
695.659	3141.24
695.848	3020.41
696.037	3106.43
696.226	3135.1
696.415	3047.04
696.604	3174.01
696.793	3077.76
696.982	3139.19
697.171	3040.89
697.36	3090.04
697.549	2999.93
697.738	3020.41
697.927	3069.56
698.116	3020.41
698.305	3024.51
698.494	2977.41
698.683	2897.53
698.872	2946.69
699.061	2963.07
699.25	2975.36
699.438	2907.77
699.627	2991.74
699.816	3028.6
700.005	2823.81
700.193	2848.38
700.382	2922.11
700.571	2918.01
700.76	2782.85
700.948	2823.81
701.137	2832
701.326	2727.55
701.514	2762.37
701.703	2772.61
701.892	2846.34
702.08	2934.4
702.269	2743.94
702.457	2791.04
702.646	2758.27
702.834	2750.08
703.023	2788.99
703.212	2866.81
703.4	2717.31
703.589	2815.62
703.777	2698.88
703.965	2877.05
704.154	2733.7
704.342	2766.46
704.531	2692.74
704.719	2578.05
704.907	2793.09
705.096	2723.46
705.284	2635.39
705.472	2768.51
705.661	2715.27
705.849	2817.66
706.037	2651.78
706.226	2651.78
706.414	2823.81
706.602	2645.63
706.79	2576
706.979	2719.36
707.167	2569.86
707.355	2614.91
707.543	2680.45
707.731	2627.2
707.919	2612.87
708.107	2590.34
708.296	2600.58
708.484	2510.47
708.672	2608.77
708.86	2678.4
709.048	2627.2
709.236	2514.56
709.424	2596.48
709.612	2664.07
709.8	2545.28
709.988	2637.44
710.176	2504.32
710.364	2512.52
710.551	2530.95
710.739	2602.63
710.927	2594.44
711.115	2516.61
711.303	2406.02
711.491	2639.49
711.679	2549.38
711.866	2549.38
712.054	2563.72
712.242	2563.72
712.43	2455.17
712.617	2479.75
712.805	2467.46
712.993	2451.08
713.181	2385.54
713.368	2397.83
713.556	2479.75
713.744	2449.03
713.931	2430.6
714.119	2350.73
714.306	2440.84
714.494	2379.4
714.682	2479.75
714.869	2401.93
715.057	2291.34
715.244	2408.07
715.432	2350.73
715.619	2307.72
715.807	2455.17
715.994	2367.11
716.182	2365.06
716.369	2406.02
716.556	2479.75
716.744	2401.93
716.931	2283.14
717.119	2465.41
717.306	2387.59
717.493	2393.73
717.681	2401.93
717.868	2307.72
718.055	2326.15
718.242	2395.78
718.43	2383.49
718.617	2406.02
718.804	2254.47
718.991	2367.11
719.179	2299.53
719.366	2299.53
719.553	2307.72
719.74	2365.06
719.927	2303.62
720.114	2414.21
720.301	2305.67
720.488	2250.38
720.676	2293.38
720.863	2442.89
721.05	2342.53
721.237	2358.92
721.424	2397.83
721.611	2338.44
721.798	2236.04
721.985	2229.9
722.172	2295.43
722.358	2293.38
722.545	2336.39
722.732	2217.61
722.919	2258.57
723.106	2274.95
723.293	2193.03
723.48	2299.53
723.667	2266.76
723.853	2348.68
724.04	2156.17
724.227	2291.34
724.414	2201.23
724.6	2236.04
724.787	2199.18
724.974	2258.57
725.161	2324.1
725.347	2223.75
725.534	2168.46
725.72	2236.04
725.907	2250.38
726.094	2260.62
726.28	2326.15
726.467	2221.7
726.653	2176.65
726.84	2270.86
727.027	2248.33
727.213	2315.91
727.4	2094.73
727.586	2301.58
727.773	2227.85
727.959	2127.5
728.145	2233.99
728.332	2068.11
728.518	2143.88
728.705	2160.27
728.891	2195.08
729.077	2201.23
729.264	2113.16
729.45	2078.35
729.636	2215.56
729.823	2277
730.009	2098.83
730.195	2242.18
730.382	2096.78
730.568	2113.16
730.754	2244.23
730.94	2127.5
731.126	2121.35
731.313	2252.42
731.499	2127.5
731.685	2113.16
731.871	2053.77
732.057	2131.59
732.243	2158.22
732.429	2059.92
732.615	2233.99
732.801	2127.5
732.987	2127.5
733.173	2162.31
733.359	2064.01
733.545	2051.72
733.731	2111.11
733.917	2045.58
734.103	2186.89
734.289	2197.13
734.475	2072.2
734.661	2061.96
734.847	2129.55
735.033	2119.31
735.219	2139.79
735.404	2178.7
735.59	2053.77
735.776	2135.69
735.962	2014.86
736.148	2260.62
736.333	2102.92
736.519	1994.38
736.705	1988.24
736.89	2053.77
737.076	2135.69
737.262	1996.43
737.447	2031.24
737.633	2031.24
737.819	2119.31
738.004	1988.24
738.19	2016.91
738.375	2006.67
738.561	2080.39
738.747	2045.58
738.932	2012.81
739.118	2102.92
739.303	2004.62
739.489	2143.88
739.674	1955.47
739.859	1963.66
740.045	1916.56
740.23	1988.24
740.416	1900.17
740.601	1932.94
740.786	1881.74
740.972	1863.31
741.157	1894.03
741.342	1760.91
741.528	1867.41
741.713	1998.48
741.898	1812.11
742.084	1881.74
742.269	1871.5
742.454	1918.61
742.639	1912.46
742.824	1902.22
743.01	1783.44
743.195	1887.89
743.38	1828.49
743.565	1904.27
743.75	1863.31
743.935	1851.02
744.12	1848.97
744.305	1697.42
744.49	1855.12
744.675	1824.4
744.86	1681.04
745.045	1799.82
745.23	1734.29
745.415	1783.44
745.6	1771.15
745.785	1836.69
745.97	1785.49
746.155	1885.84
746.34	1621.65
746.525	1752.72
746.71	1754.77
746.895	1652.37
747.079	1664.66
747.264	1726.1
747.449	1656.47
747.634	1726.1
747.819	1695.38
748.003	1607.31
748.188	1687.18
748.373	1619.6
748.557	1572.5
748.742	1592.98
748.927	1666.71
749.111	1558.16
749.296	1595.03
749.481	1603.22
749.665	1537.68
749.85	1513.11
750.034	1529.49
750.219	1595.03
750.404	1416.85
750.588	1425.04
750.773	1441.43
750.957	1562.26
751.141	1386.13
751.326	1365.65
751.51	1425.04
751.695	1447.57
751.879	1386.13
752.064	1492.63
752.248	1492.63
752.432	1377.94
752.617	1384.09
752.801	1433.24
752.985	1359.51
753.17	1488.53
753.354	1390.23
753.538	1361.56
753.722	1425.04
753.907	1373.85
754.091	1279.64
754.275	1357.46
754.459	1408.66
754.643	1300.12
754.828	1336.98
755.012	1283.74
755.196	1334.93
755.38	1300.12
755.564	1267.35
755.748	1285.78
755.932	1234.58
756.116	1275.54
756.3	1203.86
756.484	1242.78
756.668	1164.95
756.852	1253.02
757.036	1195.67
757.22	1285.78
757.404	1146.52
757.588	1097.37
757.772	1205.91
757.956	1162.9
758.14	1201.82
758.323	1107.61
758.507	1267.35
758.691	1123.99
758.875	1078.94
759.059	1171.1
759.242	1113.75
759.426	1146.52
759.61	1111.71
759.794	1087.13
759.977	1169.05
760.161	1152.67
760.345	1154.71
760.528	1103.51
760.712	1140.38
760.895	1123.99
761.079	1040.03
761.263	1042.07
761.446	1042.07
761.63	1037.98
761.813	1023.64
761.997	966.3
762.18	1050.27
762.364	1009.31
762.547	947.87
762.731	923.29
762.914	1048.22
763.098	1037.98
763.281	982.68
763.464	960.16
763.648	1040.03
763.831	992.92
764.015	939.68
764.198	1042.07
764.381	1037.98
764.564	1013.4
764.748	960.16
764.931	974.49
765.114	894.62
765.297	972.44
765.481	933.53
765.664	1015.45
765.847	906.91
766.03	1023.64
766.213	876.19
766.397	1019.55
766.58	911
766.763	917.15
766.946	859.81
767.129	874.14
767.312	890.53
767.495	835.23
767.678	816.8
767.861	939.68
768.044	931.48
768.227	943.77
768.41	865.95
768.593	882.33
768.776	904.86
768.959	917.15
769.142	894.62
769.324	835.23
769.507	863.9
769.69	806.56
769.873	837.28
770.056	943.77
770.239	865.95
770.421	917.15
770.604	841.37
770.787	749.22
770.97	681.63
771.152	761.5
771.335	808.61
771.518	833.18
771.7	820.89
771.883	878.24
772.066	767.65
772.248	773.79
772.431	769.69
772.613	919.2
772.796	753.31
772.978	806.56
773.161	790.17
773.343	872.09
773.526	775.84
773.708	710.3
773.891	767.65
774.073	769.69
774.256	669.34
774.438	763.55
774.621	753.31
774.803	747.17
774.985	702.11
775.168	751.26
775.35	732.83
775.532	624.29
775.715	743.07
775.897	724.64
776.079	710.3
776.261	710.3
776.444	704.16
776.626	661.15
776.808	698.02
776.99	741.02
777.173	683.68
777.355	663.2
777.537	675.49
777.719	704.16
777.901	638.62
778.083	710.3
778.265	632.48
778.447	628.39
778.629	579.23
778.811	616.1
778.993	603.81
779.175	589.47
779.357	603.81
779.539	636.58
779.721	681.63
779.903	644.77
780.085	612
780.267	573.09
780.449	554.66
780.631	583.33
780.812	618.15
780.994	607.91
781.176	528.03
781.358	583.33
781.54	497.32
781.721	562.85
781.903	618.15
782.085	542.37
782.267	519.84
782.448	562.85
782.63	532.13
782.812	507.55
782.993	515.75
783.175	595.62
783.357	456.36
783.538	550.56
783.72	507.55
783.901	464.55
784.083	532.13
784.264	505.51
784.446	464.55
784.627	401.06
784.809	450.21
784.99	439.97
785.172	460.45
785.353	560.8
785.535	415.4
785.716	456.36
785.897	431.78
786.079	480.93
786.26	396.96
786.441	568.99
786.623	362.15
786.804	466.6
786.985	370.34
787.167	423.59
787.348	401.06
787.529	356.01
787.71	521.89
787.891	341.67
788.073	382.63
788.254	362.15
788.435	353.96
788.616	399.01
788.797	480.93
788.978	351.91
789.159	339.62
789.34	372.39
789.522	372.39
789.703	272.04
789.884	374.44
790.065	358.05
790.246	423.59
790.427	368.29
790.607	403.11
790.788	358.05
790.969	335.53
791.15	399.01
791.331	360.1
791.512	390.82
791.693	341.67
791.874	331.43
792.054	378.53
792.235	466.6
792.416	386.72
792.597	358.05
792.778	325.29
792.958	325.29
793.139	341.67
793.32	341.67
793.5	349.86
793.681	325.29
793.862	313
794.042	439.97
794.223	308.9
794.404	269.99
794.584	284.33
794.765	358.05
794.945	257.7
795.126	345.77
795.306	392.87
795.487	321.19
795.667	364.2
795.848	341.67
796.028	243.37
796.209	358.05
796.389	333.48
796.57	327.33
796.75	294.57
796.93	351.91
797.111	210.6
797.291	302.76
797.471	220.84
797.652	267.94
797.832	257.7
798.012	269.99
798.192	263.85
798.373	188.07
798.553	259.75
798.733	218.79
798.913	313
799.093	229.03
799.274	286.37
799.454	278.18
799.634	321.19
799.814	280.23
799.994	190.12
800.174	259.75
800.354	235.18
800.534	202.41
800.714	229.03
800.894	243.37
801.074	210.6
801.254	186.02
801.434	210.6
801.614	257.7
801.794	220.84
801.974	861.85
802.154	231.08
802.334	261.8
802.514	229.03
802.693	245.41
802.873	198.31
803.053	233.13
803.233	300.71
803.413	261.8
803.592	206.5
803.772	216.74
803.952	288.42
804.131	130.73
804.311	167.59
804.491	255.65
804.67	188.07
804.85	194.22
805.03	229.03
805.209	216.74
805.389	112.3
805.568	183.98
805.748	272.04
805.928	179.88
806.107	218.79
806.287	247.46
806.466	216.74
806.646	171.69
806.825	171.69
807.004	241.32
807.184	235.18
807.363	216.74
807.543	233.13
807.722	198.31
807.901	188.07
808.081	222.89
808.26	108.2
808.439	192.17
808.619	128.68
808.798	140.97
808.977	179.88
809.156	177.83
809.336	204.46
809.515	237.22
809.694	140.97
809.873	183.98
810.052	239.27
810.231	212.65
810.411	216.74
810.59	210.6
810.769	169.64
810.948	204.46
811.127	124.58
811.306	120.49
811.485	163.5
811.664	243.37
811.843	177.83
812.022	165.54
812.201	194.22
812.38	128.68
812.559	214.7
812.737	126.63
812.916	95.91
813.095	116.39
813.274	155.3
813.453	147.11
813.632	130.73
813.811	198.31
813.989	104.11
814.168	226.98
814.347	194.22
814.526	161.45
814.704	147.11
814.883	163.5
815.062	93.87
815.24	106.15
815.419	173.74
815.598	171.69
815.776	83.63
815.955	181.93
816.133	65.19
816.312	46.76
816.49	112.3
816.669	147.11
816.847	171.69
817.026	75.43
817.204	97.96
817.383	128.68
817.561	77.48
817.74	179.88
817.918	169.64
818.097	104.11
818.275	83.63
818.453	194.22
818.632	163.5
818.81	183.98
818.988	130.73
819.167	116.39
819.345	128.68
819.523	120.49
819.701	169.64
819.879	251.56
820.058	132.78
820.236	104.11
820.414	71.34
820.592	145.06
820.77	59.05
820.948	108.2
821.127	114.34
821.305	161.45
821.483	102.06
821.661	145.06
821.839	120.49
822.017	89.77
822.195	71.34
822.373	155.3
822.551	54.95
822.729	143.02
822.907	112.3
823.085	179.88
823.262	100.01
823.44	157.35
823.618	128.68
823.796	112.3
823.974	95.91
824.152	79.53
824.329	42.67
824.507	145.06
824.685	112.3
824.863	97.96
825.04	190.12
825.218	165.54
825.396	69.29
825.574	179.88
825.751	54.95
825.929	106.15
826.107	106.15
826.284	91.82
826.462	71.34
826.639	130.73
826.817	54.95
826.994	95.91
827.172	120.49
827.349	167.59
827.527	108.2
827.704	161.45
827.882	145.06
828.059	77.48
828.237	81.58
828.414	114.34
828.591	167.59
828.769	122.54
828.946	91.82
829.124	112.3
829.301	91.82
829.478	54.95
829.655	71.34
829.833	24.23
830.01	28.33
830.187	106.15
830.364	81.58
830.542	71.34
830.719	210.6
830.896	73.39
831.073	1.71
831.25	169.64
831.427	165.54
831.604	46.76
831.782	93.87
831.959	18.09
832.136	26.28
832.313	61.1
832.49	63.15
832.667	157.35
832.844	20.14
833.021	155.3
833.198	46.76
833.374	97.96
833.551	57
833.728	95.91
833.905	63.15
834.082	63.15
834.259	132.78
834.436	54.95
834.612	75.43
834.789	136.87
834.966	52.91
835.143	34.47
835.319	40.62
835.496	89.77
835.673	124.58
835.85	79.53
836.026	136.87
836.203	120.49
836.38	83.63
836.556	95.91
836.733	28.33
836.909	124.58
837.086	30.38
837.262	54.95
837.439	46.76
837.616	100.01
837.792	91.82
837.968	67.24
838.145	-14.68
838.321	83.63
838.498	71.34
838.674	97.96
838.851	-8.53
839.027	50.86
839.203	57
839.38	44.71
839.556	26.28
839.732	65.19
839.909	54.95
840.085	-24.92
840.261	95.91
840.437	61.1
840.614	42.67
840.79	54.95
840.966	114.34
841.142	128.68
841.318	48.81
841.494	69.29
841.671	63.15
841.847	54.95
842.023	63.15
842.199	59.05
842.375	116.39
842.551	-31.06
842.727	63.15
842.903	161.45
843.079	50.86
843.255	63.15
843.431	63.15
843.607	120.49
843.783	-26.96
843.959	97.96
844.134	18.09
844.31	87.72
844.486	-4.44
844.662	22.19
844.838	-16.73
845.013	71.34
845.189	-26.96
845.365	79.53
845.541	11.95
845.716	95.91
845.892	81.58
846.068	73.39
846.244	44.71
846.419	120.49
846.595	24.23
846.77	48.81
846.946	116.39
847.122	32.43
847.297	13.99
847.473	57
847.648	-0.34
847.824	71.34
847.999	-10.58
848.175	81.58
848.35	138.92
848.526	104.11
848.701	-24.92
848.876	136.87
849.052	54.95
849.227	-18.77
849.403	16.04
849.578	59.05
849.753	30.38
849.929	97.96
850.104	38.57
850.279	38.57
850.454	83.63
850.63	108.2
850.805	5.8
850.98	38.57
851.155	-10.58
851.33	120.49
851.505	48.81
851.681	54.95
851.856	-59.73
852.031	77.48
852.206	132.78
852.381	83.63
852.556	22.19
852.731	54.95
852.906	24.23
853.081	87.72
853.256	77.48
853.431	42.67
853.606	-14.68
853.781	38.57
853.956	-6.49
854.131	13.99
854.305	22.19
854.48	22.19
854.655	57
854.83	-0.34
855.005	28.33
855.18	63.15
855.354	13.99
855.529	-0.34
855.704	1.71
855.879	42.67
856.053	40.62
856.228	87.72
856.403	13.99
856.577	63.15
856.752	16.04
856.926	40.62
857.101	59.05
857.276	-39.25
857.45	18.09
857.625	63.15
857.799	38.57
857.974	54.95
858.148	22.19
858.323	54.95
858.497	50.86
858.672	65.19
858.846	16.04
859.02	69.29
859.195	38.57
859.369	32.43
859.543	42.67
859.718	-57.68
859.892	-24.92
860.066	85.67
860.241	65.19
860.415	22.19
860.589	1.71
860.763	9.9
860.938	24.23
861.112	28.33
861.286	122.54
861.46	22.19
861.634	22.19
861.808	48.81
861.982	9.9
862.157	38.57
862.331	40.62
862.505	22.19
862.679	71.34
862.853	67.24
863.027	18.09
863.201	81.58
863.375	50.86
863.549	38.57
863.722	46.76
863.896	42.67
864.07	-139.6
864.244	5.8
864.418	34.47
864.592	-12.63
864.766	-20.82
864.939	54.95
865.113	22.19
865.287	79.53
865.461	-0.34
865.634	54.95
865.808	38.57
865.982	11.95
866.156	-18.77
866.329	11.95
866.503	16.04
866.676	71.34
866.85	-22.87
867.024	54.95
867.197	38.57
867.371	7.85
867.544	28.33
867.718	7.85
867.891	97.96
868.065	-0.34
868.238	40.62
868.412	128.68
868.585	-35.16
868.759	26.28
868.932	-6.49
869.105	54.95
869.279	75.43
869.452	7.85
869.625	32.43
869.799	-8.53
869.972	13.99
870.145	-26.96
870.319	57
870.492	16.04
870.665	-22.87
870.838	7.85
871.011	-51.54
871.185	40.62
871.358	5.8
871.531	87.72
871.704	30.38
871.877	7.85
872.05	-10.58
872.223	-102.74
872.396	-12.63
872.569	46.76
872.742	-57.68
872.915	28.33
873.088	5.8
873.261	42.67
873.434	-10.58
873.607	-2.39
873.78	63.15
873.953	-6.49
874.126	34.47
874.299	89.77
874.471	22.19
874.644	-84.31
874.817	79.53
874.99	75.43
875.163	24.23
875.335	-33.11
875.508	-35.16
875.681	54.95
875.853	9.9
876.026	69.29
876.199	36.52
876.371	-2.39
876.544	-26.96
876.717	46.76
876.889	-6.49
877.062	42.67
877.234	-84.31
877.407	63.15
877.579	40.62
877.752	54.95
877.924	22.19
878.097	-24.92
878.269	-14.68
878.442	9.9
878.614	-43.35
878.786	30.38
878.959	59.05
879.131	46.76
879.303	40.62
879.476	7.85
879.648	59.05
879.82	24.23
879.993	-24.92
880.165	46.76
880.337	-53.59
880.509	26.28
880.681	50.86
880.854	-20.82
881.026	48.81
881.198	122.54
881.37	-2.39
881.542	-33.11
881.714	-47.44
881.886	-6.49
882.058	79.53
882.23	46.76
882.402	-12.63
882.574	22.19
882.746	38.57
882.918	79.53
883.09	-0.34
883.262	5.8
883.434	-26.96
883.606	13.99
883.778	34.47
883.95	112.3
884.122	-16.73
884.293	71.34
884.465	22.19
884.637	95.91
884.809	-57.68
884.98	16.04
885.152	89.77
885.324	95.91
885.496	-2.39
885.667	-2.39
885.839	-16.73
886.011	89.77
886.182	16.04
886.354	28.33
886.525	32.43
886.697	54.95
886.869	-22.87
887.04	-14.68
887.212	-8.53
887.383	22.19
887.555	108.2
887.726	-24.92
887.897	81.58
888.069	-6.49
888.24	77.48
888.412	40.62
888.583	32.43
888.754	-31.06
888.926	1.71
889.097	-8.53
889.268	-69.97
889.44	16.04
889.611	-65.88
889.782	32.43
889.953	-57.68
890.125	89.77
890.296	30.38
890.467	-18.77
890.638	46.76
890.809	50.86
890.98	5.8
891.151	52.91
891.323	48.81
891.494	40.62
891.665	-22.87
891.836	38.57
892.007	-2.39
892.178	63.15
892.349	7.85
892.52	28.33
892.691	-74.07
892.862	-0.34
893.032	-51.54
893.203	38.57
893.374	24.23
893.545	42.67
893.716	20.14
893.887	110.25
894.057	16.04
894.228	5.8
894.399	-24.92
894.57	59.05
894.74	20.14
894.911	81.58
895.082	-6.49
895.253	89.77
895.423	24.23
895.594	26.28
895.764	34.47
895.935	-0.34
896.106	1.71
896.276	42.67
896.447	-6.49
896.617	-18.77
896.788	24.23
896.958	38.57
897.129	-45.4
897.299	30.38
897.47	69.29
897.64	61.1
897.81	59.05
897.981	106.15
898.151	-43.35
898.322	46.76
898.492	5.8
898.662	34.47
898.832	9.9
899.003	13.99
899.173	36.52
899.343	11.95
899.513	42.67
