Data from USB4F104151__170__14-44-56-175.txt Node

Date: Thu Mar 13 14:44:56 EDT 2025
User: louis
Spectrometer: USB4F10415
Trigger mode: 4
Integration Time (sec): 2.000000E-2
Scans to average: 1
Electric dark correction enabled: true
Nonlinearity correction enabled: false
Boxcar width: 0
XAxis mode: Wavelengths
Number of Pixels in Spectrum: 3648
>>>>>Begin Spectral Data<<<<<
178.204	-51.54
178.424	-51.54
178.644	-51.54
178.864	-121.17
179.084	-117.08
179.304	-55.64
179.524	79.53
179.744	-37.2
179.964	-6.49
180.184	38.57
180.404	3.75
180.624	3.75
180.844	-6.49
181.064	5.8
181.283	-14.68
181.503	-24.92
181.723	13.99
181.943	-67.92
182.163	59.05
182.383	-31.06
182.602	-45.4
182.822	9.9
183.042	40.62
183.262	54.95
183.482	20.14
183.701	-31.06
183.921	22.19
184.141	-37.2
184.361	79.53
184.58	-10.58
184.8	-14.68
185.02	-43.35
185.239	85.67
185.459	34.47
185.679	18.09
185.898	-88.4
186.118	63.15
186.338	22.19
186.557	16.04
186.777	3.75
186.997	50.86
187.216	26.28
187.436	106.15
187.655	75.43
187.875	83.63
188.095	50.86
188.314	-6.49
188.534	83.63
188.753	-4.44
188.973	9.9
189.192	28.33
189.412	63.15
189.631	42.67
189.851	-2.39
190.07	36.52
190.29	20.14
190.509	63.15
190.729	-6.49
190.948	13.99
191.168	145.06
191.387	63.15
191.607	-6.49
191.826	24.23
192.045	32.43
192.265	-22.87
192.484	-4.44
192.704	20.14
192.923	-6.49
193.142	69.29
193.362	26.28
193.581	28.33
193.8	59.05
194.02	42.67
194.239	13.99
194.458	40.62
194.678	13.99
194.897	-22.87
195.116	-12.63
195.335	77.48
195.555	38.57
195.774	59.05
195.993	1.71
196.212	11.95
196.432	50.86
196.651	-10.58
196.87	3.75
197.089	38.57
197.308	-14.68
197.528	38.57
197.747	67.24
197.966	67.24
198.185	67.24
198.404	20.14
198.623	22.19
198.842	75.43
199.062	24.23
199.281	22.19
199.5	30.38
199.719	75.43
199.938	20.14
200.157	128.68
200.376	42.67
200.595	59.05
200.814	36.52
201.033	-26.96
201.252	75.43
201.471	38.57
201.69	79.53
201.909	65.19
202.128	57
202.347	50.86
202.566	61.1
202.785	13.99
203.004	-12.63
203.223	91.82
203.442	-12.63
203.661	-18.77
203.879	50.86
204.098	59.05
204.317	-20.82
204.536	38.57
204.755	42.67
204.974	-43.35
205.193	-26.96
205.411	71.34
205.63	38.57
205.849	104.11
206.068	28.33
206.287	42.67
206.505	61.1
206.724	18.09
206.943	38.57
207.162	-6.49
207.381	30.38
207.599	20.14
207.818	-22.87
208.037	18.09
208.255	38.57
208.474	114.34
208.693	67.24
208.911	-4.44
209.13	30.38
209.349	5.8
209.567	18.09
209.786	24.23
210.005	36.52
210.223	67.24
210.442	-18.77
210.661	50.86
210.879	65.19
211.098	-53.59
211.316	7.85
211.535	28.33
211.753	87.72
211.972	54.95
212.191	18.09
212.409	67.24
212.628	30.38
212.846	22.19
213.065	102.06
213.283	85.67
213.502	38.57
213.72	61.1
213.938	5.8
214.157	52.91
214.375	11.95
214.594	-4.44
214.812	54.95
215.031	42.67
215.249	-12.63
215.467	3.75
215.686	-37.2
215.904	91.82
216.122	28.33
216.341	38.57
216.559	30.38
216.778	-10.58
216.996	83.63
217.214	-6.49
217.432	-31.06
217.651	63.15
217.869	-12.63
218.087	69.29
218.306	18.09
218.524	34.47
218.742	26.28
218.96	1.71
219.179	104.11
219.397	38.57
219.615	-10.58
219.833	30.38
220.051	-63.83
220.27	22.19
220.488	26.28
220.706	75.43
220.924	24.23
221.142	48.81
221.36	18.09
221.578	36.52
221.796	59.05
222.015	30.38
222.233	-6.49
222.451	11.95
222.669	-22.87
222.887	42.67
223.105	42.67
223.323	59.05
223.541	20.14
223.759	42.67
223.977	16.04
224.195	36.52
224.413	9.9
224.631	-8.53
224.849	3.75
225.067	116.39
225.285	-35.16
225.503	11.95
225.721	36.52
225.939	67.24
226.157	46.76
226.375	54.95
226.592	-43.35
226.81	91.82
227.028	-18.77
227.246	104.11
227.464	1.71
227.682	57
227.9	9.9
228.117	34.47
228.335	26.28
228.553	28.33
228.771	20.14
228.989	11.95
229.206	77.48
229.424	104.11
229.642	-37.2
229.86	-47.44
230.077	50.86
230.295	18.09
230.513	22.19
230.731	77.48
230.948	73.39
231.166	9.9
231.384	40.62
231.601	9.9
231.819	61.1
232.037	22.19
232.254	-55.64
232.472	52.91
232.689	93.87
232.907	3.75
233.125	63.15
233.342	73.39
233.56	1.71
233.777	71.34
233.995	1.71
234.213	59.05
234.43	36.52
234.648	75.43
234.865	67.24
235.083	106.15
235.3	-14.68
235.518	61.1
235.735	116.39
235.953	24.23
236.17	71.34
236.388	18.09
236.605	-39.25
236.822	83.63
237.04	95.91
237.257	63.15
237.475	-31.06
237.692	-14.68
237.909	97.96
238.127	20.14
238.344	77.48
238.562	13.99
238.779	26.28
238.996	-22.87
239.214	-26.96
239.431	-0.34
239.648	59.05
239.865	9.9
240.083	9.9
240.3	24.23
240.517	-0.34
240.735	34.47
240.952	22.19
241.169	91.82
241.386	79.53
241.603	-12.63
241.821	-39.25
242.038	50.86
242.255	-4.44
242.472	50.86
242.689	95.91
242.907	46.76
243.124	5.8
243.341	-14.68
243.558	-29.01
243.775	20.14
243.992	20.14
244.209	-14.68
244.426	75.43
244.643	24.23
244.86	36.52
245.078	-22.87
245.295	118.44
245.512	20.14
245.729	-8.53
245.946	79.53
246.163	63.15
246.38	-20.82
246.597	52.91
246.814	1.71
247.031	-22.87
247.248	-8.53
247.464	61.1
247.681	32.43
247.898	77.48
248.115	67.24
248.332	13.99
248.549	-14.68
248.766	30.38
248.983	18.09
249.2	9.9
249.417	54.95
249.633	71.34
249.85	77.48
250.067	-39.25
250.284	67.24
250.501	38.57
250.717	77.48
250.934	11.95
251.151	50.86
251.368	83.63
251.585	-4.44
251.801	9.9
252.018	1.71
252.235	11.95
252.451	22.19
252.668	-22.87
252.885	-0.34
253.102	13.99
253.318	100.01
253.535	28.33
253.752	-59.73
253.968	20.14
254.185	28.33
254.401	-12.63
254.618	54.95
254.835	-8.53
255.051	42.67
255.268	5.8
255.484	52.91
255.701	-47.44
255.917	-14.68
256.134	-26.96
256.351	44.71
256.567	-39.25
256.784	36.52
257	-31.06
257.217	75.43
257.433	59.05
257.65	1.71
257.866	-14.68
258.082	16.04
258.299	-6.49
258.515	75.43
258.732	30.38
258.948	3.75
259.165	44.71
259.381	-4.44
259.597	83.63
259.814	38.57
260.03	-22.87
260.246	1.71
260.463	128.68
260.679	3.75
260.895	1.71
261.112	42.67
261.328	-6.49
261.544	11.95
261.761	71.34
261.977	-84.31
262.193	54.95
262.409	124.58
262.626	18.09
262.842	42.67
263.058	24.23
263.274	61.1
263.49	-4.44
263.707	59.05
263.923	-31.06
264.139	-22.87
264.355	93.87
264.571	50.86
264.787	-45.4
265.004	59.05
265.22	54.95
265.436	5.8
265.652	63.15
265.868	71.34
266.084	91.82
266.3	-24.92
266.516	-4.44
266.732	59.05
266.948	59.05
267.164	54.95
267.38	20.14
267.596	83.63
267.812	67.24
268.028	1.71
268.244	20.14
268.46	42.67
268.676	77.48
268.892	75.43
269.108	-80.21
269.324	9.9
269.54	1.71
269.756	18.09
269.972	-35.16
270.188	-53.59
270.403	36.52
270.619	18.09
270.835	108.2
271.051	34.47
271.267	18.09
271.483	61.1
271.698	34.47
271.914	102.06
272.13	44.71
272.346	-14.68
272.562	-96.6
272.777	116.39
272.993	30.38
273.209	54.95
273.425	-6.49
273.64	50.86
273.856	28.33
274.072	38.57
274.287	1.71
274.503	52.91
274.719	50.86
274.934	-14.68
275.15	-8.53
275.366	32.43
275.581	-45.4
275.797	-14.68
276.012	-2.39
276.228	36.52
276.444	61.1
276.659	36.52
276.875	20.14
277.09	-6.49
277.306	-33.11
277.521	85.67
277.737	50.86
277.952	79.53
278.168	-16.73
278.383	-24.92
278.599	-49.49
278.814	71.34
279.03	63.15
279.245	9.9
279.461	67.24
279.676	59.05
279.892	-0.34
280.107	-2.39
280.322	42.67
280.538	11.95
280.753	-14.68
280.969	30.38
281.184	67.24
281.399	34.47
281.615	-12.63
281.83	120.49
282.045	26.28
282.26	44.71
282.476	-2.39
282.691	100.01
282.906	11.95
283.122	20.14
283.337	1.71
283.552	30.38
283.767	16.04
283.983	79.53
284.198	57
284.413	9.9
284.628	-4.44
284.843	52.91
285.058	89.77
285.274	63.15
285.489	-43.35
285.704	34.47
285.919	-12.63
286.134	59.05
286.349	36.52
286.564	18.09
286.779	91.82
286.995	44.71
287.21	22.19
287.425	-14.68
287.64	-51.54
287.855	36.52
288.07	50.86
288.285	26.28
288.5	-12.63
288.715	34.47
288.93	-6.49
289.145	-4.44
289.36	18.09
289.575	18.09
289.79	140.97
290.004	11.95
290.219	38.57
290.434	44.71
290.649	44.71
290.864	79.53
291.079	-14.68
291.294	13.99
291.509	36.52
291.724	18.09
291.938	34.47
292.153	-43.35
292.368	16.04
292.583	1.71
292.798	85.67
293.012	-39.25
293.227	3.75
293.442	44.71
293.657	26.28
293.871	18.09
294.086	26.28
294.301	42.67
294.516	-4.44
294.73	50.86
294.945	26.28
295.16	-18.77
295.374	54.95
295.589	69.29
295.804	26.28
296.018	34.47
296.233	67.24
296.447	50.86
296.662	52.91
296.877	67.24
297.091	63.15
297.306	-8.53
297.52	18.09
297.735	71.34
297.949	-33.11
298.164	-4.44
298.378	-53.59
298.593	-0.34
298.807	-20.82
299.022	18.09
299.236	91.82
299.451	50.86
299.665	26.28
299.88	42.67
300.094	75.43
300.309	-22.87
300.523	22.19
300.737	69.29
300.952	11.95
301.166	50.86
301.381	34.47
301.595	69.29
301.809	20.14
302.024	11.95
302.238	-31.06
302.452	140.97
302.667	48.81
302.881	30.38
303.095	18.09
303.309	50.86
303.524	-31.06
303.738	-29.01
303.952	-0.34
304.166	30.38
304.381	9.9
304.595	153.26
304.809	46.76
305.023	57
305.237	36.52
305.452	59.05
305.666	18.09
305.88	-4.44
306.094	42.67
306.308	-14.68
306.522	-18.77
306.736	61.1
306.95	-6.49
307.164	11.95
307.379	26.28
307.593	34.47
307.807	22.19
308.021	26.28
308.235	59.05
308.449	11.95
308.663	110.25
308.877	126.63
309.091	44.71
309.305	26.28
309.519	-47.44
309.733	28.33
309.947	-4.44
310.161	91.82
310.374	104.11
310.588	-12.63
310.802	11.95
311.016	16.04
311.23	9.9
311.444	22.19
311.658	5.8
311.872	28.33
312.085	30.38
312.299	38.57
312.513	136.87
312.727	20.14
312.941	-22.87
313.154	91.82
313.368	-31.06
313.582	61.1
313.796	34.47
314.009	71.34
314.223	91.82
314.437	100.01
314.651	73.39
314.864	46.76
315.078	-22.87
315.292	-2.39
315.505	61.1
315.719	34.47
315.933	50.86
316.146	-6.49
316.36	32.43
316.573	36.52
316.787	75.43
317.001	34.47
317.214	-43.35
317.428	-31.06
317.641	-31.06
317.855	54.95
318.068	5.8
318.282	28.33
318.495	151.21
318.709	46.76
318.922	5.8
319.136	67.24
319.349	-4.44
319.563	38.57
319.776	42.67
319.99	-35.16
320.203	44.71
320.417	67.24
320.63	61.1
320.843	93.87
321.057	79.53
321.27	46.76
321.483	69.29
321.697	83.63
321.91	85.67
322.124	5.8
322.337	44.71
322.55	18.09
322.763	-61.78
322.977	-0.34
323.19	-10.58
323.403	77.48
323.617	-24.92
323.83	140.97
324.043	-10.58
324.256	67.24
324.469	50.86
324.683	97.96
324.896	-10.58
325.109	61.1
325.322	26.28
325.535	126.63
325.748	124.58
325.962	24.23
326.175	87.72
326.388	108.2
326.601	85.67
326.814	79.53
327.027	48.81
327.24	132.78
327.453	32.43
327.666	26.28
327.879	59.05
328.092	75.43
328.305	34.47
328.518	52.91
328.731	59.05
328.944	11.95
329.157	-4.44
329.37	91.82
329.583	57
329.796	91.82
330.009	46.76
330.222	38.57
330.435	22.19
330.648	69.29
330.861	46.76
331.073	77.48
331.286	22.19
331.499	18.09
331.712	28.33
331.925	11.95
332.138	102.06
332.35	83.63
332.563	-80.21
332.776	102.06
332.989	1.71
333.202	52.91
333.414	18.09
333.627	34.47
333.84	-2.39
334.053	42.67
334.265	52.91
334.478	28.33
334.691	-14.68
334.903	-4.44
335.116	-20.82
335.329	77.48
335.541	57
335.754	48.81
335.966	-18.77
336.179	83.63
336.392	118.44
336.604	52.91
336.817	91.82
337.029	34.47
337.242	48.81
337.454	91.82
337.667	16.04
337.88	79.53
338.092	79.53
338.305	42.67
338.517	-45.4
338.729	34.47
338.942	7.85
339.154	71.34
339.367	26.28
339.579	69.29
339.792	-16.73
340.004	102.06
340.217	9.9
340.429	9.9
340.641	11.95
340.854	44.71
341.066	1.71
341.278	67.24
341.491	108.2
341.703	75.43
341.915	59.05
342.128	112.3
342.34	97.96
342.552	11.95
342.764	44.71
342.977	-26.96
343.189	67.24
343.401	-45.4
343.613	-57.68
343.826	26.28
344.038	-35.16
344.25	87.72
344.462	-53.59
344.674	93.87
344.886	-16.73
345.099	59.05
345.311	54.95
345.523	63.15
345.735	-39.25
345.947	22.19
346.159	108.2
346.371	24.23
346.583	69.29
346.795	22.19
347.007	42.67
347.219	54.95
347.431	34.47
347.643	11.95
347.855	50.86
348.067	57
348.279	-16.73
348.491	54.95
348.703	67.24
348.915	44.71
349.127	30.38
349.339	-2.39
349.551	1.71
349.763	34.47
349.975	18.09
350.187	26.28
350.399	26.28
350.61	140.97
350.822	13.99
351.034	50.86
351.246	24.23
351.458	71.34
351.669	75.43
351.881	77.48
352.093	34.47
352.305	52.91
352.517	-10.58
352.728	143.02
352.94	67.24
353.152	28.33
353.363	-8.53
353.575	61.1
353.787	110.25
353.999	85.67
354.21	75.43
354.422	9.9
354.633	50.86
354.845	69.29
355.057	26.28
355.268	59.05
355.48	59.05
355.692	-4.44
355.903	50.86
356.115	-45.4
356.326	-63.83
356.538	81.58
356.749	22.19
356.961	120.49
357.172	-45.4
357.384	3.75
357.595	52.91
357.807	-2.39
358.018	3.75
358.23	20.14
358.441	132.78
358.653	65.19
358.864	36.52
359.075	1.71
359.287	54.95
359.498	61.1
359.709	42.67
359.921	20.14
360.132	59.05
360.344	18.09
360.555	1.71
360.766	30.38
360.977	69.29
361.189	50.86
361.4	9.9
361.611	40.62
361.823	89.77
362.034	46.76
362.245	36.52
362.456	71.34
362.667	44.71
362.879	46.76
363.09	52.91
363.301	30.38
363.512	30.38
363.723	102.06
363.935	-18.77
364.146	67.24
364.357	22.19
364.568	1.71
364.779	40.62
364.99	32.43
365.201	-10.58
365.412	110.25
365.623	9.9
365.834	63.15
366.045	59.05
366.256	104.11
366.467	1.71
366.678	126.63
366.889	38.57
367.1	34.47
367.311	104.11
367.522	59.05
367.733	24.23
367.944	54.95
368.155	1.71
368.366	20.14
368.577	95.91
368.788	20.14
368.999	71.34
369.209	71.34
369.42	52.91
369.631	83.63
369.842	20.14
370.053	73.39
370.264	54.95
370.474	75.43
370.685	75.43
370.896	42.67
371.107	108.2
371.317	22.19
371.528	59.05
371.739	59.05
371.95	108.2
372.16	20.14
372.371	-6.49
372.582	52.91
372.792	75.43
373.003	44.71
373.214	28.33
373.424	67.24
373.635	20.14
373.846	75.43
374.056	81.58
374.267	102.06
374.477	75.43
374.688	-22.87
374.898	1.71
375.109	-39.25
375.319	5.8
375.53	128.68
375.74	151.21
375.951	28.33
376.161	38.57
376.372	118.44
376.582	38.57
376.793	102.06
377.003	61.1
377.214	26.28
377.424	106.15
377.635	18.09
377.845	-4.44
378.055	132.78
378.266	75.43
378.476	44.71
378.686	22.19
378.897	40.62
379.107	30.38
379.317	-39.25
379.528	73.39
379.738	52.91
379.948	28.33
380.158	42.67
380.369	26.28
380.579	110.25
380.789	102.06
380.999	102.06
381.21	30.38
381.42	110.25
381.63	52.91
381.84	22.19
382.05	67.24
382.261	118.44
382.471	44.71
382.681	34.47
382.891	42.67
383.101	-4.44
383.311	36.52
383.521	50.86
383.731	34.47
383.941	57
384.151	-10.58
384.361	50.86
384.571	-4.44
384.781	50.86
384.991	48.81
385.201	34.47
385.411	40.62
385.621	79.53
385.831	7.85
386.041	48.81
386.251	34.47
386.461	108.2
386.671	73.39
386.881	159.4
387.091	67.24
387.301	67.24
387.511	69.29
387.72	30.38
387.93	67.24
388.14	36.52
388.35	59.05
388.56	108.2
388.769	120.49
388.979	91.82
389.189	-29.01
389.399	-20.82
389.609	61.1
389.818	69.29
390.028	42.67
390.238	46.76
390.447	69.29
390.657	120.49
390.867	46.76
391.076	28.33
391.286	18.09
391.496	11.95
391.705	145.06
391.915	79.53
392.125	124.58
392.334	-20.82
392.544	77.48
392.753	93.87
392.963	-4.44
393.172	75.43
393.382	-4.44
393.591	91.82
393.801	32.43
394.01	36.52
394.22	75.43
394.429	22.19
394.639	108.2
394.848	50.86
395.058	116.39
395.267	77.48
395.477	93.87
395.686	93.87
395.895	108.2
396.105	93.87
396.314	91.82
396.524	104.11
396.733	57
396.942	104.11
397.152	83.63
397.361	91.82
397.57	38.57
397.78	44.71
397.989	100.01
398.198	65.19
398.407	89.77
398.617	143.02
398.826	83.63
399.035	79.53
399.244	126.63
399.453	42.67
399.663	112.3
399.872	124.58
400.081	-0.34
400.29	165.54
400.499	42.67
400.708	100.01
400.917	87.72
401.127	128.68
401.336	102.06
401.545	153.26
401.754	108.2
401.963	235.18
402.172	128.68
402.381	26.28
402.59	95.91
402.799	100.01
403.008	69.29
403.217	108.2
403.426	151.21
403.635	183.98
403.844	128.68
404.053	59.05
404.262	75.43
404.471	122.54
404.68	91.82
404.888	134.82
405.097	126.63
405.306	110.25
405.515	122.54
405.724	89.77
405.933	165.54
406.142	190.12
406.35	132.78
406.559	108.2
406.768	140.97
406.977	171.69
407.185	167.59
407.394	177.83
407.603	161.45
407.812	190.12
408.02	231.08
408.229	251.56
408.438	206.5
408.646	214.7
408.855	216.74
409.064	255.65
409.272	263.85
409.481	315.05
409.69	192.17
409.898	235.18
410.107	374.44
410.315	321.19
410.524	249.51
410.733	304.81
410.941	323.24
411.15	345.77
411.358	341.67
411.567	396.96
411.775	327.33
411.984	337.57
412.192	378.53
412.401	437.92
412.609	376.48
412.818	429.73
413.026	399.01
413.234	413.35
413.443	476.84
413.651	462.5
413.86	509.6
414.068	607.91
414.276	566.95
414.485	513.7
414.693	634.53
414.901	577.19
415.11	636.58
415.318	581.28
415.526	620.19
415.734	710.3
415.943	708.26
416.151	738.98
416.359	732.83
416.567	755.36
416.776	839.33
416.984	874.14
417.192	882.33
417.4	890.53
417.608	870.05
417.817	863.9
418.025	1031.83
418.233	1040.03
418.441	902.81
418.649	939.68
418.857	1279.64
419.065	1064.6
419.273	1134.23
419.481	1183.38
419.689	1310.36
419.897	1345.17
420.105	1273.5
420.313	1423
420.521	1480.34
420.729	1423
420.937	1470.1
421.145	1617.55
421.353	1638.03
421.561	1640.08
421.769	1738.38
421.977	1914.51
422.185	1773.2
422.393	1846.93
422.601	2008.72
422.809	2023.05
423.017	2016.91
423.224	2090.63
423.432	2205.32
423.64	2160.27
423.848	2328.2
424.056	2258.57
424.263	2453.13
424.471	2485.89
424.679	2653.83
424.887	2561.67
425.094	2819.71
425.302	2791.04
425.51	2963.07
425.718	3016.32
425.925	3024.51
426.133	3147.39
426.341	3286.65
426.548	3348.09
426.756	3378.81
426.964	3532.4
427.171	3686
427.379	3780.21
427.586	3794.54
427.794	3974.77
428.001	4144.75
428.209	4290.15
428.417	4230.76
428.624	4466.28
428.832	4486.76
429.039	4511.33
429.247	4509.29
429.454	4990.56
429.662	5080.67
429.869	4963.93
430.076	5320.28
430.284	5181.02
430.491	5412.44
430.699	5647.96
430.906	5637.72
431.114	5815.89
431.321	5895.76
431.528	6084.17
431.736	6530.63
431.943	6717
432.15	6510.15
432.358	6694.47
432.565	6999.62
432.772	6934.08
432.979	7263.8
433.187	7425.59
433.394	7431.74
433.601	8021.55
433.808	7964.21
434.016	7894.58
434.223	8306.22
434.43	8642.09
434.637	8465.96
434.844	9117.22
435.052	9324.06
435.259	9291.29
435.466	9317.92
435.673	9057.82
435.88	9817.62
436.087	10022.42
436.294	10391.05
436.501	10167.82
436.708	10143.25
436.915	10520.07
437.122	11077.12
437.329	10923.52
437.537	11519.48
437.743	11709.94
437.95	11509.24
438.157	12054
438.364	12545.52
438.571	12563.95
438.778	12584.43
438.985	13645.27
439.192	13172.19
439.399	13420
439.606	13293.02
439.813	13964.76
440.02	14996.93
440.227	14560.72
440.433	14468.56
440.64	14826.95
440.847	14691.79
441.054	15099.33
441.261	16092.6
441.467	15848.89
441.674	16330.16
441.881	16907.69
442.088	16782.76
442.294	16813.48
442.501	17081.77
442.708	17309.09
442.914	18046.36
443.121	18933.13
443.328	18148.76
443.534	19588.48
443.741	19049.86
443.948	18673.04
444.154	20460.91
444.361	20022.65
444.568	20290.93
444.774	20227.45
444.981	20364.66
445.187	20895.08
445.394	22009.18
445.6	21654.88
445.807	23842.11
446.013	22791.5
446.22	22955.34
446.426	23987.52
446.633	24026.43
446.839	25105.71
447.046	24048.96
447.252	25163.05
447.459	25251.11
447.665	25103.66
447.871	26488.09
448.078	27673.86
448.284	26117.4
448.491	26699.03
448.697	27843.84
448.903	28480.76
449.11	28423.42
449.316	27938.05
449.522	28583.16
449.728	29471.98
449.935	29506.79
450.141	29555.94
450.347	30117.09
450.553	29316.33
450.76	29859.04
450.966	30737.62
451.172	30379.23
451.378	31386.83
451.584	30756.05
451.791	31524.04
451.997	31315.15
452.203	31575.24
452.409	31608.01
452.615	32044.23
452.821	30457.05
453.027	30207.2
453.233	31995.07
453.44	30500.06
453.646	30780.63
453.852	30899.41
454.058	31618.25
454.264	30581.98
454.47	31603.91
454.676	30672.09
454.882	31476.94
455.088	28794.1
455.294	29332.72
455.5	29705.45
455.705	30334.17
455.911	28964.08
456.117	28443.9
456.323	27997.44
456.529	26713.36
456.735	27794.69
456.941	26952.98
457.147	26379.54
457.352	25779.49
457.558	25802.02
457.764	25842.98
457.97	25113.9
458.176	24556.85
458.381	24509.75
458.587	23551.3
458.793	23422.28
458.999	22312.28
459.204	23887.17
459.41	23104.84
459.616	21646.69
459.821	21605.73
460.027	21540.19
460.233	20931.95
460.438	20221.3
460.644	20456.82
460.85	19400.07
461.055	18902.41
461.261	19271.04
461.466	17776.03
461.672	17223.08
461.878	18363.79
462.083	17229.22
462.289	16756.14
462.494	16442.8
462.7	16008.63
462.905	15390.14
463.111	15875.51
463.316	15914.42
463.522	15730.11
463.727	15566.27
463.932	15795.64
464.138	15486.4
464.343	15754.68
464.549	15304.13
464.754	15754.68
464.959	15453.63
465.165	15658.43
465.37	14833.1
465.575	14331.34
465.781	14908.87
465.986	15027.65
466.191	14673.35
466.397	14153.17
466.602	13587.93
466.807	14011.86
467.012	13813.21
467.218	13710.81
467.423	13682.14
467.628	13608.41
467.833	14443.98
468.038	13637.08
468.244	13508.06
468.449	14044.63
468.654	13417.95
468.859	13477.34
469.064	13348.32
469.269	12768.74
469.474	13055.46
469.679	13278.69
469.885	12969.44
470.09	12938.73
470.295	12895.72
470.5	12602.86
470.705	12867.05
470.91	12486.12
471.115	12447.21
471.32	12529.13
471.525	12248.56
471.73	12097.01
471.935	12004.85
472.139	11638.27
472.344	11896.31
472.549	11716.09
472.754	11568.63
472.959	11372.03
473.164	11261.44
473.369	11003.39
473.574	11494.91
473.778	11175.42
473.983	11392.51
474.188	11150.85
474.393	10726.92
474.598	10720.78
474.802	10581.51
475.007	10642.95
475.212	10671.62
475.417	10163.73
475.621	10311.18
475.826	10372.62
476.031	9975.31
476.235	9791
476.44	10077.71
476.645	9778.71
476.849	9858.58
477.054	9582.1
477.259	9354.78
477.463	9438.75
477.668	9358.88
477.872	9408.03
478.077	9301.53
478.282	9086.5
478.486	9002.53
478.691	8984.1
478.895	8873.51
479.1	8941.09
479.304	8795.68
479.509	8689.19
479.713	8652.33
479.918	8570.41
480.122	8416.81
480.326	8594.98
480.531	8588.84
480.735	8367.66
480.94	8310.32
481.144	8693.29
481.348	8048.18
481.553	8400.43
481.757	8138.29
481.961	8252.97
482.166	8269.36
482.37	8285.74
482.574	8162.86
482.778	8138.29
482.983	8259.12
483.187	8255.02
483.391	8250.92
483.595	7980.59
483.8	8011.31
484.004	8250.92
484.208	8095.28
484.412	8138.29
484.616	8128.05
484.821	8099.38
485.025	7990.83
485.229	8085.04
485.433	8052.27
485.637	7988.78
485.841	8062.51
486.045	8224.3
486.249	8152.62
486.453	7874.1
486.657	7972.4
486.861	8197.68
487.065	7949.87
487.269	8070.7
487.473	7947.83
487.677	8146.48
487.881	8054.32
488.085	7867.95
488.289	8214.06
488.493	8023.6
488.697	8187.44
488.901	8023.6
489.105	8126
489.309	8279.6
489.512	8056.37
489.716	8197.68
489.92	8222.25
490.124	8078.9
490.328	8345.13
490.531	8433.19
490.735	8367.66
490.939	8316.46
491.143	8334.89
491.346	8283.69
491.55	8603.18
491.754	8521.26
491.958	8590.89
492.161	8508.97
492.365	8480.3
492.569	8484.39
492.772	8543.78
492.976	8746.53
493.18	8668.71
493.383	8650.28
493.587	8754.73
493.79	8810.02
493.994	8637.99
494.197	8969.76
494.401	8980
494.605	8980
494.808	8885.8
495.012	9082.4
495.215	9074.21
495.419	9102.88
495.622	9160.22
495.825	9311.77
496.029	9485.85
496.232	9487.9
496.436	9518.62
496.639	9702.93
496.843	9678.36
497.046	9971.22
497.249	10085.9
497.453	9891.35
497.656	10155.54
497.859	9930.26
498.063	10296.85
498.266	10587.66
498.469	10468.87
498.673	10647.05
498.876	10849.8
499.079	10618.38
499.282	10860.04
499.485	11032.07
499.689	11058.69
499.892	11214.34
500.095	11013.63
500.298	11556.35
500.501	11339.26
500.705	11582.97
500.908	11824.63
501.111	12029.43
501.314	12082.67
501.517	12199.41
501.72	12535.28
501.923	12176.88
502.126	12656.11
502.329	12817.9
502.532	12787.18
502.735	12991.97
502.938	13071.84
503.141	13319.65
503.344	13336.03
503.547	13495.77
503.75	13690.33
503.953	13739.48
504.156	13919.7
504.359	14212.56
504.562	13985.24
504.765	14396.88
504.968	14722.51
505.17	14816.71
505.373	14777.8
505.576	15275.46
505.779	15158.72
505.982	15408.58
506.185	15744.44
506.387	15695.29
506.59	15805.88
506.793	16039.35
506.996	15914.42
507.198	16389.55
507.401	16438.7
507.604	16594.35
507.807	16858.54
508.009	16891.3
508.212	16895.4
508.415	17335.71
508.617	17560.99
508.82	17669.53
509.022	17507.74
509.225	18132.37
509.428	18070.93
509.63	18347.41
509.833	18376.08
510.035	18656.65
510.238	18832.78
510.44	18894.22
510.643	19221.89
510.845	19324.29
511.048	19434.88
511.25	19746.17
511.453	19692.93
511.655	20120.95
511.858	19891.58
512.06	20591.98
512.262	20534.64
512.465	20604.27
512.667	21108.07
512.87	21210.47
513.072	21022.06
513.274	21538.15
513.477	21677.41
513.679	21812.57
513.881	22058.33
514.084	22498.64
514.286	22818.13
514.488	22521.17
514.69	23254.34
514.893	23135.56
515.095	23258.44
515.297	23547.2
515.499	23559.49
515.701	24057.15
515.904	24333.62
516.106	24425.78
516.308	24458.55
516.51	24792.37
516.712	24802.61
516.914	25152.81
517.116	25597.22
517.318	25818.4
517.52	25601.32
517.722	25849.12
517.925	26234.14
518.127	26553.62
518.329	26719.51
518.531	26676.5
518.733	27086.09
518.935	27362.57
519.136	27497.74
519.338	27890.95
519.54	27743.49
519.742	28247.29
519.944	28169.47
520.146	28687.6
520.348	28609.78
520.55	28910.83
520.752	29035.76
520.954	29375.72
521.155	29490.41
521.357	29803.75
521.559	29957.35
521.761	30557.4
521.963	30536.92
522.164	30301.4
522.366	30581.98
522.568	30876.88
522.77	31110.35
522.971	31321.29
523.173	31280.33
523.375	31849.67
523.576	31763.65
523.778	31628.49
523.98	32457.92
524.181	32425.15
524.383	32224.45
524.584	32738.49
524.786	32621.75
524.988	32574.65
525.189	33199.28
525.391	33418.41
525.592	33563.82
525.794	33275.05
525.995	33408.17
526.197	33365.17
526.398	33637.55
526.6	34108.58
526.801	34016.42
527.003	34131.11
527.204	34114.72
527.406	34643.1
527.607	34512.03
527.808	34608.28
528.01	34542.75
528.211	34847.89
528.412	35222.67
528.614	35157.14
528.815	35445.9
529.016	35226.77
529.218	35050.64
529.419	35243.15
529.62	35351.7
529.822	35527.82
530.023	35472.53
530.224	35609.74
530.425	35878.02
530.626	35306.64
530.828	35265.68
531.029	36086.92
531.23	35736.71
531.431	35384.46
531.632	35939.46
531.833	36045.96
532.035	35912.84
532.236	36086.92
532.437	36017.29
532.638	35970.18
532.839	36437.12
533.04	36209.79
533.241	35863.69
533.442	36664.44
533.643	36465.79
533.844	36002.95
534.045	36166.79
534.246	35992.71
534.447	36504.7
534.648	36156.55
534.849	36555.9
535.05	36418.69
535.251	36275.33
535.451	35951.75
535.652	36193.41
535.853	36461.69
536.054	36453.5
536.255	36271.23
536.456	35542.16
536.657	36764.79
536.857	36107.4
537.058	36088.96
537.259	36820.09
537.46	36557.95
537.66	36172.93
537.861	36306.05
538.062	35939.46
538.263	36295.81
538.463	36424.83
538.664	36353.15
538.865	36172.93
539.065	36351.1
539.266	36045.96
539.466	36355.2
539.667	35916.93
539.868	36267.14
540.068	35916.93
540.269	35982.47
540.469	36496.51
540.67	36037.76
540.87	35937.41
541.071	35937.41
541.271	36422.78
541.472	36070.53
541.672	36131.97
541.873	36002.95
542.073	35931.27
542.274	36316.29
542.474	35959.94
542.675	36498.56
542.875	36449.41
543.075	35863.69
543.276	35619.98
543.476	36138.12
543.676	35720.33
543.877	36150.4
544.077	35751.05
544.277	35929.22
544.478	36048
544.678	36031.62
544.878	36148.36
545.078	36080.77
545.279	35599.5
545.479	36015.24
545.679	35972.23
545.879	35880.07
546.079	35683.47
546.28	35626.12
546.48	35357.84
546.68	35857.54
546.88	35986.57
547.08	35525.77
547.28	35806.34
547.48	35292.3
547.68	35699.85
547.88	35558.54
548.081	35976.33
548.281	35603.6
548.481	35787.91
548.681	35955.85
548.881	35499.15
549.081	35206.29
549.28	35470.48
549.48	35611.79
549.68	35681.42
549.88	36119.68
550.08	35460.24
550.28	35429.52
550.48	35339.41
550.68	35757.19
550.88	35488.91
551.08	35918.98
551.279	35533.96
551.479	35513.48
551.679	35644.55
551.879	35237.01
552.079	35648.65
552.278	35181.71
552.478	35038.36
552.678	35292.3
552.878	35206.29
553.077	35503.24
553.277	35046.55
553.477	35701.9
553.676	35153.04
553.876	35155.09
554.076	35224.72
554.275	35040.4
554.475	34895
554.674	35200.15
554.874	34901.14
555.074	34897.05
555.273	35093.65
555.473	35413.13
555.672	35216.53
555.872	34851.99
556.071	34694.3
556.271	35032.21
556.47	34798.74
556.67	34319.52
556.869	34833.56
557.068	34716.82
557.268	34503.84
557.467	34677.91
557.667	34772.12
557.866	34917.53
558.065	34647.19
558.265	34399.39
558.464	34186.4
558.663	34995.35
558.863	34155.68
559.062	34739.35
559.261	34200.74
559.461	34565.28
559.66	34086.05
559.859	34172.07
560.058	33975.46
560.258	34266.27
560.457	33713.32
560.656	34493.6
560.855	33930.4
561.054	33883.3
561.253	33694.89
561.453	34315.42
561.652	33797.29
561.851	34231.46
562.05	33531.05
562.249	33649.83
562.448	33598.63
562.647	33674.41
562.846	33535.15
563.045	33414.32
563.244	33496.24
563.443	33674.41
563.642	33105.07
563.841	33242.29
564.04	32959.67
564.239	33422.51
564.438	32828.6
564.637	33221.81
564.836	33154.22
565.035	32611.51
565.234	32771.25
565.432	32679.1
565.631	32646.33
565.83	32707.77
566.029	32339.13
566.228	32703.67
566.427	32361.66
566.625	32433.34
566.824	32216.26
567.023	32216.26
567.222	31919.3
567.42	32347.33
567.619	32236.73
567.818	31943.88
568.016	31769.8
568.215	31864
568.414	32169.15
568.612	31890.63
568.811	31581.38
569.01	31431.88
569.208	31237.33
569.407	31683.78
569.605	31237.33
569.804	31515.85
570.002	31272.14
570.201	31390.92
570.4	31030.48
570.598	30829.78
570.797	30754.01
570.995	30856.4
571.193	30325.98
571.392	30944.47
571.59	30457.05
571.789	30272.73
571.987	30211.29
572.186	30792.92
572.384	30172.38
572.582	30399.71
572.781	30348.51
572.979	30201.05
573.177	30133.47
573.376	30178.53
573.574	29830.37
573.772	30004.45
573.971	29801.7
574.169	29699.3
574.367	29631.72
574.565	29463.79
574.763	29547.75
574.962	29666.53
575.16	29005.04
575.358	29322.48
575.556	29046
575.754	29680.87
575.952	28853.49
576.151	28949.74
576.349	28835.06
576.547	28605.69
576.745	28888.31
576.943	29314.28
577.141	28744.95
577.339	28800.24
577.537	28343.55
577.735	28689.65
577.933	28433.66
578.131	28695.8
578.329	27964.67
578.527	28171.52
578.725	28124.41
578.923	28130.56
579.121	27989.25
579.319	27938.05
579.516	28388.6
579.714	28077.31
579.912	27804.93
580.11	27647.24
580.308	27907.33
580.506	27591.94
580.704	27399.43
580.901	27602.18
581.099	27589.89
581.297	27258.12
581.495	27479.3
581.692	27292.94
581.89	26848.53
582.088	26961.17
582.285	27262.22
582.483	27262.22
582.681	27094.29
582.878	26993.93
583.076	26574.1
583.274	26674.45
583.471	26426.65
583.669	26357.02
583.866	26369.3
584.064	26246.43
584.262	26010.91
584.459	26518.81
584.657	26277.15
584.854	26416.41
585.052	26082.59
585.249	25900.32
585.447	25806.11
585.644	25701.67
585.841	26019.1
586.039	25748.77
586.236	25500.97
586.434	25574.69
586.631	25244.97
586.828	25685.28
587.026	25320.74
587.223	25333.03
587.42	24823.09
587.618	25482.53
587.815	24649.01
588.012	24501.56
588.21	24958.25
588.407	24972.59
588.604	24450.36
588.801	24849.71
588.999	24577.33
589.196	24485.17
589.393	24601.91
589.59	24687.92
589.787	24075.58
589.984	24272.18
590.182	23924.03
590.379	24374.58
590.576	24065.34
590.773	24083.77
590.97	23708.99
591.167	24028.48
591.364	23749.95
591.561	23643.46
591.758	23506.24
591.955	23559.49
592.152	23823.68
592.349	23450.95
592.546	23409.99
592.743	23524.68
592.94	22725.97
593.137	23530.82
593.334	23465.28
593.531	22670.67
593.727	23160.14
593.924	23094.6
594.121	22785.36
594.318	22879.57
594.515	22814.03
594.712	22820.17
594.908	22693.2
595.105	22803.79
595.302	22674.77
595.499	22711.63
595.696	22238.55
595.892	22093.15
596.089	22359.38
596.286	22168.92
596.482	22080.86
596.679	22154.58
596.876	22039.9
597.072	21906.78
597.269	22158.68
597.466	21611.87
597.662	21728.61
597.859	21497.19
598.055	21583.2
598.252	21513.57
598.448	21724.51
598.645	21527.91
598.841	21175.66
599.038	21226.85
599.234	21271.91
599.431	21175.66
599.627	21171.56
599.824	21183.85
600.02	20950.38
600.217	21063.02
600.413	21028.2
600.609	20729.2
600.806	20804.97
601.002	20934
601.198	20725.1
601.395	20524.4
601.591	20514.16
601.787	20628.85
601.984	20370.8
602.18	20419.96
602.376	20217.21
602.572	20172.15
602.769	20100.47
602.965	20018.55
603.161	19991.93
603.357	19778.94
603.553	19993.98
603.75	19977.59
603.946	19631.49
604.142	19858.81
604.338	19424.64
604.534	19639.68
604.73	19457.41
604.926	19348.87
605.122	19559.81
605.318	19215.75
605.514	19357.06
605.71	19373.44
605.906	19312
606.102	19170.69
606.298	19125.64
606.494	19027.34
606.69	19064.2
606.886	19367.3
607.082	18959.75
607.278	18867.59
607.474	18625.93
607.67	19088.78
607.866	18314.64
608.062	18781.58
608.257	18486.67
608.453	18703.76
608.649	18521.49
608.845	18474.38
609.041	18300.31
609.236	18285.97
609.432	18781.58
609.628	18449.81
609.824	18376.08
610.019	18156.95
610.215	18392.47
610.411	18161.05
610.606	17911.19
610.802	18017.69
610.998	18005.4
611.193	18093.46
611.389	17913.24
611.584	17798.56
611.78	17698.2
611.976	17880.47
612.171	17917.34
612.367	17853.85
612.562	17970.58
612.758	17626.53
612.953	17421.73
613.149	17862.04
613.344	17393.06
613.539	17659.29
613.735	17773.98
613.93	17741.21
614.126	17329.57
614.321	17524.13
614.517	17593.76
614.712	17405.35
614.907	17411.49
615.103	17378.72
615.298	17102.25
615.493	17419.68
615.688	17196.45
615.884	17489.31
616.079	17092.01
616.274	17202.6
616.47	17304.99
616.665	17186.21
616.86	16948.65
617.055	16864.68
617.25	16967.08
617.445	17280.42
617.641	16758.19
617.836	17077.67
618.031	16549.29
618.226	16700.84
618.421	16833.96
618.616	16985.51
618.811	16661.93
619.006	16932.26
619.201	16174.52
619.396	16463.28
619.591	15895.99
619.786	16303.54
619.981	16125.36
620.176	16385.46
620.371	16008.63
620.566	16096.69
620.761	15820.22
620.956	15777.21
621.151	15750.59
621.346	16000.44
621.541	15549.89
621.735	15701.44
621.93	15437.25
622.125	15570.37
622.32	15246.79
622.515	15349.18
622.709	15136.2
622.904	15230.4
623.099	15320.51
623.294	14970.31
623.488	14865.86
623.683	14798.28
623.878	14753.23
624.072	14663.11
624.267	14665.16
624.462	14503.37
624.656	14351.82
624.851	14323.15
625.046	14347.73
625.24	14415.31
625.435	14026.2
625.629	14013.91
625.824	13891.03
626.018	13958.61
626.213	13594.08
626.407	13772.25
626.602	13540.83
626.796	13741.53
626.991	13616.6
627.185	13436.38
627.38	13575.64
627.574	13239.78
627.768	13290.98
627.963	13080.04
628.157	12957.16
628.352	13284.83
628.546	12832.23
628.74	13149.67
628.935	12789.22
629.129	12998.12
629.323	12740.07
629.517	12729.83
629.712	12574.19
629.906	12500.46
630.1	12322.29
630.294	12279.28
630.489	12465.64
630.683	12479.98
630.877	12043.76
631.071	11996.66
631.265	12092.91
631.459	12080.63
631.653	11830.77
631.848	11718.14
632.042	11806.2
632.236	11904.5
632.43	11658.74
632.624	11646.46
632.818	11761.14
633.012	11456
633.206	11636.22
633.4	11449.85
633.594	11220.48
633.788	11480.57
633.982	11318.78
634.176	11249.15
634.369	11003.39
634.563	11173.38
634.757	10941.96
634.951	10929.67
635.145	10685.96
635.339	10630.66
635.533	10626.57
635.726	11038.21
635.92	10366.48
636.114	10774.02
636.308	10638.86
636.501	10475.02
636.695	10251.79
636.889	10378.76
637.083	10325.52
637.276	10348.04
637.47	10253.84
637.664	10282.51
637.857	10145.3
638.051	9963.03
638.244	10126.86
638.438	10020.37
638.632	9805.33
638.825	9850.39
639.019	9795.09
639.212	9764.37
639.406	9764.37
639.599	9594.39
639.793	9524.76
639.986	9467.42
640.18	9532.95
640.373	9518.62
640.567	9315.87
640.76	9240.09
640.954	9332.25
641.147	9238.05
641.34	9162.27
641.534	9213.47
641.727	9276.96
641.92	9164.32
642.114	9090.59
642.307	9053.73
642.5	8787.49
642.694	8748.58
642.887	8889.89
643.08	8898.08
643.273	8832.55
643.467	8717.86
643.66	8666.66
643.853	8599.08
644.046	8457.77
644.239	8425
644.432	8267.31
644.626	8367.66
644.819	8408.62
645.012	8314.41
645.205	8207.92
645.398	8398.38
645.591	8095.28
645.784	8189.49
645.977	8185.39
646.17	8033.84
646.363	7865.91
646.556	8031.79
646.749	8062.51
646.942	8005.17
647.135	7949.87
647.328	7802.42
647.521	7677.49
647.714	7591.48
647.907	7704.12
648.099	7726.64
648.292	7554.62
648.485	7554.62
648.678	7605.81
648.871	7560.76
649.064	7454.26
649.256	7478.84
649.449	7124.54
649.642	7310.91
649.835	7274.04
650.027	7200.32
650.22	7128.64
650.413	7149.12
650.605	7040.58
650.798	7165.5
650.991	7097.92
651.183	7163.45
651.376	6827.59
651.568	7067.2
651.761	7005.76
651.954	7005.76
652.146	7065.15
652.339	6919.75
652.531	6874.69
652.724	6782.53
652.916	6637.13
653.109	6616.65
653.301	6612.55
653.494	6571.59
653.686	6485.58
653.879	6440.52
654.071	6454.86
654.263	6364.75
654.456	6272.59
654.648	6499.91
654.84	6305.35
655.033	6241.87
655.225	6377.03
655.417	6461
655.61	6299.21
655.802	6321.74
655.994	6073.93
656.186	6182.48
656.379	6053.45
656.571	6075.98
656.763	6071.89
656.955	5830.23
657.148	6073.93
657.34	5928.53
657.532	5740.12
657.724	5973.58
657.916	5908.05
658.108	5738.07
658.3	5793.36
658.492	5645.91
658.684	5490.26
658.876	5604.95
659.068	5744.21
659.26	5600.85
659.452	5768.79
659.644	5613.14
659.836	5525.08
660.028	5768.79
660.22	5471.83
660.412	5387.86
660.604	5402.2
660.796	5465.69
660.988	5359.19
661.18	5412.44
661.372	5336.67
661.563	5334.62
661.755	5049.95
661.947	5334.62
662.139	5135.96
662.331	5156.44
662.522	4949.6
662.714	4892.26
662.906	5164.64
663.097	5105.24
663.289	5002.85
663.481	5080.67
663.673	4990.56
663.864	4884.06
664.056	5004.89
664.247	4914.78
664.439	4865.63
664.631	4863.58
664.822	4968.03
665.014	4812.39
665.205	4681.32
665.397	4761.19
665.588	4802.15
665.78	4605.54
665.971	4654.69
666.163	4701.79
666.354	4712.03
666.546	4695.65
666.737	4449.89
666.929	4449.89
667.12	4486.76
667.311	4509.29
667.503	4476.52
667.694	4656.74
667.885	4417.13
668.077	4482.66
668.268	4253.29
668.459	4408.94
668.651	4501.09
668.842	4286.06
669.033	4329.06
669.224	4400.74
669.416	4431.46
669.607	4292.2
669.798	4179.56
669.989	4251.24
670.18	4238.95
670.371	4267.63
670.563	4114.03
670.754	4144.75
670.945	4105.84
671.136	4161.13
671.327	4073.07
671.518	4081.26
671.709	4040.3
671.9	4181.61
672.091	4148.84
672.282	4107.88
672.473	4154.99
672.664	3954.29
672.855	3917.42
673.046	4023.92
673.237	3954.29
673.428	3827.31
673.619	3978.86
673.809	3798.64
674	3917.42
674.191	3765.87
674.382	3888.75
674.573	3843.7
674.764	3765.87
674.954	3812.98
675.145	3810.93
675.336	3827.31
675.527	3835.5
675.717	3860.08
675.908	3671.67
676.099	3808.88
676.289	3753.59
676.48	3696.24
676.671	3643
676.861	3673.71
677.052	3630.71
677.243	3630.71
677.433	3665.52
677.624	3636.85
677.814	3559.03
678.005	3616.37
678.195	3626.61
678.386	3630.71
678.576	3532.4
678.767	3618.42
678.957	3526.26
679.148	3483.25
679.338	3481.21
679.529	3458.68
679.719	3430.01
679.909	3604.08
680.1	3419.77
680.29	3577.46
680.481	3487.35
680.671	3536.5
680.861	3450.49
681.052	3389.05
681.242	3427.96
681.432	3427.96
681.622	3317.37
681.813	3384.95
682.003	3409.53
682.193	3278.46
682.383	3321.46
682.573	3376.76
682.764	3401.33
682.954	3257.98
683.144	3315.32
683.334	3223.16
683.524	3335.8
683.714	3307.13
683.904	3253.88
684.094	3362.42
684.284	3231.35
684.474	3346.04
684.664	3208.83
684.854	3245.69
685.044	3163.77
685.234	3184.25
685.424	3348.09
685.614	3075.71
685.804	3221.11
685.994	3262.07
686.184	3122.81
686.374	3114.62
686.564	3110.52
686.753	3147.39
686.943	2909.82
687.133	3036.8
687.323	3057.28
687.513	3024.51
687.702	3040.89
687.892	2958.97
688.082	3088
688.272	3016.32
688.461	3008.12
688.651	3053.18
688.841	2958.97
689.03	3057.28
689.22	2856.58
689.41	2881.15
689.599	2946.69
689.789	2854.53
689.979	2879.1
690.168	2793.09
690.358	2731.65
690.547	2780.8
690.737	2844.29
690.926	2811.52
691.116	2727.55
691.305	2807.42
691.495	2639.49
691.684	2791.04
691.874	2778.75
692.063	2754.18
692.252	2748.03
692.442	2707.07
692.631	2524.8
692.82	2739.84
693.01	2631.3
693.199	2616.96
693.388	2645.63
693.578	2684.55
693.767	2705.03
693.956	2653.83
694.146	2594.44
694.335	2557.57
694.524	2659.97
694.713	2543.24
694.902	2576
695.092	2537.09
695.281	2623.11
695.47	2668.16
695.659	2422.41
695.848	2455.17
696.037	2526.85
696.226	2449.03
696.415	2434.69
696.604	2432.65
696.793	2487.94
696.982	2434.69
697.171	2512.52
697.36	2557.57
697.549	2371.21
697.738	2395.78
697.927	2356.87
698.116	2502.28
698.305	2485.89
698.494	2375.3
698.683	2410.12
698.872	2356.87
699.061	2354.82
699.25	2283.14
699.438	2430.6
699.627	2356.87
699.816	2393.73
700.005	2283.14
700.193	2279.05
700.382	2430.6
700.571	2401.93
700.76	2373.25
700.948	2367.11
701.137	2401.93
701.326	2334.34
701.514	2248.33
701.703	2338.44
701.892	2352.77
702.08	2401.93
702.269	2297.48
702.457	2352.77
702.646	2272.9
702.834	2233.99
703.023	2356.87
703.212	2414.21
703.4	2301.58
703.589	2297.48
703.777	2211.46
703.965	2287.24
704.154	2197.13
704.342	2248.33
704.531	2264.71
704.719	2397.83
704.907	2328.2
705.096	2377.35
705.284	2270.86
705.472	2326.15
705.661	2205.32
705.849	2297.48
706.037	2395.78
706.226	2174.6
706.414	2305.67
706.602	2250.38
706.79	2307.72
706.979	2270.86
707.167	2240.14
707.355	2215.56
707.543	2365.06
707.731	2182.79
707.919	2238.09
708.107	2221.7
708.296	2123.4
708.484	2090.63
708.672	2166.41
708.86	2358.92
709.048	2231.94
709.236	2188.94
709.424	2164.36
709.612	2182.79
709.8	2221.7
709.988	2190.99
710.176	2254.47
710.364	2272.9
710.551	2254.47
710.739	2262.66
710.927	2340.49
711.115	2160.27
711.303	2188.94
711.491	2115.21
711.679	2221.7
711.866	2184.84
712.054	2129.55
712.242	2127.5
712.43	2125.45
712.617	2205.32
712.805	2139.79
712.993	2156.17
713.181	2289.29
713.368	2297.48
713.556	2207.37
713.744	2084.49
713.931	2190.99
714.119	2100.87
714.306	2109.07
714.494	2158.22
714.682	2059.92
714.869	2137.74
715.057	2199.18
715.244	2145.93
715.432	2193.03
715.619	2250.38
715.807	2268.81
715.994	2180.75
716.182	2156.17
716.369	2172.55
716.556	2188.94
716.744	2246.28
716.931	2242.18
717.119	2258.57
717.306	2246.28
717.493	2166.41
717.681	2205.32
717.868	2182.79
718.055	2123.4
718.242	2180.75
718.43	2307.72
718.617	2152.07
718.804	2156.17
718.991	2256.52
719.179	2137.74
719.366	2168.46
719.553	2184.84
719.74	2262.66
719.927	2115.21
720.114	2117.26
720.301	2080.39
720.488	2113.16
720.676	2168.46
720.863	2205.32
721.05	2248.33
721.237	2221.7
721.424	2133.64
721.611	2164.36
721.798	2223.75
721.985	2164.36
722.172	2223.75
722.358	2193.03
722.545	2141.83
722.732	2180.75
722.919	2242.18
723.106	2180.75
723.293	2147.98
723.48	2041.48
723.667	2141.83
723.853	2102.92
724.04	2150.03
724.227	2190.99
724.414	2150.03
724.6	2074.25
724.787	2221.7
724.974	2213.51
725.161	2147.98
725.347	2092.68
725.534	2201.23
725.72	2238.09
725.907	2182.79
726.094	2123.4
726.28	2129.55
726.467	2156.17
726.653	2213.51
726.84	2145.93
727.027	2289.29
727.213	2158.22
727.4	2223.75
727.586	2139.79
727.773	2152.07
727.959	2160.27
728.145	2172.55
728.332	2213.51
728.518	2139.79
728.705	2190.99
728.891	2248.33
729.077	2115.21
729.264	2164.36
729.45	2174.6
729.636	2174.6
729.823	2213.51
730.009	2213.51
730.195	2188.94
730.382	2178.7
730.568	2164.36
730.754	2174.6
730.94	2096.78
731.126	2160.27
731.313	2270.86
731.499	2109.07
731.685	2188.94
731.871	2168.46
732.057	2147.98
732.243	2035.34
732.429	2188.94
732.615	2188.94
732.801	2281.1
732.987	2178.7
733.173	2188.94
733.359	2260.62
733.545	2233.99
733.731	2176.65
733.917	2186.89
734.103	2184.84
734.289	2219.66
734.475	2172.55
734.661	2174.6
734.847	2135.69
735.033	2145.93
735.219	2156.17
735.404	2201.23
735.59	2195.08
735.776	2107.02
735.962	2160.27
736.148	2109.07
736.333	2061.96
736.519	2121.35
736.705	2025.1
736.89	2156.17
737.076	2172.55
737.262	2086.54
737.447	1986.19
737.633	2109.07
737.819	2131.59
738.004	2156.17
738.19	2043.53
738.375	2090.63
738.561	2129.55
738.747	2150.03
738.932	2137.74
739.118	2154.12
739.303	2143.88
739.489	2141.83
739.674	2047.63
739.859	2025.1
740.045	2125.45
740.23	2043.53
740.416	1975.95
740.601	2057.87
740.786	1967.76
740.972	2031.24
741.157	2084.49
741.342	2008.72
741.528	2082.44
741.713	2037.39
741.898	2041.48
742.084	2068.11
742.269	2033.29
742.454	1939.09
742.639	1967.76
742.824	2008.72
743.01	2035.34
743.195	2039.44
743.38	2025.1
743.565	2049.68
743.75	1978
743.935	1846.93
744.12	1986.19
744.305	1943.18
744.49	1937.04
744.675	1857.17
744.86	1951.37
745.045	1822.35
745.23	1932.94
745.415	1844.88
745.6	1859.21
745.785	1863.31
745.97	1885.84
746.155	1793.68
746.34	1805.97
746.525	1855.12
746.71	1787.54
746.895	1826.45
747.079	1627.79
747.264	1910.41
747.449	1777.3
747.634	1762.96
747.819	1910.41
748.003	1740.43
748.188	1726.1
748.373	1863.31
748.557	1683.09
748.742	1703.57
748.927	1631.89
749.111	1715.86
749.296	1672.85
749.481	1775.25
749.665	1558.16
749.85	1623.7
750.034	1648.27
750.219	1642.13
750.404	1676.95
750.588	1607.31
750.773	1488.53
750.957	1635.99
751.141	1615.51
751.326	1582.74
751.51	1502.87
751.695	1537.68
751.879	1558.16
752.064	1574.55
752.248	1547.92
752.432	1549.97
752.617	1470.1
752.801	1539.73
752.985	1496.72
753.17	1543.83
753.354	1402.52
753.538	1476.24
753.722	1478.29
753.907	1433.24
754.091	1365.65
754.275	1466
754.459	1379.99
754.643	1369.75
754.828	1390.23
755.012	1435.28
755.196	1470.1
755.38	1361.56
755.564	1390.23
755.748	1312.41
755.932	1330.84
756.116	1314.45
756.3	1314.45
756.484	1339.03
756.668	1304.21
756.852	1306.26
757.036	1328.79
757.22	1322.65
757.404	1193.62
757.588	1230.49
757.772	1248.92
757.956	1177.24
758.14	1248.92
758.323	1296.02
758.507	1201.82
758.691	1257.11
758.875	1265.3
759.059	1296.02
759.242	1132.19
759.426	1207.96
759.61	1246.87
759.794	1189.53
759.977	1126.04
760.161	1250.97
760.345	1160.86
760.528	1197.72
760.712	1111.71
760.895	1193.62
761.079	1123.99
761.263	1101.47
761.446	1091.23
761.63	1187.48
761.813	1132.19
761.997	1027.74
762.18	1044.12
762.364	1029.79
762.547	1042.07
762.731	1054.36
762.914	1017.5
763.098	976.54
763.281	1025.69
763.464	1052.31
763.648	1015.45
763.831	1023.64
764.015	1037.98
764.198	1074.84
764.381	1117.85
764.564	1025.69
764.748	1017.5
764.931	978.59
765.114	902.81
765.297	1074.84
765.481	898.72
765.664	1054.36
765.847	923.29
766.03	935.58
766.213	919.2
766.397	988.83
766.58	900.76
766.763	951.96
766.946	1037.98
767.129	1058.46
767.312	943.77
767.495	960.16
767.678	919.2
767.861	884.38
768.044	906.91
768.227	933.53
768.41	986.78
768.593	911
768.776	908.96
768.959	911
769.142	935.58
769.324	913.05
769.507	1027.74
769.69	857.76
769.873	847.52
770.056	978.59
770.239	853.66
770.421	861.85
770.604	857.76
770.787	804.51
770.97	923.29
771.152	876.19
771.335	878.24
771.518	804.51
771.7	894.62
771.883	806.56
772.066	857.76
772.248	808.61
772.431	863.9
772.613	730.78
772.796	917.15
772.978	833.18
773.161	845.47
773.343	827.04
773.526	771.74
773.708	761.5
773.891	743.07
774.073	775.84
774.256	788.13
774.438	804.51
774.621	702.11
774.803	775.84
774.985	730.78
775.168	781.98
775.35	765.6
775.532	771.74
775.715	722.59
775.897	693.92
776.079	722.59
776.261	741.02
776.444	784.03
776.626	798.37
776.808	771.74
776.99	757.41
777.173	722.59
777.355	738.98
777.537	652.96
777.719	603.81
777.901	657.06
778.083	706.21
778.265	622.24
778.447	677.54
778.629	607.91
778.811	632.48
778.993	575.14
779.175	763.55
779.357	552.61
779.539	636.58
779.721	624.29
779.903	683.68
780.085	642.72
780.267	620.19
780.449	628.39
780.631	599.71
780.812	591.52
780.994	603.81
781.176	655.01
781.358	663.2
781.54	517.79
781.721	534.18
781.903	525.99
782.085	550.56
782.267	579.23
782.448	587.43
782.63	593.57
782.812	583.33
782.993	607.91
783.175	509.6
783.357	454.31
783.538	476.84
783.72	499.36
783.901	568.99
784.083	568.99
784.264	507.55
784.446	519.84
784.627	462.5
784.809	472.74
784.99	519.84
785.172	470.69
785.353	454.31
785.535	487.08
785.716	433.83
785.897	446.12
786.079	497.32
786.26	480.93
786.441	464.55
786.623	442.02
786.804	427.68
786.985	446.12
787.167	503.46
787.348	452.26
787.529	423.59
787.71	519.84
787.891	411.3
788.073	444.07
788.254	405.16
788.435	405.16
788.616	462.5
788.797	399.01
788.978	399.01
789.159	421.54
789.34	380.58
789.522	466.6
789.703	411.3
789.884	427.68
790.065	462.5
790.246	485.03
790.427	464.55
790.607	419.49
790.788	349.86
790.969	399.01
791.15	370.34
791.331	382.63
791.512	370.34
791.693	302.76
791.874	396.96
792.054	460.45
792.235	337.57
792.416	394.92
792.597	339.62
792.778	349.86
792.958	272.04
793.139	339.62
793.32	267.94
793.5	302.76
793.681	308.9
793.862	413.35
794.042	325.29
794.223	300.71
794.404	298.66
794.584	265.89
794.765	364.2
794.945	280.23
795.126	396.96
795.306	317.09
795.487	249.51
795.667	310.95
795.848	294.57
796.028	249.51
796.209	265.89
796.389	278.18
796.57	302.76
796.75	337.57
796.93	345.77
797.111	272.04
797.291	308.9
797.471	290.47
797.652	327.33
797.832	280.23
798.012	212.65
798.192	226.98
798.373	222.89
798.553	251.56
798.733	353.96
798.913	308.9
799.093	255.65
799.274	265.89
799.454	276.13
799.634	263.85
799.814	282.28
799.994	296.61
800.174	247.46
800.354	212.65
800.534	233.13
800.714	247.46
800.894	265.89
801.074	175.78
801.254	239.27
801.434	198.31
801.614	202.41
801.794	235.18
801.974	837.28
802.154	222.89
802.334	239.27
802.514	179.88
802.693	220.84
802.873	233.13
803.053	251.56
803.233	214.7
803.413	210.6
803.592	231.08
803.772	218.79
803.952	255.65
804.131	253.61
804.311	181.93
804.491	233.13
804.67	171.69
804.85	186.02
805.03	290.47
805.209	186.02
805.389	165.54
805.568	194.22
805.748	188.07
805.928	165.54
806.107	222.89
806.287	261.8
806.466	249.51
806.646	181.93
806.825	210.6
807.004	175.78
807.184	186.02
807.363	194.22
807.543	243.37
807.722	173.74
807.901	200.36
808.081	214.7
808.26	200.36
808.439	136.87
808.619	85.67
808.798	151.21
808.977	231.08
809.156	224.94
809.336	132.78
809.515	136.87
809.694	151.21
809.873	140.97
810.052	110.25
810.231	132.78
810.411	243.37
810.59	224.94
810.769	167.59
810.948	194.22
811.127	91.82
811.306	124.58
811.485	140.97
811.664	239.27
811.843	130.73
812.022	140.97
812.201	161.45
812.38	173.74
812.559	190.12
812.737	108.2
812.916	151.21
813.095	214.7
813.274	190.12
813.453	159.4
813.632	85.67
813.811	183.98
813.989	108.2
814.168	198.31
814.347	190.12
814.526	147.11
814.704	192.17
814.883	173.74
815.062	196.26
815.24	177.83
815.419	149.16
815.598	116.39
815.776	192.17
815.955	140.97
816.133	87.72
816.312	159.4
816.49	167.59
816.669	145.06
816.847	112.3
817.026	153.26
817.204	198.31
817.383	106.15
817.561	108.2
817.74	116.39
817.918	106.15
818.097	108.2
818.275	116.39
818.453	165.54
818.632	132.78
818.81	151.21
818.988	134.82
819.167	100.01
819.345	175.78
819.523	83.63
819.701	173.74
819.879	91.82
820.058	100.01
820.236	83.63
820.414	143.02
820.592	165.54
820.77	34.47
820.948	140.97
821.127	110.25
821.305	188.07
821.483	50.86
821.661	202.41
821.839	28.33
822.017	106.15
822.195	79.53
822.373	140.97
822.551	108.2
822.729	151.21
822.907	122.54
823.085	102.06
823.262	75.43
823.44	26.28
823.618	153.26
823.796	132.78
823.974	26.28
824.152	67.24
824.329	71.34
824.507	163.5
824.685	67.24
824.863	118.44
825.04	85.67
825.218	95.91
825.396	126.63
825.574	108.2
825.751	91.82
825.929	91.82
826.107	91.82
826.284	153.26
826.462	89.77
826.639	108.2
826.817	81.58
826.994	124.58
827.172	54.95
827.349	106.15
827.527	128.68
827.704	138.92
827.882	69.29
828.059	69.29
828.237	87.72
828.414	224.94
828.591	95.91
828.769	102.06
828.946	57
829.124	126.63
829.301	190.12
829.478	67.24
829.655	235.18
829.833	116.39
830.01	61.1
830.187	83.63
830.364	61.1
830.542	95.91
830.719	122.54
830.896	112.3
831.073	9.9
831.25	97.96
831.427	85.67
831.604	132.78
831.782	149.16
831.959	42.67
832.136	28.33
832.313	67.24
832.49	-35.16
832.667	91.82
832.844	75.43
833.021	100.01
833.198	95.91
833.374	26.28
833.551	44.71
833.728	93.87
833.905	116.39
834.082	-22.87
834.259	9.9
834.436	153.26
834.612	93.87
834.789	132.78
834.966	5.8
835.143	67.24
835.319	-29.01
835.496	108.2
835.673	91.82
835.85	128.68
836.026	54.95
836.203	83.63
836.38	73.39
836.556	116.39
836.733	9.9
836.909	118.44
837.086	38.57
837.262	100.01
837.439	52.91
837.616	85.67
837.792	-8.53
837.968	26.28
838.145	-20.82
838.321	77.48
838.498	46.76
838.674	77.48
838.851	83.63
839.027	95.91
839.203	-8.53
839.38	75.43
839.556	100.01
839.732	54.95
839.909	73.39
840.085	118.44
840.261	132.78
840.437	124.58
840.614	-12.63
840.79	75.43
840.966	126.63
841.142	100.01
841.318	91.82
841.494	3.75
841.671	91.82
841.847	28.33
842.023	20.14
842.199	52.91
842.375	79.53
842.551	50.86
842.727	32.43
842.903	28.33
843.079	42.67
843.255	143.02
843.431	104.11
843.607	9.9
843.783	48.81
843.959	13.99
844.134	-20.82
844.31	67.24
844.486	7.85
844.662	18.09
844.838	87.72
845.013	114.34
845.189	34.47
845.365	9.9
845.541	9.9
845.716	77.48
845.892	124.58
846.068	18.09
846.244	67.24
846.419	120.49
846.595	83.63
846.77	93.87
846.946	46.76
847.122	52.91
847.297	59.05
847.473	83.63
847.648	-22.87
847.824	106.15
847.999	9.9
848.175	54.95
848.35	50.86
848.526	38.57
848.701	100.01
848.876	30.38
849.052	71.34
849.227	-14.68
849.403	24.23
849.578	67.24
849.753	-18.77
849.929	18.09
850.104	67.24
850.279	104.11
850.454	34.47
850.63	52.91
850.805	50.86
850.98	13.99
851.155	32.43
851.33	42.67
851.505	-86.36
851.681	75.43
851.856	-0.34
852.031	93.87
852.206	40.62
852.381	57
852.556	59.05
852.731	63.15
852.906	77.48
853.081	87.72
853.256	22.19
853.431	-18.77
853.606	5.8
853.781	13.99
853.956	-24.92
854.131	67.24
854.305	-22.87
854.48	36.52
854.655	42.67
854.83	42.67
855.005	34.47
855.18	100.01
855.354	-39.25
855.529	16.04
855.704	-18.77
855.879	26.28
856.053	-20.82
856.228	59.05
856.403	-10.58
856.577	59.05
856.752	20.14
856.926	75.43
857.101	26.28
857.276	1.71
857.45	22.19
857.625	71.34
857.799	-4.44
857.974	108.2
858.148	16.04
858.323	69.29
858.497	3.75
858.672	1.71
858.846	69.29
859.02	-63.83
859.195	44.71
859.369	3.75
859.543	63.15
859.718	-16.73
859.892	-18.77
860.066	1.71
860.241	-14.68
860.415	3.75
860.589	13.99
860.763	61.1
860.938	11.95
861.112	61.1
861.286	-14.68
861.46	71.34
861.634	63.15
861.808	3.75
861.982	18.09
862.157	57
862.331	-10.58
862.505	-18.77
862.679	-29.01
862.853	44.71
863.027	-22.87
863.201	112.3
863.375	3.75
863.549	46.76
863.722	79.53
863.896	75.43
864.07	34.47
864.244	-55.64
864.418	44.71
864.592	75.43
864.766	-67.92
864.939	1.71
865.113	42.67
865.287	5.8
865.461	75.43
865.634	42.67
865.808	-4.44
865.982	7.85
866.156	65.19
866.329	-8.53
866.503	-16.73
866.676	38.57
866.85	83.63
867.024	-26.96
867.197	-14.68
867.371	9.9
867.544	44.71
867.718	-12.63
867.891	91.82
868.065	-14.68
868.238	-18.77
868.412	71.34
868.585	67.24
868.759	-47.44
868.932	-10.58
869.105	-4.44
869.279	-6.49
869.452	38.57
869.625	38.57
869.799	-37.2
869.972	5.8
870.145	1.71
870.319	11.95
870.492	-18.77
870.665	22.19
870.838	-6.49
871.011	24.23
871.185	59.05
871.358	22.19
871.531	34.47
871.704	-43.35
871.877	-47.44
872.05	34.47
872.223	-14.68
872.396	44.71
872.569	91.82
872.742	9.9
872.915	63.15
873.088	-47.44
873.261	77.48
873.434	-20.82
873.607	30.38
873.78	61.1
873.953	-12.63
874.126	91.82
874.299	-6.49
874.471	22.19
874.644	36.52
874.817	54.95
874.99	36.52
875.163	-18.77
875.335	34.47
875.508	-63.83
875.681	20.14
875.853	18.09
876.026	75.43
876.199	38.57
876.371	50.86
876.544	-16.73
876.717	36.52
876.889	-20.82
877.062	-31.06
877.234	-88.4
877.407	100.01
877.579	5.8
877.752	11.95
877.924	-43.35
878.097	-47.44
878.269	59.05
878.442	-59.73
878.614	13.99
878.786	-53.59
878.959	13.99
879.131	1.71
879.303	16.04
879.476	54.95
879.648	59.05
879.82	-61.78
879.993	26.28
880.165	91.82
880.337	-37.2
880.509	54.95
880.681	-4.44
880.854	30.38
881.026	59.05
881.198	59.05
881.37	34.47
881.542	54.95
881.714	38.57
881.886	-6.49
882.058	9.9
882.23	42.67
882.402	63.15
882.574	26.28
882.746	132.78
882.918	75.43
883.09	9.9
883.262	3.75
883.434	1.71
883.606	9.9
883.778	-37.2
883.95	26.28
884.122	9.9
884.293	26.28
884.465	-39.25
884.637	61.1
884.809	-22.87
884.98	13.99
885.152	-61.78
885.324	38.57
885.496	22.19
885.667	34.47
885.839	18.09
886.011	3.75
886.182	-55.64
886.354	26.28
886.525	-16.73
886.697	-4.44
886.869	-41.3
887.04	-4.44
887.212	11.95
887.383	91.82
887.555	38.57
887.726	-31.06
887.897	-43.35
888.069	-22.87
888.24	18.09
888.412	-12.63
888.583	-6.49
888.754	11.95
888.926	-67.92
889.097	-10.58
889.268	-78.16
889.44	63.15
889.611	-33.11
889.782	44.71
889.953	-22.87
890.125	108.2
890.296	3.75
890.467	5.8
890.638	-10.58
890.809	-26.96
890.98	-43.35
891.151	38.57
891.323	108.2
891.494	-6.49
891.665	28.33
891.836	-6.49
892.007	20.14
892.178	30.38
892.349	-31.06
892.52	42.67
892.691	-4.44
892.862	-6.49
893.032	-35.16
893.203	50.86
893.374	-14.68
893.545	9.9
893.716	11.95
893.887	5.8
894.057	67.24
894.228	65.19
894.399	-61.78
894.57	50.86
894.74	32.43
894.911	36.52
895.082	-33.11
895.253	9.9
895.423	-55.64
895.594	-10.58
895.764	-20.82
895.935	52.91
896.106	71.34
896.276	-35.16
896.447	50.86
896.617	-80.21
896.788	13.99
896.958	50.86
897.129	61.1
897.299	1.71
897.47	67.24
897.64	-22.87
897.81	9.9
897.981	44.71
898.151	9.9
898.322	-26.96
898.492	24.23
898.662	18.09
898.832	-10.58
899.003	42.67
899.173	112.3
899.343	1.71
899.513	42.67
