Data from USB4F104151__126__14-44-00-888.txt Node

Date: Thu Mar 13 14:44:00 EDT 2025
User: louis
Spectrometer: USB4F10415
Trigger mode: 4
Integration Time (sec): 2.000000E-2
Scans to average: 1
Electric dark correction enabled: true
Nonlinearity correction enabled: false
Boxcar width: 0
XAxis mode: Wavelengths
Number of Pixels in Spectrum: 3648
>>>>>Begin Spectral Data<<<<<
178.204	-91.99
178.424	-91.99
178.644	-91.99
178.864	-104.28
179.084	-169.81
179.304	-20.31
179.524	43.18
179.744	-53.08
179.964	43.18
180.184	34.99
180.404	-22.36
180.624	-53.08
180.844	-10.07
181.064	61.61
181.283	39.08
181.503	-42.84
181.723	-20.31
181.943	-30.55
182.163	28.84
182.383	-30.55
182.602	0.17
182.822	53.42
183.042	0.17
183.262	-77.65
183.482	10.41
183.701	14.51
183.921	22.7
184.141	28.84
184.361	37.03
184.58	-36.69
184.8	67.75
185.02	10.41
185.239	84.14
185.459	-8.02
185.679	10.41
185.898	-65.36
186.118	28.84
186.338	45.23
186.557	45.23
186.777	51.37
186.997	41.13
187.216	67.75
187.436	108.71
187.655	4.27
187.875	-14.17
188.095	6.31
188.314	53.42
188.534	45.23
188.753	80.04
188.973	53.42
189.192	82.09
189.412	4.27
189.631	51.37
189.851	-10.07
190.07	20.65
190.29	-14.17
190.509	-5.97
190.729	-57.17
190.948	34.99
191.168	164.01
191.387	18.6
191.607	4.27
191.826	51.37
192.045	39.08
192.265	39.08
192.484	18.6
192.704	-18.26
192.923	-3.93
193.142	69.8
193.362	-30.55
193.581	37.03
193.8	102.57
194.02	61.61
194.239	34.99
194.458	55.47
194.678	-5.97
194.897	39.08
195.116	43.18
195.335	-14.17
195.555	26.79
195.774	2.22
195.993	63.66
196.212	-1.88
196.432	30.89
196.651	-22.36
196.87	-30.55
197.089	63.66
197.308	47.27
197.528	84.14
197.747	-10.07
197.966	30.89
198.185	28.84
198.404	96.43
198.623	10.41
198.842	26.79
199.062	51.37
199.281	100.52
199.5	10.41
199.719	-5.97
199.938	37.03
200.157	51.37
200.376	43.18
200.595	67.75
200.814	26.79
201.033	69.8
201.252	92.33
201.471	-28.5
201.69	-53.08
201.909	61.61
202.128	24.75
202.347	-5.97
202.566	37.03
202.785	30.89
203.004	-46.93
203.223	57.51
203.442	-20.31
203.661	43.18
203.879	0.17
204.098	-5.97
204.317	-46.93
204.536	-14.17
204.755	34.99
204.974	-22.36
205.193	61.61
205.411	43.18
205.63	53.42
205.849	34.99
206.068	59.56
206.287	6.31
206.505	43.18
206.724	37.03
206.943	77.99
207.162	-3.93
207.381	-48.98
207.599	59.56
207.818	37.03
208.037	-12.12
208.255	51.37
208.474	84.14
208.693	-59.22
208.911	32.94
209.13	18.6
209.349	-18.26
209.567	-1.88
209.786	22.7
210.005	18.6
210.223	26.79
210.442	-5.97
210.661	30.89
210.879	-20.31
211.098	28.84
211.316	71.85
211.535	43.18
211.753	-1.88
211.972	-14.17
212.191	-34.64
212.409	12.46
212.628	65.71
212.846	-3.93
213.065	26.79
213.283	43.18
213.502	59.56
213.72	125.1
213.938	-12.12
214.157	-10.07
214.375	63.66
214.594	-5.97
214.812	-12.12
215.031	-10.07
215.249	2.22
215.467	-30.55
215.686	-5.97
215.904	92.33
216.122	37.03
216.341	12.46
216.559	-10.07
216.778	108.71
216.996	20.65
217.214	69.8
217.432	-8.02
217.651	39.08
217.869	47.27
218.087	8.36
218.306	55.47
218.524	67.75
218.742	34.99
218.96	10.41
219.179	67.75
219.397	26.79
219.615	82.09
219.833	-3.93
220.051	59.56
220.27	26.79
220.488	86.19
220.706	43.18
220.924	2.22
221.142	59.56
221.36	14.51
221.578	-1.88
221.796	69.8
222.015	10.41
222.233	-3.93
222.451	-3.93
222.669	-12.12
222.887	12.46
223.105	39.08
223.323	-71.51
223.541	59.56
223.759	-59.22
223.977	-44.88
224.195	59.56
224.413	75.95
224.631	26.79
224.849	-36.69
225.067	84.14
225.285	30.89
225.503	-3.93
225.721	-12.12
225.939	-40.79
226.157	-22.36
226.375	100.52
226.592	4.27
226.81	-36.69
227.028	59.56
227.246	92.33
227.464	51.37
227.682	75.95
227.9	0.17
228.117	77.99
228.335	16.55
228.553	80.04
228.771	-5.97
228.989	-59.22
229.206	47.27
229.424	34.99
229.642	32.94
229.86	2.22
230.077	-20.31
230.295	4.27
230.513	28.84
230.731	84.14
230.948	-10.07
231.166	26.79
231.384	-20.31
231.601	39.08
231.819	116.9
232.037	-18.26
232.254	26.79
232.472	41.13
232.689	4.27
232.907	30.89
233.125	55.47
233.342	14.51
233.56	-36.69
233.777	47.27
233.995	-24.4
234.213	45.23
234.43	6.31
234.648	34.99
234.865	-24.4
235.083	-8.02
235.3	45.23
235.518	-46.93
235.735	84.14
235.953	28.84
236.17	-5.97
236.388	-30.55
236.605	34.99
236.822	51.37
237.04	-3.93
237.257	84.14
237.475	-14.17
237.692	-40.79
237.909	80.04
238.127	20.65
238.344	104.62
238.562	20.65
238.779	28.84
238.996	0.17
239.214	34.99
239.431	22.7
239.648	-67.41
239.865	55.47
240.083	-63.32
240.3	55.47
240.517	26.79
240.735	32.94
240.952	71.85
241.169	26.79
241.386	26.79
241.603	-100.18
241.821	-46.93
242.038	28.84
242.255	55.47
242.472	-5.97
242.689	26.79
242.907	-1.88
243.124	20.65
243.341	45.23
243.558	37.03
243.775	-51.03
243.992	-51.03
244.209	-14.17
244.426	77.99
244.643	69.8
244.86	-24.4
245.078	43.18
245.295	-18.26
245.512	-3.93
245.729	-5.97
245.946	71.85
246.163	10.41
246.38	-63.32
246.597	20.65
246.814	86.19
247.031	-5.97
247.248	61.61
247.464	-5.97
247.681	20.65
247.898	10.41
248.115	37.03
248.332	-26.45
248.549	92.33
248.766	102.57
248.983	0.17
249.2	28.84
249.417	51.37
249.633	-26.45
249.85	61.61
250.067	-14.17
250.284	14.51
250.501	24.75
250.717	53.42
250.934	34.99
251.151	12.46
251.368	18.6
251.585	16.55
251.801	92.33
252.018	-38.74
252.235	32.94
252.451	34.99
252.668	34.99
252.885	121
253.102	45.23
253.318	84.14
253.535	18.6
253.752	47.27
253.968	14.51
254.185	-10.07
254.401	75.95
254.618	51.37
254.835	-14.17
255.051	131.24
255.268	20.65
255.484	-46.93
255.701	-38.74
255.917	77.99
256.134	-63.32
256.351	71.85
256.567	-69.46
256.784	-3.93
257	-61.27
257.217	16.55
257.433	55.47
257.65	71.85
257.866	-26.45
258.082	-28.5
258.299	10.41
258.515	75.95
258.732	-120.66
258.948	39.08
259.165	14.51
259.381	14.51
259.597	63.66
259.814	71.85
260.03	26.79
260.246	67.75
260.463	67.75
260.679	51.37
260.895	14.51
261.112	45.23
261.328	2.22
261.544	34.99
261.761	69.8
261.977	67.75
262.193	43.18
262.409	61.61
262.626	45.23
262.842	-18.26
263.058	10.41
263.274	59.56
263.49	14.51
263.707	26.79
263.923	63.66
264.139	102.57
264.355	4.27
264.571	18.6
264.787	26.79
265.004	51.37
265.22	47.27
265.436	59.56
265.652	-28.5
265.868	-12.12
266.084	-46.93
266.3	-44.88
266.516	43.18
266.732	53.42
266.948	-53.08
267.164	137.38
267.38	22.7
267.596	30.89
267.812	18.6
268.028	-3.93
268.244	32.94
268.46	37.03
268.676	20.65
268.892	34.99
269.108	-8.02
269.324	43.18
269.54	10.41
269.756	94.38
269.972	30.89
270.188	53.42
270.403	8.36
270.619	-12.12
270.835	24.75
271.051	43.18
271.267	14.51
271.483	32.94
271.698	-14.17
271.914	94.38
272.13	12.46
272.346	2.22
272.562	18.6
272.777	34.99
272.993	77.99
273.209	4.27
273.425	43.18
273.64	-59.22
273.856	57.51
274.072	-18.26
274.287	59.56
274.503	22.7
274.719	61.61
274.934	-20.31
275.15	-38.74
275.366	39.08
275.581	14.51
275.797	-12.12
276.012	10.41
276.228	30.89
276.444	22.7
276.659	77.99
276.875	-3.93
277.09	80.04
277.306	-3.93
277.521	63.66
277.737	41.13
277.952	55.47
278.168	-36.69
278.383	22.7
278.599	18.6
278.814	53.42
279.03	-22.36
279.245	2.22
279.461	55.47
279.676	4.27
279.892	10.41
280.107	69.8
280.322	104.62
280.538	92.33
280.753	18.6
280.969	14.51
281.184	30.89
281.399	28.84
281.615	16.55
281.83	37.03
282.045	-3.93
282.26	-22.36
282.476	-14.17
282.691	34.99
282.906	-16.21
283.122	4.27
283.337	28.84
283.552	34.99
283.767	-3.93
283.983	53.42
284.198	-1.88
284.413	69.8
284.628	-34.64
284.843	26.79
285.058	71.85
285.274	-18.26
285.489	86.19
285.704	20.65
285.919	59.56
286.134	88.23
286.349	-20.31
286.564	53.42
286.779	112.81
286.995	12.46
287.21	4.27
287.425	0.17
287.64	-5.97
287.855	53.42
288.07	-38.74
288.285	80.04
288.5	10.41
288.715	61.61
288.93	26.79
289.145	-28.5
289.36	59.56
289.575	34.99
289.79	-8.02
290.004	-12.12
290.219	-30.55
290.434	59.56
290.649	22.7
290.864	-28.5
291.079	12.46
291.294	30.89
291.509	12.46
291.724	88.23
291.938	59.56
292.153	-8.02
292.368	-3.93
292.583	45.23
292.798	26.79
293.012	26.79
293.227	4.27
293.442	10.41
293.657	92.33
293.871	80.04
294.086	12.46
294.301	67.75
294.516	55.47
294.73	26.79
294.945	75.95
295.16	-3.93
295.374	34.99
295.589	6.31
295.804	-12.12
296.018	80.04
296.233	28.84
296.447	75.95
296.662	-36.69
296.877	92.33
297.091	22.7
297.306	61.61
297.52	45.23
297.735	47.27
297.949	-5.97
298.164	55.47
298.378	-28.5
298.593	-30.55
298.807	34.99
299.022	10.41
299.236	88.23
299.451	-36.69
299.665	14.51
299.88	59.56
300.094	-10.07
300.309	43.18
300.523	59.56
300.737	2.22
300.952	14.51
301.166	-10.07
301.381	82.09
301.595	45.23
301.809	63.66
302.024	-5.97
302.238	73.9
302.452	125.1
302.667	14.51
302.881	77.99
303.095	6.31
303.309	-46.93
303.524	28.84
303.738	-28.5
303.952	-1.88
304.166	10.41
304.381	-77.65
304.595	90.28
304.809	-18.26
305.023	61.61
305.237	39.08
305.452	20.65
305.666	75.95
305.88	39.08
306.094	43.18
306.308	2.22
306.522	61.61
306.736	12.46
306.95	65.71
307.164	10.41
307.379	-26.45
307.593	59.56
307.807	53.42
308.021	28.84
308.235	51.37
308.449	-22.36
308.663	18.6
308.877	127.14
309.091	-10.07
309.305	75.95
309.519	-46.93
309.733	75.95
309.947	10.41
310.161	18.6
310.374	63.66
310.588	84.14
310.802	-1.88
311.016	-10.07
311.23	86.19
311.444	53.42
311.658	6.31
311.872	39.08
312.085	75.95
312.299	49.32
312.513	108.71
312.727	39.08
312.941	55.47
313.154	32.94
313.368	-30.55
313.582	43.18
313.796	22.7
314.009	-3.93
314.223	57.51
314.437	57.51
314.651	-3.93
314.864	61.61
315.078	53.42
315.292	-28.5
315.505	18.6
315.719	71.85
315.933	34.99
316.146	-38.74
316.36	55.47
316.573	61.61
316.787	100.52
317.001	-3.93
317.214	12.46
317.428	37.03
317.641	8.36
317.855	-14.17
318.068	71.85
318.282	4.27
318.495	90.28
318.709	10.41
318.922	43.18
319.136	71.85
319.349	39.08
319.563	30.89
319.776	-20.31
319.99	-104.28
320.203	39.08
320.417	67.75
320.63	26.79
320.843	110.76
321.057	67.75
321.27	14.51
321.483	63.66
321.697	75.95
321.91	37.03
322.124	59.56
322.337	112.81
322.55	53.42
322.763	30.89
322.977	22.7
323.19	28.84
323.403	77.99
323.617	75.95
323.83	2.22
324.043	43.18
324.256	-20.31
324.469	2.22
324.683	67.75
324.896	63.66
325.109	2.22
325.322	10.41
325.535	18.6
325.748	61.61
325.962	51.37
326.175	18.6
326.388	-22.36
326.601	67.75
326.814	32.94
327.027	61.61
327.24	125.1
327.453	-12.12
327.666	30.89
327.879	-10.07
328.092	67.75
328.305	-5.97
328.518	18.6
328.731	6.31
328.944	51.37
329.157	116.9
329.37	57.51
329.583	67.75
329.796	67.75
330.009	26.79
330.222	92.33
330.435	37.03
330.648	75.95
330.861	92.33
331.073	75.95
331.286	2.22
331.499	51.37
331.712	-18.26
331.925	34.99
332.138	-12.12
332.35	6.31
332.563	39.08
332.776	2.22
332.989	-22.36
333.202	-22.36
333.414	-10.07
333.627	-10.07
333.84	-10.07
334.053	-12.12
334.265	-55.12
334.478	4.27
334.691	34.99
334.903	26.79
335.116	-38.74
335.329	20.65
335.541	104.62
335.754	59.56
335.966	-10.07
336.179	71.85
336.392	34.99
336.604	84.14
336.817	110.76
337.029	69.8
337.242	22.7
337.454	-12.12
337.667	-10.07
337.88	125.1
338.092	-14.17
338.305	127.14
338.517	-5.97
338.729	51.37
338.942	47.27
339.154	20.65
339.367	14.51
339.579	2.22
339.792	30.89
340.004	10.41
340.217	10.41
340.429	-3.93
340.641	-24.4
340.854	-10.07
341.066	22.7
341.278	34.99
341.491	28.84
341.703	102.57
341.915	-14.17
342.128	59.56
342.34	94.38
342.552	-51.03
342.764	12.46
342.977	-20.31
343.189	-26.45
343.401	-12.12
343.613	-24.4
343.826	43.18
344.038	-38.74
344.25	102.57
344.462	-34.64
344.674	-14.17
344.886	12.46
345.099	-3.93
345.311	75.95
345.523	-1.88
345.735	39.08
345.947	39.08
346.159	-12.12
346.371	22.7
346.583	63.66
346.795	114.86
347.007	-46.93
347.219	28.84
347.431	-38.74
347.643	57.51
347.855	-28.5
348.067	67.75
348.279	-30.55
348.491	43.18
348.703	69.8
348.915	34.99
349.127	26.79
349.339	41.13
349.551	30.89
349.763	39.08
349.975	-22.36
350.187	86.19
350.399	92.33
350.61	18.6
350.822	8.36
351.034	100.52
351.246	30.89
351.458	-5.97
351.669	4.27
351.881	65.71
352.093	51.37
352.305	71.85
352.517	55.47
352.728	94.38
352.94	75.95
353.152	67.75
353.363	43.18
353.575	80.04
353.787	57.51
353.999	45.23
354.21	94.38
354.422	39.08
354.633	34.99
354.845	84.14
355.057	59.56
355.268	121
355.48	45.23
355.692	-20.31
355.903	0.17
356.115	47.27
356.326	37.03
356.538	125.1
356.749	59.56
356.961	80.04
357.172	84.14
357.384	67.75
357.595	127.14
357.807	34.99
358.018	-14.17
358.23	100.52
358.441	106.67
358.653	92.33
358.864	37.03
359.075	18.6
359.287	59.56
359.498	96.43
359.709	26.79
359.921	108.71
360.132	69.8
360.344	59.56
360.555	102.57
360.766	43.18
360.977	4.27
361.189	-44.88
361.4	43.18
361.611	53.42
361.823	84.14
362.034	100.52
362.245	-20.31
362.456	2.22
362.667	43.18
362.879	-20.31
363.09	20.65
363.301	57.51
363.512	-1.88
363.723	26.79
363.935	63.66
364.146	16.55
364.357	45.23
364.568	53.42
364.779	22.7
364.99	80.04
365.201	32.94
365.412	71.85
365.623	-12.12
365.834	51.37
366.045	73.9
366.256	53.42
366.467	34.99
366.678	51.37
366.889	2.22
367.1	57.51
367.311	55.47
367.522	51.37
367.733	55.47
367.944	108.71
368.155	12.46
368.366	43.18
368.577	22.7
368.788	67.75
368.999	-3.93
369.209	28.84
369.42	80.04
369.631	94.38
369.842	8.36
370.053	-46.93
370.264	53.42
370.474	-14.17
370.685	22.7
370.896	69.8
371.107	84.14
371.317	104.62
371.528	-5.97
371.739	26.79
371.95	14.51
372.16	10.41
372.371	-5.97
372.582	86.19
372.792	39.08
373.003	69.8
373.214	10.41
373.424	6.31
373.635	77.99
373.846	77.99
374.056	34.99
374.267	-1.88
374.477	41.13
374.688	39.08
374.898	67.75
375.109	53.42
375.319	30.89
375.53	100.52
375.74	82.09
375.951	28.84
376.161	28.84
376.372	84.14
376.582	45.23
376.793	100.52
377.003	-10.07
377.214	4.27
377.424	133.29
377.635	82.09
377.845	28.84
378.055	73.9
378.266	-14.17
378.476	18.6
378.686	18.6
378.897	80.04
379.107	84.14
379.317	51.37
379.528	-3.93
379.738	67.75
379.948	-1.88
380.158	43.18
380.369	8.36
380.579	-32.6
380.789	20.65
380.999	51.37
381.21	90.28
381.42	143.53
381.63	71.85
381.84	116.9
382.05	86.19
382.261	34.99
382.471	-30.55
382.681	108.71
382.891	67.75
383.101	77.99
383.311	-22.36
383.521	-24.4
383.731	92.33
383.941	34.99
384.151	-18.26
384.361	37.03
384.571	71.85
384.781	75.95
384.991	141.48
385.201	145.58
385.411	28.84
385.621	-59.22
385.831	-22.36
386.041	26.79
386.251	37.03
386.461	100.52
386.671	2.22
386.881	45.23
387.091	118.95
387.301	59.56
387.511	18.6
387.72	157.86
387.93	30.89
388.14	14.51
388.35	61.61
388.56	37.03
388.769	61.61
388.979	28.84
389.189	2.22
389.399	69.8
389.609	-5.97
389.818	59.56
390.028	-61.27
390.238	-22.36
390.447	-26.45
390.657	133.29
390.867	10.41
391.076	116.9
391.286	67.75
391.496	92.33
391.705	116.9
391.915	116.9
392.125	41.13
392.334	75.95
392.544	61.61
392.753	88.23
392.963	108.71
393.172	69.8
393.382	-3.93
393.591	75.95
393.801	75.95
394.01	133.29
394.22	100.52
394.429	39.08
394.639	84.14
394.848	51.37
395.058	34.99
395.267	-40.79
395.477	18.6
395.686	127.14
395.895	100.52
396.105	155.82
396.314	43.18
396.524	86.19
396.733	67.75
396.942	67.75
397.152	-3.93
397.361	157.86
397.57	47.27
397.78	16.55
397.989	-5.97
398.198	166.06
398.407	67.75
398.617	92.33
398.826	100.52
399.035	77.99
399.244	135.34
399.453	104.62
399.663	121
399.872	84.14
400.081	4.27
400.29	155.82
400.499	57.51
400.708	141.48
400.917	125.1
401.127	53.42
401.336	8.36
401.545	145.58
401.754	96.43
401.963	174.25
402.172	153.77
402.381	96.43
402.59	112.81
402.799	141.48
403.008	135.34
403.217	141.48
403.426	45.23
403.635	104.62
403.844	114.86
404.053	110.76
404.262	67.75
404.471	192.68
404.68	110.76
404.888	215.21
405.097	110.76
405.306	172.2
405.515	235.69
405.724	133.29
405.933	229.54
406.142	200.87
406.35	141.48
406.559	190.63
406.768	127.14
406.977	209.06
407.185	135.34
407.394	282.79
407.603	207.02
407.812	198.82
408.02	215.21
408.229	184.49
408.438	161.96
408.646	198.82
408.855	250.02
409.064	284.84
409.272	252.07
409.481	290.98
409.69	280.74
409.898	231.59
410.107	321.7
410.315	272.55
410.524	342.18
410.733	387.24
410.941	411.81
411.15	362.66
411.358	399.52
411.567	379.04
411.775	452.77
411.984	411.81
412.192	463.01
412.401	508.07
412.609	471.2
412.818	538.79
413.026	493.73
413.234	510.11
413.443	495.78
413.651	546.98
413.86	542.88
414.068	622.75
414.276	682.14
414.485	616.61
414.693	618.66
414.901	710.82
415.11	735.39
415.318	764.06
415.526	764.06
415.734	653.47
415.943	741.54
416.151	805.02
416.359	800.93
416.567	878.75
416.776	895.13
416.984	911.52
417.192	1030.3
417.4	899.23
417.608	1001.63
417.817	1095.83
418.025	1097.88
418.233	1046.68
418.441	1130.65
418.649	1218.71
418.857	1247.38
419.065	1306.77
419.273	1271.96
419.481	1345.69
419.689	1448.08
419.897	1542.29
420.105	1484.95
420.313	1562.77
420.521	1587.35
420.729	1693.84
420.937	1755.28
421.145	1763.47
421.353	1890.45
421.561	1962.12
421.769	1947.79
421.977	2087.05
422.185	2085
422.393	2123.91
422.601	2230.41
422.809	2181.26
423.017	2345.09
423.224	2414.73
423.432	2533.51
423.64	2578.56
423.848	2689.15
424.056	2599.04
424.263	2832.51
424.471	2836.61
424.679	2904.19
424.887	3012.73
425.094	3088.51
425.302	2992.25
425.51	3229.82
425.718	3381.37
425.925	3461.24
426.133	3582.07
426.341	3729.52
426.548	3821.68
426.756	3913.84
426.964	3960.94
427.171	4163.69
427.379	4231.27
427.586	4302.95
427.794	4501.61
428.001	4573.28
428.209	4855.9
428.417	4929.63
428.624	5183.58
428.832	5240.92
429.039	5091.42
429.247	5044.32
429.454	5683.28
429.662	5888.08
429.869	5675.09
430.076	5933.14
430.284	5736.53
430.491	6324.3
430.699	6363.21
430.906	6385.74
431.114	6563.91
431.321	6862.91
431.528	6813.76
431.736	7276.6
431.943	7684.15
432.15	7270.46
432.358	7379
432.565	7917.62
432.772	7960.63
432.979	8155.18
433.187	8343.6
433.394	8568.87
433.601	9011.23
433.808	8906.79
434.016	9048.1
434.223	9459.74
434.43	9865.24
434.637	9754.65
434.844	10252.3
435.052	10571.79
435.259	10491.91
435.466	10532.87
435.673	10389.52
435.88	11055.11
436.087	11782.13
436.294	11730.94
436.501	11339.77
436.708	11636.73
436.915	11978.74
437.122	12701.67
437.329	12548.08
437.537	13058.02
437.743	13162.47
437.95	13060.07
438.157	13608.92
438.364	14231.51
438.571	14043.09
438.778	14542.8
438.985	15605.69
439.192	14972.87
439.399	15480.77
439.606	15081.41
439.813	16039.86
440.02	16904.1
440.227	16672.68
440.433	16426.93
440.64	17145.77
440.847	16826.28
441.054	17280.93
441.261	18261.91
441.467	18182.04
441.674	18532.24
441.881	19285.89
442.088	19120.01
442.294	18993.03
442.501	19310.47
442.708	19566.46
442.914	20461.43
443.121	21751.65
443.328	20844.4
443.534	22413.14
443.741	21677.92
443.948	21321.57
444.154	23043.92
444.361	22617.94
444.568	22959.95
444.774	22667.09
444.981	22982.48
445.187	23768.9
445.394	24807.22
445.6	24571.7
445.807	26810.13
446.013	25800.48
446.22	25923.36
446.426	27234.06
446.633	27735.81
446.839	28511.99
447.046	27023.12
447.252	28667.64
447.459	28962.54
447.665	28854
447.871	29710.05
448.078	31243.98
448.284	29501.16
448.491	30643.93
448.697	32020.16
448.903	32042.69
449.11	32421.56
449.316	31643.34
449.522	32222.91
449.728	33621.67
449.935	33590.95
450.141	33627.82
450.347	34231.97
450.553	33683.11
450.76	33859.24
450.966	34436.77
451.172	34248.35
451.378	35544.72
451.584	34424.48
451.791	35507.85
451.997	35552.91
452.203	36036.23
452.409	35729.03
452.615	36157.06
452.821	34553.5
453.027	34113.19
453.233	36169.35
453.44	34586.27
453.646	34756.25
453.852	35264.14
454.058	35567.24
454.264	34582.17
454.47	35622.54
454.676	34741.91
454.882	35749.51
455.088	32593.59
455.294	33199.79
455.5	33715.88
455.705	34399.9
455.911	32538.3
456.117	32128.7
456.323	31962.82
456.529	30174.94
456.735	31614.66
456.941	30547.67
457.147	29957.86
457.352	29404.91
457.558	29048.56
457.764	29138.67
457.97	28733.17
458.176	27899.65
458.381	28032.77
458.587	26355.48
458.793	26853.14
458.999	25284.39
459.204	27029.26
459.41	26208.03
459.616	24530.74
459.821	25087.79
460.027	24602.42
460.233	24037.18
460.438	22898.51
460.644	23156.55
460.85	22028.12
461.055	21712.74
461.261	21843.81
461.466	19998.59
461.672	19525.5
461.878	20864.88
462.083	19494.79
462.289	19120.01
462.494	18837.39
462.7	18067.35
462.905	17592.22
463.111	18411.41
463.316	18206.61
463.522	17762.2
463.727	17887.13
463.932	17719.2
464.138	17684.38
464.343	17606.56
464.549	17291.17
464.754	17479.58
464.959	17524.64
465.165	17588.13
465.37	16844.71
465.575	16168.88
465.781	17184.68
465.986	16850.86
466.191	16271.28
466.397	16035.77
466.602	15296.45
466.807	15783.87
467.012	16076.73
467.218	16009.14
467.423	15370.18
467.628	15640.51
467.833	16144.31
468.038	15826.87
468.244	15366.08
468.449	15898.55
468.654	15585.21
468.859	15224.77
469.064	15103.94
469.269	14573.52
469.474	15065.03
469.679	14985.16
469.885	14845.9
470.09	14708.68
470.295	14778.31
470.5	14256.08
470.705	14546.89
470.91	14065.62
471.115	14157.78
471.32	14026.71
471.525	14176.21
471.73	13555.68
471.935	13729.75
472.139	13232.1
472.344	13506.52
472.549	13268.96
472.754	13064.16
472.959	12920.81
473.164	12732.39
473.369	12625.9
473.574	13047.78
473.778	12808.17
473.983	12939.24
474.188	12746.73
474.393	12077.04
474.598	12201.97
474.802	12019.7
475.007	12064.75
475.212	12085.23
475.417	11300.86
475.621	11552.76
475.826	11692.02
476.031	11433.98
476.235	11249.66
476.44	11390.97
476.645	11118.59
476.849	11307.01
477.054	10997.76
477.259	10700.81
477.463	10889.22
477.668	10496.01
477.872	10633.22
478.077	10487.82
478.282	10229.77
478.486	10303.5
478.691	9998.35
478.895	10119.18
479.1	9814.04
479.304	10094.61
479.509	9891.86
479.713	9840.66
479.918	9734.17
480.122	9431.07
480.326	9766.93
480.531	9797.65
480.735	9555.99
480.94	9664.54
481.144	9799.7
481.348	9150.5
481.553	9553.94
481.757	9236.51
481.961	9302.04
482.166	9334.81
482.37	9324.57
482.574	9173.02
482.778	9330.72
482.983	9316.38
483.187	9187.36
483.391	9594.9
483.595	9291.8
483.8	9076.77
484.004	9183.26
484.208	9248.8
484.412	9218.08
484.616	9394.2
484.821	9207.84
485.025	9146.4
485.229	9279.52
485.433	9189.41
485.637	9173.02
485.841	9170.97
486.045	9136.16
486.249	9300
486.453	9189.41
486.657	9250.85
486.861	9166.88
487.065	9087.01
487.269	9170.97
487.473	9150.5
487.677	9117.73
487.881	9478.17
488.085	9160.73
488.289	9400.35
488.493	8906.79
488.697	9326.62
488.901	9150.5
489.105	9267.23
489.309	9300
489.512	9445.4
489.716	9283.61
489.92	9545.75
490.124	9246.75
490.328	9469.98
490.531	9279.52
490.735	9431.07
490.939	9478.17
491.143	9506.84
491.346	9476.12
491.55	9601.05
491.754	9572.38
491.958	9932.82
492.161	9697.3
492.365	9742.36
492.569	9625.62
492.772	9687.06
492.976	9900.05
493.18	10006.55
493.383	9975.83
493.587	9834.52
493.79	9955.35
493.994	9949.2
494.197	10094.61
494.401	10156.05
494.605	10014.74
494.808	10283.02
495.012	10323.98
495.215	10512.39
495.419	10387.47
495.622	10512.39
495.825	10790.92
496.029	10551.31
496.232	10856.45
496.436	10850.31
496.639	10885.12
496.843	11102.21
497.046	11227.14
497.249	11382.78
497.453	11472.89
497.656	11606.01
497.859	11464.7
498.063	11659.26
498.266	11855.86
498.469	11798.52
498.673	11870.2
498.876	12118
499.079	12089.33
499.282	12247.02
499.485	12679.15
499.689	12572.65
499.892	12847.08
500.095	12765.16
500.298	13158.37
500.501	13002.72
500.705	13297.63
500.908	13553.63
501.111	13498.33
501.314	13670.36
501.517	13979.61
501.72	14045.14
501.923	13989.85
502.126	14501.84
502.329	14231.51
502.532	14905.29
502.735	14512.08
502.938	14917.58
503.141	15019.97
503.344	15218.63
503.547	15108.04
503.75	15511.49
503.953	15646.65
504.156	15683.52
504.359	15951.8
504.562	16072.63
504.765	16578.48
504.968	16541.61
505.17	16801.71
505.373	16654.25
505.576	17063.85
505.779	17180.58
505.982	17526.69
506.185	17690.52
506.387	17655.71
506.59	17663.9
506.793	18202.52
506.996	18253.72
507.198	18966.41
507.401	18657.17
507.604	18753.42
507.807	19101.58
508.009	19199.88
508.212	19339.14
508.415	19412.87
508.617	20049.78
508.82	19971.96
509.022	19976.06
509.225	20541.3
509.428	20639.6
509.63	20713.33
509.833	20725.61
510.035	21415.78
510.238	21297
510.44	21501.79
510.643	21641.06
510.845	22064.99
511.048	21702.5
511.25	22404.95
511.453	22153.05
511.655	23080.78
511.858	23048.01
512.06	23045.96
512.262	23297.86
512.465	23578.43
512.667	23746.37
512.87	23877.44
513.072	24016.7
513.274	24610.61
513.477	24620.85
513.679	24960.81
513.881	25118.51
514.084	25573.16
514.286	25229.1
514.488	25763.62
514.69	26107.68
514.893	26283.8
515.095	26554.13
515.297	26486.55
515.499	27008.78
515.701	26939.15
515.904	27143.95
516.106	27627.27
516.308	27782.91
516.51	28395.26
516.712	27946.75
516.914	28256
517.116	28911.35
517.318	28522.23
517.52	28980.98
517.722	29310.7
517.925	29581.03
518.127	29710.05
518.329	30066.4
518.531	30205.66
518.733	30418.65
518.935	30748.37
519.136	30645.98
519.338	31219.41
519.54	31256.27
519.742	31596.23
519.944	31731.4
520.146	32278.21
520.348	32177.86
520.55	32409.28
520.752	32362.17
520.954	33257.14
521.155	33097.39
521.357	33492.65
521.559	33849
521.761	34336.41
521.963	33986.21
522.164	34064.03
522.366	34442.91
522.568	34938.52
522.77	34782.87
522.971	35571.34
523.173	34979.48
523.375	35722.89
523.576	35341.97
523.778	35393.17
523.98	35577.48
524.181	36279.94
524.383	36052.61
524.584	36793.98
524.786	36877.94
524.988	36451.97
525.189	37047.93
525.391	37365.36
525.592	37504.62
525.794	37654.12
525.995	37715.56
526.197	38055.53
526.398	37977.7
526.6	38067.81
526.801	38278.75
527.003	38170.21
527.204	38377.06
527.406	38882.91
527.607	38653.53
527.808	39099.99
528.01	38153.83
528.211	38608.48
528.412	39566.93
528.614	39525.97
528.815	39571.02
529.016	39663.18
529.218	39218.77
529.419	39616.08
529.62	39411.28
529.822	39706.19
530.023	39509.58
530.224	39491.15
530.425	39708.24
530.626	39695.95
530.828	39999.05
531.029	40343.11
531.23	39927.37
531.431	39884.36
531.632	40648.25
531.833	39927.37
532.035	40158.79
532.236	40386.11
532.437	40384.07
532.638	40320.58
532.839	40115.78
533.04	40345.16
533.241	39747.15
533.442	40660.54
533.643	40625.73
533.844	40341.06
534.045	40715.84
534.246	40271.43
534.447	40502.85
534.648	40318.53
534.849	40554.05
535.05	39835.21
535.251	40345.16
535.451	40304.2
535.652	40496.7
535.853	40244.8
536.054	40529.47
536.255	40851
536.456	40246.85
536.657	40687.17
536.857	40209.99
537.058	40068.68
537.259	40726.08
537.46	40523.33
537.66	40506.94
537.861	40232.52
538.062	40502.85
538.263	40484.42
538.463	40500.8
538.664	40384.07
538.865	40148.55
539.065	40304.2
539.266	39906.89
539.466	40083.02
539.667	40103.49
539.868	40255.04
540.068	40410.69
540.269	40113.73
540.469	40228.42
540.67	40132.17
540.87	40205.89
541.071	40263.24
541.271	40134.21
541.472	40535.62
541.672	39960.14
541.873	39949.9
542.073	39994.95
542.274	40285.76
542.474	39960.14
542.675	39984.71
542.875	40441.41
543.075	40023.62
543.276	39607.89
543.476	40310.34
543.676	39831.11
543.877	40080.97
544.077	39945.8
544.277	39990.86
544.478	40232.52
544.678	40566.34
544.878	39968.33
545.078	39710.28
545.279	39523.92
545.479	39743.05
545.679	40214.09
545.879	39880.27
546.079	40115.78
546.28	39839.31
546.48	39394.9
546.68	39802.44
546.88	40060.49
547.08	39845.45
547.28	39648.85
547.48	39466.58
547.68	39743.05
547.88	39882.31
548.081	39681.61
548.281	39968.33
548.481	39353.94
548.681	39843.4
548.881	39970.38
549.081	39450.19
549.28	39833.16
549.48	40011.34
549.68	39648.85
549.88	40115.78
550.08	39370.32
550.28	39894.6
550.48	39337.55
550.68	39618.13
550.88	39382.61
551.08	39552.59
551.279	40033.86
551.479	39304.79
551.679	39657.04
551.879	39226.96
552.079	39624.27
552.278	39493.2
552.478	39175.76
552.678	39370.32
552.878	39521.87
553.077	39315.03
553.277	39083.61
553.477	39675.47
553.676	38899.29
553.876	39032.41
554.076	39321.17
554.275	39183.96
554.475	38559.33
554.674	39155.29
554.874	38829.66
555.074	38725.21
555.273	39229.01
555.473	39249.49
555.672	38817.37
555.872	38837.85
556.071	38975.06
556.271	39159.38
556.47	38712.92
556.67	38422.11
556.869	38731.36
557.068	38821.47
557.268	38336.1
557.467	38620.77
557.667	38540.89
557.866	38868.57
558.065	38356.58
558.265	38372.96
558.464	38180.45
558.663	38557.28
558.863	38149.73
559.062	38413.92
559.261	37787.24
559.461	38434.4
559.66	37733.99
559.859	38190.69
560.058	37867.11
560.258	38098.53
560.457	37498.48
560.656	38264.42
560.855	37697.13
561.054	38104.68
561.253	37807.72
561.453	37992.04
561.652	37586.54
561.851	37838.44
562.05	37629.55
562.249	37326.45
562.448	38012.52
562.647	37658.22
562.846	37502.57
563.045	37938.79
563.244	37183.09
563.443	37578.35
563.642	36550.27
563.841	37043.83
564.04	37099.12
564.239	37303.92
564.438	36642.43
564.637	37170.8
564.836	36775.55
565.035	36499.07
565.234	36806.27
565.432	36771.45
565.631	36552.32
565.83	36537.98
566.029	36271.75
566.228	36605.56
566.427	36333.18
566.625	36181.63
566.824	35681.93
567.023	36288.13
567.222	35516.04
567.42	36454.01
567.619	36093.57
567.818	35876.49
568.016	35681.93
568.215	35970.69
568.414	35432.08
568.612	35913.35
568.811	35274.38
569.01	35495.57
569.208	35223.19
569.407	35530.38
569.605	34961.05
569.804	35331.73
570.002	35049.11
570.201	35198.61
570.4	35059.35
570.598	34834.07
570.797	34778.78
570.995	34567.84
571.193	34459.29
571.392	34889.37
571.59	34639.51
571.789	34729.62
571.987	34346.65
572.186	34535.07
572.384	34260.64
572.582	34385.57
572.781	33996.45
572.979	33693.35
573.177	34012.84
573.376	34123.43
573.574	33744.55
573.772	33928.87
573.971	33402.54
574.169	33681.06
574.367	33646.25
574.565	33519.28
574.763	33480.36
574.962	33240.75
575.16	33085.11
575.358	33271.47
575.556	32911.03
575.754	33246.9
575.952	32575.16
576.151	32722.62
576.349	32853.69
576.547	32736.95
576.745	32802.49
576.943	32820.92
577.141	32800.44
577.339	32196.29
577.537	32267.97
577.735	32669.37
577.933	32093.89
578.131	31876.8
578.329	31811.27
578.527	31741.64
578.725	31848.13
578.923	32009.92
579.121	31542.99
579.319	31471.31
579.516	31831.75
579.714	31510.22
579.912	31108.82
580.11	31387.34
580.308	31114.96
580.506	31117.01
580.704	30676.69
580.901	31129.3
581.099	31612.62
581.297	30881.49
581.495	31043.28
581.692	30930.64
581.89	30703.32
582.088	30781.14
582.285	30412.51
582.483	31000.27
582.681	30658.26
582.878	30430.94
583.076	29970.15
583.274	30111.46
583.471	29904.61
583.669	30078.69
583.866	30007.01
584.064	29855.46
584.262	29454.06
584.459	30004.96
584.657	29742.82
584.854	30166.75
585.052	29322.99
585.249	29343.47
585.447	29552.36
585.644	29282.03
585.841	29478.63
586.039	29730.53
586.236	29130.48
586.434	28767.99
586.631	28870.39
586.828	28702.45
587.026	29003.5
587.223	28684.02
587.42	28651.25
587.618	28571.38
587.815	28649.21
588.012	28194.56
588.21	28471.03
588.407	28495.61
588.604	28450.55
588.801	28366.59
588.999	28147.45
589.196	27973.38
589.393	27852.55
589.59	28118.78
589.787	27969.28
589.984	27993.86
590.182	27348.75
590.379	27633.41
590.576	27348.75
590.773	27668.23
590.97	27473.67
591.167	27272.97
591.364	27064.08
591.561	27391.75
591.758	26820.37
591.955	26738.45
592.152	26951.44
592.349	26601.24
592.546	26857.23
592.743	26670.87
592.94	26220.31
593.137	26504.98
593.334	26507.03
593.531	26380.06
593.727	26341.14
593.924	26224.41
594.121	26228.51
594.318	26023.71
594.515	25855.78
594.712	26201.88
594.908	26079
595.105	25749.28
595.302	25808.67
595.499	25796.39
595.696	25308.97
595.892	25384.74
596.089	25429.8
596.286	25442.09
596.482	25126.7
596.679	25112.36
596.876	25489.19
597.072	24856.37
597.269	24911.66
597.466	24631.09
597.662	24794.93
597.859	24629.04
598.055	24839.98
598.252	24422.2
598.448	24692.53
598.645	24274.74
598.841	24448.82
599.038	24469.3
599.234	24373.05
599.431	24051.52
599.627	23744.32
599.824	24217.4
600.02	23928.64
600.217	23633.73
600.413	23615.3
600.609	23783.23
600.806	23488.32
601.002	23578.43
601.198	23455.56
601.395	23439.17
601.591	23308.1
601.787	23467.84
601.984	23414.6
602.18	23248.71
602.376	23328.58
602.572	23295.82
602.769	22781.78
602.965	22857.55
603.161	23086.92
603.357	22751.06
603.553	22579.03
603.75	22800.21
603.946	22447.96
604.142	22415.19
604.338	21989.21
604.534	22480.72
604.73	22050.65
604.926	22368.09
605.122	22390.61
605.318	21981.02
605.514	21847.9
605.71	21856.09
605.906	22107.99
606.102	21897.05
606.298	21981.02
606.494	21774.17
606.69	22062.94
606.886	21706.59
607.082	21639.01
607.278	21708.64
607.474	21378.92
607.67	21401.44
607.866	21340.01
608.062	21591.91
608.257	21311.33
608.453	21186.41
608.649	21356.39
608.845	20991.85
609.041	20936.56
609.236	20940.65
609.432	21213.03
609.628	20952.94
609.824	20690.8
610.019	21020.52
610.215	20858.73
610.411	21137.26
610.606	20617.07
610.802	20799.34
610.998	20678.51
611.193	20561.78
611.389	20768.62
611.584	20516.72
611.78	20451.19
611.976	20604.78
612.171	20309.88
612.367	20344.69
612.562	20641.65
612.758	20166.52
612.953	20080.5
613.149	20432.75
613.344	19695.49
613.539	20449.14
613.735	20078.46
613.93	20354.93
614.126	20260.73
614.321	20135.8
614.517	20135.8
614.712	19935.1
614.907	19799.93
615.103	20129.66
615.298	19742.59
615.493	19804.03
615.688	19709.82
615.884	20195.19
616.079	19386.24
616.274	19914.62
616.47	19718.01
616.665	19908.47
616.86	19441.54
617.055	19357.57
617.25	19335.04
617.445	19683.2
617.641	19373.96
617.836	19371.91
618.031	19021.7
618.226	19062.66
618.421	19054.47
618.616	19146.63
618.811	18917.26
619.006	19191.69
619.201	18495.38
619.396	18956.17
619.591	18628.49
619.786	19050.38
619.981	18481.04
620.176	18773.9
620.371	18476.94
620.566	18409.36
620.761	18229.14
620.956	18259.86
621.151	18055.06
621.346	18276.24
621.541	17760.16
621.735	18100.12
621.93	17684.38
622.125	17821.59
622.32	17469.34
622.515	17653.66
622.709	17416.1
622.904	17575.84
623.099	17246.12
623.294	17323.94
623.488	17368.99
623.683	17094.57
623.878	16691.12
624.072	16936.87
624.267	16836.52
624.462	16476.08
624.656	16562.09
624.851	16521.13
625.046	16646.06
625.24	16351.15
625.435	16248.75
625.629	16232.37
625.824	16082.87
626.018	16197.56
626.213	15624.12
626.407	15769.53
626.602	15581.12
626.796	15654.84
626.991	15773.63
627.185	15570.88
627.38	15364.03
627.574	15394.75
627.768	15108.04
627.963	15167.43
628.157	15108.04
628.352	15171.52
628.546	14653.39
628.74	14878.66
628.935	14643.15
629.129	14729.16
629.323	14528.46
629.517	14669.77
629.712	14626.76
629.906	14395.34
630.1	14008.28
630.294	14372.82
630.489	14112.72
630.683	14026.71
630.877	14100.44
631.071	13821.91
631.265	13848.54
631.459	13850.58
631.653	13797.34
631.848	13797.34
632.042	13529.05
632.236	13666.27
632.43	13379.55
632.624	13592.54
632.818	13359.07
633.012	13152.23
633.206	13101.03
633.4	13090.79
633.594	12929
633.788	13004.77
633.982	13062.12
634.176	12818.41
634.369	12664.81
634.563	12824.55
634.757	12580.84
634.951	12576.75
635.145	12634.09
635.339	12453.87
635.533	12322.8
635.726	12404.72
635.92	12128.24
636.114	12349.42
636.308	12374
636.501	12146.67
636.695	11825.14
636.889	11868.15
637.083	11909.11
637.276	11677.69
637.47	11782.13
637.664	11687.93
637.857	11802.61
638.051	11833.33
638.244	11737.08
638.438	11200.51
638.632	11536.38
638.825	11415.55
639.019	11247.62
639.212	11149.31
639.406	11069.44
639.599	11128.83
639.793	11315.2
639.986	10893.32
640.18	10987.52
640.373	10860.55
640.567	10682.38
640.76	10752.01
640.954	10704.9
641.147	10637.32
641.34	10629.13
641.534	10473.48
641.727	10518.54
641.92	10569.74
642.114	10436.62
642.307	10471.43
642.5	10182.67
642.694	10135.57
642.887	10000.4
643.08	10283.02
643.273	10154
643.467	10041.36
643.66	10022.93
643.853	9750.55
644.046	9705.49
644.239	9791.51
644.432	9783.32
644.626	9642.01
644.819	9656.34
645.012	9531.42
645.205	9639.96
645.398	9586.71
645.591	9390.11
645.784	9236.51
645.977	9148.45
646.17	9496.6
646.363	9394.2
646.556	9119.78
646.749	9191.45
646.942	9287.71
647.135	8966.18
647.328	9023.52
647.521	8939.55
647.714	8939.55
647.907	8878.12
648.099	8671.27
648.292	8869.92
648.485	8857.64
648.678	8722.47
648.871	8572.97
649.064	8472.62
649.256	8611.88
649.449	8466.47
649.642	8359.98
649.835	8491.05
650.027	8415.27
650.22	8366.12
650.413	8202.29
650.605	8226.86
650.798	8159.28
650.991	8046.64
651.183	8194.09
651.376	8042.54
651.568	8026.16
651.761	7862.32
651.954	7944.24
652.146	7845.94
652.339	7942.19
652.531	7800.88
652.724	7698.49
652.916	7647.29
653.109	7571.51
653.301	7718.96
653.494	7661.62
653.686	7534.65
653.879	7632.95
654.071	7655.48
654.263	7493.69
654.456	7499.83
654.648	7483.45
654.84	7186.49
655.033	7358.52
655.225	7186.49
655.417	7286.84
655.61	7247.93
655.802	7342.14
655.994	7161.92
656.186	6985.79
656.379	6891.59
656.571	7088.19
656.763	7127.1
656.955	6955.07
657.148	7030.85
657.34	6819.91
657.532	6907.97
657.724	6926.4
657.916	6801.47
658.108	6912.07
658.3	6723.65
658.492	6563.91
658.684	6449.22
658.876	6682.69
659.068	6557.77
659.26	6580.29
659.452	6332.49
659.644	6457.42
659.836	6363.21
660.028	6387.79
660.22	6314.06
660.412	6389.83
660.604	6246.48
660.796	6121.55
660.988	6318.15
661.18	6146.12
661.372	6113.36
661.563	6260.81
661.755	6027.34
661.947	6111.31
662.139	6094.93
662.331	6088.78
662.522	5933.14
662.714	5959.76
662.906	5828.69
663.097	5883.98
663.289	5828.69
663.481	5746.77
663.673	5855.31
663.864	5701.72
664.056	5677.14
664.247	5734.48
664.439	5693.52
664.631	5711.96
664.822	5595.22
665.014	5666.9
665.205	5554.26
665.397	5580.89
665.588	5566.55
665.78	5511.25
665.971	5363.8
666.163	5511.25
666.354	5466.2
666.546	5501.01
666.737	5367.9
666.929	5382.23
667.12	5384.28
667.311	5224.54
667.503	5281.88
667.694	5384.28
667.885	5204.06
668.077	5230.68
668.268	5240.92
668.459	5152.86
668.651	5072.99
668.842	5132.38
669.033	5068.89
669.224	5079.13
669.416	5032.03
669.607	4880.48
669.798	4964.45
669.989	5116
670.18	5001.31
670.371	5105.76
670.563	4702.31
670.754	5029.98
670.945	4814.95
671.136	4903.01
671.327	4796.51
671.518	4765.79
671.709	4720.74
671.9	4876.38
672.091	4683.88
672.282	4708.45
672.473	4747.36
672.664	4692.07
672.855	4606.05
673.046	4745.31
673.237	4784.23
673.428	4679.78
673.619	4626.53
673.809	4530.28
674	4550.76
674.191	4675.68
674.382	4462.69
674.573	4501.61
674.764	4780.13
674.954	4628.58
675.145	4601.96
675.336	4384.87
675.527	4477.03
675.717	4358.25
675.908	4378.73
676.099	4493.41
676.289	4423.78
676.48	4225.13
676.671	4345.96
676.861	4307.05
677.052	4384.87
677.243	4206.7
677.433	4253.8
677.624	4268.14
677.814	4221.03
678.005	4384.87
678.195	4223.08
678.386	4270.19
678.576	4182.12
678.767	4321.38
678.957	4155.5
679.148	4229.23
679.338	4098.16
679.529	4206.7
679.719	4237.42
679.909	4126.83
680.1	4124.78
680.29	4223.08
680.481	4061.29
680.671	4069.48
680.861	4098.16
681.052	4026.48
681.242	3930.22
681.432	4143.21
681.622	3938.41
681.813	4075.63
682.003	4069.48
682.193	4008.05
682.383	4036.72
682.573	3872.88
682.764	4147.31
682.954	4001.9
683.144	4049
683.334	4008.05
683.524	3926.13
683.714	3967.09
683.904	3864.69
684.094	3846.26
684.284	3967.09
684.474	4122.73
684.664	3997.81
684.854	3790.96
685.044	3821.68
685.234	3663.99
685.424	3909.74
685.614	3651.7
685.804	3854.45
685.994	3803.25
686.184	3821.68
686.374	3780.72
686.564	3741.81
686.753	3809.39
686.943	3698.8
687.133	3731.57
687.323	3590.26
687.513	3608.69
687.702	3614.84
687.892	3590.26
688.082	3647.6
688.272	3795.06
688.461	3635.32
688.651	3623.03
688.841	3569.78
689.03	3522.68
689.22	3475.57
689.41	3410.04
689.599	3508.34
689.789	3362.94
689.979	3475.57
690.168	3373.18
690.358	3412.09
690.547	3356.79
690.737	3446.9
690.926	3428.47
691.116	3434.61
691.305	3461.24
691.495	3321.98
691.684	3356.79
691.874	3401.85
692.063	3401.85
692.252	3328.12
692.442	3278.97
692.631	3221.63
692.82	3233.91
693.01	3274.87
693.199	3141.75
693.388	3106.94
693.578	3135.61
693.767	3123.32
693.956	3201.15
694.146	3088.51
694.335	3104.89
694.524	3170.43
694.713	3106.94
694.902	3049.6
695.092	3192.95
695.281	3025.02
695.47	3025.02
695.659	3002.49
695.848	3190.91
696.037	2939.01
696.226	3014.78
696.415	2898.05
696.604	3055.74
696.793	3043.45
696.982	2918.53
697.171	2910.33
697.36	2957.44
697.549	2965.63
697.738	3000.44
697.927	2918.53
698.116	2883.71
698.305	2984.06
698.494	2775.17
698.683	2967.68
698.872	2844.8
699.061	2779.26
699.25	2912.38
699.438	2830.46
699.627	2805.89
699.816	2814.08
700.005	2709.63
700.193	2844.8
700.382	2871.42
700.571	2764.93
700.76	2830.46
700.948	2750.59
701.137	2869.37
701.326	2762.88
701.514	2787.46
701.703	2721.92
701.892	2803.84
702.08	2699.39
702.269	2771.07
702.457	2844.8
702.646	2844.8
702.834	2795.65
703.023	2650.24
703.212	2836.61
703.4	2656.39
703.589	2666.63
703.777	2711.68
703.965	2758.78
704.154	2674.82
704.342	2711.68
704.531	2656.39
704.719	2568.32
704.907	2687.11
705.096	2672.77
705.284	2564.23
705.472	2715.78
705.661	2640
705.849	2723.97
706.037	2601.09
706.226	2789.5
706.414	2609.28
706.602	2582.66
706.79	2580.61
706.979	2543.75
707.167	2562.18
707.355	2580.61
707.543	2699.39
707.731	2676.87
707.919	2601.09
708.107	2410.63
708.296	2543.75
708.484	2654.34
708.672	2607.23
708.86	2541.7
709.048	2582.66
709.236	2599.04
709.424	2566.28
709.612	2615.43
709.8	2611.33
709.988	2508.93
710.176	2611.33
710.364	2633.86
710.551	2631.81
710.739	2615.43
710.927	2504.84
711.115	2668.67
711.303	2627.71
711.491	2623.62
711.679	2379.91
711.866	2582.66
712.054	2574.47
712.242	2615.43
712.43	2617.47
712.617	2525.32
712.805	2494.6
712.993	2549.89
713.181	2558.08
713.368	2533.51
713.556	2640
713.744	2582.66
713.931	2709.63
714.119	2457.73
714.306	2484.36
714.494	2525.32
714.682	2640
714.869	2427.01
715.057	2541.7
715.244	2461.83
715.432	2531.46
715.619	2525.32
715.807	2570.37
715.994	2437.25
716.182	2631.81
716.369	2551.94
716.556	2502.79
716.744	2545.8
716.931	2558.08
717.119	2562.18
717.306	2607.23
717.493	2574.47
717.681	2549.89
717.868	2543.75
718.055	2496.64
718.242	2613.38
718.43	2607.23
718.617	2574.47
718.804	2574.47
718.991	2553.99
719.179	2547.84
719.366	2566.28
719.553	2451.59
719.74	2515.08
719.927	2533.51
720.114	2441.35
720.301	2599.04
720.488	2525.32
720.676	2601.09
720.863	2502.79
721.05	2570.37
721.237	2533.51
721.424	2531.46
721.611	2558.08
721.798	2492.55
721.985	2533.51
722.172	2521.22
722.358	2549.89
722.545	2527.36
722.732	2521.22
722.919	2586.76
723.106	2535.56
723.293	2640
723.48	2494.6
723.667	2465.93
723.853	2476.16
724.04	2566.28
724.227	2427.01
724.414	2584.71
724.6	2517.12
724.787	2459.78
724.974	2648.19
725.161	2580.61
725.347	2533.51
725.534	2654.34
725.72	2457.73
725.907	2549.89
726.094	2551.94
726.28	2578.56
726.467	2543.75
726.653	2560.13
726.84	2594.95
727.027	2631.81
727.213	2545.8
727.4	2664.58
727.586	2519.17
727.773	2527.36
727.959	2435.21
728.145	2431.11
728.332	2570.37
728.518	2586.76
728.705	2584.71
728.891	2582.66
729.077	2652.29
729.264	2482.31
729.45	2541.7
729.636	2631.81
729.823	2678.91
730.009	2535.56
730.195	2527.36
730.382	2619.52
730.568	2631.81
730.754	2551.94
730.94	2619.52
731.126	2779.26
731.313	2699.39
731.499	2488.45
731.685	2707.59
731.871	2547.84
732.057	2654.34
732.243	2553.99
732.429	2611.33
732.615	2664.58
732.801	2529.41
732.987	2576.52
733.173	2572.42
733.359	2607.23
733.545	2693.25
733.731	2422.92
733.917	2629.76
734.103	2535.56
734.289	2631.81
734.475	2576.52
734.661	2680.96
734.847	2510.98
735.033	2558.08
735.219	2510.98
735.404	2492.55
735.59	2527.36
735.776	2566.28
735.962	2613.38
736.148	2599.04
736.333	2644.1
736.519	2644.1
736.705	2599.04
736.89	2414.73
737.076	2472.07
737.262	2582.66
737.447	2549.89
737.633	2562.18
737.819	2429.06
738.004	2523.27
738.19	2472.07
738.375	2535.56
738.561	2519.17
738.747	2541.7
738.932	2447.49
739.118	2506.88
739.303	2461.83
739.489	2465.93
739.674	2435.21
739.859	2492.55
740.045	2564.23
740.23	2486.4
740.416	2517.12
740.601	2513.03
740.786	2508.93
740.972	2424.97
741.157	2414.73
741.342	2361.48
741.528	2484.36
741.713	2406.53
741.898	2410.63
742.084	2420.87
742.269	2394.25
742.454	2429.06
742.639	2521.22
742.824	2369.67
743.01	2355.33
743.195	2386.05
743.38	2480.26
743.565	2312.33
743.75	2267.27
743.935	2338.95
744.12	2271.37
744.305	2334.86
744.49	2328.71
744.675	2226.31
744.86	2214.02
745.045	2220.17
745.23	2199.69
745.415	2160.78
745.6	2281.61
745.785	2240.65
745.97	2283.66
746.155	2267.27
746.34	2250.89
746.525	2230.41
746.71	2156.68
746.895	2226.31
747.079	2189.45
747.264	2195.59
747.449	2189.45
747.634	2099.34
747.819	2230.41
748.003	2107.53
748.188	2066.57
748.373	2164.87
748.557	2205.83
748.742	2009.23
748.927	2089.1
749.111	2060.43
749.296	2082.95
749.481	2113.67
749.665	2031.76
749.85	2062.48
750.034	2017.42
750.219	2066.57
750.404	1992.84
750.588	1984.65
750.773	1908.88
750.957	1912.97
751.141	1839.25
751.326	1880.21
751.51	1906.83
751.695	1763.47
751.879	1853.58
752.064	1896.59
752.248	1882.25
752.432	1867.92
752.617	1792.14
752.801	1849.49
752.985	1702.03
753.17	1736.85
753.354	1665.17
753.538	1730.7
753.722	1730.7
753.907	1628.31
754.091	1659.03
754.275	1742.99
754.459	1640.59
754.643	1669.27
754.828	1699.98
755.012	1706.13
755.196	1599.63
755.38	1745.04
755.564	1525.91
755.748	1640.59
755.932	1616.02
756.116	1480.85
756.3	1517.72
756.484	1534.1
756.668	1632.4
756.852	1462.42
757.036	1626.26
757.22	1478.8
757.404	1487
757.588	1534.1
757.772	1495.19
757.956	1534.1
758.14	1493.14
758.323	1495.19
758.507	1441.94
758.691	1495.19
758.875	1443.99
759.059	1509.52
759.242	1386.65
759.426	1370.26
759.61	1351.83
759.794	1398.93
759.977	1374.36
760.161	1472.66
760.345	1349.78
760.528	1413.27
760.712	1415.32
760.895	1321.11
761.079	1329.3
761.263	1224.86
761.446	1259.67
761.63	1247.38
761.813	1382.55
761.997	1333.4
762.18	1284.25
762.364	1267.86
762.547	1341.59
762.731	1276.06
762.914	1247.38
763.098	1142.94
763.281	1267.86
763.464	1181.85
763.648	1251.48
763.831	1093.79
764.015	1235.1
764.198	1263.77
764.381	1263.77
764.564	1306.77
764.748	1216.66
764.931	1239.19
765.114	1069.21
765.297	1239.19
765.481	1161.37
765.664	1206.42
765.847	1190.04
766.03	1198.23
766.213	1214.62
766.397	1177.75
766.58	1144.99
766.763	1183.9
766.946	1124.51
767.129	1198.23
767.312	1175.7
767.495	1036.44
767.678	1120.41
767.861	1050.78
768.044	1054.87
768.227	1063.07
768.41	1120.41
768.593	1132.7
768.776	1093.79
768.959	1058.97
769.142	1155.23
769.324	968.86
769.507	1089.69
769.69	1034.39
769.873	972.96
770.056	1028.25
770.239	1136.79
770.421	1161.37
770.604	1081.5
770.787	999.58
770.97	1052.83
771.152	966.81
771.335	1058.97
771.518	952.48
771.7	1099.93
771.883	970.91
772.066	1030.3
772.248	878.75
772.431	995.48
772.613	960.67
772.796	870.56
772.978	936.09
773.161	938.14
773.343	856.22
773.526	944.28
773.708	895.13
773.891	870.56
774.073	1013.92
774.256	852.13
774.438	878.75
774.621	940.19
774.803	895.13
774.985	907.42
775.168	886.94
775.35	872.61
775.532	731.3
775.715	805.02
775.897	823.45
776.079	841.89
776.261	854.17
776.444	837.79
776.626	872.61
776.808	800.93
776.99	792.73
777.173	825.5
777.355	673.95
777.537	843.93
777.719	727.2
777.901	805.02
778.083	762.02
778.265	678.05
778.447	813.21
778.629	731.3
778.811	706.72
778.993	669.86
779.175	782.49
779.357	723.1
779.539	643.23
779.721	739.49
779.903	682.14
780.085	784.54
780.267	680.1
780.449	741.54
780.631	665.76
780.812	725.15
780.994	645.28
781.176	723.1
781.358	616.61
781.54	575.65
781.721	651.42
781.903	618.66
782.085	610.47
782.267	669.86
782.448	585.89
782.63	514.21
782.812	641.18
782.993	655.52
783.175	635.04
783.357	510.11
783.538	618.66
783.72	561.31
783.901	536.74
784.083	592.03
784.264	622.75
784.446	518.31
784.627	463.01
784.809	620.71
784.99	559.27
785.172	540.83
785.353	632.99
785.535	542.88
785.716	508.07
785.897	469.16
786.079	518.31
786.26	424.1
786.441	594.08
786.623	495.78
786.804	567.46
786.985	567.46
787.167	538.79
787.348	438.44
787.529	526.5
787.71	551.07
787.891	383.14
788.073	452.77
788.254	501.92
788.435	518.31
788.616	489.64
788.797	399.52
788.978	440.48
789.159	493.73
789.34	428.2
789.522	440.48
789.703	428.2
789.884	436.39
790.065	407.72
790.246	571.55
790.427	319.65
790.607	422.05
790.788	460.96
790.969	393.38
791.15	387.24
791.331	350.37
791.512	370.85
791.693	379.04
791.874	381.09
792.054	436.39
792.235	446.63
792.416	360.61
792.597	346.28
792.778	420
792.958	358.57
793.139	411.81
793.32	346.28
793.5	354.47
793.681	362.66
793.862	364.71
794.042	274.6
794.223	317.61
794.404	311.46
794.584	356.52
794.765	321.7
794.945	333.99
795.126	329.89
795.306	350.37
795.487	356.52
795.667	303.27
795.848	366.76
796.028	362.66
796.209	333.99
796.389	331.94
796.57	366.76
796.75	270.5
796.93	313.51
797.111	301.22
797.291	284.84
797.471	336.04
797.652	313.51
797.832	258.21
798.012	305.32
798.192	276.65
798.373	274.6
798.553	309.41
798.733	325.8
798.913	278.69
799.093	354.47
799.274	290.98
799.454	319.65
799.634	321.7
799.814	299.17
799.994	317.61
800.174	383.14
800.354	321.7
800.534	288.93
800.714	274.6
800.894	301.22
801.074	239.78
801.254	313.51
801.434	262.31
801.614	264.36
801.794	200.87
801.974	686.24
802.154	264.36
802.334	264.36
802.514	239.78
802.693	200.87
802.873	247.97
803.053	241.83
803.233	340.13
803.413	219.3
803.592	272.55
803.772	272.55
803.952	338.09
804.131	239.78
804.311	282.79
804.491	276.65
804.67	264.36
804.85	274.6
805.03	223.4
805.209	280.74
805.389	256.17
805.568	164.01
805.748	243.88
805.928	157.86
806.107	284.84
806.287	237.74
806.466	264.36
806.646	161.96
806.825	231.59
807.004	241.83
807.184	258.21
807.363	280.74
807.543	223.4
807.722	127.14
807.901	186.54
808.081	223.4
808.26	96.43
808.439	211.11
808.619	196.78
808.798	153.77
808.977	133.29
809.156	268.45
809.336	207.02
809.515	264.36
809.694	174.25
809.873	215.21
810.052	80.04
810.231	209.06
810.411	155.82
810.59	166.06
810.769	229.54
810.948	260.26
811.127	143.53
811.306	75.95
811.485	123.05
811.664	172.2
811.843	200.87
812.022	233.64
812.201	174.25
812.38	174.25
812.559	129.19
812.737	225.45
812.916	151.72
813.095	125.1
813.274	184.49
813.453	184.49
813.632	176.3
813.811	215.21
813.989	88.23
814.168	192.68
814.347	123.05
814.526	153.77
814.704	217.26
814.883	264.36
815.062	145.58
815.24	141.48
815.419	139.43
815.598	127.14
815.776	157.86
815.955	133.29
816.133	67.75
816.312	90.28
816.49	100.52
816.669	182.44
816.847	186.54
817.026	200.87
817.204	110.76
817.383	174.25
817.561	108.71
817.74	174.25
817.918	137.38
818.097	207.02
818.275	159.91
818.453	112.81
818.632	67.75
818.81	121
818.988	106.67
819.167	125.1
819.345	172.2
819.523	127.14
819.701	135.34
819.879	129.19
820.058	114.86
820.236	151.72
820.414	166.06
820.592	100.52
820.77	157.86
820.948	102.57
821.127	61.61
821.305	170.15
821.483	102.57
821.661	178.34
821.839	143.53
822.017	94.38
822.195	129.19
822.373	116.9
822.551	112.81
822.729	176.3
822.907	92.33
823.085	100.52
823.262	194.73
823.44	186.54
823.618	102.57
823.796	118.95
823.974	137.38
824.152	137.38
824.329	149.67
824.507	129.19
824.685	172.2
824.863	211.11
825.04	2.22
825.218	51.37
825.396	51.37
825.574	192.68
825.751	182.44
825.929	168.1
826.107	24.75
826.284	110.76
826.462	114.86
826.639	164.01
826.817	67.75
826.994	71.85
827.172	94.38
827.349	75.95
827.527	133.29
827.704	67.75
827.882	170.15
828.059	39.08
828.237	164.01
828.414	108.71
828.591	18.6
828.769	102.57
828.946	20.65
829.124	153.77
829.301	172.2
829.478	61.61
829.655	121
829.833	43.18
830.01	104.62
830.187	100.52
830.364	100.52
830.542	112.81
830.719	151.72
830.896	100.52
831.073	71.85
831.25	108.71
831.427	69.8
831.604	51.37
831.782	47.27
831.959	118.95
832.136	104.62
832.313	96.43
832.49	63.66
832.667	127.14
832.844	67.75
833.021	112.81
833.198	114.86
833.374	133.29
833.551	45.23
833.728	84.14
833.905	127.14
834.082	71.85
834.259	108.71
834.436	65.71
834.612	53.42
834.789	166.06
834.966	88.23
835.143	110.76
835.319	34.99
835.496	116.9
835.673	92.33
835.85	168.1
836.026	61.61
836.203	118.95
836.38	104.62
836.556	51.37
836.733	34.99
836.909	149.67
837.086	77.99
837.262	67.75
837.439	69.8
837.616	22.7
837.792	75.95
837.968	125.1
838.145	92.33
838.321	77.99
838.498	67.75
838.674	37.03
838.851	61.61
839.027	51.37
839.203	96.43
839.38	18.6
839.556	69.8
839.732	71.85
839.909	59.56
840.085	84.14
840.261	53.42
840.437	53.42
840.614	-3.93
840.79	129.19
840.966	34.99
841.142	75.95
841.318	2.22
841.494	41.13
841.671	49.32
841.847	39.08
842.023	45.23
842.199	30.89
842.375	43.18
842.551	20.65
842.727	8.36
842.903	51.37
843.079	82.09
843.255	43.18
843.431	12.46
843.607	86.19
843.783	26.79
843.959	26.79
844.134	12.46
844.31	28.84
844.486	71.85
844.662	-3.93
844.838	71.85
845.013	116.9
845.189	12.46
845.365	67.75
845.541	80.04
845.716	104.62
845.892	10.41
846.068	86.19
846.244	88.23
846.419	61.61
846.595	-32.6
846.77	18.6
846.946	75.95
847.122	96.43
847.297	55.47
847.473	61.61
847.648	32.94
847.824	53.42
847.999	-46.93
848.175	71.85
848.35	69.8
848.526	118.95
848.701	-26.45
848.876	39.08
849.052	34.99
849.227	51.37
849.403	-16.21
849.578	12.46
849.753	20.65
849.929	67.75
850.104	116.9
850.279	51.37
850.454	6.31
850.63	34.99
850.805	39.08
850.98	53.42
851.155	67.75
851.33	-38.74
851.505	41.13
851.681	-8.02
851.856	34.99
852.031	53.42
852.206	37.03
852.381	12.46
852.556	59.56
852.731	61.61
852.906	75.95
853.081	94.38
853.256	102.57
853.431	67.75
853.606	39.08
853.781	28.84
853.956	26.79
854.131	-5.97
854.305	14.51
854.48	20.65
854.655	-40.79
854.83	61.61
855.005	20.65
855.18	30.89
855.354	-5.97
855.529	-34.64
855.704	-34.64
855.879	26.79
856.053	-38.74
856.228	67.75
856.403	0.17
856.577	51.37
856.752	-44.88
856.926	-3.93
857.101	30.89
857.276	-10.07
857.45	43.18
857.625	69.8
857.799	84.14
857.974	4.27
858.148	-12.12
858.323	18.6
858.497	30.89
858.672	-59.22
858.846	92.33
859.02	28.84
859.195	-57.17
859.369	26.79
859.543	28.84
859.718	20.65
859.892	57.51
860.066	30.89
860.241	47.27
860.415	12.46
860.589	0.17
860.763	-18.26
860.938	-87.89
861.112	43.18
861.286	-44.88
861.46	28.84
861.634	-14.17
861.808	26.79
861.982	-38.74
862.157	39.08
862.331	22.7
862.505	43.18
862.679	-28.5
862.853	2.22
863.027	47.27
863.201	80.04
863.375	20.65
863.549	34.99
863.722	-14.17
863.896	37.03
864.07	-5.97
864.244	18.6
864.418	4.27
864.592	2.22
864.766	22.7
864.939	8.36
865.113	-63.32
865.287	77.99
865.461	-71.51
865.634	67.75
865.808	30.89
865.982	51.37
866.156	14.51
866.329	43.18
866.503	135.34
866.676	12.46
866.85	12.46
867.024	-5.97
867.197	28.84
867.371	-20.31
867.544	51.37
867.718	4.27
867.891	45.23
868.065	-14.17
868.238	0.17
868.412	-26.45
868.585	-12.12
868.759	-14.17
868.932	32.94
869.105	37.03
869.279	-96.08
869.452	-22.36
869.625	-1.88
869.799	-22.36
869.972	26.79
870.145	12.46
870.319	10.41
870.492	-30.55
870.665	20.65
870.838	18.6
871.011	10.41
871.185	2.22
871.358	20.65
871.531	-18.26
871.704	28.84
871.877	37.03
872.05	-26.45
872.223	-38.74
872.396	-1.88
872.569	-5.97
872.742	-91.99
872.915	67.75
873.088	-22.36
873.261	20.65
873.434	75.95
873.607	92.33
873.78	67.75
873.953	2.22
874.126	30.89
874.299	53.42
874.471	14.51
874.644	-10.07
874.817	47.27
874.99	84.14
875.163	-3.93
875.335	-14.17
875.508	-14.17
875.681	18.6
875.853	10.41
876.026	39.08
876.199	18.6
876.371	-22.36
876.544	-75.6
876.717	43.18
876.889	-18.26
877.062	16.55
877.234	-36.69
877.407	-51.03
877.579	-22.36
877.752	-3.93
877.924	-5.97
878.097	18.6
878.269	22.7
878.442	-18.26
878.614	-14.17
878.786	-38.74
878.959	28.84
879.131	75.95
879.303	10.41
879.476	12.46
879.648	8.36
879.82	67.75
879.993	22.7
880.165	10.41
880.337	-38.74
880.509	-79.7
880.681	-46.93
880.854	-30.55
881.026	10.41
881.198	92.33
881.37	-24.4
881.542	-26.45
881.714	-57.17
881.886	94.38
882.058	-8.02
882.23	-77.65
882.402	51.37
882.574	26.79
882.746	-14.17
882.918	2.22
883.09	14.51
883.262	-30.55
883.434	18.6
883.606	-14.17
883.778	-14.17
883.95	90.28
884.122	-75.6
884.293	12.46
884.465	28.84
884.637	82.09
884.809	-3.93
884.98	-1.88
885.152	18.6
885.324	47.27
885.496	10.41
885.667	-30.55
885.839	2.22
886.011	39.08
886.182	22.7
886.354	-10.07
886.525	18.6
886.697	51.37
886.869	-24.4
887.04	-3.93
887.212	10.41
887.383	30.89
887.555	28.84
887.726	-87.89
887.897	-22.36
888.069	14.51
888.24	24.75
888.412	10.41
888.583	-14.17
888.754	-20.31
888.926	0.17
889.097	-3.93
889.268	26.79
889.44	51.37
889.611	34.99
889.782	2.22
889.953	20.65
890.125	55.47
890.296	-3.93
890.467	-26.45
890.638	-5.97
890.809	6.31
890.98	28.84
891.151	34.99
891.323	12.46
891.494	71.85
891.665	-36.69
891.836	14.51
892.007	4.27
892.178	94.38
892.349	8.36
892.52	32.94
892.691	2.22
892.862	-8.02
893.032	-14.17
893.203	-20.31
893.374	-85.84
893.545	37.03
893.716	-3.93
893.887	26.79
894.057	-8.02
894.228	-26.45
894.399	-28.5
894.57	4.27
894.74	6.31
894.911	71.85
895.082	2.22
895.253	-46.93
895.423	-26.45
895.594	-20.31
895.764	-10.07
895.935	-3.93
896.106	-22.36
896.276	-30.55
896.447	-22.36
896.617	-69.46
896.788	22.7
896.958	-94.04
897.129	63.66
897.299	37.03
897.47	26.79
897.64	-38.74
897.81	-46.93
897.981	34.99
898.151	-28.5
898.322	61.61
898.492	-1.88
898.662	43.18
898.832	-26.45
899.003	-3.93
899.173	-5.97
899.343	-1.88
899.513	34.99
