Data from USB4F104151__234__14-45-40-045.txt Node

Date: Thu Mar 13 14:45:40 EDT 2025
User: louis
Spectrometer: USB4F10415
Trigger mode: 4
Integration Time (sec): 2.000000E-2
Scans to average: 1
Electric dark correction enabled: true
Nonlinearity correction enabled: false
Boxcar width: 0
XAxis mode: Wavelengths
Number of Pixels in Spectrum: 3648
>>>>>Begin Spectral Data<<<<<
178.204	-55.12
178.424	-55.12
178.644	-55.12
178.864	-63.32
179.084	-53.08
179.304	-53.08
179.524	-42.84
179.744	-20.31
179.964	98.47
180.184	53.42
180.404	28.84
180.624	10.41
180.844	-36.69
181.064	6.31
181.283	-26.45
181.503	-34.64
181.723	16.55
181.943	26.79
182.163	96.43
182.383	-20.31
182.602	55.47
182.822	47.27
183.042	10.41
183.262	28.84
183.482	71.85
183.701	-34.64
183.921	47.27
184.141	-3.93
184.361	34.99
184.58	16.55
184.8	-28.5
185.02	49.32
185.239	82.09
185.459	8.36
185.679	65.71
185.898	-57.17
186.118	51.37
186.338	12.46
186.557	47.27
186.777	-12.12
186.997	57.51
187.216	24.75
187.436	61.61
187.655	28.84
187.875	28.84
188.095	-3.93
188.314	28.84
188.534	-3.93
188.753	22.7
188.973	82.09
189.192	57.51
189.412	37.03
189.631	110.76
189.851	4.27
190.07	106.67
190.29	-36.69
190.509	-26.45
190.729	-26.45
190.948	53.42
191.168	116.9
191.387	41.13
191.607	-53.08
191.826	77.99
192.045	28.84
192.265	-32.6
192.484	39.08
192.704	28.84
192.923	-46.93
193.142	28.84
193.362	24.75
193.581	-3.93
193.8	16.55
194.02	77.99
194.239	53.42
194.458	51.37
194.678	41.13
194.897	28.84
195.116	28.84
195.335	-24.4
195.555	94.38
195.774	12.46
195.993	88.23
196.212	24.75
196.432	37.03
196.651	-44.88
196.87	4.27
197.089	86.19
197.308	49.32
197.528	2.22
197.747	2.22
197.966	14.51
198.185	127.14
198.404	12.46
198.623	51.37
198.842	86.19
199.062	-24.4
199.281	10.41
199.5	10.41
199.719	10.41
199.938	63.66
200.157	49.32
200.376	16.55
200.595	-18.26
200.814	84.14
201.033	-24.4
201.252	20.65
201.471	71.85
201.69	84.14
201.909	-16.21
202.128	73.9
202.347	-24.4
202.566	77.99
202.785	-18.26
203.004	-12.12
203.223	14.51
203.442	47.27
203.661	61.61
203.879	45.23
204.098	63.66
204.317	-36.69
204.536	45.23
204.755	4.27
204.974	39.08
205.193	-8.02
205.411	57.51
205.63	86.19
205.849	12.46
206.068	2.22
206.287	86.19
206.505	0.17
206.724	47.27
206.943	67.75
207.162	37.03
207.381	37.03
207.599	-20.31
207.818	2.22
208.037	22.7
208.255	8.36
208.474	53.42
208.693	49.32
208.911	20.65
209.13	12.46
209.349	4.27
209.567	-3.93
209.786	34.99
210.005	6.31
210.223	47.27
210.442	39.08
210.661	-42.84
210.879	77.99
211.098	55.47
211.316	24.75
211.535	28.84
211.753	39.08
211.972	30.89
212.191	53.42
212.409	22.7
212.628	55.47
212.846	49.32
213.065	49.32
213.283	-3.93
213.502	61.61
213.72	24.75
213.938	12.46
214.157	-12.12
214.375	77.99
214.594	47.27
214.812	-16.21
215.031	90.28
215.249	69.8
215.467	96.43
215.686	16.55
215.904	28.84
216.122	86.19
216.341	55.47
216.559	6.31
216.778	26.79
216.996	47.27
217.214	30.89
217.432	43.18
217.651	63.66
217.869	-18.26
218.087	18.6
218.306	53.42
218.524	55.47
218.742	-16.21
218.96	0.17
219.179	71.85
219.397	-1.88
219.615	77.99
219.833	61.61
220.051	61.61
220.27	80.04
220.488	24.75
220.706	-59.22
220.924	-44.88
221.142	65.71
221.36	45.23
221.578	43.18
221.796	51.37
222.015	37.03
222.233	16.55
222.451	71.85
222.669	-32.6
222.887	14.51
223.105	-5.97
223.323	-1.88
223.541	28.84
223.759	20.65
223.977	30.89
224.195	28.84
224.413	-8.02
224.631	108.71
224.849	41.13
225.067	77.99
225.285	28.84
225.503	28.84
225.721	-3.93
225.939	80.04
226.157	10.41
226.375	94.38
226.592	-14.17
226.81	63.66
227.028	55.47
227.246	118.95
227.464	14.51
227.682	102.57
227.9	14.51
228.117	86.19
228.335	-1.88
228.553	-61.27
228.771	41.13
228.989	41.13
229.206	-16.21
229.424	96.43
229.642	-3.93
229.86	53.42
230.077	28.84
230.295	75.95
230.513	104.62
230.731	20.65
230.948	77.99
231.166	77.99
231.384	-3.93
231.601	45.23
231.819	82.09
232.037	22.7
232.254	41.13
232.472	20.65
232.689	0.17
232.907	71.85
233.125	16.55
233.342	-28.5
233.56	-8.02
233.777	49.32
233.995	71.85
234.213	86.19
234.43	32.94
234.648	94.38
234.865	32.94
235.083	104.62
235.3	37.03
235.518	94.38
235.735	26.79
235.953	51.37
236.17	-26.45
236.388	30.89
236.605	-20.31
236.822	61.61
237.04	61.61
237.257	37.03
237.475	-24.4
237.692	43.18
237.909	30.89
238.127	86.19
238.344	110.76
238.562	-12.12
238.779	-22.36
238.996	94.38
239.214	57.51
239.431	80.04
239.648	14.51
239.865	57.51
240.083	49.32
240.3	98.47
240.517	57.51
240.735	20.65
240.952	39.08
241.169	53.42
241.386	57.51
241.603	22.7
241.821	41.13
242.038	98.47
242.255	37.03
242.472	-69.46
242.689	71.85
242.907	28.84
243.124	18.6
243.341	8.36
243.558	-12.12
243.775	-1.88
243.992	69.8
244.209	94.38
244.426	73.9
244.643	110.76
244.86	34.99
245.078	-18.26
245.295	14.51
245.512	55.47
245.729	12.46
245.946	-1.88
246.163	41.13
246.38	10.41
246.597	12.46
246.814	45.23
247.031	49.32
247.248	49.32
247.464	-18.26
247.681	30.89
247.898	-12.12
248.115	-12.12
248.332	24.75
248.549	-18.26
248.766	102.57
248.983	61.61
249.2	45.23
249.417	37.03
249.633	10.41
249.85	6.31
250.067	-8.02
250.284	53.42
250.501	37.03
250.717	77.99
250.934	-57.17
251.151	53.42
251.368	24.75
251.585	6.31
251.801	-48.98
252.018	30.89
252.235	4.27
252.451	-22.36
252.668	-40.79
252.885	45.23
253.102	10.41
253.318	-8.02
253.535	34.99
253.752	12.46
253.968	20.65
254.185	24.75
254.401	-12.12
254.618	75.95
254.835	6.31
255.051	55.47
255.268	-16.21
255.484	137.38
255.701	41.13
255.917	55.47
256.134	-1.88
256.351	10.41
256.567	82.09
256.784	-5.97
257	-34.64
257.217	10.41
257.433	63.66
257.65	20.65
257.866	82.09
258.082	30.89
258.299	53.42
258.515	45.23
258.732	73.9
258.948	14.51
259.165	77.99
259.381	41.13
259.597	6.31
259.814	0.17
260.03	34.99
260.246	0.17
260.463	61.61
260.679	80.04
260.895	51.37
261.112	32.94
261.328	-3.93
261.544	14.51
261.761	102.57
261.977	86.19
262.193	16.55
262.409	-28.5
262.626	94.38
262.842	16.55
263.058	22.7
263.274	-18.26
263.49	77.99
263.707	22.7
263.923	57.51
264.139	12.46
264.355	12.46
264.571	90.28
264.787	49.32
265.004	39.08
265.22	16.55
265.436	28.84
265.652	6.31
265.868	55.47
266.084	-20.31
266.3	71.85
266.516	-69.46
266.732	12.46
266.948	49.32
267.164	14.51
267.38	63.66
267.596	45.23
267.812	143.53
268.028	-3.93
268.244	-3.93
268.46	47.27
268.676	96.43
268.892	51.37
269.108	90.28
269.324	-20.31
269.54	82.09
269.756	102.57
269.972	12.46
270.188	86.19
270.403	82.09
270.619	-26.45
270.835	32.94
271.051	4.27
271.267	45.23
271.483	-26.45
271.698	39.08
271.914	45.23
272.13	37.03
272.346	-3.93
272.562	86.19
272.777	-28.5
272.993	75.95
273.209	61.61
273.425	-3.93
273.64	-36.69
273.856	71.85
274.072	20.65
274.287	-28.5
274.503	4.27
274.719	114.86
274.934	-1.88
275.15	26.79
275.366	12.46
275.581	24.75
275.797	12.46
276.012	102.57
276.228	77.99
276.444	80.04
276.659	30.89
276.875	10.41
277.09	80.04
277.306	-3.93
277.521	69.8
277.737	69.8
277.952	104.62
278.168	22.7
278.383	20.65
278.599	-18.26
278.814	39.08
279.03	-8.02
279.245	92.33
279.461	98.47
279.676	59.56
279.892	-5.97
280.107	59.56
280.322	-8.02
280.538	4.27
280.753	-3.93
280.969	114.86
281.184	-3.93
281.399	57.51
281.615	28.84
281.83	73.9
282.045	24.75
282.26	-5.97
282.476	73.9
282.691	37.03
282.906	106.67
283.122	-3.93
283.337	-28.5
283.552	-1.88
283.767	8.36
283.983	80.04
284.198	-3.93
284.413	28.84
284.628	-18.26
284.843	-3.93
285.058	51.37
285.274	39.08
285.489	-5.97
285.704	94.38
285.919	12.46
286.134	77.99
286.349	24.75
286.564	-12.12
286.779	41.13
286.995	102.57
287.21	45.23
287.425	71.85
287.64	-24.4
287.855	45.23
288.07	-42.84
288.285	20.65
288.5	51.37
288.715	53.42
288.93	4.27
289.145	63.66
289.36	86.19
289.575	22.7
289.79	8.36
290.004	80.04
290.219	77.99
290.434	28.84
290.649	71.85
290.864	-26.45
291.079	24.75
291.294	-28.5
291.509	20.65
291.724	22.7
291.938	-3.93
292.153	-8.02
292.368	4.27
292.583	-12.12
292.798	92.33
293.012	0.17
293.227	30.89
293.442	-10.07
293.657	114.86
293.871	65.71
294.086	-20.31
294.301	26.79
294.516	80.04
294.73	-3.93
294.945	-24.4
295.16	45.23
295.374	37.03
295.589	34.99
295.804	39.08
296.018	-16.21
296.233	32.94
296.447	80.04
296.662	-28.5
296.877	69.8
297.091	61.61
297.306	47.27
297.52	4.27
297.735	22.7
297.949	-75.6
298.164	18.6
298.378	53.42
298.593	53.42
298.807	-20.31
299.022	-28.5
299.236	28.84
299.451	67.75
299.665	41.13
299.88	4.27
300.094	90.28
300.309	2.22
300.523	57.51
300.737	49.32
300.952	18.6
301.166	16.55
301.381	16.55
301.595	57.51
301.809	28.84
302.024	71.85
302.238	45.23
302.452	94.38
302.667	77.99
302.881	41.13
303.095	-20.31
303.309	0.17
303.524	45.23
303.738	61.61
303.952	-10.07
304.166	49.32
304.381	-16.21
304.595	77.99
304.809	73.9
305.023	37.03
305.237	49.32
305.452	61.61
305.666	53.42
305.88	45.23
306.094	41.13
306.308	14.51
306.522	69.8
306.736	43.18
306.95	-48.98
307.164	32.94
307.379	30.89
307.593	98.47
307.807	73.9
308.021	41.13
308.235	18.6
308.449	20.65
308.663	30.89
308.877	90.28
309.091	88.23
309.305	102.57
309.519	28.84
309.733	39.08
309.947	-8.02
310.161	71.85
310.374	20.65
310.588	84.14
310.802	-18.26
311.016	18.6
311.23	20.65
311.444	61.61
311.658	86.19
311.872	20.65
312.085	-12.12
312.299	102.57
312.513	94.38
312.727	2.22
312.941	8.36
313.154	61.61
313.368	12.46
313.582	86.19
313.796	4.27
314.009	49.32
314.223	131.24
314.437	94.38
314.651	88.23
314.864	-32.6
315.078	14.51
315.292	-12.12
315.505	-22.36
315.719	61.61
315.933	-18.26
316.146	73.9
316.36	-67.41
316.573	61.61
316.787	37.03
317.001	53.42
317.214	22.7
317.428	37.03
317.641	53.42
317.855	-32.6
318.068	20.65
318.282	14.51
318.495	96.43
318.709	71.85
318.922	53.42
319.136	12.46
319.349	80.04
319.563	88.23
319.776	71.85
319.99	-30.55
320.203	84.14
320.417	100.52
320.63	28.84
320.843	77.99
321.057	57.51
321.27	118.95
321.483	24.75
321.697	94.38
321.91	88.23
322.124	92.33
322.337	61.61
322.55	18.6
322.763	92.33
322.977	112.81
323.19	37.03
323.403	39.08
323.617	22.7
323.83	104.62
324.043	37.03
324.256	75.95
324.469	22.7
324.683	69.8
324.896	43.18
325.109	-1.88
325.322	47.27
325.535	135.34
325.748	-46.93
325.962	0.17
326.175	94.38
326.388	47.27
326.601	143.53
326.814	47.27
327.027	-1.88
327.24	61.61
327.453	-32.6
327.666	82.09
327.879	55.47
328.092	34.99
328.305	32.94
328.518	-10.07
328.731	53.42
328.944	12.46
329.157	20.65
329.37	14.51
329.583	116.9
329.796	41.13
330.009	-3.93
330.222	-28.5
330.435	61.61
330.648	47.27
330.861	26.79
331.073	32.94
331.286	49.32
331.499	96.43
331.712	-36.69
331.925	-3.93
332.138	-3.93
332.35	4.27
332.563	-36.69
332.776	-28.5
332.989	6.31
333.202	37.03
333.414	-1.88
333.627	-53.08
333.84	0.17
334.053	-20.31
334.265	-8.02
334.478	37.03
334.691	63.66
334.903	28.84
335.116	28.84
335.329	6.31
335.541	82.09
335.754	131.24
335.966	41.13
336.179	22.7
336.392	90.28
336.604	34.99
336.817	18.6
337.029	55.47
337.242	45.23
337.454	4.27
337.667	22.7
337.88	4.27
338.092	41.13
338.305	80.04
338.517	80.04
338.729	2.22
338.942	110.76
339.154	-24.4
339.367	20.65
339.579	80.04
339.792	16.55
340.004	131.24
340.217	77.99
340.429	-8.02
340.641	8.36
340.854	37.03
341.066	-8.02
341.278	98.47
341.491	53.42
341.703	37.03
341.915	-1.88
342.128	53.42
342.34	47.27
342.552	-5.97
342.764	-79.7
342.977	61.61
343.189	41.13
343.401	12.46
343.613	61.61
343.826	43.18
344.038	53.42
344.25	86.19
344.462	4.27
344.674	45.23
344.886	8.36
345.099	32.94
345.311	34.99
345.523	41.13
345.735	-8.02
345.947	69.8
346.159	59.56
346.371	-8.02
346.583	53.42
346.795	69.8
347.007	41.13
347.219	153.77
347.431	127.14
347.643	88.23
347.855	-14.17
348.067	80.04
348.279	-20.31
348.491	71.85
348.703	65.71
348.915	-53.08
349.127	47.27
349.339	77.99
349.551	-20.31
349.763	114.86
349.975	16.55
350.187	61.61
350.399	37.03
350.61	53.42
350.822	63.66
351.034	16.55
351.246	-28.5
351.458	86.19
351.669	69.8
351.881	49.32
352.093	-3.93
352.305	71.85
352.517	-40.79
352.728	20.65
352.94	39.08
353.152	24.75
353.363	45.23
353.575	90.28
353.787	84.14
353.999	37.03
354.21	82.09
354.422	45.23
354.633	-1.88
354.845	28.84
355.057	-3.93
355.268	20.65
355.48	94.38
355.692	-12.12
355.903	28.84
356.115	53.42
356.326	-65.36
356.538	102.57
356.749	98.47
356.961	90.28
357.172	45.23
357.384	-10.07
357.595	133.29
357.807	4.27
358.018	30.89
358.23	22.7
358.441	39.08
358.653	12.46
358.864	28.84
359.075	22.7
359.287	108.71
359.498	12.46
359.709	53.42
359.921	96.43
360.132	16.55
360.344	22.7
360.555	-20.31
360.766	8.36
360.977	34.99
361.189	94.38
361.4	67.75
361.611	104.62
361.823	47.27
362.034	127.14
362.245	63.66
362.456	-1.88
362.667	-28.5
362.879	-40.79
363.09	20.65
363.301	53.42
363.512	57.51
363.723	63.66
363.935	100.52
364.146	80.04
364.357	-36.69
364.568	-20.31
364.779	86.19
364.99	55.47
365.201	-16.21
365.412	51.37
365.623	16.55
365.834	102.57
366.045	73.9
366.256	182.44
366.467	39.08
366.678	-1.88
366.889	-3.93
367.1	69.8
367.311	-3.93
367.522	77.99
367.733	37.03
367.944	-1.88
368.155	-38.74
368.366	57.51
368.577	39.08
368.788	69.8
368.999	45.23
369.209	14.51
369.42	30.89
369.631	77.99
369.842	71.85
370.053	49.32
370.264	65.71
370.474	80.04
370.685	80.04
370.896	71.85
371.107	24.75
371.317	28.84
371.528	14.51
371.739	-8.02
371.95	12.46
372.16	47.27
372.371	32.94
372.582	39.08
372.792	32.94
373.003	55.47
373.214	-22.36
373.424	12.46
373.635	4.27
373.846	37.03
374.056	-44.88
374.267	84.14
374.477	96.43
374.688	37.03
374.898	57.51
375.109	125.1
375.319	-3.93
375.53	104.62
375.74	22.7
375.951	4.27
376.161	43.18
376.372	20.65
376.582	-28.5
376.793	57.51
377.003	53.42
377.214	47.27
377.424	69.8
377.635	-20.31
377.845	2.22
378.055	153.77
378.266	4.27
378.476	-3.93
378.686	102.57
378.897	49.32
379.107	94.38
379.317	90.28
379.528	-12.12
379.738	32.94
379.948	-53.08
380.158	45.23
380.369	82.09
380.579	67.75
380.789	14.51
380.999	123.05
381.21	104.62
381.42	110.76
381.63	37.03
381.84	112.81
382.05	53.42
382.261	90.28
382.471	63.66
382.681	-3.93
382.891	59.56
383.101	86.19
383.311	32.94
383.521	80.04
383.731	45.23
383.941	168.1
384.151	86.19
384.361	71.85
384.571	0.17
384.781	86.19
384.991	37.03
385.201	80.04
385.411	137.38
385.621	6.31
385.831	45.23
386.041	-10.07
386.251	37.03
386.461	96.43
386.671	82.09
386.881	47.27
387.091	104.62
387.301	104.62
387.511	59.56
387.72	53.42
387.93	73.9
388.14	2.22
388.35	30.89
388.56	104.62
388.769	92.33
388.979	86.19
389.189	49.32
389.399	28.84
389.609	-69.46
389.818	53.42
390.028	77.99
390.238	94.38
390.447	77.99
390.657	73.9
390.867	118.95
391.076	49.32
391.286	-3.93
391.496	57.51
391.705	90.28
391.915	49.32
392.125	75.95
392.334	65.71
392.544	41.13
392.753	69.8
392.963	82.09
393.172	125.1
393.382	26.79
393.591	118.95
393.801	4.27
394.01	69.8
394.22	12.46
394.429	80.04
394.639	69.8
394.848	127.14
395.058	86.19
395.267	71.85
395.477	67.75
395.686	86.19
395.895	155.82
396.105	184.49
396.314	116.9
396.524	53.42
396.733	102.57
396.942	96.43
397.152	110.76
397.361	71.85
397.57	135.34
397.78	110.76
397.989	73.9
398.198	96.43
398.407	112.81
398.617	112.81
398.826	49.32
399.035	86.19
399.244	65.71
399.453	37.03
399.663	96.43
399.872	96.43
400.081	63.66
400.29	110.76
400.499	4.27
400.708	51.37
400.917	-10.07
401.127	159.91
401.336	102.57
401.545	147.62
401.754	123.05
401.963	45.23
402.172	63.66
402.381	88.23
402.59	84.14
402.799	77.99
403.008	88.23
403.217	121
403.426	164.01
403.635	53.42
403.844	110.76
404.053	96.43
404.262	211.11
404.471	219.3
404.68	147.62
404.888	86.19
405.097	139.43
405.306	180.39
405.515	164.01
405.724	141.48
405.933	176.3
406.142	104.62
406.35	125.1
406.559	159.91
406.768	221.35
406.977	221.35
407.185	192.68
407.394	151.72
407.603	168.1
407.812	147.62
408.02	192.68
408.229	168.1
408.438	217.26
408.646	121
408.855	247.97
409.064	227.5
409.272	215.21
409.481	217.26
409.69	211.11
409.898	301.22
410.107	266.41
410.315	221.35
410.524	276.65
410.733	280.74
410.941	221.35
411.15	340.13
411.358	323.75
411.567	372.9
411.775	333.99
411.984	397.48
412.192	323.75
412.401	399.52
412.609	368.81
412.818	405.67
413.026	411.81
413.234	366.76
413.443	399.52
413.651	358.57
413.86	479.4
414.068	452.77
414.276	499.88
414.485	503.97
414.693	594.08
414.901	493.73
415.11	614.56
415.318	604.32
415.526	630.95
415.734	686.24
415.943	600.23
416.151	780.45
416.359	708.77
416.567	655.52
416.776	782.49
416.984	831.65
417.192	827.55
417.4	813.21
417.608	794.78
417.817	866.46
418.025	868.51
418.233	1011.87
418.441	864.41
418.649	938.14
418.857	987.29
419.065	1054.87
419.273	907.42
419.481	1044.63
419.689	1155.23
419.897	1177.75
420.105	1267.86
420.313	1274.01
420.521	1290.39
420.729	1302.68
420.937	1284.25
421.145	1388.69
421.353	1527.96
421.561	1570.96
421.769	1642.64
421.977	1663.12
422.185	1601.68
422.393	1771.66
422.601	1970.32
422.809	1814.67
423.017	1865.87
423.224	1859.73
423.432	1990.8
423.64	2056.33
423.848	2138.25
424.056	2162.83
424.263	2363.53
424.471	2322.57
424.679	2445.45
424.887	2527.36
425.094	2582.66
425.302	2568.32
425.51	2420.87
425.718	2551.94
425.925	2683.01
426.133	2846.85
426.341	2965.63
426.548	3039.36
426.756	3088.51
426.964	3166.33
427.171	3332.22
427.379	3403.89
427.586	3469.43
427.794	3520.63
428.001	3637.36
428.209	3897.46
428.417	3659.89
428.624	4110.44
428.832	4124.78
429.039	4051.05
429.247	4067.44
429.454	4313.19
429.662	4765.79
429.869	4561
430.076	4733.03
430.284	4706.4
430.491	5019.74
430.699	5093.47
430.906	5132.38
431.114	5140.57
431.321	5365.85
431.528	5591.13
431.736	5894.22
431.943	6139.98
432.15	5939.28
432.358	5830.74
432.565	6389.83
432.772	6226
432.979	6602.82
433.187	6725.7
433.394	6707.27
433.601	7245.88
433.808	7243.84
434.016	7049.28
434.223	7540.79
434.43	7987.25
434.637	7786.55
434.844	8138.8
435.052	8482.86
435.259	8341.55
435.466	8427.56
435.673	8321.07
435.88	8917.03
436.087	9568.28
436.294	9345.05
436.501	8980.51
436.708	9429.02
436.915	9650.2
437.122	9973.78
437.329	10055.7
437.537	10381.32
437.743	10440.72
437.95	10410
438.157	11001.86
438.364	11309.05
438.571	11407.36
438.778	11352.06
438.985	12580.84
439.192	11966.45
439.399	12333.04
439.606	11935.73
439.813	12820.46
440.02	13541.34
440.227	13299.68
440.433	12961.76
440.64	13551.58
440.847	13438.94
441.054	13819.86
441.261	14782.41
441.467	14663.63
441.674	15161.28
441.881	15482.81
442.088	15214.53
442.294	15060.93
442.501	15638.46
442.708	16080.82
442.914	16584.62
443.121	17479.58
443.328	16791.47
443.534	17985.43
443.741	17651.61
443.948	17463.2
444.154	18517.9
444.361	18427.79
444.568	18495.38
444.774	18423.7
444.981	18626.45
445.187	19361.67
445.394	20320.12
445.6	19720.06
445.807	21655.39
446.013	20959.08
446.22	20971.37
446.426	21753.69
446.633	22189.91
446.839	23160.65
447.046	22130.52
447.252	23168.84
447.459	23453.51
447.665	23611.2
447.871	24321.85
448.078	25229.1
448.284	23797.57
448.491	25202.47
448.697	25829.15
448.903	26236.7
449.11	26320.67
449.316	25800.48
449.522	26146.59
449.728	27088.65
449.935	27236.11
450.141	27174.67
450.347	28118.78
450.553	27010.83
450.76	27551.49
450.966	28311.29
451.172	27811.59
451.378	29234.92
451.584	28288.76
451.791	28667.64
451.997	28876.53
452.203	29802.21
452.409	29318.89
452.615	29222.64
452.821	28202.75
453.027	28116.73
453.233	29390.57
453.44	28581.62
453.646	28325.63
453.852	28722.93
454.058	29261.55
454.264	28464.89
454.47	29005.55
454.676	28294.91
454.882	29396.71
455.088	27021.07
455.294	27094.8
455.5	27885.31
455.705	27866.88
455.911	26840.85
456.117	26341.14
456.323	25878.3
456.529	24794.93
456.735	25739.04
456.941	25349.93
457.147	24997.68
457.352	24276.79
457.558	23875.39
457.764	23822.14
457.97	23437.13
458.176	23074.63
458.381	23107.4
458.587	22124.38
458.793	22136.66
458.999	20940.65
459.204	22355.8
459.41	21630.82
459.616	20270.97
459.821	20277.11
460.027	20230.01
460.233	19640.19
460.438	19033.99
460.644	18997.13
460.85	18192.28
461.055	18059.16
461.261	17846.17
461.466	16457.65
461.672	16105.4
461.878	17321.89
462.083	16086.97
462.289	15906.74
462.494	15716.28
462.7	14966.73
462.905	14571.47
463.111	15081.41
463.316	15052.74
463.522	14950.34
463.727	14876.62
463.932	14817.22
464.138	14637
464.343	14825.42
464.549	14342.1
464.754	14743.5
464.959	14460.88
465.165	14462.93
465.37	13826.01
465.575	13570.01
465.781	14118.87
465.986	14047.19
466.191	13363.17
466.397	13572.06
466.602	12697.58
466.807	13129.7
467.012	13135.84
467.218	13367.26
467.423	13002.72
467.628	13113.31
467.833	13455.33
468.038	12990.44
468.244	12898.28
468.449	13246.43
468.654	12718.06
468.859	12818.41
469.064	12716.01
469.269	12222.45
469.474	12199.92
469.679	12566.51
469.885	11974.64
470.09	12365.81
470.295	12111.86
470.5	11999.22
470.705	12189.68
470.91	11681.78
471.115	11718.65
471.32	11827.19
471.525	11923.44
471.73	11599.87
471.935	11343.87
472.139	11042.82
472.344	11202.56
472.549	11112.45
472.754	11206.66
472.959	10792.97
473.164	10524.68
473.369	10487.82
473.574	10856.45
473.778	10612.74
473.983	10352.65
474.188	10473.48
474.393	10215.44
474.598	10211.34
474.802	9949.2
475.007	9955.35
475.212	9938.96
475.417	9613.34
475.621	9707.54
475.826	9564.18
476.031	9437.21
476.235	9226.27
476.44	9613.34
476.645	9183.26
476.849	9367.58
477.054	9173.02
477.259	8919.07
477.463	8953.89
477.668	8908.83
477.872	8966.18
478.077	8812.58
478.282	8523.82
478.486	8587.3
478.691	8441.9
478.895	8439.85
479.1	8226.86
479.304	8392.75
479.509	8155.18
479.713	8181.81
479.918	7999.54
480.122	7886.9
480.326	8032.3
480.531	7966.77
480.735	7921.71
480.94	7946.29
481.144	8218.67
481.348	7878.71
481.553	7858.23
481.757	7655.48
481.961	7856.18
482.166	7794.74
482.37	7731.25
482.574	7589.94
482.778	7546.94
482.983	7966.77
483.187	7630.9
483.391	7911.47
483.595	7749.68
483.8	7542.84
484.004	7661.62
484.208	7768.12
484.412	7764.02
484.616	7790.64
484.821	7632.95
485.025	7428.15
485.229	7680.05
485.433	7671.86
485.637	7757.88
485.841	7444.54
486.045	7544.89
486.249	7602.23
486.453	7522.36
486.657	7651.38
486.861	7813.17
487.065	7479.35
487.269	7632.95
487.473	7598.13
487.677	7725.11
487.881	7823.41
488.085	7786.55
488.289	7802.93
488.493	7815.22
488.697	7800.88
488.901	7802.93
489.105	7735.35
489.309	7739.44
489.512	7925.81
489.716	7856.18
489.92	8083.5
490.124	7946.29
490.328	7940.15
490.531	7905.33
490.735	8085.55
490.939	7870.51
491.143	8017.97
491.346	7985.2
491.55	8155.18
491.754	8032.3
491.958	8122.41
492.161	8130.61
492.365	8097.84
492.569	8212.53
492.772	8149.04
492.976	8286.25
493.18	8376.36
493.383	8417.32
493.587	8296.49
493.79	8540.2
493.994	8321.07
494.197	8452.14
494.401	8427.56
494.605	8495.15
494.808	8771.62
495.012	8818.72
495.215	8917.03
495.419	8904.74
495.622	8892.45
495.825	8960.03
496.029	8869.92
496.232	9318.43
496.436	9326.62
496.639	9494.55
496.843	9420.83
497.046	9584.66
497.249	9910.29
497.453	9674.78
497.656	9908.24
497.859	9934.87
498.063	9820.18
498.266	10258.45
498.469	10289.17
498.673	10395.66
498.876	10471.43
499.079	10313.74
499.282	10553.35
499.485	10807.3
499.689	10774.53
499.892	10969.09
500.095	11008
500.298	11333.63
500.501	11210.75
500.705	11427.84
500.908	11644.92
501.111	11833.33
501.314	11804.66
501.517	11962.36
501.72	12214.26
501.923	12034.04
502.126	12488.68
502.329	12498.92
502.532	12666.86
502.735	12656.62
502.938	12947.43
503.141	12914.66
503.344	13299.68
503.547	13289.44
503.75	13512.67
503.953	13410.27
504.156	13694.94
504.359	13889.49
504.562	14016.47
504.765	14397.39
504.968	14557.13
505.17	14604.24
505.373	14649.29
505.576	14761.93
505.779	15122.37
505.982	15105.99
506.185	15341.5
506.387	15597.5
506.59	15448
506.793	15902.65
506.996	15921.08
507.198	16390.06
507.401	16127.92
507.604	16375.73
507.807	16732.08
508.009	16764.84
508.212	17221.54
508.415	17450.91
508.617	17479.58
508.82	17352.61
509.022	17399.71
509.225	18171.8
509.428	18200.47
509.63	18526.1
509.833	18317.2
510.035	19013.51
510.238	18722.7
510.44	18911.11
510.643	19459.97
510.845	19537.79
511.048	19619.71
511.25	19580.8
511.453	19791.74
511.655	20420.47
511.858	20301.68
512.06	20655.98
512.262	20782.96
512.465	21141.35
512.667	21198.7
512.87	21333.86
513.072	21458.79
513.274	22275.93
513.477	22083.42
513.679	22437.72
513.881	22665.04
514.084	22837.07
514.286	22843.21
514.488	23164.75
514.69	23461.7
514.893	23781.18
515.095	23533.38
515.297	24188.73
515.499	24139.58
515.701	24508.21
515.904	24717.11
516.106	25091.88
516.308	25009.97
516.51	25501.48
516.712	25687.84
516.914	25866.02
517.116	26492.69
517.318	26427.16
517.52	26670.87
517.722	26375.96
517.925	26806.03
518.127	27465.48
518.329	27670.28
518.531	27340.55
518.733	28040.96
518.935	28073.73
519.136	27920.13
519.338	28675.83
519.54	28708.6
519.742	29175.53
519.944	29251.31
520.146	29667.05
520.348	29517.54
520.55	29751.01
520.752	30127.84
520.954	30562.01
521.155	30367.45
521.357	30680.79
521.559	30867.16
521.761	31516.36
521.963	31440.59
522.164	31475.4
522.366	32003.78
522.568	32042.69
522.77	32161.47
522.971	32376.51
523.173	32450.24
523.375	32814.77
523.576	32974.52
523.778	32652.98
523.98	33214.13
524.181	33552.04
524.383	33785.51
524.584	33932.96
524.786	33963.68
524.988	33752.74
525.189	34485.92
525.391	34336.41
525.592	34676.38
525.794	35075.73
525.995	34965.14
526.197	35163.79
526.398	35227.28
526.6	35710.6
526.801	35413.65
527.003	35640.97
527.204	35735.18
527.406	36159.11
527.607	36073.09
527.808	36619.9
528.01	36050.56
528.211	36347.52
528.412	36892.28
528.614	36607.61
528.815	36894.33
529.016	37015.16
529.218	36822.65
529.419	37095.03
529.62	37533.29
529.822	36986.49
530.023	37006.97
530.224	37152.37
530.425	37211.76
530.626	37052.02
530.828	37115.51
531.029	37779.05
531.23	37209.71
531.431	37592.69
531.632	37672.56
531.833	37682.8
532.035	37590.64
532.236	38084.2
532.437	37944.94
532.638	37695.08
532.839	37754.47
533.04	37443.18
533.241	37846.63
533.442	38272.61
533.643	38086.25
533.844	38215.27
534.045	38168.16
534.246	37760.62
534.447	38344.29
534.648	38139.49
534.849	38135.4
535.05	37811.82
535.251	38014.57
535.451	38162.02
535.652	38305.38
535.853	38295.14
536.054	38188.64
536.255	38268.51
536.456	37701.23
536.657	38520.41
536.857	37719.66
537.058	37971.56
537.259	38790.75
537.46	38301.28
537.66	38170.21
537.861	38481.5
538.062	38164.07
538.263	38585.95
538.463	38252.13
538.664	38356.58
538.865	38102.63
539.065	38272.61
539.266	37807.72
539.466	37930.6
539.667	37869.16
539.868	38475.36
540.068	38178.4
540.269	38045.29
540.469	38766.17
540.67	37746.28
540.87	37936.74
541.071	37742.19
541.271	38190.69
541.472	38088.29
541.672	38395.49
541.873	38174.31
542.073	37795.43
542.274	38637.15
542.474	37899.88
542.675	37957.22
542.875	38336.1
543.075	38162.02
543.276	37805.67
543.476	38274.66
543.676	37924.46
543.877	37983.85
544.077	38080.1
544.277	37721.71
544.478	37936.74
544.678	37983.85
544.878	37928.55
545.078	37959.27
545.279	38039.14
545.479	37437.04
545.679	38145.64
545.879	37654.12
546.079	37967.46
546.28	37936.74
546.48	37609.07
546.68	37901.93
546.88	37693.04
547.08	37627.5
547.28	37686.89
547.48	37709.42
547.68	37793.39
547.88	37498.48
548.081	37846.63
548.281	38014.57
548.481	37521.01
548.681	38086.25
548.881	37820.01
549.081	37465.71
549.28	37695.08
549.48	37881.45
549.68	37709.42
549.88	38006.37
550.08	37348.98
550.28	37793.39
550.48	37639.79
550.68	37875.3
550.88	37455.47
551.08	37596.78
551.279	37549.68
551.479	37535.34
551.679	37727.85
551.879	37377.65
552.079	37901.93
552.278	37652.08
552.478	37762.67
552.678	37504.62
552.878	37817.96
553.077	37623.4
553.277	37258.87
553.477	37936.74
553.676	37226.1
553.876	37078.64
554.076	37381.74
554.275	37377.65
554.475	36912.76
554.674	37469.81
554.874	37690.99
555.074	37185.14
555.273	37869.16
555.473	37463.66
555.672	37449.33
555.872	36937.34
556.071	37258.87
556.271	37387.89
556.47	37072.5
556.67	36648.57
556.869	36748.92
557.068	36744.83
557.268	36402.82
557.467	36828.79
557.667	36800.12
557.866	36701.82
558.065	36269.7
558.265	36275.84
558.464	36220.55
558.663	36875.9
558.863	36402.82
559.062	36593.28
559.261	36341.38
559.461	36810.36
559.66	36099.72
559.859	36030.08
560.058	35813
560.258	36073.09
560.457	35716.75
560.656	36232.83
560.855	36189.83
561.054	36101.76
561.253	36048.52
561.453	35884.68
561.652	35907.21
561.851	36306.56
562.05	35647.11
562.249	35716.75
562.448	36064.9
562.647	35964.55
562.846	35497.61
563.045	35825.29
563.244	35421.84
563.443	35802.76
563.642	35092.12
563.841	35184.27
564.04	35262.1
564.239	35657.35
564.438	35067.54
564.637	35192.47
564.836	35135.12
565.035	35077.78
565.234	35174.03
565.432	34975.38
565.631	34836.12
565.83	35057.3
566.029	34578.08
566.228	34651.8
566.427	34348.7
566.625	34393.76
566.824	33918.63
567.023	34447.01
567.222	33898.15
567.42	34496.16
567.619	34188.96
567.818	33900.2
568.016	33873.57
568.215	34285.22
568.414	33982.12
568.612	33832.61
568.811	33787.56
569.01	34070.18
569.208	33525.42
569.407	33412.78
569.605	33332.91
569.804	33572.52
570.002	33169.07
570.201	33646.25
570.4	33025.71
570.598	33021.62
570.797	32607.93
570.995	32810.68
571.193	32698.04
571.392	33322.67
571.59	32788.15
571.789	32607.93
571.987	32595.64
572.186	32362.17
572.384	32296.64
572.582	32302.78
572.781	32706.23
572.979	31839.94
573.177	32442.04
573.376	32259.77
573.574	31788.74
573.772	32339.65
573.971	31770.31
574.169	31667.91
574.367	31442.63
574.565	31813.32
574.763	31794.89
574.962	31141.58
575.16	31057.62
575.358	31100.62
575.556	31256.27
575.754	31766.21
575.952	30975.7
576.151	31432.4
576.349	30568.15
576.547	30729.94
576.745	30899.92
576.943	30742.23
577.141	30609.11
577.339	30783.19
577.537	30625.5
577.735	30256.86
577.933	30504.67
578.131	30297.82
578.329	30082.78
578.527	30138.08
578.725	30244.57
578.923	30424.79
579.121	29867.75
579.319	29742.82
579.516	29806.31
579.714	29449.96
579.912	29423.34
580.11	29576.94
580.308	29681.38
580.506	29282.03
580.704	28833.52
580.901	29634.28
581.099	29351.66
581.297	28925.68
581.495	28710.64
581.692	29294.32
581.89	29159.15
582.088	28897.01
582.285	28851.95
582.483	28579.57
582.681	28413.69
582.878	28641.01
583.076	28126.97
583.274	28616.44
583.471	28217.08
583.669	28030.72
583.866	27893.51
584.064	28131.07
584.262	27801.35
584.459	28110.59
584.657	28012.29
584.854	28028.67
585.052	27266.83
585.249	27535.11
585.447	27762.44
585.644	27363.08
585.841	27627.27
586.039	27617.03
586.236	27094.8
586.434	27221.77
586.631	27326.22
586.828	27086.61
587.026	26982.16
587.223	26867.47
587.42	26881.81
587.618	26939.15
587.815	26758.93
588.012	26335
588.21	26609.43
588.407	26304.28
588.604	26361.62
588.801	26320.67
588.999	26122.01
589.196	26195.74
589.393	26025.76
589.59	25859.87
589.787	25796.39
589.984	25941.79
590.182	25796.39
590.379	25782.05
590.576	25577.25
590.773	25429.8
590.97	25141.04
591.167	25661.22
591.364	25280.3
591.561	25184.04
591.758	25155.37
591.955	25149.23
592.152	25128.75
592.349	24864.56
592.546	24770.35
592.743	24944.43
592.94	24457.01
593.137	24950.57
593.334	24942.38
593.531	24454.97
593.727	24497.97
593.924	24592.18
594.121	24354.62
594.318	24440.63
594.515	24043.32
594.712	24287.03
594.908	23842.62
595.105	24276.79
595.302	23910.21
595.499	23930.69
595.696	23811.9
595.892	23686.98
596.089	23965.5
596.286	24063.8
596.482	23762.75
596.679	23541.57
596.876	23394.12
597.072	23318.34
597.269	23342.92
597.466	23070.54
597.662	22984.52
597.859	22916.94
598.055	23095.11
598.252	22955.85
598.448	22851.41
598.645	22974.28
598.841	22628.18
599.038	22722.38
599.234	22611.79
599.431	22308.69
599.627	22144.86
599.824	22359.89
600.02	22435.67
600.217	22372.18
600.413	22294.36
600.609	21899.1
600.806	21960.54
601.002	22017.88
601.198	21602.15
601.395	21735.26
601.591	21729.12
601.787	21870.43
601.984	21794.65
602.18	21700.45
602.376	21436.26
602.572	21335.91
602.769	21313.38
602.965	21098.34
603.161	21395.3
603.357	21051.24
603.553	21075.82
603.75	20754.29
603.946	20815.73
604.142	20885.36
604.338	20600.69
604.534	20758.38
604.73	20680.56
604.926	20664.18
605.122	20713.33
605.318	20670.32
605.514	20166.52
605.71	20488.05
605.906	20359.03
606.102	20533.11
606.298	20236.15
606.494	20322.16
606.69	20141.94
606.886	20256.63
607.082	20023.16
607.278	20402.04
607.474	19734.4
607.67	20004.73
607.866	19668.86
608.062	19984.25
608.257	19879.8
608.453	19689.34
608.649	19494.79
608.845	19439.49
609.041	19478.4
609.236	19707.77
609.432	19425.15
609.628	19363.72
609.824	19222.41
610.019	19040.14
610.215	19101.58
610.411	19371.91
610.606	19316.61
610.802	18966.41
610.998	19005.32
611.193	19339.14
611.389	18902.92
611.584	18837.39
611.78	18839.44
611.976	18626.45
612.171	18831.24
612.367	18825.1
612.562	18657.17
612.758	18577.3
612.953	18708.37
613.149	18544.53
613.344	18522
613.539	18749.32
613.735	18630.54
613.93	18571.15
614.126	18653.07
614.321	18755.47
614.517	18284.44
614.712	18450.32
614.907	18118.55
615.103	18288.53
615.298	18294.68
615.493	18573.2
615.688	18036.63
615.884	18542.48
616.079	17772.44
616.274	18319.25
616.47	17862.55
616.665	17813.4
616.86	17907.61
617.055	17735.58
617.25	18067.35
617.445	17723.29
617.641	17733.53
617.836	17823.64
618.031	17604.51
618.226	17618.85
618.421	17641.37
618.616	17629.09
618.811	17219.49
619.006	17430.43
619.201	17160.1
619.396	17401.76
619.591	17272.74
619.786	17293.22
619.981	17246.12
620.176	17113
620.371	16883.63
620.566	16705.45
620.761	16732.08
620.956	16701.36
621.151	16388.02
621.346	16789.42
621.541	16402.35
621.735	16414.64
621.93	16271.28
622.125	16330.67
622.32	15937.46
622.515	16068.53
622.709	15955.9
622.904	16046.01
623.099	15769.53
623.294	15845.3
623.488	15775.67
623.683	15671.23
623.878	15474.62
624.072	15382.46
624.267	15263.68
624.462	15198.15
624.656	15067.08
624.851	15103.94
625.046	15046.6
625.24	14763.98
625.435	14598.09
625.629	14718.92
625.824	14706.63
626.018	14768.07
626.213	14202.83
626.407	14512.08
626.602	14389.2
626.796	14366.67
626.991	14258.13
627.185	14180.31
627.38	13961.17
627.574	13938.65
627.768	13946.84
627.963	13854.68
628.157	13555.68
628.352	13666.27
628.546	13432.8
628.74	13467.61
628.935	13389.79
629.129	13281.25
629.323	13471.71
629.517	13148.13
629.712	13084.64
629.906	13111.27
630.1	12941.29
630.294	13250.53
630.489	12926.95
630.683	12677.1
630.877	12709.86
631.071	12619.75
631.265	12496.88
631.459	12609.51
631.653	12339.18
631.848	12328.94
632.042	12185.58
632.236	12419.05
632.43	12161.01
632.624	12136.43
632.818	12136.43
633.012	11718.65
633.206	12027.89
633.4	11845.62
633.594	11673.59
633.788	11835.38
633.982	11991.03
634.176	11644.92
634.369	11499.52
634.563	11495.42
634.757	11489.28
634.951	11728.89
635.145	11350.01
635.339	11456.51
635.533	11210.75
635.726	11087.87
635.92	10821.64
636.114	11122.69
636.308	11227.14
636.501	11024.39
636.695	10856.45
636.889	10827.78
637.083	10733.57
637.276	10612.74
637.47	10788.87
637.664	10604.55
637.857	10577.93
638.051	10424.33
638.244	10401.8
638.438	10416.14
638.632	10309.65
638.825	10397.71
639.019	10342.41
639.212	10039.31
639.406	9990.16
639.599	10127.38
639.793	9990.16
639.986	9777.17
640.18	9861.14
640.373	9816.08
640.567	9928.72
640.76	9703.45
640.954	9805.85
641.147	9811.99
641.34	9443.35
641.534	9490.46
641.727	9394.2
641.92	9506.84
642.114	9517.08
642.307	9375.77
642.5	9199.65
642.694	9199.65
642.887	9058.34
643.08	9103.39
643.273	9203.74
643.467	8869.92
643.66	8890.4
643.853	8816.68
644.046	8734.76
644.239	8790.05
644.432	8624.17
644.626	8826.92
644.819	8806.44
645.012	8728.61
645.205	8673.32
645.398	8695.85
645.591	8466.47
645.784	8450.09
645.977	8327.21
646.17	8298.54
646.363	8204.33
646.556	8173.61
646.749	8085.55
646.942	8124.46
647.135	7841.84
647.328	8140.85
647.521	7981.1
647.714	7878.71
647.907	7958.58
648.099	7954.48
648.292	7903.28
648.485	7786.55
648.678	7536.7
648.871	7626.81
649.064	7620.66
649.256	7606.33
649.449	7557.18
649.642	7589.94
649.835	7589.94
650.027	7419.96
650.22	7458.87
650.413	7286.84
650.605	7305.28
650.798	7145.53
650.991	7090.24
651.183	7204.92
651.376	7090.24
651.568	7311.42
651.761	7163.97
651.954	7231.55
652.146	6983.74
652.339	6934.59
652.531	6801.47
652.724	6867.01
652.916	6594.63
653.109	6617.16
653.301	6957.12
653.494	6834.24
653.686	6674.5
653.879	6746.18
654.071	6631.49
654.263	6473.8
654.456	6488.14
654.648	6643.78
654.84	6312.01
655.033	6434.89
655.225	6338.63
655.417	6518.86
655.61	6332.49
655.802	6398.03
655.994	6252.62
656.186	6027.34
656.379	6260.81
656.571	6168.65
656.763	6041.68
656.955	6060.11
657.148	6099.02
657.34	6125.65
657.532	5967.95
657.724	6062.16
657.916	5845.07
658.108	5937.23
658.3	5892.18
658.492	5728.34
658.684	5718.1
658.876	5759.06
659.068	5724.24
659.26	5611.61
659.452	5632.08
659.644	5746.77
659.836	5558.36
660.028	5580.89
660.22	5541.97
660.412	5576.79
660.604	5410.9
660.796	5394.52
660.988	5304.41
661.18	5415
661.372	5228.63
661.563	5433.43
661.755	5271.64
661.947	5292.12
662.139	5265.5
662.331	5152.86
662.522	5132.38
662.714	5138.52
662.906	5025.89
663.097	5025.89
663.289	5066.85
663.481	4927.58
663.673	5025.89
663.864	5025.89
664.056	4935.78
664.247	4884.58
664.439	4943.97
664.631	4880.48
664.822	4814.95
665.014	4708.45
665.205	4845.66
665.397	4718.69
665.588	4755.55
665.78	4622.44
665.971	4601.96
666.163	4618.34
666.354	4624.48
666.546	4493.41
666.737	4485.22
666.929	4503.65
667.12	4431.98
667.311	4470.89
667.503	4305
667.694	4405.35
667.885	4460.65
668.077	4493.41
668.268	4427.88
668.459	4395.11
668.651	4305
668.842	4216.94
669.033	4325.48
669.224	4255.85
669.416	4292.71
669.607	4204.65
669.798	4180.07
669.989	4272.23
670.18	4165.74
670.371	4151.4
670.563	4186.22
670.754	4235.37
670.945	4008.05
671.136	4051.05
671.327	4046.96
671.518	3930.22
671.709	3958.89
671.9	4042.86
672.091	4001.9
672.282	3881.07
672.473	3930.22
672.664	3874.93
672.855	3860.59
673.046	3913.84
673.237	3831.92
673.428	3833.97
673.619	3813.49
673.809	3823.73
674	3729.52
674.191	3758.19
674.382	3831.92
674.573	3721.33
674.764	3684.47
674.954	3629.17
675.145	3729.52
675.336	3653.75
675.527	3657.84
675.717	3690.61
675.908	3649.65
676.099	3649.65
676.289	3567.73
676.48	3711.09
676.671	3627.12
676.861	3584.12
677.052	3528.82
677.243	3602.55
677.433	3641.46
677.624	3602.55
677.814	3573.88
678.005	3465.33
678.195	3659.89
678.386	3500.15
678.576	3453.05
678.767	3407.99
678.957	3393.65
679.148	3338.36
679.338	3502.2
679.529	3510.39
679.719	3330.17
679.909	3467.38
680.1	3616.88
680.29	3559.54
680.481	3321.98
680.671	3461.24
680.861	3350.65
681.052	3430.52
681.242	3256.44
681.432	3307.64
681.622	3414.13
681.813	3321.98
682.003	3358.84
682.193	3154.04
682.383	3258.49
682.573	3201.15
682.764	3178.62
682.954	3328.12
683.144	3100.8
683.334	3170.43
683.524	3231.87
683.714	3135.61
683.904	3102.84
684.094	3190.91
684.284	3031.16
684.474	3336.31
684.664	3172.47
684.854	3131.51
685.044	3117.18
685.234	3213.43
685.424	3149.95
685.614	3037.31
685.804	3166.33
685.994	2984.06
686.184	3133.56
686.374	3076.22
686.564	3205.24
686.753	3072.12
686.943	2988.16
687.133	3063.93
687.323	2955.39
687.513	3070.08
687.702	3039.36
687.892	3045.5
688.082	3018.88
688.272	2959.49
688.461	2885.76
688.651	2947.2
688.841	2871.42
689.03	2785.41
689.22	2914.43
689.41	2914.43
689.599	2834.56
689.789	2867.33
689.979	2855.04
690.168	2852.99
690.358	2793.6
690.547	2834.56
690.737	2844.8
690.926	2801.79
691.116	2842.75
691.305	2797.7
691.495	2818.18
691.684	2793.6
691.874	2842.75
692.063	2865.28
692.252	2664.58
692.442	2807.94
692.631	2840.7
692.82	2922.62
693.01	2637.95
693.199	2578.56
693.388	2584.71
693.578	2650.24
693.767	2674.82
693.956	2597
694.146	2627.71
694.335	2537.6
694.524	2453.64
694.713	2551.94
694.902	2594.95
695.092	2617.47
695.281	2699.39
695.47	2553.99
695.659	2556.04
695.848	2584.71
696.037	2553.99
696.226	2523.27
696.415	2463.88
696.604	2549.89
696.793	2488.45
696.982	2549.89
697.171	2551.94
697.36	2472.07
697.549	2535.56
697.738	2457.73
697.927	2510.98
698.116	2605.19
698.305	2510.98
698.494	2519.17
698.683	2424.97
698.872	2510.98
699.061	2367.62
699.25	2312.33
699.438	2470.02
699.627	2488.45
699.816	2486.4
700.005	2381.96
700.193	2357.38
700.382	2277.51
700.571	2420.87
700.76	2343.05
700.948	2433.16
701.137	2420.87
701.326	2357.38
701.514	2351.24
701.703	2527.36
701.892	2379.91
702.08	2470.02
702.269	2334.86
702.457	2265.22
702.646	2400.39
702.834	2242.7
703.023	2252.94
703.212	2420.87
703.4	2463.88
703.589	2357.38
703.777	2381.96
703.965	2285.7
704.154	2306.18
704.342	2259.08
704.531	2318.47
704.719	2168.97
704.907	2306.18
705.096	2283.66
705.284	2220.17
705.472	2254.98
705.661	2304.14
705.849	2347.14
706.037	2293.9
706.226	2283.66
706.414	2281.61
706.602	2267.27
706.79	2322.57
706.979	2349.19
707.167	2283.66
707.355	2242.7
707.543	2248.84
707.731	2220.17
707.919	2238.6
708.107	2371.72
708.296	2218.12
708.484	2261.13
708.672	2310.28
708.86	2234.5
709.048	2175.11
709.236	2287.75
709.424	2277.51
709.612	2271.37
709.8	2209.93
709.988	2232.46
710.176	2277.51
710.364	2191.5
710.551	2195.59
710.739	2177.16
710.927	2183.31
711.115	2297.99
711.303	2142.35
711.491	2181.26
711.679	2076.81
711.866	2134.15
712.054	2128.01
712.242	2224.26
712.43	2187.4
712.617	2187.4
712.805	2166.92
712.993	2109.58
713.181	2209.93
713.368	2095.24
713.556	2279.56
713.744	2068.62
713.931	2138.25
714.119	2166.92
714.306	2257.03
714.494	2080.91
714.682	2216.07
714.869	2095.24
715.057	2117.77
715.244	2160.78
715.432	2095.24
715.619	2218.12
715.807	2119.82
715.994	2101.39
716.182	2091.15
716.369	2103.43
716.556	2130.06
716.744	2070.67
716.931	2097.29
717.119	2224.26
717.306	2109.58
717.493	2109.58
717.681	2128.01
717.868	2144.39
718.055	2132.11
718.242	2166.92
718.43	2076.81
718.617	2150.54
718.804	1970.32
718.991	2044.04
719.179	2171.02
719.366	2150.54
719.553	2150.54
719.74	2035.85
719.927	2003.08
720.114	2027.66
720.301	2044.04
720.488	2076.81
720.676	2152.59
720.863	2015.37
721.05	2091.15
721.237	2056.33
721.424	2119.82
721.611	2066.57
721.798	2031.76
721.985	2050.19
722.172	2033.8
722.358	2177.16
722.545	2117.77
722.732	2021.52
722.919	2058.38
723.106	2078.86
723.293	2082.95
723.48	2015.37
723.667	2044.04
723.853	1986.7
724.04	2015.37
724.227	2103.43
724.414	1980.56
724.6	2072.72
724.787	1974.41
724.974	2144.39
725.161	2021.52
725.347	1953.93
725.534	2068.62
725.72	2007.18
725.907	2062.48
726.094	2105.48
726.28	2025.61
726.467	2007.18
726.653	1990.8
726.84	2001.04
727.027	2031.76
727.213	2060.43
727.4	2078.86
727.586	2035.85
727.773	1982.6
727.959	2011.28
728.145	1937.55
728.332	2060.43
728.518	2046.09
728.705	1980.56
728.891	1974.41
729.077	2039.95
729.264	1949.84
729.45	2005.13
729.636	2175.11
729.823	1966.22
730.009	1974.41
730.195	2052.24
730.382	2044.04
730.568	1986.7
730.754	2005.13
730.94	1908.88
731.126	2042
731.313	1994.89
731.499	1857.68
731.685	2021.52
731.871	2078.86
732.057	1929.36
732.243	2029.71
732.429	1937.55
732.615	2019.47
732.801	1937.55
732.987	1974.41
733.173	1912.97
733.359	1990.8
733.545	2033.8
733.731	1949.84
733.917	2097.29
734.103	1978.51
734.289	2005.13
734.475	2003.08
734.661	1947.79
734.847	1990.8
735.033	1939.6
735.219	1904.78
735.404	1872.01
735.59	1865.87
735.776	1962.12
735.962	1921.17
736.148	1945.74
736.333	1990.8
736.519	1915.02
736.705	1962.12
736.89	1773.71
737.076	1929.36
737.262	1857.68
737.447	1837.2
737.633	1929.36
737.819	1769.62
738.004	1898.64
738.19	1880.21
738.375	1824.91
738.561	1835.15
738.747	1888.4
738.932	1763.47
739.118	1863.82
739.303	1843.34
739.489	1822.86
739.674	1872.01
739.859	1630.35
740.045	1751.18
740.23	1757.33
740.416	1642.64
740.601	1845.39
740.786	1826.96
740.972	1740.94
741.157	1769.62
741.342	1691.79
741.528	1667.22
741.713	1822.86
741.898	1730.7
742.084	1851.53
742.269	1742.99
742.454	1687.7
742.639	1706.13
742.824	1847.44
743.01	1736.85
743.195	1786
743.38	1718.42
743.565	1724.56
743.75	1632.4
743.935	1759.38
744.12	1659.03
744.305	1661.07
744.49	1585.3
744.675	1699.98
744.86	1654.93
745.045	1740.94
745.23	1605.78
745.415	1552.53
745.6	1646.74
745.785	1642.64
745.97	1489.04
746.155	1585.3
746.34	1665.17
746.525	1622.16
746.71	1605.78
746.895	1609.87
747.079	1472.66
747.264	1396.89
747.449	1468.56
747.634	1593.49
747.819	1579.15
748.003	1540.24
748.188	1536.15
748.373	1601.68
748.557	1515.67
748.742	1511.57
748.927	1544.34
749.111	1396.89
749.296	1484.95
749.481	1364.12
749.665	1392.79
749.85	1472.66
750.034	1409.17
750.219	1366.17
750.404	1341.59
750.588	1314.97
750.773	1468.56
750.957	1448.08
751.141	1280.15
751.326	1437.84
751.51	1300.63
751.695	1347.73
751.879	1341.59
752.064	1413.27
752.248	1302.68
752.432	1327.25
752.617	1362.07
752.801	1269.91
752.985	1235.1
753.17	1204.38
753.354	1253.53
753.538	1302.68
753.722	1157.27
753.907	1245.34
754.091	1226.9
754.275	1243.29
754.459	1177.75
754.643	1216.66
754.828	1198.23
755.012	1220.76
755.196	1118.36
755.38	1218.71
755.564	1097.88
755.748	1183.9
755.932	1130.65
756.116	1196.18
756.3	1144.99
756.484	1093.79
756.668	1165.46
756.852	1126.55
757.036	1104.03
757.22	1081.5
757.404	1036.44
757.588	1036.44
757.772	1013.92
757.956	1112.22
758.14	1142.94
758.323	1040.54
758.507	1112.22
758.691	991.39
758.875	1044.63
759.059	1089.69
759.242	1020.06
759.426	1028.25
759.61	981.15
759.794	987.29
759.977	1048.73
760.161	1052.83
760.345	1005.72
760.528	1058.97
760.712	979.1
760.895	972.96
761.079	1030.3
761.263	872.61
761.446	917.66
761.63	944.28
761.813	1003.68
761.997	940.19
762.18	946.33
762.364	925.85
762.547	901.28
762.731	915.61
762.914	952.48
763.098	929.95
763.281	827.55
763.464	909.47
763.648	841.89
763.831	807.07
764.015	893.09
764.198	888.99
764.381	819.36
764.564	878.75
764.748	874.65
764.931	891.04
765.114	835.74
765.297	880.8
765.481	852.13
765.664	831.65
765.847	854.17
766.03	888.99
766.213	786.59
766.397	864.41
766.58	891.04
766.763	917.66
766.946	876.7
767.129	782.49
767.312	852.13
767.495	790.69
767.678	768.16
767.861	893.09
768.044	823.45
768.227	856.22
768.41	817.31
768.593	839.84
768.776	743.58
768.959	796.83
769.142	766.11
769.324	819.36
769.507	741.54
769.69	856.22
769.873	762.02
770.056	850.08
770.239	673.95
770.421	827.55
770.604	766.11
770.787	800.93
770.97	735.39
771.152	770.21
771.335	749.73
771.518	694.43
771.7	753.82
771.883	850.08
772.066	768.16
772.248	833.69
772.431	741.54
772.613	659.62
772.796	774.3
772.978	725.15
773.161	725.15
773.343	647.33
773.526	714.91
773.708	673.95
773.891	809.12
774.073	712.86
774.256	684.19
774.438	782.49
774.621	721.06
774.803	755.87
774.985	639.14
775.168	721.06
775.35	655.52
775.532	676
775.715	647.33
775.897	716.96
776.079	622.75
776.261	604.32
776.444	673.95
776.626	651.42
776.808	618.66
776.99	610.47
777.173	624.8
777.355	489.64
777.537	594.08
777.719	698.53
777.901	555.17
778.083	729.25
778.265	546.98
778.447	577.7
778.629	546.98
778.811	600.23
778.993	585.89
779.175	561.31
779.357	612.51
779.539	512.16
779.721	512.16
779.903	497.83
780.085	606.37
780.267	522.4
780.449	522.4
780.631	508.07
780.812	606.37
780.994	526.5
781.176	499.88
781.358	444.58
781.54	467.11
781.721	508.07
781.903	467.11
782.085	544.93
782.267	487.59
782.448	454.82
782.63	422.05
782.812	440.48
782.993	481.44
783.175	442.53
783.357	534.69
783.538	487.59
783.72	387.24
783.901	489.64
784.083	499.88
784.264	426.15
784.446	454.82
784.627	450.72
784.809	444.58
784.99	397.48
785.172	473.25
785.353	448.68
785.535	413.86
785.716	430.24
785.897	436.39
786.079	417.96
786.26	428.2
786.441	456.87
786.623	409.76
786.804	348.33
786.985	340.13
787.167	417.96
787.348	344.23
787.529	391.33
787.71	434.34
787.891	311.46
788.073	383.14
788.254	385.19
788.435	413.86
788.616	350.37
788.797	295.08
788.978	395.43
789.159	342.18
789.34	333.99
789.522	368.81
789.703	327.85
789.884	352.42
790.065	360.61
790.246	336.04
790.427	405.67
790.607	372.9
790.788	399.52
790.969	293.03
791.15	340.13
791.331	405.67
791.512	331.94
791.693	282.79
791.874	344.23
792.054	389.28
792.235	319.65
792.416	352.42
792.597	299.17
792.778	331.94
792.958	323.75
793.139	333.99
793.32	274.6
793.5	301.22
793.681	360.61
793.862	282.79
794.042	305.32
794.223	315.56
794.404	276.65
794.584	266.41
794.765	307.37
794.945	278.69
795.126	239.78
795.306	288.93
795.487	274.6
795.667	258.21
795.848	282.79
796.028	209.06
796.209	319.65
796.389	149.67
796.57	290.98
796.75	266.41
796.93	315.56
797.111	303.27
797.291	227.5
797.471	270.5
797.652	237.74
797.832	241.83
798.012	250.02
798.192	231.59
798.373	225.45
798.553	258.21
798.733	215.21
798.913	274.6
799.093	184.49
799.274	272.55
799.454	184.49
799.634	245.93
799.814	176.3
799.994	233.64
800.174	258.21
800.354	184.49
800.534	170.15
800.714	241.83
800.894	168.1
801.074	202.92
801.254	237.74
801.434	241.83
801.614	225.45
801.794	164.01
801.974	786.59
802.154	125.1
802.334	268.45
802.514	121
802.693	286.89
802.873	174.25
803.053	290.98
803.233	186.54
803.413	231.59
803.592	217.26
803.772	213.16
803.952	164.01
804.131	204.97
804.311	190.63
804.491	161.96
804.67	127.14
804.85	176.3
805.03	229.54
805.209	192.68
805.389	172.2
805.568	159.91
805.748	184.49
805.928	180.39
806.107	118.95
806.287	219.3
806.466	125.1
806.646	211.11
806.825	217.26
807.004	190.63
807.184	139.43
807.363	204.97
807.543	188.58
807.722	77.99
807.901	174.25
808.081	153.77
808.26	143.53
808.439	217.26
808.619	73.9
808.798	127.14
808.977	135.34
809.156	184.49
809.336	94.38
809.515	252.07
809.694	176.3
809.873	155.82
810.052	188.58
810.231	153.77
810.411	143.53
810.59	196.78
810.769	108.71
810.948	182.44
811.127	141.48
811.306	139.43
811.485	192.68
811.664	114.86
811.843	129.19
812.022	75.95
812.201	135.34
812.38	192.68
812.559	110.76
812.737	168.1
812.916	110.76
813.095	141.48
813.274	145.58
813.453	118.95
813.632	123.05
813.811	290.98
813.989	57.51
814.168	161.96
814.347	96.43
814.526	147.62
814.704	139.43
814.883	118.95
815.062	164.01
815.24	86.19
815.419	77.99
815.598	143.53
815.776	-3.93
815.955	94.38
816.133	151.72
816.312	116.9
816.49	143.53
816.669	192.68
816.847	80.04
817.026	192.68
817.204	184.49
817.383	104.62
817.561	202.92
817.74	153.77
817.918	98.47
818.097	168.1
818.275	104.62
818.453	159.91
818.632	139.43
818.81	90.28
818.988	73.9
819.167	69.8
819.345	106.67
819.523	110.76
819.701	131.24
819.879	135.34
820.058	90.28
820.236	118.95
820.414	127.14
820.592	69.8
820.77	98.47
820.948	112.81
821.127	92.33
821.305	118.95
821.483	88.23
821.661	147.62
821.839	118.95
822.017	77.99
822.195	14.51
822.373	118.95
822.551	61.61
822.729	153.77
822.907	37.03
823.085	129.19
823.262	106.67
823.44	127.14
823.618	73.9
823.796	104.62
823.974	82.09
824.152	16.55
824.329	88.23
824.507	82.09
824.685	118.95
824.863	88.23
825.04	80.04
825.218	86.19
825.396	104.62
825.574	108.71
825.751	106.67
825.929	12.46
826.107	86.19
826.284	118.95
826.462	129.19
826.639	73.9
826.817	61.61
826.994	123.05
827.172	65.71
827.349	151.72
827.527	90.28
827.704	84.14
827.882	88.23
828.059	143.53
828.237	73.9
828.414	104.62
828.591	30.89
828.769	55.47
828.946	129.19
829.124	168.1
829.301	12.46
829.478	129.19
829.655	112.81
829.833	143.53
830.01	159.91
830.187	129.19
830.364	49.32
830.542	39.08
830.719	153.77
830.896	63.66
831.073	118.95
831.25	41.13
831.427	63.66
831.604	61.61
831.782	57.51
831.959	57.51
832.136	92.33
832.313	102.57
832.49	12.46
832.667	96.43
832.844	39.08
833.021	143.53
833.198	143.53
833.374	86.19
833.551	94.38
833.728	73.9
833.905	63.66
834.082	24.75
834.259	118.95
834.436	53.42
834.612	-18.26
834.789	180.39
834.966	104.62
835.143	73.9
835.319	37.03
835.496	176.3
835.673	61.61
835.85	32.94
836.026	106.67
836.203	116.9
836.38	47.27
836.556	80.04
836.733	104.62
836.909	45.23
837.086	49.32
837.262	63.66
837.439	16.55
837.616	75.95
837.792	-1.88
837.968	37.03
838.145	22.7
838.321	-3.93
838.498	61.61
838.674	45.23
838.851	88.23
839.027	32.94
839.203	69.8
839.38	100.52
839.556	2.22
839.732	110.76
839.909	143.53
840.085	94.38
840.261	49.32
840.437	94.38
840.614	73.9
840.79	37.03
840.966	53.42
841.142	57.51
841.318	39.08
841.494	118.95
841.671	57.51
841.847	28.84
842.023	49.32
842.199	80.04
842.375	112.81
842.551	30.89
842.727	49.32
842.903	69.8
843.079	45.23
843.255	127.14
843.431	53.42
843.607	112.81
843.783	-22.36
843.959	45.23
844.134	86.19
844.31	86.19
844.486	-12.12
844.662	-5.97
844.838	77.99
845.013	127.14
845.189	94.38
845.365	49.32
845.541	88.23
845.716	14.51
845.892	-8.02
846.068	0.17
846.244	-3.93
846.419	77.99
846.595	-3.93
846.77	-85.84
846.946	63.66
847.122	49.32
847.297	43.18
847.473	18.6
847.648	4.27
847.824	71.85
847.999	0.17
848.175	24.75
848.35	55.47
848.526	94.38
848.701	53.42
848.876	61.61
849.052	73.9
849.227	69.8
849.403	30.89
849.578	-42.84
849.753	14.51
849.929	67.75
850.104	12.46
850.279	-22.36
850.454	22.7
850.63	8.36
850.805	61.61
850.98	0.17
851.155	-10.07
851.33	86.19
851.505	-12.12
851.681	94.38
851.856	-26.45
852.031	49.32
852.206	69.8
852.381	37.03
852.556	88.23
852.731	69.8
852.906	84.14
853.081	61.61
853.256	39.08
853.431	8.36
853.606	28.84
853.781	4.27
853.956	-63.32
854.131	-8.02
854.305	-28.5
854.48	123.05
854.655	53.42
854.83	57.51
855.005	14.51
855.18	63.66
855.354	16.55
855.529	102.57
855.704	53.42
855.879	-10.07
856.053	14.51
856.228	20.65
856.403	-20.31
856.577	4.27
856.752	20.65
856.926	16.55
857.101	47.27
857.276	14.51
857.45	92.33
857.625	34.99
857.799	-32.6
857.974	71.85
858.148	-3.93
858.323	-18.26
858.497	53.42
858.672	45.23
858.846	20.65
859.02	69.8
859.195	65.71
859.369	55.47
859.543	43.18
859.718	61.61
859.892	18.6
860.066	-5.97
860.241	-16.21
860.415	-1.88
860.589	28.84
860.763	18.6
860.938	-57.17
861.112	55.47
861.286	-3.93
861.46	71.85
861.634	-12.12
861.808	45.23
861.982	-20.31
862.157	-3.93
862.331	-10.07
862.505	22.7
862.679	-3.93
862.853	0.17
863.027	-36.69
863.201	18.6
863.375	69.8
863.549	69.8
863.722	61.61
863.896	86.19
864.07	-30.55
864.244	6.31
864.418	61.61
864.592	16.55
864.766	32.94
864.939	2.22
865.113	22.7
865.287	61.61
865.461	-40.79
865.634	80.04
865.808	-28.5
865.982	-24.4
866.156	24.75
866.329	-30.55
866.503	28.84
866.676	61.61
866.85	41.13
867.024	-12.12
867.197	65.71
867.371	-20.31
867.544	14.51
867.718	-8.02
867.891	24.75
868.065	-24.4
868.238	67.75
868.412	12.46
868.585	37.03
868.759	-3.93
868.932	59.56
869.105	4.27
869.279	-1.88
869.452	55.47
869.625	55.47
869.799	-3.93
869.972	34.99
870.145	59.56
870.319	-16.21
870.492	55.47
870.665	-40.79
870.838	-32.6
871.011	-1.88
871.185	-12.12
871.358	4.27
871.531	-44.88
871.704	-36.69
871.877	-18.26
872.05	-34.64
872.223	-36.69
872.396	-20.31
872.569	-26.45
872.742	-69.46
872.915	22.7
873.088	39.08
873.261	28.84
873.434	12.46
873.607	-12.12
873.78	69.8
873.953	8.36
874.126	-36.69
874.299	18.6
874.471	14.51
874.644	4.27
874.817	41.13
874.99	41.13
875.163	2.22
875.335	49.32
875.508	16.55
875.681	22.7
875.853	30.89
876.026	-24.4
876.199	-63.32
876.371	-63.32
876.544	-8.02
876.717	32.94
876.889	0.17
877.062	96.43
877.234	-1.88
877.407	-16.21
877.579	34.99
877.752	-20.31
877.924	-34.64
878.097	55.47
878.269	-24.4
878.442	20.65
878.614	45.23
878.786	4.27
878.959	28.84
879.131	12.46
879.303	24.75
879.476	41.13
879.648	63.66
879.82	39.08
879.993	-28.5
880.165	41.13
880.337	-22.36
880.509	53.42
880.681	-36.69
880.854	45.23
881.026	20.65
881.198	61.61
881.37	104.62
881.542	-42.84
881.714	28.84
881.886	16.55
882.058	16.55
882.23	28.84
882.402	-8.02
882.574	53.42
882.746	53.42
882.918	4.27
883.09	41.13
883.262	-18.26
883.434	-8.02
883.606	39.08
883.778	30.89
883.95	59.56
884.122	-24.4
884.293	86.19
884.465	2.22
884.637	47.27
884.809	43.18
884.98	8.36
885.152	28.84
885.324	47.27
885.496	-83.8
885.667	2.22
885.839	20.65
886.011	20.65
886.182	-28.5
886.354	69.8
886.525	63.66
886.697	71.85
886.869	34.99
887.04	20.65
887.212	32.94
887.383	112.81
887.555	41.13
887.726	-16.21
887.897	-34.64
888.069	6.31
888.24	24.75
888.412	-42.84
888.583	-32.6
888.754	-46.93
888.926	-14.17
889.097	-3.93
889.268	-73.56
889.44	22.7
889.611	20.65
889.782	-12.12
889.953	28.84
890.125	106.67
890.296	-36.69
890.467	86.19
890.638	-18.26
890.809	12.46
890.98	-12.12
891.151	-26.45
891.323	18.6
891.494	110.76
891.665	84.14
891.836	-20.31
892.007	30.89
892.178	53.42
892.349	0.17
892.52	0.17
892.691	-1.88
892.862	6.31
893.032	-12.12
893.203	-28.5
893.374	-3.93
893.545	-34.64
893.716	-8.02
893.887	63.66
894.057	-44.88
894.228	-42.84
894.399	32.94
894.57	22.7
894.74	-3.93
894.911	4.27
895.082	20.65
895.253	-42.84
895.423	8.36
895.594	39.08
895.764	53.42
895.935	22.7
896.106	-5.97
896.276	2.22
896.447	-3.93
896.617	28.84
896.788	32.94
896.958	-36.69
897.129	-48.98
897.299	16.55
897.47	37.03
897.64	28.84
897.81	37.03
897.981	24.75
898.151	-28.5
898.322	14.51
898.492	-36.69
898.662	28.84
898.832	22.7
899.003	30.89
899.173	69.8
899.343	-61.27
899.513	-51.03
