Data from USB4F104151__75__14-43-24-377.txt Node

Date: Thu Mar 13 14:43:24 EDT 2025
User: louis
Spectrometer: USB4F10415
Trigger mode: 4
Integration Time (sec): 2.000000E-2
Scans to average: 1
Electric dark correction enabled: true
Nonlinearity correction enabled: false
Boxcar width: 0
XAxis mode: Wavelengths
Number of Pixels in Spectrum: 3648
>>>>>Begin Spectral Data<<<<<
178.204	-66.22
178.424	-66.22
178.644	-66.22
178.864	-105.13
179.084	-139.94
179.304	9.56
179.524	-25.26
179.744	21.85
179.964	-27.31
180.184	-33.45
180.404	-19.11
180.624	91.48
180.844	30.04
181.064	-31.4
181.283	-43.69
181.503	19.8
181.723	7.51
181.943	-76.46
182.163	9.56
182.383	36.18
182.602	21.85
182.822	79.19
183.042	40.28
183.262	3.41
183.482	-37.55
183.701	32.08
183.921	15.7
184.141	-17.07
184.361	-10.92
184.58	46.42
184.8	-33.45
185.02	46.42
185.239	7.51
185.459	21.85
185.679	81.24
185.898	-33.45
186.118	64.85
186.338	23.89
186.557	81.24
186.777	-55.98
186.997	-27.31
187.216	-27.31
187.436	56.66
187.655	1.37
187.875	46.42
188.095	9.56
188.314	79.19
188.534	97.62
188.753	48.47
188.973	103.76
189.192	87.38
189.412	-21.16
189.631	32.08
189.851	-17.07
190.07	66.9
190.29	-10.92
190.509	36.18
190.729	27.99
190.948	-0.68
191.168	111.96
191.387	120.15
191.607	48.47
191.826	5.46
192.045	-47.79
192.265	-17.07
192.484	-2.73
192.704	-2.73
192.923	-21.16
193.142	81.24
193.362	13.65
193.581	54.61
193.8	56.66
194.02	40.28
194.239	58.71
194.458	25.94
194.678	-68.27
194.897	-8.87
195.116	-2.73
195.335	68.95
195.555	56.66
195.774	-19.11
195.993	81.24
196.212	95.57
196.432	-21.16
196.651	73.04
196.87	-27.31
197.089	87.38
197.308	19.8
197.528	58.71
197.747	15.7
197.966	9.56
198.185	83.28
198.404	44.37
198.623	13.65
198.842	25.94
199.062	111.96
199.281	97.62
199.5	46.42
199.719	46.42
199.938	38.23
200.157	7.51
200.376	-27.31
200.595	32.08
200.814	-43.69
201.033	40.28
201.252	25.94
201.471	-27.31
201.69	44.37
201.909	-10.92
202.128	36.18
202.347	38.23
202.566	15.7
202.785	-41.64
203.004	21.85
203.223	54.61
203.442	60.76
203.661	15.7
203.879	64.85
204.098	103.76
204.317	9.56
204.536	75.09
204.755	13.65
204.974	11.61
205.193	23.89
205.411	107.86
205.63	-2.73
205.849	107.86
206.068	-6.83
206.287	38.23
206.505	42.32
206.724	7.51
206.943	-2.73
207.162	-23.21
207.381	-27.31
207.599	-0.68
207.818	7.51
208.037	7.51
208.255	-2.73
208.474	21.85
208.693	21.85
208.911	23.89
209.13	54.61
209.349	1.37
209.567	50.52
209.786	64.85
210.005	30.04
210.223	34.13
210.442	-66.22
210.661	-25.26
210.879	-15.02
211.098	13.65
211.316	64.85
211.535	23.89
211.753	-0.68
211.972	48.47
212.191	-8.87
212.409	25.94
212.628	23.89
212.846	13.65
213.065	-70.31
213.283	73.04
213.502	-10.92
213.72	-17.07
213.938	1.37
214.157	75.09
214.375	21.85
214.594	7.51
214.812	79.19
215.031	54.61
215.249	-17.07
215.467	5.46
215.686	7.51
215.904	-2.73
216.122	60.76
216.341	73.04
216.559	30.04
216.778	-2.73
216.996	38.23
217.214	-10.92
217.432	30.04
217.651	5.46
217.869	-15.02
218.087	54.61
218.306	1.37
218.524	71
218.742	25.94
218.96	77.14
219.179	-19.11
219.397	79.19
219.615	81.24
219.833	62.8
220.051	-15.02
220.27	54.61
220.488	-0.68
220.706	44.37
220.924	19.8
221.142	-2.73
221.36	-12.97
221.578	15.7
221.796	40.28
222.015	46.42
222.233	-27.31
222.451	107.86
222.669	-8.87
222.887	54.61
223.105	13.65
223.323	21.85
223.541	-49.83
223.759	34.13
223.977	23.89
224.195	30.04
224.413	71
224.631	68.95
224.849	40.28
225.067	111.96
225.285	120.15
225.503	-8.87
225.721	-15.02
225.939	34.13
226.157	-6.83
226.375	126.29
226.592	-15.02
226.81	-21.16
227.028	56.66
227.246	64.85
227.464	-31.4
227.682	3.41
227.9	21.85
228.117	38.23
228.335	-17.07
228.553	58.71
228.771	-43.69
228.989	64.85
229.206	-25.26
229.424	-43.69
229.642	25.94
229.86	-49.83
230.077	64.85
230.295	32.08
230.513	91.48
230.731	73.04
230.948	15.7
231.166	48.47
231.384	-31.4
231.601	-23.21
231.819	40.28
232.037	-80.55
232.254	-2.73
232.472	-2.73
232.689	-23.21
232.907	7.51
233.125	-8.87
233.342	32.08
233.56	-33.45
233.777	50.52
233.995	66.9
234.213	38.23
234.43	62.8
234.648	-25.26
234.865	-2.73
235.083	54.61
235.3	38.23
235.518	17.75
235.735	11.61
235.953	50.52
236.17	-0.68
236.388	38.23
236.605	44.37
236.822	13.65
237.04	44.37
237.257	15.7
237.475	13.65
237.692	13.65
237.909	21.85
238.127	-0.68
238.344	116.05
238.562	71
238.779	-2.73
238.996	-72.36
239.214	-66.22
239.431	30.04
239.648	52.56
239.865	-12.97
240.083	85.33
240.3	19.8
240.517	52.56
240.735	21.85
240.952	124.24
241.169	60.76
241.386	13.65
241.603	-2.73
241.821	17.75
242.038	62.8
242.255	25.94
242.472	38.23
242.689	56.66
242.907	19.8
243.124	54.61
243.341	42.32
243.558	27.99
243.775	5.46
243.992	13.65
244.209	42.32
244.426	50.52
244.643	56.66
244.86	46.42
245.078	34.13
245.295	46.42
245.512	95.57
245.729	-41.64
245.946	25.94
246.163	48.47
246.38	27.99
246.597	38.23
246.814	44.37
247.031	73.04
247.248	21.85
247.464	83.28
247.681	15.7
247.898	46.42
248.115	64.85
248.332	32.08
248.549	19.8
248.766	97.62
248.983	23.89
249.2	17.75
249.417	99.67
249.633	1.37
249.85	87.38
250.067	-27.31
250.284	21.85
250.501	75.09
250.717	56.66
250.934	-58.03
251.151	40.28
251.368	58.71
251.585	-0.68
251.801	11.61
252.018	48.47
252.235	23.89
252.451	-101.03
252.668	-27.31
252.885	42.32
253.102	44.37
253.318	-15.02
253.535	-27.31
253.752	-27.31
253.968	-29.35
254.185	-55.98
254.401	-33.45
254.618	21.85
254.835	13.65
255.051	79.19
255.268	7.51
255.484	30.04
255.701	81.24
255.917	7.51
256.134	-43.69
256.351	46.42
256.567	-10.92
256.784	48.47
257	-33.45
257.217	-4.78
257.433	58.71
257.65	30.04
257.866	25.94
258.082	81.24
258.299	-25.26
258.515	25.94
258.732	15.7
258.948	-10.92
259.165	38.23
259.381	5.46
259.597	13.65
259.814	15.7
260.03	-6.83
260.246	21.85
260.463	7.51
260.679	71
260.895	34.13
261.112	5.46
261.328	34.13
261.544	54.61
261.761	-12.97
261.977	7.51
262.193	30.04
262.409	-17.07
262.626	46.42
262.842	-10.92
263.058	25.94
263.274	15.7
263.49	7.51
263.707	52.56
263.923	56.66
264.139	-43.69
264.355	21.85
264.571	128.34
264.787	58.71
265.004	9.56
265.22	52.56
265.436	30.04
265.652	81.24
265.868	66.9
266.084	-6.83
266.3	23.89
266.516	-21.16
266.732	25.94
266.948	62.8
267.164	32.08
267.38	71
267.596	15.7
267.812	130.39
268.028	68.95
268.244	25.94
268.46	64.85
268.676	25.94
268.892	50.52
269.108	-39.59
269.324	71
269.54	38.23
269.756	71
269.972	-117.42
270.188	-55.98
270.403	-8.87
270.619	87.38
270.835	-39.59
271.051	-2.73
271.267	-0.68
271.483	-17.07
271.698	79.19
271.914	5.46
272.13	42.32
272.346	46.42
272.562	71
272.777	-10.92
272.993	42.32
273.209	-8.87
273.425	79.19
273.64	32.08
273.856	25.94
274.072	54.61
274.287	1.37
274.503	87.38
274.719	144.72
274.934	-23.21
275.15	1.37
275.366	97.62
275.581	-41.64
275.797	58.71
276.012	21.85
276.228	-17.07
276.444	52.56
276.659	77.14
276.875	-60.07
277.09	-19.11
277.306	34.13
277.521	30.04
277.737	71
277.952	7.51
278.168	-6.83
278.383	-0.68
278.599	34.13
278.814	-8.87
279.03	32.08
279.245	54.61
279.461	-10.92
279.676	54.61
279.892	7.51
280.107	38.23
280.322	-8.87
280.538	54.61
280.753	81.24
280.969	17.75
281.184	15.7
281.399	56.66
281.615	103.76
281.83	62.8
282.045	66.9
282.26	38.23
282.476	46.42
282.691	34.13
282.906	66.9
283.122	34.13
283.337	-101.03
283.552	87.38
283.767	30.04
283.983	34.13
284.198	38.23
284.413	5.46
284.628	60.76
284.843	21.85
285.058	75.09
285.274	79.19
285.489	-2.73
285.704	5.46
285.919	-55.98
286.134	75.09
286.349	-0.68
286.564	44.37
286.779	79.19
286.995	54.61
287.21	-19.11
287.425	5.46
287.64	60.76
287.855	21.85
288.07	5.46
288.285	9.56
288.5	144.72
288.715	95.57
288.93	77.14
289.145	71
289.36	56.66
289.575	1.37
289.79	103.76
290.004	-0.68
290.219	32.08
290.434	27.99
290.649	-8.87
290.864	-10.92
291.079	-19.11
291.294	27.99
291.509	79.19
291.724	48.47
291.938	79.19
292.153	-2.73
292.368	-0.68
292.583	-19.11
292.798	71
293.012	-17.07
293.227	38.23
293.442	38.23
293.657	56.66
293.871	62.8
294.086	66.9
294.301	79.19
294.516	79.19
294.73	73.04
294.945	-43.69
295.16	46.42
295.374	13.65
295.589	-49.83
295.804	23.89
296.018	25.94
296.233	103.76
296.447	46.42
296.662	21.85
296.877	81.24
297.091	64.85
297.306	21.85
297.52	-2.73
297.735	30.04
297.949	13.65
298.164	23.89
298.378	34.13
298.593	62.8
298.807	81.24
299.022	5.46
299.236	109.91
299.451	-6.83
299.665	54.61
299.88	1.37
300.094	-101.03
300.309	-35.5
300.523	66.9
300.737	25.94
300.952	71
301.166	42.32
301.381	-33.45
301.595	21.85
301.809	-2.73
302.024	54.61
302.238	9.56
302.452	21.85
302.667	38.23
302.881	73.04
303.095	52.56
303.309	21.85
303.524	40.28
303.738	5.46
303.952	19.8
304.166	56.66
304.381	-109.23
304.595	48.47
304.809	-19.11
305.023	79.19
305.237	-17.07
305.452	38.23
305.666	62.8
305.88	40.28
306.094	38.23
306.308	87.38
306.522	54.61
306.736	38.23
306.95	-17.07
307.164	21.85
307.379	21.85
307.593	38.23
307.807	40.28
308.021	7.51
308.235	19.8
308.449	44.37
308.663	54.61
308.877	83.28
309.091	-2.73
309.305	-15.02
309.519	17.75
309.733	83.28
309.947	13.65
310.161	-8.87
310.374	-0.68
310.588	111.96
310.802	-39.59
311.016	-70.31
311.23	50.52
311.444	-10.92
311.658	38.23
311.872	73.04
312.085	40.28
312.299	81.24
312.513	75.09
312.727	13.65
312.941	36.18
313.154	13.65
313.368	23.89
313.582	95.57
313.796	30.04
314.009	25.94
314.223	19.8
314.437	21.85
314.651	-4.78
314.864	5.46
315.078	83.28
315.292	15.7
315.505	7.51
315.719	-12.97
315.933	79.19
316.146	38.23
316.36	-25.26
316.573	15.7
316.787	-10.92
317.001	11.61
317.214	-12.97
317.428	21.85
317.641	-58.03
317.855	-21.16
318.068	138.58
318.282	25.94
318.495	103.76
318.709	93.52
318.922	23.89
319.136	46.42
319.349	66.9
319.563	-19.11
319.776	32.08
319.99	-6.83
320.203	128.34
320.417	-25.26
320.63	62.8
320.843	25.94
321.057	40.28
321.27	30.04
321.483	81.24
321.697	99.67
321.91	9.56
322.124	42.32
322.337	-17.07
322.55	114
322.763	-31.4
322.977	111.96
323.19	15.7
323.403	54.61
323.617	81.24
323.83	23.89
324.043	91.48
324.256	9.56
324.469	7.51
324.683	103.76
324.896	-10.92
325.109	64.85
325.322	30.04
325.535	66.9
325.748	23.89
325.962	25.94
326.175	38.23
326.388	30.04
326.601	50.52
326.814	58.71
327.027	-41.64
327.24	38.23
327.453	-35.5
327.666	27.99
327.879	38.23
328.092	107.86
328.305	44.37
328.518	87.38
328.731	19.8
328.944	48.47
329.157	15.7
329.37	38.23
329.583	36.18
329.796	71
330.009	21.85
330.222	48.47
330.435	46.42
330.648	50.52
330.861	15.7
331.073	46.42
331.286	13.65
331.499	64.85
331.712	-49.83
331.925	5.46
332.138	97.62
332.35	75.09
332.563	21.85
332.776	21.85
332.989	17.75
333.202	-0.68
333.414	38.23
333.627	30.04
333.84	13.65
334.053	7.51
334.265	7.51
334.478	5.46
334.691	46.42
334.903	5.46
335.116	42.32
335.329	21.85
335.541	52.56
335.754	114
335.966	-10.92
336.179	17.75
336.392	68.95
336.604	32.08
336.817	62.8
337.029	13.65
337.242	-27.31
337.454	56.66
337.667	3.41
337.88	95.57
338.092	13.65
338.305	21.85
338.517	25.94
338.729	62.8
338.942	81.24
339.154	40.28
339.367	-2.73
339.579	23.89
339.792	83.28
340.004	75.09
340.217	15.7
340.429	120.15
340.641	75.09
340.854	-27.31
341.066	-6.83
341.278	38.23
341.491	89.43
341.703	99.67
341.915	73.04
342.128	-39.59
342.34	13.65
342.552	-21.16
342.764	40.28
342.977	136.53
343.189	32.08
343.401	13.65
343.613	-51.88
343.826	-41.64
344.038	-45.74
344.25	99.67
344.462	-17.07
344.674	40.28
344.886	79.19
345.099	46.42
345.311	-29.35
345.523	-19.11
345.735	-76.46
345.947	83.28
346.159	15.7
346.371	11.61
346.583	97.62
346.795	122.2
347.007	34.13
347.219	50.52
347.431	7.51
347.643	89.43
347.855	-2.73
348.067	87.38
348.279	21.85
348.491	-8.87
348.703	15.7
348.915	-51.88
349.127	7.51
349.339	46.42
349.551	-47.79
349.763	40.28
349.975	30.04
350.187	107.86
350.399	30.04
350.61	15.7
350.822	54.61
351.034	25.94
351.246	21.85
351.458	15.7
351.669	13.65
351.881	97.62
352.093	71
352.305	66.9
352.517	40.28
352.728	95.57
352.94	3.41
353.152	5.46
353.363	-21.16
353.575	103.76
353.787	73.04
353.999	71
354.21	103.76
354.422	32.08
354.633	9.56
354.845	42.32
355.057	19.8
355.268	-35.5
355.48	71
355.692	21.85
355.903	19.8
356.115	9.56
356.326	54.61
356.538	99.67
356.749	9.56
356.961	62.8
357.172	73.04
357.384	36.18
357.595	79.19
357.807	3.41
358.018	5.46
358.23	50.52
358.441	97.62
358.653	68.95
358.864	-19.11
359.075	46.42
359.287	42.32
359.498	54.61
359.709	32.08
359.921	38.23
360.132	-68.27
360.344	81.24
360.555	56.66
360.766	-10.92
360.977	30.04
361.189	71
361.4	77.14
361.611	122.2
361.823	99.67
362.034	77.14
362.245	-0.68
362.456	-27.31
362.667	103.76
362.879	36.18
363.09	54.61
363.301	73.04
363.512	42.32
363.723	-53.93
363.935	13.65
364.146	46.42
364.357	30.04
364.568	101.72
364.779	-43.69
364.99	50.52
365.201	1.37
365.412	71
365.623	-21.16
365.834	62.8
366.045	-17.07
366.256	48.47
366.467	58.71
366.678	46.42
366.889	101.72
367.1	46.42
367.311	-21.16
367.522	34.13
367.733	91.48
367.944	54.61
368.155	87.38
368.366	171.35
368.577	34.13
368.788	13.65
368.999	48.47
369.209	30.04
369.42	77.14
369.631	159.06
369.842	71
370.053	30.04
370.264	46.42
370.474	25.94
370.685	32.08
370.896	9.56
371.107	46.42
371.317	46.42
371.528	48.47
371.739	66.9
371.95	71
372.16	42.32
372.371	-17.07
372.582	48.47
372.792	58.71
373.003	103.76
373.214	-17.07
373.424	38.23
373.635	79.19
373.846	54.61
374.056	46.42
374.267	1.37
374.477	136.53
374.688	95.57
374.898	66.9
375.109	9.56
375.319	13.65
375.53	58.71
375.74	62.8
375.951	71
376.161	36.18
376.372	13.65
376.582	-49.83
376.793	62.8
377.003	34.13
377.214	-49.83
377.424	-8.87
377.635	54.61
377.845	34.13
378.055	38.23
378.266	17.75
378.476	87.38
378.686	48.47
378.897	68.95
379.107	54.61
379.317	23.89
379.528	30.04
379.738	87.38
379.948	40.28
380.158	83.28
380.369	-10.92
380.579	56.66
380.789	-51.88
380.999	95.57
381.21	103.76
381.42	89.43
381.63	71
381.84	-31.4
382.05	44.37
382.261	-8.87
382.471	75.09
382.681	30.04
382.891	189.78
383.101	44.37
383.311	21.85
383.521	99.67
383.731	58.71
383.941	89.43
384.151	50.52
384.361	79.19
384.571	34.13
384.781	83.28
384.991	83.28
385.201	54.61
385.411	13.65
385.621	-0.68
385.831	54.61
386.041	83.28
386.251	-25.26
386.461	91.48
386.671	-0.68
386.881	73.04
387.091	93.52
387.301	68.95
387.511	-0.68
387.72	62.8
387.93	36.18
388.14	54.61
388.35	134.48
388.56	124.24
388.769	64.85
388.979	38.23
389.189	62.8
389.399	56.66
389.609	36.18
389.818	58.71
390.028	81.24
390.238	126.29
390.447	111.96
390.657	64.85
390.867	-10.92
391.076	34.13
391.286	66.9
391.496	44.37
391.705	50.52
391.915	136.53
392.125	58.71
392.334	54.61
392.544	189.78
392.753	105.81
392.963	-2.73
393.172	114
393.382	95.57
393.591	89.43
393.801	15.7
394.01	146.77
394.22	62.8
394.429	81.24
394.639	93.52
394.848	79.19
395.058	21.85
395.267	71
395.477	66.9
395.686	109.91
395.895	87.38
396.105	128.34
396.314	118.1
396.524	60.76
396.733	120.15
396.942	136.53
397.152	101.72
397.361	128.34
397.57	64.85
397.78	91.48
397.989	95.57
398.198	116.05
398.407	120.15
398.617	120.15
398.826	118.1
399.035	124.24
399.244	161.11
399.453	77.14
399.663	79.19
399.872	103.76
400.081	93.52
400.29	152.91
400.499	89.43
400.708	124.24
400.917	114
401.127	83.28
401.336	54.61
401.545	97.62
401.754	50.52
401.963	75.09
402.172	71
402.381	111.96
402.59	138.58
402.799	136.53
403.008	91.48
403.217	183.63
403.426	54.61
403.635	132.44
403.844	177.49
404.053	165.2
404.262	171.35
404.471	173.39
404.68	159.06
404.888	87.38
405.097	122.2
405.306	97.62
405.515	71
405.724	232.79
405.933	163.15
406.142	171.35
406.35	181.59
406.559	124.24
406.768	247.12
406.977	169.3
407.185	130.39
407.394	189.78
407.603	111.96
407.812	173.39
408.02	183.63
408.229	245.07
408.438	179.54
408.646	173.39
408.855	179.54
409.064	236.88
409.272	324.94
409.481	283.98
409.69	236.88
409.898	281.94
410.107	269.65
410.315	398.67
410.524	294.22
410.733	269.65
410.941	333.14
411.15	308.56
411.358	406.86
411.567	417.1
411.775	345.42
411.984	316.75
412.192	433.49
412.401	367.95
412.609	464.21
412.818	408.91
413.026	484.69
413.234	496.97
413.443	488.78
413.651	480.59
413.86	480.59
414.068	572.75
414.276	603.47
414.485	542.03
414.693	605.52
414.901	630.09
415.11	578.89
415.318	671.05
415.526	695.63
415.734	763.21
415.943	752.97
416.151	750.92
416.359	767.31
416.567	709.96
416.776	834.89
416.984	845.13
417.192	951.62
417.4	871.75
417.608	802.12
417.817	988.49
418.025	970.05
418.233	1140.04
418.441	988.49
418.649	939.33
418.857	1103.17
419.065	1140.04
419.273	1146.18
419.481	1193.28
419.689	1369.41
419.897	1496.38
420.105	1301.83
420.313	1430.85
420.521	1441.09
420.729	1508.67
420.937	1477.95
421.145	1537.34
421.353	1621.31
421.561	1733.95
421.769	1742.14
421.977	1875.26
422.185	1785.15
422.393	1991.99
422.601	2078.01
422.809	2000.18
423.017	2075.96
423.224	2235.7
423.432	2245.94
423.64	2239.8
423.848	2448.69
424.056	2389.3
424.263	2618.67
424.471	2669.87
424.679	2757.93
424.887	2733.36
425.094	2880.81
425.302	2776.36
425.51	3095.85
425.718	3095.85
425.925	3161.38
426.133	3222.82
426.341	3396.9
426.548	3480.86
426.756	3573.02
426.964	3603.74
427.171	3892.51
427.379	4027.67
427.586	3953.94
427.794	4060.44
428.001	4384.02
428.209	4478.23
428.417	4293.91
428.624	4715.79
428.832	4730.13
429.039	4687.12
429.247	4658.45
429.454	5100.81
429.662	5530.88
429.869	5211.4
430.076	5559.55
430.284	5244.17
430.491	5559.55
430.699	5782.78
430.906	5958.91
431.114	5733.63
431.321	6204.66
431.528	6192.37
431.736	6651.12
431.943	6913.26
432.15	6663.41
432.358	6829.29
432.565	7116.01
432.772	7159.02
432.979	7703.78
433.187	7800.03
433.394	7658.72
433.601	8250.58
433.808	8256.73
434.016	8269.02
434.223	8512.72
434.43	9069.77
434.637	9000.14
434.844	9436.36
435.052	9475.27
435.259	9485.51
435.466	9565.38
435.673	9475.27
435.88	10048.7
436.087	10802.35
436.294	10654.9
436.501	10396.85
436.708	10722.48
436.915	10847.41
437.122	11273.39
437.329	11433.13
437.537	11766.95
437.743	12170.4
437.95	11943.07
438.157	12453.02
438.364	12788.88
438.571	12987.54
438.778	13122.7
438.985	13945.98
439.192	13573.25
439.399	13782.15
439.606	13685.89
439.813	14496.89
440.02	15553.64
440.227	15098.99
440.433	14832.75
440.64	15397.99
440.847	15344.75
441.054	15744.1
441.261	16850
441.467	16614.49
441.674	16872.53
441.881	17454.15
442.088	17577.03
442.294	17341.52
442.501	17493.07
442.708	18138.18
442.914	18807.86
443.121	19704.87
443.328	19012.66
443.534	20489.24
443.741	19715.11
443.948	19342.38
444.154	21122.07
444.361	20935.7
444.568	21124.12
444.774	20884.5
444.981	21298.19
445.187	21777.42
445.394	22844.41
445.6	22469.63
445.807	24423.39
446.013	23634.92
446.22	23888.87
446.426	25039.83
446.633	24867.8
446.839	26026.95
447.046	24822.75
447.252	26215.37
447.459	26338.24
447.665	26129.35
447.871	27095.99
448.078	28408.74
448.284	27374.52
448.491	27700.14
448.697	29303.7
448.903	29803.41
449.11	29500.31
449.316	29275.03
449.522	29840.27
449.728	30649.22
449.935	30720.9
450.141	30612.35
450.347	31441.78
450.553	30405.51
450.76	31064.96
450.966	31988.59
451.172	31290.23
451.378	32242.54
451.584	31781.74
451.791	32838.5
451.997	32351.08
452.203	33002.33
452.409	32789.35
452.615	32875.36
452.821	31460.21
453.027	31503.22
453.233	32758.63
453.44	31556.47
453.646	32039.79
453.852	32654.18
454.058	32850.78
454.264	31992.69
454.47	32512.87
454.676	31622
454.882	33174.36
455.088	29584.27
455.294	30368.65
455.5	30565.25
455.705	31380.34
455.911	29965.2
456.117	29469.59
456.323	28930.97
456.529	27720.62
456.735	28744.61
456.941	28453.8
457.147	27579.31
457.352	26891.19
457.558	26465.22
457.764	26635.2
457.97	26323.91
458.176	25639.89
458.381	25773
458.587	24486.88
458.793	24493.02
458.999	23202.8
459.204	24529.89
459.41	24105.96
459.616	22490.11
459.821	22672.38
460.027	22522.88
460.233	21951.49
460.438	20689.95
460.644	21107.73
460.85	20231.2
461.055	19665.96
461.261	20038.69
461.466	18388.03
461.672	17644.62
461.878	18705.46
462.083	17822.79
462.289	17495.11
462.494	17183.82
462.7	16538.71
462.905	16002.15
463.111	16761.94
463.316	16329.82
463.522	16231.52
463.727	16389.21
463.932	16258.14
464.138	16200.8
464.343	16008.29
464.549	15588.46
464.754	16393.31
464.959	15940.71
465.165	15948.9
465.37	15389.8
465.575	14943.35
465.781	15162.48
465.986	15627.37
466.191	14765.17
466.397	14828.66
466.602	13839.49
466.807	14681.21
467.012	14324.86
467.218	14449.78
467.423	14306.43
467.628	14324.86
467.833	15010.93
468.038	14365.82
468.244	14054.53
468.449	14568.57
468.654	14113.92
468.859	14011.52
469.064	13649.03
469.269	13423.75
469.474	13579.4
469.679	13845.63
469.885	13180.04
470.09	13536.39
470.295	13362.31
470.5	12952.72
470.705	13270.15
470.91	12981.39
471.115	12723.35
471.32	12973.2
471.525	13020.3
471.73	12561.56
471.935	12461.21
472.139	11926.69
472.344	12416.15
472.549	12278.94
472.754	12043.42
472.959	11807.91
473.164	11627.68
473.369	11373.74
473.574	11916.45
473.778	11809.95
473.983	11648.16
474.188	11547.81
474.393	11017.39
474.598	11306.15
474.802	10914.99
475.007	11195.56
475.212	11115.69
475.417	10534.07
475.621	10730.67
475.826	10661.04
476.031	10065.08
476.235	10323.13
476.44	10331.32
476.645	10110.14
476.849	10206.39
477.054	9929.92
477.259	9872.57
477.463	9858.24
477.668	9663.68
477.872	9696.45
478.077	9475.27
478.282	9352.39
478.486	9321.67
478.691	9389.25
478.895	9327.81
479.1	9227.46
479.304	9200.84
479.509	8860.88
479.713	9225.42
479.918	8776.91
480.122	8668.37
480.326	8811.73
480.531	8709.33
480.735	8746.19
480.94	8697.04
481.144	8762.58
481.348	8424.66
481.553	8711.38
481.757	8535.25
481.961	8635.6
482.166	8541.39
482.37	8598.74
482.574	8297.69
482.778	8346.84
482.983	8809.68
483.187	8363.22
483.391	8764.62
483.595	8322.26
483.8	8426.71
484.004	8426.71
484.208	8565.97
484.412	8381.65
484.616	8355.03
484.821	8596.69
485.025	8328.41
485.229	8463.57
485.433	8398.04
485.637	8348.89
485.841	8404.18
486.045	8434.9
486.249	8344.79
486.453	8158.42
486.657	8387.8
486.861	8471.76
487.065	8152.28
487.269	8445.14
487.473	8252.63
487.677	8436.95
487.881	8363.22
488.085	8479.96
488.289	8387.8
488.493	8561.87
488.697	8615.12
488.901	8639.7
489.105	8449.24
489.309	8373.46
489.512	8527.06
489.716	8641.75
489.92	8525.01
490.124	8420.56
490.328	8578.26
490.531	8608.98
490.735	8778.96
490.939	8527.06
491.143	8541.39
491.346	8738
491.55	8666.32
491.754	8963.28
491.958	8928.46
492.161	8684.75
492.365	8959.18
492.569	8613.07
492.772	8842.45
492.976	8885.45
493.18	9123.02
493.383	9157.83
493.587	9131.21
493.79	9333.96
493.994	9264.33
494.197	9168.07
494.401	9209.03
494.605	9370.82
494.808	9456.84
495.012	9549
495.215	9667.78
495.419	9643.2
495.622	9510.08
495.825	9688.26
496.029	9657.54
496.232	9948.35
496.436	9770.18
496.639	10138.81
496.843	9923.77
497.046	10230.97
497.249	10339.51
497.453	10345.66
497.656	10462.39
497.859	10433.72
498.063	10548.4
498.266	10898.61
498.469	10902.7
498.673	10837.17
498.876	11130.03
499.079	11111.6
499.282	11193.51
499.485	11515.05
499.689	11484.33
499.892	11691.17
500.095	11693.22
500.298	12053.66
500.501	11783.33
500.705	12293.27
500.908	12430.49
501.111	12268.7
501.314	12586.13
501.517	12733.59
501.72	12729.49
501.923	12670.1
502.126	13075.6
502.329	13173.9
502.532	13198.48
502.735	13579.4
502.938	13698.18
503.141	13704.32
503.344	13888.64
503.547	14056.57
503.75	14210.17
503.953	14220.41
504.156	14636.15
504.359	14683.25
504.562	14685.3
504.765	15033.46
504.968	15142
505.17	15262.83
505.373	15486.06
505.576	15596.65
505.779	16045.15
505.982	15895.65
506.185	16192.61
506.387	16270.43
506.59	16352.35
506.793	16755.8
506.996	16639.06
507.198	17151.06
507.401	16938.07
507.604	17316.94
507.807	17843.27
508.009	17798.21
508.212	17515.59
508.415	18138.18
508.617	18453.56
508.82	18484.28
509.022	18682.94
509.225	18949.17
509.428	18744.38
509.63	19211.31
509.833	19256.37
510.035	19702.82
510.238	19797.03
510.44	19926.05
510.643	20397.09
510.845	19944.49
511.048	20251.68
511.25	20493.34
511.453	20661.27
511.655	21111.83
511.858	20857.88
512.06	21408.78
512.262	21777.42
512.465	21439.5
512.667	21877.77
512.87	21920.77
513.072	22223.87
513.274	22494.21
513.477	22801.4
513.679	23002.1
513.881	23241.71
514.084	23368.69
514.286	23602.16
514.488	23485.42
514.69	24421.34
514.893	24392.67
515.095	24345.57
515.297	24683.48
515.499	24536.03
515.701	24949.72
515.904	25056.22
516.106	25488.34
516.308	25621.45
516.51	26209.22
516.712	25834.44
516.914	26444.74
517.116	26459.07
517.318	26516.42
517.52	27126.71
517.722	27130.81
517.925	27423.67
518.127	27591.6
518.329	27603.89
518.531	27847.6
518.733	28541.86
518.935	28634.02
519.136	28715.94
519.338	29100.95
519.54	29209.5
519.742	29701.01
519.944	29705.1
520.146	30047.11
520.348	30210.95
520.55	30362.5
520.752	30448.52
520.954	31159.16
521.155	30808.96
521.357	31075.2
521.559	31693.68
521.761	31810.42
521.963	31669.11
522.164	32377.7
522.366	31765.36
522.568	32265.07
522.77	32297.83
522.971	33098.59
523.173	32498.53
523.375	33221.47
523.576	33178.46
523.778	33446.74
523.98	33641.3
524.181	33755.99
524.383	33606.48
524.584	34315.08
524.786	34444.1
524.988	33983.31
525.189	34900.8
525.391	34593.61
525.592	34931.52
525.794	35146.56
525.995	35083.07
526.197	35267.39
526.398	35048.25
526.6	35523.38
526.801	35918.64
527.003	35914.55
527.204	35883.83
527.406	36145.97
527.607	35879.73
527.808	36203.31
528.01	35988.27
528.211	36490.02
528.412	36598.57
528.614	36305.71
528.815	36750.12
529.016	37251.87
529.218	37165.85
529.419	37114.65
529.62	37333.79
529.822	37227.29
530.023	37163.81
530.224	36885.28
530.425	37407.51
530.626	36694.82
530.828	36999.97
531.029	37743.38
531.23	37434.14
531.431	37487.39
531.632	37387.03
531.833	37378.84
532.035	37505.82
532.236	37563.16
532.437	38152.98
532.638	37800.72
532.839	37634.84
533.04	38142.74
533.241	37239.58
533.442	38419.21
533.643	37817.11
533.844	37495.58
534.045	37724.95
534.246	37683.99
534.447	37978.9
534.648	37718.81
534.849	38071.06
535.05	37384.99
535.251	37649.17
535.451	37514.01
535.652	37915.41
535.853	38062.86
536.054	37866.26
536.255	37978.9
536.456	37671.7
536.657	38222.61
536.857	37944.08
537.058	37735.19
537.259	38124.3
537.46	37663.51
537.66	37813.01
537.861	37767.96
538.062	37745.43
538.263	38214.41
538.463	37647.13
538.664	37307.16
538.865	37503.77
539.065	38208.27
539.266	37301.02
539.466	37792.53
539.667	37333.79
539.868	37948.18
540.068	37636.89
540.269	37722.9
540.469	38275.85
540.67	38021.91
540.87	37696.28
541.071	37653.27
541.271	38030.1
541.472	37745.43
541.672	37704.47
541.873	37763.86
542.073	37036.83
542.274	37995.28
542.474	37714.71
542.675	37575.45
542.875	37630.74
543.075	37669.65
543.276	37264.16
543.476	37649.17
543.676	37608.22
543.877	37718.81
544.077	37755.67
544.277	37532.44
544.478	37419.8
544.678	37561.11
544.878	37141.28
545.078	37686.04
545.279	37407.51
545.479	37374.75
545.679	37694.23
545.879	37649.17
546.079	37526.3
546.28	37370.65
546.48	36897.57
546.68	37184.29
546.88	37514.01
547.08	37407.51
547.28	37280.54
547.48	36768.55
547.68	37415.71
547.88	36944.67
548.081	37290.78
548.281	37481.24
548.481	37313.31
548.681	37210.91
548.881	37481.24
549.081	37348.12
549.28	36877.09
549.48	37253.92
549.68	37006.11
549.88	37653.27
550.08	36848.42
550.28	37733.14
550.48	37079.84
550.68	37303.07
550.88	37337.88
551.08	37331.74
551.279	37258.01
551.479	36756.26
551.679	37085.98
551.879	36905.76
552.079	37153.57
552.278	36666.15
552.478	36821.8
552.678	37161.76
552.878	37323.55
553.077	37045.02
553.277	36864.8
553.477	37315.36
553.676	36852.51
553.876	36942.63
554.076	36672.29
554.275	36522.79
554.475	36236.08
554.674	37006.11
554.874	36916
555.074	36834.08
555.273	36555.56
555.473	37110.56
555.672	36653.86
555.872	36553.51
556.071	36166.45
556.271	36608.81
556.47	36193.07
556.67	36266.8
556.869	36666.15
557.068	36504.36
557.268	36162.35
557.467	36381.48
557.667	36096.81
557.866	36158.25
558.065	36600.61
558.265	36410.15
558.464	36090.67
558.663	36293.42
558.863	35912.5
559.062	36279.08
559.261	35607.35
559.461	36123.44
559.66	35566.39
559.859	35597.11
560.058	35695.41
560.258	35781.43
560.457	35529.53
560.656	35746.61
560.855	35375.93
561.054	36041.52
561.253	35236.67
561.453	35308.35
561.652	35447.61
561.851	35433.27
562.05	35328.83
562.249	35038.01
562.448	35351.35
562.647	35396.41
562.846	35371.83
563.045	35359.55
563.244	34691.91
563.443	35304.25
563.642	34888.51
563.841	34997.06
564.04	34722.63
564.239	35101.5
564.438	34310.99
564.637	34878.27
564.836	34634.56
565.035	33948.5
565.234	34726.72
565.432	34556.74
565.631	34106.19
565.83	34509.64
566.029	34288.46
566.228	34149.2
566.427	33925.97
566.625	33846.1
566.824	33706.83
567.023	33760.08
567.222	33006.43
567.42	34259.79
567.619	33811.28
567.818	33549.14
568.016	33381.21
568.215	33647.44
568.414	33446.74
568.612	33897.3
568.811	33284.95
569.01	33024.86
569.208	32752.48
569.407	33260.38
569.605	32453.48
569.804	33170.27
570.002	32676.71
570.201	32854.88
570.4	32494.44
570.598	32815.97
570.797	32248.68
570.995	32844.64
571.193	31931.25
571.392	32953.18
571.59	32117.61
571.789	32584.55
571.987	32150.38
572.186	32074.6
572.384	31982.45
572.582	32244.59
572.781	31961.97
572.979	31449.97
573.177	31628.15
573.376	31699.83
573.574	31140.73
573.772	31896.43
573.971	31501.17
574.169	31243.13
574.367	31204.22
574.565	31314.81
574.763	30794.62
574.962	30714.75
575.16	30690.18
575.358	30870.4
575.556	30512
575.754	30964.6
575.952	30466.95
576.151	30827.39
576.349	30213
576.547	30565.25
576.745	30669.7
576.943	30380.93
577.141	30270.34
577.339	30258.06
577.537	30016.4
577.735	30161.8
577.933	30274.44
578.131	30213
578.329	30036.88
578.527	29596.56
578.725	29645.71
578.923	29811.6
579.121	29393.81
579.319	29373.33
579.516	29780.88
579.714	29434.77
579.912	29414.29
580.11	29012.89
580.308	29055.9
580.506	29035.42
580.704	28779.42
580.901	28867.48
581.099	29074.33
581.297	28537.76
581.495	28457.89
581.692	28791.71
581.89	28543.91
582.088	28877.72
582.285	28459.94
582.483	28527.52
582.681	28734.37
582.878	28103.59
583.076	28013.48
583.274	28359.59
583.471	27949.99
583.669	28040.11
583.866	27866.03
584.064	28150.7
584.262	27777.97
584.459	27737.01
584.657	27749.29
584.854	27784.11
585.052	27216.82
585.249	27548.59
585.447	27409.33
585.644	26852.28
585.841	27198.39
586.039	27290.55
586.236	27073.46
586.434	27296.69
586.631	26956.73
586.828	26860.48
587.026	26846.14
587.223	26508.22
587.42	26622.91
587.618	26319.81
587.815	26596.29
588.012	26438.59
588.21	26332.1
588.407	26389.44
588.604	25918.41
588.801	26311.62
588.999	26086.34
589.196	25852.87
589.393	25904.07
589.59	25586.64
589.787	25611.21
589.984	25517.01
590.182	25279.44
590.379	25652.17
590.576	25443.28
590.773	25263.06
590.97	25179.09
591.167	25684.94
591.364	24916.95
591.561	25232.34
591.758	24595.42
591.955	25101.27
592.152	25050.07
592.349	24802.27
592.546	25134.04
592.743	24703.96
592.94	24554.46
593.137	24871.9
593.334	24335.33
593.531	24247.27
593.727	24527.84
593.924	24058.85
594.121	24103.91
594.318	24531.94
594.515	23741.42
594.712	24503.26
594.908	24024.04
595.105	24044.52
595.302	23643.12
595.499	23987.18
595.696	23610.35
595.892	23346.16
596.089	23524.33
596.286	23444.46
596.482	23211
596.679	23305.2
596.876	23419.89
597.072	23020.53
597.269	22944.76
597.466	22819.83
597.662	23032.82
597.859	22948.86
598.055	22995.96
598.252	22674.43
598.448	22674.43
598.645	22715.39
598.841	22567.93
599.038	22381.57
599.234	22500.35
599.431	22232.07
599.627	22275.07
599.824	22428.67
600.02	22393.86
600.217	22123.52
600.413	22172.67
600.609	21814.28
600.806	21687.31
601.002	21863.43
601.198	21761.03
601.395	21527.56
601.591	21609.48
601.787	21689.35
601.984	21492.75
602.18	21621.77
602.376	21492.75
602.572	21038.1
602.769	21343.25
602.965	20925.46
603.161	20927.51
603.357	20808.73
603.553	20980.76
603.75	21109.78
603.946	20831.26
604.142	20935.7
604.338	20608.03
604.534	20550.68
604.73	20339.74
604.926	20476.96
605.122	20663.32
605.318	20378.65
605.514	20198.43
605.71	20233.25
605.906	20091.94
606.102	20167.71
606.298	20087.84
606.494	20212.77
606.69	20093.99
606.886	20147.23
607.082	19936.29
607.278	19991.59
607.474	19645.48
607.67	20057.12
607.866	19821.61
608.062	19887.14
608.257	19760.17
608.453	19440.68
608.649	19764.26
608.845	19055.67
609.041	19440.68
609.236	19538.99
609.432	19233.84
609.628	19268.66
609.824	19252.27
610.019	19180.59
610.215	19360.81
610.411	19196.98
610.606	19033.14
610.802	19321.9
610.998	19166.26
611.193	19178.54
611.389	18957.36
611.584	19119.15
611.78	18760.76
611.976	18979.89
612.171	19178.54
612.367	18863.16
612.562	18641.98
612.758	18666.55
612.953	18494.52
613.149	18668.6
613.344	18484.28
613.539	18834.49
613.735	18777.14
613.93	18527.29
614.126	18340.93
614.321	18482.24
614.517	18422.84
614.712	18523.19
614.907	18361.41
615.103	18349.12
615.298	18226.24
615.493	18265.15
615.688	17857.6
615.884	18263.1
616.079	17972.29
616.274	18152.51
616.47	18023.49
616.665	17980.48
616.86	17964.1
617.055	17806.41
617.25	17740.87
617.445	18037.83
617.641	17519.69
617.836	17812.55
618.031	17364.04
618.226	17626.18
618.421	17693.77
618.616	17560.65
618.811	17337.42
619.006	17554.51
619.201	17185.87
619.396	17194.06
619.591	17218.64
619.786	17548.36
619.981	16997.46
620.176	17339.47
620.371	16614.49
620.566	16913.49
620.761	16958.55
620.956	16895.06
621.151	16628.82
621.346	16901.2
621.541	16608.34
621.735	16364.64
621.93	16233.57
622.125	16188.51
622.32	15957.09
622.515	16297.05
622.709	16034.91
622.904	15916.13
623.099	15801.44
623.294	16004.19
623.488	15762.53
623.683	15506.54
623.878	15328.36
624.072	15346.8
624.267	15580.26
624.462	15455.34
624.656	15254.64
624.851	15195.25
625.046	15162.48
625.24	15008.88
625.435	14808.18
625.629	14838.9
625.824	14664.82
626.018	14705.78
626.213	14412.92
626.407	14634.1
626.602	14365.82
626.796	14130.3
626.991	14468.22
627.185	14244.99
627.38	13964.42
627.574	14054.53
627.768	14017.66
627.963	13978.75
628.157	13739.14
628.352	13800.58
628.546	13595.78
628.74	13708.42
628.935	13345.93
629.129	13206.67
629.323	13272.2
629.517	13358.22
629.712	13235.34
629.906	13102.22
630.1	13161.61
630.294	13094.03
630.489	13032.59
630.683	13091.98
630.877	12790.93
631.071	12735.63
631.265	12860.56
631.459	12536.98
631.653	12428.44
631.848	12457.11
632.042	12235.93
632.236	12192.92
632.43	12416.15
632.624	12158.11
632.818	12188.83
633.012	12129.44
633.206	11865.25
633.4	11920.54
633.594	11781.28
633.788	11820.19
633.982	11906.21
634.176	11635.88
634.369	11521.19
634.563	11553.96
634.757	11269.29
634.951	11570.34
635.145	11383.98
635.339	11527.33
635.533	11496.61
635.726	11369.64
635.92	10751.15
636.114	11170.99
636.308	11148.46
636.501	11091.12
636.695	10941.61
636.889	10792.11
637.083	10833.07
637.276	10724.53
637.47	10663.09
637.664	10810.54
637.857	10693.81
638.051	10595.51
638.244	10411.19
638.438	10433.72
638.632	10474.68
638.825	10296.5
639.019	10269.88
639.212	10316.98
639.406	10206.39
639.599	10222.78
639.793	10028.22
639.986	9991.36
640.18	9954.49
640.373	9985.21
640.567	9735.36
640.76	9993.4
640.954	9790.66
641.147	9647.3
641.34	9655.49
641.534	9690.31
641.727	9581.76
641.92	9352.39
642.114	9551.04
642.307	9424.07
642.5	9282.76
642.694	9231.56
642.887	9123.02
643.08	9159.88
643.273	9358.53
643.467	9256.14
643.66	9049.29
643.853	8934.6
644.046	9061.58
644.239	8936.65
644.432	8889.55
644.626	8854.73
644.819	8750.29
645.012	8697.04
645.205	8633.55
645.398	8623.31
645.591	8516.82
645.784	8543.44
645.977	8664.27
646.17	8508.63
646.363	8414.42
646.556	8352.98
646.749	8193.24
646.942	8279.25
647.135	8336.6
647.328	8135.9
647.521	8064.22
647.714	8197.34
647.907	7994.59
648.099	8133.85
648.292	7994.59
648.485	7988.44
648.678	7828.7
648.871	7877.85
649.064	7804.13
649.256	7701.73
649.449	7855.33
649.642	7642.34
649.835	7607.52
650.027	7531.75
650.22	7490.79
650.413	7460.07
650.605	7515.36
650.798	7490.79
650.991	7380.2
651.183	7496.93
651.376	7376.1
651.568	7353.57
651.761	7267.56
651.954	7185.64
652.146	7140.58
652.339	7191.78
652.531	7034.09
652.724	6952.17
652.916	6980.84
653.109	6993.13
653.301	7109.86
653.494	6896.88
653.686	6800.62
653.879	6929.64
654.071	6669.55
654.263	6741.23
654.456	6698.22
654.648	6745.33
654.84	6616.3
655.033	6622.45
655.225	6612.21
655.417	6526.19
655.61	6481.14
655.802	6440.18
655.994	6599.92
656.186	6407.41
656.379	6401.27
656.571	6415.6
656.763	6157.56
656.955	6231.29
657.148	6274.29
657.34	6362.36
657.532	6137.08
657.724	6241.53
657.916	6092.02
658.108	6198.52
658.3	5967.1
658.492	6219
658.684	6026.49
658.876	5919.99
659.068	5856.51
659.26	5917.95
659.452	5985.53
659.644	5870.84
659.836	5862.65
660.028	5731.58
660.22	5756.16
660.412	5690.62
660.604	5553.41
660.796	5608.7
660.988	5711.1
661.18	5526.78
661.372	5502.21
661.563	5483.78
661.755	5430.53
661.947	5272.84
662.139	5430.53
662.331	5385.48
662.522	5330.18
662.714	5330.18
662.906	5254.41
663.097	5367.04
663.289	5231.88
663.481	5272.84
663.673	5223.69
663.864	5133.57
664.056	5133.57
664.247	5043.46
664.439	5131.53
664.631	5055.75
664.822	5043.46
665.014	5027.08
665.205	5000.46
665.397	5020.94
665.588	4906.25
665.78	4789.52
665.971	4750.6
666.163	4789.52
666.354	4846.86
666.546	4820.24
666.737	4783.37
666.929	4658.45
667.12	4687.12
667.311	4785.42
667.503	4637.97
667.694	4873.48
667.885	4560.14
668.077	4597.01
668.268	4510.99
668.459	4713.74
668.651	4556.05
668.842	4431.12
669.033	4551.95
669.224	4545.81
669.416	4484.37
669.607	4474.13
669.798	4160.79
669.989	4506.9
670.18	4398.35
670.371	4494.61
670.563	4267.28
670.754	4257.04
670.945	4363.54
671.136	4218.13
671.327	4314.39
671.518	4134.17
671.709	4236.56
671.9	4230.42
672.091	4187.41
672.282	4191.51
672.473	4015.38
672.664	4281.62
672.855	4136.21
673.046	4160.79
673.237	4103.45
673.428	4070.68
673.619	4070.68
673.809	3937.56
674	3966.23
674.191	3937.56
674.382	3904.79
674.573	3794.2
674.764	3874.07
674.954	3902.75
675.145	3904.79
675.336	3872.03
675.527	3814.68
675.717	3845.4
675.908	3638.56
676.099	3671.33
676.289	3740.96
676.48	3759.39
676.671	3654.94
676.861	3755.29
677.052	3753.24
677.243	3708.19
677.433	3554.59
677.624	3693.85
677.814	3687.71
678.005	3788.06
678.195	3587.36
678.386	3638.56
678.576	3763.48
678.767	3613.98
678.957	3534.11
679.148	3489.06
679.338	3538.21
679.529	3460.38
679.719	3609.89
679.909	3511.58
680.1	3601.69
680.29	3497.25
680.481	3474.72
680.671	3495.2
680.861	3513.63
681.052	3466.53
681.242	3511.58
681.432	3429.66
681.622	3409.19
681.813	3196.2
682.003	3390.75
682.193	3257.64
682.383	3339.55
682.573	3405.09
682.764	3388.71
682.954	3388.71
683.144	3366.18
683.334	3267.88
683.524	3200.29
683.714	3308.83
683.904	3372.32
684.094	3233.06
684.284	3271.97
684.474	3261.73
684.664	3222.82
684.854	3308.83
685.044	3163.43
685.234	3124.52
685.424	3327.27
685.614	3179.81
685.804	3185.96
685.994	3069.22
686.184	3265.83
686.374	3079.46
686.564	3140.9
686.753	3015.98
686.943	3097.89
687.133	2979.11
687.323	3061.03
687.513	3052.84
687.702	3001.64
687.892	3044.65
688.082	3015.98
688.272	2929.96
688.461	2917.67
688.651	2983.21
688.841	2966.82
689.03	3013.93
689.22	2946.34
689.41	2897.19
689.599	2862.38
689.789	2966.82
689.979	2845.99
690.168	2813.23
690.358	2823.47
690.547	2790.7
690.737	2790.7
690.926	2800.94
691.116	2757.93
691.305	2737.45
691.495	2762.03
691.684	2676.01
691.874	2809.13
692.063	2776.36
692.252	2766.12
692.442	2665.77
692.631	2565.42
692.82	2692.4
693.01	2698.54
693.199	2667.82
693.388	2630.96
693.578	2657.58
693.767	2614.57
693.956	2475.31
694.146	2587.95
694.335	2563.37
694.524	2471.22
694.713	2536.75
694.902	2561.33
695.092	2493.74
695.281	2495.79
695.47	2514.22
695.659	2536.75
695.848	2495.79
696.037	2422.06
696.226	2475.31
696.415	2487.6
696.604	2407.73
696.793	2417.97
696.982	2307.38
697.171	2499.89
697.36	2422.06
697.549	2495.79
697.738	2430.26
697.927	2352.43
698.116	2366.77
698.305	2538.8
698.494	2481.46
698.683	2286.9
698.872	2438.45
699.061	2364.72
699.25	2370.87
699.438	2336.05
699.627	2301.23
699.816	2413.87
700.005	2340.15
700.193	2383.15
700.382	2405.68
700.571	2325.81
700.76	2254.13
700.948	2284.85
701.137	2331.95
701.326	2274.61
701.514	2362.67
701.703	2391.34
701.892	2227.51
702.08	2354.48
702.269	2254.13
702.457	2356.53
702.646	2266.42
702.834	2395.44
703.023	2256.18
703.212	2409.78
703.4	2385.2
703.589	2235.7
703.777	2209.08
703.965	2258.23
704.154	2243.89
704.342	2274.61
704.531	2282.8
704.719	2301.23
704.907	2288.95
705.096	2147.64
705.284	2213.17
705.472	2196.79
705.661	2192.69
705.849	2250.03
706.037	2211.12
706.226	2161.97
706.414	2037.05
706.602	2303.28
706.79	2184.5
706.979	2159.92
707.167	2116.92
707.355	2153.78
707.543	2243.89
707.731	2147.64
707.919	2174.26
708.107	2209.08
708.296	2145.59
708.484	2096.44
708.672	2184.5
708.86	2219.32
709.048	2004.28
709.236	2116.92
709.424	2161.97
709.612	2176.31
709.8	2102.58
709.988	2194.74
710.176	2213.17
710.364	2051.38
710.551	2196.79
710.739	2217.27
710.927	2090.29
711.115	2104.63
711.303	2159.92
711.491	2151.73
711.679	2159.92
711.866	2063.67
712.054	2073.91
712.242	2096.44
712.43	2176.31
712.617	2118.97
712.805	2012.47
712.993	2102.58
713.181	2022.71
713.368	2110.77
713.556	2098.49
713.744	2047.29
713.931	2184.5
714.119	2065.72
714.306	2067.77
714.494	2006.33
714.682	2014.52
714.869	1930.55
715.057	2037.05
715.244	2028.85
715.432	2188.6
715.619	2082.1
715.807	2069.81
715.994	2108.73
716.182	1959.22
716.369	2116.92
716.556	2164.02
716.744	1955.13
716.931	2012.47
717.119	2096.44
717.306	2129.2
717.493	2069.81
717.681	2108.73
717.868	2086.2
718.055	2182.45
718.242	2078.01
718.43	2086.2
718.617	2102.58
718.804	2004.28
718.991	2004.28
719.179	2049.33
719.366	1996.09
719.553	2149.68
719.74	2061.62
719.927	2108.73
720.114	2082.1
720.301	2020.66
720.488	1998.13
720.676	2028.85
720.863	2127.16
721.05	2092.34
721.237	2071.86
721.424	2010.42
721.611	2055.48
721.798	2006.33
721.985	1977.66
722.172	2020.66
722.358	2053.43
722.545	2170.16
722.732	2051.38
722.919	1971.51
723.106	2129.2
723.293	1973.56
723.48	2039.09
723.667	2078.01
723.853	1971.51
724.04	1989.94
724.227	2145.59
724.414	2014.52
724.6	1938.74
724.787	2012.47
724.974	2098.49
725.161	2084.15
725.347	1989.94
725.534	2065.72
725.72	2061.62
725.907	2100.53
726.094	2067.77
726.28	2069.81
726.467	1967.42
726.653	2139.44
726.84	1899.83
727.027	2094.39
727.213	2016.57
727.4	2067.77
727.586	2112.82
727.773	2018.61
727.959	2106.68
728.145	2135.35
728.332	2010.42
728.518	2026.81
728.705	2086.2
728.891	2002.23
729.077	2024.76
729.264	2123.06
729.45	2069.81
729.636	2178.36
729.823	1967.42
730.009	2073.91
730.195	2039.09
730.382	1991.99
730.568	1991.99
730.754	1981.75
730.94	2129.2
731.126	1987.89
731.313	2090.29
731.499	1985.85
731.685	2002.23
731.871	2018.61
732.057	2004.28
732.243	1994.04
732.429	1996.09
732.615	2118.97
732.801	1996.09
732.987	2022.71
733.173	1985.85
733.359	1922.36
733.545	2004.28
733.731	2018.61
733.917	1996.09
734.103	1957.18
734.289	2151.73
734.475	2010.42
734.661	1957.18
734.847	1948.98
735.033	1948.98
735.219	1963.32
735.404	2026.81
735.59	1967.42
735.776	1979.7
735.962	2102.58
736.148	2055.48
736.333	1873.21
736.519	2041.14
736.705	1991.99
736.89	2008.37
737.076	2000.18
737.262	1899.83
737.447	2002.23
737.633	1957.18
737.819	2053.43
738.004	1963.32
738.19	2026.81
738.375	1932.6
738.561	1979.7
738.747	1895.74
738.932	1961.27
739.118	2014.52
739.303	1938.74
739.489	1942.84
739.674	1871.16
739.859	1924.41
740.045	1893.69
740.23	1809.72
740.416	1828.15
740.601	1912.12
740.786	1762.62
740.972	1824.06
741.157	1852.73
741.342	1801.53
741.528	1940.79
741.713	1758.52
741.898	1772.86
742.084	1744.19
742.269	1840.44
742.454	1881.4
742.639	1809.72
742.824	1811.77
743.01	1873.21
743.195	1764.67
743.38	1707.32
743.565	1793.34
743.75	1783.1
743.935	1733.95
744.12	1733.95
744.305	1717.56
744.49	1688.89
744.675	1695.04
744.86	1725.75
745.045	1725.75
745.23	1711.42
745.415	1676.6
745.6	1744.19
745.785	1707.32
745.97	1717.56
746.155	1639.74
746.34	1633.6
746.525	1695.04
746.71	1701.18
746.895	1619.26
747.079	1631.55
747.264	1637.69
747.449	1606.97
747.634	1602.88
747.819	1572.16
748.003	1619.26
748.188	1598.78
748.373	1674.56
748.557	1541.44
748.742	1574.21
748.927	1467.71
749.111	1492.29
749.296	1576.25
749.481	1506.62
749.665	1578.3
749.85	1387.84
750.034	1594.68
750.219	1510.72
750.404	1512.77
750.588	1436.99
750.773	1459.52
750.957	1496.38
751.141	1426.75
751.326	1439.04
751.51	1383.74
751.695	1484.09
751.879	1348.93
752.064	1443.14
752.248	1355.07
752.432	1381.7
752.617	1381.7
752.801	1383.74
752.985	1359.17
753.17	1330.5
753.354	1367.36
753.538	1295.68
753.722	1275.2
753.907	1369.41
754.091	1254.72
754.275	1381.7
754.459	1291.59
754.643	1299.78
754.828	1301.83
755.012	1262.91
755.196	1203.52
755.38	1174.85
755.564	1211.71
755.748	1283.39
755.932	1267.01
756.116	1301.83
756.3	1207.62
756.484	1201.47
756.668	1181
756.852	1144.13
757.036	1168.71
757.22	1262.91
757.404	1119.56
757.588	1160.52
757.772	1201.47
757.956	1193.28
758.14	1131.84
758.323	1080.64
758.507	1135.94
758.691	1111.36
758.875	1140.04
759.059	1154.37
759.242	1209.67
759.426	1078.6
759.61	1078.6
759.794	1062.21
759.977	1045.83
760.161	1037.64
760.345	1017.16
760.528	1078.6
760.712	947.53
760.895	994.63
761.079	1064.26
761.263	953.67
761.446	972.1
761.63	1000.77
761.813	968.01
761.997	1002.82
762.18	877.9
762.364	1004.87
762.547	939.33
762.731	945.48
762.914	953.67
763.098	941.38
763.281	947.53
763.464	1008.97
763.648	986.44
763.831	894.28
764.015	900.42
764.198	908.62
764.381	957.77
764.564	957.77
764.748	963.91
764.931	904.52
765.114	916.81
765.297	867.66
765.481	925
765.664	916.81
765.847	892.23
766.03	1023.3
766.213	898.38
766.397	937.29
766.58	875.85
766.763	902.47
766.946	890.18
767.129	873.8
767.312	902.47
767.495	918.86
767.678	863.56
767.861	884.04
768.044	920.9
768.227	841.03
768.41	941.38
768.593	920.9
768.776	865.61
768.959	795.98
769.142	861.51
769.324	906.57
769.507	929.1
769.69	847.18
769.873	783.69
770.056	947.53
770.239	834.89
770.421	865.61
770.604	847.18
770.787	826.7
770.97	759.11
771.152	824.65
771.335	791.88
771.518	769.35
771.7	742.73
771.883	865.61
772.066	777.55
772.248	734.54
772.431	777.55
772.613	824.65
772.796	718.15
772.978	736.59
773.161	808.27
773.343	775.5
773.526	693.58
773.708	734.54
773.891	724.3
774.073	750.92
774.256	767.31
774.438	812.36
774.621	707.91
774.803	714.06
774.985	677.19
775.168	750.92
775.35	681.29
775.532	693.58
775.715	646.48
775.897	709.96
776.079	572.75
776.261	695.63
776.444	660.81
776.626	738.63
776.808	709.96
776.99	689.48
777.173	730.44
777.355	578.89
777.537	605.52
777.719	648.52
777.901	652.62
778.083	611.66
778.265	582.99
778.447	638.28
778.629	638.28
778.811	636.24
778.993	681.29
779.175	662.86
779.357	648.52
779.539	515.41
779.721	605.52
779.903	595.28
780.085	533.84
780.267	570.7
780.449	499.02
780.631	595.28
780.812	578.89
780.994	599.37
781.176	499.02
781.358	564.56
781.54	468.3
781.721	589.13
781.903	472.4
782.085	626
782.267	501.07
782.448	480.59
782.63	556.36
782.812	496.97
782.993	499.02
783.175	486.73
783.357	406.86
783.538	488.78
783.72	439.63
783.901	447.82
784.083	402.77
784.264	462.16
784.446	402.77
784.627	472.4
784.809	464.21
784.99	482.64
785.172	456.01
785.353	484.69
785.535	505.17
785.716	507.21
785.897	394.58
786.079	357.71
786.26	439.63
786.441	482.64
786.623	423.25
786.804	390.48
786.985	419.15
787.167	439.63
787.348	451.92
787.529	406.86
787.71	427.34
787.891	423.25
788.073	380.24
788.254	423.25
788.435	370
788.616	374.1
788.797	353.62
788.978	429.39
789.159	404.82
789.34	365.9
789.522	337.23
789.703	337.23
789.884	400.72
790.065	390.48
790.246	347.47
790.427	394.58
790.607	415.06
790.788	374.1
790.969	275.79
791.15	329.04
791.331	326.99
791.512	335.18
791.693	343.38
791.874	333.14
792.054	349.52
792.235	378.19
792.416	349.52
792.597	206.16
792.778	357.71
792.958	341.33
793.139	281.94
793.32	361.81
793.5	314.7
793.681	341.33
793.862	316.75
794.042	265.55
794.223	318.8
794.404	202.07
794.584	300.37
794.765	263.51
794.945	283.98
795.126	300.37
795.306	312.66
795.487	228.69
795.667	261.46
795.848	302.42
796.028	345.42
796.209	306.51
796.389	247.12
796.57	292.18
796.75	273.75
796.93	259.41
797.111	234.83
797.291	329.04
797.471	290.13
797.652	230.74
797.832	230.74
798.012	304.46
798.192	249.17
798.373	193.87
798.553	214.35
798.733	286.03
798.913	202.07
799.093	257.36
799.274	238.93
799.454	283.98
799.634	292.18
799.814	267.6
799.994	251.22
800.174	253.27
800.354	230.74
800.534	152.91
800.714	243.03
800.894	226.64
801.074	210.26
801.254	189.78
801.434	304.46
801.614	218.45
801.794	245.07
801.974	828.74
802.154	245.07
802.334	253.27
802.514	136.53
802.693	261.46
802.873	154.96
803.053	253.27
803.233	212.31
803.413	189.78
803.592	126.29
803.772	255.31
803.952	197.97
804.131	202.07
804.311	236.88
804.491	240.98
804.67	210.26
804.85	179.54
805.03	171.35
805.209	281.94
805.389	214.35
805.568	185.68
805.748	144.72
805.928	230.74
806.107	277.84
806.287	157.01
806.466	193.87
806.646	222.55
806.825	247.12
807.004	161.11
807.184	212.31
807.363	187.73
807.543	230.74
807.722	146.77
807.901	185.68
808.081	189.78
808.26	169.3
808.439	218.45
808.619	193.87
808.798	173.39
808.977	300.37
809.156	210.26
809.336	144.72
809.515	187.73
809.694	144.72
809.873	71
810.052	120.15
810.231	210.26
810.411	189.78
810.59	189.78
810.769	111.96
810.948	177.49
811.127	136.53
811.306	150.87
811.485	71
811.664	212.31
811.843	144.72
812.022	185.68
812.201	150.87
812.38	163.15
812.559	38.23
812.737	173.39
812.916	128.34
813.095	173.39
813.274	97.62
813.453	157.01
813.632	157.01
813.811	142.68
813.989	206.16
814.168	144.72
814.347	101.72
814.526	111.96
814.704	169.3
814.883	214.35
815.062	177.49
815.24	202.07
815.419	163.15
815.598	177.49
815.776	95.57
815.955	71
816.133	91.48
816.312	171.35
816.49	204.11
816.669	89.43
816.847	68.95
817.026	259.41
817.204	105.81
817.383	101.72
817.561	83.28
817.74	136.53
817.918	97.62
818.097	122.2
818.275	54.61
818.453	91.48
818.632	132.44
818.81	111.96
818.988	48.47
819.167	120.15
819.345	183.63
819.523	30.04
819.701	30.04
819.879	128.34
820.058	114
820.236	95.57
820.414	99.67
820.592	120.15
820.77	56.66
820.948	50.52
821.127	46.42
821.305	185.68
821.483	71
821.661	146.77
821.839	114
822.017	81.24
822.195	62.8
822.373	97.62
822.551	64.85
822.729	109.91
822.907	142.68
823.085	95.57
823.262	91.48
823.44	81.24
823.618	77.14
823.796	62.8
823.974	103.76
824.152	71
824.329	99.67
824.507	114
824.685	128.34
824.863	85.33
825.04	79.19
825.218	71
825.396	1.37
825.574	122.2
825.751	81.24
825.929	111.96
826.107	62.8
826.284	66.9
826.462	25.94
826.639	77.14
826.817	11.61
826.994	97.62
827.172	5.46
827.349	93.52
827.527	91.48
827.704	128.34
827.882	87.38
828.059	77.14
828.237	75.09
828.414	79.19
828.591	27.99
828.769	150.87
828.946	17.75
829.124	46.42
829.301	95.57
829.478	21.85
829.655	116.05
829.833	89.43
830.01	32.08
830.187	71
830.364	91.48
830.542	46.42
830.719	85.33
830.896	79.19
831.073	54.61
831.25	66.9
831.427	81.24
831.604	87.38
831.782	30.04
831.959	71
832.136	99.67
832.313	42.32
832.49	32.08
832.667	34.13
832.844	77.14
833.021	62.8
833.198	44.37
833.374	87.38
833.551	38.23
833.728	38.23
833.905	103.76
834.082	-6.83
834.259	38.23
834.436	21.85
834.612	36.18
834.789	87.38
834.966	13.65
835.143	118.1
835.319	66.9
835.496	25.94
835.673	83.28
835.85	97.62
836.026	30.04
836.203	136.53
836.38	81.24
836.556	54.61
836.733	136.53
836.909	38.23
837.086	-8.87
837.262	-6.83
837.439	79.19
837.616	40.28
837.792	71
837.968	54.61
838.145	42.32
838.321	1.37
838.498	60.76
838.674	17.75
838.851	116.05
839.027	116.05
839.203	87.38
839.38	122.2
839.556	38.23
839.732	79.19
839.909	71
840.085	54.61
840.261	46.42
840.437	42.32
840.614	71
840.79	-19.11
840.966	173.39
841.142	5.46
841.318	30.04
841.494	97.62
841.671	101.72
841.847	56.66
842.023	48.47
842.199	136.53
842.375	83.28
842.551	75.09
842.727	13.65
842.903	103.76
843.079	48.47
843.255	97.62
843.431	5.46
843.607	95.57
843.783	1.37
843.959	48.47
844.134	-8.87
844.31	17.75
844.486	77.14
844.662	-2.73
844.838	11.61
845.013	40.28
845.189	83.28
845.365	13.65
845.541	46.42
845.716	19.8
845.892	89.43
846.068	71
846.244	13.65
846.419	-43.69
846.595	40.28
846.77	38.23
846.946	46.42
847.122	-19.11
847.297	5.46
847.473	36.18
847.648	-82.6
847.824	30.04
847.999	23.89
848.175	-27.31
848.35	62.8
848.526	42.32
848.701	83.28
848.876	107.86
849.052	114
849.227	48.47
849.403	32.08
849.578	46.42
849.753	54.61
849.929	144.72
850.104	-29.35
850.279	13.65
850.454	-25.26
850.63	79.19
850.805	25.94
850.98	71
851.155	128.34
851.33	83.28
851.505	-8.87
851.681	83.28
851.856	3.41
852.031	103.76
852.206	97.62
852.381	40.28
852.556	5.46
852.731	-0.68
852.906	23.89
853.081	-19.11
853.256	42.32
853.431	99.67
853.606	62.8
853.781	75.09
853.956	-31.4
854.131	5.46
854.305	-43.69
854.48	60.76
854.655	-6.83
854.83	3.41
855.005	58.71
855.18	-2.73
855.354	-17.07
855.529	87.38
855.704	46.42
855.879	30.04
856.053	-58.03
856.228	30.04
856.403	-0.68
856.577	11.61
856.752	-74.41
856.926	46.42
857.101	1.37
857.276	21.85
857.45	1.37
857.625	99.67
857.799	48.47
857.974	-51.88
858.148	13.65
858.323	95.57
858.497	62.8
858.672	-10.92
858.846	-15.02
859.02	48.47
859.195	-8.87
859.369	-51.88
859.543	64.85
859.718	25.94
859.892	21.85
860.066	38.23
860.241	-17.07
860.415	-60.07
860.589	32.08
860.763	44.37
860.938	-6.83
861.112	62.8
861.286	5.46
861.46	64.85
861.634	48.47
861.808	89.43
861.982	-12.97
862.157	19.8
862.331	9.56
862.505	-8.87
862.679	54.61
862.853	-23.21
863.027	13.65
863.201	-39.59
863.375	15.7
863.549	-43.69
863.722	11.61
863.896	-6.83
864.07	-10.92
864.244	25.94
864.418	3.41
864.592	-0.68
864.766	30.04
864.939	62.8
865.113	-27.31
865.287	58.71
865.461	-17.07
865.634	85.33
865.808	54.61
865.982	32.08
866.156	32.08
866.329	-41.64
866.503	19.8
866.676	38.23
866.85	73.04
867.024	34.13
867.197	42.32
867.371	38.23
867.544	-31.4
867.718	11.61
867.891	83.28
868.065	38.23
868.238	48.47
868.412	66.9
868.585	-0.68
868.759	-19.11
868.932	-27.31
869.105	-2.73
869.279	66.9
869.452	-43.69
869.625	34.13
869.799	32.08
869.972	-58.03
870.145	23.89
870.319	21.85
870.492	-0.68
870.665	-43.69
870.838	-41.64
871.011	-80.55
871.185	30.04
871.358	56.66
871.531	21.85
871.704	44.37
871.877	-10.92
872.05	38.23
872.223	-29.35
872.396	38.23
872.569	52.56
872.742	-19.11
872.915	30.04
873.088	-6.83
873.261	-49.83
873.434	30.04
873.607	-8.87
873.78	103.76
873.953	15.7
874.126	-64.17
874.299	83.28
874.471	-19.11
874.644	-10.92
874.817	73.04
874.99	71
875.163	-74.41
875.335	38.23
875.508	-51.88
875.681	64.85
875.853	-2.73
876.026	-41.64
876.199	23.89
876.371	-0.68
876.544	3.41
876.717	-43.69
876.889	-6.83
877.062	13.65
877.234	-19.11
877.407	-25.26
877.579	5.46
877.752	7.51
877.924	144.72
878.097	17.75
878.269	-6.83
878.442	73.04
878.614	5.46
878.786	38.23
878.959	81.24
879.131	64.85
879.303	83.28
879.476	-10.92
879.648	-45.74
879.82	-76.46
879.993	15.7
880.165	62.8
880.337	21.85
880.509	-2.73
880.681	32.08
880.854	-58.03
881.026	-10.92
881.198	52.56
881.37	50.52
881.542	62.8
881.714	23.89
881.886	62.8
882.058	58.71
882.23	79.19
882.402	7.51
882.574	-2.73
882.746	21.85
882.918	34.13
883.09	46.42
883.262	-27.31
883.434	30.04
883.606	75.09
883.778	-15.02
883.95	68.95
884.122	-49.83
884.293	9.56
884.465	1.37
884.637	21.85
884.809	-31.4
884.98	32.08
885.152	38.23
885.324	30.04
885.496	-47.79
885.667	-19.11
885.839	-33.45
886.011	38.23
886.182	-45.74
886.354	-41.64
886.525	-10.92
886.697	13.65
886.869	25.94
887.04	-8.87
887.212	48.47
887.383	111.96
887.555	-17.07
887.726	-35.5
887.897	42.32
888.069	56.66
888.24	46.42
888.412	-55.98
888.583	-51.88
888.754	5.46
888.926	-51.88
889.097	54.61
889.268	-41.64
889.44	-55.98
889.611	-19.11
889.782	-31.4
889.953	-41.64
890.125	-31.4
890.296	38.23
890.467	-8.87
890.638	36.18
890.809	21.85
890.98	19.8
891.151	-10.92
891.323	27.99
891.494	48.47
891.665	75.09
891.836	-10.92
892.007	7.51
892.178	-2.73
892.349	36.18
892.52	3.41
892.691	-0.68
892.862	21.85
893.032	-41.64
893.203	30.04
893.374	17.75
893.545	97.62
893.716	1.37
893.887	140.63
894.057	25.94
894.228	62.8
894.399	-60.07
894.57	1.37
894.74	5.46
894.911	-2.73
895.082	-23.21
895.253	30.04
895.423	48.47
895.594	1.37
895.764	40.28
895.935	-15.02
896.106	11.61
896.276	13.65
896.447	-0.68
896.617	-60.07
896.788	-66.22
896.958	30.04
897.129	-49.83
897.299	7.51
897.47	44.37
897.64	7.51
897.81	-25.26
897.981	-2.73
898.151	-84.65
898.322	46.42
898.492	-19.11
898.662	-6.83
898.832	-31.4
899.003	5.46
899.173	79.19
899.343	13.65
899.513	-47.79
