Data from USB4F104151__211__14-45-26-788.txt Node

Date: Thu Mar 13 14:45:26 EDT 2025
User: louis
Spectrometer: USB4F10415
Trigger mode: 4
Integration Time (sec): 2.000000E-2
Scans to average: 1
Electric dark correction enabled: true
Nonlinearity correction enabled: false
Boxcar width: 0
XAxis mode: Wavelengths
Number of Pixels in Spectrum: 3648
>>>>>Begin Spectral Data<<<<<
178.204	-98.99
178.424	-98.99
178.644	-98.99
178.864	-144.04
179.084	-160.42
179.304	9.56
179.524	52.56
179.744	1.37
179.964	-0.68
180.184	-17.07
180.404	-25.26
180.624	11.61
180.844	-43.69
181.064	-12.97
181.283	17.75
181.503	-37.55
181.723	44.37
181.943	-27.31
182.163	81.24
182.383	-0.68
182.602	56.66
182.822	114
183.042	34.13
183.262	-12.97
183.482	25.94
183.701	-15.02
183.921	44.37
184.141	-39.59
184.361	75.09
184.58	-6.83
184.8	40.28
185.02	75.09
185.239	38.23
185.459	-39.59
185.679	9.56
185.898	-25.26
186.118	-45.74
186.338	-8.87
186.557	40.28
186.777	15.7
186.997	-82.6
187.216	34.13
187.436	89.43
187.655	40.28
187.875	54.61
188.095	38.23
188.314	64.85
188.534	11.61
188.753	-29.35
188.973	66.9
189.192	58.71
189.412	-82.6
189.631	15.7
189.851	-37.55
190.07	157.01
190.29	48.47
190.509	15.7
190.729	-8.87
190.948	56.66
191.168	134.48
191.387	50.52
191.607	32.08
191.826	-8.87
192.045	-37.55
192.265	101.72
192.484	-58.03
192.704	46.42
192.923	-0.68
193.142	-0.68
193.362	34.13
193.581	-0.68
193.8	60.76
194.02	23.89
194.239	-10.92
194.458	36.18
194.678	-2.73
194.897	81.24
195.116	77.14
195.335	50.52
195.555	114
195.774	3.41
195.993	40.28
196.212	9.56
196.432	34.13
196.651	17.75
196.87	42.32
197.089	13.65
197.308	25.94
197.528	-55.98
197.747	-19.11
197.966	-25.26
198.185	81.24
198.404	-0.68
198.623	36.18
198.842	19.8
199.062	77.14
199.281	89.43
199.5	9.56
199.719	54.61
199.938	13.65
200.157	40.28
200.376	52.56
200.595	-0.68
200.814	50.52
201.033	85.33
201.252	3.41
201.471	19.8
201.69	15.7
201.909	97.62
202.128	-45.74
202.347	9.56
202.566	1.37
202.785	-17.07
203.004	-4.78
203.223	23.89
203.442	-45.74
203.661	58.71
203.879	-33.45
204.098	56.66
204.317	19.8
204.536	9.56
204.755	81.24
204.974	58.71
205.193	-29.35
205.411	89.43
205.63	32.08
205.849	66.9
206.068	-15.02
206.287	-25.26
206.505	60.76
206.724	19.8
206.943	11.61
207.162	-0.68
207.381	89.43
207.599	-8.87
207.818	64.85
208.037	1.37
208.255	-17.07
208.474	21.85
208.693	1.37
208.911	25.94
209.13	23.89
209.349	36.18
209.567	52.56
209.786	42.32
210.005	-72.36
210.223	-41.64
210.442	-37.55
210.661	7.51
210.879	-37.55
211.098	64.85
211.316	-86.7
211.535	-25.26
211.753	-0.68
211.972	-0.68
212.191	40.28
212.409	40.28
212.628	30.04
212.846	-74.41
213.065	21.85
213.283	25.94
213.502	7.51
213.72	93.52
213.938	-4.78
214.157	114
214.375	77.14
214.594	-10.92
214.812	64.85
215.031	46.42
215.249	36.18
215.467	-0.68
215.686	1.37
215.904	64.85
216.122	58.71
216.341	50.52
216.559	83.28
216.778	109.91
216.996	15.7
217.214	-33.45
217.432	50.52
217.651	-17.07
217.869	32.08
218.087	48.47
218.306	-4.78
218.524	95.57
218.742	3.41
218.96	58.71
219.179	1.37
219.397	-0.68
219.615	58.71
219.833	48.47
220.051	19.8
220.27	75.09
220.488	32.08
220.706	58.71
220.924	-15.02
221.142	-17.07
221.36	-0.68
221.578	19.8
221.796	-2.73
222.015	89.43
222.233	27.99
222.451	64.85
222.669	40.28
222.887	-6.83
223.105	-0.68
223.323	48.47
223.541	3.41
223.759	23.89
223.977	38.23
224.195	-21.16
224.413	-49.83
224.631	-0.68
224.849	48.47
225.067	42.32
225.285	64.85
225.503	83.28
225.721	-96.94
225.939	-0.68
226.157	-8.87
226.375	68.95
226.592	-49.83
226.81	40.28
227.028	36.18
227.246	83.28
227.464	-53.93
227.682	71
227.9	56.66
228.117	1.37
228.335	44.37
228.553	32.08
228.771	48.47
228.989	99.67
229.206	34.13
229.424	-6.83
229.642	5.46
229.86	25.94
230.077	-12.97
230.295	-2.73
230.513	11.61
230.731	48.47
230.948	56.66
231.166	17.75
231.384	3.41
231.601	3.41
231.819	105.81
232.037	-4.78
232.254	3.41
232.472	56.66
232.689	-0.68
232.907	122.2
233.125	-4.78
233.342	5.46
233.56	54.61
233.777	32.08
233.995	3.41
234.213	77.14
234.43	1.37
234.648	15.7
234.865	52.56
235.083	97.62
235.3	75.09
235.518	23.89
235.735	52.56
235.953	-29.35
236.17	32.08
236.388	56.66
236.605	3.41
236.822	93.52
237.04	32.08
237.257	-6.83
237.475	-21.16
237.692	83.28
237.909	-12.97
238.127	-15.02
238.344	-8.87
238.562	7.51
238.779	68.95
238.996	-53.93
239.214	36.18
239.431	64.85
239.648	38.23
239.865	1.37
240.083	32.08
240.3	1.37
240.517	56.66
240.735	-8.87
240.952	46.42
241.169	25.94
241.386	32.08
241.603	32.08
241.821	-15.02
242.038	54.61
242.255	23.89
242.472	-23.21
242.689	44.37
242.907	11.61
243.124	42.32
243.341	48.47
243.558	-8.87
243.775	68.95
243.992	-0.68
244.209	7.51
244.426	114
244.643	50.52
244.86	-17.07
245.078	17.75
245.295	9.56
245.512	97.62
245.729	-15.02
245.946	60.76
246.163	68.95
246.38	52.56
246.597	-17.07
246.814	-23.21
247.031	-12.97
247.248	64.85
247.464	-6.83
247.681	101.72
247.898	21.85
248.115	52.56
248.332	56.66
248.549	71
248.766	101.72
248.983	116.05
249.2	44.37
249.417	1.37
249.633	-49.83
249.85	-25.26
250.067	-31.4
250.284	-8.87
250.501	-4.78
250.717	52.56
250.934	48.47
251.151	11.61
251.368	71
251.585	77.14
251.801	19.8
252.018	-23.21
252.235	66.9
252.451	19.8
252.668	-6.83
252.885	-0.68
253.102	-15.02
253.318	44.37
253.535	40.28
253.752	105.81
253.968	48.47
254.185	36.18
254.401	11.61
254.618	11.61
254.835	-8.87
255.051	48.47
255.268	62.8
255.484	89.43
255.701	-51.88
255.917	44.37
256.134	-17.07
256.351	34.13
256.567	-2.73
256.784	23.89
257	38.23
257.217	97.62
257.433	25.94
257.65	62.8
257.866	56.66
258.082	-8.87
258.299	-15.02
258.515	52.56
258.732	32.08
258.948	-15.02
259.165	19.8
259.381	1.37
259.597	-8.87
259.814	83.28
260.03	-74.41
260.246	-0.68
260.463	-0.68
260.679	93.52
260.895	44.37
261.112	81.24
261.328	1.37
261.544	-23.21
261.761	81.24
261.977	23.89
262.193	-29.35
262.409	89.43
262.626	58.71
262.842	64.85
263.058	66.9
263.274	83.28
263.49	40.28
263.707	17.75
263.923	-39.59
264.139	7.51
264.355	48.47
264.571	118.1
264.787	40.28
265.004	19.8
265.22	105.81
265.436	-37.55
265.652	7.51
265.868	3.41
266.084	85.33
266.3	23.89
266.516	32.08
266.732	3.41
266.948	-2.73
267.164	36.18
267.38	91.48
267.596	36.18
267.812	146.77
268.028	109.91
268.244	-17.07
268.46	21.85
268.676	27.99
268.892	-6.83
269.108	32.08
269.324	1.37
269.54	-68.27
269.756	48.47
269.972	42.32
270.188	40.28
270.403	38.23
270.619	23.89
270.835	56.66
271.051	-0.68
271.267	-23.21
271.483	19.8
271.698	9.56
271.914	91.48
272.13	48.47
272.346	46.42
272.562	3.41
272.777	91.48
272.993	25.94
273.209	-64.17
273.425	56.66
273.64	32.08
273.856	95.57
274.072	17.75
274.287	75.09
274.503	105.81
274.719	68.95
274.934	64.85
275.15	-17.07
275.366	-80.55
275.581	-6.83
275.797	52.56
276.012	75.09
276.228	34.13
276.444	42.32
276.659	44.37
276.875	11.61
277.09	7.51
277.306	-29.35
277.521	32.08
277.737	9.56
277.952	89.43
278.168	1.37
278.383	9.56
278.599	-23.21
278.814	75.09
279.03	52.56
279.245	73.04
279.461	-0.68
279.676	23.89
279.892	7.51
280.107	-31.4
280.322	-33.45
280.538	25.94
280.753	58.71
280.969	48.47
281.184	50.52
281.399	34.13
281.615	15.7
281.83	48.47
282.045	-53.93
282.26	-37.55
282.476	52.56
282.691	27.99
282.906	11.61
283.122	-8.87
283.337	17.75
283.552	25.94
283.767	-55.98
283.983	73.04
284.198	-60.07
284.413	75.09
284.628	1.37
284.843	7.51
285.058	68.95
285.274	-8.87
285.489	-12.97
285.704	73.04
285.919	15.7
286.134	71
286.349	91.48
286.564	-45.74
286.779	23.89
286.995	-39.59
287.21	-15.02
287.425	3.41
287.64	27.99
287.855	-6.83
288.07	-21.16
288.285	107.86
288.5	40.28
288.715	5.46
288.93	23.89
289.145	-31.4
289.36	27.99
289.575	64.85
289.79	3.41
290.004	19.8
290.219	-0.68
290.434	38.23
290.649	36.18
290.864	7.51
291.079	21.85
291.294	46.42
291.509	44.37
291.724	7.51
291.938	48.47
292.153	19.8
292.368	11.61
292.583	81.24
292.798	-12.97
293.012	58.71
293.227	23.89
293.442	89.43
293.657	19.8
293.871	77.14
294.086	3.41
294.301	138.58
294.516	9.56
294.73	19.8
294.945	11.61
295.16	-58.03
295.374	56.66
295.589	42.32
295.804	-17.07
296.018	42.32
296.233	40.28
296.447	58.71
296.662	-17.07
296.877	66.9
297.091	58.71
297.306	-8.87
297.52	-0.68
297.735	9.56
297.949	23.89
298.164	-0.68
298.378	64.85
298.593	48.47
298.807	9.56
299.022	38.23
299.236	1.37
299.451	19.8
299.665	50.52
299.88	73.04
300.094	17.75
300.309	-8.87
300.523	64.85
300.737	9.56
300.952	32.08
301.166	-19.11
301.381	40.28
301.595	7.51
301.809	30.04
302.024	17.75
302.238	32.08
302.452	56.66
302.667	-39.59
302.881	42.32
303.095	163.15
303.309	44.37
303.524	66.9
303.738	-12.97
303.952	-0.68
304.166	36.18
304.381	32.08
304.595	114
304.809	87.38
305.023	-0.68
305.237	75.09
305.452	91.48
305.666	89.43
305.88	40.28
306.094	-19.11
306.308	21.85
306.522	17.75
306.736	30.04
306.95	58.71
307.164	-45.74
307.379	-17.07
307.593	75.09
307.807	114
308.021	36.18
308.235	77.14
308.449	7.51
308.663	21.85
308.877	3.41
309.091	79.19
309.305	38.23
309.519	17.75
309.733	89.43
309.947	13.65
310.161	25.94
310.374	13.65
310.588	91.48
310.802	-0.68
311.016	-6.83
311.23	34.13
311.444	54.61
311.658	23.89
311.872	73.04
312.085	27.99
312.299	50.52
312.513	32.08
312.727	-12.97
312.941	-55.98
313.154	-53.93
313.368	7.51
313.582	58.71
313.796	81.24
314.009	17.75
314.223	114
314.437	75.09
314.651	-35.5
314.864	48.47
315.078	1.37
315.292	-2.73
315.505	56.66
315.719	89.43
315.933	44.37
316.146	52.56
316.36	-60.07
316.573	71
316.787	23.89
317.001	32.08
317.214	21.85
317.428	89.43
317.641	71
317.855	23.89
318.068	-62.12
318.282	-8.87
318.495	40.28
318.709	32.08
318.922	-6.83
319.136	66.9
319.349	36.18
319.563	40.28
319.776	83.28
319.99	-37.55
320.203	64.85
320.417	89.43
320.63	44.37
320.843	23.89
321.057	58.71
321.27	5.46
321.483	40.28
321.697	58.71
321.91	7.51
322.124	9.56
322.337	-29.35
322.55	-4.78
322.763	15.7
322.977	-6.83
323.19	27.99
323.403	75.09
323.617	85.33
323.83	27.99
324.043	19.8
324.256	46.42
324.469	27.99
324.683	23.89
324.896	71
325.109	68.95
325.322	-4.78
325.535	40.28
325.748	52.56
325.962	40.28
326.175	56.66
326.388	50.52
326.601	56.66
326.814	25.94
327.027	36.18
327.24	64.85
327.453	17.75
327.666	85.33
327.879	7.51
328.092	107.86
328.305	68.95
328.518	34.13
328.731	40.28
328.944	68.95
329.157	62.8
329.37	48.47
329.583	64.85
329.796	150.87
330.009	13.65
330.222	27.99
330.435	64.85
330.648	85.33
330.861	81.24
331.073	83.28
331.286	56.66
331.499	21.85
331.712	-53.93
331.925	48.47
332.138	32.08
332.35	64.85
332.563	34.13
332.776	40.28
332.989	97.62
333.202	60.76
333.414	-31.4
333.627	77.14
333.84	23.89
334.053	52.56
334.265	56.66
334.478	60.76
334.691	38.23
334.903	87.38
335.116	-17.07
335.329	-12.97
335.541	-2.73
335.754	107.86
335.966	64.85
336.179	40.28
336.392	44.37
336.604	23.89
336.817	54.61
337.029	66.9
337.242	48.47
337.454	58.71
337.667	87.38
337.88	7.51
338.092	-4.78
338.305	15.7
338.517	56.66
338.729	15.7
338.942	27.99
339.154	-17.07
339.367	-39.59
339.579	62.8
339.792	19.8
340.004	15.7
340.217	-10.92
340.429	50.52
340.641	23.89
340.854	-0.68
341.066	23.89
341.278	-8.87
341.491	7.51
341.703	42.32
341.915	-19.11
342.128	27.99
342.34	44.37
342.552	-0.68
342.764	-17.07
342.977	46.42
343.189	44.37
343.401	81.24
343.613	-6.83
343.826	-12.97
344.038	38.23
344.25	116.05
344.462	56.66
344.674	64.85
344.886	124.24
345.099	66.9
345.311	19.8
345.523	124.24
345.735	-17.07
345.947	27.99
346.159	-19.11
346.371	-0.68
346.583	-6.83
346.795	130.39
347.007	36.18
347.219	32.08
347.431	-2.73
347.643	68.95
347.855	17.75
348.067	75.09
348.279	44.37
348.491	-6.83
348.703	9.56
348.915	77.14
349.127	77.14
349.339	91.48
349.551	-49.83
349.763	75.09
349.975	-15.02
350.187	66.9
350.399	97.62
350.61	40.28
350.822	-49.83
351.034	52.56
351.246	68.95
351.458	130.39
351.669	81.24
351.881	54.61
352.093	91.48
352.305	66.9
352.517	58.71
352.728	25.94
352.94	27.99
353.152	17.75
353.363	3.41
353.575	15.7
353.787	64.85
353.999	56.66
354.21	15.7
354.422	11.61
354.633	-17.07
354.845	73.04
355.057	-39.59
355.268	-25.26
355.48	-0.68
355.692	44.37
355.903	17.75
356.115	9.56
356.326	-29.35
356.538	42.32
356.749	13.65
356.961	48.47
357.172	-0.68
357.384	48.47
357.595	85.33
357.807	42.32
358.018	15.7
358.23	111.96
358.441	89.43
358.653	38.23
358.864	15.7
359.075	56.66
359.287	17.75
359.498	97.62
359.709	34.13
359.921	21.85
360.132	7.51
360.344	-8.87
360.555	54.61
360.766	36.18
360.977	107.86
361.189	58.71
361.4	-23.21
361.611	93.52
361.823	40.28
362.034	42.32
362.245	-33.45
362.456	52.56
362.667	93.52
362.879	1.37
363.09	17.75
363.301	79.19
363.512	44.37
363.723	36.18
363.935	15.7
364.146	17.75
364.357	40.28
364.568	134.48
364.779	-29.35
364.99	23.89
365.201	7.51
365.412	68.95
365.623	-6.83
365.834	64.85
366.045	120.15
366.256	19.8
366.467	46.42
366.678	42.32
366.889	68.95
367.1	1.37
367.311	40.28
367.522	38.23
367.733	87.38
367.944	73.04
368.155	1.37
368.366	-15.02
368.577	93.52
368.788	42.32
368.999	101.72
369.209	-2.73
369.42	146.77
369.631	130.39
369.842	9.56
370.053	107.86
370.264	97.62
370.474	54.61
370.685	60.76
370.896	-4.78
371.107	85.33
371.317	56.66
371.528	-12.97
371.739	77.14
371.95	25.94
372.16	19.8
372.371	89.43
372.582	52.56
372.792	73.04
373.003	42.32
373.214	64.85
373.424	64.85
373.635	25.94
373.846	138.58
374.056	44.37
374.267	-4.78
374.477	32.08
374.688	60.76
374.898	126.29
375.109	89.43
375.319	56.66
375.53	87.38
375.74	89.43
375.951	-19.11
376.161	-23.21
376.372	36.18
376.582	-39.59
376.793	-12.97
377.003	1.37
377.214	44.37
377.424	97.62
377.635	68.95
377.845	-15.02
378.055	42.32
378.266	44.37
378.476	75.09
378.686	52.56
378.897	32.08
379.107	56.66
379.317	81.24
379.528	15.7
379.738	25.94
379.948	-6.83
380.158	15.7
380.369	32.08
380.579	83.28
380.789	40.28
380.999	89.43
381.21	83.28
381.42	97.62
381.63	50.52
381.84	-19.11
382.05	52.56
382.261	32.08
382.471	27.99
382.681	42.32
382.891	75.09
383.101	56.66
383.311	-39.59
383.521	52.56
383.731	109.91
383.941	40.28
384.151	68.95
384.361	99.67
384.571	50.52
384.781	-21.16
384.991	101.72
385.201	27.99
385.411	56.66
385.621	81.24
385.831	85.33
386.041	50.52
386.251	40.28
386.461	97.62
386.671	32.08
386.881	77.14
387.091	48.47
387.301	34.13
387.511	50.52
387.72	56.66
387.93	62.8
388.14	89.43
388.35	34.13
388.56	79.19
388.769	19.8
388.979	-0.68
389.189	-29.35
389.399	7.51
389.609	85.33
389.818	68.95
390.028	54.61
390.238	81.24
390.447	42.32
390.657	40.28
390.867	15.7
391.076	36.18
391.286	-4.78
391.496	66.9
391.705	52.56
391.915	46.42
392.125	89.43
392.334	40.28
392.544	140.63
392.753	56.66
392.963	7.51
393.172	68.95
393.382	21.85
393.591	91.48
393.801	-0.68
394.01	83.28
394.22	81.24
394.429	52.56
394.639	130.39
394.848	77.14
395.058	146.77
395.267	64.85
395.477	40.28
395.686	64.85
395.895	64.85
396.105	114
396.314	101.72
396.524	56.66
396.733	34.13
396.942	107.86
397.152	126.29
397.361	122.2
397.57	89.43
397.78	89.43
397.989	77.14
398.198	128.34
398.407	15.7
398.617	130.39
398.826	138.58
399.035	32.08
399.244	111.96
399.453	109.91
399.663	114
399.872	68.95
400.081	11.61
400.29	157.01
400.499	60.76
400.708	124.24
400.917	36.18
401.127	73.04
401.336	81.24
401.545	107.86
401.754	87.38
401.963	75.09
402.172	-8.87
402.381	15.7
402.59	101.72
402.799	124.24
403.008	91.48
403.217	101.72
403.426	118.1
403.635	130.39
403.844	99.67
404.053	122.2
404.262	44.37
404.471	122.2
404.68	126.29
404.888	105.81
405.097	181.59
405.306	136.53
405.515	79.19
405.724	228.69
405.933	171.35
406.142	189.78
406.35	177.49
406.559	157.01
406.768	146.77
406.977	105.81
407.185	200.02
407.394	187.73
407.603	171.35
407.812	167.25
408.02	267.6
408.229	216.4
408.438	214.35
408.646	214.35
408.855	140.63
409.064	226.64
409.272	195.92
409.481	240.98
409.69	179.54
409.898	281.94
410.107	204.11
410.315	329.04
410.524	265.55
410.733	281.94
410.941	191.83
411.15	257.36
411.358	277.84
411.567	386.38
411.775	314.7
411.984	347.47
412.192	361.81
412.401	277.84
412.609	380.24
412.818	431.44
413.026	380.24
413.234	433.49
413.443	490.83
413.651	466.25
413.86	380.24
414.068	515.41
414.276	554.32
414.485	408.91
414.693	556.36
414.901	634.19
415.11	533.84
415.318	599.37
415.526	654.67
415.734	597.32
415.943	621.9
416.151	630.09
416.359	658.76
416.567	699.72
416.776	761.16
416.984	822.6
417.192	769.35
417.4	810.31
417.608	777.55
417.817	810.31
418.025	918.86
418.233	957.77
418.441	961.86
418.649	976.2
418.857	959.81
419.065	1047.88
419.273	1047.88
419.481	1154.37
419.689	1131.84
419.897	1275.2
420.105	1215.81
420.313	1334.59
420.521	1375.55
420.729	1439.04
420.937	1404.22
421.145	1428.8
421.353	1512.77
421.561	1559.87
421.769	1613.12
421.977	1613.12
422.185	1617.21
422.393	1746.23
422.601	1875.26
422.809	1752.38
423.017	1883.45
423.224	1985.85
423.432	2016.57
423.64	1926.46
423.848	2204.98
424.056	2075.96
424.263	2268.47
424.471	2317.62
424.679	2448.69
424.887	2426.16
425.094	2579.76
425.302	2645.29
425.51	2657.58
425.718	2721.07
425.925	2874.67
426.133	2909.48
426.341	3099.94
426.548	3122.47
426.756	3071.27
426.964	3118.37
427.171	3362.08
427.379	3570.97
427.586	3542.3
427.794	3695.9
428.001	3767.58
428.209	4029.72
428.417	3999
428.624	4103.45
428.832	4066.58
429.039	4146.45
429.247	4160.79
429.454	4685.07
429.662	4836.62
429.869	4441.36
430.076	4826.38
430.284	4754.7
430.491	4910.35
430.699	5301.51
430.906	5242.12
431.114	5221.64
431.321	5405.95
431.528	5664
431.736	6020.35
431.943	6135.03
432.15	5971.19
432.358	6122.74
432.565	6409.46
432.772	6356.21
432.979	6714.61
433.187	6733.04
433.394	6804.72
433.601	7406.82
433.808	7347.43
434.016	7462.12
434.223	7494.88
434.43	8215.77
434.637	7990.49
434.844	8183
435.052	8459.48
435.259	8518.87
435.466	8512.72
435.673	8301.78
435.88	9010.38
436.087	9456.84
436.294	9458.89
436.501	9243.85
436.708	9362.63
436.915	9983.17
437.122	10222.78
437.329	10235.07
437.537	10534.07
437.743	10658.99
437.95	10499.25
438.157	11132.08
438.364	11695.27
438.571	11449.51
438.778	11541.67
438.985	12776.59
439.192	12117.15
439.399	12438.68
439.606	12104.86
439.813	12948.62
440.02	13804.67
440.227	13409.42
440.433	13212.81
440.64	13847.68
440.847	13831.3
441.054	13915.26
441.261	14820.47
441.467	14761.08
441.674	14967.92
441.881	15641.7
442.088	15545.45
442.294	15623.27
442.501	15658.09
442.708	16024.67
442.914	16979.03
443.121	17488.97
443.328	16819.28
443.534	18158.66
443.741	17542.22
443.948	17286.22
444.154	18623.55
444.361	18740.28
444.568	18992.18
444.774	18793.53
444.981	18844.73
445.187	19362.86
445.394	20491.29
445.6	20044.84
445.807	21883.91
446.013	20925.46
446.22	21279.76
446.426	22072.32
446.633	22406.14
446.839	23436.27
447.046	22354.94
447.252	23493.61
447.459	23364.59
447.665	23466.99
447.871	24339.43
448.078	25549.78
448.284	24208.36
448.491	24875.99
448.697	26287.04
448.903	26375.11
449.11	26065.86
449.316	25963.47
449.522	26303.43
449.728	27202.49
449.935	27431.86
450.141	27476.91
450.347	27988.91
450.553	27325.36
450.76	27442.1
450.966	28828.57
451.172	28400.55
451.378	29121.43
451.584	28386.21
451.791	29072.28
451.997	28961.69
452.203	29371.29
452.409	29541.27
452.615	29285.27
452.821	28318.63
453.027	27931.56
453.233	29391.76
453.44	28144.55
453.646	28435.36
453.852	28711.84
454.058	29197.21
454.264	28279.72
454.47	29082.52
454.676	28271.53
454.882	29092.76
455.088	26796.99
455.294	27089.85
455.5	27603.89
455.705	27796.4
455.911	26854.33
456.117	25961.42
456.323	25854.92
456.529	24714.2
456.735	25799.63
456.941	24902.62
457.147	24515.55
457.352	23952.36
457.558	23542.77
457.764	23794.67
457.97	23348.21
458.176	22854.65
458.381	22883.32
458.587	21752.84
458.793	21629.96
458.999	20710.43
459.204	22273.03
459.41	21478.41
459.616	20194.34
459.821	20169.76
460.027	20061.22
460.233	19831.85
460.438	18719.8
460.644	18922.55
460.85	17960
461.055	17810.5
461.261	17853.51
461.466	16481.37
461.672	15965.28
461.878	16946.26
462.083	16079.97
462.289	15580.26
462.494	15416.43
462.7	14660.73
462.905	14161.02
463.111	14916.72
463.316	14808.18
463.522	14525.56
463.727	14785.65
463.932	14660.73
464.138	14546.04
464.343	14621.81
464.549	14220.41
464.754	14597.24
464.959	14417.02
465.165	14079.1
465.37	13487.24
465.575	13382.79
465.781	13864.07
465.986	13909.12
466.191	13515.91
466.397	13214.86
466.602	12573.85
466.807	13057.17
467.012	12903.57
467.218	12936.34
467.423	12766.35
467.628	12887.18
467.833	13372.55
468.038	13024.4
468.244	12666
468.449	12956.82
468.654	12532.89
468.859	12592.28
469.064	12512.41
469.269	11934.88
469.474	12008.61
469.679	12262.55
469.885	12055.71
470.09	12221.59
470.295	12223.64
470.5	11809.95
470.705	11947.17
470.91	11517.09
471.115	11513
471.32	11781.28
471.525	11621.54
471.73	11465.89
471.935	11386.02
472.139	11093.16
472.344	11148.46
472.549	10865.84
472.754	10792.11
472.959	10593.46
473.164	10374.33
473.369	10216.63
473.574	10599.6
473.778	10585.27
473.983	10345.66
474.188	10349.75
474.393	10173.63
474.598	10050.75
474.802	10009.79
475.007	9747.65
475.212	9985.21
475.417	9407.69
475.621	9493.7
475.826	9600.19
476.031	9243.85
476.235	9227.46
476.44	9467.08
476.645	9063.63
476.849	9063.63
477.054	8948.94
477.259	8633.55
477.463	8789.2
477.668	8633.55
477.872	8750.29
478.077	8502.48
478.282	8258.78
478.486	8297.69
478.691	8416.47
478.895	8099.03
479.1	8101.08
479.304	8217.82
479.509	7998.68
479.713	8092.89
479.918	7947.48
480.122	7912.67
480.326	8090.84
480.531	7892.19
480.735	7953.63
480.94	7822.56
481.144	8131.8
481.348	7679.2
481.553	7822.56
481.757	7447.78
481.961	7679.2
482.166	7662.82
482.37	7726.3
482.574	7562.47
482.778	7554.27
482.983	7732.45
483.187	7584.99
483.391	7767.26
483.595	7363.81
483.8	7603.43
484.004	7519.46
484.208	7628
484.412	7691.49
484.616	7458.02
484.821	7490.79
485.025	7482.6
485.229	7576.8
485.433	7447.78
485.637	7628
485.841	7546.08
486.045	7724.26
486.249	7648.48
486.453	7435.49
486.657	7560.42
486.861	7466.21
487.065	7224.55
487.269	7578.85
487.473	7410.92
487.677	7374.05
487.881	7644.38
488.085	7681.25
488.289	7634.14
488.493	7679.2
488.697	7525.6
488.901	7584.99
489.105	7666.91
489.309	7738.59
489.512	7578.85
489.716	7509.22
489.92	7748.83
490.124	7638.24
490.328	7838.94
490.531	7748.83
490.735	7724.26
490.939	7806.17
491.143	7683.3
491.346	7707.87
491.55	7785.69
491.754	7797.98
491.958	7970.01
492.161	7832.8
492.365	8015.07
492.569	8017.11
492.772	7961.82
492.976	7906.52
493.18	8183
493.383	8266.97
493.587	8260.82
493.79	8105.18
493.994	8051.93
494.197	8408.28
494.401	8383.7
494.605	8400.09
494.808	8500.44
495.012	8608.98
495.215	8606.93
495.419	8828.11
495.622	8611.03
495.825	8682.7
496.029	8791.25
496.232	8830.16
496.436	8883.41
496.639	9166.03
496.843	8998.09
497.046	9333.96
497.249	9305.29
497.453	9434.31
497.656	9559.24
497.859	9612.48
498.063	9669.83
498.266	9757.89
498.469	9731.26
498.673	9731.26
498.876	10011.84
499.079	10173.63
499.282	9999.55
499.485	10345.66
499.689	10484.92
499.892	10710.19
500.095	10605.75
500.298	10847.41
500.501	10890.42
500.705	11037.87
500.908	11148.46
501.111	11199.66
501.314	11400.36
501.517	11345.06
501.72	11703.46
501.923	11619.49
502.126	11826.34
502.329	12250.27
502.532	11971.74
502.735	12248.22
502.938	12321.95
503.141	12352.66
503.344	12878.99
503.547	12618.9
503.75	12784.79
503.953	13028.49
504.156	13163.66
504.359	13372.55
504.562	13345.93
504.765	13536.39
504.968	13866.11
505.17	14105.73
505.373	13823.11
505.576	14187.64
505.779	14339.19
505.982	14609.53
506.185	14691.45
506.387	14908.53
506.59	14957.68
506.793	15092.85
506.996	15148.14
507.198	15572.07
507.401	15451.24
507.604	15918.18
507.807	15944.8
508.009	16192.61
508.212	16157.79
508.415	16477.27
508.617	16567.38
508.82	16813.14
509.022	16514.14
509.225	17005.65
509.428	17097.81
509.63	17431.63
509.833	17388.62
510.035	17857.6
510.238	17611.85
510.44	17904.71
510.643	18021.44
510.845	18269.25
511.048	18609.21
511.25	18619.45
511.453	18963.51
511.655	19272.75
511.858	19217.46
512.06	19289.13
512.262	19729.45
512.465	19864.61
512.667	19807.27
512.87	20290.59
513.072	20319.26
513.274	20691.99
513.477	20730.9
513.679	21072.92
513.881	21285.9
514.084	21541.9
514.286	21419.02
514.488	21357.58
514.69	22043.65
514.893	22129.67
515.095	22119.43
515.297	22666.24
515.499	22580.22
515.701	22957.05
515.904	22995.96
516.106	23282.67
516.308	23481.33
516.51	23663.6
516.712	23921.64
516.914	23960.55
517.116	24579.04
517.318	24566.75
517.52	24603.61
517.722	24943.58
517.925	25357.27
518.127	25557.97
518.329	25459.66
518.531	25541.58
518.733	25961.42
518.935	25668.56
519.136	26207.17
519.338	26715.07
519.54	26516.42
519.742	26688.45
519.944	27095.99
520.146	27853.74
520.348	27569.07
520.55	27634.61
520.752	27974.57
520.954	28427.17
521.155	28148.65
521.357	28670.88
521.559	28744.61
521.761	29189.02
521.963	29127.58
522.164	29395.86
522.366	29502.36
522.568	29791.12
522.77	29741.97
522.971	30493.57
523.173	29754.26
523.375	30268.3
523.576	30307.21
523.778	30591.87
523.98	31071.1
524.181	31001.47
524.383	31347.58
524.584	31462.26
524.786	31507.32
524.988	31196.03
525.189	32041.84
525.391	32418.66
525.592	32332.65
525.794	32332.65
525.995	32314.22
526.197	32502.63
526.398	32588.64
526.6	32668.51
526.801	32772.96
527.003	33147.74
527.204	33069.92
527.406	33452.89
527.607	33598.29
527.808	33291.1
528.01	33028.96
528.211	33250.14
528.412	34052.94
528.614	33958.74
528.815	33897.3
529.016	34247.5
529.218	34073.42
529.419	34214.73
529.62	34284.36
529.822	34014.03
530.023	34544.45
530.224	34835.27
530.425	34089.81
530.626	33954.64
530.828	34329.42
531.029	34921.28
531.23	34761.54
531.431	34702.15
531.632	34718.53
531.833	34777.92
532.035	34997.06
532.236	34923.33
532.437	34968.38
532.638	34751.3
532.839	35179.32
533.04	35365.69
533.241	34986.82
533.442	35439.42
533.643	35218.24
533.844	35244.86
534.045	35216.19
534.246	35156.8
534.447	35091.26
534.648	34949.95
534.849	35099.45
535.05	35003.2
535.251	35085.12
535.451	35017.54
535.652	35154.75
535.853	35263.29
536.054	35410.75
536.255	35576.63
536.456	35027.77
536.657	35521.34
536.857	35113.79
537.058	34943.81
537.259	35121.98
537.46	35543.86
537.66	35244.86
537.861	35058.49
538.062	34960.19
538.263	35121.98
538.463	34927.42
538.664	34988.86
538.865	35578.68
539.065	35218.24
539.266	34597.7
539.466	35447.61
539.667	35025.73
539.868	35625.78
540.068	35212.09
540.269	35121.98
540.469	35111.74
540.67	35072.83
540.87	35277.63
541.071	35214.14
541.271	34937.66
541.472	35111.74
541.672	34894.66
541.873	35164.99
542.073	35038.01
542.274	35320.63
542.474	34718.53
542.675	34759.49
542.875	35251
543.075	35054.4
543.276	34452.3
543.476	35177.28
543.676	34712.39
543.877	35058.49
544.077	34859.84
544.277	35146.56
544.478	35017.54
544.678	35208
544.878	34831.17
545.078	34825.03
545.279	34616.13
545.479	35048.25
545.679	34724.68
545.879	34763.59
546.079	34722.63
546.28	35042.11
546.48	34353.99
546.68	34822.98
546.88	35187.52
547.08	34872.13
547.28	34650.95
547.48	34472.78
547.68	35126.08
547.88	34745.16
548.081	35068.73
548.281	34747.2
548.481	34456.39
548.681	35015.49
548.881	34673.48
549.081	34917.18
549.28	34646.85
549.48	35035.97
549.68	34671.43
549.88	34841.41
550.08	34325.32
550.28	34710.34
550.48	34706.24
550.68	34732.87
550.88	34308.94
551.08	34827.07
551.279	34636.61
551.479	34523.97
551.679	34644.8
551.879	34335.56
552.079	34646.85
552.278	34505.54
552.478	34124.62
552.678	34540.36
552.878	34591.56
553.077	34394.95
553.277	34241.35
553.477	34753.35
553.676	33936.21
553.876	34427.72
554.076	34188.11
554.275	34048.85
554.475	34065.23
554.674	34468.68
554.874	33975.12
555.074	34143.05
555.273	34394.95
555.473	34411.34
555.672	34267.98
555.872	34284.36
556.071	34071.37
556.271	34237.26
556.47	33944.4
556.67	33631.06
556.869	34038.61
557.068	33964.88
557.268	33842
557.467	34100.04
557.667	33866.58
557.866	33815.38
558.065	33573.72
558.265	33577.81
558.464	33153.88
558.663	33725.27
558.863	33022.81
559.062	33538.9
559.261	33307.48
559.461	33622.87
559.66	33254.23
559.859	33231.71
560.058	32795.49
560.258	33059.68
560.457	32985.95
560.656	32838.5
560.855	32883.55
561.054	33377.11
561.253	33090.4
561.453	33174.36
561.652	33104.73
561.851	32871.26
562.05	32615.27
562.249	32764.77
562.448	33022.81
562.647	32398.18
562.846	32445.29
563.045	32410.47
563.244	32117.61
563.443	32865.12
563.642	32160.62
563.841	32416.61
564.04	32326.5
564.239	32033.64
564.438	31931.25
564.637	31966.06
564.836	32269.16
565.035	31847.28
565.234	32113.52
565.432	31955.82
565.631	31650.67
565.83	32281.45
566.029	31611.76
566.228	31435.64
566.427	31540.08
566.625	31251.32
566.824	31069.05
567.023	31562.61
567.222	30714.75
567.42	31435.64
567.619	31159.16
567.818	31064.96
568.016	30679.94
568.215	31089.53
568.414	30958.46
568.612	31089.53
568.811	30587.78
569.01	31095.67
569.208	30503.81
569.407	30841.73
569.605	30210.95
569.804	30460.8
570.002	30157.71
570.201	30479.24
570.4	30319.49
570.598	30163.85
570.797	29954.96
570.995	30110.6
571.193	29979.53
571.392	30153.61
571.59	29768.59
571.789	29584.27
571.987	29610.9
572.186	29352.85
572.384	29272.98
572.582	29762.45
572.781	29639.57
572.979	29133.72
573.177	29342.61
573.376	29705.1
573.574	29264.79
573.772	29445.01
573.971	28910.49
574.169	28640.16
574.367	28910.49
574.565	29127.58
574.763	28674.98
574.962	28529.57
575.16	28128.17
575.358	28222.37
575.556	28289.96
575.754	28560.29
575.952	27876.27
576.151	28304.29
576.349	28040.11
576.547	28412.84
576.745	28040.11
576.943	28122.02
577.141	28111.78
577.339	27718.57
577.537	27954.09
577.735	27732.91
577.933	27739.05
578.131	27546.54
578.329	27607.98
578.527	27356.08
578.725	27612.08
578.923	27521.97
579.121	27280.31
579.319	27085.75
579.516	27415.47
579.714	27216.82
579.912	26876.86
580.11	26852.28
580.308	27063.22
580.506	26753.98
580.704	26645.44
580.901	26471.36
581.099	26891.19
581.297	25940.94
581.495	26354.63
581.692	26631.1
581.89	26016.71
582.088	26477.51
582.285	26192.84
582.483	26147.78
582.681	26260.42
582.878	25840.59
583.076	25541.58
583.274	25959.37
583.471	25789.39
583.669	25770.96
583.866	25482.19
584.064	25443.28
584.262	25093.08
584.459	25793.48
584.657	25525.2
584.854	25586.64
585.052	24929.24
585.249	24855.51
585.447	25359.31
585.644	24695.77
585.841	24890.33
586.039	25359.31
586.236	24622.05
586.434	24458.21
586.631	24421.34
586.828	24345.57
587.026	24749.02
587.223	24394.72
587.42	24159.2
587.618	24148.96
587.815	24069.09
588.012	24194.02
588.21	24120.29
588.407	24065
588.604	23946.22
588.801	24040.42
588.999	23874.54
589.196	23432.18
589.393	23716.84
589.59	23788.52
589.787	23399.41
589.984	23632.88
590.182	23673.84
590.379	23510
590.576	23243.76
590.773	23213.04
590.97	22948.86
591.167	22981.62
591.364	22858.74
591.561	22774.78
591.758	22793.21
591.955	22389.76
592.152	22993.91
592.349	22539.26
592.546	23010.29
592.743	22633.47
592.94	22330.37
593.137	22453.25
593.334	22637.56
593.531	22287.36
593.727	22154.24
593.924	22182.91
594.121	21896.2
594.318	22168.58
594.515	21625.87
594.712	21943.3
594.908	21785.61
595.105	21863.43
595.302	21728.27
595.499	21814.28
595.696	21789.7
595.892	21535.76
596.089	21478.41
596.286	21634.06
596.482	21326.86
596.679	21373.97
596.876	21302.29
597.072	21107.73
597.269	21120.02
597.466	20802.58
597.662	20919.32
597.859	20800.54
598.055	20904.98
598.252	20870.17
598.448	20718.62
598.645	20603.93
598.841	20255.78
599.038	20714.52
599.234	20657.18
599.431	20386.85
599.627	20171.81
599.824	20534.3
600.02	20392.99
600.217	20020.26
600.413	20106.27
600.609	20216.86
600.806	19930.15
601.002	19784.74
601.198	19766.31
601.395	19471.4
601.591	19698.73
601.787	19948.58
601.984	19575.85
602.18	19715.11
602.376	19377.2
602.572	19530.8
602.769	19391.53
602.965	19153.97
603.161	19221.55
603.357	19299.37
603.553	18963.51
603.75	18977.84
603.946	18807.86
604.142	19121.2
604.338	18742.33
604.534	19055.67
604.73	18660.41
604.926	18869.3
605.122	18875.45
605.318	18572.35
605.514	18545.72
605.71	18498.62
605.906	18299.97
606.102	18351.17
606.298	18385.98
606.494	18586.68
606.69	18404.41
606.886	18089.03
607.082	18199.62
607.278	18259.01
607.474	18007.11
607.67	18115.65
607.866	17906.76
608.062	17986.63
608.257	17876.04
608.453	17720.39
608.649	18050.11
608.845	17964.1
609.041	17757.25
609.236	17910.85
609.432	17677.38
609.628	17951.81
609.824	17796.17
610.019	17687.62
610.215	17431.63
610.411	17867.84
610.606	17345.61
610.802	17345.61
610.998	17243.21
611.193	17382.48
611.389	17380.43
611.584	17282.13
611.78	17222.73
611.976	17130.58
612.171	17228.88
612.367	17169.49
612.562	17060.94
612.758	17116.24
612.953	16653.4
613.149	16970.83
613.344	16966.74
613.539	17292.37
613.735	16901.2
613.93	16919.64
614.126	16770.13
614.321	17017.94
614.517	16852.05
614.712	16757.85
614.907	16606.3
615.103	16669.78
615.298	16458.84
615.493	16698.45
615.688	16491.61
615.884	16827.48
616.079	16415.83
616.274	16440.41
616.47	16534.62
616.665	16262.24
616.86	16444.51
617.055	16317.53
617.25	16286.81
617.445	16401.5
617.641	16032.86
617.836	16270.43
618.031	16071.78
618.226	16272.48
618.421	15950.95
618.616	15981.67
618.811	15965.28
619.006	16014.43
619.201	15598.7
619.396	15740.01
619.591	15467.63
619.786	15869.03
619.981	15436.91
620.176	15430.76
620.371	15223.92
620.566	15453.29
620.761	15314.03
620.956	15121.52
621.151	15006.83
621.346	15160.43
621.541	14847.09
621.735	15082.61
621.93	14824.56
622.125	14937.2
622.32	14607.48
622.515	14664.82
622.709	14492.79
622.904	14500.98
623.099	14484.6
623.294	14568.57
623.488	14132.35
623.683	14288
623.878	14038.14
624.072	14130.3
624.267	14001.28
624.462	13835.39
624.656	13870.21
624.851	13806.72
625.046	13700.23
625.24	13454.47
625.435	13583.49
625.629	13388.94
625.824	13503.62
626.018	13292.68
626.213	12930.19
626.407	13313.16
626.602	12866.7
626.796	13048.97
626.991	13028.49
627.185	13077.65
627.38	12936.34
627.574	12960.91
627.768	12680.34
627.963	12496.02
628.157	12321.95
628.352	12688.53
628.546	12455.06
628.74	12381.34
628.935	12336.28
629.129	12287.13
629.323	12246.17
629.517	12151.96
629.712	11965.6
629.906	12061.85
630.1	11963.55
630.294	11916.45
630.489	11945.12
630.683	11846.82
630.877	11510.95
631.071	11353.26
631.265	11490.47
631.459	11412.65
631.653	11390.12
631.848	11345.06
632.042	11316.39
632.236	11222.19
632.43	10976.43
632.624	11426.98
632.818	11123.88
633.012	10849.46
633.206	10871.98
633.4	10972.33
633.594	10683.57
633.788	10804.4
633.982	10759.35
634.176	10714.29
634.369	10640.56
634.563	10618.04
634.757	10552.5
634.951	10536.12
635.145	10323.13
635.339	10753.2
635.533	10200.25
635.726	10212.54
635.92	9958.59
636.114	10288.31
636.308	9993.4
636.501	10009.79
636.695	9886.91
636.889	9723.07
637.083	9739.46
637.276	9723.07
637.47	9641.15
637.664	9632.96
637.857	9622.72
638.051	9684.16
638.244	9635.01
638.438	9456.84
638.632	9641.15
638.825	9313.48
639.019	9159.88
639.212	9401.54
639.406	9252.04
639.599	9405.64
639.793	9141.45
639.986	9125.07
640.18	8971.47
640.373	9049.29
640.567	8932.56
640.76	9002.19
640.954	8912.08
641.147	8793.3
641.34	8764.62
641.534	8856.78
641.727	8635.6
641.92	8496.34
642.114	8547.54
642.307	8488.15
642.5	8445.14
642.694	8400.09
642.887	8312.02
643.08	8418.52
643.273	8266.97
643.467	8293.59
643.66	8273.11
643.853	8070.36
644.046	8244.44
644.239	7994.59
644.432	8049.88
644.626	7992.54
644.819	7929.05
645.012	7800.03
645.205	7886.04
645.398	7826.65
645.591	7757.02
645.784	7617.76
645.977	7619.81
646.17	7662.82
646.363	7628
646.556	7539.94
646.749	7511.27
646.942	7595.23
647.135	7609.57
647.328	7458.02
647.521	7455.97
647.714	7339.24
647.907	7216.36
648.099	7257.32
648.292	7257.32
648.485	7306.47
648.678	6900.97
648.871	7218.41
649.064	6900.97
649.256	6995.18
649.449	7058.67
649.642	6849.77
649.835	6825.2
650.027	6669.55
650.22	6747.37
650.413	6726.89
650.605	6837.48
650.798	6825.2
650.991	6585.58
651.183	6782.19
651.376	6536.43
651.568	6681.84
651.761	6550.77
651.954	6561.01
652.146	6329.59
652.339	6509.81
652.531	6536.43
652.724	6286.58
652.916	6399.22
653.109	6219
653.301	6358.26
653.494	6200.57
653.686	6151.42
653.879	6268.15
654.071	6173.94
654.263	6153.46
654.456	5979.39
654.648	6145.27
654.84	6198.52
655.033	5901.56
655.225	5938.43
655.417	5899.52
655.61	5934.33
655.802	5864.7
655.994	5844.22
656.186	5780.73
656.379	5784.83
656.571	5790.97
656.763	5672.19
656.955	5608.7
657.148	5670.14
657.34	5637.38
657.532	5383.43
657.724	5545.22
657.916	5571.84
658.108	5561.6
658.3	5524.74
658.492	5401.86
658.684	5383.43
658.876	5385.48
659.068	5219.59
659.26	5176.58
659.452	5270.79
659.644	5221.64
659.836	5233.93
660.028	5258.5
660.22	5186.82
660.412	5188.87
660.604	5125.38
660.796	5133.57
660.988	5154.05
661.18	5143.81
661.372	4971.79
661.563	5000.46
661.755	4975.88
661.947	4986.12
662.139	5018.89
662.331	4930.83
662.522	4654.35
662.714	4832.52
662.906	4766.99
663.097	4840.72
663.289	4652.3
663.481	4607.25
663.673	4709.65
663.864	4586.77
664.056	4732.17
664.247	4586.77
664.439	4408.59
664.631	4422.93
664.822	4570.38
665.014	4535.57
665.205	4519.18
665.397	4394.26
665.588	4406.55
665.78	4379.92
665.971	4259.09
666.163	4443.41
666.354	4449.55
666.546	4293.91
666.737	4318.48
666.929	4209.94
667.12	4306.2
667.311	4316.44
667.503	4218.13
667.694	4295.96
667.885	4121.88
668.077	4101.4
668.268	4287.76
668.459	4175.13
668.651	4144.41
668.842	4140.31
669.033	3980.57
669.224	4085.01
669.416	4027.67
669.607	4111.64
669.798	4019.48
669.989	4078.87
670.18	3996.95
670.371	3955.99
670.563	3835.16
670.754	3949.85
670.945	3718.43
671.136	3757.34
671.327	3935.51
671.518	3906.84
671.709	3990.81
671.9	3788.06
672.091	3947.8
672.282	3765.53
672.473	3808.54
672.664	3792.16
672.855	3605.79
673.046	3792.16
673.237	3767.58
673.428	3552.54
673.619	3566.88
673.809	3548.45
674	3786.01
674.191	3675.42
674.382	3646.75
674.573	3513.63
674.764	3347.75
674.954	3575.07
675.145	3407.14
675.336	3558.69
675.527	3595.55
675.717	3499.3
675.908	3472.67
676.099	3509.54
676.289	3616.03
676.48	3509.54
676.671	3407.14
676.861	3403.04
677.052	3392.8
677.243	3220.77
677.433	3403.04
677.624	3360.03
677.814	3417.38
678.005	3425.57
678.195	3384.61
678.386	3341.6
678.576	3343.65
678.767	3179.81
678.957	3384.61
679.148	3339.55
679.338	3321.12
679.529	3210.53
679.719	3228.96
679.909	3269.92
680.1	3251.49
680.29	3300.64
680.481	3095.85
680.671	3222.82
680.861	3263.78
681.052	3112.23
681.242	3204.39
681.432	3325.22
681.622	3149.09
681.813	3142.95
682.003	3155.24
682.193	3081.51
682.383	3171.62
682.573	3122.47
682.764	3083.56
682.954	3130.66
683.144	3126.57
683.334	3071.27
683.524	3013.93
683.714	3069.22
683.904	3104.04
684.094	3112.23
684.284	3101.99
684.474	3018.02
684.664	3087.65
684.854	3067.17
685.044	3079.46
685.234	2925.86
685.424	2886.95
685.614	2948.39
685.804	3007.78
685.994	2817.32
686.184	2993.45
686.374	2911.53
686.564	2858.28
686.753	2925.86
686.943	2778.41
687.133	2901.29
687.323	2800.94
687.513	2948.39
687.702	2770.22
687.892	2956.58
688.082	2882.86
688.272	2909.48
688.461	2714.92
688.651	2704.68
688.841	2772.27
689.03	2759.98
689.22	2780.46
689.41	2768.17
689.599	2762.03
689.789	2731.31
689.979	2669.87
690.168	2719.02
690.358	2645.29
690.547	2653.48
690.737	2579.76
690.926	2624.81
691.116	2653.48
691.305	2645.29
691.495	2549.04
691.684	2495.79
691.874	2460.98
692.063	2555.18
692.252	2604.33
692.442	2506.03
692.631	2522.41
692.82	2501.94
693.01	2532.65
693.199	2516.27
693.388	2475.31
693.578	2434.35
693.767	2426.16
693.956	2481.46
694.146	2391.34
694.335	2465.07
694.524	2417.97
694.713	2458.93
694.902	2456.88
695.092	2276.66
695.281	2370.87
695.47	2422.06
695.659	2252.08
695.848	2272.56
696.037	2311.47
696.226	2262.32
696.415	2311.47
696.604	2288.95
696.793	2313.52
696.982	2231.6
697.171	2366.77
697.36	2325.81
697.549	2172.21
697.738	2268.47
697.927	2319.67
698.116	2358.58
698.305	2235.7
698.494	2286.9
698.683	2229.56
698.872	2268.47
699.061	2194.74
699.25	2219.32
699.438	2348.34
699.627	2137.4
699.816	2233.65
700.005	2293.04
700.193	2198.84
700.382	2184.5
700.571	2211.12
700.76	2129.2
700.948	2098.49
701.137	2260.27
701.326	2198.84
701.514	2082.1
701.703	2231.6
701.892	2235.7
702.08	2372.91
702.269	2196.79
702.457	2204.98
702.646	2268.47
702.834	2325.81
703.023	2082.1
703.212	2104.63
703.4	2016.57
703.589	2063.67
703.777	2143.54
703.965	2123.06
704.154	2112.82
704.342	2204.98
704.531	2164.02
704.719	1967.42
704.907	2176.31
705.096	2112.82
705.284	2090.29
705.472	2055.48
705.661	2133.3
705.849	2055.48
706.037	2080.05
706.226	2035
706.414	2063.67
706.602	2090.29
706.79	2118.97
706.979	2065.72
707.167	2106.68
707.355	2041.14
707.543	2022.71
707.731	2121.01
707.919	2051.38
708.107	2022.71
708.296	2026.81
708.484	2026.81
708.672	2141.49
708.86	2035
709.048	2063.67
709.236	2143.54
709.424	2157.88
709.612	2084.15
709.8	1985.85
709.988	2088.25
710.176	2012.47
710.364	2114.87
710.551	2080.05
710.739	2067.77
710.927	2010.42
711.115	1922.36
711.303	2133.3
711.491	2149.68
711.679	2094.39
711.866	1973.56
712.054	1965.37
712.242	1969.46
712.43	2073.91
712.617	2055.48
712.805	2057.53
712.993	2024.76
713.181	1989.94
713.368	2129.2
713.556	2006.33
713.744	1951.03
713.931	2059.57
714.119	2102.58
714.306	1983.8
714.494	2067.77
714.682	2008.37
714.869	2082.1
715.057	2008.37
715.244	2022.71
715.432	2153.78
715.619	1989.94
715.807	2121.01
715.994	2030.9
716.182	2055.48
716.369	2018.61
716.556	2106.68
716.744	1948.98
716.931	2008.37
717.119	2030.9
717.306	2098.49
717.493	2090.29
717.681	2098.49
717.868	1981.75
718.055	1975.61
718.242	2063.67
718.43	1994.04
718.617	1967.42
718.804	2035
718.991	2035
719.179	2065.72
719.366	2006.33
719.553	1938.74
719.74	1930.55
719.927	1979.7
720.114	1959.22
720.301	2016.57
720.488	1934.65
720.676	1987.89
720.863	2096.44
721.05	2098.49
721.237	2004.28
721.424	2067.77
721.611	2088.25
721.798	1948.98
721.985	1924.41
722.172	1940.79
722.358	1967.42
722.545	2082.1
722.732	2014.52
722.919	2061.62
723.106	1991.99
723.293	2067.77
723.48	2051.38
723.667	2047.29
723.853	1977.66
724.04	2016.57
724.227	1944.89
724.414	1973.56
724.6	1957.18
724.787	1975.61
724.974	2164.02
725.161	1963.32
725.347	1938.74
725.534	1983.8
725.72	2026.81
725.907	2065.72
726.094	2063.67
726.28	2041.14
726.467	2073.91
726.653	2059.57
726.84	2104.63
727.027	1877.3
727.213	1932.6
727.4	2010.42
727.586	2043.19
727.773	2004.28
727.959	1991.99
728.145	1951.03
728.332	2041.14
728.518	2092.34
728.705	2088.25
728.891	2008.37
729.077	2024.76
729.264	1981.75
729.45	2010.42
729.636	2114.87
729.823	2098.49
730.009	2080.05
730.195	1985.85
730.382	2012.47
730.568	2035
730.754	1891.64
730.94	1908.02
731.126	2016.57
731.313	2059.57
731.499	2051.38
731.685	1912.12
731.871	1981.75
732.057	1926.46
732.243	2084.15
732.429	2002.23
732.615	2075.96
732.801	2014.52
732.987	2092.34
733.173	2004.28
733.359	1953.08
733.545	1895.74
733.731	1991.99
733.917	2018.61
734.103	1994.04
734.289	1916.22
734.475	1934.65
734.661	2051.38
734.847	2030.9
735.033	2041.14
735.219	2147.64
735.404	1991.99
735.59	1973.56
735.776	1965.37
735.962	1938.74
736.148	1901.88
736.333	1953.08
736.519	1967.42
736.705	2096.44
736.89	1981.75
737.076	1932.6
737.262	1729.85
737.447	1994.04
737.633	1998.13
737.819	1854.78
738.004	1981.75
738.19	1899.83
738.375	1940.79
738.561	1893.69
738.747	1928.5
738.932	1860.92
739.118	1920.31
739.303	1840.44
739.489	1910.07
739.674	1908.02
739.859	1834.3
740.045	1881.4
740.23	1883.45
740.416	1817.91
740.601	1781.05
740.786	1903.93
740.972	1918.26
741.157	1729.85
741.342	1826.11
741.528	1776.95
741.713	1910.07
741.898	1836.35
742.084	1832.25
742.269	1738.04
742.454	1846.59
742.639	1795.39
742.824	1854.78
743.01	1916.22
743.195	1819.96
743.38	1891.64
743.565	1854.78
743.75	1889.59
743.935	1695.04
744.12	1957.18
744.305	1721.66
744.49	1723.71
744.675	1711.42
744.86	1768.76
745.045	1695.04
745.23	1797.43
745.415	1918.26
745.6	1785.15
745.785	1768.76
745.97	1776.95
746.155	1713.47
746.34	1645.88
746.525	1633.6
746.71	1654.08
746.895	1539.39
747.079	1692.99
747.264	1633.6
747.449	1598.78
747.634	1654.08
747.819	1600.83
748.003	1553.73
748.188	1529.15
748.373	1574.21
748.557	1531.2
748.742	1649.98
748.927	1572.16
749.111	1572.16
749.296	1531.2
749.481	1494.33
749.665	1443.14
749.85	1572.16
750.034	1490.24
750.219	1527.1
750.404	1475.9
750.588	1467.71
750.773	1498.43
750.957	1408.32
751.141	1465.66
751.326	1486.14
751.51	1402.18
751.695	1269.06
751.879	1391.94
752.064	1408.32
752.248	1432.9
752.432	1391.94
752.617	1334.59
752.801	1334.59
752.985	1338.69
753.17	1383.74
753.354	1295.68
753.538	1373.5
753.722	1291.59
753.907	1393.98
754.091	1207.62
754.275	1252.67
754.459	1324.35
754.643	1244.48
754.828	1244.48
755.012	1273.15
755.196	1271.11
755.38	1281.35
755.564	1334.59
755.748	1191.24
755.932	1230.15
756.116	1264.96
756.3	1228.1
756.484	1187.14
756.668	1244.48
756.852	1088.84
757.036	1201.48
757.22	1195.33
757.404	1129.8
757.588	1195.33
757.772	1219.91
757.956	1129.8
758.14	1162.56
758.323	1129.8
758.507	1154.37
758.691	1137.99
758.875	1023.3
759.059	1174.85
759.242	1113.41
759.426	1031.49
759.61	1129.8
759.794	970.05
759.977	1064.26
760.161	1131.84
760.345	1133.89
760.528	1039.69
760.712	1072.45
760.895	1076.55
761.079	992.58
761.263	982.34
761.446	970.05
761.63	1072.45
761.813	1097.03
761.997	935.24
762.18	1039.69
762.364	914.76
762.547	974.15
762.731	910.66
762.914	916.81
763.098	1006.92
763.281	1015.11
763.464	1058.12
763.648	965.96
763.831	976.2
764.015	873.8
764.198	959.81
764.381	914.76
764.564	1033.54
764.748	998.73
764.931	992.58
765.114	910.66
765.297	959.81
765.481	851.27
765.664	974.15
765.847	994.63
766.03	925
766.213	898.38
766.397	937.29
766.58	843.08
766.763	836.94
766.946	908.62
767.129	867.66
767.312	824.65
767.495	879.94
767.678	798.03
767.861	986.44
768.044	820.55
768.227	922.95
768.41	851.27
768.593	922.95
768.776	900.42
768.959	783.69
769.142	920.9
769.324	892.23
769.507	843.08
769.69	836.94
769.873	871.75
770.056	963.91
770.239	875.85
770.421	818.5
770.604	761.16
770.787	804.17
770.97	812.36
771.152	769.35
771.335	812.36
771.518	769.35
771.7	802.12
771.883	826.7
772.066	904.52
772.248	810.31
772.431	742.73
772.613	736.59
772.796	787.79
772.978	720.2
773.161	851.27
773.343	650.57
773.526	765.26
773.708	769.35
773.891	730.44
774.073	744.78
774.256	748.87
774.438	769.35
774.621	630.09
774.803	648.52
774.985	714.06
775.168	734.54
775.35	720.2
775.532	687.43
775.715	685.39
775.897	703.82
776.079	671.05
776.261	693.58
776.444	632.14
776.626	679.24
776.808	671.05
776.99	634.19
777.173	642.38
777.355	621.9
777.537	621.9
777.719	638.28
777.901	691.53
778.083	652.62
778.265	630.09
778.447	687.43
778.629	662.86
778.811	603.47
778.993	605.52
779.175	613.71
779.357	572.75
779.539	544.08
779.721	556.36
779.903	517.45
780.085	632.14
780.267	546.13
780.449	607.56
780.631	611.66
780.812	666.96
780.994	552.27
781.176	492.88
781.358	533.84
781.54	562.51
781.721	507.21
781.903	523.6
782.085	499.02
782.267	632.14
782.448	482.64
782.63	523.6
782.812	607.56
782.993	542.03
783.175	509.26
783.357	417.1
783.538	531.79
783.72	480.59
783.901	499.02
784.083	511.31
784.264	443.73
784.446	492.88
784.627	408.91
784.809	476.49
784.99	433.49
785.172	470.35
785.353	507.21
785.535	421.2
785.716	357.71
785.897	396.62
786.079	480.59
786.26	482.64
786.441	410.96
786.623	458.06
786.804	443.73
786.985	404.82
787.167	425.29
787.348	398.67
787.529	458.06
787.71	453.97
787.891	433.49
788.073	326.99
788.254	408.91
788.435	456.01
788.616	433.49
788.797	394.58
788.978	365.9
789.159	394.58
789.34	392.53
789.522	298.32
789.703	372.05
789.884	361.81
790.065	351.57
790.246	445.77
790.427	331.09
790.607	363.86
790.788	339.28
790.969	402.77
791.15	410.96
791.331	386.38
791.512	318.8
791.693	390.48
791.874	269.65
792.054	400.72
792.235	329.04
792.416	253.27
792.597	273.75
792.778	302.42
792.958	288.08
793.139	361.81
793.32	357.71
793.5	271.7
793.681	394.58
793.862	312.66
794.042	318.8
794.223	269.65
794.404	253.27
794.584	228.69
794.765	333.14
794.945	310.61
795.126	296.27
795.306	279.89
795.487	277.84
795.667	261.46
795.848	318.8
796.028	265.55
796.209	247.12
796.389	337.23
796.57	245.07
796.75	273.75
796.93	191.83
797.111	232.79
797.291	261.46
797.471	277.84
797.652	216.4
797.832	216.4
798.012	247.12
798.192	210.26
798.373	224.59
798.553	279.89
798.733	273.75
798.913	273.75
799.093	277.84
799.274	271.7
799.454	245.07
799.634	220.5
799.814	326.99
799.994	220.5
800.174	206.16
800.354	255.31
800.534	109.91
800.714	226.64
800.894	208.21
801.074	224.59
801.254	267.6
801.434	267.6
801.614	191.83
801.794	249.17
801.974	849.22
802.154	269.65
802.334	228.69
802.514	148.82
802.693	214.35
802.873	208.21
803.053	312.66
803.233	193.87
803.413	187.73
803.592	204.11
803.772	247.12
803.952	181.59
804.131	159.06
804.311	204.11
804.491	253.27
804.67	191.83
804.85	101.72
805.03	163.15
805.209	204.11
805.389	204.11
805.568	236.88
805.748	255.31
805.928	200.02
806.107	130.39
806.287	222.55
806.466	179.54
806.646	187.73
806.825	146.77
807.004	245.07
807.184	154.96
807.363	187.73
807.543	144.72
807.722	179.54
807.901	152.91
808.081	197.97
808.26	118.1
808.439	179.54
808.619	183.63
808.798	136.53
808.977	165.2
809.156	228.69
809.336	124.24
809.515	173.39
809.694	173.39
809.873	136.53
810.052	165.2
810.231	175.44
810.411	157.01
810.59	245.07
810.769	175.44
810.948	152.91
811.127	36.18
811.306	165.2
811.485	163.15
811.664	226.64
811.843	109.91
812.022	79.19
812.201	163.15
812.38	130.39
812.559	138.58
812.737	148.82
812.916	81.24
813.095	138.58
813.274	148.82
813.453	157.01
813.632	157.01
813.811	206.16
813.989	107.86
814.168	154.96
814.347	114
814.526	157.01
814.704	122.2
814.883	165.2
815.062	52.56
815.24	220.5
815.419	171.35
815.598	191.83
815.776	103.76
815.955	91.48
816.133	81.24
816.312	122.2
816.49	181.59
816.669	81.24
816.847	97.62
817.026	204.11
817.204	136.53
817.383	132.44
817.561	73.04
817.74	134.48
817.918	138.58
818.097	64.85
818.275	75.09
818.453	122.2
818.632	148.82
818.81	62.8
818.988	163.15
819.167	66.9
819.345	107.86
819.523	140.63
819.701	118.1
819.879	97.62
820.058	101.72
820.236	89.43
820.414	140.63
820.592	120.15
820.77	89.43
820.948	105.81
821.127	154.96
821.305	58.71
821.483	68.95
821.661	81.24
821.839	81.24
822.017	97.62
822.195	103.76
822.373	154.96
822.551	134.48
822.729	105.81
822.907	124.24
823.085	64.85
823.262	95.57
823.44	240.98
823.618	99.67
823.796	81.24
823.974	101.72
824.152	23.89
824.329	81.24
824.507	85.33
824.685	173.39
824.863	77.14
825.04	54.61
825.218	126.29
825.396	122.2
825.574	89.43
825.751	105.81
825.929	99.67
826.107	83.28
826.284	101.72
826.462	64.85
826.639	77.14
826.817	19.8
826.994	142.68
827.172	48.47
827.349	130.39
827.527	85.33
827.704	132.44
827.882	175.44
828.059	91.48
828.237	56.66
828.414	73.04
828.591	34.13
828.769	77.14
828.946	66.9
829.124	58.71
829.301	109.91
829.478	21.85
829.655	73.04
829.833	25.94
830.01	58.71
830.187	66.9
830.364	161.11
830.542	44.37
830.719	114
830.896	114
831.073	36.18
831.25	66.9
831.427	81.24
831.604	161.11
831.782	75.09
831.959	73.04
832.136	13.65
832.313	97.62
832.49	11.61
832.667	109.91
832.844	114
833.021	114
833.198	50.52
833.374	52.56
833.551	77.14
833.728	64.85
833.905	32.08
834.082	-4.78
834.259	36.18
834.436	103.76
834.612	97.62
834.789	58.71
834.966	116.05
835.143	75.09
835.319	91.48
835.496	73.04
835.673	56.66
835.85	114
836.026	89.43
836.203	27.99
836.38	91.48
836.556	40.28
836.733	124.24
836.909	130.39
837.086	25.94
837.262	-49.83
837.439	114
837.616	-25.26
837.792	54.61
837.968	122.2
838.145	-15.02
838.321	64.85
838.498	122.2
838.674	32.08
838.851	114
839.027	105.81
839.203	64.85
839.38	75.09
839.556	7.51
839.732	111.96
839.909	71
840.085	68.95
840.261	77.14
840.437	81.24
840.614	50.52
840.79	1.37
840.966	144.72
841.142	91.48
841.318	64.85
841.494	116.05
841.671	50.52
841.847	91.48
842.023	50.52
842.199	56.66
842.375	40.28
842.551	15.7
842.727	17.75
842.903	81.24
843.079	50.52
843.255	48.47
843.431	25.94
843.607	107.86
843.783	-8.87
843.959	97.62
844.134	60.76
844.31	183.63
844.486	-8.87
844.662	75.09
844.838	7.51
845.013	68.95
845.189	85.33
845.365	-39.59
845.541	68.95
845.716	60.76
845.892	60.76
846.068	15.7
846.244	11.61
846.419	36.18
846.595	38.23
846.77	-33.45
846.946	87.38
847.122	-4.78
847.297	-6.83
847.473	25.94
847.648	89.43
847.824	93.52
847.999	58.71
848.175	23.89
848.35	58.71
848.526	75.09
848.701	73.04
848.876	71
849.052	46.42
849.227	46.42
849.403	64.85
849.578	-17.07
849.753	44.37
849.929	-8.87
850.104	30.04
850.279	58.71
850.454	32.08
850.63	83.28
850.805	50.52
850.98	38.23
851.155	-12.97
851.33	36.18
851.505	48.47
851.681	138.58
851.856	17.75
852.031	25.94
852.206	50.52
852.381	1.37
852.556	52.56
852.731	83.28
852.906	-4.78
853.081	64.85
853.256	54.61
853.431	15.7
853.606	-72.36
853.781	23.89
853.956	19.8
854.131	32.08
854.305	34.13
854.48	44.37
854.655	15.7
854.83	9.56
855.005	-0.68
855.18	118.1
855.354	66.9
855.529	64.85
855.704	52.56
855.879	-8.87
856.053	1.37
856.228	85.33
856.403	1.37
856.577	-0.68
856.752	-8.87
856.926	32.08
857.101	50.52
857.276	-6.83
857.45	52.56
857.625	44.37
857.799	21.85
857.974	77.14
858.148	15.7
858.323	111.96
858.497	40.28
858.672	48.47
858.846	-23.21
859.02	-29.35
859.195	-12.97
859.369	-10.92
859.543	32.08
859.718	-0.68
859.892	48.47
860.066	83.28
860.241	25.94
860.415	15.7
860.589	54.61
860.763	-41.64
860.938	-76.46
861.112	38.23
861.286	17.75
861.46	-4.78
861.634	9.56
861.808	75.09
861.982	83.28
862.157	64.85
862.331	-41.64
862.505	-15.02
862.679	40.28
862.853	27.99
863.027	-62.12
863.201	-31.4
863.375	-29.35
863.549	60.76
863.722	36.18
863.896	50.52
864.07	-8.87
864.244	40.28
864.418	130.39
864.592	7.51
864.766	-43.69
864.939	-15.02
865.113	-33.45
865.287	91.48
865.461	-78.51
865.634	34.13
865.808	-23.21
865.982	58.71
866.156	44.37
866.329	17.75
866.503	56.66
866.676	34.13
866.85	-33.45
867.024	7.51
867.197	-8.87
867.371	66.9
867.544	7.51
867.718	-37.55
867.891	32.08
868.065	-23.21
868.238	-33.45
868.412	60.76
868.585	7.51
868.759	-0.68
868.932	-74.41
869.105	-29.35
869.279	-17.07
869.452	-41.64
869.625	13.65
869.799	-2.73
869.972	-39.59
870.145	81.24
870.319	32.08
870.492	-66.22
870.665	-94.89
870.838	-0.68
871.011	-74.41
871.185	32.08
871.358	23.89
871.531	25.94
871.704	19.8
871.877	27.99
872.05	32.08
872.223	34.13
872.396	25.94
872.569	-29.35
872.742	-6.83
872.915	-0.68
873.088	3.41
873.261	-8.87
873.434	-35.5
873.607	42.32
873.78	1.37
873.953	-4.78
874.126	46.42
874.299	5.46
874.471	40.28
874.644	64.85
874.817	85.33
874.99	48.47
875.163	15.7
875.335	1.37
875.508	58.71
875.681	-0.68
875.853	-135.85
876.026	-8.87
876.199	-8.87
876.371	3.41
876.544	7.51
876.717	21.85
876.889	-39.59
877.062	25.94
877.234	-0.68
877.407	-23.21
877.579	-19.11
877.752	-23.21
877.924	-19.11
878.097	56.66
878.269	15.7
878.442	25.94
878.614	85.33
878.786	-17.07
878.959	-53.93
879.131	-15.02
879.303	-19.11
879.476	44.37
879.648	-10.92
879.82	23.89
879.993	15.7
880.165	7.51
880.337	-33.45
880.509	56.66
880.681	-66.22
880.854	-19.11
881.026	40.28
881.198	118.1
881.37	1.37
881.542	25.94
881.714	34.13
881.886	-23.21
882.058	-29.35
882.23	-19.11
882.402	9.56
882.574	40.28
882.746	-33.45
882.918	89.43
883.09	77.14
883.262	40.28
883.434	15.7
883.606	-25.26
883.778	-47.79
883.95	83.28
884.122	-64.17
884.293	-6.83
884.465	40.28
884.637	25.94
884.809	-39.59
884.98	-8.87
885.152	7.51
885.324	64.85
885.496	48.47
885.667	-66.22
885.839	-33.45
886.011	7.51
886.182	44.37
886.354	27.99
886.525	-51.88
886.697	58.71
886.869	32.08
887.04	73.04
887.212	73.04
887.383	36.18
887.555	17.75
887.726	15.7
887.897	64.85
888.069	75.09
888.24	15.7
888.412	44.37
888.583	17.75
888.754	19.8
888.926	1.37
889.097	56.66
889.268	-0.68
889.44	50.52
889.611	27.99
889.782	21.85
889.953	-12.97
890.125	32.08
890.296	-0.68
890.467	27.99
890.638	11.61
890.809	44.37
890.98	-8.87
891.151	-4.78
891.323	73.04
891.494	48.47
891.665	-12.97
891.836	5.46
892.007	114
892.178	38.23
892.349	-58.03
892.52	9.56
892.691	-49.83
892.862	-41.64
893.032	64.85
893.203	60.76
893.374	7.51
893.545	11.61
893.716	-17.07
893.887	1.37
894.057	40.28
894.228	-25.26
894.399	23.89
894.57	34.13
894.74	15.7
894.911	-6.83
895.082	-23.21
895.253	3.41
895.423	52.56
895.594	17.75
895.764	40.28
895.935	23.89
896.106	-43.69
896.276	19.8
896.447	66.9
896.617	-17.07
896.788	23.89
896.958	15.7
897.129	17.75
897.299	-53.93
897.47	27.99
897.64	27.99
897.81	7.51
897.981	-31.4
898.151	-45.74
898.322	-58.03
898.492	62.8
898.662	-31.4
898.832	-31.4
899.003	11.61
899.173	13.65
899.343	-58.03
899.513	58.71
