Data from USB4F104151__151__14-44-36-960.txt Node

Date: Thu Mar 13 14:44:36 EDT 2025
User: louis
Spectrometer: USB4F10415
Trigger mode: 4
Integration Time (sec): 2.000000E-2
Scans to average: 1
Electric dark correction enabled: true
Nonlinearity correction enabled: false
Boxcar width: 0
XAxis mode: Wavelengths
Number of Pixels in Spectrum: 3648
>>>>>Begin Spectral Data<<<<<
178.204	-104.11
178.424	-104.11
178.644	-104.11
178.864	-106.15
179.084	-59.05
179.304	43.35
179.524	-38.57
179.744	-79.53
179.964	-42.67
180.184	-30.38
180.404	63.83
180.624	14.68
180.844	47.44
181.064	-16.04
181.283	14.68
181.503	0.34
181.723	22.87
181.943	-13.99
182.163	108.88
182.383	47.44
182.602	-7.85
182.822	90.45
183.042	96.6
183.262	6.49
183.482	49.49
183.701	-3.75
183.921	63.83
184.141	-26.28
184.361	49.49
184.58	2.39
184.8	35.16
185.02	57.68
185.239	121.17
185.459	67.92
185.679	67.92
185.898	33.11
186.118	16.73
186.338	14.68
186.557	47.44
186.777	-18.09
186.997	26.96
187.216	-7.85
187.436	106.84
187.655	22.87
187.875	96.6
188.095	72.02
188.314	63.83
188.534	14.68
188.753	6.49
188.973	59.73
189.192	45.4
189.412	63.83
189.631	10.58
189.851	61.78
190.07	55.64
190.29	0.34
190.509	20.82
190.729	102.74
190.948	76.12
191.168	143.7
191.387	39.25
191.607	63.83
191.826	63.83
192.045	-18.09
192.265	39.25
192.484	35.16
192.704	47.44
192.923	49.49
193.142	22.87
193.362	31.06
193.581	4.44
193.8	57.68
194.02	35.16
194.239	16.73
194.458	39.25
194.678	-42.67
194.897	24.92
195.116	18.77
195.335	47.44
195.555	-48.81
195.774	10.58
195.993	108.88
196.212	63.83
196.432	-38.57
196.651	39.25
196.87	45.4
197.089	57.68
197.308	16.73
197.528	96.6
197.747	14.68
197.966	35.16
198.185	162.13
198.404	14.68
198.623	86.36
198.842	69.97
199.062	49.49
199.281	22.87
199.5	47.44
199.719	-13.99
199.938	-9.9
200.157	55.64
200.376	98.64
200.595	16.73
200.814	33.11
201.033	35.16
201.252	26.96
201.471	-59.05
201.69	-7.85
201.909	47.44
202.128	-24.23
202.347	72.02
202.566	88.4
202.785	37.2
203.004	14.68
203.223	115.03
203.442	76.12
203.661	10.58
203.879	65.88
204.098	88.4
204.317	106.84
204.536	-1.71
204.755	47.44
204.974	80.21
205.193	84.31
205.411	121.17
205.63	69.97
205.849	6.49
206.068	49.49
206.287	-7.85
206.505	80.21
206.724	22.87
206.943	14.68
207.162	31.06
207.381	-22.19
207.599	-16.04
207.818	53.59
208.037	8.53
208.255	74.07
208.474	2.39
208.693	125.27
208.911	67.92
209.13	-32.43
209.349	51.54
209.567	121.17
209.786	82.26
210.005	-9.9
210.223	6.49
210.442	-59.05
210.661	51.54
210.879	-1.71
211.098	41.3
211.316	10.58
211.535	72.02
211.753	47.44
211.972	16.73
212.191	18.77
212.409	72.02
212.628	33.11
212.846	-26.28
213.065	59.73
213.283	63.83
213.502	14.68
213.72	65.88
213.938	-48.81
214.157	69.97
214.375	55.64
214.594	14.68
214.812	49.49
215.031	-32.43
215.249	-20.14
215.467	-7.85
215.686	78.16
215.904	80.21
216.122	65.88
216.341	121.17
216.559	41.3
216.778	88.4
216.996	41.3
217.214	14.68
217.432	31.06
217.651	-20.14
217.869	39.25
218.087	59.73
218.306	31.06
218.524	59.73
218.742	47.44
218.96	65.88
219.179	16.73
219.397	90.45
219.615	137.56
219.833	14.68
220.051	8.53
220.27	57.68
220.488	37.2
220.706	96.6
220.924	-13.99
221.142	-42.67
221.36	49.49
221.578	29.01
221.796	63.83
222.015	65.88
222.233	22.87
222.451	39.25
222.669	-3.75
222.887	8.53
223.105	31.06
223.323	14.68
223.541	35.16
223.759	45.4
223.977	39.25
224.195	112.98
224.413	65.88
224.631	100.69
224.849	92.5
225.067	125.27
225.285	22.87
225.503	45.4
225.721	-48.81
225.939	80.21
226.157	16.73
226.375	170.32
226.592	-1.71
226.81	-5.8
227.028	39.25
227.246	72.02
227.464	-9.9
227.682	61.78
227.9	-13.99
228.117	59.73
228.335	59.73
228.553	22.87
228.771	8.53
228.989	80.21
229.206	0.34
229.424	53.59
229.642	14.68
229.86	-1.71
230.077	59.73
230.295	65.88
230.513	88.4
230.731	33.11
230.948	24.92
231.166	33.11
231.384	-18.09
231.601	41.3
231.819	92.5
232.037	22.87
232.254	-26.28
232.472	98.64
232.689	49.49
232.907	47.44
233.125	84.31
233.342	14.68
233.56	43.35
233.777	61.78
233.995	-20.14
234.213	74.07
234.43	47.44
234.648	2.39
234.865	0.34
235.083	51.54
235.3	-9.9
235.518	108.88
235.735	72.02
235.953	92.5
236.17	-5.8
236.388	24.92
236.605	2.39
236.822	47.44
237.04	51.54
237.257	2.39
237.475	8.53
237.692	14.68
237.909	10.58
238.127	-9.9
238.344	-30.38
238.562	-18.09
238.779	22.87
238.996	29.01
239.214	0.34
239.431	57.68
239.648	10.58
239.865	35.16
240.083	82.26
240.3	74.07
240.517	37.2
240.735	-7.85
240.952	10.58
241.169	41.3
241.386	137.56
241.603	31.06
241.821	37.2
242.038	31.06
242.255	-11.95
242.472	-42.67
242.689	59.73
242.907	57.68
243.124	63.83
243.341	31.06
243.558	92.5
243.775	-38.57
243.992	20.82
244.209	-20.14
244.426	137.56
244.643	29.01
244.86	0.34
245.078	41.3
245.295	24.92
245.512	-1.71
245.729	33.11
245.946	67.92
246.163	22.87
246.38	-16.04
246.597	24.92
246.814	22.87
247.031	49.49
247.248	-5.8
247.464	22.87
247.681	47.44
247.898	39.25
248.115	39.25
248.332	82.26
248.549	90.45
248.766	112.98
248.983	39.25
249.2	-18.09
249.417	88.4
249.633	-22.19
249.85	133.46
250.067	-67.24
250.284	39.25
250.501	72.02
250.717	82.26
250.934	-26.28
251.151	22.87
251.368	-1.71
251.585	80.21
251.801	35.16
252.018	80.21
252.235	49.49
252.451	14.68
252.668	-32.43
252.885	12.63
253.102	55.64
253.318	-18.09
253.535	59.73
253.752	55.64
253.968	-9.9
254.185	80.21
254.401	51.54
254.618	125.27
254.835	14.68
255.051	90.45
255.268	80.21
255.484	39.25
255.701	-1.71
255.917	47.44
256.134	69.97
256.351	49.49
256.567	6.49
256.784	47.44
257	12.63
257.217	63.83
257.433	49.49
257.65	41.3
257.866	82.26
258.082	-30.38
258.299	-54.95
258.515	80.21
258.732	-11.95
258.948	47.44
259.165	39.25
259.381	-18.09
259.597	63.83
259.814	-1.71
260.03	63.83
260.246	-38.57
260.463	24.92
260.679	67.92
260.895	-11.95
261.112	35.16
261.328	22.87
261.544	22.87
261.761	31.06
261.977	29.01
262.193	-9.9
262.409	90.45
262.626	63.83
262.842	43.35
263.058	-22.19
263.274	59.73
263.49	61.78
263.707	57.68
263.923	74.07
264.139	43.35
264.355	72.02
264.571	22.87
264.787	69.97
265.004	76.12
265.22	80.21
265.436	-42.67
265.652	29.01
265.868	55.64
266.084	31.06
266.3	26.96
266.516	-34.47
266.732	35.16
266.948	16.73
267.164	53.59
267.38	16.73
267.596	57.68
267.812	90.45
268.028	43.35
268.244	31.06
268.46	6.49
268.676	47.44
268.892	80.21
269.108	55.64
269.324	16.73
269.54	-5.8
269.756	39.25
269.972	10.58
270.188	39.25
270.403	47.44
270.619	55.64
270.835	33.11
271.051	29.01
271.267	39.25
271.483	57.68
271.698	104.79
271.914	57.68
272.13	41.3
272.346	24.92
272.562	-69.29
272.777	-18.09
272.993	55.64
273.209	47.44
273.425	37.2
273.64	55.64
273.856	49.49
274.072	88.4
274.287	-5.8
274.503	31.06
274.719	76.12
274.934	-1.71
275.15	18.77
275.366	82.26
275.581	-34.47
275.797	65.88
276.012	37.2
276.228	24.92
276.444	43.35
276.659	170.32
276.875	-1.71
277.09	29.01
277.306	-28.33
277.521	86.36
277.737	22.87
277.952	47.44
278.168	98.64
278.383	133.46
278.599	43.35
278.814	16.73
279.03	108.88
279.245	106.84
279.461	67.92
279.676	31.06
279.892	59.73
280.107	14.68
280.322	-16.04
280.538	22.87
280.753	0.34
280.969	57.68
281.184	31.06
281.399	84.31
281.615	2.39
281.83	55.64
282.045	24.92
282.26	119.12
282.476	43.35
282.691	115.03
282.906	-16.04
283.122	51.54
283.337	2.39
283.552	72.02
283.767	-46.76
283.983	125.27
284.198	35.16
284.413	59.73
284.628	-32.43
284.843	14.68
285.058	57.68
285.274	55.64
285.489	-16.04
285.704	72.02
285.919	90.45
286.134	16.73
286.349	121.17
286.564	14.68
286.779	41.3
286.995	31.06
287.21	33.11
287.425	31.06
287.64	49.49
287.855	37.2
288.07	31.06
288.285	59.73
288.5	88.4
288.715	84.31
288.93	0.34
289.145	22.87
289.36	49.49
289.575	112.98
289.79	92.5
290.004	108.88
290.219	61.78
290.434	31.06
290.649	35.16
290.864	-18.09
291.079	80.21
291.294	22.87
291.509	74.07
291.724	104.79
291.938	-16.04
292.153	6.49
292.368	51.54
292.583	41.3
292.798	57.68
293.012	104.79
293.227	33.11
293.442	-54.95
293.657	90.45
293.871	145.75
294.086	112.98
294.301	125.27
294.516	63.83
294.73	84.31
294.945	-1.71
295.16	-9.9
295.374	6.49
295.589	72.02
295.804	31.06
296.018	55.64
296.233	100.69
296.447	51.54
296.662	84.31
296.877	96.6
297.091	80.21
297.306	82.26
297.52	-24.23
297.735	53.59
297.949	82.26
298.164	115.03
298.378	24.92
298.593	41.3
298.807	-9.9
299.022	90.45
299.236	39.25
299.451	47.44
299.665	43.35
299.88	2.39
300.094	57.68
300.309	-3.75
300.523	59.73
300.737	84.31
300.952	0.34
301.166	43.35
301.381	-1.71
301.595	31.06
301.809	51.54
302.024	96.6
302.238	-59.05
302.452	102.74
302.667	72.02
302.881	100.69
303.095	41.3
303.309	121.17
303.524	18.77
303.738	-18.09
303.952	0.34
304.166	49.49
304.381	-16.04
304.595	63.83
304.809	6.49
305.023	39.25
305.237	6.49
305.452	41.3
305.666	16.73
305.88	74.07
306.094	119.12
306.308	63.83
306.522	115.03
306.736	39.25
306.95	82.26
307.164	14.68
307.379	-9.9
307.593	117.08
307.807	82.26
308.021	74.07
308.235	18.77
308.449	45.4
308.663	72.02
308.877	96.6
309.091	0.34
309.305	84.31
309.519	-22.19
309.733	14.68
309.947	22.87
310.161	47.44
310.374	33.11
310.588	104.79
310.802	-7.85
311.016	45.4
311.23	65.88
311.444	-1.71
311.658	18.77
311.872	14.68
312.085	10.58
312.299	43.35
312.513	63.83
312.727	72.02
312.941	-9.9
313.154	41.3
313.368	24.92
313.582	35.16
313.796	51.54
314.009	88.4
314.223	47.44
314.437	10.58
314.651	67.92
314.864	0.34
315.078	33.11
315.292	18.77
315.505	6.49
315.719	-5.8
315.933	22.87
316.146	-9.9
316.36	22.87
316.573	90.45
316.787	-67.24
317.001	39.25
317.214	8.53
317.428	92.5
317.641	-5.8
317.855	88.4
318.068	92.5
318.282	63.83
318.495	74.07
318.709	-22.19
318.922	-34.47
319.136	76.12
319.349	20.82
319.563	47.44
319.776	26.96
319.99	84.31
320.203	35.16
320.417	67.92
320.63	41.3
320.843	69.97
321.057	39.25
321.27	59.73
321.483	88.4
321.697	88.4
321.91	49.49
322.124	55.64
322.337	-11.95
322.55	-16.04
322.763	-16.04
322.977	39.25
323.19	-1.71
323.403	-1.71
323.617	84.31
323.83	63.83
324.043	-7.85
324.256	22.87
324.469	10.58
324.683	76.12
324.896	80.21
325.109	67.92
325.322	37.2
325.535	74.07
325.748	49.49
325.962	10.58
326.175	108.88
326.388	94.55
326.601	47.44
326.814	41.3
327.027	33.11
327.24	92.5
327.453	0.34
327.666	0.34
327.879	10.58
328.092	131.41
328.305	12.63
328.518	-32.43
328.731	53.59
328.944	49.49
329.157	108.88
329.37	-38.57
329.583	39.25
329.796	-34.47
330.009	-77.48
330.222	88.4
330.435	-18.09
330.648	41.3
330.861	43.35
331.073	98.64
331.286	24.92
331.499	47.44
331.712	-26.28
331.925	41.3
332.138	110.93
332.35	96.6
332.563	98.64
332.776	88.4
332.989	47.44
333.202	80.21
333.414	39.25
333.627	29.01
333.84	22.87
334.053	74.07
334.265	88.4
334.478	80.21
334.691	53.59
334.903	55.64
335.116	26.96
335.329	35.16
335.541	55.64
335.754	88.4
335.966	16.73
336.179	55.64
336.392	143.7
336.604	-40.62
336.817	51.54
337.029	43.35
337.242	55.64
337.454	98.64
337.667	12.63
337.88	96.6
338.092	35.16
338.305	-24.23
338.517	31.06
338.729	53.59
338.942	65.88
339.154	82.26
339.367	12.63
339.579	55.64
339.792	10.58
340.004	37.2
340.217	-34.47
340.429	86.36
340.641	53.59
340.854	-1.71
341.066	24.92
341.278	88.4
341.491	78.16
341.703	-48.81
341.915	-5.8
342.128	55.64
342.34	39.25
342.552	90.45
342.764	63.83
342.977	33.11
343.189	49.49
343.401	88.4
343.613	49.49
343.826	51.54
344.038	-30.38
344.25	45.4
344.462	94.55
344.674	39.25
344.886	35.16
345.099	14.68
345.311	24.92
345.523	2.39
345.735	18.77
345.947	39.25
346.159	16.73
346.371	67.92
346.583	20.82
346.795	153.94
347.007	-9.9
347.219	137.56
347.431	-57
347.643	31.06
347.855	22.87
348.067	63.83
348.279	-9.9
348.491	63.83
348.703	12.63
348.915	22.87
349.127	96.6
349.339	37.2
349.551	-1.71
349.763	18.77
349.975	20.82
350.187	33.11
350.399	16.73
350.61	72.02
350.822	92.5
351.034	55.64
351.246	24.92
351.458	33.11
351.669	80.21
351.881	4.44
352.093	45.4
352.305	39.25
352.517	92.5
352.728	100.69
352.94	26.96
353.152	127.32
353.363	20.82
353.575	33.11
353.787	94.55
353.999	88.4
354.21	57.68
354.422	33.11
354.633	104.79
354.845	41.3
355.057	80.21
355.268	8.53
355.48	49.49
355.692	4.44
355.903	47.44
356.115	80.21
356.326	31.06
356.538	92.5
356.749	-26.28
356.961	82.26
357.172	43.35
357.384	22.87
357.595	90.45
357.807	8.53
358.018	47.44
358.23	-16.04
358.441	59.73
358.653	51.54
358.864	12.63
359.075	-36.52
359.287	115.03
359.498	67.92
359.709	-38.57
359.921	104.79
360.132	43.35
360.344	63.83
360.555	-75.43
360.766	80.21
360.977	55.64
361.189	98.64
361.4	29.01
361.611	88.4
361.823	20.82
362.034	63.83
362.245	14.68
362.456	55.64
362.667	145.75
362.879	49.49
363.09	55.64
363.301	55.64
363.512	47.44
363.723	-7.85
363.935	35.16
364.146	88.4
364.357	47.44
364.568	-11.95
364.779	84.31
364.99	102.74
365.201	69.97
365.412	67.92
365.623	18.77
365.834	82.26
366.045	43.35
366.256	63.83
366.467	10.58
366.678	117.08
366.889	45.4
367.1	8.53
367.311	43.35
367.522	49.49
367.733	59.73
367.944	90.45
368.155	41.3
368.366	82.26
368.577	22.87
368.788	90.45
368.999	43.35
369.209	74.07
369.42	82.26
369.631	63.83
369.842	96.6
370.053	6.49
370.264	43.35
370.474	-18.09
370.685	84.31
370.896	2.39
371.107	72.02
371.317	53.59
371.528	55.64
371.739	51.54
371.95	53.59
372.16	88.4
372.371	55.64
372.582	2.39
372.792	96.6
373.003	2.39
373.214	43.35
373.424	102.74
373.635	-40.62
373.846	47.44
374.056	22.87
374.267	76.12
374.477	72.02
374.688	67.92
374.898	33.11
375.109	55.64
375.319	129.36
375.53	65.88
375.74	74.07
375.951	16.73
376.161	106.84
376.372	51.54
376.582	47.44
376.793	59.73
377.003	94.55
377.214	14.68
377.424	55.64
377.635	14.68
377.845	-1.71
378.055	98.64
378.266	47.44
378.476	49.49
378.686	141.65
378.897	39.25
379.107	47.44
379.317	43.35
379.528	-3.75
379.738	49.49
379.948	-24.23
380.158	14.68
380.369	47.44
380.579	57.68
380.789	18.77
380.999	125.27
381.21	80.21
381.42	133.46
381.63	12.63
381.84	57.68
382.05	74.07
382.261	57.68
382.471	80.21
382.681	31.06
382.891	145.75
383.101	96.6
383.311	2.39
383.521	22.87
383.731	33.11
383.941	76.12
384.151	76.12
384.361	72.02
384.571	43.35
384.781	106.84
384.991	139.6
385.201	117.08
385.411	104.79
385.621	47.44
385.831	49.49
386.041	82.26
386.251	45.4
386.461	143.7
386.671	72.02
386.881	10.58
387.091	90.45
387.301	55.64
387.511	47.44
387.72	67.92
387.93	24.92
388.14	80.21
388.35	31.06
388.56	12.63
388.769	43.35
388.979	88.4
389.189	31.06
389.399	102.74
389.609	24.92
389.818	51.54
390.028	-1.71
390.238	26.96
390.447	49.49
390.657	65.88
390.867	92.5
391.076	33.11
391.286	88.4
391.496	29.01
391.705	90.45
391.915	94.55
392.125	117.08
392.334	67.92
392.544	129.36
392.753	72.02
392.963	14.68
393.172	104.79
393.382	35.16
393.591	96.6
393.801	51.54
394.01	96.6
394.22	92.5
394.429	31.06
394.639	82.26
394.848	43.35
395.058	131.41
395.267	63.83
395.477	55.64
395.686	133.46
395.895	80.21
396.105	96.6
396.314	108.88
396.524	55.64
396.733	88.4
396.942	14.68
397.152	112.98
397.361	123.22
397.57	43.35
397.78	123.22
397.989	96.6
398.198	160.08
398.407	125.27
398.617	135.51
398.826	65.88
399.035	104.79
399.244	94.55
399.453	88.4
399.663	145.75
399.872	112.98
400.081	121.17
400.29	166.23
400.499	49.49
400.708	49.49
400.917	145.75
401.127	96.6
401.336	57.68
401.545	129.36
401.754	149.84
401.963	121.17
402.172	59.73
402.381	90.45
402.59	63.83
402.799	69.97
403.008	153.94
403.217	145.75
403.426	127.32
403.635	84.31
403.844	65.88
404.053	141.65
404.262	84.31
404.471	190.8
404.68	72.02
404.888	96.6
405.097	100.69
405.306	98.64
405.515	178.51
405.724	158.03
405.933	129.36
406.142	133.46
406.35	252.24
406.559	190.8
406.768	149.84
406.977	198.99
407.185	180.56
407.394	149.84
407.603	174.42
407.812	117.08
408.02	196.95
408.229	186.71
408.438	172.37
408.646	170.32
408.855	147.8
409.064	223.57
409.272	227.67
409.481	270.67
409.69	293.2
409.898	205.14
410.107	328.02
410.315	258.39
410.524	225.62
410.733	237.91
410.941	272.72
411.15	336.21
411.358	293.2
411.567	436.56
411.775	323.92
411.984	391.5
412.192	338.26
412.401	285.01
412.609	418.13
412.818	426.32
413.026	356.69
413.234	457.04
413.443	375.12
413.651	409.94
413.86	457.04
414.068	465.23
414.276	473.42
414.485	465.23
414.693	571.72
414.901	530.77
415.11	559.44
415.318	555.34
415.526	549.2
415.734	606.54
415.943	596.3
416.151	661.84
416.359	565.58
416.567	717.13
416.776	747.85
416.984	780.62
417.192	842.06
417.4	719.18
417.608	774.47
417.817	821.58
418.025	844.1
418.233	971.08
418.441	895.3
418.649	899.4
418.857	977.22
419.065	1044.81
419.273	1016.13
419.481	1026.37
419.689	1124.68
419.897	1120.58
420.105	1091.91
420.313	1294.66
420.521	1288.51
420.729	1243.46
420.937	1294.66
421.145	1403.2
421.353	1438.02
421.561	1444.16
421.769	1632.57
421.977	1546.56
422.185	1603.9
422.393	1622.33
422.601	1763.64
422.809	1759.55
423.017	1863.99
423.224	1800.51
423.432	1939.77
423.64	1915.19
423.848	2165.04
424.056	2048.31
424.263	2244.92
424.471	2226.48
424.679	2261.3
424.887	2408.75
425.094	2408.75
425.302	2402.61
425.51	2519.34
425.718	2533.68
425.925	2791.72
426.133	2660.65
426.341	2900.27
426.548	2941.22
426.756	3029.29
426.964	3031.34
427.171	3195.17
427.379	3342.63
427.586	3250.47
427.794	3373.35
428.001	3647.77
428.209	3811.61
428.417	3795.23
428.624	3963.16
428.832	3987.74
429.039	4016.41
429.247	3965.21
429.454	4251.92
429.662	4577.55
429.869	4389.14
430.076	4634.89
430.284	4426
430.491	4698.38
430.699	4921.61
430.906	4948.23
431.114	4907.27
431.321	5251.33
431.528	5071.11
431.736	5536
431.943	5980.41
432.15	5708.03
432.358	5912.83
432.565	6068.47
432.772	5986.55
432.979	6347
433.187	6516.98
433.394	6410.48
433.601	6801.65
433.808	7039.21
434.016	6916.33
434.223	7241.96
434.43	7674.08
434.637	7502.05
434.844	8114.39
435.052	8016.09
435.259	7930.08
435.466	8257.75
435.673	8009.95
435.88	8503.51
436.087	9050.32
436.294	9056.46
436.501	8808.65
436.708	8988.88
436.915	9289.93
437.122	9509.06
437.329	9681.09
437.537	9763.01
437.743	10197.18
437.95	9969.85
438.157	10614.96
438.364	10780.85
438.571	10764.47
438.778	11135.15
438.985	11964.57
439.192	11507.88
439.399	11655.33
439.606	11667.62
439.813	12335.26
440.02	13066.38
440.227	12845.2
440.433	12646.55
440.64	13043.85
440.847	12867.73
441.054	13455.5
441.261	14346.36
441.467	14094.46
441.674	14258.3
441.881	14889.07
442.088	14852.21
442.294	14780.53
442.501	14977.14
442.708	15323.24
442.914	15859.81
443.121	16572.5
443.328	16064.61
443.534	17199.18
443.741	16703.57
443.948	16599.13
444.154	17799.24
444.361	17578.06
444.568	17881.16
444.774	17885.25
444.981	18083.91
445.187	18528.31
445.394	19253.3
445.6	18784.31
445.807	20977.69
446.013	20080.67
446.22	20402.21
446.426	21194.77
446.633	21198.87
446.839	22286.34
447.046	21231.63
447.252	22364.16
447.459	22218.75
447.665	22083.59
447.871	23003.13
448.078	24535.01
448.284	23060.47
448.491	23982.06
448.697	24780.76
448.903	25163.73
449.11	25303
449.316	25044.95
449.522	25210.84
449.728	26277.83
449.935	26144.71
450.141	26161.09
450.347	26929.08
450.553	25974.73
450.76	26535.87
450.966	27142.07
451.172	27019.19
451.378	27424.69
451.584	27164.6
451.791	27473.84
451.997	27971.5
452.203	28217.25
452.409	28151.72
452.615	28184.49
452.821	27008.95
453.027	26564.54
453.233	28381.09
453.44	27156.41
453.646	27570.1
453.852	27572.14
454.058	28008.36
454.264	27185.08
454.47	27711.41
454.676	26816.44
454.882	27834.28
455.088	25341.91
455.294	26046.41
455.5	26472.39
455.705	27011
455.911	25681.87
456.117	25307.09
456.323	25047
456.529	23730.16
456.735	24727.52
456.941	23867.37
457.147	23594.99
457.352	22915.06
457.558	22626.3
457.764	22802.43
457.97	22372.35
458.176	21915.65
458.381	22024.2
458.587	20979.73
458.793	20957.21
458.999	19761.19
459.204	21348.37
459.41	20545.56
459.616	19279.92
459.821	19132.47
460.027	19355.69
460.233	18995.25
460.438	17897.54
460.644	18315.33
460.85	17244.24
461.055	17080.4
461.261	17186.9
461.466	15827.04
461.672	15206.51
461.878	16332.89
462.083	14989.42
462.289	15044.72
462.494	14921.84
462.7	14395.51
462.905	13719.68
463.111	14289.02
463.316	14153.85
463.522	13904
463.727	14071.93
463.932	13877.38
464.138	13631.62
464.343	13987.97
464.549	13594.76
464.754	13977.73
464.959	13879.43
465.165	13826.18
465.37	13162.64
465.575	12675.22
465.781	13326.47
465.986	13195.4
466.191	12916.88
466.397	12425.37
466.602	12116.12
466.807	12615.83
467.012	12335.26
467.218	12402.84
467.423	12155.04
467.628	12255.39
467.833	12800.15
468.038	12329.11
468.244	12204.19
468.449	12558.49
468.654	11968.67
468.859	11942.05
469.064	11931.81
469.269	11409.58
469.474	11581.6
469.679	11796.64
469.885	11417.77
470.09	11563.17
470.295	11618.47
470.5	11110.57
470.705	11292.84
470.91	11040.94
471.115	11083.95
471.32	11303.08
471.525	11032.75
471.73	10848.43
471.935	10852.53
472.139	10338.49
472.344	10535.09
472.549	10399.93
472.754	10494.13
472.959	10258.62
473.164	9826.5
473.369	9914.56
473.574	10129.59
473.778	9920.7
473.983	10021.05
474.188	9918.65
474.393	9527.49
474.598	9533.64
474.802	9343.17
475.007	9337.03
475.212	9257.16
475.417	9236.68
475.621	9052.36
475.826	9078.99
476.031	8980.68
476.235	8716.5
476.44	8763.6
476.645	8622.29
476.849	8755.41
477.054	8628.43
477.259	8646.87
477.463	8534.23
477.668	8157.4
477.872	8257.75
478.077	8134.87
478.282	7930.08
478.486	8061.15
478.691	7854.3
478.895	7999.71
479.1	7721.18
479.304	7913.69
479.509	7608.55
479.713	7911.64
479.918	7643.36
480.122	7383.27
480.326	7641.31
480.531	7561.44
480.735	7563.49
480.94	7436.52
481.144	7731.42
481.348	7270.63
481.553	7338.21
481.757	7205.1
481.961	7422.18
482.166	7590.11
482.37	7356.65
482.574	7174.38
482.778	7280.87
482.983	7289.06
483.187	7305.45
483.391	7457
483.595	7375.08
483.8	7221.48
484.004	7233.77
484.208	7340.26
484.412	7235.81
484.616	7186.66
484.821	7457
485.025	7018.73
485.229	7362.79
485.433	7225.58
485.637	7264.49
485.841	7176.42
486.045	7207.14
486.249	7387.36
486.453	7264.49
486.657	7207.14
486.861	7190.76
487.065	7117.03
487.269	7174.38
487.473	7000.3
487.677	7346.41
487.881	7332.07
488.085	7239.91
488.289	7295.21
488.493	7166.18
488.697	7207.14
488.901	7373.03
489.105	7225.58
489.309	7239.91
489.512	7413.99
489.716	7440.61
489.92	7430.37
490.124	7401.7
490.328	7678.18
490.531	7313.64
490.735	7428.32
490.939	7391.46
491.143	7420.13
491.346	7395.56
491.55	7571.68
491.754	7381.22
491.958	7534.82
492.161	7631.07
492.365	7594.21
492.569	7682.27
492.772	7557.35
492.976	7717.09
493.18	7444.71
493.383	7844.06
493.587	7868.64
493.79	7973.08
493.994	7792.86
494.197	7993.56
494.401	8116.44
494.605	7925.98
494.808	8249.56
495.012	8071.39
495.215	8091.87
495.419	8284.37
495.622	8337.62
495.825	8313.05
496.029	8507.6
496.232	8749.26
496.436	8751.31
496.639	8911.05
496.843	8874.19
497.046	8986.83
497.249	8911.05
497.453	9156.81
497.656	9371.85
497.859	8962.25
498.063	9404.61
498.266	9552.07
498.469	9494.72
498.673	9398.47
498.876	9795.78
499.079	9978.05
499.282	9877.69
499.485	9996.48
499.689	10041.53
499.892	10062.01
500.095	10336.44
500.298	10434.74
500.501	10166.46
500.705	10733.75
500.908	10791.09
501.111	10803.38
501.314	11040.94
501.517	10975.41
501.72	10954.93
501.923	11172.01
502.126	11413.67
502.329	11667.62
502.532	11643.04
502.735	11788.45
502.938	12208.28
503.141	12048.54
503.344	12359.83
503.547	12236.95
503.75	12589.21
503.953	12478.61
504.156	12990.61
504.359	12986.51
504.562	12914.83
504.765	13195.4
504.968	13443.21
505.17	13625.48
505.373	13279.37
505.576	13729.92
505.779	14004.35
505.982	13979.78
506.185	14293.12
506.387	14497.91
506.59	14549.11
506.793	14749.81
506.996	14837.87
507.198	15126.64
507.401	14866.55
507.604	15001.71
507.807	15571.05
508.009	15761.51
508.212	15763.56
508.415	15976.55
508.617	16205.92
508.82	16363.61
509.022	16375.9
509.225	16638.04
509.428	16887.89
509.63	17115.22
509.833	16949.33
510.035	17342.54
510.238	17375.31
510.44	17463.37
510.643	17842.25
510.845	17829.96
511.048	17879.11
511.25	18405.44
511.453	18401.34
511.655	19087.41
511.858	18905.14
512.06	19236.91
512.262	19245.1
512.465	19384.37
512.667	19521.58
512.87	19781.67
513.072	19841.06
513.274	20121.63
513.477	20496.41
513.679	20715.55
513.881	20678.68
514.084	21098.52
514.286	20996.12
514.488	21237.78
514.69	21911.56
514.893	21870.6
515.095	21749.77
515.297	22536.19
515.499	22405.12
515.701	22837.24
515.904	22644.73
516.106	22843.38
516.308	23175.16
516.51	23386.1
516.712	23599.09
516.914	23709.68
517.116	24020.97
517.318	24127.46
517.52	24346.59
517.722	24389.6
517.925	25014.23
518.127	24952.79
518.329	25335.76
518.531	25280.47
518.733	25800.65
518.935	25700.3
519.136	25952.2
519.338	26367.94
519.54	26388.42
519.742	26732.48
519.944	27070.39
520.146	27316.15
520.348	27342.77
520.55	27795.37
520.752	27799.47
520.954	28180.39
521.155	28186.54
521.357	28356.52
521.559	28764.06
521.761	29181.85
521.963	28936.09
522.164	29470.61
522.366	29353.88
522.568	29941.64
522.77	29773.71
522.971	30214.02
523.173	29974.41
523.375	30662.53
523.576	30513.03
523.778	30830.46
523.98	31070.08
524.181	31252.34
524.383	31080.32
524.584	31756.14
524.786	31610.74
524.988	31965.04
525.189	32173.93
525.391	32272.23
525.592	32466.79
525.794	32737.12
525.995	32706.4
526.197	32468.84
526.398	32431.97
526.6	33083.23
526.801	32995.17
527.003	32958.3
527.204	33298.27
527.406	33924.94
527.607	33513.3
527.808	33752.91
528.01	33392.47
528.211	33750.87
528.412	34223.95
528.614	34072.4
528.815	34162.51
529.016	34588.49
529.218	34330.44
529.419	34352.97
529.62	34725.7
529.822	34529.09
530.023	34469.7
530.224	34690.88
530.425	34494.28
530.626	34584.39
530.828	34975.55
531.029	35348.28
531.23	34883.39
531.431	35030.85
531.632	34807.62
531.833	35196.73
532.035	35360.57
532.236	35409.72
532.437	35591.99
532.638	34883.39
532.839	35221.31
533.04	35667.77
533.241	35149.63
533.442	35530.55
533.643	35563.32
533.844	35669.81
534.045	35585.85
534.246	35239.74
534.447	35778.36
534.648	35518.26
534.849	35467.06
535.05	35290.94
535.251	35522.36
535.451	35409.72
535.652	35794.74
535.853	35604.28
536.054	35665.72
536.255	35706.68
536.456	35303.23
536.657	36214.57
536.857	35659.57
537.058	35432.25
537.259	36065.07
537.46	35481.4
537.66	35526.46
537.861	35981.1
538.062	35845.94
538.263	35678
538.463	35604.28
538.664	35718.96
538.865	36171.57
539.065	35852.08
539.266	35155.77
539.466	35874.61
539.667	35301.18
539.868	35714.87
540.068	35653.43
540.269	35528.5
540.469	36204.33
540.67	35569.46
540.87	35845.94
541.071	35493.69
541.271	35843.89
541.472	35690.29
541.672	35456.82
541.873	35579.7
542.073	35309.37
542.274	35647.29
542.474	35528.5
542.675	35131.2
542.875	36091.69
543.075	35839.79
543.276	35123.01
543.476	35827.51
543.676	35417.91
543.877	35718.96
544.077	35594.04
544.277	35520.31
544.478	35403.58
544.678	35188.54
544.878	35721.01
545.078	35235.64
545.279	35495.74
545.479	35241.79
545.679	35546.93
545.879	35639.09
546.079	35438.39
546.28	35194.68
546.48	35155.77
546.68	35376.95
546.88	35268.41
547.08	35389.24
547.28	35440.44
547.48	34877.25
547.68	35624.76
547.88	35053.37
548.081	35311.42
548.281	35352.38
548.481	35245.88
548.681	35923.76
548.881	35129.15
549.081	35385.15
549.28	34936.64
549.48	35278.65
549.68	35303.23
549.88	35692.34
550.08	35456.82
550.28	35278.65
550.48	35245.88
550.68	35411.77
550.88	35315.51
551.08	35049.28
551.279	34993.98
551.479	34934.59
551.679	35202.88
551.879	35077.95
552.079	35157.82
552.278	35043.13
552.478	35088.19
552.678	34776.9
552.878	34824
553.077	34989.89
553.277	34955.07
553.477	35495.74
553.676	35211.07
553.876	34944.83
554.076	34965.31
554.275	34633.54
554.475	34461.51
554.674	35045.18
554.874	34889.54
555.074	34463.56
555.273	34981.7
555.473	35196.73
555.672	34572.1
555.872	34449.22
556.071	34850.63
556.271	34989.89
556.47	34621.25
556.67	34434.89
556.869	34377.54
557.068	34817.86
557.268	34086.73
557.467	34244.43
557.667	34326.35
557.866	34277.19
558.065	34201.42
558.265	34285.39
558.464	33834.83
558.663	34510.66
558.863	33711.95
559.062	34559.81
559.261	33834.83
559.461	34289.48
559.66	33816.4
559.859	33644.37
560.058	33480.53
560.258	34176.84
560.457	33238.87
560.656	33650.52
560.855	33408.86
561.054	33462.1
561.253	33337.18
561.453	33408.86
561.652	33496.92
561.851	33701.72
562.05	33447.77
562.249	33148.76
562.448	33576.79
562.647	33081.18
562.846	33277.79
563.045	33091.42
563.244	32421.73
563.443	33255.26
563.642	32851.81
563.841	32798.56
564.04	32823.14
564.239	32962.4
564.438	32618.34
564.637	32499.56
564.836	32515.94
565.035	32114.54
565.234	32604
565.432	32233.32
565.631	32243.56
565.83	32565.09
566.029	32016.24
566.228	32268.14
566.427	32069.48
566.625	31713.14
566.824	31727.47
567.023	31690.61
567.222	31235.96
567.42	31616.88
567.619	31494
567.818	31440.76
568.016	31207.29
568.215	31580.02
568.414	31373.17
568.612	31696.75
568.811	31238.01
569.01	30959.48
569.208	30990.2
569.407	30998.4
569.605	30902.14
569.804	31049.6
570.002	30715.78
570.201	30562.18
570.4	30386.05
570.598	30445.44
570.797	30326.66
570.995	30562.18
571.193	30267.27
571.392	30388.1
571.59	29990.8
571.789	30207.88
571.987	29890.45
572.186	29581.2
572.384	29736.85
572.582	29806.48
572.781	29900.69
572.979	29503.38
573.177	29511.57
573.376	29859.73
573.574	29274.01
573.772	29577.11
573.971	29130.65
574.169	29030.3
574.367	28737.44
574.565	29181.85
574.763	28784.54
574.962	29261.72
575.16	28647.33
575.358	28542.88
575.556	27926.44
575.754	29001.63
575.952	28438.44
576.151	28790.69
576.349	28092.33
576.547	27963.31
576.745	28311.46
576.943	28454.82
577.141	28004.27
577.339	28010.41
577.537	27916.2
577.735	27756.46
577.933	27449.27
578.131	28094.38
578.329	27633.58
578.527	27514.8
578.725	27475.89
578.923	27402.16
579.121	27262.9
579.319	27127.74
579.516	27258.81
579.714	27187.13
579.912	26908.6
580.11	27031.48
580.308	26849.21
580.506	26664.89
580.704	26249.16
580.901	26802.11
581.099	26644.41
581.297	26378.18
581.495	26398.66
581.692	26660.8
581.89	26445.76
582.088	26396.61
582.285	26460.1
582.483	26263.49
582.681	26185.67
582.878	26236.87
583.076	25649.1
583.274	25868.23
583.471	25837.52
583.669	25685.97
583.866	25515.98
584.064	25534.42
584.262	25520.08
584.459	25616.33
584.657	25196.5
584.854	25788.36
585.052	24983.51
585.249	25163.73
585.447	25323.47
585.644	24963.03
585.841	25079.77
586.039	24915.93
586.236	24809.43
586.434	24633.31
586.631	24279.01
586.828	24700.89
587.026	24608.73
587.223	24451.04
587.42	24190.95
587.618	24356.83
587.815	24193
588.012	24432.61
588.21	24045.54
588.407	24225.76
588.604	24074.21
588.801	23844.84
588.999	23695.34
589.196	23613.42
589.393	23576.56
589.59	23681
589.787	23404.53
589.984	23681
590.182	23396.34
590.379	23519.21
590.576	23078.9
590.773	23379.95
590.97	23308.27
591.167	23242.74
591.364	22999.03
591.561	22677.5
591.758	23111.67
591.955	22839.29
592.152	22931.45
592.349	22720.51
592.546	22763.51
592.743	22798.33
592.94	22190.08
593.137	22446.08
593.334	22730.75
593.531	21944.33
593.727	22476.8
593.924	22335.49
594.121	22194.18
594.318	22202.37
594.515	21915.65
594.712	21973
594.908	21635.08
595.105	21946.37
595.302	21606.41
595.499	21948.42
595.696	21702.67
595.892	21583.88
596.089	21624.84
596.286	21467.15
596.482	21583.88
596.679	21239.83
596.876	21041.17
597.072	21286.93
597.269	21198.87
597.466	21229.59
597.662	20877.33
597.859	20955.16
598.055	20912.15
598.252	20858.9
598.448	20402.21
598.645	20326.43
598.841	20514.84
599.038	20412.45
599.234	20742.17
599.431	20582.43
599.627	20449.31
599.824	20387.87
600.02	20199.46
600.217	20310.05
600.413	20230.18
600.609	20004.9
600.806	19955.75
601.002	19703.85
601.198	19888.17
601.395	19644.46
601.591	19574.83
601.787	19605.55
601.984	19488.81
602.18	19660.84
602.376	19546.16
602.572	19454
602.769	19509.29
602.965	19349.55
603.161	19021.88
603.357	18944.05
603.553	19093.55
603.75	19173.42
603.946	18927.67
604.142	18849.85
604.338	18485.31
604.534	18919.48
604.73	18460.73
604.926	18528.31
605.122	18835.51
605.318	18827.32
605.514	18522.17
605.71	18438.2
605.906	18595.9
606.102	18430.01
606.298	18593.85
606.494	18241.6
606.69	18180.16
606.886	18083.91
607.082	17838.15
607.278	18157.63
607.474	17862.72
607.67	18176.06
607.866	17737.8
608.062	18225.22
608.257	17915.97
608.453	17901.64
608.649	17766.47
608.845	17541.19
609.041	17858.63
609.236	17698.89
609.432	17487.95
609.628	17696.84
609.824	17594.44
610.019	17477.71
610.215	17623.11
610.411	17508.43
610.606	17311.82
610.802	17248.33
610.998	17252.43
611.193	17375.31
611.389	17250.38
611.584	17045.59
611.78	17344.59
611.976	17375.31
612.171	17008.72
612.367	16885.84
612.562	16746.58
612.758	16818.26
612.953	16662.62
613.149	17061.97
613.344	16664.66
613.539	16834.64
613.735	17086.54
613.93	16822.36
614.126	16840.79
614.321	16828.5
614.517	17004.63
614.712	16627.8
614.907	16474.2
615.103	16652.38
615.298	16392.28
615.493	16638.04
615.688	16134.24
615.884	16525.4
616.079	16322.65
616.274	16539.74
616.47	16310.36
616.665	16441.43
616.86	16377.95
617.055	15978.59
617.25	16048.22
617.445	16271.45
617.641	15892.58
617.836	16087.14
618.031	15923.3
618.226	16093.28
618.421	15708.26
618.616	16226.4
618.811	15603.82
619.006	15884.39
619.201	15495.27
619.396	15915.11
619.591	15345.77
619.786	15478.89
619.981	15321.2
620.176	15456.36
620.371	14936.18
620.566	15124.59
620.761	15016.05
620.956	15138.93
621.151	14702.71
621.346	14944.37
621.541	14817.4
621.735	14932.08
621.93	14710.9
622.125	14874.74
622.32	14301.31
622.515	14317.69
622.709	14309.5
622.904	14338.17
623.099	14375.03
623.294	14274.68
623.488	13985.92
623.683	14033.02
623.878	13893.76
624.072	14160
624.267	13830.27
624.462	13762.69
624.656	13672.58
624.851	13668.48
625.046	13492.36
625.24	13766.79
625.435	13222.03
625.629	13383.82
625.824	13432.97
626.018	13205.64
626.213	13090.96
626.407	13074.57
626.602	12986.51
626.796	12830.87
626.991	12931.22
627.185	12681.36
627.38	12794
627.574	12607.64
627.768	12521.62
627.963	12490.9
628.157	12466.33
628.352	12476.57
628.546	12189.85
628.74	12318.87
628.935	12034.21
629.129	12064.93
629.323	11907.23
629.517	11868.32
629.712	11847.84
629.906	11835.55
630.1	11618.47
630.294	11878.56
630.489	11589.8
630.683	11960.48
630.877	11475.11
631.071	11471.01
631.265	11385
631.459	11489.45
631.653	11260.07
631.848	11184.3
632.042	11096.24
632.236	11305.13
632.43	11045.04
632.624	11212.97
632.818	11036.84
633.012	10836.14
633.206	10858.67
633.4	10647.73
633.594	10666.16
633.788	10889.39
633.982	10668.21
634.176	10629.3
634.369	10518.71
634.563	10469.56
634.757	10477.75
634.951	10428.6
635.145	10231.99
635.339	10338.49
635.533	9988.28
635.726	10059.96
635.92	10027.2
636.114	10188.99
636.308	9902.27
636.501	9935.04
636.695	9920.7
636.889	9855.17
637.083	9859.26
637.276	9746.62
637.47	9603.27
637.664	9552.07
637.857	9636.03
638.051	9550.02
638.244	9388.23
638.438	9425.09
638.632	9464
638.825	9281.74
639.019	9236.68
639.212	9173.19
639.406	9175.24
639.599	9197.77
639.793	9025.74
639.986	8798.42
640.18	9154.76
640.373	8943.82
640.567	8935.63
640.76	8829.13
640.954	8620.24
641.147	8739.02
641.34	8771.79
641.534	8640.72
641.727	8757.46
641.92	8497.36
642.114	8560.85
642.307	8618.19
642.5	8397.01
642.694	8296.66
642.887	8380.63
643.08	8186.07
643.273	8394.97
643.467	8204.5
643.66	7989.47
643.853	8046.81
644.046	7997.66
644.239	8012
644.432	7876.83
644.626	7932.12
644.819	7805.15
645.012	7655.65
645.205	7901.4
645.398	7741.66
645.591	7735.52
645.784	7698.66
645.977	7520.48
646.17	7555.3
646.363	7551.2
646.556	7387.36
646.749	7610.59
646.942	7375.08
647.135	7403.75
647.328	7268.58
647.521	7149.8
647.714	7268.58
647.907	7336.17
648.099	7086.31
648.292	7076.07
648.485	7192.81
648.678	6854.89
648.871	6867.18
649.064	7108.84
649.256	6994.15
649.449	7006.44
649.642	6768.88
649.835	6844.65
650.027	6711.53
650.22	6633.71
650.413	6670.58
650.605	6725.87
650.798	6600.94
650.991	6559.99
651.183	6498.55
651.376	6547.7
651.568	6469.87
651.761	6437.11
651.954	6244.6
652.146	6430.96
652.339	6365.43
652.531	6322.42
652.724	6390
652.916	6236.41
653.109	6146.3
653.301	6154.49
653.494	6037.75
653.686	6136.06
653.879	6179.06
654.071	6072.57
654.263	6007.03
654.456	6050.04
654.648	5978.36
654.84	5863.68
655.033	5896.44
655.225	5818.62
655.417	5685.5
655.61	5806.33
655.802	5830.91
655.994	5746.94
656.186	5652.74
656.379	5439.75
656.571	5808.38
656.763	5462.27
656.955	5646.59
657.148	5527.81
657.34	5316.87
657.532	5527.81
657.724	5492.99
657.916	5521.67
658.108	5402.88
658.3	5249.29
658.492	5280
658.684	5314.82
658.876	5415.17
659.068	5302.53
659.26	5126.41
659.452	5351.68
659.644	5091.59
659.836	4909.32
660.028	5150.98
660.22	4935.95
660.412	5079.3
660.604	4919.56
660.796	5052.68
660.988	5028.1
661.18	5083.4
661.372	4790.54
661.563	4923.66
661.755	4839.69
661.947	4839.69
662.139	4841.74
662.331	4663.57
662.522	4692.24
662.714	4565.26
662.906	4743.44
663.097	4667.66
663.289	4626.7
663.481	4524.3
663.673	4557.07
663.864	4593.94
664.056	4382.99
664.247	4593.94
664.439	4426
664.631	4471.06
664.822	4512.02
665.014	4440.34
665.205	4430.1
665.397	4407.57
665.588	4423.95
665.78	4274.45
665.971	4382.99
666.163	4346.13
666.354	4299.03
666.546	4235.54
666.737	4200.73
666.929	4221.2
667.12	4145.43
667.311	4227.35
667.503	4110.61
667.694	3961.11
667.885	4118.81
668.077	4040.98
668.268	4030.74
668.459	4069.66
668.651	4014.36
668.842	4024.6
669.033	3887.39
669.224	3948.83
669.416	3932.44
669.607	3954.97
669.798	3889.43
669.989	3944.73
670.18	3950.87
670.371	3860.76
670.563	3698.97
670.754	3856.67
670.945	3846.43
671.136	3815.71
671.327	3690.78
671.518	3823.9
671.709	3834.14
671.9	3744.03
672.091	3676.45
672.282	3668.25
672.473	3563.81
672.664	3809.56
672.855	3678.49
673.046	3647.77
673.237	3621.15
673.428	3711.26
673.619	3707.16
673.809	3555.62
674	3631.39
674.191	3588.38
674.382	3528.99
674.573	3633.44
674.764	3594.53
674.954	3578.14
675.145	3342.63
675.336	3471.65
675.527	3359.01
675.717	3342.63
675.908	3348.77
676.099	3316
676.289	3438.88
676.48	3442.98
676.671	3340.58
676.861	3338.53
677.052	3234.08
677.243	3316
677.433	3352.87
677.624	3227.94
677.814	3359.01
678.005	3270.95
678.195	3320.1
678.386	3275.04
678.576	3154.21
678.767	3219.75
678.957	3070.25
679.148	3160.36
679.338	3168.55
679.529	3170.6
679.719	3162.41
679.909	3332.39
680.1	3189.03
680.29	3186.98
680.481	2955.56
680.671	3109.16
680.861	3045.67
681.052	3162.41
681.242	3094.82
681.432	3189.03
681.622	3062.05
681.813	3012.9
682.003	3045.67
682.193	3103.01
682.383	3152.17
682.573	3205.41
682.764	3047.72
682.954	2998.57
683.144	2967.85
683.334	2986.28
683.524	2947.37
683.714	3004.71
683.904	2910.5
684.094	2881.83
684.284	2783.53
684.474	2955.56
684.664	2898.22
684.854	2933.03
685.044	2867.5
685.234	2900.27
685.424	2924.84
685.614	2922.79
685.804	2894.12
685.994	2863.4
686.184	2890.03
686.374	2943.27
686.564	2816.3
686.753	2775.34
686.943	2763.05
687.133	2787.63
687.323	2789.67
687.513	2670.89
687.702	2791.72
687.892	2758.96
688.082	2750.76
688.272	2726.19
688.461	2597.17
688.651	2726.19
688.841	2812.2
689.03	2691.37
689.22	2640.17
689.41	2697.52
689.599	2730.28
689.789	2697.52
689.979	2746.67
690.168	2601.26
690.358	2629.93
690.547	2640.17
690.737	2783.53
690.926	2505.01
691.116	2505.01
691.305	2611.5
691.495	2572.59
691.684	2548.01
691.874	2664.75
692.063	2423.09
692.252	2494.77
692.442	2515.25
692.631	2361.65
692.82	2455.86
693.01	2382.13
693.199	2380.08
693.388	2531.63
693.578	2427.18
693.767	2447.66
693.956	2449.71
694.146	2359.6
694.335	2439.47
694.524	2441.52
694.713	2357.55
694.902	2359.6
695.092	2378.03
695.281	2361.65
695.47	2406.7
695.659	2392.37
695.848	2318.64
696.037	2400.56
696.226	2365.75
696.415	2316.59
696.604	2388.27
696.793	2294.07
696.982	2439.47
697.171	2416.94
697.36	2294.07
697.549	2244.92
697.738	2332.98
697.927	2429.23
698.116	2304.31
698.305	2373.94
698.494	2208.05
698.683	2421.04
698.872	2279.73
699.061	2398.51
699.25	2328.88
699.438	2361.65
699.627	2316.59
699.816	2441.52
700.005	2281.78
700.193	2294.07
700.382	2431.28
700.571	2177.33
700.76	2367.79
700.948	2324.79
701.137	2234.68
701.326	2451.76
701.514	2181.43
701.703	2255.15
701.892	2308.4
702.08	2380.08
702.269	2302.26
702.457	2099.51
702.646	2349.36
702.834	2308.4
703.023	2380.08
703.212	2246.96
703.4	2201.91
703.589	2249.01
703.777	2279.73
703.965	2244.92
704.154	2177.33
704.342	2261.3
704.531	2224.44
704.719	2154.8
704.907	2277.68
705.096	2226.48
705.284	2279.73
705.472	2160.95
705.661	2222.39
705.849	2332.98
706.037	2101.56
706.226	2289.97
706.414	2177.33
706.602	2160.95
706.79	2300.21
706.979	2124.08
707.167	2214.2
707.355	2263.35
707.543	2226.48
707.731	2335.03
707.919	2136.37
708.107	2263.35
708.296	2206
708.484	2240.82
708.672	2230.58
708.86	2152.76
709.048	2079.03
709.236	2226.48
709.424	2138.42
709.612	2058.55
709.8	2197.81
709.988	2203.96
710.176	2306.35
710.364	2203.96
710.551	2341.17
710.739	2107.7
710.927	2300.21
711.115	2136.37
711.303	2130.23
711.491	2138.42
711.679	2244.92
711.866	2246.96
712.054	2173.24
712.242	2187.57
712.43	2273.59
712.617	2279.73
712.805	2124.08
712.993	2177.33
713.181	2042.17
713.368	2136.37
713.556	2199.86
713.744	2154.8
713.931	2165.04
714.119	2189.62
714.306	2169.14
714.494	2208.05
714.682	2124.08
714.869	2201.91
715.057	2066.74
715.244	2054.45
715.432	2160.95
715.619	2140.47
715.807	2220.34
715.994	2173.24
716.182	2113.85
716.369	2124.08
716.556	2103.61
716.744	2115.89
716.931	2177.33
717.119	2099.51
717.306	2081.08
717.493	2144.56
717.681	2062.65
717.868	2025.78
718.055	2249.01
718.242	2054.45
718.43	2068.79
718.617	2117.94
718.804	2040.12
718.991	2160.95
719.179	2058.55
719.366	2177.33
719.553	2044.21
719.74	2146.61
719.927	2054.45
720.114	2091.32
720.301	2091.32
720.488	2050.36
720.676	2107.7
720.863	2066.74
721.05	2177.33
721.237	2103.61
721.424	2083.13
721.611	2025.78
721.798	2128.18
721.985	2062.65
722.172	1999.16
722.358	1970.49
722.545	2033.97
722.732	2062.65
722.919	2062.65
723.106	2136.37
723.293	2001.21
723.48	2115.89
723.667	2085.17
723.853	2103.61
724.04	1958.2
724.227	2128.18
724.414	1988.92
724.6	2128.18
724.787	2113.85
724.974	2115.89
725.161	2058.55
725.347	1982.78
725.534	1980.73
725.72	1956.15
725.907	2128.18
726.094	2136.37
726.28	2099.51
726.467	1956.15
726.653	2140.47
726.84	1890.62
727.027	2111.8
727.213	1909.05
727.4	2054.45
727.586	1980.73
727.773	1915.19
727.959	1980.73
728.145	2107.7
728.332	2025.78
728.518	2005.3
728.705	2015.54
728.891	2060.6
729.077	1919.29
729.264	1921.34
729.45	1974.58
729.636	2038.07
729.823	1935.67
730.009	1964.34
730.195	2042.17
730.382	2005.3
730.568	2074.93
730.754	2025.78
730.94	1976.63
731.126	1915.19
731.313	2119.99
731.499	1925.43
731.685	2136.37
731.871	1962.3
732.057	1859.9
732.243	2040.12
732.429	1935.67
732.615	1915.19
732.801	1927.48
732.987	1827.13
733.173	1851.71
733.359	1917.24
733.545	1937.72
733.731	1935.67
733.917	1859.9
734.103	1950.01
734.289	2027.83
734.475	1941.82
734.661	1972.54
734.847	1984.82
735.033	2029.88
735.219	1917.24
735.404	1882.42
735.59	1825.08
735.776	1839.42
735.962	1857.85
736.148	1933.62
736.333	1925.43
736.519	1866.04
736.705	1876.28
736.89	1907
737.076	2058.55
737.262	1876.28
737.447	1823.03
737.633	1784.12
737.819	1872.18
738.004	1863.99
738.19	1759.55
738.375	1802.55
738.561	1950.01
738.747	1829.18
738.932	1765.69
739.118	1759.55
739.303	1917.24
739.489	1857.85
739.674	1827.13
739.859	1718.59
740.045	1775.93
740.23	1835.32
740.416	1751.35
740.601	1835.32
740.786	1653.05
740.972	1818.94
741.157	1784.12
741.342	1818.94
741.528	1745.21
741.713	1790.27
741.898	1640.76
742.084	1734.97
742.269	1648.96
742.454	1655.1
742.639	1702.2
742.824	1718.59
743.01	1630.52
743.195	1648.96
743.38	1704.25
743.565	1505.6
743.75	1573.18
743.935	1681.72
744.12	1689.92
744.305	1579.33
744.49	1710.4
744.675	1587.52
744.86	1644.86
745.045	1630.52
745.23	1614.14
745.415	1673.53
745.6	1521.98
745.785	1552.7
745.97	1579.33
746.155	1595.71
746.34	1587.52
746.525	1620.28
746.71	1603.9
746.895	1579.33
747.079	1489.21
747.264	1524.03
747.449	1550.65
747.634	1481.02
747.819	1579.33
748.003	1583.42
748.188	1546.56
748.373	1431.87
748.557	1378.62
748.742	1495.36
748.927	1399.1
749.111	1450.3
749.296	1448.26
749.481	1505.6
749.665	1417.54
749.85	1491.26
750.034	1399.1
750.219	1489.21
750.404	1341.76
750.588	1392.96
750.773	1315.14
750.957	1292.61
751.141	1435.97
751.326	1298.75
751.51	1308.99
751.695	1327.43
751.879	1325.38
752.064	1292.61
752.248	1282.37
752.432	1255.75
752.617	1374.53
752.801	1286.47
752.985	1276.23
753.17	1233.22
753.354	1251.65
753.538	1317.19
753.722	1169.73
753.907	1122.63
754.091	1114.44
754.275	1182.02
754.459	1210.69
754.643	1100.1
754.828	1134.92
755.012	1163.59
755.196	1169.73
755.38	1028.42
755.564	1100.1
755.748	1190.21
755.932	1124.68
756.116	1116.48
756.3	1075.52
756.484	1124.68
756.668	1251.65
756.852	1169.73
757.036	1044.81
757.22	1065.29
757.404	1050.95
757.588	1034.57
757.772	1091.91
757.956	964.93
758.14	1120.58
758.323	981.32
758.507	1059.14
758.691	1022.28
758.875	973.13
759.059	1053
759.242	997.7
759.426	1018.18
759.61	1014.09
759.794	985.41
759.977	964.93
760.161	1007.94
760.345	1046.85
760.528	985.41
760.712	915.78
760.895	999.75
761.079	960.84
761.263	860.49
761.446	923.98
761.63	809.29
761.813	860.49
761.997	915.78
762.18	835.91
762.364	932.17
762.547	862.54
762.731	909.64
762.914	907.59
763.098	866.63
763.281	958.79
763.464	878.92
763.648	981.32
763.831	885.06
764.015	907.59
764.198	874.82
764.381	936.26
764.564	844.1
764.748	885.06
764.931	778.57
765.114	833.86
765.297	743.75
765.481	751.95
765.664	825.67
765.847	860.49
766.03	878.92
766.213	833.86
766.397	852.3
766.58	842.06
766.763	889.16
766.946	809.29
767.129	850.25
767.312	850.25
767.495	829.77
767.678	842.06
767.861	780.62
768.044	885.06
768.227	772.43
768.41	772.43
768.593	784.71
768.776	735.56
768.959	868.68
769.142	764.23
769.324	792.91
769.507	766.28
769.69	809.29
769.873	702.79
770.056	858.44
770.239	719.18
770.421	815.43
770.604	731.47
770.787	821.58
770.97	739.66
771.152	747.85
771.335	833.86
771.518	702.79
771.7	776.52
771.883	797
772.066	674.12
772.248	735.56
772.431	704.84
772.613	751.95
772.796	692.55
772.978	731.47
773.161	661.84
773.343	688.46
773.526	696.65
773.708	698.7
773.891	670.03
774.073	702.79
774.256	645.45
774.438	764.23
774.621	647.5
774.803	629.07
774.985	694.6
775.168	655.69
775.35	637.26
775.532	672.08
775.715	649.55
775.897	694.6
776.079	604.49
776.261	680.27
776.444	571.72
776.626	598.35
776.808	604.49
776.99	545.1
777.173	608.59
777.355	674.12
777.537	571.72
777.719	571.72
777.901	522.57
778.083	483.66
778.265	491.85
778.447	571.72
778.629	538.96
778.811	641.36
778.993	498
779.175	588.11
779.357	567.63
779.539	454.99
779.721	506.19
779.903	557.39
780.085	536.91
780.267	567.63
780.449	473.42
780.631	581.96
780.812	485.71
780.994	416.08
781.176	541.01
781.358	473.42
781.54	467.28
781.721	532.81
781.903	487.76
782.085	465.23
782.267	526.67
782.448	502.09
782.63	551.24
782.812	573.77
782.993	512.33
783.175	526.67
783.357	467.28
783.538	438.61
783.72	436.56
783.901	416.08
784.083	473.42
784.264	432.46
784.446	446.8
784.627	493.9
784.809	457.04
784.99	424.27
785.172	416.08
785.353	487.76
785.535	366.93
785.716	375.12
785.897	377.17
786.079	510.29
786.26	387.41
786.441	383.31
786.623	317.78
786.804	358.74
786.985	399.7
787.167	303.44
787.348	452.94
787.529	375.12
787.71	375.12
787.891	375.12
788.073	336.21
788.254	303.44
788.435	416.08
788.616	502.09
788.797	307.54
788.978	350.54
789.159	385.36
789.34	325.97
789.522	371.02
789.703	321.87
789.884	350.54
790.065	330.06
790.246	377.17
790.427	342.35
790.607	368.98
790.788	401.74
790.969	391.5
791.15	342.35
791.331	301.39
791.512	293.2
791.693	303.44
791.874	227.67
792.054	301.39
792.235	213.33
792.416	330.06
792.597	289.1
792.778	260.43
792.958	332.11
793.139	321.87
793.32	360.78
793.5	285.01
793.681	338.26
793.862	325.97
794.042	319.82
794.223	319.82
794.404	227.67
794.584	235.86
794.765	262.48
794.945	278.87
795.126	317.78
795.306	297.3
795.487	178.51
795.667	266.58
795.848	285.01
796.028	311.63
796.209	317.78
796.389	260.43
796.57	207.19
796.75	244.05
796.93	164.18
797.111	254.29
797.291	239.95
797.471	317.78
797.652	151.89
797.832	297.3
798.012	313.68
798.192	235.86
798.373	227.67
798.553	278.87
798.733	301.39
798.913	182.61
799.093	256.34
799.274	264.53
799.454	246.1
799.634	178.51
799.814	244.05
799.994	203.09
800.174	280.91
800.354	145.75
800.534	168.27
800.714	262.48
800.894	166.23
801.074	207.19
801.254	221.52
801.434	270.67
801.614	252.24
801.794	153.94
801.974	885.06
802.154	196.95
802.334	153.94
802.514	248.15
802.693	229.71
802.873	225.62
803.053	221.52
803.233	270.67
803.413	129.36
803.592	164.18
803.772	219.47
803.952	135.51
804.131	180.56
804.311	213.33
804.491	215.38
804.67	190.8
804.85	235.86
805.03	196.95
805.209	221.52
805.389	174.42
805.568	213.33
805.748	155.99
805.928	190.8
806.107	198.99
806.287	129.36
806.466	145.75
806.646	186.71
806.825	145.75
807.004	164.18
807.184	143.7
807.363	244.05
807.543	170.32
807.722	147.8
807.901	244.05
808.081	295.25
808.26	123.22
808.439	153.94
808.619	178.51
808.798	121.17
808.977	221.52
809.156	217.43
809.336	221.52
809.515	119.12
809.694	98.64
809.873	178.51
810.052	155.99
810.231	186.71
810.411	186.71
810.59	155.99
810.769	131.41
810.948	110.93
811.127	88.4
811.306	137.56
811.485	160.08
811.664	135.51
811.843	106.84
812.022	194.9
812.201	131.41
812.38	72.02
812.559	96.6
812.737	186.71
812.916	57.68
813.095	121.17
813.274	164.18
813.453	203.09
813.632	182.61
813.811	213.33
813.989	125.27
814.168	178.51
814.347	74.07
814.526	74.07
814.704	180.56
814.883	158.03
815.062	203.09
815.24	98.64
815.419	59.73
815.598	188.75
815.776	145.75
815.955	117.08
816.133	96.6
816.312	57.68
816.49	84.31
816.669	186.71
816.847	39.25
817.026	192.85
817.204	131.41
817.383	123.22
817.561	26.96
817.74	121.17
817.918	90.45
818.097	145.75
818.275	102.74
818.453	67.92
818.632	162.13
818.81	170.32
818.988	125.27
819.167	90.45
819.345	65.88
819.523	55.64
819.701	102.74
819.879	135.51
820.058	158.03
820.236	88.4
820.414	112.98
820.592	112.98
820.77	49.49
820.948	92.5
821.127	125.27
821.305	129.36
821.483	51.54
821.661	102.74
821.839	125.27
822.017	121.17
822.195	96.6
822.373	123.22
822.551	123.22
822.729	123.22
822.907	164.18
823.085	178.51
823.262	63.83
823.44	41.3
823.618	104.79
823.796	145.75
823.974	80.21
824.152	112.98
824.329	141.65
824.507	133.46
824.685	129.36
824.863	123.22
825.04	96.6
825.218	127.32
825.396	76.12
825.574	131.41
825.751	72.02
825.929	82.26
826.107	123.22
826.284	131.41
826.462	78.16
826.639	104.79
826.817	98.64
826.994	88.4
827.172	31.06
827.349	100.69
827.527	104.79
827.704	112.98
827.882	104.79
828.059	92.5
828.237	61.78
828.414	115.03
828.591	33.11
828.769	104.79
828.946	41.3
829.124	90.45
829.301	53.59
829.478	108.88
829.655	43.35
829.833	16.73
830.01	-1.71
830.187	76.12
830.364	37.2
830.542	41.3
830.719	55.64
830.896	106.84
831.073	24.92
831.25	55.64
831.427	127.32
831.604	55.64
831.782	80.21
831.959	92.5
832.136	123.22
832.313	117.08
832.49	53.59
832.667	98.64
832.844	18.77
833.021	55.64
833.198	88.4
833.374	72.02
833.551	164.18
833.728	69.97
833.905	104.79
834.082	18.77
834.259	98.64
834.436	112.98
834.612	45.4
834.789	65.88
834.966	37.2
835.143	117.08
835.319	49.49
835.496	129.36
835.673	100.69
835.85	96.6
836.026	39.25
836.203	158.03
836.38	6.49
836.556	69.97
836.733	49.49
836.909	61.78
837.086	47.44
837.262	61.78
837.439	31.06
837.616	41.3
837.792	121.17
837.968	43.35
838.145	94.55
838.321	137.56
838.498	88.4
838.674	-1.71
838.851	80.21
839.027	63.83
839.203	49.49
839.38	104.79
839.556	35.16
839.732	139.6
839.909	72.02
840.085	39.25
840.261	22.87
840.437	72.02
840.614	90.45
840.79	57.68
840.966	43.35
841.142	8.53
841.318	-11.95
841.494	39.25
841.671	-5.8
841.847	72.02
842.023	-46.76
842.199	104.79
842.375	72.02
842.551	18.77
842.727	43.35
842.903	164.18
843.079	20.82
843.255	39.25
843.431	14.68
843.607	65.88
843.783	-1.71
843.959	174.42
844.134	20.82
844.31	137.56
844.486	37.2
844.662	16.73
844.838	86.36
845.013	92.5
845.189	137.56
845.365	84.31
845.541	24.92
845.716	47.44
845.892	84.31
846.068	117.08
846.244	6.49
846.419	84.31
846.595	41.3
846.77	65.88
846.946	49.49
847.122	53.59
847.297	-18.09
847.473	55.64
847.648	49.49
847.824	88.4
847.999	10.58
848.175	8.53
848.35	82.26
848.526	137.56
848.701	47.44
848.876	92.5
849.052	-3.75
849.227	22.87
849.403	22.87
849.578	-18.09
849.753	59.73
849.929	96.6
850.104	43.35
850.279	-65.19
850.454	74.07
850.63	82.26
850.805	57.68
850.98	47.44
851.155	-57
851.33	72.02
851.505	14.68
851.681	74.07
851.856	49.49
852.031	74.07
852.206	67.92
852.381	59.73
852.556	6.49
852.731	16.73
852.906	63.83
853.081	-1.71
853.256	55.64
853.431	55.64
853.606	-7.85
853.781	14.68
853.956	6.49
854.131	26.96
854.305	96.6
854.48	-3.75
854.655	39.25
854.83	20.82
855.005	6.49
855.18	33.11
855.354	10.58
855.529	47.44
855.704	6.49
855.879	96.6
856.053	14.68
856.228	-34.47
856.403	-18.09
856.577	72.02
856.752	-16.04
856.926	74.07
857.101	63.83
857.276	-9.9
857.45	18.77
857.625	49.49
857.799	8.53
857.974	41.3
858.148	-52.91
858.323	31.06
858.497	-9.9
858.672	84.31
858.846	8.53
859.02	24.92
859.195	67.92
859.369	16.73
859.543	31.06
859.718	20.82
859.892	-1.71
860.066	31.06
860.241	0.34
860.415	6.49
860.589	-24.23
860.763	31.06
860.938	26.96
861.112	55.64
861.286	-16.04
861.46	94.55
861.634	63.83
861.808	90.45
861.982	24.92
862.157	43.35
862.331	20.82
862.505	-67.24
862.679	-9.9
862.853	-5.8
863.027	-24.23
863.201	33.11
863.375	39.25
863.549	39.25
863.722	-34.47
863.896	37.2
864.07	2.39
864.244	22.87
864.418	-5.8
864.592	-26.28
864.766	51.54
864.939	22.87
865.113	2.39
865.287	65.88
865.461	-13.99
865.634	55.64
865.808	18.77
865.982	49.49
866.156	43.35
866.329	6.49
866.503	63.83
866.676	22.87
866.85	10.58
867.024	24.92
867.197	39.25
867.371	80.21
867.544	33.11
867.718	-18.09
867.891	22.87
868.065	-22.19
868.238	47.44
868.412	45.4
868.585	12.63
868.759	18.77
868.932	43.35
869.105	31.06
869.279	37.2
869.452	47.44
869.625	96.6
869.799	47.44
869.972	-65.19
870.145	6.49
870.319	-11.95
870.492	14.68
870.665	-32.43
870.838	-26.28
871.011	-22.19
871.185	26.96
871.358	-9.9
871.531	22.87
871.704	-22.19
871.877	39.25
872.05	26.96
872.223	-13.99
872.396	-50.86
872.569	51.54
872.742	24.92
872.915	47.44
873.088	-32.43
873.261	43.35
873.434	33.11
873.607	47.44
873.78	88.4
873.953	51.54
874.126	4.44
874.299	74.07
874.471	-22.19
874.644	74.07
874.817	-7.85
874.99	47.44
875.163	8.53
875.335	12.63
875.508	35.16
875.681	82.26
875.853	-18.09
876.026	-26.28
876.199	106.84
876.371	-22.19
876.544	16.73
876.717	33.11
876.889	47.44
877.062	-38.57
877.234	-26.28
877.407	26.96
877.579	57.68
877.752	24.92
877.924	49.49
878.097	84.31
878.269	16.73
878.442	72.02
878.614	-18.09
878.786	67.92
878.959	26.96
879.131	43.35
879.303	-7.85
879.476	-9.9
879.648	31.06
879.82	-63.15
879.993	61.78
880.165	74.07
880.337	49.49
880.509	31.06
880.681	-16.04
880.854	-1.71
881.026	69.97
881.198	117.08
881.37	33.11
881.542	59.73
881.714	6.49
881.886	35.16
882.058	59.73
882.23	-1.71
882.402	65.88
882.574	26.96
882.746	-34.47
882.918	4.44
883.09	29.01
883.262	33.11
883.434	0.34
883.606	4.44
883.778	51.54
883.95	67.92
884.122	51.54
884.293	14.68
884.465	2.39
884.637	35.16
884.809	61.78
884.98	-46.76
885.152	0.34
885.324	6.49
885.496	-42.67
885.667	-93.87
885.839	-50.86
886.011	10.58
886.182	10.58
886.354	-65.19
886.525	22.87
886.697	14.68
886.869	35.16
887.04	12.63
887.212	-26.28
887.383	67.92
887.555	41.3
887.726	8.53
887.897	-59.05
888.069	22.87
888.24	-7.85
888.412	31.06
888.583	6.49
888.754	51.54
888.926	-26.28
889.097	41.3
889.268	-85.67
889.44	6.49
889.611	76.12
889.782	76.12
889.953	-67.24
890.125	-24.23
890.296	0.34
890.467	8.53
890.638	20.82
890.809	39.25
890.98	-34.47
891.151	80.21
891.323	33.11
891.494	8.53
891.665	41.3
891.836	-26.28
892.007	-7.85
892.178	41.3
892.349	-5.8
892.52	-71.34
892.691	-50.86
892.862	-7.85
893.032	10.58
893.203	67.92
893.374	35.16
893.545	106.84
893.716	-16.04
893.887	80.21
894.057	31.06
894.228	-1.71
894.399	18.77
894.57	90.45
894.74	98.64
894.911	49.49
895.082	-9.9
895.253	57.68
895.423	-22.19
895.594	82.26
895.764	-1.71
895.935	24.92
896.106	18.77
896.276	41.3
896.447	33.11
896.617	14.68
896.788	10.58
896.958	22.87
897.129	31.06
897.299	-3.75
897.47	35.16
897.64	22.87
897.81	63.83
897.981	55.64
898.151	-5.8
898.322	76.12
898.492	22.87
898.662	-1.71
898.832	-104.11
899.003	55.64
899.173	-20.14
899.343	-22.19
899.513	-1.71
