Data from USB4F104151__40__14-42-56-063.txt Node

Date: Thu Mar 13 14:42:56 EDT 2025
User: louis
Spectrometer: USB4F10415
Trigger mode: 4
Integration Time (sec): 2.000000E-2
Scans to average: 1
Electric dark correction enabled: true
Nonlinearity correction enabled: false
Boxcar width: 0
XAxis mode: Wavelengths
Number of Pixels in Spectrum: 3648
>>>>>Begin Spectral Data<<<<<
178.204	-168.27
178.424	-168.27
178.644	-168.27
178.864	-149.84
179.084	-217.43
179.304	-2.39
179.524	-63.83
179.744	52.91
179.964	-31.06
180.184	22.19
180.404	9.9
180.624	-26.96
180.844	-12.63
181.064	11.95
181.283	67.24
181.503	-39.25
181.723	11.95
181.943	-45.4
182.163	65.19
182.383	26.28
182.602	26.28
182.822	73.39
183.042	38.57
183.262	67.24
183.482	-0.34
183.701	30.38
183.921	36.52
184.141	-47.44
184.361	50.86
184.58	30.38
184.8	52.91
185.02	5.8
185.239	67.24
185.459	30.38
185.679	46.76
185.898	-31.06
186.118	5.8
186.338	9.9
186.557	20.14
186.777	-6.49
186.997	36.52
187.216	22.19
187.436	34.47
187.655	46.76
187.875	44.71
188.095	-4.44
188.314	46.76
188.534	3.75
188.753	1.71
188.973	69.29
189.192	106.15
189.412	38.57
189.631	3.75
189.851	83.63
190.07	63.15
190.29	42.67
190.509	-29.01
190.729	85.67
190.948	151.21
191.168	116.39
191.387	91.82
191.607	1.71
191.826	16.04
192.045	-10.58
192.265	44.71
192.484	20.14
192.704	-14.68
192.923	38.57
193.142	114.34
193.362	59.05
193.581	46.76
193.8	63.15
194.02	87.72
194.239	-31.06
194.458	48.81
194.678	-53.59
194.897	-102.74
195.116	77.48
195.335	63.15
195.555	-4.44
195.774	63.15
195.993	11.95
196.212	59.05
196.432	-10.58
196.651	46.76
196.87	-18.77
197.089	67.24
197.308	67.24
197.528	61.1
197.747	-31.06
197.966	83.63
198.185	91.82
198.404	-61.78
198.623	30.38
198.842	69.29
199.062	138.92
199.281	75.43
199.5	46.76
199.719	13.99
199.938	38.57
200.157	102.06
200.376	61.1
200.595	171.69
200.814	65.19
201.033	30.38
201.252	143.02
201.471	67.24
201.69	91.82
201.909	36.52
202.128	85.67
202.347	22.19
202.566	44.71
202.785	-6.49
203.004	63.15
203.223	83.63
203.442	22.19
203.661	16.04
203.879	-2.39
204.098	-22.87
204.317	26.28
204.536	34.47
204.755	77.48
204.974	11.95
205.193	30.38
205.411	69.29
205.63	-20.82
205.849	26.28
206.068	100.01
206.287	79.53
206.505	112.3
206.724	24.23
206.943	9.9
207.162	-69.97
207.381	20.14
207.599	83.63
207.818	46.76
208.037	-26.96
208.255	-39.25
208.474	-4.44
208.693	26.28
208.911	38.57
209.13	83.63
209.349	11.95
209.567	79.53
209.786	81.58
210.005	50.86
210.223	26.28
210.442	-45.4
210.661	54.95
210.879	73.39
211.098	20.14
211.316	26.28
211.535	85.67
211.753	18.09
211.972	67.24
212.191	57
212.409	59.05
212.628	42.67
212.846	-39.25
213.065	30.38
213.283	153.26
213.502	-20.82
213.72	9.9
213.938	83.63
214.157	38.57
214.375	7.85
214.594	36.52
214.812	36.52
215.031	22.19
215.249	-22.87
215.467	100.01
215.686	-10.58
215.904	26.28
216.122	73.39
216.341	93.87
216.559	-24.92
216.778	36.52
216.996	16.04
217.214	59.05
217.432	9.9
217.651	83.63
217.869	-6.49
218.087	11.95
218.306	30.38
218.524	61.1
218.742	-22.87
218.96	59.05
219.179	-4.44
219.397	26.28
219.615	134.82
219.833	91.82
220.051	-4.44
220.27	83.63
220.488	52.91
220.706	91.82
220.924	24.23
221.142	18.09
221.36	44.71
221.578	50.86
221.796	-24.92
222.015	46.76
222.233	50.86
222.451	46.76
222.669	42.67
222.887	13.99
223.105	-26.96
223.323	77.48
223.541	11.95
223.759	36.52
223.977	26.28
224.195	95.91
224.413	112.3
224.631	9.9
224.849	54.95
225.067	120.49
225.285	50.86
225.503	-14.68
225.721	-72.02
225.939	-29.01
226.157	18.09
226.375	157.35
226.592	-2.39
226.81	63.15
227.028	59.05
227.246	36.52
227.464	-6.49
227.682	-20.82
227.9	44.71
228.117	18.09
228.335	83.63
228.553	11.95
228.771	32.43
228.989	-4.44
229.206	-67.92
229.424	50.86
229.642	83.63
229.86	-4.44
230.077	61.1
230.295	69.29
230.513	9.9
230.731	36.52
230.948	89.77
231.166	75.43
231.384	-8.53
231.601	-24.92
231.819	50.86
232.037	-22.87
232.254	1.71
232.472	-14.68
232.689	11.95
232.907	112.3
233.125	-2.39
233.342	85.67
233.56	18.09
233.777	1.71
233.995	36.52
234.213	151.21
234.43	69.29
234.648	3.75
234.865	57
235.083	77.48
235.3	-22.87
235.518	69.29
235.735	85.67
235.953	3.75
236.17	110.25
236.388	118.44
236.605	11.95
236.822	30.38
237.04	110.25
237.257	73.39
237.475	-39.25
237.692	59.05
237.909	50.86
238.127	20.14
238.344	-0.34
238.562	46.76
238.779	3.75
238.996	28.33
239.214	22.19
239.431	50.86
239.648	9.9
239.865	11.95
240.083	22.19
240.3	36.52
240.517	50.86
240.735	75.43
240.952	100.01
241.169	79.53
241.386	87.72
241.603	61.1
241.821	-20.82
242.038	85.67
242.255	42.67
242.472	32.43
242.689	22.19
242.907	46.76
243.124	120.49
243.341	-26.96
243.558	13.99
243.775	57
243.992	-26.96
244.209	22.19
244.426	26.28
244.643	38.57
244.86	-18.77
245.078	126.63
245.295	18.09
245.512	1.71
245.729	40.62
245.946	32.43
246.163	-20.82
246.38	63.15
246.597	42.67
246.814	20.14
247.031	-31.06
247.248	95.91
247.464	71.34
247.681	46.76
247.898	22.19
248.115	61.1
248.332	100.01
248.549	120.49
248.766	140.97
248.983	38.57
249.2	1.71
249.417	91.82
249.633	20.14
249.85	36.52
250.067	-59.73
250.284	-8.53
250.501	-14.68
250.717	-24.92
250.934	34.47
251.151	95.91
251.368	9.9
251.585	42.67
251.801	46.76
252.018	1.71
252.235	52.91
252.451	-39.25
252.668	28.33
252.885	93.87
253.102	63.15
253.318	26.28
253.535	48.81
253.752	61.1
253.968	13.99
254.185	-14.68
254.401	42.67
254.618	132.78
254.835	-31.06
255.051	-39.25
255.268	71.34
255.484	67.24
255.701	75.43
255.917	136.87
256.134	38.57
256.351	38.57
256.567	61.1
256.784	16.04
257	-39.25
257.217	83.63
257.433	26.28
257.65	61.1
257.866	42.67
258.082	20.14
258.299	-67.92
258.515	93.87
258.732	20.14
258.948	48.81
259.165	-57.68
259.381	83.63
259.597	38.57
259.814	-67.92
260.03	38.57
260.246	52.91
260.463	42.67
260.679	50.86
260.895	100.01
261.112	75.43
261.328	87.72
261.544	67.24
261.761	124.58
261.977	42.67
262.193	22.19
262.409	124.58
262.626	91.82
262.842	83.63
263.058	1.71
263.274	42.67
263.49	85.67
263.707	79.53
263.923	-8.53
264.139	-35.16
264.355	42.67
264.571	83.63
264.787	59.05
265.004	38.57
265.22	13.99
265.436	48.81
265.652	30.38
265.868	132.78
266.084	1.71
266.3	46.76
266.516	38.57
266.732	108.2
266.948	9.9
267.164	28.33
267.38	20.14
267.596	50.86
267.812	126.63
268.028	36.52
268.244	5.8
268.46	38.57
268.676	11.95
268.892	52.91
269.108	30.38
269.324	-6.49
269.54	-35.16
269.756	36.52
269.972	34.47
270.188	34.47
270.403	1.71
270.619	54.95
270.835	67.24
271.051	34.47
271.267	42.67
271.483	71.34
271.698	97.96
271.914	22.19
272.13	50.86
272.346	75.43
272.562	22.19
272.777	75.43
272.993	9.9
273.209	-6.49
273.425	69.29
273.64	5.8
273.856	-14.68
274.072	-45.4
274.287	79.53
274.503	108.2
274.719	54.95
274.934	-18.77
275.15	-6.49
275.366	52.91
275.581	34.47
275.797	77.48
276.012	71.34
276.228	36.52
276.444	42.67
276.659	22.19
276.875	30.38
277.09	75.43
277.306	87.72
277.521	91.82
277.737	-2.39
277.952	5.8
278.168	79.53
278.383	11.95
278.599	34.47
278.814	57
279.03	9.9
279.245	140.97
279.461	-14.68
279.676	42.67
279.892	28.33
280.107	16.04
280.322	20.14
280.538	-18.77
280.753	24.23
280.969	77.48
281.184	-12.63
281.399	50.86
281.615	97.96
281.83	24.23
282.045	30.38
282.26	5.8
282.476	9.9
282.691	-4.44
282.906	57
283.122	52.91
283.337	93.87
283.552	50.86
283.767	59.05
283.983	165.54
284.198	116.39
284.413	93.87
284.628	26.28
284.843	102.06
285.058	5.8
285.274	-16.73
285.489	-20.82
285.704	87.72
285.919	36.52
286.134	13.99
286.349	83.63
286.564	-22.87
286.779	71.34
286.995	50.86
287.21	-10.58
287.425	81.58
287.64	-14.68
287.855	42.67
288.07	1.71
288.285	67.24
288.5	104.11
288.715	42.67
288.93	18.09
289.145	-18.77
289.36	32.43
289.575	42.67
289.79	26.28
290.004	-29.01
290.219	67.24
290.434	34.47
290.649	50.86
290.864	71.34
291.079	57
291.294	89.77
291.509	116.39
291.724	85.67
291.938	11.95
292.153	100.01
292.368	1.71
292.583	61.1
292.798	-6.49
293.012	83.63
293.227	-2.39
293.442	44.71
293.657	69.29
293.871	34.47
294.086	-4.44
294.301	20.14
294.516	22.19
294.73	79.53
294.945	13.99
295.16	5.8
295.374	54.95
295.589	44.71
295.804	-31.06
296.018	34.47
296.233	91.82
296.447	100.01
296.662	3.75
296.877	9.9
297.091	34.47
297.306	102.06
297.52	-10.58
297.735	79.53
297.949	44.71
298.164	54.95
298.378	34.47
298.593	-10.58
298.807	-29.01
299.022	-74.07
299.236	102.06
299.451	26.28
299.665	59.05
299.88	75.43
300.094	85.67
300.309	26.28
300.523	52.91
300.737	22.19
300.952	34.47
301.166	38.57
301.381	-4.44
301.595	24.23
301.809	18.09
302.024	36.52
302.238	-14.68
302.452	61.1
302.667	18.09
302.881	46.76
303.095	42.67
303.309	140.97
303.524	54.95
303.738	52.91
303.952	42.67
304.166	24.23
304.381	26.28
304.595	22.19
304.809	34.47
305.023	18.09
305.237	22.19
305.452	87.72
305.666	102.06
305.88	30.38
306.094	34.47
306.308	40.62
306.522	54.95
306.736	50.86
306.95	34.47
307.164	11.95
307.379	9.9
307.593	38.57
307.807	59.05
308.021	59.05
308.235	42.67
308.449	79.53
308.663	42.67
308.877	69.29
309.091	63.15
309.305	9.9
309.519	24.23
309.733	102.06
309.947	-18.77
310.161	44.71
310.374	-18.77
310.588	61.1
310.802	97.96
311.016	46.76
311.23	38.57
311.444	-24.92
311.658	-47.44
311.872	65.19
312.085	69.29
312.299	91.82
312.513	26.28
312.727	61.1
312.941	9.9
313.154	91.82
313.368	-31.06
313.582	26.28
313.796	32.43
314.009	63.15
314.223	36.52
314.437	46.76
314.651	91.82
314.864	9.9
315.078	83.63
315.292	-6.49
315.505	50.86
315.719	65.19
315.933	13.99
316.146	11.95
316.36	20.14
316.573	112.3
316.787	75.43
317.001	59.05
317.214	36.52
317.428	48.81
317.641	-20.82
317.855	83.63
318.068	83.63
318.282	9.9
318.495	52.91
318.709	30.38
318.922	54.95
319.136	108.2
319.349	93.87
319.563	-14.68
319.776	134.82
319.99	59.05
320.203	50.86
320.417	50.86
320.63	9.9
320.843	75.43
321.057	112.3
321.27	69.29
321.483	13.99
321.697	132.78
321.91	140.97
322.124	46.76
322.337	83.63
322.55	-6.49
322.763	-31.06
322.977	71.34
323.19	-31.06
323.403	54.95
323.617	-6.49
323.83	69.29
324.043	38.57
324.256	-29.01
324.469	75.43
324.683	38.57
324.896	-76.12
325.109	1.71
325.322	95.91
325.535	57
325.748	9.9
325.962	93.87
326.175	9.9
326.388	100.01
326.601	18.09
326.814	91.82
327.027	-26.96
327.24	71.34
327.453	1.71
327.666	34.47
327.879	34.47
328.092	-6.49
328.305	93.87
328.518	-37.2
328.731	9.9
328.944	16.04
329.157	69.29
329.37	89.77
329.583	75.43
329.796	69.29
330.009	59.05
330.222	100.01
330.435	52.91
330.648	3.75
330.861	67.24
331.073	36.52
331.286	63.15
331.499	63.15
331.712	-6.49
331.925	75.43
332.138	-6.49
332.35	9.9
332.563	30.38
332.776	104.11
332.989	30.38
333.202	85.67
333.414	11.95
333.627	11.95
333.84	50.86
334.053	24.23
334.265	30.38
334.478	22.19
334.691	30.38
334.903	46.76
335.116	52.91
335.329	106.15
335.541	93.87
335.754	153.26
335.966	-67.92
336.179	77.48
336.392	26.28
336.604	-18.77
336.817	46.76
337.029	42.67
337.242	63.15
337.454	89.77
337.667	-39.25
337.88	75.43
338.092	118.44
338.305	20.14
338.517	9.9
338.729	-14.68
338.942	79.53
339.154	1.71
339.367	83.63
339.579	-6.49
339.792	77.48
340.004	83.63
340.217	-14.68
340.429	22.19
340.641	65.19
340.854	24.23
341.066	91.82
341.278	108.2
341.491	151.21
341.703	-20.82
341.915	20.14
342.128	67.24
342.34	48.81
342.552	77.48
342.764	65.19
342.977	18.09
343.189	77.48
343.401	18.09
343.613	11.95
343.826	128.68
344.038	140.97
344.25	20.14
344.462	26.28
344.674	9.9
344.886	-53.59
345.099	69.29
345.311	13.99
345.523	42.67
345.735	44.71
345.947	-22.87
346.159	79.53
346.371	50.86
346.583	57
346.795	110.25
347.007	95.91
347.219	67.24
347.431	102.06
347.643	143.02
347.855	36.52
348.067	81.58
348.279	1.71
348.491	65.19
348.703	59.05
348.915	77.48
349.127	79.53
349.339	118.44
349.551	69.29
349.763	87.72
349.975	7.85
350.187	77.48
350.399	54.95
350.61	-0.34
350.822	50.86
351.034	22.19
351.246	42.67
351.458	95.91
351.669	124.58
351.881	79.53
352.093	112.3
352.305	87.72
352.517	-35.16
352.728	108.2
352.94	91.82
353.152	-20.82
353.363	42.67
353.575	50.86
353.787	77.48
353.999	83.63
354.21	75.43
354.422	18.09
354.633	75.43
354.845	85.67
355.057	38.57
355.268	28.33
355.48	34.47
355.692	-14.68
355.903	-31.06
356.115	18.09
356.326	42.67
356.538	77.48
356.749	100.01
356.961	140.97
357.172	54.95
357.384	-6.49
357.595	95.91
357.807	54.95
358.018	22.19
358.23	38.57
358.441	77.48
358.653	106.15
358.864	42.67
359.075	50.86
359.287	1.71
359.498	85.67
359.709	36.52
359.921	44.71
360.132	77.48
360.344	30.38
360.555	30.38
360.766	52.91
360.977	28.33
361.189	104.11
361.4	28.33
361.611	97.96
361.823	65.19
362.034	71.34
362.245	59.05
362.456	67.24
362.667	79.53
362.879	-2.39
363.09	3.75
363.301	102.06
363.512	18.09
363.723	38.57
363.935	1.71
364.146	11.95
364.357	24.23
364.568	100.01
364.779	59.05
364.99	75.43
365.201	-78.16
365.412	116.39
365.623	26.28
365.834	26.28
366.045	18.09
366.256	61.1
366.467	124.58
366.678	36.52
366.889	48.81
367.1	48.81
367.311	108.2
367.522	52.91
367.733	7.85
367.944	18.09
368.155	67.24
368.366	40.62
368.577	79.53
368.788	63.15
368.999	77.48
369.209	85.67
369.42	112.3
369.631	102.06
369.842	75.43
370.053	9.9
370.264	50.86
370.474	71.34
370.685	59.05
370.896	9.9
371.107	116.39
371.317	28.33
371.528	71.34
371.739	93.87
371.95	75.43
372.16	-2.39
372.371	11.95
372.582	59.05
372.792	42.67
373.003	50.86
373.214	83.63
373.424	77.48
373.635	52.91
373.846	83.63
374.056	50.86
374.267	75.43
374.477	87.72
374.688	77.48
374.898	79.53
375.109	50.86
375.319	40.62
375.53	116.39
375.74	118.44
375.951	95.91
376.161	89.77
376.372	59.05
376.582	77.48
376.793	22.19
377.003	61.1
377.214	42.67
377.424	79.53
377.635	95.91
377.845	67.24
378.055	116.39
378.266	-22.87
378.476	46.76
378.686	161.45
378.897	61.1
379.107	114.34
379.317	114.34
379.528	9.9
379.738	128.68
379.948	26.28
380.158	54.95
380.369	57
380.579	87.72
380.789	108.2
380.999	112.3
381.21	75.43
381.42	44.71
381.63	46.76
381.84	91.82
382.05	108.2
382.261	110.25
382.471	22.19
382.681	63.15
382.891	110.25
383.101	102.06
383.311	22.19
383.521	79.53
383.731	128.68
383.941	61.1
384.151	143.02
384.361	59.05
384.571	93.87
384.781	26.28
384.991	54.95
385.201	149.16
385.411	85.67
385.621	110.25
385.831	93.87
386.041	75.43
386.251	77.48
386.461	93.87
386.671	50.86
386.881	75.43
387.091	124.58
387.301	118.44
387.511	11.95
387.72	112.3
387.93	118.44
388.14	59.05
388.35	34.47
388.56	79.53
388.769	118.44
388.979	67.24
389.189	3.75
389.399	40.62
389.609	100.01
389.818	59.05
390.028	91.82
390.238	63.15
390.447	40.62
390.657	9.9
390.867	20.14
391.076	9.9
391.286	50.86
391.496	124.58
391.705	48.81
391.915	153.26
392.125	122.54
392.334	22.19
392.544	149.16
392.753	73.39
392.963	85.67
393.172	50.86
393.382	59.05
393.591	132.78
393.801	1.71
394.01	143.02
394.22	95.91
394.429	100.01
394.639	77.48
394.848	95.91
395.058	26.28
395.267	87.72
395.477	140.97
395.686	140.97
395.895	112.3
396.105	143.02
396.314	69.29
396.524	120.49
396.733	77.48
396.942	132.78
397.152	132.78
397.361	128.68
397.57	85.67
397.78	134.82
397.989	116.39
398.198	155.3
398.407	153.26
398.617	93.87
398.826	79.53
399.035	93.87
399.244	136.87
399.453	77.48
399.663	79.53
399.872	118.44
400.081	85.67
400.29	167.59
400.499	85.67
400.708	190.12
400.917	153.26
401.127	108.2
401.336	91.82
401.545	202.41
401.754	138.92
401.963	157.35
402.172	116.39
402.381	165.54
402.59	124.58
402.799	206.5
403.008	95.91
403.217	116.39
403.426	149.16
403.635	93.87
403.844	192.17
404.053	112.3
404.262	116.39
404.471	233.13
404.68	89.77
404.888	143.02
405.097	183.98
405.306	157.35
405.515	165.54
405.724	155.3
405.933	165.54
406.142	235.18
406.35	214.7
406.559	237.22
406.768	231.08
406.977	249.51
407.185	161.45
407.394	206.5
407.603	255.65
407.812	177.83
408.02	237.22
408.229	274.09
408.438	263.85
408.646	157.35
408.855	253.61
409.064	329.38
409.272	339.62
409.481	300.71
409.69	308.9
409.898	290.47
410.107	284.33
410.315	308.9
410.524	329.38
410.733	310.95
410.941	333.48
411.15	353.96
411.358	444.07
411.567	429.73
411.775	388.77
411.984	470.69
412.192	433.83
412.401	489.12
412.609	509.6
412.818	601.76
413.026	556.71
413.234	575.14
413.443	501.41
413.651	583.33
413.86	595.62
414.068	550.56
414.276	657.06
414.485	626.34
414.693	681.63
414.901	788.13
415.11	771.74
415.318	738.98
415.526	718.5
415.734	816.8
415.943	861.85
416.151	822.94
416.359	841.37
416.567	888.48
416.776	886.43
416.984	994.97
417.192	1019.55
417.4	954.01
417.608	1029.79
417.817	1119.9
418.025	1207.96
418.233	1248.92
418.441	1167
418.649	1238.68
418.857	1300.12
419.065	1414.81
419.273	1271.45
419.481	1476.24
419.689	1410.71
419.897	1533.59
420.105	1582.74
420.313	1615.51
420.521	1730.19
420.729	1797.78
420.937	1838.73
421.145	1828.49
421.353	1959.56
421.561	1965.71
421.769	2033.29
421.977	2115.21
422.185	2086.54
422.393	2307.72
422.601	2328.2
422.809	2346.63
423.017	2352.77
423.224	2471.56
423.432	2559.62
423.64	2594.44
423.848	2760.32
424.056	2778.75
424.263	2946.69
424.471	3108.48
424.679	2967.17
424.887	3298.94
425.094	3524.21
425.302	3378.81
425.51	3477.11
425.718	3507.83
425.925	3567.22
426.133	3638.9
426.341	3896.94
426.548	4122.22
426.756	4046.44
426.964	4253.29
427.171	4343.4
427.379	4388.46
427.586	4441.7
427.794	4712.03
428.001	4982.37
428.209	5125.72
428.417	4965.98
428.624	5424.73
428.832	5535.32
429.039	5371.48
429.247	5574.23
429.454	5926.48
429.662	6327.88
429.869	5928.53
430.076	6397.51
430.284	6063.69
430.491	6471.24
430.699	6710.85
430.906	6743.62
431.114	6708.8
431.321	7034.43
431.528	7220.8
431.736	7816.76
431.943	8025.65
432.15	7730.74
432.358	7804.47
432.565	8185.39
432.772	7980.59
432.979	8791.59
433.187	8779.3
433.394	8883.75
433.601	9295.39
433.808	9367.07
434.016	9422.36
434.223	9741.85
434.43	10378.76
434.637	10178.06
434.844	10792.45
435.052	10954.24
435.259	10921.48
435.466	11197.95
435.673	10995.2
435.88	11601.4
436.087	12183.02
436.294	12439.02
436.501	11994.61
436.708	12217.84
436.915	12881.38
437.122	13196.77
437.329	13231.58
437.537	13557.21
437.743	13794.78
437.95	13759.96
438.157	14745.03
438.364	14777.8
438.571	15044.04
438.778	15095.24
438.985	16635.31
439.192	15703.48
439.399	16256.43
439.606	16014.77
439.813	16674.22
440.02	17833.37
440.227	17712.54
440.433	17192.36
440.64	17894.81
440.847	17794.46
441.054	18171.29
441.261	19496.32
441.467	19248.52
441.674	19719.55
441.881	20383.09
442.088	20534.64
442.294	20067.7
442.501	20639.09
442.708	20850.03
442.914	22031.71
443.121	22781.26
443.328	22205.78
443.534	23745.86
443.741	22799.69
443.948	22873.42
444.154	24401.21
444.361	24333.62
444.568	24560.95
444.774	24438.07
444.981	25070.89
445.187	25668.9
445.394	26826
445.6	26297.63
445.807	28611.83
446.013	27436.3
446.22	28079.36
446.426	29017.33
446.633	29402.35
446.839	30647.51
447.046	29170.93
447.252	30958.8
447.459	31067.34
447.665	30780.63
447.871	32226.49
448.078	33352.88
448.284	32220.35
448.491	32724.15
448.697	33987.75
448.903	34827.42
449.11	35026.07
449.316	34249.89
449.522	35036.31
449.728	35800.2
449.935	36408.45
450.141	36418.69
450.347	37184.63
450.553	35925.13
450.76	36121.73
450.966	37493.87
451.172	37241.97
451.378	38138.98
451.584	37309.55
451.791	38308.96
451.997	38106.21
452.203	38550.62
452.409	39201.88
452.615	38925.4
452.821	37504.11
453.027	37053.56
453.233	38771.8
453.44	37725.29
453.646	37794.92
453.852	37928.04
454.058	38431.84
454.264	37850.22
454.47	38474.85
454.676	37469.29
454.882	38984.79
455.088	35212.43
455.294	35853.45
455.5	36834.42
455.705	36772.99
455.911	35515.53
456.117	34952.34
456.323	34540.7
456.529	32437.44
456.735	33989.8
456.941	33170.61
457.147	32824.5
457.352	31945.92
457.558	31612.1
457.764	31501.51
457.97	31050.96
458.176	30512.35
458.381	30504.15
458.587	29191.41
458.793	29043.95
458.999	27503.88
459.204	29388.01
459.41	28738.8
459.616	26998.03
459.821	27020.56
460.027	27090.19
460.233	26205.47
460.438	24878.38
460.644	25330.98
460.85	24378.68
461.055	23653.7
461.261	23649.6
461.466	21919.07
461.672	21476.71
461.878	22756.69
462.083	21622.11
462.289	21222.76
462.494	20856.17
462.7	20059.51
462.905	19443.07
463.111	20106.62
463.316	20088.18
463.522	19486.08
463.727	19860.86
463.932	19836.28
464.138	19533.18
464.343	19451.27
464.549	18912.65
464.754	19604.86
464.959	19195.27
465.165	19287.43
465.37	18574.74
465.575	18023.83
465.781	18525.58
465.986	18902.41
466.191	18210.2
466.397	17880.47
466.602	16946.6
466.807	17712.54
467.012	17767.84
467.218	17544.61
467.423	17126.82
467.628	17833.37
467.833	18179.48
468.038	17595.81
468.244	17159.59
468.449	17638.81
468.654	17200.55
468.859	17098.15
469.064	17077.67
469.269	16270.77
469.474	16424.37
469.679	16836.01
469.885	16219.57
470.09	16199.09
470.295	16317.87
470.5	15934.9
470.705	15955.38
470.91	15689.15
471.115	15304.13
471.32	15877.56
471.525	15607.23
471.73	15099.33
471.935	15257.03
472.139	14951.88
472.344	15173.06
472.549	14697.93
472.754	14558.67
472.959	14816.71
473.164	14165.46
473.369	13934.04
473.574	14501.33
473.778	14263.76
473.983	14290.38
474.188	13999.57
474.393	13561.31
474.598	13518.3
474.802	13512.16
475.007	13413.85
475.212	13436.38
475.417	12629.48
475.621	12905.96
475.826	13020.64
476.031	12699.11
476.235	12520.94
476.44	12580.33
476.645	12168.69
476.849	12578.28
477.054	12264.94
477.259	12111.35
477.463	12183.02
477.668	11746.81
477.872	11890.17
478.077	11431.42
478.282	11478.52
478.486	11267.58
478.691	11236.86
478.895	11503.1
479.1	11249.15
479.304	11288.06
479.509	10814.98
479.713	11046.4
479.918	10880.52
480.122	10479.11
480.326	10814.98
480.531	10970.63
480.735	10771.97
480.94	10556.94
481.144	10878.47
481.348	10470.92
481.553	10581.51
481.757	10194.45
481.961	10524.17
482.166	10675.72
482.37	10526.22
482.574	10417.68
482.778	10472.97
482.983	10434.06
483.187	10450.44
483.391	10520.07
483.595	10364.43
483.8	10233.36
484.004	10421.77
484.208	10507.79
484.412	10405.39
484.616	10497.55
484.821	10446.35
485.025	10221.07
485.229	10591.75
485.433	10438.16
485.637	10350.09
485.841	10372.62
486.045	10389
486.249	10382.86
486.453	10280.46
486.657	10683.91
486.861	10696.2
487.065	10204.69
487.269	10389
487.473	10323.47
487.677	10524.17
487.881	10575.37
488.085	10323.47
488.289	10370.57
488.493	10466.83
488.697	10343.95
488.901	10491.4
489.105	10612.23
489.309	10552.84
489.512	10685.96
489.716	10647.05
489.92	10509.83
490.124	10552.84
490.328	10757.64
490.531	10579.47
490.735	10907.14
490.939	10642.95
491.143	10817.03
491.346	11005.44
491.55	10997.25
491.754	11128.32
491.958	10944
492.161	10972.68
492.365	11163.14
492.569	11109.89
492.772	10944
492.976	11226.62
493.18	11179.52
493.383	11390.46
493.587	11357.69
493.79	11685.37
493.994	11470.33
494.197	11824.63
494.401	11922.93
494.605	11847.16
494.808	12011
495.012	11943.41
495.215	11972.08
495.419	11961.84
495.622	12230.13
495.825	12322.29
496.029	12215.79
496.232	12486.12
496.436	12621.29
496.639	13125.09
496.843	12953.06
497.046	13092.32
497.249	13313.5
497.453	13411.81
497.656	13510.11
497.859	13426.14
498.063	13682.14
498.266	14099.92
498.469	13698.52
498.673	14018
498.876	14259.67
499.079	14253.52
499.282	14648.78
499.485	14886.34
499.689	14919.11
499.892	15132.1
500.095	14970.31
500.298	15496.64
500.501	15412.67
500.705	15826.36
500.908	15730.11
501.111	15863.22
501.314	16098.74
501.517	16686.51
501.72	16788.91
501.923	16723.37
502.126	17110.44
502.329	17325.47
502.532	17606.05
502.735	17663.39
502.938	17896.86
503.141	18093.46
503.344	18462.1
503.547	18326.93
503.75	18376.08
503.953	19170.69
504.156	19103.11
504.359	19297.67
504.562	19322.24
504.765	19922.3
504.968	20010.36
505.17	20411.76
505.373	20338.04
505.576	20706.67
505.779	20850.03
505.982	20610.42
506.185	21583.2
506.387	21704.03
506.59	21894.49
506.793	21970.27
506.996	22195.54
507.198	22832.46
507.401	22580.56
507.604	23352.65
507.807	23375.17
508.009	23688.51
508.212	23995.71
508.415	24014.14
508.617	24911.15
508.82	24540.47
509.022	24726.83
509.225	25373.99
509.428	25369.9
509.63	25599.27
509.833	26027.29
510.035	26639.64
510.238	26227.99
510.44	26737.94
510.643	26971.41
510.845	27227.4
511.048	27217.16
511.25	27946.24
511.453	27970.82
511.655	28679.41
511.858	28474.62
512.06	28620.02
512.262	29113.58
512.465	29388.01
512.667	29547.75
512.87	30047.46
513.072	30147.81
513.274	30719.19
513.477	30989.52
513.679	31159.5
513.881	31708.36
514.084	32101.57
514.286	31763.65
514.488	32212.16
514.69	32830.65
514.893	33275.05
515.095	33180.85
515.297	33608.87
515.499	33787.05
515.701	34364.57
515.904	34761.88
516.106	34497.69
516.308	35296.4
516.51	35859.59
516.712	35499.15
516.914	36107.4
517.116	36711.55
517.318	36588.67
517.52	36957.3
517.722	36914.3
517.925	37715.05
518.127	38450.27
518.329	38347.87
518.531	38126.69
518.733	39101.53
518.935	38759.52
519.136	39040.09
519.338	39666.77
519.54	39935.05
519.742	40516.67
519.944	40553.54
520.146	41229.37
520.348	41133.11
520.55	41546.8
520.752	41935.91
520.954	42671.14
521.155	41813.04
521.357	42998.81
521.559	43271.19
521.761	43473.94
521.963	43435.03
522.164	43658.26
522.366	43947.02
522.568	44264.46
522.77	44743.68
522.971	45526
523.173	45100.03
523.375	45542.39
523.576	45456.37
523.778	45556.72
523.98	46152.68
524.181	46283.75
524.383	46453.73
524.584	46644.19
524.786	47322.07
524.988	46576.61
525.189	47651.8
525.391	47449.05
525.592	48006.09
525.794	48143.31
525.995	48114.64
526.197	48569.29
526.398	48178.12
526.6	48790.47
526.801	49181.63
527.003	49359.8
527.204	48911.3
527.406	50119.6
527.607	49664.95
527.808	49879.99
528.01	49040.32
528.211	49855.41
528.412	50561.96
528.614	50203.56
528.815	50860.96
529.016	51063.71
529.218	50535.34
529.419	50555.82
529.62	50963.36
529.822	50656.17
530.023	50787.24
530.224	50992.03
530.425	51235.74
530.626	50682.79
530.828	50772.9
531.029	51936.15
531.23	50650.02
531.431	51231.64
531.632	51911.57
531.833	51655.57
532.035	51639.19
532.236	51721.11
532.437	51665.81
532.638	51663.77
532.839	52112.27
533.04	51608.47
533.241	51254.17
533.442	52067.22
533.643	51723.16
533.844	51655.57
534.045	52028.3
534.246	51655.57
534.447	52300.68
534.648	51587.99
534.849	52296.59
535.05	51692.44
535.251	52253.58
535.451	52036.5
535.652	52251.53
535.853	52222.86
536.054	52269.97
536.255	52235.15
536.456	51737.49
536.657	52487.05
536.857	52001.68
537.058	52056.98
537.259	51983.25
537.46	52534.15
537.66	51749.78
537.861	52472.71
538.062	52147.09
538.263	52263.82
538.463	51973.01
538.664	51886.99
538.865	52030.35
539.065	52595.59
539.266	51645.33
539.466	52411.27
539.667	51846.04
539.868	52362.12
540.068	51923.86
540.269	52046.74
540.469	52206.48
540.67	52304.78
540.87	51913.62
541.071	52011.92
541.271	52140.94
541.472	51950.48
541.672	51739.54
541.873	51858.32
542.073	51706.77
542.274	51958.67
542.474	52077.46
542.675	51780.5
542.875	52439.95
543.075	51628.95
543.276	51211.17
543.476	52226.96
543.676	51590.04
543.877	51780.5
544.077	51805.08
544.277	52147.09
544.478	51714.97
544.678	51934.1
544.878	51798.93
545.078	51805.08
545.279	51581.85
545.479	51794.84
545.679	52026.26
545.879	51837.84
546.079	51911.57
546.28	51745.69
546.48	51280.8
546.68	51913.62
546.88	51731.35
547.08	51921.81
547.28	51401.63
547.48	51254.17
547.68	51641.24
547.88	51389.34
548.081	52269.97
548.281	51774.36
548.481	51288.99
548.681	52099.98
548.881	51960.72
549.081	51567.51
549.28	51463.07
549.48	51755.92
549.68	51270.56
549.88	52130.7
550.08	51084.19
550.28	51205.02
550.48	51415.96
550.68	52059.02
550.88	51116.96
551.08	51293.08
551.279	51051.42
551.479	51108.77
551.679	51616.66
551.879	51311.52
552.079	51501.98
552.278	50844.58
552.478	51424.15
552.678	51256.22
552.878	51444.63
553.077	51387.29
553.277	50863.01
553.477	51710.87
553.676	51245.98
553.876	50971.55
554.076	50721.7
554.275	51198.88
554.475	50523.05
554.674	50494.38
554.874	51215.26
555.074	50533.29
555.273	50758.56
555.473	51268.51
555.672	50930.59
555.872	50844.58
556.071	50946.98
556.271	50926.5
556.47	50367.4
556.67	50209.71
556.869	50750.37
557.068	50903.97
557.268	50312.11
557.467	50465.7
557.667	50533.29
557.866	50162.61
558.065	50281.39
558.265	49853.36
558.464	49679.28
558.663	50568.1
558.863	49730.48
559.062	50596.77
559.261	49918.9
559.461	50449.32
559.66	49273.79
559.859	49740.72
560.058	49294.27
560.258	49894.32
560.457	49136.57
560.656	49920.94
560.855	49941.42
561.054	50070.45
561.253	49550.26
561.453	49486.78
561.652	49558.45
561.851	49490.87
562.05	49402.81
562.249	48868.29
562.448	49703.86
562.647	49232.83
562.846	48991.17
563.045	49050.56
563.244	48640.96
563.443	49380.28
563.642	48098.25
563.841	48935.87
564.04	48804.8
564.239	49253.31
564.438	48462.79
564.637	48421.83
564.836	48911.3
565.035	48079.82
565.234	48767.94
565.432	48251.85
565.631	47772.63
565.83	48690.12
566.029	47659.99
566.228	48014.29
566.427	47965.13
566.625	47741.91
566.824	47152.09
567.023	47592.4
567.222	46689.25
567.42	47709.14
567.619	47381.46
567.818	47029.21
568.016	47360.98
568.215	47723.47
568.414	47328.22
568.612	47606.74
568.811	46846.94
569.01	46881.76
569.208	46509.03
569.407	47365.08
569.605	46394.34
569.804	47193.05
570.002	46302.18
570.201	46898.14
570.4	46224.36
570.598	46044.14
570.797	46048.24
570.995	46273.51
571.193	45538.29
571.392	45986.8
571.59	45691.89
571.789	45814.77
571.987	45483
572.186	45630.45
572.384	45407.22
572.582	45687.79
572.781	45937.65
572.979	44686.34
573.177	45147.13
573.376	45282.3
573.574	44510.21
573.772	44938.24
573.971	44416
574.169	44178.44
574.367	44250.12
574.565	44596.23
574.763	44057.61
574.962	44203.02
575.16	43725.84
575.358	44026.89
575.556	43623.44
575.754	44114.95
575.952	43412.5
576.151	44133.39
576.349	43494.42
576.547	43834.38
576.745	43320.34
576.943	43402.26
577.141	43306.01
577.339	43435.03
577.537	42845.21
577.735	43045.91
577.933	42810.4
578.131	43011.1
578.329	42658.85
578.527	42361.89
578.725	42306.6
578.923	42605.6
579.121	42351.65
579.319	41995.31
579.516	42200.1
579.714	42232.87
579.912	41630.77
580.11	41827.37
580.308	41915.44
580.506	41319.48
580.704	40674.37
580.901	41604.14
581.099	41647.15
581.297	41059.38
581.495	41409.59
581.692	40803.39
581.89	40649.79
582.088	40827.96
582.285	40903.74
582.483	40733.76
582.681	40969.27
582.878	40475.71
583.076	40086.6
583.274	40801.34
583.471	39920.71
583.669	39834.7
583.866	39881.8
584.064	40035.4
584.262	39285.84
584.459	39670.86
584.657	39720.01
584.854	39687.25
585.052	39138.39
585.249	39414.87
585.447	39443.54
585.644	38753.37
585.841	38816.86
586.039	39173.2
586.236	38685.79
586.434	38624.35
586.631	38476.9
586.828	38390.88
587.026	38374.5
587.223	38474.85
587.42	37829.74
587.618	38188.13
587.815	37387.38
588.012	37895.27
588.21	37543.02
588.407	37672.04
588.604	37551.21
588.801	37266.55
588.999	37305.46
589.196	37117.04
589.393	37203.06
589.59	37022.84
589.787	36660.35
589.984	37002.36
590.182	36308.1
590.379	36852.86
590.576	36326.53
590.773	36727.93
590.97	36084.87
591.167	36541.57
591.364	35869.83
591.561	36035.72
591.758	35896.45
591.955	35755.15
592.152	36007.05
592.349	35495.05
592.546	35292.3
592.743	35951.75
592.94	35050.64
593.137	35560.59
593.334	35425.42
593.531	34745.5
593.727	35040.4
593.924	34968.73
594.121	34489.5
594.318	34587.8
594.515	34251.94
594.712	34763.93
594.908	34170.02
595.105	34399.39
595.302	33821.86
595.499	34528.41
595.696	34038.95
595.892	33918.12
596.089	33862.82
596.286	33717.42
596.482	33821.86
596.679	33522.86
596.876	33655.98
597.072	33225.9
597.269	33543.34
597.466	33156.27
597.662	32623.8
597.859	32945.33
598.055	32791.73
598.252	32556.22
598.448	32654.52
598.645	32314.56
598.841	32433.34
599.038	32732.34
599.234	32396.48
599.431	31886.53
599.627	31798.47
599.824	32312.51
600.02	31933.64
600.217	31605.96
600.413	31452.36
600.609	31536.33
600.806	31325.39
601.002	31655.11
601.198	31306.96
601.395	31409.36
601.591	31110.35
601.787	30778.58
601.984	30969.04
602.18	31096.02
602.376	30913.75
602.572	30647.51
602.769	30653.65
602.965	30145.76
603.161	30584.02
603.357	30483.67
603.553	30233.82
603.75	30037.22
603.946	29838.56
604.142	30014.69
604.338	29637.86
604.534	29652.2
604.73	29588.71
604.926	29189.36
605.122	29736.16
605.318	29445.35
605.514	28691.7
605.71	29187.31
605.906	29181.17
606.102	29439.21
606.298	28800.24
606.494	29201.65
606.69	28945.65
606.886	29070.58
607.082	28337.4
607.278	28806.39
607.474	28665.08
607.67	28873.97
607.866	28341.5
608.062	28601.59
608.257	28261.63
608.453	28298.49
608.649	28329.21
608.845	27968.77
609.041	27946.24
609.236	27919.62
609.432	27839.75
609.628	27692.29
609.824	28316.92
610.019	27792.64
610.215	27706.63
610.411	27974.91
610.606	27723.01
610.802	27927.81
610.998	27368.71
611.193	27456.78
611.389	27182.35
611.584	27102.48
611.78	27282.7
611.976	26940.69
612.171	26967.31
612.367	26850.58
612.562	26774.8
612.758	26496.28
612.953	26473.75
613.149	27110.67
613.344	26379.54
613.539	27026.7
613.735	26615.06
613.93	26983.69
614.126	26326.3
614.321	26563.86
614.517	26438.94
614.712	26330.39
614.907	26187.04
615.103	26492.18
615.298	26084.64
615.493	26457.37
615.688	25896.22
615.884	26369.3
616.079	25701.67
616.274	25861.41
616.47	25855.26
616.665	26062.11
616.86	25503.01
617.055	25668.9
617.25	25783.59
617.445	25400.62
617.641	25341.22
617.836	25543.97
618.031	24982.83
618.226	25214.25
618.421	25091.37
618.616	25111.85
618.811	24771.89
619.006	25355.56
619.201	24558.9
619.396	24888.62
619.591	24651.06
619.786	24821.04
619.981	24505.65
620.176	24382.77
620.371	24073.53
620.566	24386.87
620.761	24077.63
620.956	24337.72
621.151	23942.46
621.346	23813.44
621.541	23397.7
621.735	23844.16
621.93	23274.82
622.125	23139.66
622.32	23166.28
622.515	22908.24
622.709	23143.75
622.904	22521.17
623.099	22564.18
623.294	22719.82
623.488	22242.65
623.683	22547.79
623.878	22039.9
624.072	22056.28
624.267	22134.1
624.462	21431.65
624.656	21951.84
624.851	21667.17
625.046	21460.32
625.24	21269.86
625.435	21286.25
625.629	21423.46
625.824	21030.25
626.018	21017.96
626.213	20524.4
626.407	20712.81
626.602	20479.35
626.796	20671.86
626.991	20473.2
627.185	20409.72
627.38	20155.77
627.574	19750.27
627.768	19985.79
627.963	19768.7
628.157	19381.63
628.352	19602.82
628.546	19391.87
628.74	19692.93
628.935	19498.37
629.129	19455.36
629.323	18916.75
629.517	18886.03
629.712	18722.19
629.906	18771.34
630.1	18587.02
630.294	18705.81
630.489	18589.07
630.683	18427.28
630.877	18269.59
631.071	18128.28
631.265	18099.61
631.459	18072.98
631.653	18085.27
631.848	17753.5
632.042	17868.19
632.236	17960.34
632.43	17362.34
632.624	17618.33
632.818	17284.51
633.012	17049
633.206	17290.66
633.4	17278.37
633.594	17096.1
633.788	17196.45
633.982	16885.16
634.176	16770.47
634.369	16893.35
634.563	16592.3
634.757	16274.87
634.951	16446.9
635.145	16352.69
635.339	16459.18
635.533	16158.13
635.726	16115.12
635.92	16137.65
636.114	15822.27
636.308	16025.01
636.501	15945.14
636.695	15775.16
636.889	15508.93
637.083	15683
637.276	15259.07
637.47	15181.25
637.664	15222.21
637.857	15330.75
638.051	15433.15
638.244	15234.5
638.438	14898.63
638.632	15168.96
638.825	14880.2
639.019	14730.7
639.212	14611.92
639.406	14579.15
639.599	14556.62
639.793	14437.84
639.986	14306.77
640.18	14378.45
640.373	14239.19
640.567	13985.24
640.76	14157.27
640.954	14110.16
641.147	13704.67
641.34	13743.58
641.534	13858.26
641.727	13807.06
641.92	13493.72
642.114	13581.79
642.307	13579.74
642.5	13274.59
642.694	13166.05
642.887	13192.67
643.08	13379.04
643.273	12865
643.467	12938.73
643.66	12903.91
643.853	12883.43
644.046	12453.36
644.239	12527.08
644.432	12436.97
644.626	12439.02
644.819	12611.05
645.012	12447.21
645.205	12389.87
645.398	12416.49
645.591	12094.96
645.784	12060.15
645.977	12011
646.17	11894.26
646.363	11863.54
646.556	11683.32
646.749	11793.91
646.942	11978.23
647.135	11791.86
647.328	11685.37
647.521	11316.73
647.714	11570.68
647.907	11417.08
648.099	11501.05
648.292	11200
648.485	11040.26
648.678	11265.53
648.871	10995.2
649.064	11085.31
649.256	11023.87
649.449	11066.88
649.642	10757.64
649.835	10761.73
650.027	10606.09
650.22	10753.54
650.413	10593.8
650.605	10542.6
650.798	10540.55
650.991	10311.18
651.183	10233.36
651.376	10075.66
651.568	10364.43
651.761	10044.95
651.954	10090
652.146	10053.14
652.339	9985.55
652.531	9940.5
652.724	9864.72
652.916	9807.38
653.109	9690.65
653.301	9776.66
653.494	9684.5
653.686	9520.67
653.879	9811.48
654.071	9461.27
654.263	9352.73
654.456	9459.23
654.648	9444.89
654.84	9303.58
655.033	9139.74
655.225	9059.87
655.417	9160.22
655.61	9205.28
655.802	9008.67
655.994	9082.4
656.186	8996.39
656.379	8939.04
656.571	9041.44
656.763	8709.67
656.955	8775.2
657.148	8687.14
657.34	8717.86
657.532	8693.29
657.724	8533.54
657.916	8547.88
658.108	8322.6
658.3	8384.04
658.492	8279.6
658.684	8289.84
658.876	8212.01
659.068	8177.2
659.26	8207.92
659.452	8388.14
659.644	8021.55
659.836	7896.63
660.028	7992.88
660.22	7878.19
660.412	7968.31
660.604	7792.18
660.796	7921.2
660.988	7663.16
661.18	7671.35
661.372	7573.05
661.563	7718.45
661.755	7611.96
661.947	7601.72
662.139	7458.36
662.331	7472.7
662.522	7263.8
662.714	7317.05
662.906	7251.52
663.097	7071.29
663.289	7007.81
663.481	7093.82
663.673	7243.32
663.864	7013.95
664.056	6942.27
664.247	6841.92
664.439	6913.6
664.631	6917.7
664.822	6880.83
665.014	6884.93
665.205	6780.48
665.397	6596.17
665.588	6688.32
665.78	6633.03
665.971	6563.4
666.163	6387.27
666.354	6319.69
666.546	6534.73
666.737	6340.17
666.929	6252.11
667.12	6342.22
667.311	6368.84
667.503	6288.97
667.694	6327.88
667.885	6112.85
668.077	6116.94
668.268	6045.26
668.459	6065.74
668.651	6090.32
668.842	6067.79
669.033	5867.09
669.224	5824.08
669.416	5944.91
669.607	5738.07
669.798	5738.07
669.989	5826.13
670.18	5817.94
670.371	5875.28
670.563	5768.79
670.754	5725.78
670.945	5686.87
671.136	5604.95
671.327	5670.48
671.518	5547.61
671.709	5631.57
671.9	5473.88
672.091	5525.08
672.282	5459.54
672.473	5424.73
672.664	5355.1
672.855	5398.1
673.046	5398.1
673.237	5340.76
673.428	5279.32
673.619	5361.24
673.809	5269.08
674	5213.79
674.191	5244.51
674.382	5248.6
674.573	5205.6
674.764	5092.96
674.954	5109.34
675.145	5101.15
675.336	5107.29
675.527	5146.2
675.717	4892.26
675.908	4902.5
676.099	5072.48
676.289	4839.01
676.48	5035.61
676.671	4894.3
676.861	5066.33
677.052	4744.8
677.243	4818.53
677.433	4963.93
677.624	4933.22
677.814	4716.13
678.005	4714.08
678.195	4728.42
678.386	4746.85
678.576	4640.36
678.767	4638.31
678.957	4709.99
679.148	4632.16
679.338	4630.12
679.529	4617.83
679.719	4611.68
679.909	4652.64
680.1	4570.72
680.29	4556.39
680.481	4556.39
680.671	4585.06
680.861	4591.2
681.052	4482.66
681.242	4316.78
681.432	4417.13
681.622	4501.09
681.813	4286.06
682.003	4376.17
682.193	4478.57
682.383	4476.52
682.573	4361.83
682.764	4347.5
682.954	4259.43
683.144	4378.22
683.334	4361.83
683.524	4365.93
683.714	4236.91
683.904	4318.82
684.094	4372.07
684.284	4236.91
684.474	4259.43
684.664	4392.55
684.854	4187.75
685.044	4314.73
685.234	4247.15
685.424	4206.19
685.614	4093.55
685.804	4114.03
685.994	4251.24
686.184	4138.6
686.374	4187.75
686.564	4040.3
686.753	4228.71
686.943	3993.2
687.133	4032.11
687.323	3978.86
687.513	4042.35
687.702	4114.03
687.892	4021.87
688.082	4003.44
688.272	3999.34
688.461	3978.86
688.651	4062.83
688.841	4001.39
689.03	3921.52
689.22	3933.81
689.41	3907.18
689.599	3860.08
689.789	3921.52
689.979	3974.77
690.168	3878.51
690.358	3761.78
690.547	3804.78
690.737	3860.08
690.926	3720.82
691.116	3745.39
691.305	3794.54
691.495	3862.13
691.684	3780.21
691.874	3741.3
692.063	3747.44
692.252	3640.95
692.442	3659.38
692.631	3720.82
692.82	3731.06
693.01	3663.47
693.199	3735.15
693.388	3638.9
693.578	3495.54
693.767	3638.9
693.956	3518.07
694.146	3573.36
694.335	3630.71
694.524	3540.6
694.713	3657.33
694.902	3487.35
695.092	3589.75
695.281	3438.2
695.47	3493.49
695.659	3458.68
695.848	3614.32
696.037	3475.06
696.226	3542.64
696.415	3343.99
696.604	3507.83
696.793	3487.35
696.982	3356.28
697.171	3370.62
697.36	3536.5
697.549	3444.34
697.738	3245.69
697.927	3219.07
698.116	3358.33
698.305	3206.78
698.494	3348.09
698.683	3346.04
698.872	3389.05
699.061	3274.36
699.25	3167.87
699.438	3176.06
699.627	3333.75
699.816	3364.47
700.005	3225.21
700.193	3169.91
700.382	3243.64
700.571	3284.6
700.76	3227.26
700.948	3245.69
701.137	3118.72
701.326	3122.81
701.514	3204.73
701.703	3237.5
701.892	3165.82
702.08	3249.79
702.269	3161.72
702.457	3135.1
702.646	3069.56
702.834	3090.04
703.023	3034.75
703.212	3143.29
703.4	3139.19
703.589	3075.71
703.777	3210.87
703.965	3014.27
704.154	3026.56
704.342	3075.71
704.531	2967.17
704.719	2983.55
704.907	2999.93
705.096	3004.03
705.284	3061.37
705.472	2844.29
705.661	2952.83
705.849	3098.24
706.037	3090.04
706.226	2903.68
706.414	2770.56
706.602	2844.29
706.79	2975.36
706.979	2846.34
707.167	2901.63
707.355	2813.57
707.543	2815.62
707.731	2942.59
707.919	2766.46
708.107	2842.24
708.296	2893.44
708.484	2844.29
708.672	2848.38
708.86	2786.94
709.048	2905.73
709.236	2832
709.424	2674.31
709.612	2846.34
709.8	2709.12
709.988	2733.7
710.176	2784.9
710.364	2737.79
710.551	2623.11
710.739	2745.98
710.927	2795.14
711.115	2758.27
711.303	2717.31
711.491	2680.45
711.679	2672.26
711.866	2680.45
712.054	2731.65
712.242	2647.68
712.43	2766.46
712.617	2639.49
712.805	2664.07
712.993	2696.83
713.181	2707.07
713.368	2707.07
713.556	2680.45
713.744	2551.43
713.931	2696.83
714.119	2553.48
714.306	2668.16
714.494	2598.53
714.682	2635.39
714.869	2606.72
715.057	2537.09
715.244	2485.89
715.432	2547.33
715.619	2533
715.807	2504.32
715.994	2524.8
716.182	2543.24
716.369	2643.59
716.556	2471.56
716.744	2426.5
716.931	2492.04
717.119	2528.9
717.306	2469.51
717.493	2590.34
717.681	2418.31
717.868	2533
718.055	2442.89
718.242	2330.25
718.43	2412.17
718.617	2358.92
718.804	2446.98
718.991	2428.55
719.179	2346.63
719.366	2416.26
719.553	2279.05
719.74	2324.1
719.927	2342.53
720.114	2328.2
720.301	2418.31
720.488	2299.53
720.676	2279.05
720.863	2412.17
721.05	2360.97
721.237	2322.06
721.424	2307.72
721.611	2262.66
721.798	2365.06
721.985	2172.55
722.172	2254.47
722.358	2315.91
722.545	2291.34
722.732	2311.82
722.919	2240.14
723.106	2225.8
723.293	2195.08
723.48	2254.47
723.667	2338.44
723.853	2213.51
724.04	2197.13
724.227	2199.18
724.414	2205.32
724.6	2250.38
724.787	2307.72
724.974	2207.37
725.161	2182.79
725.347	2131.59
725.534	2229.9
725.72	2180.75
725.907	2184.84
726.094	2133.64
726.28	2178.7
726.467	2229.9
726.653	2129.55
726.84	2223.75
727.027	2242.18
727.213	2068.11
727.4	2051.72
727.586	1994.38
727.773	2051.72
727.959	2092.68
728.145	2131.59
728.332	2150.03
728.518	2002.57
728.705	2076.3
728.891	2176.65
729.077	2123.4
729.264	2104.97
729.45	2035.34
729.636	2096.78
729.823	2066.06
730.009	2098.83
730.195	2135.69
730.382	2037.39
730.568	2023.05
730.754	2098.83
730.94	2051.72
731.126	1984.14
731.313	1984.14
731.499	2041.48
731.685	1959.56
731.871	1994.38
732.057	2008.72
732.243	1978
732.429	1992.33
732.615	2123.4
732.801	1951.37
732.987	2098.83
733.173	2014.86
733.359	1953.42
733.545	1814.16
733.731	1928.85
733.917	1947.28
734.103	2000.52
734.289	1926.8
734.475	1894.03
734.661	2041.48
734.847	1885.84
735.033	1887.89
735.219	1918.61
735.404	1961.61
735.59	1881.74
735.776	2008.72
735.962	1877.65
736.148	1771.15
736.333	1918.61
736.519	1906.32
736.705	1855.12
736.89	1904.27
737.076	1715.86
737.262	1797.78
737.447	1810.06
737.633	1863.31
737.819	1926.8
738.004	1801.87
738.19	1820.3
738.375	1762.96
738.561	1789.58
738.747	1738.38
738.932	1791.63
739.118	1855.12
739.303	1738.38
739.489	1812.11
739.674	1820.3
739.859	1816.21
740.045	1801.87
740.23	1808.02
740.416	1666.71
740.601	1625.75
740.786	1724.05
740.972	1648.27
741.157	1640.08
741.342	1652.37
741.528	1640.08
741.713	1781.39
741.898	1670.8
742.084	1738.38
742.269	1560.21
742.454	1717.9
742.639	1631.89
742.824	1623.7
743.01	1672.85
743.195	1582.74
743.38	1607.31
743.565	1611.41
743.75	1642.13
743.935	1578.64
744.12	1549.97
744.305	1582.74
744.49	1648.27
744.675	1570.45
744.86	1519.25
745.045	1459.86
745.23	1564.31
745.415	1539.73
745.6	1525.4
745.785	1535.64
745.97	1519.25
746.155	1552.02
746.34	1539.73
746.525	1492.63
746.71	1488.53
746.895	1328.79
747.079	1461.91
747.264	1484.44
747.449	1365.65
747.634	1476.24
747.819	1496.72
748.003	1420.95
748.188	1390.23
748.373	1459.86
748.557	1461.91
748.742	1400.47
748.927	1498.77
749.111	1390.23
749.296	1394.33
749.481	1390.23
749.665	1328.79
749.85	1281.69
750.034	1379.99
750.219	1275.54
750.404	1377.94
750.588	1271.45
750.773	1167
750.957	1298.07
751.141	1189.53
751.326	1214.1
751.51	1083.03
751.695	1189.53
751.879	1255.06
752.064	1257.11
752.248	1197.72
752.432	1224.34
752.617	1289.88
752.801	1216.15
752.985	1214.1
753.17	1115.8
753.354	1230.49
753.538	1130.14
753.722	1123.99
753.907	1109.66
754.091	1189.53
754.275	1132.19
754.459	1156.76
754.643	1173.14
754.828	1134.23
755.012	1201.82
755.196	1136.28
755.38	1076.89
755.564	1035.93
755.748	1074.84
755.932	1093.27
756.116	1066.65
756.3	1214.1
756.484	1068.7
756.668	1132.19
756.852	1058.46
757.036	1050.27
757.22	962.2
757.404	1054.36
757.588	939.68
757.772	1001.12
757.956	937.63
758.14	1019.55
758.323	888.48
758.507	1035.93
758.691	980.64
758.875	1070.75
759.059	913.05
759.242	902.81
759.426	1033.88
759.61	878.24
759.794	919.2
759.977	894.62
760.161	1099.42
760.345	976.54
760.528	951.96
760.712	986.78
760.895	935.58
761.079	1031.83
761.263	921.24
761.446	988.83
761.63	888.48
761.813	884.38
761.997	779.93
762.18	849.57
762.364	906.91
762.547	829.09
762.731	845.47
762.914	876.19
763.098	931.48
763.281	880.29
763.464	808.61
763.648	855.71
763.831	880.29
764.015	810.65
764.198	888.48
764.381	802.46
764.564	872.09
764.748	831.13
764.931	824.99
765.114	898.72
765.297	833.18
765.481	726.69
765.664	743.07
765.847	851.61
766.03	837.28
766.213	845.47
766.397	738.98
766.58	751.26
766.763	808.61
766.946	730.78
767.129	841.37
767.312	753.31
767.495	763.55
767.678	755.36
767.861	779.93
768.044	738.98
768.227	822.94
768.41	763.55
768.593	714.4
768.776	839.33
768.959	784.03
769.142	781.98
769.324	743.07
769.507	755.36
769.69	691.87
769.873	743.07
770.056	833.18
770.239	747.17
770.421	720.54
770.604	669.34
770.787	698.02
770.97	683.68
771.152	683.68
771.335	763.55
771.518	775.84
771.7	741.02
771.883	749.22
772.066	632.48
772.248	661.15
772.431	747.17
772.613	648.86
772.796	730.78
772.978	665.25
773.161	726.69
773.343	640.67
773.526	566.95
773.708	640.67
773.891	616.1
774.073	659.1
774.256	657.06
774.438	642.72
774.621	652.96
774.803	655.01
774.985	609.95
775.168	691.87
775.35	665.25
775.532	573.09
775.715	669.34
775.897	542.37
776.079	579.23
776.261	591.52
776.444	626.34
776.626	634.53
776.808	554.66
776.99	546.47
777.173	659.1
777.355	562.85
777.537	597.67
777.719	632.48
777.901	659.1
778.083	585.38
778.265	579.23
778.447	595.62
778.629	628.39
778.811	495.27
778.993	566.95
779.175	607.91
779.357	577.19
779.539	528.03
779.721	554.66
779.903	534.18
780.085	534.18
780.267	550.56
780.449	525.99
780.631	517.79
780.812	546.47
780.994	558.75
781.176	511.65
781.358	509.6
781.54	462.5
781.721	493.22
781.903	454.31
782.085	517.79
782.267	556.71
782.448	472.74
782.63	405.16
782.812	394.92
782.993	472.74
783.175	585.38
783.357	456.36
783.538	380.58
783.72	485.03
783.901	454.31
784.083	452.26
784.264	337.57
784.446	415.4
784.627	358.05
784.809	462.5
784.99	454.31
785.172	462.5
785.353	476.84
785.535	423.59
785.716	370.34
785.897	370.34
786.079	421.54
786.26	423.59
786.441	427.68
786.623	437.92
786.804	439.97
786.985	358.05
787.167	464.55
787.348	335.53
787.529	427.68
787.71	468.64
787.891	386.72
788.073	380.58
788.254	310.95
788.435	444.07
788.616	403.11
788.797	347.81
788.978	337.57
789.159	358.05
789.34	345.77
789.522	343.72
789.703	386.72
789.884	323.24
790.065	333.48
790.246	341.67
790.427	339.62
790.607	331.43
790.788	372.39
790.969	272.04
791.15	382.63
791.331	298.66
791.512	310.95
791.693	263.85
791.874	233.13
792.054	364.2
792.235	329.38
792.416	349.86
792.597	224.94
792.778	358.05
792.958	313
793.139	296.61
793.32	310.95
793.5	351.91
793.681	249.51
793.862	280.23
794.042	280.23
794.223	304.81
794.404	321.19
794.584	190.12
794.765	331.43
794.945	276.13
795.126	321.19
795.306	263.85
795.487	206.5
795.667	263.85
795.848	298.66
796.028	208.55
796.209	208.55
796.389	300.71
796.57	306.85
796.75	229.03
796.93	239.27
797.111	251.56
797.291	278.18
797.471	274.09
797.652	214.7
797.832	188.07
798.012	249.51
798.192	237.22
798.373	198.31
798.553	222.89
798.733	222.89
798.913	210.6
799.093	206.5
799.274	241.32
799.454	181.93
799.634	263.85
799.814	200.36
799.994	208.55
800.174	218.79
800.354	257.7
800.534	218.79
800.714	245.41
800.894	233.13
801.074	167.59
801.254	255.65
801.434	233.13
801.614	181.93
801.794	214.7
801.974	810.65
802.154	183.98
802.334	239.27
802.514	140.97
802.693	208.55
802.873	190.12
803.053	208.55
803.233	222.89
803.413	206.5
803.592	165.54
803.772	151.21
803.952	224.94
804.131	173.74
804.311	216.74
804.491	259.75
804.67	200.36
804.85	186.02
805.03	220.84
805.209	235.18
805.389	149.16
805.568	163.5
805.748	167.59
805.928	233.13
806.107	132.78
806.287	128.68
806.466	214.7
806.646	194.22
806.825	226.98
807.004	181.93
807.184	224.94
807.363	278.18
807.543	177.83
807.722	149.16
807.901	239.27
808.081	157.35
808.26	81.58
808.439	126.63
808.619	79.53
808.798	157.35
808.977	179.88
809.156	204.46
809.336	124.58
809.515	128.68
809.694	167.59
809.873	167.59
810.052	136.87
810.231	177.83
810.411	134.82
810.59	186.02
810.769	198.31
810.948	132.78
811.127	134.82
811.306	186.02
811.485	104.11
811.664	190.12
811.843	110.25
812.022	165.54
812.201	216.74
812.38	153.26
812.559	95.91
812.737	218.79
812.916	153.26
813.095	91.82
813.274	155.3
813.453	186.02
813.632	132.78
813.811	169.64
813.989	91.82
814.168	181.93
814.347	83.63
814.526	149.16
814.704	63.15
814.883	93.87
815.062	181.93
815.24	93.87
815.419	61.1
815.598	124.58
815.776	149.16
815.955	175.78
816.133	91.82
816.312	104.11
816.49	54.95
816.669	140.97
816.847	102.06
817.026	143.02
817.204	120.49
817.383	71.34
817.561	100.01
817.74	108.2
817.918	140.97
818.097	110.25
818.275	124.58
818.453	136.87
818.632	132.78
818.81	50.86
818.988	104.11
819.167	91.82
819.345	140.97
819.523	192.17
819.701	112.3
819.879	143.02
820.058	128.68
820.236	91.82
820.414	-39.25
820.592	63.15
820.77	140.97
820.948	116.39
821.127	73.39
821.305	149.16
821.483	110.25
821.661	108.2
821.839	118.44
822.017	36.52
822.195	163.5
822.373	75.43
822.551	50.86
822.729	108.2
822.907	83.63
823.085	153.26
823.262	132.78
823.44	118.44
823.618	73.39
823.796	65.19
823.974	126.63
824.152	153.26
824.329	-8.53
824.507	124.58
824.685	75.43
824.863	112.3
825.04	114.34
825.218	91.82
825.396	38.57
825.574	95.91
825.751	112.3
825.929	126.63
826.107	69.29
826.284	149.16
826.462	100.01
826.639	91.82
826.817	61.1
826.994	69.29
827.172	52.91
827.349	87.72
827.527	50.86
827.704	202.41
827.882	102.06
828.059	91.82
828.237	71.34
828.414	75.43
828.591	57
828.769	34.47
828.946	44.71
829.124	91.82
829.301	145.06
829.478	108.2
829.655	59.05
829.833	89.77
830.01	11.95
830.187	67.24
830.364	87.72
830.542	-31.06
830.719	91.82
830.896	128.68
831.073	110.25
831.25	46.76
831.427	145.06
831.604	87.72
831.782	18.09
831.959	71.34
832.136	104.11
832.313	83.63
832.49	32.43
832.667	36.52
832.844	46.76
833.021	93.87
833.198	73.39
833.374	59.05
833.551	81.58
833.728	13.99
833.905	18.09
834.082	46.76
834.259	-6.49
834.436	65.19
834.612	85.67
834.789	102.06
834.966	89.77
835.143	50.86
835.319	83.63
835.496	54.95
835.673	95.91
835.85	153.26
836.026	38.57
836.203	52.91
836.38	22.19
836.556	34.47
836.733	50.86
836.909	204.46
837.086	79.53
837.262	20.14
837.439	59.05
837.616	54.95
837.792	28.33
837.968	108.2
838.145	-31.06
838.321	91.82
838.498	102.06
838.674	11.95
838.851	77.48
839.027	28.33
839.203	11.95
839.38	69.29
839.556	26.28
839.732	116.39
839.909	24.23
840.085	57
840.261	-39.25
840.437	40.62
840.614	18.09
840.79	65.19
840.966	42.67
841.142	36.52
841.318	44.71
841.494	67.24
841.671	32.43
841.847	-12.63
842.023	40.62
842.199	97.96
842.375	36.52
842.551	-10.58
842.727	34.47
842.903	149.16
843.079	26.28
843.255	46.76
843.431	20.14
843.607	-0.34
843.783	59.05
843.959	77.48
844.134	11.95
844.31	65.19
844.486	30.38
844.662	42.67
844.838	75.43
845.013	5.8
845.189	102.06
845.365	26.28
845.541	46.76
845.716	38.57
845.892	93.87
846.068	18.09
846.244	11.95
846.419	75.43
846.595	1.71
846.77	34.47
846.946	3.75
847.122	9.9
847.297	40.62
847.473	42.67
847.648	28.33
847.824	42.67
847.999	-63.83
848.175	42.67
848.35	-6.49
848.526	112.3
848.701	20.14
848.876	87.72
849.052	1.71
849.227	34.47
849.403	108.2
849.578	1.71
849.753	52.91
849.929	93.87
850.104	59.05
850.279	69.29
850.454	61.1
850.63	1.71
850.805	28.33
850.98	87.72
851.155	1.71
851.33	71.34
851.505	-6.49
851.681	126.63
851.856	-10.58
852.031	59.05
852.206	26.28
852.381	-14.68
852.556	1.71
852.731	63.15
852.906	30.38
853.081	9.9
853.256	1.71
853.431	79.53
853.606	-6.49
853.781	-8.53
853.956	20.14
854.131	77.48
854.305	42.67
854.48	87.72
854.655	36.52
854.83	26.28
855.005	22.19
855.18	52.91
855.354	110.25
855.529	67.24
855.704	1.71
855.879	63.15
856.053	13.99
856.228	30.38
856.403	26.28
856.577	61.1
856.752	-41.3
856.926	-6.49
857.101	50.86
857.276	-4.44
857.45	50.86
857.625	26.28
857.799	63.15
857.974	102.06
858.148	5.8
858.323	34.47
858.497	-31.06
858.672	-45.4
858.846	42.67
859.02	18.09
859.195	5.8
859.369	-4.44
859.543	50.86
859.718	-12.63
859.892	91.82
860.066	1.71
860.241	-18.77
860.415	-39.25
860.589	40.62
860.763	102.06
860.938	-39.25
861.112	22.19
861.286	52.91
861.46	42.67
861.634	44.71
861.808	54.95
861.982	108.2
862.157	-65.88
862.331	-49.49
862.505	-20.82
862.679	11.95
862.853	-14.68
863.027	26.28
863.201	83.63
863.375	-10.58
863.549	-22.87
863.722	3.75
863.896	52.91
864.07	52.91
864.244	69.29
864.418	97.96
864.592	-6.49
864.766	-18.77
864.939	28.33
865.113	18.09
865.287	36.52
865.461	-26.96
865.634	9.9
865.808	34.47
865.982	16.04
866.156	-55.64
866.329	18.09
866.503	38.57
866.676	50.86
866.85	9.9
867.024	59.05
867.197	28.33
867.371	-2.39
867.544	-14.68
867.718	1.71
867.891	28.33
868.065	18.09
868.238	-14.68
868.412	69.29
868.585	57
868.759	26.28
868.932	18.09
869.105	34.47
869.279	59.05
869.452	-14.68
869.625	20.14
869.799	69.29
869.972	1.71
870.145	5.8
870.319	48.81
870.492	54.95
870.665	-51.54
870.838	24.23
871.011	-29.01
871.185	-55.64
871.358	26.28
871.531	26.28
871.704	-90.45
871.877	61.1
872.05	63.15
872.223	-10.58
872.396	42.67
872.569	-29.01
872.742	-43.35
872.915	75.43
873.088	28.33
873.261	50.86
873.434	-16.73
873.607	50.86
873.78	20.14
873.953	-20.82
874.126	-8.53
874.299	57
874.471	-22.87
874.644	-6.49
874.817	11.95
874.99	1.71
875.163	34.47
875.335	46.76
875.508	11.95
875.681	44.71
875.853	-4.44
876.026	-35.16
876.199	9.9
876.371	28.33
876.544	11.95
876.717	3.75
876.889	24.23
877.062	-8.53
877.234	13.99
877.407	-6.49
877.579	-35.16
877.752	69.29
877.924	50.86
878.097	-6.49
878.269	13.99
878.442	34.47
878.614	-18.77
878.786	36.52
878.959	1.71
879.131	-65.88
879.303	-10.58
879.476	-14.68
879.648	77.48
879.82	-37.2
879.993	-78.16
880.165	-2.39
880.337	13.99
880.509	26.28
880.681	-29.01
880.854	-47.44
881.026	48.81
881.198	-6.49
881.37	5.8
881.542	42.67
881.714	46.76
881.886	-10.58
882.058	71.34
882.23	-22.87
882.402	22.19
882.574	16.04
882.746	54.95
882.918	75.43
883.09	30.38
883.262	34.47
883.434	36.52
883.606	-10.58
883.778	36.52
883.95	38.57
884.122	-35.16
884.293	22.19
884.465	26.28
884.637	28.33
884.809	-20.82
884.98	-22.87
885.152	38.57
885.324	134.82
885.496	-49.49
885.667	48.81
885.839	-6.49
886.011	79.53
886.182	61.1
886.354	9.9
886.525	32.43
886.697	63.15
886.869	-22.87
887.04	36.52
887.212	87.72
887.383	42.67
887.555	-2.39
887.726	36.52
887.897	5.8
888.069	-22.87
888.24	11.95
888.412	1.71
888.583	52.91
888.754	77.48
888.926	-22.87
889.097	28.33
889.268	-92.5
889.44	9.9
889.611	1.71
889.782	18.09
889.953	-57.68
890.125	69.29
890.296	-14.68
890.467	79.53
890.638	20.14
890.809	-59.73
890.98	22.19
891.151	18.09
891.323	-14.68
891.494	-14.68
891.665	9.9
891.836	-4.44
892.007	-2.39
892.178	-43.35
892.349	24.23
892.52	13.99
892.691	24.23
892.862	24.23
893.032	-53.59
893.203	73.39
893.374	11.95
893.545	9.9
893.716	11.95
893.887	-22.87
894.057	20.14
894.228	18.09
894.399	-12.63
894.57	-55.64
894.74	-2.39
894.911	30.38
895.082	-26.96
895.253	-37.2
895.423	77.48
895.594	22.19
895.764	-12.63
895.935	-20.82
896.106	-39.25
896.276	1.71
896.447	59.05
896.617	28.33
896.788	13.99
896.958	-10.58
897.129	9.9
897.299	32.43
897.47	-12.63
897.64	-6.49
897.81	-20.82
897.981	1.71
898.151	-8.53
898.322	77.48
898.492	48.81
898.662	-82.26
898.832	-10.58
899.003	59.05
899.173	20.14
899.343	-0.34
899.513	-39.25
