Data from USB4F104151__129__14-44-01-908.txt Node

Date: Thu Mar 13 14:44:01 EDT 2025
User: louis
Spectrometer: USB4F10415
Trigger mode: 4
Integration Time (sec): 2.000000E-2
Scans to average: 1
Electric dark correction enabled: true
Nonlinearity correction enabled: false
Boxcar width: 0
XAxis mode: Wavelengths
Number of Pixels in Spectrum: 3648
>>>>>Begin Spectral Data<<<<<
178.204	-119.12
178.424	-119.12
178.644	-119.12
178.864	-143.7
179.084	-139.6
179.304	34.47
179.524	-29.01
179.744	-20.82
179.964	30.38
180.184	-22.87
180.404	28.33
180.624	11.95
180.844	7.85
181.064	-31.06
181.283	-24.92
181.503	-4.44
181.723	20.14
181.943	-82.26
182.163	71.34
182.383	-6.49
182.602	36.52
182.822	65.19
183.042	26.28
183.262	5.8
183.482	1.71
183.701	18.09
183.921	13.99
184.141	34.47
184.361	52.91
184.58	11.95
184.8	9.9
185.02	32.43
185.239	34.47
185.459	54.95
185.679	69.29
185.898	93.87
186.118	102.06
186.338	77.48
186.557	18.09
186.777	22.19
186.997	34.47
187.216	-6.49
187.436	36.52
187.655	104.11
187.875	67.24
188.095	50.86
188.314	36.52
188.534	34.47
188.753	11.95
188.973	32.43
189.192	83.63
189.412	36.52
189.631	18.09
189.851	44.71
190.07	63.15
190.29	20.14
190.509	20.14
190.729	-26.96
190.948	20.14
191.168	134.82
191.387	22.19
191.607	26.28
191.826	11.95
192.045	-4.44
192.265	38.57
192.484	52.91
192.704	-47.44
192.923	28.33
193.142	83.63
193.362	59.05
193.581	63.15
193.8	-6.49
194.02	50.86
194.239	32.43
194.458	20.14
194.678	11.95
194.897	83.63
195.116	18.09
195.335	34.47
195.555	24.23
195.774	46.76
195.993	13.99
196.212	32.43
196.432	-39.25
196.651	28.33
196.87	63.15
197.089	114.34
197.308	26.28
197.528	5.8
197.747	5.8
197.966	59.05
198.185	169.64
198.404	11.95
198.623	-12.63
198.842	102.06
199.062	3.75
199.281	44.71
199.5	65.19
199.719	54.95
199.938	30.38
200.157	16.04
200.376	24.23
200.595	59.05
200.814	124.58
201.033	7.85
201.252	59.05
201.471	75.43
201.69	79.53
201.909	9.9
202.128	-16.73
202.347	81.58
202.566	34.47
202.785	-22.87
203.004	-39.25
203.223	104.11
203.442	44.71
203.661	24.23
203.879	89.77
204.098	59.05
204.317	50.86
204.536	44.71
204.755	-61.78
204.974	91.82
205.193	20.14
205.411	140.97
205.63	59.05
205.849	67.24
206.068	95.91
206.287	34.47
206.505	5.8
206.724	-31.06
206.943	91.82
207.162	38.57
207.381	-6.49
207.599	54.95
207.818	50.86
208.037	28.33
208.255	-14.68
208.474	1.71
208.693	89.77
208.911	59.05
209.13	44.71
209.349	59.05
209.567	50.86
209.786	18.09
210.005	-29.01
210.223	40.62
210.442	7.85
210.661	18.09
210.879	91.82
211.098	9.9
211.316	44.71
211.535	57
211.753	59.05
211.972	57
212.191	26.28
212.409	114.34
212.628	34.47
212.846	-6.49
213.065	13.99
213.283	93.87
213.502	26.28
213.72	77.48
213.938	11.95
214.157	52.91
214.375	26.28
214.594	-22.87
214.812	71.34
215.031	36.52
215.249	-22.87
215.467	40.62
215.686	32.43
215.904	52.91
216.122	52.91
216.341	89.77
216.559	40.62
216.778	100.01
216.996	42.67
217.214	5.8
217.432	63.15
217.651	-61.78
217.869	44.71
218.087	13.99
218.306	50.86
218.524	54.95
218.742	38.57
218.96	93.87
219.179	9.9
219.397	-22.87
219.615	114.34
219.833	42.67
220.051	-61.78
220.27	13.99
220.488	18.09
220.706	38.57
220.924	50.86
221.142	61.1
221.36	22.19
221.578	67.24
221.796	77.48
222.015	75.43
222.233	61.1
222.451	-14.68
222.669	9.9
222.887	102.06
223.105	18.09
223.323	134.82
223.541	7.85
223.759	1.71
223.977	-6.49
224.195	73.39
224.413	112.3
224.631	59.05
224.849	73.39
225.067	116.39
225.285	-49.49
225.503	54.95
225.721	-12.63
225.939	9.9
226.157	-26.96
226.375	95.91
226.592	-51.54
226.81	54.95
227.028	59.05
227.246	65.19
227.464	42.67
227.682	81.58
227.9	91.82
228.117	59.05
228.335	32.43
228.553	26.28
228.771	-2.39
228.989	71.34
229.206	136.87
229.424	32.43
229.642	22.19
229.86	-2.39
230.077	22.19
230.295	128.68
230.513	22.19
230.731	22.19
230.948	52.91
231.166	140.97
231.384	16.04
231.601	9.9
231.819	3.75
232.037	-0.34
232.254	26.28
232.472	3.75
232.689	3.75
232.907	38.57
233.125	75.43
233.342	85.67
233.56	9.9
233.777	50.86
233.995	65.19
234.213	75.43
234.43	50.86
234.648	22.19
234.865	20.14
235.083	-10.58
235.3	1.71
235.518	57
235.735	32.43
235.953	75.43
236.17	-33.11
236.388	32.43
236.605	108.2
236.822	132.78
237.04	75.43
237.257	95.91
237.475	-14.68
237.692	77.48
237.909	59.05
238.127	46.76
238.344	102.06
238.562	67.24
238.779	11.95
238.996	-26.96
239.214	108.2
239.431	50.86
239.648	50.86
239.865	46.76
240.083	85.67
240.3	5.8
240.517	20.14
240.735	42.67
240.952	50.86
241.169	75.43
241.386	34.47
241.603	40.62
241.821	-45.4
242.038	69.29
242.255	38.57
242.472	-20.82
242.689	20.14
242.907	46.76
243.124	-6.49
243.341	-31.06
243.558	42.67
243.775	18.09
243.992	-14.68
244.209	42.67
244.426	75.43
244.643	65.19
244.86	9.9
245.078	3.75
245.295	100.01
245.512	-2.39
245.729	-2.39
245.946	63.15
246.163	73.39
246.38	11.95
246.597	36.52
246.814	67.24
247.031	18.09
247.248	50.86
247.464	59.05
247.681	30.38
247.898	52.91
248.115	67.24
248.332	85.67
248.549	126.63
248.766	75.43
248.983	95.91
249.2	18.09
249.417	140.97
249.633	-14.68
249.85	22.19
250.067	30.38
250.284	63.15
250.501	57
250.717	50.86
250.934	9.9
251.151	32.43
251.368	79.53
251.585	26.28
251.801	38.57
252.018	85.67
252.235	52.91
252.451	75.43
252.668	42.67
252.885	100.01
253.102	3.75
253.318	100.01
253.535	59.05
253.752	-26.96
253.968	22.19
254.185	-12.63
254.401	11.95
254.618	44.71
254.835	-22.87
255.051	85.67
255.268	28.33
255.484	-18.77
255.701	22.19
255.917	42.67
256.134	63.15
256.351	28.33
256.567	102.06
256.784	65.19
257	61.1
257.217	110.25
257.433	83.63
257.65	7.85
257.866	67.24
258.082	5.8
258.299	1.71
258.515	83.63
258.732	34.47
258.948	-26.96
259.165	11.95
259.381	-12.63
259.597	-12.63
259.814	-22.87
260.03	42.67
260.246	44.71
260.463	67.24
260.679	83.63
260.895	63.15
261.112	28.33
261.328	59.05
261.544	44.71
261.761	44.71
261.977	32.43
262.193	42.67
262.409	26.28
262.626	77.48
262.842	59.05
263.058	-78.16
263.274	100.01
263.49	1.71
263.707	34.47
263.923	36.52
264.139	1.71
264.355	26.28
264.571	44.71
264.787	1.71
265.004	28.33
265.22	65.19
265.436	11.95
265.652	13.99
265.868	46.76
266.084	-45.4
266.3	190.12
266.516	-14.68
266.732	1.71
266.948	-0.34
267.164	100.01
267.38	81.58
267.596	93.87
267.812	108.2
268.028	75.43
268.244	7.85
268.46	97.96
268.676	67.24
268.892	50.86
269.108	87.72
269.324	26.28
269.54	-37.2
269.756	42.67
269.972	9.9
270.188	95.91
270.403	28.33
270.619	36.52
270.835	46.76
271.051	3.75
271.267	1.71
271.483	42.67
271.698	71.34
271.914	136.87
272.13	-16.73
272.346	91.82
272.562	-12.63
272.777	59.05
272.993	34.47
273.209	44.71
273.425	48.81
273.64	-4.44
273.856	38.57
274.072	3.75
274.287	75.43
274.503	-22.87
274.719	7.85
274.934	-51.54
275.15	-41.3
275.366	26.28
275.581	-14.68
275.797	85.67
276.012	50.86
276.228	16.04
276.444	46.76
276.659	20.14
276.875	1.71
277.09	1.71
277.306	-12.63
277.521	16.04
277.737	-14.68
277.952	63.15
278.168	59.05
278.383	50.86
278.599	11.95
278.814	24.23
279.03	44.71
279.245	91.82
279.461	71.34
279.676	61.1
279.892	-47.44
280.107	85.67
280.322	-4.44
280.538	132.78
280.753	-4.44
280.969	54.95
281.184	-26.96
281.399	67.24
281.615	28.33
281.83	77.48
282.045	-4.44
282.26	-10.58
282.476	34.47
282.691	93.87
282.906	34.47
283.122	59.05
283.337	18.09
283.552	42.67
283.767	61.1
283.983	42.67
284.198	67.24
284.413	71.34
284.628	44.71
284.843	95.91
285.058	71.34
285.274	118.44
285.489	34.47
285.704	36.52
285.919	52.91
286.134	93.87
286.349	36.52
286.564	5.8
286.779	83.63
286.995	36.52
287.21	3.75
287.425	71.34
287.64	83.63
287.855	91.82
288.07	22.19
288.285	124.58
288.5	18.09
288.715	34.47
288.93	18.09
289.145	46.76
289.36	-0.34
289.575	100.01
289.79	89.77
290.004	93.87
290.219	108.2
290.434	-4.44
290.649	50.86
290.864	20.14
291.079	-2.39
291.294	13.99
291.509	104.11
291.724	9.9
291.938	34.47
292.153	61.1
292.368	46.76
292.583	-26.96
292.798	83.63
293.012	59.05
293.227	-10.58
293.442	-14.68
293.657	69.29
293.871	91.82
294.086	-12.63
294.301	114.34
294.516	71.34
294.73	26.28
294.945	30.38
295.16	36.52
295.374	20.14
295.589	34.47
295.804	-6.49
296.018	18.09
296.233	57
296.447	48.81
296.662	-18.77
296.877	61.1
297.091	67.24
297.306	50.86
297.52	59.05
297.735	75.43
297.949	9.9
298.164	11.95
298.378	26.28
298.593	-20.82
298.807	-24.92
299.022	77.48
299.236	20.14
299.451	36.52
299.665	50.86
299.88	-12.63
300.094	65.19
300.309	-6.49
300.523	5.8
300.737	75.43
300.952	22.19
301.166	34.47
301.381	1.71
301.595	-6.49
301.809	-22.87
302.024	38.57
302.238	-22.87
302.452	102.06
302.667	122.54
302.881	100.01
303.095	61.1
303.309	50.86
303.524	5.8
303.738	36.52
303.952	18.09
304.166	69.29
304.381	16.04
304.595	42.67
304.809	65.19
305.023	46.76
305.237	91.82
305.452	9.9
305.666	50.86
305.88	95.91
306.094	75.43
306.308	30.38
306.522	65.19
306.736	100.01
306.95	67.24
307.164	-22.87
307.379	5.8
307.593	28.33
307.807	52.91
308.021	69.29
308.235	26.28
308.449	18.09
308.663	83.63
308.877	87.72
309.091	50.86
309.305	67.24
309.519	20.14
309.733	102.06
309.947	30.38
310.161	20.14
310.374	63.15
310.588	54.95
310.802	-18.77
311.016	9.9
311.23	42.67
311.444	-39.25
311.658	30.38
311.872	44.71
312.085	65.19
312.299	63.15
312.513	59.05
312.727	30.38
312.941	-4.44
313.154	38.57
313.368	83.63
313.582	91.82
313.796	38.57
314.009	-6.49
314.223	42.67
314.437	71.34
314.651	67.24
314.864	-20.82
315.078	52.91
315.292	40.62
315.505	-35.16
315.719	79.53
315.933	-26.96
316.146	44.71
316.36	38.57
316.573	26.28
316.787	20.14
317.001	91.82
317.214	1.71
317.428	61.1
317.641	-72.02
317.855	67.24
318.068	42.67
318.282	26.28
318.495	42.67
318.709	50.86
318.922	22.19
319.136	136.87
319.349	50.86
319.563	36.52
319.776	30.38
319.99	42.67
320.203	24.23
320.417	38.57
320.63	57
320.843	143.02
321.057	28.33
321.27	18.09
321.483	100.01
321.697	48.81
321.91	26.28
322.124	-4.44
322.337	-8.53
322.55	67.24
322.763	83.63
322.977	110.25
323.19	77.48
323.403	87.72
323.617	91.82
323.83	-4.44
324.043	38.57
324.256	75.43
324.469	5.8
324.683	61.1
324.896	69.29
325.109	-14.68
325.322	54.95
325.535	97.96
325.748	20.14
325.962	34.47
326.175	83.63
326.388	83.63
326.601	42.67
326.814	-2.39
327.027	65.19
327.24	140.97
327.453	-2.39
327.666	73.39
327.879	61.1
328.092	108.2
328.305	87.72
328.518	52.91
328.731	83.63
328.944	69.29
329.157	120.49
329.37	26.28
329.583	91.82
329.796	100.01
330.009	-35.16
330.222	67.24
330.435	9.9
330.648	50.86
330.861	71.34
331.073	36.52
331.286	93.87
331.499	48.81
331.712	13.99
331.925	46.76
332.138	73.39
332.35	85.67
332.563	-12.63
332.776	100.01
332.989	-26.96
333.202	77.48
333.414	26.28
333.627	-31.06
333.84	116.39
334.053	95.91
334.265	83.63
334.478	1.71
334.691	-14.68
334.903	77.48
335.116	18.09
335.329	50.86
335.541	34.47
335.754	100.01
335.966	-12.63
336.179	75.43
336.392	128.68
336.604	52.91
336.817	20.14
337.029	116.39
337.242	87.72
337.454	44.71
337.667	20.14
337.88	36.52
338.092	18.09
338.305	83.63
338.517	-6.49
338.729	3.75
338.942	138.92
339.154	36.52
339.367	40.62
339.579	79.53
339.792	38.57
340.004	87.72
340.217	22.19
340.429	18.09
340.641	24.23
340.854	34.47
341.066	75.43
341.278	50.86
341.491	118.44
341.703	93.87
341.915	73.39
342.128	20.14
342.34	34.47
342.552	34.47
342.764	61.1
342.977	50.86
343.189	34.47
343.401	57
343.613	5.8
343.826	116.39
344.038	34.47
344.25	34.47
344.462	38.57
344.674	1.71
344.886	34.47
345.099	20.14
345.311	26.28
345.523	3.75
345.735	-37.2
345.947	91.82
346.159	46.76
346.371	116.39
346.583	63.15
346.795	30.38
347.007	13.99
347.219	34.47
347.431	75.43
347.643	42.67
347.855	52.91
348.067	77.48
348.279	87.72
348.491	34.47
348.703	87.72
348.915	122.54
349.127	-51.54
349.339	50.86
349.551	46.76
349.763	44.71
349.975	69.29
350.187	9.9
350.399	18.09
350.61	44.71
350.822	9.9
351.034	87.72
351.246	104.11
351.458	89.77
351.669	30.38
351.881	13.99
352.093	18.09
352.305	110.25
352.517	46.76
352.728	59.05
352.94	-4.44
353.152	87.72
353.363	9.9
353.575	-31.06
353.787	69.29
353.999	87.72
354.21	83.63
354.422	26.28
354.633	-22.87
354.845	52.91
355.057	-2.39
355.268	100.01
355.48	91.82
355.692	11.95
355.903	26.28
356.115	85.67
356.326	42.67
356.538	40.62
356.749	124.58
356.961	83.63
357.172	34.47
357.384	59.05
357.595	83.63
357.807	79.53
358.018	42.67
358.23	71.34
358.441	95.91
358.653	93.87
358.864	48.81
359.075	26.28
359.287	26.28
359.498	95.91
359.709	3.75
359.921	91.82
360.132	22.19
360.344	3.75
360.555	46.76
360.766	91.82
360.977	57
361.189	34.47
361.4	3.75
361.611	75.43
361.823	100.01
362.034	87.72
362.245	28.33
362.456	36.52
362.667	54.95
362.879	38.57
363.09	46.76
363.301	38.57
363.512	57
363.723	1.71
363.935	1.71
364.146	161.45
364.357	-4.44
364.568	108.2
364.779	9.9
364.99	1.71
365.201	-12.63
365.412	69.29
365.623	36.52
365.834	59.05
366.045	59.05
366.256	69.29
366.467	26.28
366.678	42.67
366.889	63.15
367.1	18.09
367.311	46.76
367.522	63.15
367.733	42.67
367.944	108.2
368.155	77.48
368.366	69.29
368.577	57
368.788	102.06
368.999	108.2
369.209	69.29
369.42	71.34
369.631	149.16
369.842	44.71
370.053	93.87
370.264	77.48
370.474	100.01
370.685	73.39
370.896	-10.58
371.107	69.29
371.317	87.72
371.528	32.43
371.739	44.71
371.95	110.25
372.16	71.34
372.371	42.67
372.582	50.86
372.792	61.1
373.003	44.71
373.214	52.91
373.424	44.71
373.635	95.91
373.846	100.01
374.056	81.58
374.267	-29.01
374.477	77.48
374.688	42.67
374.898	-2.39
375.109	67.24
375.319	48.81
375.53	116.39
375.74	77.48
375.951	22.19
376.161	9.9
376.372	106.15
376.582	75.43
376.793	63.15
377.003	83.63
377.214	87.72
377.424	102.06
377.635	100.01
377.845	36.52
378.055	71.34
378.266	5.8
378.476	95.91
378.686	79.53
378.897	65.19
379.107	40.62
379.317	59.05
379.528	110.25
379.738	59.05
379.948	61.1
380.158	108.2
380.369	59.05
380.579	110.25
380.789	69.29
380.999	75.43
381.21	118.44
381.42	116.39
381.63	75.43
381.84	61.1
382.05	50.86
382.261	95.91
382.471	108.2
382.681	87.72
382.891	44.71
383.101	91.82
383.311	22.19
383.521	44.71
383.731	54.95
383.941	128.68
384.151	67.24
384.361	65.19
384.571	85.67
384.781	110.25
384.991	104.11
385.201	89.77
385.411	77.48
385.621	83.63
385.831	42.67
386.041	-4.44
386.251	95.91
386.461	91.82
386.671	116.39
386.881	61.1
387.091	122.54
387.301	-12.63
387.511	116.39
387.72	110.25
387.93	132.78
388.14	32.43
388.35	67.24
388.56	108.2
388.769	85.67
388.979	11.95
389.189	73.39
389.399	77.48
389.609	181.93
389.818	93.87
390.028	28.33
390.238	67.24
390.447	114.34
390.657	91.82
390.867	3.75
391.076	46.76
391.286	44.71
391.496	48.81
391.705	69.29
391.915	81.58
392.125	159.4
392.334	91.82
392.544	190.12
392.753	54.95
392.963	75.43
393.172	67.24
393.382	40.62
393.591	155.3
393.801	13.99
394.01	102.06
394.22	52.91
394.429	22.19
394.639	89.77
394.848	106.15
395.058	106.15
395.267	108.2
395.477	102.06
395.686	100.01
395.895	181.93
396.105	108.2
396.314	79.53
396.524	122.54
396.733	83.63
396.942	100.01
397.152	91.82
397.361	167.59
397.57	124.58
397.78	81.58
397.989	34.47
398.198	149.16
398.407	34.47
398.617	126.63
398.826	91.82
399.035	208.55
399.244	50.86
399.453	116.39
399.663	143.02
399.872	63.15
400.081	112.3
400.29	118.44
400.499	73.39
400.708	149.16
400.917	91.82
401.127	79.53
401.336	36.52
401.545	167.59
401.754	116.39
401.963	132.78
402.172	175.78
402.381	126.63
402.59	124.58
402.799	108.2
403.008	159.4
403.217	116.39
403.426	159.4
403.635	87.72
403.844	132.78
404.053	136.87
404.262	167.59
404.471	210.6
404.68	192.17
404.888	186.02
405.097	165.54
405.306	192.17
405.515	210.6
405.724	149.16
405.933	116.39
406.142	149.16
406.35	194.22
406.559	140.97
406.768	186.02
406.977	190.12
407.185	231.08
407.394	214.7
407.603	157.35
407.812	222.89
408.02	202.41
408.229	272.04
408.438	249.51
408.646	124.58
408.855	290.47
409.064	255.65
409.272	249.51
409.481	341.67
409.69	257.7
409.898	284.33
410.107	313
410.315	374.44
410.524	343.72
410.733	323.24
410.941	405.16
411.15	390.82
411.358	427.68
411.567	427.68
411.775	405.16
411.984	462.5
412.192	437.92
412.401	415.4
412.609	497.32
412.818	448.16
413.026	468.64
413.234	542.37
413.443	562.85
413.651	497.32
413.86	583.33
414.068	546.47
414.276	673.44
414.485	689.82
414.693	661.15
414.901	753.31
415.11	665.25
415.318	798.37
415.526	673.44
415.734	722.59
415.943	804.51
416.151	835.23
416.359	779.93
416.567	902.81
416.776	902.81
416.984	935.58
417.192	1001.12
417.4	1060.51
417.608	1003.16
417.817	1021.6
418.025	1199.77
418.233	1158.81
418.441	1197.72
418.649	1148.57
418.857	1306.26
419.065	1279.64
419.273	1281.69
419.481	1279.64
419.689	1468.05
419.897	1533.59
420.105	1468.05
420.313	1533.59
420.521	1693.33
420.729	1674.9
420.937	1646.23
421.145	1666.71
421.353	1779.34
421.561	1926.8
421.769	1879.69
421.977	2041.48
422.185	2008.72
422.393	2229.9
422.601	2147.98
422.809	2229.9
423.017	2330.25
423.224	2391.69
423.432	2528.9
423.64	2506.37
423.848	2717.31
424.056	2627.2
424.263	2836.1
424.471	2829.95
424.679	2969.21
424.887	3067.52
425.094	3131
425.302	3214.97
425.51	3327.61
425.718	3280.5
425.925	3352.18
426.133	3565.17
426.341	3731.06
426.548	3950.19
426.756	3858.03
426.964	4054.64
427.171	4204.14
427.379	4226.67
427.586	4320.87
427.794	4462.18
428.001	4740.71
428.209	4777.57
428.417	4777.57
428.624	5248.6
428.832	5105.24
429.039	4990.56
429.247	4888.16
429.454	5490.26
429.662	5932.62
429.869	5621.33
430.076	5862.99
430.284	5785.17
430.491	6092.37
430.699	6239.82
430.906	6211.15
431.114	6461
431.321	6561.35
431.528	6731.33
431.736	7110.21
431.943	7530.04
432.15	7366.2
432.358	7464.5
432.565	7843.38
432.772	7802.42
432.979	8066.61
433.187	8359.47
433.394	8449.58
433.601	9037.34
433.808	8969.76
434.016	8916.51
434.223	9102.88
434.43	9963.03
434.637	9680.41
434.844	10176.02
435.052	10505.74
435.259	10382.86
435.466	10419.72
435.673	10472.97
435.88	11322.88
436.087	11656.7
436.294	11875.83
436.501	11456
436.708	11478.52
436.915	12002.8
437.122	12373.49
437.329	12443.12
437.537	13055.46
437.743	12920.29
437.95	13008.36
438.157	13565.4
438.364	14110.16
438.571	14175.7
438.778	14140.88
438.985	15580.6
439.192	14853.58
439.399	15173.06
439.606	14912.97
439.813	15822.27
440.02	16897.45
440.227	16407.98
440.433	16502.19
440.64	16819.63
440.847	16569.77
441.054	17243.56
441.261	18085.27
441.467	17794.46
441.674	18394.51
441.881	19164.55
442.088	19127.69
442.294	18830.73
442.501	19447.17
442.708	19885.44
442.914	20448.63
443.121	21157.22
443.328	20714.86
443.534	22144.34
443.741	21419.36
443.948	21144.94
444.154	22891.85
444.361	22775.12
444.568	22873.42
444.774	22768.98
444.981	22992.2
445.187	23620.93
445.394	24614.2
445.6	24442.17
445.807	26551.57
446.013	25576.74
446.22	26076.44
446.426	27139.34
446.633	27106.57
446.839	28441.85
447.046	26934.54
447.252	28404.99
447.459	28239.1
447.665	28476.66
447.871	29355.24
448.078	31087.82
448.284	29578.47
448.491	30448.86
448.697	31309
448.903	32134.34
449.11	32359.61
449.316	31411.4
449.522	32292.03
449.728	33035.44
449.935	33379.5
450.141	33438.89
450.347	34045.09
450.553	33119.41
450.76	33557.67
450.966	34552.99
451.172	33922.21
451.378	35042.45
451.584	34481.31
451.791	35363.98
451.997	34673.82
452.203	35615.88
452.409	35701.9
452.615	35562.64
452.821	34159.78
453.027	34028.71
453.233	35708.04
453.44	34335.9
453.646	34909.33
453.852	34903.19
454.058	35488.91
454.264	34340
454.47	35095.7
454.676	34344.09
454.882	35308.69
455.088	32847.03
455.294	33223.86
455.5	33467.56
455.705	33668.26
455.911	32318.65
456.117	31831.24
456.323	31458.51
456.529	29711.59
456.735	31147.22
456.941	30162.14
457.147	29932.77
457.352	29138.16
457.558	28857.59
457.764	29009.14
457.97	28513.53
458.176	28038.4
458.381	27917.57
458.587	26516.76
458.793	26406.17
458.999	25218.35
459.204	26842.39
459.41	25849.12
459.616	24368.44
459.821	24255.8
460.027	24571.19
460.233	23964.99
460.438	22656.34
460.644	22988.11
460.85	21669.22
461.055	21562.72
461.261	21407.08
461.466	19787.13
461.672	19197.32
461.878	20755.82
462.083	19297.67
462.289	19129.73
462.494	18761.1
462.7	18148.76
462.905	17595.81
463.111	18230.68
463.316	18204.05
463.522	17757.6
463.727	17829.27
463.932	17759.64
464.138	17534.37
464.343	17593.76
464.549	17046.95
464.754	17759.64
464.959	17626.53
465.165	17194.4
465.37	16657.84
465.575	16227.76
465.781	16811.43
465.986	16922.02
466.191	16184.76
466.397	15891.9
466.602	14994.89
466.807	15920.57
467.012	15744.44
467.218	15705.53
467.423	15289.79
467.628	15502.78
467.833	16192.95
468.038	15711.67
468.244	15519.17
468.449	16059.83
468.654	15494.59
468.859	15078.85
469.064	15113.67
469.269	14673.35
469.474	14767.56
469.679	15003.08
469.885	14829
470.09	14783.95
470.295	14742.99
470.5	14032.34
470.705	14296.53
470.91	14044.63
471.115	13852.12
471.32	14138.83
471.525	14165.46
471.73	13698.52
471.935	13694.43
472.139	13288.93
472.344	13366.75
472.549	13383.13
472.754	13149.67
472.959	12789.22
473.164	12830.18
473.369	12543.47
473.574	12715.5
473.778	12740.07
473.983	12486.12
474.188	12666.35
474.393	12135.92
474.598	12092.91
474.802	12039.67
475.007	11910.64
475.212	11705.85
475.417	11382.27
475.621	11677.18
475.826	11599.35
476.031	11335.17
476.235	11156.99
476.44	11240.96
476.645	10907.14
476.849	11025.92
477.054	10948.1
477.259	10855.94
477.463	10630.66
477.668	10233.36
477.872	10702.34
478.077	10401.29
478.282	10212.88
478.486	10028.56
478.691	9920.02
478.895	10071.57
479.1	9883.16
479.304	9997.84
479.509	9766.42
479.713	9883.16
479.918	9442.84
480.122	9362.97
480.326	9688.6
480.531	9680.41
480.735	9389.6
480.94	9416.22
481.144	9621.02
481.348	9479.71
481.553	9326.11
481.757	9111.07
481.961	9291.29
482.166	9123.36
482.37	9334.3
482.574	8998.43
482.778	9203.23
482.983	9565.72
483.187	9158.17
483.391	9283.1
483.595	9158.17
483.8	8977.95
484.004	9387.55
484.208	9270.81
484.412	9229.85
484.616	9238.05
484.821	9233.95
485.025	8965.67
485.229	9233.95
485.433	9262.62
485.637	9121.31
485.841	8971.81
486.045	9100.83
486.249	9219.61
486.453	9199.13
486.657	9215.52
486.861	9160.22
487.065	8900.13
487.269	9063.97
487.473	8967.71
487.677	9168.41
487.881	9399.84
488.085	9131.55
488.289	9106.98
488.493	8975.91
488.697	9281.05
488.901	9121.31
489.105	9188.89
489.309	9317.92
489.512	9096.74
489.716	9348.64
489.92	9414.17
490.124	9100.83
490.328	9528.86
490.531	9262.62
490.735	9422.36
490.939	9549.34
491.143	9354.78
491.346	9352.73
491.55	9602.58
491.754	9344.54
491.958	9592.34
492.161	9602.58
492.365	9745.94
492.569	9762.33
492.772	9670.17
492.976	9682.45
493.18	9758.23
493.383	9811.48
493.587	9827.86
493.79	9944.59
493.994	9948.69
494.197	10083.86
494.401	10092.05
494.605	10137.1
494.808	10210.83
495.012	10389
495.215	10397.2
495.419	10409.48
495.622	10561.03
495.825	10460.68
496.029	10776.07
496.232	10800.65
496.436	10724.87
496.639	11105.79
496.843	10765.83
497.046	11304.45
497.249	11283.97
497.453	11038.21
497.656	11392.51
497.859	11449.85
498.063	11554.3
498.266	11732.47
498.469	11814.39
498.673	11867.64
498.876	12166.64
499.079	12160.5
499.282	12357.1
499.485	12602.86
499.689	12750.31
499.892	12733.93
500.095	12887.53
500.298	13307.36
500.501	12729.83
500.705	13319.65
500.908	13460.96
501.111	13385.18
501.314	13805.02
501.517	13876.69
501.72	14061.01
501.923	13788.63
502.126	14138.83
502.329	14413.26
502.532	14550.48
502.735	14669.26
502.938	14933.45
503.141	14935.49
503.344	15261.12
503.547	15115.72
503.75	15420.86
503.953	15674.81
504.156	15693.24
504.359	15977.91
504.562	16297.39
504.765	16328.11
504.968	16315.83
505.17	16618.93
505.373	16704.94
505.576	16971.18
505.779	17384.87
505.982	17302.95
506.185	17673.63
506.387	17651.1
506.59	18021.78
506.793	17790.36
506.996	18181.53
507.198	18601.36
507.401	18603.41
507.604	18666.89
507.807	19041.67
508.009	19262.85
508.212	19205.51
508.415	19512.7
508.617	19780.99
508.82	19953.02
509.022	19846.52
509.225	20424.05
509.428	20612.46
509.63	20534.64
509.833	20878.7
510.035	21247.33
510.238	20827.5
510.44	21343.59
510.643	21644.64
510.845	21843.29
511.048	21742.94
511.25	22097.24
511.453	22269.27
511.655	23174.47
511.858	22619.47
512.06	22967.63
512.262	23307.59
512.465	22930.76
512.667	23481.67
512.87	23895.36
513.072	23821.63
513.274	24278.33
513.477	24499.51
513.679	24200.51
513.881	24958.25
514.084	25234.73
514.286	25232.68
514.488	25404.71
514.69	26045.73
514.893	26043.68
515.095	26137.88
515.297	26733.84
515.499	26918.16
515.701	26952.98
515.904	27088.14
516.106	27391.24
516.308	27686.15
516.51	27682.05
516.712	27956.48
516.914	28157.18
517.116	28579.06
517.318	29050.1
517.52	28830.96
517.722	28978.42
517.925	29428.97
518.127	29590.76
518.329	30102.75
518.531	29967.59
518.733	30479.58
518.935	30387.42
519.136	30336.22
519.338	30928.08
519.54	31300.81
519.742	31749.32
519.944	31462.6
520.146	32009.41
520.348	32025.79
520.55	32203.97
520.752	32595.13
520.954	32949.43
521.155	33252.53
521.357	33406.12
521.559	33778.86
521.761	33848.49
521.963	33881.25
522.164	33805.48
522.366	34131.11
522.568	34561.18
522.77	34534.56
522.971	35024.02
523.173	35214.48
523.375	35363.98
523.576	35325.07
523.778	35519.63
523.98	35875.98
524.181	35789.96
524.383	36082.82
524.584	36725.88
524.786	36676.73
524.988	36269.19
525.189	36686.97
525.391	36938.87
525.592	37168.24
525.794	37467.25
525.995	37559.41
526.197	37641.32
526.398	37536.88
526.6	37753.96
526.801	37725.29
527.003	38157.41
527.204	38138.98
527.406	38421.6
527.607	38757.47
527.808	38720.6
528.01	38079.59
528.211	38497.38
528.412	39058.52
528.614	39185.49
528.815	39105.62
529.016	39720.01
529.218	39097.43
529.419	39345.23
529.62	39236.69
529.822	39093.33
530.023	39412.82
530.224	39263.32
530.425	39361.62
530.626	39410.77
530.828	39097.43
531.029	40064.07
531.23	39660.62
531.431	39230.55
531.632	40105.03
531.833	39943.24
532.035	39918.67
532.236	40080.46
532.437	40209.48
532.638	39621.71
532.839	40154.18
533.04	40449.09
533.241	39912.52
533.442	40332.36
533.643	40160.33
533.844	39963.72
534.045	40115.27
534.246	39830.6
534.447	40315.97
534.648	40262.72
534.849	39994.44
535.05	39930.95
535.251	40209.48
535.451	40031.3
535.652	40383.55
535.853	40207.43
536.054	40307.78
536.255	40477.76
536.456	39965.77
536.657	40719.42
536.857	40000.58
537.058	40127.56
537.259	40559.68
537.46	40254.53
537.66	39803.98
537.861	40821.82
538.062	40057.93
538.263	40455.23
538.463	39709.77
538.664	40561.73
538.865	39803.98
539.065	40236.1
539.266	39732.3
539.466	40447.04
539.667	39996.49
539.868	40522.82
540.068	40068.17
540.269	40070.22
540.469	40037.45
540.67	39595.09
540.87	39752.78
541.071	39887.95
541.271	40197.19
541.472	39754.83
541.672	39709.77
541.873	39742.54
542.073	39541.84
542.274	40145.99
542.474	39767.12
542.675	39728.2
542.875	40184.9
543.075	39685.2
543.276	39398.48
543.476	39777.36
543.676	39593.04
543.877	39889.99
544.077	39687.25
544.277	39830.6
544.478	39902.28
544.678	40057.93
544.878	39642.19
545.078	39754.83
545.279	39705.68
545.479	39507.02
545.679	39775.31
545.879	39470.16
546.079	39724.11
546.28	39851.08
546.48	39441.49
546.68	39607.37
546.88	39787.6
547.08	39836.75
547.28	39668.81
547.48	39203.92
547.68	39547.98
547.88	38964.31
548.081	39990.34
548.281	39332.95
548.481	39277.65
548.681	39644.24
548.881	39300.18
549.081	39509.07
549.28	39443.54
549.48	39535.7
549.68	39396.43
549.88	39574.61
550.08	39416.91
550.28	39218.26
550.48	39251.03
550.68	39527.5
550.88	39167.06
551.08	39623.76
551.279	39414.87
551.479	38968.41
551.679	39457.87
551.879	38980.7
552.079	39490.64
552.278	38872.15
552.478	38949.98
552.678	38900.83
552.878	39515.22
553.077	39015.51
553.277	38726.75
553.477	39423.06
553.676	39076.95
553.876	39013.46
554.076	38591.58
554.275	38775.9
554.475	38386.78
554.674	38976.6
554.874	38562.91
555.074	38786.14
555.273	38802.52
555.473	39111.77
555.672	38394.98
555.872	38675.55
556.071	38644.83
556.271	38585.44
556.47	38636.64
556.67	38427.74
556.869	38243.43
557.068	38567.01
557.268	38476.9
557.467	38370.4
557.667	38247.52
557.866	38409.31
558.065	38157.41
558.265	38124.64
558.464	37930.09
558.663	38614.11
558.863	37942.38
559.062	38362.21
559.261	37835.88
559.461	38214.76
559.66	37485.68
559.859	37878.89
560.058	37782.63
560.258	37637.23
560.457	37405.81
560.656	37915.75
560.855	37682.28
561.054	37829.74
561.253	37217.39
561.453	37489.77
561.652	37653.61
561.851	37641.32
562.05	37266.55
562.249	37092.47
562.448	37344.37
562.647	37086.32
562.846	37094.52
563.045	37110.9
563.244	36594.81
563.443	37385.33
563.642	36445.31
563.841	36703.35
564.04	36955.25
564.239	37112.95
564.438	36811.9
564.637	36779.13
564.836	36504.7
565.035	36357.25
565.234	36521.09
565.432	36226.18
565.631	36361.34
565.83	36547.71
566.029	36285.57
566.228	36033.67
566.427	36054.15
566.625	35744.91
566.824	35361.94
567.023	36060.29
567.222	35677.32
567.42	36177.03
567.619	35751.05
567.818	35910.79
568.016	35642.51
568.215	35867.78
568.414	35462.29
568.612	35812.49
568.811	35546.25
569.01	35476.62
569.208	35177.62
569.407	35212.43
569.605	34788.5
569.804	34905.24
570.002	34540.7
570.201	34987.16
570.4	34426.01
570.598	34548.89
570.797	34380.96
570.995	34278.56
571.193	34170.02
571.392	34571.42
571.59	34157.73
571.789	34213.02
571.987	34094.24
572.186	34100.39
572.384	33995.94
572.582	34354.33
572.781	34092.19
572.979	33621.16
573.177	33510.57
573.376	34184.35
573.574	33694.89
573.772	33823.91
573.971	33043.63
574.169	33451.18
574.367	32994.48
574.565	33451.18
574.763	33100.98
574.962	33232.05
575.16	32576.7
575.358	33076.4
575.556	32519.35
575.754	33051.83
575.952	32502.97
576.151	32773.3
576.349	32523.45
576.547	32535.74
576.745	32343.23
576.943	32677.05
577.141	32535.74
577.339	32134.34
577.537	32156.86
577.735	32152.77
577.933	31651.02
578.131	32054.47
578.329	31657.16
578.527	31775.94
578.725	31769.8
578.923	31794.37
579.121	31667.4
579.319	31710.41
579.516	31298.77
579.714	31474.89
579.912	31390.92
580.11	31513.8
580.308	31124.69
580.506	31036.63
580.704	30667.99
580.901	30674.13
581.099	30782.68
581.297	30547.16
581.495	30880.98
581.692	30864.6
581.89	30467.29
582.088	30590.17
582.285	30399.71
582.483	30895.32
582.681	30096.61
582.878	30221.53
583.076	30112.99
583.274	30199.01
583.471	29703.4
583.669	30065.89
583.866	29658.34
584.064	30117.09
584.262	29607.14
584.459	29785.32
584.657	29353.19
584.854	29752.55
585.052	29129.97
585.249	29002.99
585.447	29148.4
585.644	29021.42
585.841	29275.37
586.039	29093.1
586.236	28876.02
586.434	28898.55
586.631	28906.74
586.828	28599.54
587.026	28843.25
587.223	28771.57
587.42	28263.68
587.618	28716.28
587.815	27897.09
588.012	28245.24
588.21	27897.09
588.407	28251.39
588.604	28110.08
588.801	27665.67
588.999	27860.23
589.196	27469.06
589.393	27946.24
589.59	27899.14
589.787	27432.2
589.984	27720.96
590.182	27143.44
590.379	27645.19
590.576	27215.12
590.773	27301.13
590.97	27038.99
591.167	27051.28
591.364	26549.53
591.561	27227.4
591.758	26516.76
591.955	26754.32
592.152	26817.81
592.349	26731.79
592.546	26449.18
592.743	26676.5
592.94	26402.07
593.137	26010.91
593.334	26422.55
593.531	25863.46
593.727	25992.48
593.924	25806.11
594.121	25908.51
594.318	26275.1
594.515	25662.76
594.712	25840.93
594.908	25591.08
595.105	25580.84
595.302	25330.98
595.499	25251.11
595.696	25298.22
595.892	25011.5
596.089	25406.76
596.286	25410.85
596.482	25064.75
596.679	24995.12
596.876	24806.7
597.072	24778.03
597.269	24896.81
597.466	24495.41
597.662	24649.01
597.859	24485.17
598.055	24796.46
598.252	24284.47
598.448	24243.51
598.645	24220.99
598.841	23995.71
599.038	23934.27
599.234	23932.22
599.431	23887.17
599.627	23866.69
599.824	24030.52
600.02	23838.01
600.217	23670.08
600.413	23450.95
600.609	23563.59
600.806	23678.27
601.002	23082.31
601.198	23586.11
601.395	23260.49
601.591	23092.55
601.787	23244.1
601.984	23029.07
602.18	23180.62
602.376	23018.83
602.572	22787.41
602.769	23031.12
602.965	22512.98
603.161	22900.05
603.357	22656.34
603.553	22443.35
603.75	22730.06
603.946	22371.67
604.142	22490.45
604.338	22334.81
604.534	22246.74
604.73	21933.4
604.926	21929.31
605.122	22402.39
605.318	22035.8
605.514	21986.65
605.71	21701.98
605.906	21839.2
606.102	21566.82
606.298	21890.4
606.494	21734.75
606.69	21517.67
606.886	21716.32
607.082	21259.62
607.278	21486.95
607.474	21060.97
607.67	21431.65
607.866	21038.44
608.062	21333.35
608.257	21151.08
608.453	21187.94
608.649	20981.1
608.845	21103.98
609.041	20991.34
609.236	20979.05
609.432	20878.7
609.628	20721.01
609.824	20786.54
610.019	21108.07
610.215	20630.9
610.411	20907.37
610.606	20458.87
610.802	20573.55
610.998	20471.15
611.193	20761.97
611.389	20626.8
611.584	20460.91
611.78	20260.21
611.976	20383.09
612.171	20473.2
612.367	20215.16
612.562	20415.86
612.758	19780.99
612.953	19856.76
613.149	20284.79
613.344	19885.44
613.539	20196.73
613.735	20096.38
613.93	20032.89
614.126	19723.65
614.321	19887.48
614.517	19770.75
614.712	19688.83
614.907	19598.72
615.103	19991.93
615.298	19707.26
615.493	19756.41
615.688	19314.05
615.884	19989.88
616.079	19467.65
616.274	19533.18
616.47	19490.18
616.665	19494.27
616.86	19230.09
617.055	19420.55
617.25	19221.89
617.445	19420.55
617.641	19043.72
617.836	19066.25
618.031	19264.9
618.226	18730.38
618.421	18939.27
618.616	19125.64
618.811	18728.33
619.006	19213.7
619.201	18261.4
619.396	18761.1
619.591	18361.75
619.786	18738.57
619.981	18328.98
620.176	18488.72
620.371	18353.55
620.566	18275.73
620.761	18146.71
620.956	18398.61
621.151	17997.21
621.346	17982.87
621.541	17692.06
621.735	17771.93
621.93	17470.88
622.125	17384.87
622.32	17335.71
622.515	17517.98
622.709	17517.98
622.904	17382.82
623.099	17159.59
623.294	17360.29
623.488	16842.15
623.683	17202.6
623.878	16870.83
624.072	16745.9
624.267	16807.34
624.462	16324.02
624.656	16303.54
624.851	16494
625.046	16324.02
625.24	16375.22
625.435	16045.49
625.629	16004.53
625.824	15973.81
626.018	15961.53
626.213	15517.12
626.407	15979.96
626.602	15625.66
626.796	15640
626.991	15463.87
627.185	15394.24
627.38	15214.02
627.574	15312.32
627.768	15121.86
627.963	14923.21
628.157	14896.58
628.352	15101.38
628.546	14738.89
628.74	14839.24
628.935	14460.37
629.129	14511.57
629.323	14605.77
629.517	14341.58
629.712	14317.01
629.906	14214.61
630.1	14167.51
630.294	14196.18
630.489	13960.66
630.683	14075.35
630.877	13549.02
631.071	13698.52
631.265	13901.27
631.459	13821.4
631.653	13682.14
631.848	13440.48
632.042	13391.33
632.236	13460.96
632.43	13192.67
632.624	13536.73
632.818	13256.16
633.012	13151.71
633.206	13018.6
633.4	13237.73
633.594	12803.56
633.788	12817.9
633.982	12946.92
634.176	12856.81
634.369	12699.11
634.563	12609
634.757	12475.88
634.951	12602.86
635.145	12473.84
635.339	12219.89
635.533	12371.44
635.726	12363.25
635.92	12242.42
636.114	12123.63
636.308	12043.76
636.501	11939.32
636.695	12080.63
636.889	11867.64
637.083	11947.51
637.276	11742.71
637.47	11601.4
637.664	11879.93
637.857	11449.85
638.051	11697.66
638.244	11531.77
638.438	11302.4
638.632	11314.69
638.825	11079.17
639.019	11263.49
639.212	11079.17
639.406	11075.07
639.599	10913.28
639.793	11005.44
639.986	10972.68
640.18	10923.52
640.373	10642.95
640.567	10626.57
640.76	10601.99
640.954	10626.57
641.147	10479.11
641.34	10591.75
641.534	10513.93
641.727	10595.85
641.92	10503.69
642.114	10071.57
642.307	10300.94
642.5	10219.02
642.694	10157.58
642.887	10171.92
643.08	10116.62
643.273	10169.87
643.467	10022.42
643.66	9911.83
643.853	10051.09
644.046	9621.02
644.239	10008.08
644.432	9764.37
644.626	9729.56
644.819	9651.74
645.012	9508.38
645.205	9496.09
645.398	9668.12
645.591	9340.44
645.784	9471.51
645.977	9299.48
646.17	9451.03
646.363	9192.99
646.556	9145.89
646.749	9010.72
646.942	9178.65
647.135	8941.09
647.328	9051.68
647.521	9178.65
647.714	8617.51
647.907	8668.71
648.099	8531.5
648.292	8754.73
648.485	8709.67
648.678	8717.86
648.871	8556.07
649.064	8529.45
649.256	8533.54
649.449	8425
649.642	8584.74
649.835	8394.28
650.027	8408.62
650.22	8535.59
650.413	8273.45
650.605	8164.91
650.798	8246.83
650.991	8050.22
651.183	8152.62
651.376	8158.77
651.568	8025.65
651.761	8082.99
651.954	8017.46
652.146	7685.69
652.339	7988.78
652.531	7720.5
652.724	7759.41
652.916	7603.77
653.109	7577.14
653.301	7513.66
653.494	7767.6
653.686	7511.61
653.879	7509.56
654.071	7464.5
654.263	7433.79
654.456	7491.13
654.648	7296.57
654.84	7304.76
655.033	7198.27
655.225	7151.17
655.417	7165.5
655.61	7056.96
655.802	7128.64
655.994	7112.25
656.186	7155.26
656.379	7099.97
656.571	7059.01
656.763	6979.14
656.955	7069.25
657.148	6921.79
657.34	6893.12
657.532	6768.2
657.724	6657.61
657.916	6977.09
658.108	6743.62
658.3	6743.62
658.492	6846.02
658.684	6555.21
658.876	6555.21
659.068	6461
659.26	6428.23
659.452	6452.81
659.644	6581.83
659.836	6499.91
660.028	6549.06
660.22	6317.64
660.412	6229.58
660.604	6133.33
660.796	6424.14
660.988	6329.93
661.18	6164.04
661.372	6159.95
661.563	6190.67
661.755	6075.98
661.947	6086.22
662.139	6229.58
662.331	5955.15
662.522	5805.65
662.714	5836.37
662.906	5942.86
663.097	5721.68
663.289	5910.1
663.481	5725.78
663.673	5793.36
663.864	5719.64
664.056	5809.75
664.247	5809.75
664.439	5754.45
664.631	5590.61
664.822	5557.85
665.014	5690.96
665.205	5611.09
665.397	5457.5
665.588	5703.25
665.78	5518.93
665.971	5533.27
666.163	5426.78
666.354	5449.3
666.546	5445.21
666.737	5377.62
666.929	5396.06
667.12	5299.8
667.311	5166.68
667.503	5164.64
667.694	5232.22
667.885	5174.88
668.077	5172.83
668.268	5088.86
668.459	5123.68
668.651	5140.06
668.842	5138.01
669.033	5117.53
669.224	5117.53
669.416	4996.7
669.607	5027.42
669.798	5052
669.989	4947.55
670.18	4908.64
670.371	4820.58
670.563	4908.64
670.754	4925.02
670.945	4824.67
671.136	4908.64
671.327	4777.57
671.518	4752.99
671.709	4781.67
671.9	4867.68
672.091	4820.58
672.282	4597.35
672.473	4511.33
672.664	4740.71
672.855	4562.53
673.046	4540.01
673.237	4775.52
673.428	4728.42
673.619	4599.4
673.809	4587.11
674	4630.12
674.191	4472.42
674.382	4492.9
674.573	4650.6
674.764	4474.47
674.954	4576.87
675.145	4425.32
675.336	4449.89
675.527	4464.23
675.717	4560.49
675.908	4327.02
676.099	4404.84
676.289	4410.98
676.48	4324.97
676.671	4214.38
676.861	4333.16
677.052	4370.02
677.243	4290.15
677.433	4216.43
677.624	4300.39
677.814	4302.44
678.005	4183.66
678.195	4294.25
678.386	4236.91
678.576	3950.19
678.767	4230.76
678.957	4216.43
679.148	4161.13
679.338	4195.95
679.529	4130.41
679.719	4214.38
679.909	4355.69
680.1	4032.11
680.29	4136.56
680.481	4200.04
680.671	3999.34
680.861	4040.3
681.052	3976.81
681.242	3905.14
681.432	4025.97
681.622	3985.01
681.813	3970.67
682.003	4146.8
682.193	4081.26
682.383	4025.97
682.573	3989.1
682.764	3946.09
682.954	3966.57
683.144	3985.01
683.334	4081.26
683.524	3896.94
683.714	3892.85
683.904	3876.46
684.094	4032.11
684.284	3960.43
684.474	4017.77
684.664	3860.08
684.854	3892.85
685.044	3942
685.234	3890.8
685.424	3815.02
685.614	3855.98
685.804	3747.44
685.994	3731.06
686.184	3802.74
686.374	3663.47
686.564	3655.28
686.753	3716.72
686.943	3524.21
687.133	3665.52
687.323	3540.6
687.513	3634.8
687.702	3608.18
687.892	3614.32
688.082	3630.71
688.272	3679.86
688.461	3559.03
688.651	3630.71
688.841	3473.01
689.03	3468.92
689.22	3690.1
689.41	3573.36
689.599	3483.25
689.789	3509.88
689.979	3475.06
690.168	3421.81
690.358	3239.55
690.547	3341.94
690.737	3444.34
690.926	3280.5
691.116	3190.39
691.305	3466.87
691.495	3421.81
691.684	3163.77
691.874	3311.22
692.063	3286.65
692.252	3280.5
692.442	3235.45
692.631	3221.11
692.82	3343.99
693.01	3294.84
693.199	3274.36
693.388	3229.31
693.578	3024.51
693.767	3264.12
693.956	2926.21
694.146	3176.06
694.335	3118.72
694.524	3100.28
694.713	3040.89
694.902	3024.51
695.092	2987.65
695.281	3049.08
695.47	3065.47
695.659	3008.12
695.848	3032.7
696.037	2997.88
696.226	3024.51
696.415	3004.03
696.604	2944.64
696.793	3036.8
696.982	2918.01
697.171	2887.29
697.36	2952.83
697.549	2778.75
697.738	2928.25
697.927	2971.26
698.116	2967.17
698.305	2713.22
698.494	2852.48
698.683	2827.9
698.872	2989.69
699.061	2901.63
699.25	2903.68
699.438	2881.15
699.627	2942.59
699.816	2809.47
700.005	2907.77
700.193	2672.26
700.382	2881.15
700.571	2770.56
700.76	2735.74
700.948	2770.56
701.137	2864.77
701.326	2745.98
701.514	2676.35
701.703	2866.81
701.892	2827.9
702.08	2872.96
702.269	2758.27
702.457	2563.72
702.646	2719.36
702.834	2700.93
703.023	2778.75
703.212	2690.69
703.4	2678.4
703.589	2643.59
703.777	2690.69
703.965	2625.15
704.154	2631.3
704.342	2625.15
704.531	2680.45
704.719	2684.55
704.907	2719.36
705.096	2598.53
705.284	2735.74
705.472	2565.76
705.661	2627.2
705.849	2688.64
706.037	2811.52
706.226	2590.34
706.414	2721.41
706.602	2619.01
706.79	2623.11
706.979	2684.55
707.167	2614.91
707.355	2477.7
707.543	2657.92
707.731	2649.73
707.919	2582.15
708.107	2690.69
708.296	2528.9
708.484	2621.06
708.672	2545.28
708.86	2625.15
709.048	2537.09
709.236	2655.87
709.424	2647.68
709.612	2608.77
709.8	2580.1
709.988	2582.15
710.176	2557.57
710.364	2670.21
710.551	2664.07
710.739	2565.76
710.927	2492.04
711.115	2549.38
711.303	2567.81
711.491	2510.47
711.679	2463.37
711.866	2614.91
712.054	2596.48
712.242	2614.91
712.43	2688.64
712.617	2590.34
712.805	2512.52
712.993	2471.56
713.181	2582.15
713.368	2655.87
713.556	2625.15
713.744	2535.04
713.931	2483.84
714.119	2500.23
714.306	2487.94
714.494	2545.28
714.682	2596.48
714.869	2475.65
715.057	2623.11
715.244	2459.27
715.432	2631.3
715.619	2545.28
715.807	2481.8
715.994	2610.82
716.182	2598.53
716.369	2434.69
716.556	2582.15
716.744	2533
716.931	2436.74
717.119	2623.11
717.306	2559.62
717.493	2533
717.681	2606.72
717.868	2557.57
718.055	2459.27
718.242	2537.09
718.43	2573.96
718.617	2598.53
718.804	2508.42
718.991	2414.21
719.179	2485.89
719.366	2651.78
719.553	2614.91
719.74	2455.17
719.927	2457.22
720.114	2565.76
720.301	2520.71
720.488	2528.9
720.676	2410.12
720.863	2578.05
721.05	2549.38
721.237	2590.34
721.424	2606.72
721.611	2625.15
721.798	2426.5
721.985	2451.08
722.172	2414.21
722.358	2500.23
722.545	2619.01
722.732	2432.65
722.919	2541.19
723.106	2551.43
723.293	2639.49
723.48	2502.28
723.667	2590.34
723.853	2561.67
724.04	2588.29
724.227	2541.19
724.414	2401.93
724.6	2549.38
724.787	2528.9
724.974	2598.53
725.161	2494.08
725.347	2526.85
725.534	2576
725.72	2565.76
725.907	2598.53
726.094	2537.09
726.28	2641.54
726.467	2475.65
726.653	2598.53
726.84	2655.87
727.027	2545.28
727.213	2639.49
727.4	2510.47
727.586	2485.89
727.773	2522.76
727.959	2567.81
728.145	2637.44
728.332	2524.8
728.518	2543.24
728.705	2526.85
728.891	2449.03
729.077	2600.58
729.264	2561.67
729.45	2582.15
729.636	2659.97
729.823	2510.47
730.009	2514.56
730.195	2582.15
730.382	2586.24
730.568	2524.8
730.754	2623.11
730.94	2539.14
731.126	2696.83
731.313	2545.28
731.499	2635.39
731.685	2606.72
731.871	2702.98
732.057	2543.24
732.243	2680.45
732.429	2594.44
732.615	2604.67
732.801	2580.1
732.987	2635.39
733.173	2504.32
733.359	2514.56
733.545	2541.19
733.731	2535.04
733.917	2655.87
734.103	2565.76
734.289	2539.14
734.475	2528.9
734.661	2664.07
734.847	2586.24
735.033	2541.19
735.219	2436.74
735.404	2598.53
735.59	2512.52
735.776	2606.72
735.962	2616.96
736.148	2715.27
736.333	2598.53
736.519	2600.58
736.705	2555.52
736.89	2500.23
737.076	2557.57
737.262	2516.61
737.447	2557.57
737.633	2545.28
737.819	2666.11
738.004	2533
738.19	2354.82
738.375	2459.27
738.561	2600.58
738.747	2549.38
738.932	2475.65
739.118	2516.61
739.303	2561.67
739.489	2524.8
739.674	2557.57
739.859	2418.31
740.045	2561.67
740.23	2455.17
740.416	2383.49
740.601	2434.69
740.786	2406.02
740.972	2420.36
741.157	2369.16
741.342	2440.84
741.528	2270.86
741.713	2541.19
741.898	2500.23
742.084	2451.08
742.269	2393.73
742.454	2379.4
742.639	2434.69
742.824	2428.55
743.01	2436.74
743.195	2379.4
743.38	2356.87
743.565	2350.73
743.75	2395.78
743.935	2385.54
744.12	2393.73
744.305	2303.62
744.49	2297.48
744.675	2311.82
744.86	2360.97
745.045	2336.39
745.23	2262.66
745.415	2250.38
745.6	2303.62
745.785	2221.7
745.97	2221.7
746.155	2160.27
746.34	2272.9
746.525	2262.66
746.71	2238.09
746.895	2223.75
747.079	2109.07
747.264	2172.55
747.449	2231.94
747.634	2055.82
747.819	2215.56
748.003	2066.06
748.188	2156.17
748.373	2043.53
748.557	1963.66
748.742	2045.58
748.927	2121.35
749.111	1955.47
749.296	2002.57
749.481	1982.09
749.665	2131.59
749.85	1963.66
750.034	2076.3
750.219	2070.16
750.404	1930.89
750.588	1934.99
750.773	1926.8
750.957	1920.65
751.141	1894.03
751.326	1896.08
751.51	1869.45
751.695	1889.93
751.879	1873.55
752.064	1822.35
752.248	1803.92
752.432	1812.11
752.617	1906.32
752.801	1855.12
752.985	1775.25
753.17	1713.81
753.354	1775.25
753.538	1724.05
753.722	1773.2
753.907	1697.42
754.091	1691.28
754.275	1711.76
754.459	1693.33
754.643	1767.06
754.828	1754.77
755.012	1730.19
755.196	1592.98
755.38	1601.17
755.564	1668.75
755.748	1611.41
755.932	1590.93
756.116	1609.36
756.3	1496.72
756.484	1644.18
756.668	1549.97
756.852	1611.41
757.036	1494.68
757.22	1584.79
757.404	1502.87
757.588	1459.86
757.772	1558.16
757.956	1484.44
758.14	1482.39
758.323	1509.01
758.507	1412.76
758.691	1459.86
758.875	1453.72
759.059	1478.29
759.242	1451.67
759.426	1369.75
759.61	1435.28
759.794	1263.26
759.977	1463.96
760.161	1429.14
760.345	1304.21
760.528	1341.08
760.712	1326.74
760.895	1349.27
761.079	1394.33
761.263	1293.97
761.446	1355.41
761.63	1316.5
761.813	1304.21
761.997	1214.1
762.18	1347.22
762.364	1193.62
762.547	1269.4
762.731	1271.45
762.914	1296.02
763.098	1296.02
763.281	1255.06
763.464	1269.4
763.648	1339.03
763.831	1318.55
764.015	1250.97
764.198	1298.07
764.381	1242.78
764.564	1222.3
764.748	1181.34
764.931	1205.91
765.114	1132.19
765.297	1265.3
765.481	1197.72
765.664	1140.38
765.847	1128.09
766.03	1210.01
766.213	1146.52
766.397	1216.15
766.58	1212.06
766.763	1099.42
766.946	1140.38
767.129	1115.8
767.312	1113.75
767.495	1099.42
767.678	1126.04
767.861	1181.34
768.044	1115.8
768.227	1091.23
768.41	1099.42
768.593	1105.56
768.776	1042.07
768.959	1027.74
769.142	1052.31
769.324	1042.07
769.507	1066.65
769.69	1126.04
769.873	1050.27
770.056	1050.27
770.239	1105.56
770.421	1021.6
770.604	984.73
770.787	1091.23
770.97	1027.74
771.152	915.1
771.335	1015.45
771.518	1009.31
771.7	972.44
771.883	1003.16
772.066	1056.41
772.248	1003.16
772.431	927.39
772.613	997.02
772.796	927.39
772.978	962.2
773.161	1001.12
773.343	980.64
773.526	935.58
773.708	902.81
773.891	921.24
774.073	857.76
774.256	902.81
774.438	984.73
774.621	884.38
774.803	831.13
774.985	904.86
775.168	896.67
775.35	900.76
775.532	847.52
775.715	816.8
775.897	857.76
776.079	870.05
776.261	902.81
776.444	702.11
776.626	747.17
776.808	822.94
776.99	812.7
777.173	788.13
777.355	880.29
777.537	792.22
777.719	777.89
777.901	771.74
778.083	792.22
778.265	689.82
778.447	673.44
778.629	757.41
778.811	726.69
778.993	777.89
779.175	841.37
779.357	732.83
779.539	700.06
779.721	743.07
779.903	636.58
780.085	681.63
780.267	698.02
780.449	671.39
780.631	714.4
780.812	732.83
780.994	669.34
781.176	560.8
781.358	642.72
781.54	749.22
781.721	657.06
781.903	724.64
782.085	657.06
782.267	671.39
782.448	607.91
782.63	612
782.812	618.15
782.993	640.67
783.175	546.47
783.357	620.19
783.538	673.44
783.72	566.95
783.901	489.12
784.083	583.33
784.264	597.67
784.446	515.75
784.627	487.08
784.809	585.38
784.99	577.19
785.172	540.32
785.353	493.22
785.535	581.28
785.716	513.7
785.897	468.64
786.079	525.99
786.26	558.75
786.441	591.52
786.623	487.08
786.804	478.88
786.985	491.17
787.167	571.04
787.348	446.12
787.529	505.51
787.71	511.65
787.891	435.88
788.073	429.73
788.254	399.01
788.435	419.49
788.616	384.68
788.797	444.07
788.978	435.88
789.159	384.68
789.34	485.03
789.522	413.35
789.703	454.31
789.884	550.56
790.065	472.74
790.246	472.74
790.427	405.16
790.607	444.07
790.788	444.07
790.969	452.26
791.15	390.82
791.331	356.01
791.512	413.35
791.693	345.77
791.874	423.59
792.054	407.2
792.235	464.55
792.416	399.01
792.597	423.59
792.778	411.3
792.958	411.3
793.139	399.01
793.32	380.58
793.5	394.92
793.681	366.25
793.862	372.39
794.042	427.68
794.223	315.05
794.404	216.74
794.584	267.94
794.765	349.86
794.945	343.72
795.126	304.81
795.306	435.88
795.487	356.01
795.667	243.37
795.848	345.77
796.028	321.19
796.209	386.72
796.389	382.63
796.57	362.15
796.75	356.01
796.93	370.34
797.111	313
797.291	284.33
797.471	370.34
797.652	362.15
797.832	347.81
798.012	335.53
798.192	347.81
798.373	280.23
798.553	257.7
798.733	308.9
798.913	300.71
799.093	265.89
799.274	333.48
799.454	366.25
799.634	337.57
799.814	382.63
799.994	255.65
800.174	329.38
800.354	274.09
800.534	177.83
800.714	329.38
800.894	263.85
801.074	282.28
801.254	325.29
801.434	421.54
801.614	274.09
801.794	212.65
801.974	816.8
802.154	267.94
802.334	282.28
802.514	292.52
802.693	243.37
802.873	286.37
803.053	280.23
803.233	233.13
803.413	265.89
803.592	220.84
803.772	222.89
803.952	265.89
804.131	239.27
804.311	321.19
804.491	284.33
804.67	198.31
804.85	241.32
805.03	263.85
805.209	313
805.389	239.27
805.568	198.31
805.748	175.78
805.928	306.85
806.107	296.61
806.287	186.02
806.466	233.13
806.646	267.94
806.825	108.2
807.004	224.94
807.184	222.89
807.363	239.27
807.543	212.65
807.722	143.02
807.901	280.23
808.081	321.19
808.26	165.54
808.439	200.36
808.619	210.6
808.798	288.42
808.977	222.89
809.156	216.74
809.336	212.65
809.515	241.32
809.694	143.02
809.873	218.79
810.052	239.27
810.231	210.6
810.411	231.08
810.59	155.3
810.769	181.93
810.948	249.51
811.127	59.05
811.306	245.41
811.485	145.06
811.664	224.94
811.843	200.36
812.022	214.7
812.201	241.32
812.38	108.2
812.559	186.02
812.737	212.65
812.916	192.17
813.095	157.35
813.274	157.35
813.453	300.71
813.632	247.46
813.811	204.46
813.989	128.68
814.168	143.02
814.347	140.97
814.526	165.54
814.704	173.74
814.883	216.74
815.062	255.65
815.24	167.59
815.419	132.78
815.598	177.83
815.776	124.58
815.955	149.16
816.133	81.58
816.312	198.31
816.49	173.74
816.669	214.7
816.847	104.11
817.026	229.03
817.204	136.87
817.383	124.58
817.561	71.34
817.74	140.97
817.918	235.18
818.097	132.78
818.275	138.92
818.453	149.16
818.632	157.35
818.81	157.35
818.988	169.64
819.167	163.5
819.345	157.35
819.523	151.21
819.701	151.21
819.879	165.54
820.058	153.26
820.236	67.24
820.414	132.78
820.592	112.3
820.77	126.63
820.948	231.08
821.127	59.05
821.305	233.13
821.483	143.02
821.661	163.5
821.839	169.64
822.017	132.78
822.195	118.44
822.373	140.97
822.551	190.12
822.729	134.82
822.907	69.29
823.085	120.49
823.262	91.82
823.44	143.02
823.618	87.72
823.796	143.02
823.974	132.78
824.152	100.01
824.329	145.06
824.507	132.78
824.685	157.35
824.863	140.97
825.04	136.87
825.218	145.06
825.396	165.54
825.574	110.25
825.751	151.21
825.929	165.54
826.107	26.28
826.284	71.34
826.462	145.06
826.639	140.97
826.817	50.86
826.994	190.12
827.172	48.81
827.349	153.26
827.527	175.78
827.704	69.29
827.882	132.78
828.059	108.2
828.237	110.25
828.414	155.3
828.591	38.57
828.769	100.01
828.946	93.87
829.124	153.26
829.301	149.16
829.478	83.63
829.655	149.16
829.833	110.25
830.01	91.82
830.187	42.67
830.364	126.63
830.542	169.64
830.719	97.96
830.896	128.68
831.073	151.21
831.25	143.02
831.427	147.11
831.604	120.49
831.782	34.47
831.959	153.26
832.136	63.15
832.313	149.16
832.49	42.67
832.667	95.91
832.844	124.58
833.021	161.45
833.198	147.11
833.374	134.82
833.551	124.58
833.728	100.01
833.905	50.86
834.082	120.49
834.259	61.1
834.436	159.4
834.612	63.15
834.789	91.82
834.966	69.29
835.143	132.78
835.319	28.33
835.496	126.63
835.673	106.15
835.85	87.72
836.026	1.71
836.203	149.16
836.38	42.67
836.556	108.2
836.733	48.81
836.909	134.82
837.086	75.43
837.262	122.54
837.439	93.87
837.616	83.63
837.792	83.63
837.968	11.95
838.145	18.09
838.321	140.97
838.498	77.48
838.674	83.63
838.851	116.39
839.027	116.39
839.203	132.78
839.38	91.82
839.556	18.09
839.732	38.57
839.909	65.19
840.085	75.43
840.261	54.95
840.437	26.28
840.614	79.53
840.79	28.33
840.966	71.34
841.142	44.71
841.318	34.47
841.494	42.67
841.671	147.11
841.847	42.67
842.023	52.91
842.199	108.2
842.375	83.63
842.551	9.9
842.727	26.28
842.903	34.47
843.079	87.72
843.255	157.35
843.431	-4.44
843.607	128.68
843.783	79.53
843.959	75.43
844.134	38.57
844.31	50.86
844.486	126.63
844.662	34.47
844.838	108.2
845.013	34.47
845.189	26.28
845.365	75.43
845.541	50.86
845.716	75.43
845.892	40.62
846.068	34.47
846.244	16.04
846.419	24.23
846.595	-10.58
846.77	11.95
846.946	67.24
847.122	153.26
847.297	52.91
847.473	108.2
847.648	38.57
847.824	83.63
847.999	-4.44
848.175	-12.63
848.35	16.04
848.526	61.1
848.701	122.54
848.876	95.91
849.052	42.67
849.227	30.38
849.403	118.44
849.578	46.76
849.753	63.15
849.929	59.05
850.104	7.85
850.279	59.05
850.454	-6.49
850.63	75.43
850.805	75.43
850.98	16.04
851.155	87.72
851.33	118.44
851.505	30.38
851.681	100.01
851.856	22.19
852.031	122.54
852.206	13.99
852.381	-6.49
852.556	9.9
852.731	50.86
852.906	100.01
853.081	59.05
853.256	100.01
853.431	-4.44
853.606	112.3
853.781	100.01
853.956	9.9
854.131	42.67
854.305	28.33
854.48	71.34
854.655	67.24
854.83	77.48
855.005	26.28
855.18	28.33
855.354	-22.87
855.529	126.63
855.704	7.85
855.879	34.47
856.053	52.91
856.228	38.57
856.403	11.95
856.577	-14.68
856.752	13.99
856.926	26.28
857.101	26.28
857.276	18.09
857.45	7.85
857.625	73.39
857.799	61.1
857.974	11.95
858.148	34.47
858.323	1.71
858.497	13.99
858.672	100.01
858.846	9.9
859.02	106.15
859.195	36.52
859.369	54.95
859.543	48.81
859.718	34.47
859.892	69.29
860.066	104.11
860.241	26.28
860.415	-4.44
860.589	30.38
860.763	77.48
860.938	18.09
861.112	3.75
861.286	18.09
861.46	26.28
861.634	20.14
861.808	120.49
861.982	18.09
862.157	5.8
862.331	16.04
862.505	28.33
862.679	38.57
862.853	50.86
863.027	-4.44
863.201	91.82
863.375	-4.44
863.549	-14.68
863.722	-20.82
863.896	77.48
864.07	30.38
864.244	-2.39
864.418	132.78
864.592	59.05
864.766	-39.25
864.939	50.86
865.113	42.67
865.287	30.38
865.461	44.71
865.634	69.29
865.808	5.8
865.982	54.95
866.156	-47.44
866.329	9.9
866.503	20.14
866.676	7.85
866.85	-29.01
867.024	85.67
867.197	83.63
867.371	42.67
867.544	9.9
867.718	-16.73
867.891	77.48
868.065	61.1
868.238	13.99
868.412	50.86
868.585	67.24
868.759	67.24
868.932	-4.44
869.105	9.9
869.279	77.48
869.452	11.95
869.625	-20.82
869.799	24.23
869.972	-14.68
870.145	46.76
870.319	63.15
870.492	26.28
870.665	34.47
870.838	-55.64
871.011	-20.82
871.185	-37.2
871.358	100.01
871.531	102.06
871.704	-31.06
871.877	81.58
872.05	34.47
872.223	42.67
872.396	42.67
872.569	63.15
872.742	46.76
872.915	32.43
873.088	42.67
873.261	-43.35
873.434	-45.4
873.607	59.05
873.78	59.05
873.953	-31.06
874.126	-12.63
874.299	-47.44
874.471	40.62
874.644	5.8
874.817	69.29
874.99	167.59
875.163	-22.87
875.335	75.43
875.508	-20.82
875.681	54.95
875.853	3.75
876.026	36.52
876.199	-16.73
876.371	30.38
876.544	24.23
876.717	59.05
876.889	-35.16
877.062	83.63
877.234	3.75
877.407	85.67
877.579	57
877.752	50.86
877.924	28.33
878.097	95.91
878.269	71.34
878.442	102.06
878.614	9.9
878.786	3.75
878.959	54.95
879.131	54.95
879.303	38.57
879.476	59.05
879.648	44.71
879.82	-2.39
879.993	-0.34
880.165	11.95
880.337	-16.73
880.509	81.58
880.681	65.19
880.854	-31.06
881.026	50.86
881.198	59.05
881.37	26.28
881.542	42.67
881.714	-14.68
881.886	-41.3
882.058	-2.39
882.23	34.47
882.402	3.75
882.574	40.62
882.746	34.47
882.918	63.15
883.09	9.9
883.262	-10.58
883.434	-51.54
883.606	-22.87
883.778	-37.2
883.95	38.57
884.122	-37.2
884.293	52.91
884.465	50.86
884.637	50.86
884.809	18.09
884.98	50.86
885.152	71.34
885.324	79.53
885.496	61.1
885.667	-29.01
885.839	11.95
886.011	-12.63
886.182	20.14
886.354	30.38
886.525	-2.39
886.697	-45.4
886.869	-45.4
887.04	26.28
887.212	69.29
887.383	85.67
887.555	-6.49
887.726	7.85
887.897	34.47
888.069	34.47
888.24	-31.06
888.412	44.71
888.583	-39.25
888.754	108.2
888.926	-4.44
889.097	36.52
889.268	-22.87
889.44	24.23
889.611	-4.44
889.782	44.71
889.953	-65.88
890.125	118.44
890.296	-55.64
890.467	-10.58
890.638	-6.49
890.809	36.52
890.98	-31.06
891.151	59.05
891.323	79.53
891.494	-12.63
891.665	36.52
891.836	32.43
892.007	-0.34
892.178	3.75
892.349	34.47
892.52	-14.68
892.691	-22.87
892.862	-53.59
893.032	20.14
893.203	7.85
893.374	42.67
893.545	59.05
893.716	34.47
893.887	5.8
894.057	-22.87
894.228	3.75
894.399	-31.06
894.57	54.95
894.74	30.38
894.911	52.91
895.082	-51.54
895.253	-24.92
895.423	9.9
895.594	67.24
895.764	9.9
895.935	-6.49
896.106	5.8
896.276	18.09
896.447	54.95
896.617	26.28
896.788	30.38
896.958	42.67
897.129	1.71
897.299	-31.06
897.47	40.62
897.64	34.47
897.81	61.1
897.981	13.99
898.151	9.9
898.322	38.57
898.492	67.24
898.662	-22.87
898.832	26.28
899.003	-6.49
899.173	20.14
899.343	-37.2
899.513	-51.54
