Data from USB4F104151__275__14-46-11-517.txt Node

Date: Thu Mar 13 14:46:11 EDT 2025
User: louis
Spectrometer: USB4F10415
Trigger mode: 4
Integration Time (sec): 2.000000E-2
Scans to average: 1
Electric dark correction enabled: true
Nonlinearity correction enabled: false
Boxcar width: 0
XAxis mode: Wavelengths
Number of Pixels in Spectrum: 3648
>>>>>Begin Spectral Data<<<<<
178.204	-149.16
178.424	-149.16
178.644	-149.16
178.864	-140.97
179.084	-155.3
179.304	-26.28
179.524	-59.05
179.744	33.11
179.964	63.83
180.184	57.68
180.404	-77.48
180.624	-40.62
180.844	18.77
181.064	-50.86
181.283	0.34
181.503	14.68
181.723	65.88
181.943	-40.62
182.163	0.34
182.383	-7.85
182.602	33.11
182.822	6.49
183.042	2.39
183.262	8.53
183.482	57.68
183.701	-67.24
183.921	67.92
184.141	-50.86
184.361	31.06
184.58	35.16
184.8	-13.99
185.02	-48.81
185.239	57.68
185.459	67.92
185.679	63.83
185.898	18.77
186.118	63.83
186.338	127.32
186.557	-1.71
186.777	-34.47
186.997	-9.9
187.216	18.77
187.436	80.21
187.655	24.92
187.875	82.26
188.095	2.39
188.314	63.83
188.534	55.64
188.753	39.25
188.973	16.73
189.192	74.07
189.412	39.25
189.631	2.39
189.851	-7.85
190.07	4.44
190.29	-24.23
190.509	18.77
190.729	-24.23
190.948	24.92
191.168	170.32
191.387	45.4
191.607	-7.85
191.826	35.16
192.045	8.53
192.265	65.88
192.484	33.11
192.704	43.35
192.923	14.68
193.142	141.65
193.362	35.16
193.581	74.07
193.8	14.68
194.02	74.07
194.239	41.3
194.458	47.44
194.678	-34.47
194.897	39.25
195.116	43.35
195.335	39.25
195.555	18.77
195.774	57.68
195.993	8.53
196.212	-9.9
196.432	-44.71
196.651	43.35
196.87	-28.33
197.089	104.79
197.308	39.25
197.528	6.49
197.747	18.77
197.966	41.3
198.185	100.69
198.404	4.44
198.623	-22.19
198.842	26.96
199.062	72.02
199.281	16.73
199.5	-1.71
199.719	47.44
199.938	41.3
200.157	80.21
200.376	-20.14
200.595	65.88
200.814	76.12
201.033	-38.57
201.252	72.02
201.471	84.31
201.69	43.35
201.909	55.64
202.128	41.3
202.347	63.83
202.566	72.02
202.785	-79.53
203.004	-83.63
203.223	59.73
203.442	26.96
203.661	6.49
203.879	41.3
204.098	-1.71
204.317	-91.82
204.536	57.68
204.755	26.96
204.974	-9.9
205.193	104.79
205.411	155.99
205.63	49.49
205.849	98.64
206.068	0.34
206.287	24.92
206.505	31.06
206.724	39.25
206.943	35.16
207.162	-61.1
207.381	10.58
207.599	63.83
207.818	65.88
208.037	-5.8
208.255	22.87
208.474	12.63
208.693	16.73
208.911	63.83
209.13	35.16
209.349	-9.9
209.567	8.53
209.786	6.49
210.005	123.22
210.223	26.96
210.442	6.49
210.661	55.64
210.879	31.06
211.098	-34.47
211.316	67.92
211.535	22.87
211.753	-11.95
211.972	8.53
212.191	2.39
212.409	-13.99
212.628	43.35
212.846	16.73
213.065	53.59
213.283	127.32
213.502	-32.43
213.72	22.87
213.938	94.55
214.157	-5.8
214.375	39.25
214.594	12.63
214.812	98.64
215.031	-5.8
215.249	18.77
215.467	-1.71
215.686	43.35
215.904	57.68
216.122	-11.95
216.341	-16.04
216.559	8.53
216.778	67.92
216.996	67.92
217.214	51.54
217.432	18.77
217.651	26.96
217.869	-3.75
218.087	12.63
218.306	-16.04
218.524	37.2
218.742	-36.52
218.96	-18.09
219.179	49.49
219.397	-1.71
219.615	123.22
219.833	-1.71
220.051	-28.33
220.27	49.49
220.488	55.64
220.706	47.44
220.924	-1.71
221.142	106.84
221.36	-40.62
221.578	-38.57
221.796	26.96
222.015	-34.47
222.233	31.06
222.451	39.25
222.669	-13.99
222.887	80.21
223.105	-24.23
223.323	72.02
223.541	0.34
223.759	80.21
223.977	59.73
224.195	-42.67
224.413	72.02
224.631	96.6
224.849	-50.86
225.067	72.02
225.285	47.44
225.503	41.3
225.721	14.68
225.939	94.55
226.157	49.49
226.375	96.6
226.592	55.64
226.81	86.36
227.028	49.49
227.246	72.02
227.464	6.49
227.682	55.64
227.9	86.36
228.117	39.25
228.335	16.73
228.553	31.06
228.771	43.35
228.989	39.25
229.206	10.58
229.424	2.39
229.642	-16.04
229.86	22.87
230.077	-5.8
230.295	45.4
230.513	0.34
230.731	35.16
230.948	74.07
231.166	96.6
231.384	43.35
231.601	55.64
231.819	22.87
232.037	86.36
232.254	55.64
232.472	57.68
232.689	67.92
232.907	39.25
233.125	-26.28
233.342	39.25
233.56	-16.04
233.777	43.35
233.995	35.16
234.213	39.25
234.43	80.21
234.648	39.25
234.865	22.87
235.083	57.68
235.3	24.92
235.518	55.64
235.735	55.64
235.953	-34.47
236.17	-40.62
236.388	67.92
236.605	-13.99
236.822	31.06
237.04	76.12
237.257	-26.28
237.475	-65.19
237.692	74.07
237.909	22.87
238.127	26.96
238.344	117.08
238.562	-42.67
238.779	26.96
238.996	29.01
239.214	59.73
239.431	39.25
239.648	63.83
239.865	41.3
240.083	-30.38
240.3	100.69
240.517	-5.8
240.735	102.74
240.952	26.96
241.169	55.64
241.386	39.25
241.603	8.53
241.821	-5.8
242.038	22.87
242.255	88.4
242.472	69.97
242.689	-5.8
242.907	6.49
243.124	22.87
243.341	22.87
243.558	-46.76
243.775	-42.67
243.992	26.96
244.209	57.68
244.426	108.88
244.643	-13.99
244.86	33.11
245.078	16.73
245.295	33.11
245.512	-9.9
245.729	55.64
245.946	-5.8
246.163	88.4
246.38	6.49
246.597	41.3
246.814	41.3
247.031	69.97
247.248	31.06
247.464	69.97
247.681	35.16
247.898	69.97
248.115	59.73
248.332	69.97
248.549	78.16
248.766	14.68
248.983	47.44
249.2	-1.71
249.417	14.68
249.633	-65.19
249.85	31.06
250.067	2.39
250.284	55.64
250.501	55.64
250.717	26.96
250.934	10.58
251.151	-40.62
251.368	-3.75
251.585	31.06
251.801	-16.04
252.018	57.68
252.235	-63.15
252.451	-1.71
252.668	6.49
252.885	-9.9
253.102	-18.09
253.318	4.44
253.535	57.68
253.752	39.25
253.968	14.68
254.185	41.3
254.401	22.87
254.618	82.26
254.835	31.06
255.051	80.21
255.268	39.25
255.484	39.25
255.701	55.64
255.917	31.06
256.134	26.96
256.351	-22.19
256.567	-9.9
256.784	39.25
257	-9.9
257.217	45.4
257.433	33.11
257.65	-59.05
257.866	0.34
258.082	39.25
258.299	-34.47
258.515	55.64
258.732	0.34
258.948	-22.19
259.165	90.45
259.381	-75.43
259.597	-18.09
259.814	-18.09
260.03	63.83
260.246	6.49
260.463	43.35
260.679	14.68
260.895	20.82
261.112	35.16
261.328	6.49
261.544	-20.14
261.761	117.08
261.977	2.39
262.193	65.88
262.409	53.59
262.626	61.78
262.842	14.68
263.058	26.96
263.274	18.77
263.49	74.07
263.707	6.49
263.923	53.59
264.139	-52.91
264.355	16.73
264.571	67.92
264.787	121.17
265.004	41.3
265.22	63.83
265.436	72.02
265.652	49.49
265.868	76.12
266.084	-18.09
266.3	16.73
266.516	0.34
266.732	45.4
266.948	39.25
267.164	37.2
267.38	8.53
267.596	16.73
267.812	69.97
268.028	18.77
268.244	6.49
268.46	35.16
268.676	14.68
268.892	65.88
269.108	-28.33
269.324	-13.99
269.54	59.73
269.756	31.06
269.972	26.96
270.188	26.96
270.403	-16.04
270.619	82.26
270.835	-18.09
271.051	92.5
271.267	26.96
271.483	8.53
271.698	72.02
271.914	72.02
272.13	33.11
272.346	16.73
272.562	18.77
272.777	104.79
272.993	26.96
273.209	33.11
273.425	78.16
273.64	31.06
273.856	2.39
274.072	-5.8
274.287	12.63
274.503	59.73
274.719	63.83
274.934	41.3
275.15	-9.9
275.366	24.92
275.581	49.49
275.797	22.87
276.012	63.83
276.228	-18.09
276.444	55.64
276.659	57.68
276.875	-42.67
277.09	2.39
277.306	55.64
277.521	24.92
277.737	10.58
277.952	14.68
278.168	76.12
278.383	104.79
278.599	-24.23
278.814	110.93
279.03	6.49
279.245	131.41
279.461	31.06
279.676	24.92
279.892	63.83
280.107	47.44
280.322	-26.28
280.538	8.53
280.753	-18.09
280.969	2.39
281.184	-5.8
281.399	31.06
281.615	4.44
281.83	59.73
282.045	41.3
282.26	-1.71
282.476	63.83
282.691	47.44
282.906	72.02
283.122	-1.71
283.337	-48.81
283.552	-34.47
283.767	-46.76
283.983	139.6
284.198	31.06
284.413	90.45
284.628	-24.23
284.843	-26.28
285.058	82.26
285.274	-16.04
285.489	53.59
285.704	39.25
285.919	31.06
286.134	-63.15
286.349	-83.63
286.564	-18.09
286.779	74.07
286.995	-26.28
287.21	-18.09
287.425	26.96
287.64	14.68
287.855	33.11
288.07	59.73
288.285	78.16
288.5	18.77
288.715	55.64
288.93	14.68
289.145	57.68
289.36	39.25
289.575	-13.99
289.79	-7.85
290.004	14.68
290.219	35.16
290.434	76.12
290.649	-5.8
290.864	22.87
291.079	14.68
291.294	37.2
291.509	39.25
291.724	-7.85
291.938	49.49
292.153	33.11
292.368	-24.23
292.583	43.35
292.798	-57
293.012	-28.33
293.227	26.96
293.442	-13.99
293.657	53.59
293.871	29.01
294.086	31.06
294.301	4.44
294.516	59.73
294.73	22.87
294.945	31.06
295.16	26.96
295.374	35.16
295.589	106.84
295.804	14.68
296.018	-46.76
296.233	18.77
296.447	-1.71
296.662	43.35
296.877	53.59
297.091	72.02
297.306	33.11
297.52	82.26
297.735	12.63
297.949	16.73
298.164	67.92
298.378	0.34
298.593	-13.99
298.807	63.83
299.022	63.83
299.236	22.87
299.451	8.53
299.665	-7.85
299.88	59.73
300.094	18.77
300.309	-46.76
300.523	67.92
300.737	16.73
300.952	43.35
301.166	16.73
301.381	-1.71
301.595	14.68
301.809	24.92
302.024	6.49
302.238	-32.43
302.452	96.6
302.667	-3.75
302.881	59.73
303.095	59.73
303.309	133.46
303.524	14.68
303.738	10.58
303.952	39.25
304.166	31.06
304.381	57.68
304.595	63.83
304.809	-20.14
305.023	39.25
305.237	-16.04
305.452	-7.85
305.666	-22.19
305.88	-1.71
306.094	98.64
306.308	-7.85
306.522	72.02
306.736	35.16
306.95	72.02
307.164	80.21
307.379	-9.9
307.593	31.06
307.807	78.16
308.021	47.44
308.235	69.97
308.449	35.16
308.663	55.64
308.877	115.03
309.091	51.54
309.305	31.06
309.519	-16.04
309.733	65.88
309.947	-24.23
310.161	47.44
310.374	-32.43
310.588	43.35
310.802	-5.8
311.016	-48.81
311.23	-1.71
311.444	22.87
311.658	-42.67
311.872	63.83
312.085	-3.75
312.299	76.12
312.513	98.64
312.727	106.84
312.941	80.21
313.154	-40.62
313.368	39.25
313.582	-28.33
313.796	78.16
314.009	72.02
314.223	31.06
314.437	31.06
314.651	39.25
314.864	26.96
315.078	16.73
315.292	-5.8
315.505	18.77
315.719	-40.62
315.933	6.49
316.146	37.2
316.36	-57
316.573	67.92
316.787	182.61
317.001	26.96
317.214	-34.47
317.428	88.4
317.641	51.54
317.855	6.49
318.068	51.54
318.282	86.36
318.495	104.79
318.709	55.64
318.922	22.87
319.136	39.25
319.349	49.49
319.563	76.12
319.776	41.3
319.99	-24.23
320.203	-30.38
320.417	39.25
320.63	45.4
320.843	63.83
321.057	2.39
321.27	51.54
321.483	14.68
321.697	53.59
321.91	65.88
322.124	33.11
322.337	47.44
322.55	26.96
322.763	-22.19
322.977	16.73
323.19	31.06
323.403	18.77
323.617	16.73
323.83	39.25
324.043	117.08
324.256	26.96
324.469	-75.43
324.683	100.69
324.896	-1.71
325.109	88.4
325.322	24.92
325.535	47.44
325.748	69.97
325.962	37.2
326.175	92.5
326.388	24.92
326.601	35.16
326.814	51.54
327.027	92.5
327.24	-9.9
327.453	31.06
327.666	72.02
327.879	-1.71
328.092	47.44
328.305	86.36
328.518	-42.67
328.731	-5.8
328.944	53.59
329.157	63.83
329.37	22.87
329.583	55.64
329.796	-11.95
330.009	6.49
330.222	35.16
330.435	39.25
330.648	14.68
330.861	43.35
331.073	39.25
331.286	55.64
331.499	39.25
331.712	55.64
331.925	41.3
332.138	47.44
332.35	45.4
332.563	31.06
332.776	31.06
332.989	67.92
333.202	88.4
333.414	-11.95
333.627	22.87
333.84	-7.85
334.053	22.87
334.265	-71.34
334.478	-1.71
334.691	43.35
334.903	82.26
335.116	-16.04
335.329	74.07
335.541	47.44
335.754	65.88
335.966	47.44
336.179	90.45
336.392	-1.71
336.604	102.74
336.817	117.08
337.029	84.31
337.242	-50.86
337.454	39.25
337.667	6.49
337.88	123.22
338.092	63.83
338.305	39.25
338.517	51.54
338.729	14.68
338.942	10.58
339.154	65.88
339.367	69.97
339.579	-24.23
339.792	37.2
340.004	20.82
340.217	-9.9
340.429	53.59
340.641	63.83
340.854	78.16
341.066	6.49
341.278	88.4
341.491	98.64
341.703	45.4
341.915	41.3
342.128	123.22
342.34	22.87
342.552	14.68
342.764	-7.85
342.977	72.02
343.189	49.49
343.401	33.11
343.613	43.35
343.826	43.35
344.038	-24.23
344.25	24.92
344.462	8.53
344.674	57.68
344.886	35.16
345.099	0.34
345.311	14.68
345.523	-34.47
345.735	43.35
345.947	26.96
346.159	69.97
346.371	31.06
346.583	63.83
346.795	104.79
347.007	8.53
347.219	35.16
347.431	-22.19
347.643	117.08
347.855	63.83
348.067	0.34
348.279	-5.8
348.491	0.34
348.703	31.06
348.915	84.31
349.127	-40.62
349.339	2.39
349.551	-24.23
349.763	76.12
349.975	41.3
350.187	80.21
350.399	121.17
350.61	31.06
350.822	55.64
351.034	39.25
351.246	14.68
351.458	-18.09
351.669	35.16
351.881	82.26
352.093	84.31
352.305	-22.19
352.517	55.64
352.728	0.34
352.94	-26.28
353.152	67.92
353.363	55.64
353.575	51.54
353.787	82.26
353.999	20.82
354.21	78.16
354.422	55.64
354.633	67.92
354.845	80.21
355.057	86.36
355.268	59.73
355.48	65.88
355.692	31.06
355.903	55.64
356.115	39.25
356.326	-34.47
356.538	31.06
356.749	-9.9
356.961	63.83
357.172	57.68
357.384	35.16
357.595	84.31
357.807	82.26
358.018	-24.23
358.23	69.97
358.441	96.6
358.653	92.5
358.864	47.44
359.075	-18.09
359.287	31.06
359.498	18.77
359.709	49.49
359.921	90.45
360.132	-22.19
360.344	18.77
360.555	115.03
360.766	88.4
360.977	47.44
361.189	96.6
361.4	22.87
361.611	49.49
361.823	90.45
362.034	35.16
362.245	31.06
362.456	-16.04
362.667	139.6
362.879	31.06
363.09	39.25
363.301	39.25
363.512	-5.8
363.723	26.96
363.935	-83.63
364.146	31.06
364.357	8.53
364.568	57.68
364.779	-18.09
364.99	49.49
365.201	-18.09
365.412	72.02
365.623	72.02
365.834	121.17
366.045	24.92
366.256	63.83
366.467	80.21
366.678	96.6
366.889	-26.28
367.1	8.53
367.311	117.08
367.522	82.26
367.733	-3.75
367.944	55.64
368.155	47.44
368.366	-1.71
368.577	115.03
368.788	59.73
368.999	-59.05
369.209	43.35
369.42	133.46
369.631	102.74
369.842	29.01
370.053	-9.9
370.264	112.98
370.474	0.34
370.685	-3.75
370.896	43.35
371.107	33.11
371.317	78.16
371.528	47.44
371.739	96.6
371.95	-7.85
372.16	88.4
372.371	108.88
372.582	49.49
372.792	-18.09
373.003	72.02
373.214	55.64
373.424	63.83
373.635	72.02
373.846	74.07
374.056	57.68
374.267	41.3
374.477	61.78
374.688	61.78
374.898	0.34
375.109	96.6
375.319	2.39
375.53	39.25
375.74	63.83
375.951	10.58
376.161	53.59
376.372	96.6
376.582	6.49
376.793	2.39
377.003	55.64
377.214	6.49
377.424	80.21
377.635	-36.52
377.845	0.34
378.055	12.63
378.266	-7.85
378.476	63.83
378.686	51.54
378.897	72.02
379.107	63.83
379.317	-1.71
379.528	22.87
379.738	14.68
379.948	80.21
380.158	-1.71
380.369	6.49
380.579	102.74
380.789	51.54
380.999	92.5
381.21	115.03
381.42	92.5
381.63	51.54
381.84	100.69
382.05	92.5
382.261	106.84
382.471	88.4
382.681	18.77
382.891	41.3
383.101	65.88
383.311	61.78
383.521	41.3
383.731	63.83
383.941	53.59
384.151	0.34
384.361	4.44
384.571	41.3
384.781	22.87
384.991	31.06
385.201	90.45
385.411	-5.8
385.621	100.69
385.831	51.54
386.041	59.73
386.251	-3.75
386.461	153.94
386.671	72.02
386.881	51.54
387.091	125.27
387.301	96.6
387.511	90.45
387.72	6.49
387.93	80.21
388.14	80.21
388.35	22.87
388.56	90.45
388.769	82.26
388.979	57.68
389.189	-24.23
389.399	47.44
389.609	82.26
389.818	31.06
390.028	80.21
390.238	88.4
390.447	74.07
390.657	4.44
390.867	88.4
391.076	84.31
391.286	98.64
391.496	76.12
391.705	39.25
391.915	35.16
392.125	112.98
392.334	74.07
392.544	53.59
392.753	33.11
392.963	55.64
393.172	6.49
393.382	78.16
393.591	22.87
393.801	92.5
394.01	55.64
394.22	31.06
394.429	-16.04
394.639	88.4
394.848	31.06
395.058	-1.71
395.267	76.12
395.477	43.35
395.686	29.01
395.895	153.94
396.105	178.51
396.314	119.12
396.524	96.6
396.733	6.49
396.942	88.4
397.152	82.26
397.361	82.26
397.57	80.21
397.78	104.79
397.989	145.75
398.198	88.4
398.407	90.45
398.617	33.11
398.826	115.03
399.035	80.21
399.244	80.21
399.453	115.03
399.663	72.02
399.872	125.27
400.081	141.65
400.29	121.17
400.499	39.25
400.708	186.71
400.917	108.88
401.127	129.36
401.336	96.6
401.545	121.17
401.754	98.64
401.963	135.51
402.172	147.8
402.381	96.6
402.59	72.02
402.799	90.45
403.008	123.22
403.217	145.75
403.426	178.51
403.635	80.21
403.844	96.6
404.053	10.58
404.262	82.26
404.471	190.8
404.68	104.79
404.888	108.88
405.097	82.26
405.306	174.42
405.515	164.18
405.724	98.64
405.933	106.84
406.142	176.47
406.35	153.94
406.559	170.32
406.768	170.32
406.977	260.43
407.185	186.71
407.394	102.74
407.603	184.66
407.812	219.47
408.02	194.9
408.229	119.12
408.438	203.09
408.646	194.9
408.855	225.62
409.064	151.89
409.272	235.86
409.481	203.09
409.69	219.47
409.898	162.13
410.107	285.01
410.315	235.86
410.524	235.86
410.733	325.97
410.941	299.34
411.15	364.88
411.358	309.58
411.567	391.5
411.775	336.21
411.984	407.89
412.192	323.92
412.401	407.89
412.609	383.31
412.818	418.13
413.026	356.69
413.234	426.32
413.443	407.89
413.651	377.17
413.86	430.41
414.068	483.66
414.276	495.95
414.485	500.05
414.693	506.19
414.901	571.72
415.11	481.61
415.318	543.05
415.526	530.77
415.734	581.96
415.943	500.05
416.151	694.6
416.359	710.99
416.567	690.51
416.776	696.65
416.984	745.8
417.192	811.34
417.4	739.66
417.608	723.27
417.817	797
418.025	751.95
418.233	971.08
418.441	874.82
418.649	878.92
418.857	958.79
419.065	966.98
419.273	983.37
419.481	1061.19
419.689	1235.27
419.897	1098.05
420.105	1194.31
420.313	1169.73
420.521	1304.9
420.729	1218.88
420.937	1280.32
421.145	1276.23
421.353	1296.71
421.561	1481.02
421.769	1483.07
421.977	1499.45
422.185	1530.17
422.393	1628.48
422.601	1767.74
422.809	1753.4
423.017	1726.78
423.224	1743.16
423.432	1878.33
423.64	1892.66
423.848	2013.49
424.056	1933.62
424.263	2044.21
424.471	2015.54
424.679	2203.96
424.887	2152.76
425.094	2308.4
425.302	2353.46
425.51	2472.24
425.718	2564.4
425.925	2605.36
426.133	2599.21
426.341	2775.34
426.548	2908.46
426.756	2941.22
426.964	2930.98
427.171	3076.39
427.379	3148.07
427.586	3158.31
427.794	3490.08
428.001	3594.53
428.209	3635.49
428.417	3764.51
428.624	3889.43
428.832	3803.42
429.039	3954.97
429.247	3791.13
429.454	4098.33
429.662	4540.69
429.869	4143.38
430.076	4555.02
430.284	4290.84
430.491	4530.45
430.699	4835.6
430.906	4768.01
431.114	5003.53
431.321	5050.63
431.528	5218.57
431.736	5396.74
431.943	5822.72
432.15	5554.43
432.358	5380.36
432.565	5921.02
432.772	5892.35
432.979	6211.83
433.187	6408.44
433.394	6234.36
433.601	6840.56
433.808	6875.37
434.016	6641.9
434.223	7059.69
434.43	7235.81
434.637	7215.34
434.844	7626.98
435.052	7872.73
435.259	7839.97
435.466	8077.53
435.673	7786.72
435.88	8311
436.087	8560.85
436.294	8704.21
436.501	8648.91
436.708	8634.58
436.915	9058.51
437.122	9517.25
437.329	9347.27
437.537	9783.49
437.743	9914.56
437.95	9844.93
438.157	10303.67
438.364	10754.23
438.571	10576.05
438.778	10680.5
438.985	11495.59
439.192	11200.68
439.399	11763.87
439.606	11393.19
439.813	11927.71
440.02	12562.58
440.227	12724.37
440.433	12318.87
440.64	12867.73
440.847	12728.47
441.054	12961.94
441.261	13672.58
441.467	13660.29
441.674	13994.11
441.881	14405.75
442.088	14375.03
442.294	14178.43
442.501	14821.49
442.708	15290.48
442.914	15614.06
443.121	16160.86
443.328	15761.51
443.534	17143.89
443.741	16373.85
443.948	16064.61
444.154	17367.12
444.361	17459.27
444.568	17397.84
444.774	17397.84
444.981	17745.99
445.187	18233.41
445.394	19034.16
445.6	19001.4
445.807	20643.87
446.013	19707.94
446.22	20135.97
446.426	20625.43
446.633	21114.9
446.839	22001.67
447.046	20799.51
447.252	22300.67
447.459	22020.1
447.665	22198.27
447.871	23205.88
448.078	24014.82
448.284	23017.46
448.491	23594.99
448.697	24219.62
448.903	24713.18
449.11	25147.35
449.316	24621.02
449.522	25380.82
449.728	25831.37
449.935	26212.29
450.141	26290.12
450.347	26359.75
450.553	25964.49
450.76	26267.59
450.966	27187.13
451.172	26834.88
451.378	27621.3
451.584	27031.48
451.791	27475.89
451.997	27576.24
452.203	28176.3
452.409	28307.37
452.615	28010.41
452.821	26859.45
453.027	26750.91
453.233	27957.16
453.44	27086.78
453.646	27504.56
453.852	27684.78
454.058	28104.62
454.264	27033.53
454.47	27652.02
454.676	26845.12
454.882	28004.27
455.088	25741.26
455.294	26183.62
455.5	26607.55
455.705	26873.79
455.911	25866.19
456.117	25309.14
456.323	25163.73
456.529	23519.21
456.735	24854.49
456.941	23965.67
457.147	23863.27
457.352	23035.89
457.558	22689.79
457.764	22714.36
457.97	22474.75
458.176	21903.37
458.381	22155.27
458.587	21032.98
458.793	21321.74
458.999	19912.74
459.204	21336.08
459.41	20887.57
459.616	19001.4
459.821	19241.01
460.027	19292.21
460.233	19120.18
460.438	18341.95
460.644	18333.76
460.85	17473.61
461.055	17188.94
461.261	17127.5
461.466	15851.62
461.672	15075.44
461.878	16404.57
462.083	15579.24
462.289	15102.06
462.494	14977.14
462.7	14241.92
462.905	14153.85
463.111	14628.98
463.316	14674.04
463.522	14299.26
463.727	14258.3
463.932	14401.66
464.138	14145.66
464.343	14354.55
464.549	13779.08
464.754	14223.48
464.959	14063.74
465.165	14305.4
465.37	13486.22
465.575	12933.26
465.781	13502.6
465.986	13717.64
466.191	13189.26
466.397	13033.61
466.602	12212.38
466.807	12759.19
467.012	12832.91
467.218	12712.08
467.423	12476.57
467.628	12814.48
467.833	13111.44
468.038	12804.24
468.244	12370.07
468.449	13148.3
468.654	12302.49
468.859	12216.47
469.064	12392.6
469.269	11798.69
469.474	11716.77
469.679	12179.61
469.885	11851.94
470.09	12146.84
470.295	11757.73
470.5	11690.15
470.705	11604.13
470.91	11503.78
471.115	11327.66
471.32	11446.44
471.525	11393.19
471.73	11319.46
471.935	11008.17
472.139	10786.99
472.344	10954.93
472.549	10922.16
472.754	10578.1
472.959	10647.73
473.164	10434.74
473.369	10184.89
473.574	10444.98
473.778	10559.67
473.983	10234.04
474.188	10145.98
474.393	10000.57
474.598	10019
474.802	9842.88
475.007	9730.24
475.212	10016.96
475.417	9423.05
475.621	9361.61
475.826	9466.05
476.031	9296.07
476.235	9111.75
476.44	9267.4
476.645	9189.58
476.849	8954.06
477.054	8968.4
477.259	8866
477.463	8759.5
477.668	8587.47
477.872	8847.57
478.077	8390.87
478.282	8161.5
478.486	8464.6
478.691	8241.37
478.895	8112.35
479.1	8323.29
479.304	8249.56
479.509	7811.29
479.713	8026.33
479.918	7880.93
480.122	7858.4
480.326	7913.69
480.531	8157.4
480.735	7854.3
480.94	7821.53
481.144	7985.37
481.348	7733.47
481.553	7913.69
481.757	7690.46
481.961	7833.82
482.166	7928.03
482.37	7674.08
482.574	7553.25
482.778	7737.57
482.983	7805.15
483.187	7702.75
483.391	7575.78
483.595	7424.23
483.8	7647.46
484.004	7700.7
484.208	7745.76
484.412	7629.02
484.616	7735.52
484.821	7772.38
485.025	7512.29
485.229	7672.03
485.433	7577.83
485.637	7530.72
485.841	7637.22
486.045	7407.84
486.249	7530.72
486.453	7545.06
486.657	7516.39
486.861	7600.35
487.065	7491.81
487.269	7729.38
487.473	7674.08
487.677	7712.99
487.881	7807.2
488.085	7547.11
488.289	7817.44
488.493	7588.07
488.697	7737.57
488.901	7723.23
489.105	7725.28
489.309	7719.14
489.512	7758.05
489.716	7868.64
489.92	7756
490.124	7743.71
490.328	8091.87
490.531	7948.51
490.735	7878.88
490.939	7954.65
491.143	8087.77
491.346	7995.61
491.55	8108.25
491.754	8073.43
491.958	8167.64
492.161	8364.25
492.365	8257.75
492.569	8147.16
492.772	8311
492.976	8409.3
493.18	8329.43
493.383	8362.2
493.587	8337.62
493.79	8648.91
493.994	8511.7
494.197	8767.7
494.401	8820.94
494.605	8659.15
494.808	8980.68
495.012	8796.37
495.215	8960.2
495.419	9279.69
495.622	8986.83
495.825	9173.19
496.029	9187.53
496.232	9453.77
496.436	9240.78
496.639	9525.44
496.843	9443.53
497.046	9740.48
497.249	9840.83
497.453	9810.11
497.656	10084.54
497.859	10010.81
498.063	10111.16
498.266	10606.77
498.469	10295.48
498.673	10412.21
498.876	10731.7
499.079	10625.2
499.282	10832.05
499.485	11026.61
499.689	10905.77
499.892	11268.27
500.095	11192.49
500.298	11575.46
500.501	11374.76
500.705	11802.79
500.908	11901.09
501.111	12163.23
501.314	12255.39
501.517	12413.08
501.72	12705.94
501.923	12396.7
502.126	12896.4
502.329	12759.19
502.532	13129.87
502.735	13273.23
502.938	13353.1
503.141	13531.27
503.344	13623.43
503.547	13719.68
503.75	13940.86
503.953	14344.31
504.156	14596.21
504.359	14577.78
504.562	14465.14
504.765	15007.86
504.968	14895.22
505.17	15161.45
505.373	15370.35
505.576	15657.06
505.779	15747.17
505.982	15876.2
506.185	16144.48
506.387	16308.32
506.59	16711.77
506.793	16705.62
506.996	16648.28
507.198	17160.27
507.401	16998.48
507.604	17246.29
507.807	17786.95
508.009	17899.59
508.212	17983.55
508.415	18376.76
508.617	18462.78
508.82	18739.26
509.022	18325.57
509.225	18997.3
509.428	19120.18
509.63	19650.6
509.833	19552.3
510.035	19822.63
510.238	19591.21
510.44	20322.34
510.643	20635.67
510.845	20598.81
511.048	20574.24
511.25	20963.35
511.453	21186.58
511.655	22018.05
511.858	21919.75
512.06	21837.83
512.262	22345.73
512.465	22337.54
512.667	22872.06
512.87	22714.36
513.072	22904.82
513.274	23330.8
513.477	23779.31
513.679	23687.15
513.881	24262.63
514.084	24436.7
514.286	24858.59
514.488	24897.5
514.69	25143.25
514.893	25577.42
515.095	25202.64
515.297	25614.29
515.499	25980.87
515.701	26011.59
515.904	26712
516.106	26597.31
516.308	27099.06
516.51	27580.34
516.712	27183.03
516.914	27785.13
517.116	27914.16
517.318	28073.9
517.52	28331.94
517.722	28438.44
517.925	29061.02
518.127	29542.29
518.329	29550.48
518.531	29613.97
518.733	30240.65
518.935	30236.55
519.136	29984.65
519.338	31113.08
519.54	30793.6
519.742	31330.17
519.944	31358.84
520.146	31797.1
520.348	32460.65
520.55	32245.61
520.752	32446.31
520.954	33181.53
521.155	32714.59
521.357	33521.49
521.559	33384.28
521.761	33886.03
521.963	33804.11
522.164	33832.79
522.366	34314.06
522.568	34383.69
522.77	34690.88
522.971	35571.51
523.173	35104.57
523.375	35108.67
523.576	35526.46
523.778	35422.01
523.98	36222.76
524.181	36368.17
524.383	36302.64
524.584	37027.62
524.786	36656.93
524.988	36968.23
525.189	37044
525.391	37508.89
525.592	37621.53
525.794	37529.37
525.995	37543.7
526.197	37900.05
526.398	37805.84
526.6	38369.04
526.801	38592.26
527.003	38391.56
527.204	38919.94
527.406	38872.84
527.607	38702.85
527.808	39333.63
528.01	38985.47
528.211	38872.84
528.412	40052.47
528.614	39640.82
528.815	39442.17
529.016	40005.36
529.218	39493.37
529.419	39606.01
529.62	39919.35
529.822	39786.23
530.023	39800.57
530.224	40046.32
530.425	40197.87
530.626	39890.68
530.828	39380.73
531.029	40754.92
531.23	40310.51
531.431	40443.63
531.632	40226.54
531.833	40804.07
532.035	40673
532.236	40683.24
532.437	41213.66
532.638	40554.22
532.839	40849.13
533.04	41205.47
533.241	40480.49
533.442	41160.42
533.643	40879.85
533.844	40929
534.045	41115.36
534.246	40812.26
534.447	41146.08
534.648	40513.26
534.849	41111.27
535.05	40859.37
535.251	41137.89
535.451	41043.68
535.652	41025.25
535.853	41193.18
536.054	41316.06
536.255	40851.17
536.456	40689.38
536.657	41811.67
536.857	41418.46
537.058	40873.7
537.259	41545.44
537.46	41551.58
537.66	41492.19
537.861	41606.87
538.062	40994.53
538.263	41406.17
538.463	40933.09
538.664	41047.78
538.865	41371.36
539.065	41512.67
539.266	41033.44
539.466	41152.23
539.667	40937.19
539.868	41400.03
540.068	41336.54
540.269	41244.38
540.469	41373.41
540.67	41385.69
540.87	41080.55
541.071	40689.38
541.271	41187.04
541.472	41066.21
541.672	41019.11
541.873	40789.73
542.073	40615.66
542.274	41664.22
542.474	40799.97
542.675	40832.74
542.875	41600.73
543.075	41023.2
543.276	40589.03
543.476	41393.89
543.676	40650.47
543.877	41148.13
544.077	40855.27
544.277	41279.2
544.478	41021.16
544.678	41309.92
544.878	40980.2
545.078	41137.89
545.279	41197.28
545.479	40969.96
545.679	41352.93
545.879	40984.29
546.079	40840.93
546.28	40967.91
546.48	40750.82
546.68	40840.93
546.88	40863.46
547.08	40873.7
547.28	40699.62
547.48	40163.06
547.68	40646.38
547.88	40609.51
548.081	41060.07
548.281	41004.77
548.481	41002.72
548.681	41103.07
548.881	40789.73
549.081	40736.49
549.28	40644.33
549.48	41160.42
549.68	40924.9
549.88	41092.83
550.08	40417
550.28	40900.33
550.48	40777.45
550.68	41154.27
550.88	40742.63
551.08	40732.39
551.279	41012.96
551.479	40316.65
551.679	40537.83
551.879	40447.72
552.079	41238.24
552.278	40838.89
552.478	40685.29
552.678	40695.53
552.878	41141.99
553.077	40335.09
553.277	40437.48
553.477	41051.87
553.676	40302.32
553.876	40789.73
554.076	40673
554.275	40507.12
554.475	40042.23
554.674	40685.29
554.874	40345.33
555.074	40185.58
555.273	40251.12
555.473	40470.25
555.672	40212.21
555.872	40179.44
556.071	40163.06
556.271	40828.65
556.47	40191.73
556.67	40097.52
556.869	40314.61
557.068	40201.97
557.268	40431.34
557.467	40161.01
557.667	40466.16
557.866	39982.84
558.065	40044.27
558.265	39687.93
558.464	39802.61
558.663	40128.24
558.863	39476.99
559.062	40308.46
559.261	39333.63
559.461	40070.9
559.66	39309.05
559.859	39624.44
560.058	39642.87
560.258	39350.01
560.457	39259.9
560.656	39626.49
560.855	39114.5
561.054	39759.61
561.253	39233.28
561.453	39415.55
561.652	39470.84
561.851	39552.76
562.05	39259.9
562.249	38928.13
562.448	38897.41
562.647	38919.94
562.846	39139.07
563.045	38813.45
563.244	38618.89
563.443	39128.83
563.642	38551.31
563.841	38598.41
564.04	38315.79
564.239	38981.38
564.438	38223.63
564.637	38551.31
564.836	38737.67
565.035	38135.57
565.234	38397.71
565.432	37938.96
565.631	38352.65
565.83	38299.4
566.029	37902.1
566.228	38104.85
566.427	38168.33
566.625	37613.34
566.824	37465.88
567.023	37793.56
567.222	37334.81
567.42	37875.48
567.619	37390.11
567.818	37639.96
568.016	37222.17
568.215	37607.19
568.414	37492.51
568.612	37533.46
568.811	37250.84
569.01	37248.8
569.208	36663.08
569.407	36822.82
569.605	36527.91
569.804	36949.79
570.002	36560.68
570.201	37033.76
570.4	36452.14
570.598	36290.35
570.797	36392.75
570.995	36570.92
571.193	35907.38
571.392	36398.89
571.59	36013.87
571.789	35878.71
571.987	35958.58
572.186	36005.68
572.384	35635
572.582	36003.63
572.781	36132.65
572.979	35209.02
573.177	35487.54
573.376	35753.78
573.574	35489.59
573.772	35669.81
573.971	34887.49
574.169	34993.98
574.367	34838.34
574.565	35473.21
574.763	34819.91
574.962	34983.74
575.16	34322.25
575.358	34883.39
575.556	34174.8
575.754	34264.91
575.952	34318.15
576.151	34785.09
576.349	34182.99
576.547	33978.19
576.745	33967.95
576.943	34150.22
577.141	33865.55
577.339	34109.26
577.537	33392.47
577.735	34193.23
577.933	33464.15
578.131	33533.78
578.329	33494.87
578.527	33216.35
578.725	33132.38
578.923	33206.11
579.121	33154.91
579.319	32661.35
579.516	33433.43
579.714	32720.74
579.912	32986.97
580.11	32651.11
580.308	32757.6
580.506	32214.89
580.704	32016.24
580.901	32677.73
581.099	32472.93
581.297	32196.46
581.495	32083.82
581.692	32331.62
581.89	31819.63
582.088	32139.11
582.285	31661.94
582.483	31946.61
582.681	32063.34
582.878	31682.42
583.076	31491.96
583.274	31661.94
583.471	30992.25
583.669	31330.17
583.866	31147.9
584.064	31135.61
584.262	30822.27
584.459	31125.37
584.657	30898.05
584.854	30766.98
585.052	30730.11
585.249	31149.95
585.447	30795.65
585.644	30158.73
585.841	30709.63
586.039	30840.7
586.236	30113.67
586.434	29888.4
586.631	29874.06
586.828	29976.46
587.026	30052.23
587.223	29929.36
587.42	29472.66
587.618	29955.98
587.815	29409.17
588.012	29443.99
588.21	29392.79
588.407	29278.1
588.604	29353.88
588.801	29054.87
588.999	29171.61
589.196	29028.25
589.393	28903.32
589.59	28960.67
589.787	28880.8
589.984	28589.99
590.182	28587.94
590.379	28557.22
590.576	28417.96
590.773	28323.75
590.97	28442.53
591.167	28549.03
591.364	28116.9
591.561	28194.73
591.758	27871.15
591.955	27762.61
592.152	28004.27
592.349	27502.51
592.546	27555.76
592.743	27631.54
592.94	27234.23
593.137	27291.57
593.334	27441.07
593.531	26896.31
593.727	27385.78
593.924	26955.71
594.121	26886.08
594.318	26941.37
594.515	26881.98
594.712	27011
594.908	26591.17
595.105	26761.15
595.302	26453.95
595.499	26679.23
595.696	26582.98
595.892	26365.89
596.089	26447.81
596.286	26408.9
596.482	26075.08
596.679	26144.71
596.876	26118.09
597.072	25720.78
597.269	26005.45
597.466	25509.84
597.662	26052.55
597.859	25737.16
598.055	25483.22
598.252	25401.3
598.448	25489.36
598.645	25309.14
598.841	25040.86
599.038	25122.77
599.234	25016.28
599.431	24850.39
599.627	24934.36
599.824	25198.55
600.02	24395.75
600.217	24883.16
600.413	24717.28
600.609	24485.86
600.806	24510.43
601.002	24553.44
601.198	24207.33
601.395	24371.17
601.591	24377.31
601.787	23885.8
601.984	23920.62
602.18	24047.59
602.376	23973.86
602.572	23910.38
602.769	24106.98
602.965	23353.33
603.161	23867.37
603.357	23496.69
603.553	23597.04
603.75	23488.49
603.946	23304.18
604.142	23287.79
604.338	22894.58
604.534	23062.52
604.73	23144.44
604.926	23152.63
605.122	22949.88
605.318	22743.03
605.514	22626.3
605.71	22708.22
605.906	22622.2
606.102	22370.3
606.298	22456.32
606.494	22388.74
606.69	22460.41
606.886	22228.99
607.082	22179.84
607.278	22196.23
607.474	22032.39
607.67	22093.83
607.866	21717
608.062	22099.97
608.257	21882.89
608.453	21852.17
608.649	21712.91
608.845	21915.65
609.041	21741.58
609.236	21606.41
609.432	21354.51
609.628	21446.67
609.824	21481.49
610.019	21106.71
610.215	21467.15
610.411	21401.61
610.606	21397.52
610.802	21264.4
610.998	21180.43
611.193	21067.8
611.389	20703.26
611.584	21256.21
611.78	20537.37
611.976	20957.21
612.171	20813.85
612.367	20813.85
612.562	20641.82
612.758	20500.51
612.953	20500.51
613.149	20856.86
613.344	20641.82
613.539	20903.96
613.735	20484.12
613.93	20813.85
614.126	20424.73
614.321	20662.3
614.517	20404.25
614.712	20328.48
614.907	20199.46
615.103	20406.3
615.298	20244.51
615.493	20602.91
615.688	20178.98
615.884	20353.05
616.079	19830.82
616.274	20183.07
616.47	20199.46
616.665	20158.5
616.86	19699.75
617.055	19781.67
617.25	19365.93
617.445	19937.32
617.641	19165.23
617.836	19462.19
618.031	19079.22
618.226	19777.58
618.421	19456.04
618.616	19365.93
618.811	19130.42
619.006	19566.63
619.201	18970.68
619.396	19173.42
619.591	18817.08
619.786	18745.4
619.981	18837.56
620.176	18800.69
620.371	18577.47
620.566	18532.41
620.761	18524.22
620.956	18481.21
621.151	18102.34
621.346	18147.39
621.541	17918.02
621.735	17920.07
621.93	17883.2
622.125	17956.93
622.32	17326.16
622.515	17608.78
622.709	17504.33
622.904	17846.34
623.099	17455.18
623.294	17502.28
623.488	17016.91
623.683	17256.53
623.878	17049.68
624.072	17021.01
624.267	16918.61
624.462	16963.67
624.656	16631.9
624.851	16562.26
625.046	16367.71
625.24	16588.89
625.435	16300.12
625.629	16525.4
625.824	16343.13
626.018	16240.73
626.213	15863.91
626.407	16158.81
626.602	15759.46
626.796	15763.56
626.991	15718.5
627.185	15493.22
627.38	15394.92
627.574	15394.92
627.768	15644.77
627.963	15388.78
628.157	15063.15
628.352	15069.3
628.546	14792.82
628.74	14913.65
628.935	14819.44
629.129	14676.09
629.323	14411.9
629.517	14467.19
629.712	14608.5
629.906	14450.81
630.1	14280.83
630.294	14305.4
630.489	14102.65
630.683	14250.11
630.877	14149.76
631.071	14047.36
631.265	14178.43
631.459	13846.66
631.653	13963.39
631.848	13801.6
632.042	13555.85
632.236	13719.68
632.43	13555.85
632.624	13330.57
632.818	13394.06
633.012	13369.48
633.206	13000.85
633.4	13072.53
633.594	12970.13
633.788	13125.77
633.982	12699.8
634.176	12994.7
634.369	12789.91
634.563	12974.22
634.757	12519.57
634.951	12724.37
635.145	12558.49
635.339	12679.32
635.533	12408.98
635.726	12408.98
635.92	12187.8
636.114	12103.84
636.308	12318.87
636.501	12308.63
636.695	11983.01
636.889	11933.86
637.083	11921.57
637.276	11829.41
637.47	11894.94
637.664	11761.83
637.857	11864.22
638.051	11616.42
638.244	11593.89
638.438	11491.49
638.632	11616.42
638.825	11292.84
639.019	11268.27
639.212	11108.52
639.406	11268.27
639.599	11124.91
639.793	10789.04
639.986	11049.13
640.18	10932.4
640.373	11038.89
640.567	10657.97
640.76	10623.16
640.954	10651.83
641.147	10485.94
641.34	10320.06
641.534	10463.41
641.727	10418.36
641.92	10197.18
642.114	10238.14
642.307	10221.75
642.5	10082.49
642.694	10094.78
642.887	10008.76
643.08	9865.41
643.273	10088.64
643.467	9969.85
643.66	9728.19
643.853	9638.08
644.046	9650.37
644.239	9625.79
644.432	9740.48
644.626	9574.6
644.819	9414.85
645.012	9455.81
645.205	9238.73
645.398	9400.52
645.591	9476.29
645.784	9173.19
645.977	9072.84
646.17	9179.34
646.363	9050.32
646.556	9095.37
646.749	8966.35
646.942	8960.2
647.135	8839.37
647.328	8687.82
647.521	8898.77
647.714	8616.15
647.907	8796.37
648.099	8702.16
648.292	8607.95
648.485	8452.31
648.678	8448.21
648.871	8435.92
649.064	8188.12
649.256	8358.1
649.449	8108.25
649.642	8114.39
649.835	7928.03
650.027	7921.88
650.22	8040.67
650.413	8102.11
650.605	8102.11
650.798	7768.29
650.991	7688.42
651.183	7866.59
651.376	7776.48
651.568	7710.94
651.761	7725.28
651.954	7600.35
652.146	7745.76
652.339	7612.64
652.531	7448.8
652.724	7401.7
652.916	7395.56
653.109	7323.88
653.301	7323.88
653.494	7211.24
653.686	7168.23
653.879	7182.57
654.071	7002.35
654.263	7129.32
654.456	7055.59
654.648	7309.54
654.84	6899.95
655.033	7137.51
655.225	6844.65
655.417	6760.69
655.61	6979.82
655.802	6846.7
655.994	6752.49
656.186	6754.54
656.379	6684.91
656.571	6666.48
656.763	6527.22
656.955	6478.07
657.148	6818.03
657.34	6430.96
657.532	6297.85
657.724	6363.38
657.916	6441.2
658.108	6461.68
658.3	6414.58
658.492	6267.13
658.684	6115.58
658.876	6199.54
659.068	6252.79
659.26	6035.71
659.452	6142.2
659.644	6123.77
659.836	6088.95
660.028	6021.37
660.22	5990.65
660.412	5912.83
660.604	5796.09
660.796	5855.48
660.988	5841.15
661.18	5744.89
661.372	5687.55
661.563	5792
661.755	5474.56
661.947	5437.7
662.139	5599.49
662.331	5484.8
662.522	5486.85
662.714	5447.94
662.906	5486.85
663.097	5290.24
663.289	5265.67
663.481	5269.76
663.673	5284.1
663.864	5077.26
664.056	5331.2
664.247	5318.92
664.439	5062.92
664.631	5085.45
664.822	5085.45
665.014	5024.01
665.205	5124.36
665.397	5075.21
665.588	5032.2
665.78	4976.91
665.971	4851.98
666.163	4839.69
666.354	4815.12
666.546	4819.21
666.737	4905.23
666.929	4749.58
667.12	4774.16
667.311	4612.37
667.503	4661.52
667.694	4733.2
667.885	4595.98
668.077	4571.41
668.268	4405.52
668.459	4628.75
668.651	4495.63
668.842	4579.6
669.033	4280.6
669.224	4432.15
669.416	4438.29
669.607	4413.71
669.798	4407.57
669.989	4360.47
670.18	4307.22
670.371	4337.94
670.563	4200.73
670.754	4184.34
670.945	4127
671.136	4159.77
671.327	4186.39
671.518	4219.16
671.709	4200.73
671.9	4120.85
672.091	4098.33
672.282	4094.23
672.473	3963.16
672.664	4086.04
672.855	4008.22
673.046	3997.98
673.237	4012.31
673.428	3961.11
673.619	3963.16
673.809	3819.8
674	3868.95
674.191	3883.29
674.382	3782.94
674.573	3782.94
674.764	3952.92
674.954	3901.72
675.145	3766.56
675.336	3623.2
675.527	3721.5
675.717	3873.05
675.908	3670.3
676.099	3817.76
676.289	3651.87
676.48	3670.3
676.671	3752.22
676.861	3678.49
677.052	3621.15
677.243	3688.73
677.433	3594.53
677.624	3725.6
677.814	3612.96
678.005	3596.57
678.195	3533.09
678.386	3629.34
678.576	3514.66
678.767	3455.26
678.957	3504.42
679.148	3643.68
679.338	3578.14
679.529	3494.18
679.719	3551.52
679.909	3492.13
680.1	3500.32
680.29	3406.11
680.481	3424.55
680.671	3275.04
680.861	3406.11
681.052	3344.67
681.242	3363.11
681.432	3350.82
681.622	3440.93
681.813	3406.11
682.003	3471.65
682.193	3375.39
682.383	3406.11
682.573	3293.48
682.764	3410.21
682.954	3414.31
683.144	3369.25
683.334	3324.19
683.524	3291.43
683.714	3385.63
683.904	3227.94
684.094	3293.48
684.284	3301.67
684.474	3350.82
684.664	3242.28
684.854	3258.66
685.044	3248.42
685.234	3127.59
685.424	3160.36
685.614	3172.64
685.804	3232.04
685.994	3264.8
686.184	3250.47
686.374	3275.04
686.564	3137.83
686.753	3199.27
686.943	3082.53
687.133	3186.98
687.323	3103.01
687.513	3168.55
687.702	3115.3
687.892	3246.37
688.082	3172.64
688.272	3193.12
688.461	3170.6
688.651	3225.89
688.841	3060.01
689.03	3066.15
689.22	3025.19
689.41	3074.34
689.599	3092.77
689.789	3047.72
689.979	3070.25
690.168	2971.94
690.358	3219.75
690.547	3057.96
690.737	2992.42
690.926	2965.8
691.116	3017
691.305	2965.8
691.495	3006.76
691.684	2910.5
691.874	3094.82
692.063	2914.6
692.252	2857.26
692.442	3035.43
692.631	3012.9
692.82	2879.79
693.01	2947.37
693.199	2951.46
693.388	2914.6
693.578	2955.56
693.767	2959.66
693.956	2906.41
694.146	2838.83
694.335	2812.2
694.524	2816.3
694.713	2894.12
694.902	2810.15
695.092	2775.34
695.281	2689.32
695.47	2881.83
695.659	2783.53
695.848	2818.35
696.037	2820.39
696.226	2736.43
696.415	2783.53
696.604	2926.89
696.793	2853.16
696.982	2742.57
697.171	2873.64
697.36	2726.19
697.549	2656.56
697.738	2816.3
697.927	2783.53
698.116	2748.72
698.305	2750.76
698.494	2730.28
698.683	2625.84
698.872	2742.57
699.061	2599.21
699.25	2799.91
699.438	2652.46
699.627	2654.51
699.816	2824.49
700.005	2744.62
700.193	2713.9
700.382	2695.47
700.571	2750.76
700.76	2629.93
700.948	2693.42
701.137	2793.77
701.326	2619.69
701.514	2603.31
701.703	2679.08
701.892	2681.13
702.08	2713.9
702.269	2554.16
702.457	2570.54
702.646	2627.89
702.834	2505.01
703.023	2588.97
703.212	2576.69
703.4	2611.5
703.589	2457.9
703.777	2556.21
703.965	2582.83
704.154	2515.25
704.342	2654.51
704.531	2529.58
704.719	2580.78
704.907	2468.14
705.096	2545.97
705.284	2425.14
705.472	2554.16
705.661	2459.95
705.849	2496.82
706.037	2427.18
706.226	2341.17
706.414	2474.29
706.602	2427.18
706.79	2361.65
706.979	2363.7
707.167	2464.05
707.355	2488.62
707.543	2474.29
707.731	2404.66
707.919	2384.18
708.107	2392.37
708.296	2386.22
708.484	2373.94
708.672	2357.55
708.86	2373.94
709.048	2318.64
709.236	2302.26
709.424	2482.48
709.612	2394.42
709.8	2437.42
709.988	2373.94
710.176	2330.93
710.364	2431.28
710.551	2324.79
710.739	2165.04
710.927	2367.79
711.115	2310.45
711.303	2296.11
711.491	2396.46
711.679	2171.19
711.866	2267.44
712.054	2277.68
712.242	2210.1
712.43	2406.7
712.617	2310.45
712.805	2218.29
712.993	2271.54
713.181	2193.72
713.368	2154.8
713.556	2287.92
713.744	2177.33
713.931	2091.32
714.119	2201.91
714.306	2287.92
714.494	2214.2
714.682	2222.39
714.869	2242.87
715.057	2226.48
715.244	2193.72
715.432	2238.77
715.619	2152.76
715.807	2236.72
715.994	2167.09
716.182	2165.04
716.369	2124.08
716.556	2113.85
716.744	2083.13
716.931	2124.08
717.119	2185.52
717.306	2171.19
717.493	2195.76
717.681	2128.18
717.868	2095.41
718.055	2066.74
718.242	2185.52
718.43	2058.55
718.617	2103.61
718.804	2005.3
718.991	2074.93
719.179	2072.89
719.366	2079.03
719.553	2132.28
719.74	2007.35
719.927	2140.47
720.114	1972.54
720.301	1925.43
720.488	1935.67
720.676	2021.69
720.863	2152.76
721.05	2021.69
721.237	2021.69
721.424	2015.54
721.611	2134.32
721.798	1956.15
721.985	1894.71
722.172	1943.86
722.358	1943.86
722.545	1995.06
722.732	1990.97
722.919	1956.15
723.106	1923.38
723.293	1972.54
723.48	1974.58
723.667	1863.99
723.853	1902.9
724.04	1907
724.227	1874.23
724.414	1966.39
724.6	1958.2
724.787	1845.56
724.974	2042.17
725.161	2007.35
725.347	1888.57
725.534	1931.58
725.72	1882.42
725.907	1827.13
726.094	1800.51
726.28	1786.17
726.467	1839.42
726.653	1794.36
726.84	1861.94
727.027	1917.24
727.213	1902.9
727.4	1927.48
727.586	1886.52
727.773	1843.51
727.959	1843.51
728.145	1798.46
728.332	1726.78
728.518	1855.8
728.705	1841.47
728.891	1771.83
729.077	1777.98
729.264	1784.12
729.45	1829.18
729.636	1886.52
729.823	1816.89
730.009	1796.41
730.195	1827.13
730.382	1814.84
730.568	1753.4
730.754	1804.6
730.94	1669.44
731.126	1777.98
731.313	1784.12
731.499	1689.92
731.685	1681.72
731.871	1786.17
732.057	1749.31
732.243	1775.93
732.429	1673.53
732.615	1784.12
732.801	1714.49
732.987	1634.62
733.173	1745.21
733.359	1712.44
733.545	1706.3
733.731	1726.78
733.917	1726.78
734.103	1653.05
734.289	1732.92
734.475	1720.64
734.661	1689.92
734.847	1571.13
735.033	1663.29
735.219	1603.9
735.404	1651
735.59	1630.52
735.776	1659.2
735.962	1685.82
736.148	1624.38
736.333	1634.62
736.519	1597.76
736.705	1542.46
736.89	1583.42
737.076	1513.79
737.262	1564.99
737.447	1608
737.633	1671.48
737.819	1661.24
738.004	1562.94
738.19	1655.1
738.375	1571.13
738.561	1726.78
738.747	1571.13
738.932	1624.38
739.118	1528.13
739.303	1655.1
739.489	1454.4
739.674	1614.14
739.859	1534.27
740.045	1546.56
740.23	1499.45
740.416	1497.41
740.601	1521.98
740.786	1485.12
740.972	1474.88
741.157	1442.11
741.342	1411.39
741.528	1425.73
741.713	1571.13
741.898	1429.82
742.084	1493.31
742.269	1489.21
742.454	1440.06
742.639	1487.17
742.824	1390.91
743.01	1517.89
743.195	1485.12
743.38	1407.3
743.565	1466.69
743.75	1401.15
743.935	1464.64
744.12	1368.38
744.305	1378.62
744.49	1390.91
744.675	1239.36
744.86	1319.23
745.045	1401.15
745.23	1411.39
745.415	1327.43
745.6	1368.38
745.785	1366.34
745.97	1390.91
746.155	1311.04
746.34	1321.28
746.525	1313.09
746.71	1366.34
746.895	1390.91
747.079	1345.86
747.264	1270.08
747.449	1206.59
747.634	1259.84
747.819	1186.12
748.003	1292.61
748.188	1233.22
748.373	1253.7
748.557	1206.59
748.742	1276.23
748.927	1147.2
749.111	1255.75
749.296	1169.73
749.481	1179.97
749.665	1202.5
749.85	1075.52
750.034	1165.64
750.219	1122.63
750.404	1100.1
750.588	1149.25
750.773	1116.48
750.957	1149.25
751.141	1073.48
751.326	1169.73
751.51	1177.92
751.695	1100.1
751.879	1227.07
752.064	1145.16
752.248	1038.66
752.432	1196.36
752.617	1114.44
752.801	1038.66
752.985	1034.57
753.17	1096
753.354	1050.95
753.538	1116.48
753.722	1014.09
753.907	954.69
754.091	1003.85
754.275	1065.29
754.459	948.55
754.643	997.7
754.828	1005.89
755.012	991.56
755.196	905.54
755.38	952.65
755.564	932.17
755.748	942.41
755.932	973.13
756.116	983.37
756.3	997.7
756.484	909.64
756.668	938.31
756.852	876.87
757.036	854.34
757.22	913.74
757.404	797
757.588	901.45
757.772	874.82
757.956	862.54
758.14	952.65
758.323	885.06
758.507	852.3
758.691	870.73
758.875	966.98
759.059	874.82
759.242	784.71
759.426	817.48
759.61	809.29
759.794	885.06
759.977	850.25
760.161	923.98
760.345	807.24
760.528	850.25
760.712	833.86
760.895	741.71
761.079	883.02
761.263	762.19
761.446	850.25
761.63	866.63
761.813	788.81
761.997	663.88
762.18	735.56
762.364	717.13
762.547	760.14
762.731	776.52
762.914	743.75
763.098	657.74
763.281	739.66
763.464	702.79
763.648	670.03
763.831	715.08
764.015	725.32
764.198	655.69
764.381	645.45
764.564	725.32
764.748	727.37
764.931	735.56
765.114	737.61
765.297	749.9
765.481	663.88
765.664	694.6
765.847	756.04
766.03	756.04
766.213	684.36
766.397	686.41
766.58	684.36
766.763	721.23
766.946	698.7
767.129	702.79
767.312	657.74
767.495	575.82
767.678	647.5
767.861	807.24
768.044	665.93
768.227	620.88
768.41	596.3
768.593	698.7
768.776	659.79
768.959	590.16
769.142	670.03
769.324	629.07
769.507	614.73
769.69	710.99
769.873	637.26
770.056	698.7
770.239	565.58
770.421	694.6
770.604	702.79
770.787	586.06
770.97	651.6
771.152	653.64
771.335	612.68
771.518	600.4
771.7	663.88
771.883	629.07
772.066	645.45
772.248	645.45
772.431	637.26
772.613	575.82
772.796	563.53
772.978	641.36
773.161	567.63
773.343	512.33
773.526	522.57
773.708	549.2
773.891	538.96
774.073	563.53
774.256	579.92
774.438	590.16
774.621	522.57
774.803	528.72
774.985	514.38
775.168	659.79
775.35	506.19
775.532	620.88
775.715	526.67
775.897	606.54
776.079	592.2
776.261	541.01
776.444	530.77
776.626	575.82
776.808	524.62
776.99	467.28
777.173	549.2
777.355	514.38
777.537	569.68
777.719	450.89
777.901	516.43
778.083	493.9
778.265	448.85
778.447	551.24
778.629	489.81
778.811	536.91
778.993	559.44
779.175	485.71
779.357	498
779.539	436.56
779.721	416.08
779.903	463.18
780.085	442.7
780.267	467.28
780.449	401.74
780.631	409.94
780.812	485.71
780.994	409.94
781.176	452.94
781.358	448.85
781.54	373.07
781.721	473.42
781.903	416.08
782.085	399.7
782.267	442.7
782.448	350.54
782.63	371.02
782.812	342.35
782.993	489.81
783.175	434.51
783.357	377.17
783.538	407.89
783.72	379.22
783.901	383.31
784.083	377.17
784.264	395.6
784.446	366.93
784.627	391.5
784.809	391.5
784.99	342.35
785.172	424.27
785.353	301.39
785.535	293.2
785.716	411.98
785.897	317.78
786.079	393.55
786.26	319.82
786.441	368.98
786.623	352.59
786.804	321.87
786.985	373.07
787.167	393.55
787.348	434.51
787.529	360.78
787.71	391.5
787.891	340.3
788.073	268.63
788.254	325.97
788.435	268.63
788.616	375.12
788.797	305.49
788.978	278.87
789.159	272.72
789.34	270.67
789.522	371.02
789.703	264.53
789.884	272.72
790.065	291.15
790.246	295.25
790.427	262.48
790.607	334.16
790.788	301.39
790.969	256.34
791.15	295.25
791.331	239.95
791.512	244.05
791.693	229.71
791.874	344.4
792.054	276.82
792.235	319.82
792.416	278.87
792.597	334.16
792.778	278.87
792.958	325.97
793.139	246.1
793.32	274.77
793.5	289.1
793.681	301.39
793.862	309.58
794.042	260.43
794.223	188.75
794.404	309.58
794.584	188.75
794.765	235.86
794.945	256.34
795.126	213.33
795.306	274.77
795.487	207.19
795.667	254.29
795.848	285.01
796.028	219.47
796.209	239.95
796.389	250.19
796.57	205.14
796.75	231.76
796.93	196.95
797.111	182.61
797.291	186.71
797.471	266.58
797.652	215.38
797.832	166.23
798.012	162.13
798.192	196.95
798.373	229.71
798.553	211.28
798.733	227.67
798.913	170.32
799.093	182.61
799.274	117.08
799.454	266.58
799.634	239.95
799.814	203.09
799.994	188.75
800.174	268.63
800.354	221.52
800.534	135.51
800.714	227.67
800.894	205.14
801.074	108.88
801.254	196.95
801.434	145.75
801.614	155.99
801.794	170.32
801.974	747.85
802.154	186.71
802.334	194.9
802.514	143.7
802.693	139.6
802.873	198.99
803.053	170.32
803.233	235.86
803.413	237.91
803.592	131.41
803.772	172.37
803.952	182.61
804.131	139.6
804.311	178.51
804.491	176.47
804.67	147.8
804.85	172.37
805.03	188.75
805.209	252.24
805.389	84.31
805.568	174.42
805.748	145.75
805.928	123.22
806.107	174.42
806.287	162.13
806.466	131.41
806.646	72.02
806.825	135.51
807.004	231.76
807.184	151.89
807.363	170.32
807.543	162.13
807.722	112.98
807.901	174.42
808.081	153.94
808.26	90.45
808.439	117.08
808.619	203.09
808.798	49.49
808.977	112.98
809.156	170.32
809.336	112.98
809.515	121.17
809.694	164.18
809.873	211.28
810.052	86.36
810.231	178.51
810.411	153.94
810.59	158.03
810.769	96.6
810.948	170.32
811.127	170.32
811.306	39.25
811.485	149.84
811.664	211.28
811.843	104.79
812.022	166.23
812.201	125.27
812.38	88.4
812.559	37.2
812.737	129.36
812.916	106.84
813.095	80.21
813.274	43.35
813.453	123.22
813.632	155.99
813.811	104.79
813.989	74.07
814.168	88.4
814.347	86.36
814.526	133.46
814.704	131.41
814.883	100.69
815.062	31.06
815.24	155.99
815.419	39.25
815.598	143.7
815.776	88.4
815.955	94.55
816.133	106.84
816.312	80.21
816.49	74.07
816.669	100.69
816.847	59.73
817.026	96.6
817.204	82.26
817.383	112.98
817.561	92.5
817.74	147.8
817.918	125.27
818.097	49.49
818.275	69.97
818.453	115.03
818.632	125.27
818.81	106.84
818.988	76.12
819.167	59.73
819.345	69.97
819.523	72.02
819.701	121.17
819.879	186.71
820.058	41.3
820.236	88.4
820.414	155.99
820.592	61.78
820.77	86.36
820.948	31.06
821.127	158.03
821.305	133.46
821.483	90.45
821.661	174.42
821.839	186.71
822.017	24.92
822.195	41.3
822.373	100.69
822.551	43.35
822.729	106.84
822.907	108.88
823.085	82.26
823.262	88.4
823.44	96.6
823.618	59.73
823.796	88.4
823.974	43.35
824.152	106.84
824.329	39.25
824.507	8.53
824.685	20.82
824.863	90.45
825.04	106.84
825.218	119.12
825.396	90.45
825.574	80.21
825.751	125.27
825.929	131.41
826.107	90.45
826.284	121.17
826.462	-5.8
826.639	-11.95
826.817	39.25
826.994	166.23
827.172	2.39
827.349	172.37
827.527	47.44
827.704	41.3
827.882	112.98
828.059	33.11
828.237	37.2
828.414	117.08
828.591	69.97
828.769	43.35
828.946	33.11
829.124	67.92
829.301	112.98
829.478	61.78
829.655	53.59
829.833	57.68
830.01	67.92
830.187	0.34
830.364	57.68
830.542	-42.67
830.719	149.84
830.896	72.02
831.073	121.17
831.25	135.51
831.427	112.98
831.604	20.82
831.782	33.11
831.959	106.84
832.136	14.68
832.313	24.92
832.49	74.07
832.667	43.35
832.844	-34.47
833.021	96.6
833.198	72.02
833.374	57.68
833.551	51.54
833.728	47.44
833.905	72.02
834.082	20.82
834.259	12.63
834.436	100.69
834.612	67.92
834.789	63.83
834.966	39.25
835.143	63.83
835.319	-28.33
835.496	106.84
835.673	14.68
835.85	90.45
836.026	47.44
836.203	123.22
836.38	61.78
836.556	149.84
836.733	33.11
836.909	96.6
837.086	10.58
837.262	10.58
837.439	-36.52
837.616	-9.9
837.792	-3.75
837.968	-16.04
838.145	-36.52
838.321	49.49
838.498	59.73
838.674	104.79
838.851	31.06
839.027	39.25
839.203	145.75
839.38	106.84
839.556	57.68
839.732	106.84
839.909	14.68
840.085	112.98
840.261	-24.23
840.437	72.02
840.614	31.06
840.79	82.26
840.966	84.31
841.142	110.93
841.318	72.02
841.494	-30.38
841.671	90.45
841.847	63.83
842.023	-1.71
842.199	43.35
842.375	37.2
842.551	-18.09
842.727	47.44
842.903	104.79
843.079	16.73
843.255	74.07
843.431	39.25
843.607	96.6
843.783	-40.62
843.959	-26.28
844.134	4.44
844.31	65.88
844.486	22.87
844.662	-71.34
844.838	33.11
845.013	45.4
845.189	47.44
845.365	47.44
845.541	31.06
845.716	80.21
845.892	39.25
846.068	104.79
846.244	22.87
846.419	45.4
846.595	2.39
846.77	8.53
846.946	82.26
847.122	-1.71
847.297	-50.86
847.473	45.4
847.648	-36.52
847.824	57.68
847.999	8.53
848.175	92.5
848.35	55.64
848.526	90.45
848.701	-3.75
848.876	37.2
849.052	31.06
849.227	18.77
849.403	47.44
849.578	41.3
849.753	55.64
849.929	80.21
850.104	41.3
850.279	22.87
850.454	110.93
850.63	6.49
850.805	-5.8
850.98	47.44
851.155	94.55
851.33	-50.86
851.505	14.68
851.681	108.88
851.856	-32.43
852.031	39.25
852.206	-18.09
852.381	-59.05
852.556	39.25
852.731	59.73
852.906	65.88
853.081	82.26
853.256	61.78
853.431	63.83
853.606	35.16
853.781	-5.8
853.956	-9.9
854.131	22.87
854.305	67.92
854.48	41.3
854.655	49.49
854.83	55.64
855.005	-32.43
855.18	55.64
855.354	-87.72
855.529	80.21
855.704	-7.85
855.879	55.64
856.053	-26.28
856.228	-11.95
856.403	-11.95
856.577	31.06
856.752	-24.23
856.926	-42.67
857.101	-46.76
857.276	-18.09
857.45	55.64
857.625	-11.95
857.799	16.73
857.974	2.39
858.148	43.35
858.323	-36.52
858.497	-7.85
858.672	6.49
858.846	-46.76
859.02	0.34
859.195	35.16
859.369	63.83
859.543	37.2
859.718	33.11
859.892	74.07
860.066	88.4
860.241	-9.9
860.415	-18.09
860.589	-28.33
860.763	18.77
860.938	-16.04
861.112	104.79
861.286	10.58
861.46	-63.15
861.634	14.68
861.808	74.07
861.982	47.44
862.157	14.68
862.331	65.88
862.505	35.16
862.679	49.49
862.853	31.06
863.027	-26.28
863.201	-11.95
863.375	-16.04
863.549	88.4
863.722	-1.71
863.896	14.68
864.07	39.25
864.244	-59.05
864.418	59.73
864.592	57.68
864.766	24.92
864.939	39.25
865.113	31.06
865.287	65.88
865.461	-5.8
865.634	-97.96
865.808	-67.24
865.982	57.68
866.156	-71.34
866.329	-38.57
866.503	10.58
866.676	-59.05
866.85	-24.23
867.024	24.92
867.197	-1.71
867.371	-18.09
867.544	51.54
867.718	31.06
867.891	63.83
868.065	-75.43
868.238	35.16
868.412	29.01
868.585	80.21
868.759	8.53
868.932	26.96
869.105	6.49
869.279	14.68
869.452	-18.09
869.625	92.5
869.799	-26.28
869.972	-54.95
870.145	31.06
870.319	-3.75
870.492	2.39
870.665	39.25
870.838	-26.28
871.011	-61.1
871.185	0.34
871.358	14.68
871.531	43.35
871.704	-52.91
871.877	0.34
872.05	-30.38
872.223	6.49
872.396	65.88
872.569	26.96
872.742	-50.86
872.915	-9.9
873.088	10.58
873.261	-104.11
873.434	24.92
873.607	-5.8
873.78	26.96
873.953	2.39
874.126	-13.99
874.299	12.63
874.471	-3.75
874.644	45.4
874.817	6.49
874.99	80.21
875.163	-65.19
875.335	-9.9
875.508	88.4
875.681	76.12
875.853	-20.14
876.026	31.06
876.199	57.68
876.371	8.53
876.544	-73.39
876.717	31.06
876.889	-36.52
877.062	6.49
877.234	57.68
877.407	-22.19
877.579	72.02
877.752	6.49
877.924	51.54
878.097	22.87
878.269	39.25
878.442	0.34
878.614	33.11
878.786	67.92
878.959	26.96
879.131	-18.09
879.303	-48.81
879.476	39.25
879.648	-13.99
879.82	29.01
879.993	6.49
880.165	12.63
880.337	33.11
880.509	-42.67
880.681	-18.09
880.854	-24.23
881.026	-24.23
881.198	-5.8
881.37	-48.81
881.542	0.34
881.714	2.39
881.886	-57
882.058	-18.09
882.23	61.78
882.402	-50.86
882.574	-26.28
882.746	8.53
882.918	33.11
883.09	-65.19
883.262	-73.39
883.434	-26.28
883.606	-9.9
883.778	-18.09
883.95	119.12
884.122	24.92
884.293	22.87
884.465	8.53
884.637	57.68
884.809	43.35
884.98	-20.14
885.152	-20.14
885.324	72.02
885.496	-24.23
885.667	8.53
885.839	47.44
886.011	24.92
886.182	47.44
886.354	80.21
886.525	-44.71
886.697	6.49
886.869	43.35
887.04	-5.8
887.212	43.35
887.383	18.77
887.555	-1.71
887.726	22.87
887.897	-18.09
888.069	112.98
888.24	0.34
888.412	-42.67
888.583	6.49
888.754	-38.57
888.926	-40.62
889.097	14.68
889.268	-124.58
889.44	-30.38
889.611	-18.09
889.782	8.53
889.953	37.2
890.125	55.64
890.296	2.39
890.467	-9.9
890.638	-34.47
890.809	6.49
890.98	8.53
891.151	-1.71
891.323	-40.62
891.494	22.87
891.665	-54.95
891.836	10.58
892.007	72.02
892.178	22.87
892.349	0.34
892.52	18.77
892.691	-16.04
892.862	22.87
893.032	-40.62
893.203	33.11
893.374	-71.34
893.545	18.77
893.716	26.96
893.887	-24.23
894.057	4.44
894.228	-13.99
894.399	6.49
894.57	-1.71
894.74	-24.23
894.911	47.44
895.082	82.26
895.253	10.58
895.423	-16.04
895.594	22.87
895.764	14.68
895.935	-9.9
896.106	41.3
896.276	-50.86
896.447	-18.09
896.617	24.92
896.788	-63.15
896.958	55.64
897.129	4.44
897.299	-26.28
897.47	35.16
897.64	24.92
897.81	-18.09
897.981	6.49
898.151	-67.24
898.322	-32.43
898.492	33.11
898.662	14.68
898.832	-22.19
899.003	6.49
899.173	-16.04
899.343	14.68
899.513	-3.75
