Data from USB4F104151__80__14-43-27-396.txt Node

Date: Thu Mar 13 14:43:27 EDT 2025
User: louis
Spectrometer: USB4F10415
Trigger mode: 4
Integration Time (sec): 2.000000E-2
Scans to average: 1
Electric dark correction enabled: true
Nonlinearity correction enabled: false
Boxcar width: 0
XAxis mode: Wavelengths
Number of Pixels in Spectrum: 3648
>>>>>Begin Spectral Data<<<<<
178.204	-135
178.424	-135
178.644	-135
178.864	-145.24
179.084	-118.61
179.304	0.17
179.524	-3.93
179.744	-5.97
179.964	-8.02
180.184	57.51
180.404	-10.07
180.624	14.51
180.844	43.18
181.064	-44.88
181.283	-30.55
181.503	-38.74
181.723	26.79
181.943	43.18
182.163	47.27
182.383	96.43
182.602	100.52
182.822	133.29
183.042	34.99
183.262	-10.07
183.482	32.94
183.701	53.42
183.921	106.67
184.141	2.22
184.361	22.7
184.58	18.6
184.8	20.65
185.02	12.46
185.239	100.52
185.459	10.41
185.679	92.33
185.898	-14.17
186.118	59.56
186.338	61.61
186.557	51.37
186.777	45.23
186.997	34.99
187.216	100.52
187.436	55.47
187.655	137.38
187.875	26.79
188.095	10.41
188.314	34.99
188.534	75.95
188.753	-10.07
188.973	73.9
189.192	108.71
189.412	75.95
189.631	121
189.851	43.18
190.07	98.47
190.29	22.7
190.509	67.75
190.729	-8.02
190.948	18.6
191.168	145.58
191.387	92.33
191.607	10.41
191.826	30.89
192.045	51.37
192.265	-22.36
192.484	28.84
192.704	73.9
192.923	47.27
193.142	43.18
193.362	39.08
193.581	47.27
193.8	26.79
194.02	55.47
194.239	-5.97
194.458	10.41
194.678	45.23
194.897	-3.93
195.116	30.89
195.335	121
195.555	34.99
195.774	67.75
195.993	24.75
196.212	26.79
196.432	28.84
196.651	43.18
196.87	22.7
197.089	71.85
197.308	94.38
197.528	69.8
197.747	39.08
197.966	53.42
198.185	67.75
198.404	14.51
198.623	100.52
198.842	-55.12
199.062	51.37
199.281	86.19
199.5	8.36
199.719	45.23
199.938	49.32
200.157	108.71
200.376	37.03
200.595	30.89
200.814	14.51
201.033	59.56
201.252	67.75
201.471	18.6
201.69	45.23
201.909	32.94
202.128	41.13
202.347	30.89
202.566	37.03
202.785	80.04
203.004	-5.97
203.223	135.34
203.442	2.22
203.661	4.27
203.879	20.65
204.098	53.42
204.317	22.7
204.536	51.37
204.755	55.47
204.974	61.61
205.193	-5.97
205.411	116.9
205.63	75.95
205.849	16.55
206.068	12.46
206.287	69.8
206.505	20.65
206.724	37.03
206.943	-14.17
207.162	34.99
207.381	-28.5
207.599	-5.97
207.818	-8.02
208.037	-12.12
208.255	32.94
208.474	-8.02
208.693	34.99
208.911	45.23
209.13	8.36
209.349	45.23
209.567	37.03
209.786	94.38
210.005	110.76
210.223	53.42
210.442	10.41
210.661	-30.55
210.879	51.37
211.098	-30.55
211.316	28.84
211.535	34.99
211.753	22.7
211.972	51.37
212.191	-22.36
212.409	84.14
212.628	61.61
212.846	-53.08
213.065	71.85
213.283	18.6
213.502	57.51
213.72	67.75
213.938	47.27
214.157	39.08
214.375	67.75
214.594	34.99
214.812	45.23
215.031	-16.21
215.249	-14.17
215.467	6.31
215.686	94.38
215.904	-14.17
216.122	0.17
216.341	84.14
216.559	30.89
216.778	55.47
216.996	-5.97
217.214	55.47
217.432	51.37
217.651	6.31
217.869	43.18
218.087	18.6
218.306	24.75
218.524	-1.88
218.742	-38.74
218.96	86.19
219.179	-1.88
219.397	0.17
219.615	92.33
219.833	-12.12
220.051	4.27
220.27	75.95
220.488	108.71
220.706	77.99
220.924	41.13
221.142	18.6
221.36	43.18
221.578	61.61
221.796	51.37
222.015	47.27
222.233	67.75
222.451	59.56
222.669	2.22
222.887	67.75
223.105	47.27
223.323	104.62
223.541	-36.69
223.759	0.17
223.977	57.51
224.195	166.06
224.413	71.85
224.631	37.03
224.849	26.79
225.067	92.33
225.285	57.51
225.503	-5.97
225.721	-14.17
225.939	2.22
226.157	71.85
226.375	135.34
226.592	-22.36
226.81	59.56
227.028	53.42
227.246	86.19
227.464	67.75
227.682	118.95
227.9	63.66
228.117	-22.36
228.335	-38.74
228.553	53.42
228.771	26.79
228.989	80.04
229.206	39.08
229.424	-10.07
229.642	-5.97
229.86	75.95
230.077	67.75
230.295	22.7
230.513	88.23
230.731	69.8
230.948	43.18
231.166	67.75
231.384	-14.17
231.601	34.99
231.819	59.56
232.037	-5.97
232.254	-3.93
232.472	18.6
232.689	14.51
232.907	22.7
233.125	-3.93
233.342	51.37
233.56	-26.45
233.777	26.79
233.995	65.71
234.213	14.51
234.43	100.52
234.648	16.55
234.865	39.08
235.083	67.75
235.3	53.42
235.518	59.56
235.735	77.99
235.953	96.43
236.17	34.99
236.388	47.27
236.605	55.47
236.822	114.86
237.04	88.23
237.257	-5.97
237.475	18.6
237.692	63.66
237.909	10.41
238.127	53.42
238.344	96.43
238.562	-14.17
238.779	-38.74
238.996	43.18
239.214	-14.17
239.431	59.56
239.648	28.84
239.865	55.47
240.083	106.67
240.3	37.03
240.517	53.42
240.735	6.31
240.952	73.9
241.169	92.33
241.386	14.51
241.603	-22.36
241.821	4.27
242.038	30.89
242.255	2.22
242.472	-34.64
242.689	26.79
242.907	110.76
243.124	26.79
243.341	10.41
243.558	-24.4
243.775	53.42
243.992	-26.45
244.209	20.65
244.426	67.75
244.643	43.18
244.86	18.6
245.078	18.6
245.295	20.65
245.512	51.37
245.729	43.18
245.946	-5.97
246.163	75.95
246.38	-28.5
246.597	39.08
246.814	59.56
247.031	10.41
247.248	32.94
247.464	104.62
247.681	65.71
247.898	61.61
248.115	43.18
248.332	28.84
248.549	26.79
248.766	121
248.983	-1.88
249.2	45.23
249.417	84.14
249.633	39.08
249.85	43.18
250.067	75.95
250.284	69.8
250.501	20.65
250.717	28.84
250.934	125.1
251.151	69.8
251.368	34.99
251.585	88.23
251.801	47.27
252.018	37.03
252.235	18.6
252.451	20.65
252.668	59.56
252.885	30.89
253.102	137.38
253.318	-42.84
253.535	67.75
253.752	49.32
253.968	26.79
254.185	14.51
254.401	28.84
254.618	92.33
254.835	-10.07
255.051	53.42
255.268	67.75
255.484	14.51
255.701	51.37
255.917	45.23
256.134	-24.4
256.351	51.37
256.567	43.18
256.784	-14.17
257	-5.97
257.217	51.37
257.433	59.56
257.65	10.41
257.866	51.37
258.082	34.99
258.299	4.27
258.515	67.75
258.732	30.89
258.948	4.27
259.165	20.65
259.381	26.79
259.597	8.36
259.814	-14.17
260.03	-14.17
260.246	80.04
260.463	67.75
260.679	53.42
260.895	22.7
261.112	2.22
261.328	39.08
261.544	4.27
261.761	84.14
261.977	71.85
262.193	2.22
262.409	2.22
262.626	24.75
262.842	22.7
263.058	59.56
263.274	4.27
263.49	43.18
263.707	20.65
263.923	57.51
264.139	-5.97
264.355	84.14
264.571	26.79
264.787	45.23
265.004	73.9
265.22	26.79
265.436	92.33
265.652	86.19
265.868	43.18
266.084	37.03
266.3	112.81
266.516	39.08
266.732	69.8
266.948	26.79
267.164	45.23
267.38	12.46
267.596	26.79
267.812	100.52
268.028	55.47
268.244	32.94
268.46	34.99
268.676	47.27
268.892	28.84
269.108	30.89
269.324	-26.45
269.54	28.84
269.756	67.75
269.972	-53.08
270.188	24.75
270.403	24.75
270.619	-5.97
270.835	-10.07
271.051	59.56
271.267	43.18
271.483	75.95
271.698	53.42
271.914	47.27
272.13	-12.12
272.346	-5.97
272.562	-12.12
272.777	77.99
272.993	51.37
273.209	71.85
273.425	26.79
273.64	-20.31
273.856	63.66
274.072	67.75
274.287	-22.36
274.503	80.04
274.719	92.33
274.934	12.46
275.15	18.6
275.366	-5.97
275.581	45.23
275.797	57.51
276.012	12.46
276.228	-12.12
276.444	92.33
276.659	22.7
276.875	-38.74
277.09	10.41
277.306	28.84
277.521	75.95
277.737	84.14
277.952	100.52
278.168	37.03
278.383	77.99
278.599	-1.88
278.814	145.58
279.03	22.7
279.245	123.05
279.461	10.41
279.676	108.71
279.892	14.51
280.107	92.33
280.322	-20.31
280.538	100.52
280.753	10.41
280.969	26.79
281.184	67.75
281.399	90.28
281.615	47.27
281.83	86.19
282.045	59.56
282.26	2.22
282.476	45.23
282.691	118.95
282.906	34.99
283.122	59.56
283.337	55.47
283.552	43.18
283.767	34.99
283.983	71.85
284.198	49.32
284.413	30.89
284.628	-30.55
284.843	-3.93
285.058	100.52
285.274	-22.36
285.489	14.51
285.704	47.27
285.919	84.14
286.134	92.33
286.349	94.38
286.564	28.84
286.779	71.85
286.995	24.75
287.21	-3.93
287.425	116.9
287.64	2.22
287.855	55.47
288.07	12.46
288.285	18.6
288.5	77.99
288.715	67.75
288.93	-8.02
289.145	34.99
289.36	135.34
289.575	-22.36
289.79	71.85
290.004	77.99
290.219	80.04
290.434	34.99
290.649	10.41
290.864	59.56
291.079	86.19
291.294	67.75
291.509	8.36
291.724	-34.64
291.938	75.95
292.153	10.41
292.368	32.94
292.583	32.94
292.798	59.56
293.012	65.71
293.227	39.08
293.442	30.89
293.657	26.79
293.871	6.31
294.086	98.47
294.301	61.61
294.516	102.57
294.73	6.31
294.945	37.03
295.16	51.37
295.374	2.22
295.589	16.55
295.804	37.03
296.018	67.75
296.233	67.75
296.447	12.46
296.662	-32.6
296.877	69.8
297.091	61.61
297.306	34.99
297.52	59.56
297.735	80.04
297.949	116.9
298.164	53.42
298.378	16.55
298.593	45.23
298.807	-71.51
299.022	86.19
299.236	102.57
299.451	18.6
299.665	20.65
299.88	45.23
300.094	75.95
300.309	43.18
300.523	63.66
300.737	65.71
300.952	4.27
301.166	41.13
301.381	-12.12
301.595	47.27
301.809	75.95
302.024	-8.02
302.238	-3.93
302.452	96.43
302.667	53.42
302.881	75.95
303.095	67.75
303.309	67.75
303.524	82.09
303.738	82.09
303.952	30.89
304.166	100.52
304.381	2.22
304.595	67.75
304.809	-18.26
305.023	47.27
305.237	51.37
305.452	59.56
305.666	75.95
305.88	57.51
306.094	63.66
306.308	102.57
306.522	73.9
306.736	43.18
306.95	39.08
307.164	94.38
307.379	10.41
307.593	86.19
307.807	84.14
308.021	12.46
308.235	45.23
308.449	-1.88
308.663	18.6
308.877	67.75
309.091	20.65
309.305	43.18
309.519	43.18
309.733	61.61
309.947	-36.69
310.161	30.89
310.374	-3.93
310.588	80.04
310.802	-44.88
311.016	-20.31
311.23	59.56
311.444	12.46
311.658	63.66
311.872	59.56
312.085	53.42
312.299	88.23
312.513	92.33
312.727	43.18
312.941	43.18
313.154	37.03
313.368	63.66
313.582	20.65
313.796	51.37
314.009	-10.07
314.223	141.48
314.437	80.04
314.651	37.03
314.864	67.75
315.078	-5.97
315.292	28.84
315.505	20.65
315.719	108.71
315.933	125.1
316.146	-30.55
316.36	82.09
316.573	59.56
316.787	-5.97
317.001	80.04
317.214	10.41
317.428	12.46
317.641	22.7
317.855	112.81
318.068	92.33
318.282	26.79
318.495	100.52
318.709	96.43
318.922	45.23
319.136	69.8
319.349	77.99
319.563	112.81
319.776	37.03
319.99	61.61
320.203	16.55
320.417	12.46
320.63	108.71
320.843	37.03
321.057	55.47
321.27	-3.93
321.483	88.23
321.697	32.94
321.91	-48.98
322.124	45.23
322.337	77.99
322.55	20.65
322.763	114.86
322.977	88.23
323.19	104.62
323.403	116.9
323.617	88.23
323.83	67.75
324.043	-1.88
324.256	-20.31
324.469	34.99
324.683	22.7
324.896	32.94
325.109	43.18
325.322	-40.79
325.535	12.46
325.748	0.17
325.962	45.23
326.175	47.27
326.388	55.47
326.601	59.56
326.814	84.14
327.027	43.18
327.24	90.28
327.453	14.51
327.666	26.79
327.879	61.61
328.092	59.56
328.305	51.37
328.518	100.52
328.731	84.14
328.944	61.61
329.157	28.84
329.37	4.27
329.583	37.03
329.796	71.85
330.009	18.6
330.222	-1.88
330.435	82.09
330.648	34.99
330.861	53.42
331.073	10.41
331.286	-14.17
331.499	16.55
331.712	53.42
331.925	32.94
332.138	59.56
332.35	108.71
332.563	34.99
332.776	137.38
332.989	-8.02
333.202	92.33
333.414	67.75
333.627	71.85
333.84	43.18
334.053	53.42
334.265	20.65
334.478	24.75
334.691	8.36
334.903	51.37
335.116	18.6
335.329	20.65
335.541	28.84
335.754	71.85
335.966	59.56
336.179	59.56
336.392	47.27
336.604	18.6
336.817	6.31
337.029	18.6
337.242	135.34
337.454	137.38
337.667	-20.31
337.88	116.9
338.092	26.79
338.305	92.33
338.517	-65.36
338.729	100.52
338.942	77.99
339.154	-14.17
339.367	22.7
339.579	80.04
339.792	41.13
340.004	55.47
340.217	49.32
340.429	59.56
340.641	100.52
340.854	67.75
341.066	45.23
341.278	10.41
341.491	59.56
341.703	108.71
341.915	-30.55
342.128	34.99
342.34	51.37
342.552	10.41
342.764	59.56
342.977	125.1
343.189	45.23
343.401	43.18
343.613	4.27
343.826	100.52
344.038	59.56
344.25	102.57
344.462	100.52
344.674	67.75
344.886	92.33
345.099	100.52
345.311	116.9
345.523	18.6
345.735	20.65
345.947	92.33
346.159	39.08
346.371	39.08
346.583	-32.6
346.795	80.04
347.007	69.8
347.219	77.99
347.431	37.03
347.643	51.37
347.855	34.99
348.067	57.51
348.279	39.08
348.491	10.41
348.703	98.47
348.915	51.37
349.127	12.46
349.339	141.48
349.551	26.79
349.763	45.23
349.975	139.43
350.187	149.67
350.399	47.27
350.61	75.95
350.822	47.27
351.034	92.33
351.246	96.43
351.458	45.23
351.669	51.37
351.881	59.56
352.093	129.19
352.305	34.99
352.517	18.6
352.728	94.38
352.94	55.47
353.152	39.08
353.363	57.51
353.575	51.37
353.787	77.99
353.999	47.27
354.21	92.33
354.422	-14.17
354.633	26.79
354.845	84.14
355.057	61.61
355.268	51.37
355.48	2.22
355.692	51.37
355.903	39.08
356.115	-14.17
356.326	22.7
356.538	75.95
356.749	32.94
356.961	67.75
357.172	20.65
357.384	69.8
357.595	88.23
357.807	16.55
358.018	145.58
358.23	-14.17
358.441	61.61
358.653	92.33
358.864	28.84
359.075	34.99
359.287	34.99
359.498	67.75
359.709	53.42
359.921	67.75
360.132	22.7
360.344	59.56
360.555	6.31
360.766	88.23
360.977	80.04
361.189	77.99
361.4	67.75
361.611	84.14
361.823	80.04
362.034	84.14
362.245	4.27
362.456	45.23
362.667	59.56
362.879	45.23
363.09	47.27
363.301	14.51
363.512	63.66
363.723	116.9
363.935	63.66
364.146	65.71
364.357	108.71
364.568	34.99
364.779	18.6
364.99	94.38
365.201	-1.88
365.412	59.56
365.623	43.18
365.834	67.75
366.045	106.67
366.256	133.29
366.467	73.9
366.678	37.03
366.889	26.79
367.1	59.56
367.311	-16.21
367.522	55.47
367.733	43.18
367.944	86.19
368.155	26.79
368.366	67.75
368.577	20.65
368.788	92.33
368.999	39.08
369.209	39.08
369.42	14.51
369.631	116.9
369.842	92.33
370.053	10.41
370.264	67.75
370.474	34.99
370.685	67.75
370.896	61.61
371.107	34.99
371.317	67.75
371.528	28.84
371.739	182.44
371.95	18.6
372.16	67.75
372.371	53.42
372.582	26.79
372.792	73.9
373.003	77.99
373.214	14.51
373.424	22.7
373.635	43.18
373.846	75.95
374.056	92.33
374.267	49.32
374.477	86.19
374.688	30.89
374.898	-5.97
375.109	43.18
375.319	106.67
375.53	53.42
375.74	94.38
375.951	37.03
376.161	67.75
376.372	86.19
376.582	-10.07
376.793	67.75
377.003	57.51
377.214	53.42
377.424	114.86
377.635	106.67
377.845	-20.31
378.055	94.38
378.266	26.79
378.476	92.33
378.686	43.18
378.897	77.99
379.107	182.44
379.317	77.99
379.528	45.23
379.738	159.91
379.948	18.6
380.158	127.14
380.369	-22.36
380.579	55.47
380.789	80.04
380.999	-30.55
381.21	69.8
381.42	98.47
381.63	59.56
381.84	80.04
382.05	39.08
382.261	-1.88
382.471	77.99
382.681	84.14
382.891	30.89
383.101	100.52
383.311	51.37
383.521	12.46
383.731	129.19
383.941	90.28
384.151	-5.97
384.361	51.37
384.571	114.86
384.781	28.84
384.991	96.43
385.201	34.99
385.411	118.95
385.621	92.33
385.831	73.9
386.041	123.05
386.251	47.27
386.461	82.09
386.671	39.08
386.881	65.71
387.091	53.42
387.301	75.95
387.511	14.51
387.72	86.19
387.93	118.95
388.14	51.37
388.35	69.8
388.56	77.99
388.769	80.04
388.979	14.51
389.189	18.6
389.399	24.75
389.609	166.06
389.818	69.8
390.028	92.33
390.238	100.52
390.447	39.08
390.657	100.52
390.867	86.19
391.076	71.85
391.286	59.56
391.496	45.23
391.705	53.42
391.915	34.99
392.125	96.43
392.334	108.71
392.544	34.99
392.753	84.14
392.963	61.61
393.172	77.99
393.382	4.27
393.591	127.14
393.801	45.23
394.01	77.99
394.22	125.1
394.429	39.08
394.639	86.19
394.848	67.75
395.058	59.56
395.267	112.81
395.477	127.14
395.686	61.61
395.895	133.29
396.105	141.48
396.314	186.54
396.524	73.9
396.733	155.82
396.942	159.91
397.152	92.33
397.361	104.62
397.57	84.14
397.78	80.04
397.989	116.9
398.198	116.9
398.407	104.62
398.617	100.52
398.826	116.9
399.035	77.99
399.244	108.71
399.453	86.19
399.663	71.85
399.872	133.29
400.081	102.57
400.29	116.9
400.499	-3.93
400.708	108.71
400.917	49.32
401.127	108.71
401.336	133.29
401.545	196.78
401.754	96.43
401.963	116.9
402.172	157.86
402.381	116.9
402.59	106.67
402.799	133.29
403.008	125.1
403.217	69.8
403.426	102.57
403.635	92.33
403.844	135.34
404.053	108.71
404.262	143.53
404.471	168.1
404.68	102.57
404.888	157.86
405.097	108.71
405.306	102.57
405.515	159.91
405.724	143.53
405.933	209.06
406.142	223.4
406.35	202.92
406.559	170.15
406.768	190.63
406.977	225.45
407.185	219.3
407.394	170.15
407.603	231.59
407.812	243.88
408.02	241.83
408.229	321.7
408.438	227.5
408.646	149.67
408.855	239.78
409.064	280.74
409.272	278.69
409.481	280.74
409.69	272.55
409.898	231.59
410.107	280.74
410.315	333.99
410.524	284.84
410.733	284.84
410.941	338.09
411.15	329.89
411.358	327.85
411.567	424.1
411.775	424.1
411.984	387.24
412.192	469.16
412.401	387.24
412.609	458.92
412.818	612.51
413.026	487.59
413.234	530.59
413.443	411.81
413.651	452.77
413.86	508.07
414.068	600.23
414.276	671.9
414.485	575.65
414.693	571.55
414.901	596.13
415.11	706.72
415.318	577.7
415.526	649.38
415.734	716.96
415.943	698.53
416.151	807.07
416.359	780.45
416.567	757.92
416.776	897.18
416.984	899.23
417.192	979.1
417.4	948.38
417.608	1001.63
417.817	1024.16
418.025	1075.35
418.233	1075.35
418.441	1030.3
418.649	1218.71
418.857	1159.32
419.065	1288.34
419.273	1286.3
419.481	1337.49
419.689	1329.3
419.897	1405.08
420.105	1396.89
420.313	1403.03
420.521	1556.63
420.729	1527.96
420.937	1540.24
421.145	1607.83
421.353	1781.9
421.561	1720.46
421.769	1831.05
421.977	1919.12
422.185	1990.8
422.393	1925.26
422.601	2314.38
422.809	2115.72
423.017	2197.64
423.224	2181.26
423.432	2312.33
423.64	2324.62
423.848	2525.32
424.056	2490.5
424.263	2590.85
424.471	2627.71
424.679	2746.5
424.887	2838.66
425.094	2912.38
425.302	2965.63
425.51	3029.12
425.718	3106.94
425.925	3133.56
426.133	3250.3
426.341	3559.54
426.548	3616.88
426.756	3715.19
426.964	3635.32
427.171	4003.95
427.379	3950.7
427.586	4089.96
427.794	4094.06
428.001	4366.44
428.209	4587.62
428.417	4548.71
428.624	4823.14
428.832	4827.23
429.039	4778.08
429.247	4739.17
429.454	5261.4
429.662	5498.97
429.869	5261.4
430.076	5550.17
430.284	5337.18
430.491	5838.93
430.699	5926.99
430.906	5957.71
431.114	6017.1
431.321	6170.7
431.528	6295.63
431.736	6830.15
431.943	7080
432.15	6944.83
432.358	7071.81
432.565	7319.61
432.772	7260.22
432.979	7639.09
433.187	7890.99
433.394	7960.63
433.601	8380.46
433.808	8288.3
434.016	8310.83
434.223	8810.53
434.43	9244.7
434.637	9191.45
434.844	9480.22
435.052	9932.82
435.259	9666.58
435.466	10096.66
435.673	9795.61
435.88	10498.06
436.087	10913.8
436.294	10993.67
436.501	10573.83
436.708	10635.27
436.915	11307.01
437.122	11882.49
437.329	11720.7
437.537	11819
437.743	12376.05
437.95	12021.75
438.157	12791.78
438.364	13311.97
438.571	13279.2
438.778	13193.19
438.985	14501.84
439.192	13961.17
439.399	14278.61
439.606	14043.09
439.813	14749.64
440.02	15566.78
440.227	15488.96
440.433	15271.87
440.64	15914.94
440.847	15681.47
441.054	15957.94
441.261	17237.92
441.467	16967.59
441.674	17168.29
441.881	17919.9
442.088	17584.03
442.294	17612.7
442.501	17942.42
442.708	18276.24
442.914	19257.22
443.121	20004.73
443.328	19634.05
443.534	20744.05
443.741	20539.25
443.948	19675.01
444.154	21583.71
444.361	21243.75
444.568	21317.48
444.774	21579.62
444.981	21501.79
445.187	22153.05
445.394	23385.93
445.6	22830.93
445.807	25321.26
446.013	23967.55
446.22	24518.45
446.426	25481
446.633	25585.44
446.839	26279.71
447.046	25450.28
447.252	26947.34
447.459	27031.31
447.665	26822.42
447.871	27985.66
448.078	29003.5
448.284	27707.14
448.491	28614.39
448.697	29562.6
448.903	30168.8
449.11	30643.93
449.316	29687.53
449.522	30056.16
449.728	30930.64
449.935	31377.1
450.141	31579.85
450.347	31952.58
450.553	31176.4
450.76	31678.15
450.966	32097.98
451.172	32296.64
451.378	32970.42
451.584	32544.44
451.791	33664.68
451.997	33246.9
452.203	33681.06
452.409	33674.92
452.615	33404.59
452.821	32300.73
453.027	31719.11
453.233	33861.29
453.44	32429.76
453.646	33040.05
453.852	32878.26
454.058	33558.19
454.264	32513.72
454.47	33451.69
454.676	32501.43
454.882	33404.59
455.088	30564.06
455.294	30979.79
455.5	31620.81
455.705	31919.81
455.911	30629.59
456.117	30086.88
456.323	30056.16
456.529	28141.31
456.735	29699.81
456.941	29114.09
457.147	28540.66
457.352	27569.93
457.558	27475.72
457.764	27481.86
457.97	26763.03
458.176	26169.12
458.381	26201.88
458.587	24987.44
458.793	25081.64
458.999	23666.5
459.204	25470.76
459.41	24653.62
459.616	23052.11
459.821	22880.08
460.027	22910.8
460.233	22554.45
460.438	21311.33
460.644	21612.38
460.85	20688.75
461.055	20463.47
461.261	20414.32
461.466	18610.06
461.672	18022.3
461.878	19287.94
462.083	18513.81
462.289	17942.42
462.494	17524.64
462.7	17239.97
462.905	16584.62
463.111	17209.25
463.316	16943.02
463.522	16846.76
463.727	16598.96
463.932	16648.11
464.138	16803.75
464.343	16725.93
464.549	16361.39
464.754	16652.2
464.959	16541.61
465.165	16256.95
465.37	15542.21
465.575	15288.26
465.781	15998.9
465.986	15978.42
466.191	15394.75
466.397	15163.33
466.602	14221.27
466.807	14800.84
467.012	14858.18
467.218	14772.17
467.423	14792.65
467.628	14673.87
467.833	15153.09
468.038	14659.53
468.244	14186.45
468.449	14903.24
468.654	14428.11
468.859	14602.19
469.064	14249.94
469.269	13658.07
469.474	13772.76
469.679	13987.8
469.885	13715.42
470.09	13969.37
470.295	13803.48
470.5	13428.7
470.705	13729.75
470.91	13242.34
471.115	13236.19
471.32	13260.77
471.525	13375.45
471.73	12945.38
471.935	12707.82
472.139	12384.24
472.344	12447.72
472.549	12316.65
472.754	12527.6
472.959	12013.56
473.164	11866.1
473.369	11859.96
473.574	12154.87
473.778	12052.47
473.983	12122.1
474.188	11864.05
474.393	11311.1
474.598	11433.98
474.802	11401.21
475.007	11122.69
475.212	11175.94
475.417	10848.26
475.621	10975.24
475.826	11137.02
476.031	10653.7
476.235	10547.21
476.44	10536.97
476.645	10381.32
476.849	10244.11
477.054	10256.4
477.259	10129.42
477.463	10242.06
477.668	9852.95
477.872	9932.82
478.077	9811.99
478.282	9447.45
478.486	9474.07
478.691	9392.16
478.895	9467.93
479.1	9234.46
479.304	9398.3
479.509	9127.97
479.713	9357.34
479.918	8919.07
480.122	8822.82
480.326	8972.32
480.531	9242.65
480.735	8994.85
480.94	8865.83
481.144	9105.44
481.348	8575.02
481.553	8788
481.757	8726.57
481.961	8601.64
482.166	8986.66
482.37	8628.26
482.574	8491.05
482.778	8697.89
482.983	8816.68
483.187	8583.21
483.391	8747.05
483.595	8693.8
483.8	8480.81
484.004	8708.13
484.208	8730.66
484.412	8540.2
484.616	8521.77
484.821	8607.78
485.025	8507.43
485.229	8673.32
485.433	8691.75
485.637	8560.68
485.841	8439.85
486.045	8677.41
486.249	8646.69
486.453	8656.93
486.657	8407.08
486.861	8480.81
487.065	8464.43
487.269	8568.87
487.473	8400.94
487.677	8519.72
487.881	8773.67
488.085	8695.85
488.289	8630.31
488.493	8509.48
488.697	8759.33
488.901	8581.16
489.105	8669.22
489.309	8661.03
489.512	8667.17
489.716	8646.69
489.92	8869.92
490.124	8570.92
490.328	8792.1
490.531	8777.76
490.735	8697.89
490.939	8892.45
491.143	8661.03
491.346	8837.16
491.55	9242.65
491.754	8898.59
491.958	9121.82
492.161	8910.88
492.365	9087.01
492.569	8931.36
492.772	9115.68
492.976	9175.07
493.18	9058.34
493.383	9281.57
493.587	9289.76
493.79	9381.92
493.994	9355.29
494.197	9398.3
494.401	9480.22
494.605	9543.71
494.808	9596.95
495.012	9785.37
495.215	9750.55
495.419	9791.51
495.622	9654.3
495.825	9732.12
496.029	9908.24
496.232	10166.29
496.436	10082.32
496.639	10319.89
496.843	10127.38
497.046	10536.97
497.249	10514.44
497.453	10665.99
497.656	10620.94
497.859	10840.07
498.063	11022.34
498.266	11032.58
498.469	11122.69
498.673	11245.57
498.876	11601.91
499.079	11479.04
499.282	11673.59
499.485	11859.96
499.689	11517.95
499.892	11999.22
500.095	12126.19
500.298	12234.74
500.501	12212.21
500.705	12586.99
500.908	12693.48
501.111	12593.13
501.314	12804.07
501.517	13117.41
501.72	13146.08
501.923	13217.76
502.126	13453.28
502.329	13576.16
502.532	13649.88
502.735	13633.5
502.938	14147.54
503.141	14008.28
503.344	14411.73
503.547	14413.77
503.75	14632.91
503.953	14806.98
504.156	14938.05
504.359	15036.36
504.562	15149
504.765	15382.46
504.968	15695.8
505.17	15679.42
505.373	15654.84
505.576	16113.59
505.779	16226.23
505.982	16312.24
506.185	16359.35
506.387	16533.42
506.59	16830.38
506.793	17172.39
506.996	17254.31
507.198	17553.31
507.401	17477.54
507.604	17557.41
507.807	18085.78
508.009	18110.36
508.212	18093.97
508.415	18487.18
508.617	18872.2
508.82	18853.77
509.022	18761.61
509.225	19289.99
509.428	19210.12
509.63	19431.3
509.833	19638.14
510.035	19982.2
510.238	19992.44
510.44	20211.57
510.643	20469.62
510.845	20641.65
511.048	20557.68
511.25	21020.52
511.453	20975.47
511.655	21688.16
511.858	21626.72
512.06	21581.67
512.262	22120.28
512.465	22077.27
512.667	22210.39
512.87	22419.28
513.072	22560.59
513.274	22970.19
513.477	23406.41
513.679	23535.43
513.881	23500.61
514.084	23828.29
514.286	24035.13
514.488	24346.42
514.69	24876.85
514.893	24606.52
515.095	25018.16
515.297	25083.69
515.499	25161.51
515.701	25513.77
515.904	25624.36
516.106	26119.96
516.308	26404.63
516.51	26406.68
516.712	26361.62
516.914	26988.3
517.116	27322.12
517.318	27322.12
517.52	27475.72
517.722	27639.56
517.925	27803.39
518.127	28550.9
518.329	28823.28
518.531	28296.95
518.733	28757.75
518.935	28962.54
519.136	29089.52
519.338	29404.91
519.54	29716.2
519.742	29908.71
519.944	30260.96
520.146	30688.98
520.348	30641.88
520.55	30596.82
520.752	31282.89
520.954	31434.44
521.155	31139.54
521.357	31954.63
521.559	31913.67
521.761	32177.86
521.963	32229.05
522.164	32394.94
522.366	32345.79
522.568	32882.36
522.77	33081.01
522.971	33765.03
523.173	33365.68
523.375	33437.36
523.576	33617.58
523.778	33541.8
523.98	34643.61
524.181	34297.5
524.383	34659.99
524.584	34774.68
524.786	35010.2
524.988	34555.55
525.189	35014.29
525.391	35305.1
525.592	35440.27
525.794	35427.98
525.995	35733.13
526.197	35753.61
526.398	36249.22
526.6	36230.79
526.801	36279.94
527.003	36423.29
527.204	36441.73
527.406	36572.8
527.607	36884.09
527.808	37084.79
528.01	36390.53
528.211	36927.1
528.412	37379.7
528.614	37525.1
528.815	37457.52
529.016	37803.63
529.218	37334.64
529.419	37592.69
529.62	37416.56
529.822	37686.89
530.023	37744.23
530.224	37707.37
530.425	37445.23
530.626	37805.67
530.828	37316.21
531.029	38288.99
531.23	37533.29
531.431	37682.8
531.632	37813.87
531.833	38501.98
532.035	38245.99
532.236	38409.82
532.437	38411.87
532.638	38278.75
532.839	38338.15
533.04	38418.02
533.241	37873.26
533.442	38645.34
533.643	38614.62
533.844	38569.57
534.045	38905.43
534.246	38362.72
534.447	38940.25
534.648	38532.7
534.849	38555.23
535.05	38590.05
535.251	38772.32
535.451	38346.34
535.652	39028.31
535.853	38643.29
536.054	38989.4
536.255	38966.87
536.456	37949.03
536.657	39073.37
536.857	38581.85
537.058	38272.61
537.259	38794.84
537.46	38676.06
537.66	38217.32
537.861	38776.41
538.062	38217.32
538.263	38952.54
538.463	38532.7
538.664	38622.81
538.865	38753.88
539.065	38807.13
539.266	38174.31
539.466	38475.36
539.667	38110.82
539.868	38731.36
540.068	38442.59
540.269	38399.58
540.469	38569.57
540.67	38291.04
540.87	38495.84
541.071	38329.95
541.271	38815.32
541.472	38489.7
541.672	38149.73
541.873	37953.13
542.073	37656.17
542.274	38452.83
542.474	38268.51
542.675	37957.22
542.875	38917.72
543.075	38348.39
543.276	37705.32
543.476	38190.69
543.676	37766.76
543.877	38469.22
544.077	37959.27
544.277	38098.53
544.478	37914.22
544.678	38231.65
544.878	37699.18
545.078	38383.2
545.279	38299.23
545.479	38319.71
545.679	38293.09
545.879	37774.95
546.079	38100.58
546.28	37994.09
546.48	37963.37
546.68	38360.67
546.88	37969.51
547.08	38485.6
547.28	37850.73
547.48	38049.38
547.68	37690.99
547.88	37860.97
548.081	38024.81
548.281	37961.32
548.481	37516.91
548.681	38104.68
548.881	37895.78
549.081	38104.68
549.28	37475.95
549.48	38123.11
549.68	37963.37
549.88	38581.85
550.08	37854.83
550.28	37850.73
550.48	37713.52
550.68	38039.14
550.88	37729.9
551.08	37428.85
551.279	37934.7
551.479	37527.15
551.679	37899.88
551.879	37594.73
552.079	37637.74
552.278	37234.29
552.478	37568.11
552.678	37777
552.878	37762.67
553.077	37566.06
553.277	37326.45
553.477	37949.03
553.676	37316.21
553.876	37281.39
554.076	37250.67
554.275	37389.94
554.475	37043.83
554.674	37604.97
554.874	37170.8
555.074	37586.54
555.273	37453.42
555.473	37486.19
555.672	37377.65
555.872	37172.85
556.071	37185.14
556.271	37797.48
556.47	37086.84
556.67	36959.86
556.869	36836.98
557.068	36994.68
557.268	36744.83
557.467	36879.99
557.667	36841.08
557.866	36732.54
558.065	36640.38
558.265	36191.87
558.464	36589.18
558.663	37291.63
558.863	36961.91
559.062	37095.03
559.261	36132.48
559.461	36904.57
559.66	36314.75
559.859	36408.96
560.058	36150.92
560.258	36617.85
560.457	35997.32
560.656	35948.17
560.855	36087.43
561.054	36406.91
561.253	36181.63
561.453	35800.71
561.652	36152.96
561.851	35819.14
562.05	36155.01
562.249	35739.27
562.448	35890.82
562.647	35933.83
562.846	35612.3
563.045	35509.9
563.244	35532.43
563.443	35829.38
563.642	35032.72
563.841	35493.52
564.04	35284.62
564.239	35980.93
564.438	35116.69
564.637	35284.62
564.836	35694.22
565.035	34807.45
565.234	35128.98
565.432	35145.36
565.631	34582.17
565.83	34803.35
566.029	34322.08
566.228	34825.88
566.427	34852.5
566.625	34217.63
566.824	34414.24
567.023	34432.67
567.222	33846.95
567.42	34504.35
567.619	34242.21
567.818	34137.76
568.016	34072.23
568.215	34104.99
568.414	34004.64
568.612	34256.54
568.811	33701.54
569.01	33963.68
569.208	33461.93
569.407	33461.93
569.605	33134.26
569.804	33644.2
570.002	33416.88
570.201	33601.19
570.4	32995
570.598	32974.52
570.797	33070.77
570.995	33164.98
571.193	32775.86
571.392	33218.22
571.59	32558.78
571.789	32521.91
571.987	32693.94
572.186	32945.84
572.384	32599.74
572.582	32480.96
572.781	32687.8
572.979	32030.4
573.177	32472.76
573.376	32534.2
573.574	31639.24
573.772	32171.71
573.971	32130.75
574.169	31491.79
574.367	31731.4
574.565	31538.89
574.763	31774.41
574.962	31774.41
575.16	31200.97
575.358	31479.5
575.556	30928.59
575.754	31614.66
575.952	31268.56
576.151	31358.67
576.349	31086.29
576.547	31260.37
576.745	31000.27
576.943	30852.82
577.141	30924.5
577.339	30914.26
577.537	30865.11
577.735	30463.71
577.933	30590.68
578.131	30713.56
578.329	30365.4
578.527	30154.46
578.725	30115.55
578.923	30557.91
579.121	30144.22
579.319	30152.41
579.516	30009.06
579.714	29888.23
579.912	29857.51
580.11	29628.13
580.308	29939.43
580.506	29550.31
580.704	29110
580.901	29740.77
581.099	29439.72
581.297	29306.6
581.495	29380.33
581.692	29179.63
581.89	28999.41
582.088	29265.64
582.285	28811
582.483	29179.63
582.681	29081.33
582.878	28763.89
583.076	28487.42
583.274	28602.1
583.471	28704.5
583.669	28731.12
583.866	28362.49
584.064	28542.71
584.262	28292.86
584.459	28296.95
584.657	28217.08
584.854	28272.38
585.052	27555.59
585.249	28034.81
585.447	27913.98
585.644	27795.2
585.841	27533.06
586.039	27979.52
586.236	27510.53
586.434	27309.83
586.631	27338.51
586.828	27514.63
587.026	27031.31
587.223	27250.44
587.42	27250.44
587.618	27318.03
587.815	26806.03
588.012	26652.44
588.21	26838.8
588.407	26654.48
588.604	26773.27
588.801	26246.94
588.999	26367.77
589.196	26066.72
589.393	26613.52
589.59	26361.62
589.787	26009.37
589.984	26453.78
590.182	25540.39
590.379	26054.43
590.576	25780
590.773	25773.86
590.97	26007.33
591.167	25886.5
591.364	25507.62
591.561	25816.86
591.758	25317.16
591.955	25394.98
592.152	25675.55
592.349	25145.13
592.546	25227.05
592.743	25198.38
592.94	24848.18
593.137	25192.23
593.334	25448.23
593.531	24508.21
593.727	25147.18
593.924	24592.18
594.121	24536.88
594.318	24835.89
594.515	24368.95
594.712	24479.54
594.908	24235.83
595.105	24403.77
595.302	24045.37
595.499	24371
595.696	23865.15
595.892	23732.03
596.089	24127.29
596.286	23996.22
596.482	24051.52
596.679	24010.56
596.876	23662.4
597.072	23418.69
597.269	23828.29
597.466	23447.36
597.662	23385.93
597.859	23439.17
598.055	23367.49
598.252	23447.36
598.448	23371.59
598.645	23199.56
598.841	22558.55
599.038	22783.82
599.234	22878.03
599.431	22531.92
599.627	22611.79
599.824	22943.56
600.02	22390.61
600.217	22439.76
600.413	22525.78
600.609	22341.46
600.806	22187.86
601.002	22658.9
601.198	22167.38
601.395	22163.29
601.591	21911.39
601.787	21917.53
601.984	22007.64
602.18	22103.9
602.376	21835.61
602.572	21722.98
602.769	21753.69
602.965	21606.24
603.161	21464.93
603.357	21217.13
603.553	21147.5
603.75	21583.71
603.946	21231.46
604.142	21378.92
604.338	21165.93
604.534	21051.24
604.73	20946.8
604.926	20985.71
605.122	20930.41
605.318	20852.59
605.514	20969.32
605.71	20508.53
605.906	20629.36
606.102	20881.26
606.298	20772.72
606.494	20246.39
606.69	20428.66
606.886	20617.07
607.082	20463.47
607.278	20402.04
607.474	20055.93
607.67	20346.74
607.866	19996.54
608.062	20213.62
608.257	20193.14
608.453	20389.75
608.649	20121.46
608.845	19781.5
609.041	19771.26
609.236	19965.82
609.432	19619.71
609.628	19754.88
609.824	19695.49
610.019	19748.73
610.215	19609.47
610.411	19654.53
610.606	19771.26
610.802	19543.94
610.998	19496.83
611.193	19543.94
611.389	19238.79
611.584	19320.71
611.78	19292.04
611.976	19222.41
612.171	19449.73
612.367	19392.39
612.562	19138.44
612.758	18857.87
612.953	18718.61
613.149	19316.61
613.344	18831.24
613.539	19226.5
613.735	18892.68
613.93	19079.05
614.126	18909.07
614.321	19191.69
614.517	18747.28
614.712	18710.41
614.907	18778
615.103	18884.49
615.298	18745.23
615.493	18747.28
615.688	18681.74
615.884	18968.46
616.079	18364.31
616.274	18450.32
616.47	18378.64
616.665	18628.49
616.86	18433.94
617.055	18468.75
617.25	18368.4
617.445	18382.74
617.641	18214.8
617.836	18450.32
618.031	17842.07
618.226	18261.91
618.421	18048.92
618.616	18053.02
618.811	17581.98
619.006	17895.32
619.201	17475.49
619.396	17659.81
619.591	17323.94
619.786	17459.1
619.981	17229.73
620.176	17653.66
620.371	17221.54
620.566	17313.7
620.761	17262.5
620.956	17457.06
621.151	17192.87
621.346	16914.34
621.541	16656.3
621.735	16883.63
621.93	16613.29
622.125	16549.81
622.32	16250.8
622.515	16467.89
622.709	16449.46
622.904	16240.56
623.099	16107.44
623.294	16193.46
623.488	16115.64
623.683	16289.71
623.878	15732.67
624.072	15704
624.267	15892.41
624.462	15609.79
624.656	15488.96
624.851	15380.42
625.046	15351.74
625.24	15185.86
625.435	15275.97
625.629	15099.84
625.824	15062.98
626.018	14835.66
626.213	14514.13
626.407	14938.05
626.602	14460.88
626.796	14862.28
626.991	14870.47
627.185	14725.07
627.38	14567.37
627.574	14440.4
627.768	14182.35
627.963	14266.32
628.157	13914.07
628.352	14022.61
628.546	13873.11
628.74	13946.84
628.935	13873.11
629.129	13762.52
629.323	13649.88
629.517	13504.48
629.712	13514.72
629.906	13617.11
630.1	13252.58
630.294	13617.11
630.489	13316.06
630.683	13453.28
630.877	12879.85
631.071	13146.08
631.265	13049.83
631.459	12967.91
631.653	12634.09
631.848	12851.17
632.042	12629.99
632.236	12625.9
632.43	12457.96
632.624	12349.42
632.818	12150.77
633.012	12543.98
633.206	12396.53
633.4	12410.86
633.594	12120.05
633.788	12122.1
633.982	12079.09
634.176	11923.44
634.369	12070.9
634.563	12011.51
634.757	11730.94
634.951	11773.94
635.145	11798.52
635.339	11806.71
635.533	11853.81
635.726	11659.26
635.92	11485.18
636.114	11405.31
636.308	11335.68
636.501	11343.87
636.695	11462.65
636.889	11012.1
637.083	11255.81
637.276	10948.61
637.47	11063.3
637.664	10926.08
637.857	11028.48
638.051	10940.42
638.244	10819.59
638.438	10870.79
638.632	10629.13
638.825	10692.62
639.019	10414.09
639.212	10579.98
639.406	10563.59
639.599	10471.43
639.793	10252.3
639.986	10289.17
640.18	10106.9
640.373	10373.13
640.567	10037.27
640.76	10110.99
640.954	9916.44
641.147	9967.63
641.34	9904.15
641.534	9867.28
641.727	9791.51
641.92	9594.9
642.114	9715.73
642.307	9560.09
642.5	9773.08
642.694	9388.06
642.887	9400.35
643.08	9539.61
643.273	9500.7
643.467	9283.61
643.66	9420.83
643.853	9373.72
644.046	9246.75
644.239	9375.77
644.432	9070.62
644.626	9009.19
644.819	9000.99
645.012	8986.66
645.205	9078.82
645.398	8925.22
645.591	8534.06
645.784	8656.93
645.977	8615.98
646.17	8800.29
646.363	8726.57
646.556	8732.71
646.749	8654.89
646.942	8620.07
647.135	8572.97
647.328	8515.62
647.521	8429.61
647.714	8278.06
647.907	8405.03
648.099	8247.34
648.292	8284.2
648.485	8419.37
648.678	8022.06
648.871	7960.63
649.064	7997.49
649.256	8073.26
649.449	8081.46
649.642	7862.32
649.835	7817.27
650.027	7768.12
650.22	7868.47
650.413	7727.16
650.605	7624.76
650.798	7606.33
650.991	7475.26
651.183	7579.7
651.376	7589.94
651.568	7462.97
651.761	7190.59
651.954	7589.94
652.146	7307.32
652.339	7428.15
652.531	7348.28
652.724	7139.39
652.916	7112.77
653.109	7256.12
653.301	7344.19
653.494	6950.98
653.686	7204.92
653.879	7120.96
654.071	6971.46
654.263	6897.73
654.456	6899.78
654.648	7000.13
654.84	6805.57
655.033	6670.4
655.225	6852.67
655.417	6719.56
655.61	6608.97
655.802	6674.5
655.994	6621.25
656.186	6629.45
656.379	6547.53
656.571	6510.66
656.763	6596.68
656.955	6547.53
657.148	6451.27
657.34	6326.35
657.532	6336.59
657.724	6428.74
657.916	6301.77
658.108	6385.74
658.3	6262.86
658.492	6287.43
658.684	6154.32
658.876	5982.29
659.068	6033.49
659.26	5935.18
659.452	6105.17
659.644	6027.34
659.836	5910.61
660.028	5935.18
660.22	5785.68
660.412	5933.14
660.604	5869.65
660.796	5757.01
660.988	5671
661.18	5566.55
661.372	5679.19
661.563	5621.84
661.755	5552.21
661.947	5773.39
662.139	5548.12
662.331	5490.77
662.522	5445.72
662.714	5523.54
662.906	5433.43
663.097	5443.67
663.289	5408.86
663.481	5511.25
663.673	5371.99
663.864	5197.92
664.056	5347.42
664.247	5181.53
664.439	5173.34
664.631	5122.14
664.822	5261.4
665.014	5298.27
665.205	5255.26
665.397	4980.83
665.588	5159
665.78	5113.95
665.971	4974.69
666.163	5075.04
666.354	4925.54
666.546	4933.73
666.737	4900.96
666.929	4898.91
667.12	4896.86
667.311	4909.15
667.503	4796.51
667.694	4966.49
667.885	4802.66
668.077	4892.77
668.268	4651.11
668.459	4720.74
668.651	4753.51
668.842	4573.28
669.033	4681.83
669.224	4597.86
669.416	4649.06
669.607	4573.28
669.798	4429.93
669.989	4438.12
670.18	4440.17
670.371	4491.37
670.563	4515.94
670.754	4544.61
670.945	4315.24
671.136	4442.21
671.327	4405.35
671.518	4302.95
671.709	4372.58
671.9	4413.54
672.091	4345.96
672.282	4319.34
672.473	4233.32
672.664	4337.77
672.855	4165.74
673.046	4163.69
673.237	4069.48
673.428	4235.37
673.619	4352.1
673.809	4137.07
674	4147.31
674.191	4044.91
674.382	3979.37
674.573	4132.97
674.764	4120.68
674.954	4079.72
675.145	3946.61
675.336	3952.75
675.527	4040.81
675.717	4042.86
675.908	3969.13
676.099	3893.36
676.289	3954.8
676.48	3909.74
676.671	3811.44
676.861	4001.9
677.052	3809.39
677.243	3750
677.433	3922.03
677.624	3897.46
677.814	3778.67
678.005	3641.46
678.195	3762.29
678.386	3758.19
678.576	3750
678.767	3668.08
678.957	3678.32
679.148	3823.73
679.338	3647.6
679.529	3618.93
679.719	3790.96
679.909	3711.09
680.1	3663.99
680.29	3524.72
680.481	3557.49
680.671	3547.25
680.861	3711.09
681.052	3567.73
681.242	3561.59
681.432	3491.96
681.622	3582.07
681.813	3602.55
682.003	3508.34
682.193	3528.82
682.383	3465.33
682.573	3356.79
682.764	3479.67
682.954	3489.91
683.144	3477.62
683.334	3524.72
683.524	3475.57
683.714	3475.57
683.904	3418.23
684.094	3330.17
684.284	3401.85
684.474	3463.29
684.664	3444.85
684.854	3348.6
685.044	3305.59
685.234	3342.46
685.424	3270.78
685.614	3205.24
685.804	3350.65
685.994	3209.34
686.184	3192.95
686.374	3166.33
686.564	3250.3
686.753	3266.68
686.943	3160.19
687.133	3342.46
687.323	3174.52
687.513	3123.32
687.702	3143.8
687.892	3106.94
688.082	3049.6
688.272	3033.21
688.461	3111.04
688.651	3061.88
688.841	3215.48
689.03	3033.21
689.22	2965.63
689.41	3016.83
689.599	2898.05
689.789	2932.86
689.979	3041.4
690.168	2994.3
690.358	2822.27
690.547	2959.49
690.737	2896
690.926	2805.89
691.116	2812.03
691.305	2979.97
691.495	2914.43
691.684	2852.99
691.874	2799.74
692.063	2961.53
692.252	2740.35
692.442	2748.54
692.631	2779.26
692.82	2775.17
693.01	2738.3
693.199	2771.07
693.388	2668.67
693.578	2617.47
693.767	2838.66
693.956	2689.15
694.146	2615.43
694.335	2648.19
694.524	2572.42
694.713	2599.04
694.902	2556.04
695.092	2590.85
695.281	2617.47
695.47	2623.62
695.659	2451.59
695.848	2660.48
696.037	2705.54
696.226	2527.36
696.415	2427.01
696.604	2680.96
696.793	2504.84
696.982	2431.11
697.171	2613.38
697.36	2558.08
697.549	2427.01
697.738	2447.49
697.927	2490.5
698.116	2371.72
698.305	2394.25
698.494	2394.25
698.683	2394.25
698.872	2551.94
699.061	2353.29
699.25	2330.76
699.438	2504.84
699.627	2375.81
699.816	2367.62
700.005	2386.05
700.193	2429.06
700.382	2406.53
700.571	2398.34
700.76	2371.72
700.948	2410.63
701.137	2357.38
701.326	2355.33
701.514	2447.49
701.703	2445.45
701.892	2291.85
702.08	2336.9
702.269	2279.56
702.457	2361.48
702.646	2386.05
702.834	2199.69
703.023	2437.25
703.212	2308.23
703.4	2351.24
703.589	2287.75
703.777	2373.77
703.965	2355.33
704.154	2197.64
704.342	2297.99
704.531	2236.55
704.719	2226.31
704.907	2123.91
705.096	2316.42
705.284	2173.07
705.472	2222.22
705.661	2240.65
705.849	2224.26
706.037	2289.8
706.226	2277.51
706.414	2304.14
706.602	2353.29
706.79	2281.61
706.979	2250.89
707.167	2158.73
707.355	2150.54
707.543	2263.18
707.731	2238.6
707.919	2285.7
708.107	2177.16
708.296	2115.72
708.484	2234.5
708.672	2281.61
708.86	2267.27
709.048	2142.35
709.236	2113.67
709.424	2263.18
709.612	2183.31
709.8	2216.07
709.988	2236.55
710.176	2103.43
710.364	2265.22
710.551	2297.99
710.739	2121.87
710.927	2228.36
711.115	2201.74
711.303	2295.94
711.491	2164.87
711.679	2267.27
711.866	2214.02
712.054	2156.68
712.242	2238.6
712.43	2263.18
712.617	2095.24
712.805	2214.02
712.993	2183.31
713.181	2023.56
713.368	2066.57
713.556	2345.09
713.744	2109.58
713.931	2173.07
714.119	2062.48
714.306	2181.26
714.494	2150.54
714.682	2050.19
714.869	2087.05
715.057	2033.8
715.244	2082.95
715.432	2105.48
715.619	2187.4
715.807	2185.35
715.994	2117.77
716.182	2181.26
716.369	2123.91
716.556	2144.39
716.744	2115.72
716.931	2058.38
717.119	2166.92
717.306	2164.87
717.493	2136.2
717.681	2263.18
717.868	2203.79
718.055	2107.53
718.242	2027.66
718.43	2109.58
718.617	2207.88
718.804	2171.02
718.991	2074.76
719.179	2150.54
719.366	2105.48
719.553	2297.99
719.74	2148.49
719.927	2099.34
720.114	2078.86
720.301	2033.8
720.488	2017.42
720.676	2027.66
720.863	2193.55
721.05	2050.19
721.237	2033.8
721.424	2263.18
721.611	2093.19
721.798	2107.53
721.985	2121.87
722.172	2148.49
722.358	2009.23
722.545	2144.39
722.732	2101.39
722.919	2189.45
723.106	2224.26
723.293	2134.15
723.48	2060.43
723.667	2082.95
723.853	2087.05
724.04	2187.4
724.227	2156.68
724.414	2023.56
724.6	2066.57
724.787	2179.21
724.974	2113.67
725.161	2037.9
725.347	2044.04
725.534	1972.36
725.72	2058.38
725.907	2060.43
726.094	2224.26
726.28	2091.15
726.467	2066.57
726.653	2009.23
726.84	2095.24
727.027	2228.36
727.213	2085
727.4	2201.74
727.586	2109.58
727.773	2074.76
727.959	2099.34
728.145	2080.91
728.332	2103.43
728.518	2105.48
728.705	2091.15
728.891	1917.07
729.077	2160.78
729.264	2162.83
729.45	2003.08
729.636	2082.95
729.823	2115.72
730.009	2132.11
730.195	2017.42
730.382	2046.09
730.568	2107.53
730.754	2058.38
730.94	2054.28
731.126	2156.68
731.313	2099.34
731.499	1986.7
731.685	2060.43
731.871	2156.68
732.057	2052.24
732.243	2027.66
732.429	2042
732.615	2001.04
732.801	2029.71
732.987	2058.38
733.173	2144.39
733.359	2044.04
733.545	2052.24
733.731	2009.23
733.917	2136.2
734.103	2054.28
734.289	2035.85
734.475	2048.14
734.661	2119.82
734.847	2119.82
735.033	2042
735.219	2074.76
735.404	2093.19
735.59	2007.18
735.776	1992.84
735.962	2146.44
736.148	2046.09
736.333	2087.05
736.519	1939.6
736.705	2060.43
736.89	1992.84
737.076	2056.33
737.262	1927.31
737.447	2013.32
737.633	1964.17
737.819	2027.66
738.004	1943.69
738.19	1923.21
738.375	1960.08
738.561	2062.48
738.747	1917.07
738.932	1984.65
739.118	1970.32
739.303	1943.69
739.489	2099.34
739.674	1939.6
739.859	1947.79
740.045	1976.46
740.23	1943.69
740.416	1960.08
740.601	2025.61
740.786	1927.31
740.972	1900.69
741.157	1824.91
741.342	1927.31
741.528	1878.16
741.713	2019.47
741.898	1943.69
742.084	1861.77
742.269	1878.16
742.454	1816.72
742.639	1908.88
742.824	1982.6
743.01	1841.29
743.195	1937.55
743.38	1886.35
743.565	1829.01
743.75	1912.97
743.935	1808.53
744.12	1882.25
744.305	1812.62
744.49	1798.29
744.675	1824.91
744.86	1736.85
745.045	1722.51
745.23	1804.43
745.415	1820.81
745.6	1806.48
745.785	1665.17
745.97	1642.64
746.155	1732.75
746.34	1730.7
746.525	1665.17
746.71	1704.08
746.895	1704.08
747.079	1599.63
747.264	1695.89
747.449	1640.59
747.634	1751.18
747.819	1616.02
748.003	1771.66
748.188	1648.79
748.373	1609.87
748.557	1650.83
748.742	1577.11
748.927	1556.63
749.111	1616.02
749.296	1534.1
749.481	1691.79
749.665	1626.26
749.85	1525.91
750.034	1601.68
750.219	1597.59
750.404	1548.44
750.588	1616.02
750.773	1439.89
750.957	1538.2
751.141	1480.85
751.326	1380.5
751.51	1468.56
751.695	1472.66
751.879	1372.31
752.064	1476.76
752.248	1460.37
752.432	1476.76
752.617	1456.28
752.801	1460.37
752.985	1411.22
753.17	1425.56
753.354	1345.69
753.538	1366.17
753.722	1310.87
753.907	1292.44
754.091	1360.02
754.275	1411.22
754.459	1345.69
754.643	1314.97
754.828	1325.21
755.012	1259.67
755.196	1341.59
755.38	1306.77
755.564	1288.34
755.748	1249.43
755.932	1276.06
756.116	1206.42
756.3	1280.15
756.484	1208.47
756.668	1210.52
756.852	1304.73
757.036	1149.08
757.22	1202.33
757.404	1179.8
757.588	1140.89
757.772	1173.66
757.956	1263.77
758.14	1128.6
758.323	1231
758.507	1255.58
758.691	1132.7
758.875	1194.14
759.059	1149.08
759.242	1108.12
759.426	1151.13
759.61	1181.85
759.794	1063.07
759.977	1065.11
760.161	1214.62
760.345	1056.92
760.528	1120.41
760.712	1083.55
760.895	1026.2
761.079	1018.01
761.263	1034.39
761.446	1132.7
761.63	1093.79
761.813	1007.77
761.997	970.91
762.18	999.58
762.364	1048.73
762.547	954.52
762.731	960.67
762.914	946.33
763.098	944.28
763.281	981.15
763.464	1044.63
763.648	1020.06
763.831	977.05
764.015	938.14
764.198	1007.77
764.381	985.24
764.564	952.48
764.748	1030.3
764.931	995.48
765.114	936.09
765.297	1030.3
765.481	882.85
765.664	1036.44
765.847	927.9
766.03	1018.01
766.213	905.37
766.397	927.9
766.58	915.61
766.763	903.32
766.946	936.09
767.129	856.22
767.312	911.52
767.495	886.94
767.678	907.42
767.861	919.71
768.044	872.61
768.227	913.56
768.41	987.29
768.593	864.41
768.776	905.37
768.959	897.18
769.142	927.9
769.324	897.18
769.507	897.18
769.69	872.61
769.873	927.9
770.056	891.04
770.239	807.07
770.421	841.89
770.604	901.28
770.787	829.6
770.97	839.84
771.152	837.79
771.335	860.32
771.518	850.08
771.7	866.46
771.883	829.6
772.066	839.84
772.248	780.45
772.431	841.89
772.613	780.45
772.796	815.26
772.978	788.64
773.161	919.71
773.343	719.01
773.526	676
773.708	723.1
773.891	716.96
774.073	772.25
774.256	719.01
774.438	854.17
774.621	755.87
774.803	796.83
774.985	790.69
775.168	731.3
775.35	708.77
775.532	757.92
775.715	673.95
775.897	772.25
776.079	706.72
776.261	815.26
776.444	608.42
776.626	665.76
776.808	676
776.99	733.34
777.173	706.72
777.355	694.43
777.537	661.66
777.719	735.39
777.901	684.19
778.083	673.95
778.265	520.35
778.447	657.57
778.629	649.38
778.811	665.76
778.993	624.8
779.175	618.66
779.357	641.18
779.539	635.04
779.721	544.93
779.903	600.23
780.085	567.46
780.267	501.92
780.449	592.03
780.631	596.13
780.812	606.37
780.994	587.94
781.176	577.7
781.358	620.71
781.54	602.27
781.721	618.66
781.903	626.85
782.085	635.04
782.267	585.89
782.448	514.21
782.63	485.54
782.812	614.56
782.993	551.07
783.175	471.2
783.357	442.53
783.538	463.01
783.72	585.89
783.901	452.77
784.083	544.93
784.264	477.35
784.446	450.72
784.627	452.77
784.809	510.11
784.99	452.77
785.172	395.43
785.353	528.55
785.535	516.26
785.716	528.55
785.897	383.14
786.079	452.77
786.26	467.11
786.441	463.01
786.623	428.2
786.804	428.2
786.985	436.39
787.167	407.72
787.348	438.44
787.529	407.72
787.71	426.15
787.891	485.54
788.073	344.23
788.254	420
788.435	399.52
788.616	473.25
788.797	331.94
788.978	409.76
789.159	356.52
789.34	458.92
789.522	303.27
789.703	350.37
789.884	387.24
790.065	387.24
790.246	397.48
790.427	460.96
790.607	411.81
790.788	374.95
790.969	364.71
791.15	403.62
791.331	346.28
791.512	319.65
791.693	370.85
791.874	391.33
792.054	413.86
792.235	409.76
792.416	383.14
792.597	323.75
792.778	356.52
792.958	321.7
793.139	362.66
793.32	354.47
793.5	303.27
793.681	409.76
793.862	258.21
794.042	297.13
794.223	338.09
794.404	354.47
794.584	262.31
794.765	366.76
794.945	299.17
795.126	356.52
795.306	276.65
795.487	331.94
795.667	348.33
795.848	317.61
796.028	338.09
796.209	270.5
796.389	260.26
796.57	315.56
796.75	280.74
796.93	258.21
797.111	276.65
797.291	338.09
797.471	207.02
797.652	321.7
797.832	282.79
798.012	235.69
798.192	305.32
798.373	272.55
798.553	254.12
798.733	299.17
798.913	215.21
799.093	321.7
799.274	272.55
799.454	268.45
799.634	286.89
799.814	258.21
799.994	305.32
800.174	338.09
800.354	319.65
800.534	174.25
800.714	204.97
800.894	164.01
801.074	252.07
801.254	241.83
801.434	352.42
801.614	258.21
801.794	317.61
801.974	798.88
802.154	231.59
802.334	274.6
802.514	217.26
802.693	223.4
802.873	209.06
803.053	327.85
803.233	233.64
803.413	258.21
803.592	192.68
803.772	202.92
803.952	239.78
804.131	209.06
804.311	256.17
804.491	229.54
804.67	202.92
804.85	192.68
805.03	202.92
805.209	202.92
805.389	178.34
805.568	184.49
805.748	200.87
805.928	313.51
806.107	239.78
806.287	143.53
806.466	149.67
806.646	247.97
806.825	67.75
807.004	237.74
807.184	243.88
807.363	202.92
807.543	243.88
807.722	262.31
807.901	225.45
808.081	202.92
808.26	104.62
808.439	137.38
808.619	252.07
808.798	135.34
808.977	192.68
809.156	196.78
809.336	217.26
809.515	192.68
809.694	182.44
809.873	209.06
810.052	108.71
810.231	239.78
810.411	161.96
810.59	157.86
810.769	190.63
810.948	166.06
811.127	170.15
811.306	200.87
811.485	82.09
811.664	211.11
811.843	161.96
812.022	182.44
812.201	96.43
812.38	127.14
812.559	170.15
812.737	211.11
812.916	155.82
813.095	121
813.274	155.82
813.453	139.43
813.632	231.59
813.811	190.63
813.989	63.66
814.168	227.5
814.347	157.86
814.526	153.77
814.704	170.15
814.883	200.87
815.062	168.1
815.24	231.59
815.419	131.24
815.598	129.19
815.776	159.91
815.955	157.86
816.133	-14.17
816.312	157.86
816.49	151.72
816.669	151.72
816.847	88.23
817.026	100.52
817.204	133.29
817.383	157.86
817.561	166.06
817.74	182.44
817.918	161.96
818.097	110.76
818.275	149.67
818.453	194.73
818.632	108.71
818.81	143.53
818.988	80.04
819.167	125.1
819.345	151.72
819.523	121
819.701	73.9
819.879	157.86
820.058	125.1
820.236	125.1
820.414	174.25
820.592	157.86
820.77	182.44
820.948	98.47
821.127	63.66
821.305	137.38
821.483	80.04
821.661	202.92
821.839	184.49
822.017	102.57
822.195	82.09
822.373	135.34
822.551	67.75
822.729	200.87
822.907	88.23
823.085	98.47
823.262	100.52
823.44	77.99
823.618	102.57
823.796	133.29
823.974	34.99
824.152	123.05
824.329	51.37
824.507	90.28
824.685	211.11
824.863	182.44
825.04	116.9
825.218	98.47
825.396	75.95
825.574	149.67
825.751	141.48
825.929	159.91
826.107	71.85
826.284	92.33
826.462	75.95
826.639	43.18
826.817	84.14
826.994	51.37
827.172	61.61
827.349	200.87
827.527	121
827.704	149.67
827.882	106.67
828.059	161.96
828.237	116.9
828.414	110.76
828.591	-20.31
828.769	84.14
828.946	92.33
829.124	149.67
829.301	164.01
829.478	75.95
829.655	108.71
829.833	80.04
830.01	0.17
830.187	88.23
830.364	61.61
830.542	174.25
830.719	153.77
830.896	61.61
831.073	67.75
831.25	182.44
831.427	92.33
831.604	116.9
831.782	75.95
831.959	153.77
832.136	88.23
832.313	116.9
832.49	92.33
832.667	153.77
832.844	22.7
833.021	127.14
833.198	2.22
833.374	166.06
833.551	104.62
833.728	77.99
833.905	69.8
834.082	84.14
834.259	59.56
834.436	141.48
834.612	88.23
834.789	100.52
834.966	18.6
835.143	73.9
835.319	43.18
835.496	174.25
835.673	96.43
835.85	100.52
836.026	45.23
836.203	71.85
836.38	102.57
836.556	57.51
836.733	69.8
836.909	71.85
837.086	39.08
837.262	67.75
837.439	67.75
837.616	69.8
837.792	75.95
837.968	100.52
838.145	39.08
838.321	34.99
838.498	102.57
838.674	20.65
838.851	26.79
839.027	34.99
839.203	94.38
839.38	77.99
839.556	71.85
839.732	45.23
839.909	22.7
840.085	149.67
840.261	59.56
840.437	26.79
840.614	102.57
840.79	73.9
840.966	84.14
841.142	100.52
841.318	10.41
841.494	30.89
841.671	94.38
841.847	59.56
842.023	55.47
842.199	84.14
842.375	75.95
842.551	4.27
842.727	75.95
842.903	100.52
843.079	55.47
843.255	100.52
843.431	2.22
843.607	59.56
843.783	43.18
843.959	67.75
844.134	20.65
844.31	55.47
844.486	59.56
844.662	30.89
844.838	26.79
845.013	102.57
845.189	110.76
845.365	51.37
845.541	73.9
845.716	22.7
845.892	59.56
846.068	57.51
846.244	14.51
846.419	86.19
846.595	47.27
846.77	53.42
846.946	84.14
847.122	51.37
847.297	67.75
847.473	176.3
847.648	-30.55
847.824	16.55
847.999	26.79
848.175	20.65
848.35	34.99
848.526	71.85
848.701	90.28
848.876	28.84
849.052	92.33
849.227	34.99
849.403	75.95
849.578	51.37
849.753	51.37
849.929	51.37
850.104	-5.97
850.279	22.7
850.454	145.58
850.63	69.8
850.805	39.08
850.98	2.22
851.155	16.55
851.33	123.05
851.505	6.31
851.681	166.06
851.856	-40.79
852.031	71.85
852.206	12.46
852.381	-42.84
852.556	100.52
852.731	77.99
852.906	135.34
853.081	53.42
853.256	84.14
853.431	59.56
853.606	24.75
853.781	51.37
853.956	-5.97
854.131	47.27
854.305	18.6
854.48	65.71
854.655	-16.21
854.83	96.43
855.005	51.37
855.18	67.75
855.354	51.37
855.529	125.1
855.704	45.23
855.879	73.9
856.053	39.08
856.228	12.46
856.403	-5.97
856.577	53.42
856.752	-59.22
856.926	-1.88
857.101	20.65
857.276	51.37
857.45	37.03
857.625	80.04
857.799	-22.36
857.974	47.27
858.148	-30.55
858.323	92.33
858.497	57.51
858.672	2.22
858.846	-48.98
859.02	-3.93
859.195	-1.88
859.369	51.37
859.543	71.85
859.718	67.75
859.892	-5.97
860.066	2.22
860.241	67.75
860.415	43.18
860.589	-34.64
860.763	34.99
860.938	69.8
861.112	43.18
861.286	90.28
861.46	53.42
861.634	26.79
861.808	125.1
861.982	2.22
862.157	4.27
862.331	53.42
862.505	47.27
862.679	18.6
862.853	75.95
863.027	92.33
863.201	67.75
863.375	4.27
863.549	-1.88
863.722	22.7
863.896	26.79
864.07	108.71
864.244	26.79
864.418	0.17
864.592	10.41
864.766	-30.55
864.939	-28.5
865.113	-12.12
865.287	34.99
865.461	-22.36
865.634	22.7
865.808	4.27
865.982	6.31
866.156	6.31
866.329	37.03
866.503	75.95
866.676	67.75
866.85	4.27
867.024	61.61
867.197	61.61
867.371	20.65
867.544	18.6
867.718	45.23
867.891	26.79
868.065	-48.98
868.238	-20.31
868.412	8.36
868.585	10.41
868.759	24.75
868.932	43.18
869.105	8.36
869.279	45.23
869.452	108.71
869.625	-3.93
869.799	6.31
869.972	43.18
870.145	37.03
870.319	-1.88
870.492	39.08
870.665	55.47
870.838	6.31
871.011	30.89
871.185	-20.31
871.358	16.55
871.531	34.99
871.704	-10.07
871.877	22.7
872.05	-26.45
872.223	94.38
872.396	26.79
872.569	-10.07
872.742	0.17
872.915	75.95
873.088	2.22
873.261	-3.93
873.434	-44.88
873.607	67.75
873.78	75.95
873.953	-46.93
874.126	2.22
874.299	26.79
874.471	20.65
874.644	61.61
874.817	80.04
874.99	137.38
875.163	28.84
875.335	37.03
875.508	-18.26
875.681	10.41
875.853	-44.88
876.026	61.61
876.199	77.99
876.371	28.84
876.544	-24.4
876.717	-36.69
876.889	47.27
877.062	-30.55
877.234	121
877.407	-67.41
877.579	75.95
877.752	67.75
877.924	84.14
878.097	20.65
878.269	51.37
878.442	51.37
878.614	37.03
878.786	96.43
878.959	-46.93
879.131	22.7
879.303	-30.55
879.476	43.18
879.648	82.09
879.82	-14.17
879.993	-16.21
880.165	12.46
880.337	139.43
880.509	57.51
880.681	-24.4
880.854	-18.26
881.026	71.85
881.198	75.95
881.37	14.51
881.542	-22.36
881.714	41.13
881.886	-53.08
882.058	41.13
882.23	24.75
882.402	2.22
882.574	-20.31
882.746	10.41
882.918	110.76
883.09	137.38
883.262	53.42
883.434	6.31
883.606	-44.88
883.778	-28.5
883.95	28.84
884.122	20.65
884.293	34.99
884.465	2.22
884.637	51.37
884.809	34.99
884.98	26.79
885.152	26.79
885.324	75.95
885.496	47.27
885.667	43.18
885.839	26.79
886.011	45.23
886.182	-55.12
886.354	28.84
886.525	80.04
886.697	20.65
886.869	2.22
887.04	51.37
887.212	2.22
887.383	108.71
887.555	47.27
887.726	53.42
887.897	69.8
888.069	-24.4
888.24	39.08
888.412	18.6
888.583	-18.26
888.754	34.99
888.926	4.27
889.097	34.99
889.268	28.84
889.44	43.18
889.611	75.95
889.782	-38.74
889.953	51.37
890.125	6.31
890.296	18.6
890.467	-42.84
890.638	18.6
890.809	39.08
890.98	34.99
891.151	26.79
891.323	6.31
891.494	67.75
891.665	4.27
891.836	-61.27
892.007	45.23
892.178	20.65
892.349	-26.45
892.52	-5.97
892.691	32.94
892.862	2.22
893.032	-10.07
893.203	-12.12
893.374	-5.97
893.545	-22.36
893.716	6.31
893.887	59.56
894.057	22.7
894.228	20.65
894.399	49.32
894.57	-28.5
894.74	14.51
894.911	69.8
895.082	-48.98
895.253	-14.17
895.423	53.42
895.594	69.8
895.764	20.65
895.935	-18.26
896.106	47.27
896.276	82.09
896.447	20.65
896.617	26.79
896.788	14.51
896.958	-10.07
897.129	-28.5
897.299	-3.93
897.47	51.37
897.64	43.18
897.81	43.18
897.981	47.27
898.151	-18.26
898.322	63.66
898.492	63.66
898.662	-159.57
898.832	10.41
899.003	-28.5
899.173	8.36
899.343	-24.4
899.513	-18.26
