Data from USB4F104151__62__14-43-14-619.txt Node

Date: Thu Mar 13 14:43:14 EDT 2025
User: louis
Spectrometer: USB4F10415
Trigger mode: 4
Integration Time (sec): 2.000000E-2
Scans to average: 1
Electric dark correction enabled: true
Nonlinearity correction enabled: false
Boxcar width: 0
XAxis mode: Wavelengths
Number of Pixels in Spectrum: 3648
>>>>>Begin Spectral Data<<<<<
178.204	-193.19
178.424	-193.19
178.644	-193.19
178.864	-176.81
179.084	-53.93
179.304	-19.11
179.524	21.85
179.744	42.32
179.964	-19.11
180.184	1.37
180.404	-37.55
180.624	-21.16
180.844	-4.78
181.064	-12.97
181.283	44.37
181.503	-27.31
181.723	32.08
181.943	-39.59
182.163	79.19
182.383	9.56
182.602	13.65
182.822	15.7
183.042	-12.97
183.262	-15.02
183.482	36.18
183.701	-8.87
183.921	-4.78
184.141	9.56
184.361	21.85
184.58	9.56
184.8	48.47
185.02	-41.64
185.239	71
185.459	13.65
185.679	11.61
185.898	-80.55
186.118	52.56
186.338	95.57
186.557	7.51
186.777	38.23
186.997	11.61
187.216	30.04
187.436	-8.87
187.655	73.04
187.875	52.56
188.095	-6.83
188.314	17.75
188.534	21.85
188.753	5.46
188.973	27.99
189.192	85.33
189.412	-29.35
189.631	36.18
189.851	-4.78
190.07	95.57
190.29	48.47
190.509	3.41
190.729	-72.36
190.948	44.37
191.168	136.53
191.387	-12.97
191.607	-37.55
191.826	7.51
192.045	-21.16
192.265	62.8
192.484	-12.97
192.704	38.23
192.923	-12.97
193.142	44.37
193.362	36.18
193.581	54.61
193.8	-29.35
194.02	38.23
194.239	54.61
194.458	-0.68
194.678	1.37
194.897	-6.83
195.116	-0.68
195.335	-12.97
195.555	-29.35
195.774	-68.27
195.993	-8.87
196.212	60.76
196.432	46.42
196.651	1.37
196.87	19.8
197.089	99.67
197.308	101.72
197.528	140.63
197.747	-19.11
197.966	21.85
198.185	34.13
198.404	19.8
198.623	68.95
198.842	122.2
199.062	-74.41
199.281	-12.97
199.5	-15.02
199.719	27.99
199.938	21.85
200.157	-19.11
200.376	75.09
200.595	122.2
200.814	46.42
201.033	-27.31
201.252	3.41
201.471	-43.69
201.69	36.18
201.909	13.65
202.128	-27.31
202.347	13.65
202.566	-70.31
202.785	-31.4
203.004	60.76
203.223	81.24
203.442	52.56
203.661	-58.03
203.879	19.8
204.098	75.09
204.317	-37.55
204.536	27.99
204.755	-29.35
204.974	-2.73
205.193	-29.35
205.411	-78.51
205.63	-12.97
205.849	15.7
206.068	52.56
206.287	-4.78
206.505	68.95
206.724	40.28
206.943	19.8
207.162	44.37
207.381	60.76
207.599	-37.55
207.818	-86.7
208.037	-21.16
208.255	71
208.474	-21.16
208.693	56.66
208.911	52.56
209.13	-8.87
209.349	-17.07
209.567	-37.55
209.786	36.18
210.005	34.13
210.223	27.99
210.442	-70.31
210.661	93.52
210.879	-43.69
211.098	-12.97
211.316	-2.73
211.535	54.61
211.753	-33.45
211.972	120.15
212.191	-68.27
212.409	-12.97
212.628	32.08
212.846	21.85
213.065	95.57
213.283	1.37
213.502	21.85
213.72	-12.97
213.938	-62.12
214.157	-4.78
214.375	-2.73
214.594	-23.21
214.812	93.52
215.031	11.61
215.249	27.99
215.467	-49.83
215.686	-19.11
215.904	32.08
216.122	-2.73
216.341	-8.87
216.559	-10.92
216.778	36.18
216.996	11.61
217.214	21.85
217.432	-66.22
217.651	21.85
217.869	46.42
218.087	11.61
218.306	11.61
218.524	11.61
218.742	-72.36
218.96	60.76
219.179	-53.93
219.397	54.61
219.615	132.44
219.833	101.72
220.051	-51.88
220.27	89.43
220.488	3.41
220.706	42.32
220.924	-17.07
221.142	-29.35
221.36	-2.73
221.578	-0.68
221.796	-27.31
222.015	150.87
222.233	3.41
222.451	101.72
222.669	-76.46
222.887	-41.64
223.105	-37.55
223.323	3.41
223.541	19.8
223.759	19.8
223.977	-66.22
224.195	60.76
224.413	-12.97
224.631	27.99
224.849	-15.02
225.067	52.56
225.285	-29.35
225.503	-35.5
225.721	-29.35
225.939	27.99
226.157	21.85
226.375	81.24
226.592	-10.92
226.81	-49.83
227.028	27.99
227.246	85.33
227.464	7.51
227.682	-4.78
227.9	-2.73
228.117	52.56
228.335	54.61
228.553	64.85
228.771	-2.73
228.989	15.7
229.206	-33.45
229.424	75.09
229.642	-21.16
229.86	32.08
230.077	-19.11
230.295	62.8
230.513	40.28
230.731	11.61
230.948	-19.11
231.166	56.66
231.384	30.04
231.601	32.08
231.819	38.23
232.037	21.85
232.254	-0.68
232.472	77.14
232.689	15.7
232.907	30.04
233.125	54.61
233.342	11.61
233.56	-15.02
233.777	54.61
233.995	40.28
234.213	101.72
234.43	62.8
234.648	-2.73
234.865	73.04
235.083	38.23
235.3	3.41
235.518	38.23
235.735	11.61
235.953	38.23
236.17	9.56
236.388	32.08
236.605	19.8
236.822	52.56
237.04	7.51
237.257	5.46
237.475	11.61
237.692	44.37
237.909	50.52
238.127	-4.78
238.344	101.72
238.562	34.13
238.779	9.56
238.996	-49.83
239.214	13.65
239.431	-4.78
239.648	36.18
239.865	36.18
240.083	36.18
240.3	-12.97
240.517	13.65
240.735	21.85
240.952	54.61
241.169	-64.17
241.386	52.56
241.603	-8.87
241.821	-35.5
242.038	36.18
242.255	68.95
242.472	-10.92
242.689	77.14
242.907	68.95
243.124	60.76
243.341	5.46
243.558	50.52
243.775	40.28
243.992	52.56
244.209	-60.07
244.426	109.91
244.643	1.37
244.86	38.23
245.078	3.41
245.295	44.37
245.512	52.56
245.729	52.56
245.946	-27.31
246.163	-17.07
246.38	-4.78
246.597	27.99
246.814	36.18
247.031	36.18
247.248	-43.69
247.464	-4.78
247.681	27.99
247.898	-2.73
248.115	-12.97
248.332	52.56
248.549	27.99
248.766	27.99
248.983	36.18
249.2	38.23
249.417	109.91
249.633	-49.83
249.85	27.99
250.067	-29.35
250.284	-8.87
250.501	99.67
250.717	-70.31
250.934	-70.31
251.151	-15.02
251.368	60.76
251.585	5.46
251.801	7.51
252.018	48.47
252.235	-0.68
252.451	-4.78
252.668	-4.78
252.885	-17.07
253.102	56.66
253.318	13.65
253.535	-96.94
253.752	32.08
253.968	3.41
254.185	44.37
254.401	-39.59
254.618	30.04
254.835	77.14
255.051	44.37
255.268	62.8
255.484	77.14
255.701	-37.55
255.917	3.41
256.134	11.61
256.351	36.18
256.567	46.42
256.784	-29.35
257	11.61
257.217	54.61
257.433	27.99
257.65	-101.03
257.866	83.28
258.082	-88.75
258.299	3.41
258.515	36.18
258.732	-39.59
258.948	40.28
259.165	48.47
259.381	66.9
259.597	122.2
259.814	9.56
260.03	66.9
260.246	3.41
260.463	7.51
260.679	64.85
260.895	-53.93
261.112	-45.74
261.328	60.76
261.544	60.76
261.761	52.56
261.977	48.47
262.193	-12.97
262.409	-8.87
262.626	60.76
262.842	68.95
263.058	11.61
263.274	13.65
263.49	95.57
263.707	-12.97
263.923	38.23
264.139	-8.87
264.355	40.28
264.571	15.7
264.787	64.85
265.004	32.08
265.22	-27.31
265.436	42.32
265.652	-10.92
265.868	36.18
266.084	60.76
266.3	11.61
266.516	30.04
266.732	-51.88
266.948	52.56
267.164	-37.55
267.38	5.46
267.596	42.32
267.812	34.13
268.028	11.61
268.244	-8.87
268.46	13.65
268.676	56.66
268.892	-8.87
269.108	-43.69
269.324	25.94
269.54	-0.68
269.756	-4.78
269.972	-23.21
270.188	32.08
270.403	32.08
270.619	46.42
270.835	-10.92
271.051	101.72
271.267	5.46
271.483	42.32
271.698	19.8
271.914	-21.16
272.13	32.08
272.346	93.52
272.562	36.18
272.777	36.18
272.993	15.7
273.209	-2.73
273.425	-25.26
273.64	-27.31
273.856	-0.68
274.072	-19.11
274.287	-62.12
274.503	71
274.719	30.04
274.934	-2.73
275.15	3.41
275.366	-2.73
275.581	19.8
275.797	56.66
276.012	32.08
276.228	-92.84
276.444	-148.14
276.659	23.89
276.875	-12.97
277.09	5.46
277.306	-12.97
277.521	38.23
277.737	36.18
277.952	-12.97
278.168	15.7
278.383	25.94
278.599	-4.78
278.814	11.61
279.03	-49.83
279.245	68.95
279.461	44.37
279.676	91.48
279.892	-41.64
280.107	-10.92
280.322	36.18
280.538	23.89
280.753	7.51
280.969	-39.59
281.184	-27.31
281.399	101.72
281.615	7.51
281.83	-19.11
282.045	-10.92
282.26	-4.78
282.476	-12.97
282.691	19.8
282.906	-17.07
283.122	3.41
283.337	-45.74
283.552	32.08
283.767	44.37
283.983	54.61
284.198	-4.78
284.413	116.05
284.628	36.18
284.843	-41.64
285.058	77.14
285.274	21.85
285.489	-33.45
285.704	11.61
285.919	-8.87
286.134	27.99
286.349	38.23
286.564	11.61
286.779	64.85
286.995	-0.68
287.21	-35.5
287.425	13.65
287.64	-2.73
287.855	-19.11
288.07	-53.93
288.285	32.08
288.5	77.14
288.715	25.94
288.93	3.41
289.145	36.18
289.36	27.99
289.575	60.76
289.79	75.09
290.004	-43.69
290.219	95.57
290.434	-0.68
290.649	-2.73
290.864	-17.07
291.079	-10.92
291.294	19.8
291.509	21.85
291.724	30.04
291.938	-33.45
292.153	52.56
292.368	21.85
292.583	19.8
292.798	-43.69
293.012	-19.11
293.227	46.42
293.442	27.99
293.657	50.52
293.871	60.76
294.086	13.65
294.301	62.8
294.516	15.7
294.73	-37.55
294.945	-78.51
295.16	48.47
295.374	46.42
295.589	60.76
295.804	-29.35
296.018	15.7
296.233	87.38
296.447	85.33
296.662	3.41
296.877	38.23
297.091	54.61
297.306	-0.68
297.52	1.37
297.735	36.18
297.949	15.7
298.164	-2.73
298.378	68.95
298.593	5.46
298.807	30.04
299.022	87.38
299.236	5.46
299.451	-45.74
299.665	-60.07
299.88	3.41
300.094	32.08
300.309	21.85
300.523	11.61
300.737	23.89
300.952	-10.92
301.166	-45.74
301.381	-31.4
301.595	-10.92
301.809	52.56
302.024	-58.03
302.238	73.04
302.452	27.99
302.667	48.47
302.881	44.37
303.095	27.99
303.309	60.76
303.524	48.47
303.738	5.46
303.952	-6.83
304.166	103.76
304.381	-25.26
304.595	38.23
304.809	13.65
305.023	23.89
305.237	-51.88
305.452	15.7
305.666	126.29
305.88	85.33
306.094	27.99
306.308	48.47
306.522	-4.78
306.736	25.94
306.95	-6.83
307.164	52.56
307.379	46.42
307.593	13.65
307.807	1.37
308.021	-2.73
308.235	32.08
308.449	46.42
308.663	48.47
308.877	68.95
309.091	27.99
309.305	19.8
309.519	3.41
309.733	11.61
309.947	-19.11
310.161	-37.55
310.374	25.94
310.588	56.66
310.802	-10.92
311.016	62.8
311.23	19.8
311.444	15.7
311.658	-37.55
311.872	36.18
312.085	66.9
312.299	56.66
312.513	36.18
312.727	36.18
312.941	19.8
313.154	5.46
313.368	3.41
313.582	15.7
313.796	62.8
314.009	-19.11
314.223	85.33
314.437	27.99
314.651	27.99
314.864	60.76
315.078	23.89
315.292	-47.79
315.505	56.66
315.719	79.19
315.933	19.8
316.146	36.18
316.36	-8.87
316.573	-0.68
316.787	87.38
317.001	93.52
317.214	-27.31
317.428	44.37
317.641	-0.68
317.855	-60.07
318.068	11.61
318.282	52.56
318.495	89.43
318.709	32.08
318.922	-31.4
319.136	54.61
319.349	62.8
319.563	-19.11
319.776	34.13
319.99	48.47
320.203	66.9
320.417	19.8
320.63	42.32
320.843	91.48
321.057	-10.92
321.27	-2.73
321.483	-29.35
321.697	-6.83
321.91	7.51
322.124	27.99
322.337	122.2
322.55	30.04
322.763	-45.74
322.977	21.85
323.19	-0.68
323.403	44.37
323.617	-51.88
323.83	5.46
324.043	73.04
324.256	13.65
324.469	-45.74
324.683	79.19
324.896	30.04
325.109	-45.74
325.322	-35.5
325.535	19.8
325.748	62.8
325.962	46.42
326.175	71
326.388	-21.16
326.601	73.04
326.814	30.04
327.027	3.41
327.24	36.18
327.453	-15.02
327.666	27.99
327.879	13.65
328.092	1.37
328.305	48.47
328.518	3.41
328.731	-21.16
328.944	19.8
329.157	-94.89
329.37	30.04
329.583	36.18
329.796	21.85
330.009	7.51
330.222	-21.16
330.435	-21.16
330.648	-60.07
330.861	66.9
331.073	38.23
331.286	73.04
331.499	-8.87
331.712	-25.26
331.925	-19.11
332.138	-53.93
332.35	-27.31
332.563	-76.46
332.776	50.52
332.989	3.41
333.202	-45.74
333.414	1.37
333.627	-62.12
333.84	27.99
334.053	15.7
334.265	7.51
334.478	-43.69
334.691	81.24
334.903	27.99
335.116	19.8
335.329	-35.5
335.541	71
335.754	60.76
335.966	-37.55
336.179	9.56
336.392	11.61
336.604	64.85
336.817	-12.97
337.029	-17.07
337.242	21.85
337.454	46.42
337.667	36.18
337.88	79.19
338.092	54.61
338.305	44.37
338.517	7.51
338.729	3.41
338.942	79.19
339.154	27.99
339.367	-51.88
339.579	-8.87
339.792	-21.16
340.004	46.42
340.217	46.42
340.429	-2.73
340.641	-66.22
340.854	34.13
341.066	56.66
341.278	42.32
341.491	-29.35
341.703	52.56
341.915	25.94
342.128	52.56
342.34	32.08
342.552	21.85
342.764	-51.88
342.977	54.61
343.189	30.04
343.401	-0.68
343.613	5.46
343.826	19.8
344.038	-10.92
344.25	19.8
344.462	-12.97
344.674	-8.87
344.886	71
345.099	103.76
345.311	23.89
345.523	-2.73
345.735	11.61
345.947	17.75
346.159	118.1
346.371	-0.68
346.583	-66.22
346.795	85.33
347.007	-6.83
347.219	38.23
347.431	19.8
347.643	27.99
347.855	-37.55
348.067	97.62
348.279	-45.74
348.491	73.04
348.703	-27.31
348.915	17.75
349.127	-35.5
349.339	32.08
349.551	-62.12
349.763	97.62
349.975	-60.07
350.187	7.51
350.399	38.23
350.61	54.61
350.822	30.04
351.034	77.14
351.246	23.89
351.458	40.28
351.669	23.89
351.881	58.71
352.093	52.56
352.305	44.37
352.517	25.94
352.728	87.38
352.94	1.37
353.152	91.48
353.363	7.51
353.575	-60.07
353.787	9.56
353.999	77.14
354.21	27.99
354.422	85.33
354.633	64.85
354.845	54.61
355.057	-33.45
355.268	11.61
355.48	66.9
355.692	-51.88
355.903	48.47
356.115	13.65
356.326	-78.51
356.538	11.61
356.749	44.37
356.961	15.7
357.172	19.8
357.384	68.95
357.595	44.37
357.807	27.99
358.018	-10.92
358.23	114
358.441	68.95
358.653	62.8
358.864	23.89
359.075	-21.16
359.287	-55.98
359.498	62.8
359.709	5.46
359.921	36.18
360.132	9.56
360.344	15.7
360.555	-19.11
360.766	77.14
360.977	-2.73
361.189	44.37
361.4	30.04
361.611	48.47
361.823	54.61
362.034	15.7
362.245	-35.5
362.456	46.42
362.667	58.71
362.879	81.24
363.09	79.19
363.301	60.76
363.512	56.66
363.723	-58.03
363.935	5.46
364.146	95.57
364.357	50.52
364.568	5.46
364.779	-35.5
364.99	75.09
365.201	-19.11
365.412	93.52
365.623	19.8
365.834	52.56
366.045	7.51
366.256	1.37
366.467	52.56
366.678	36.18
366.889	25.94
367.1	-35.5
367.311	60.76
367.522	-0.68
367.733	-29.35
367.944	21.85
368.155	52.56
368.366	50.52
368.577	60.76
368.788	52.56
368.999	36.18
369.209	68.95
369.42	58.71
369.631	36.18
369.842	23.89
370.053	21.85
370.264	36.18
370.474	32.08
370.685	-23.21
370.896	15.7
371.107	23.89
371.317	95.57
371.528	11.61
371.739	15.7
371.95	-49.83
372.16	25.94
372.371	-21.16
372.582	36.18
372.792	81.24
373.003	68.95
373.214	-39.59
373.424	81.24
373.635	-41.64
373.846	-29.35
374.056	-4.78
374.267	-0.68
374.477	27.99
374.688	-35.5
374.898	68.95
375.109	71
375.319	75.09
375.53	60.76
375.74	85.33
375.951	-10.92
376.161	27.99
376.372	109.91
376.582	-27.31
376.793	62.8
377.003	23.89
377.214	7.51
377.424	44.37
377.635	-2.73
377.845	9.56
378.055	48.47
378.266	36.18
378.476	44.37
378.686	32.08
378.897	62.8
379.107	38.23
379.317	32.08
379.528	99.67
379.738	122.2
379.948	62.8
380.158	77.14
380.369	5.46
380.579	21.85
380.789	58.71
380.999	77.14
381.21	11.61
381.42	71
381.63	36.18
381.84	54.61
382.05	36.18
382.261	-2.73
382.471	17.75
382.681	-25.26
382.891	23.89
383.101	25.94
383.311	-60.07
383.521	27.99
383.731	46.42
383.941	46.42
384.151	-10.92
384.361	-62.12
384.571	34.13
384.781	44.37
384.991	130.39
385.201	79.19
385.411	64.85
385.621	19.8
385.831	68.95
386.041	15.7
386.251	30.04
386.461	54.61
386.671	36.18
386.881	17.75
387.091	19.8
387.301	99.67
387.511	48.47
387.72	32.08
387.93	9.56
388.14	27.99
388.35	3.41
388.56	62.8
388.769	-0.68
388.979	46.42
389.189	32.08
389.399	50.52
389.609	60.76
389.818	5.46
390.028	83.28
390.238	-4.78
390.447	50.52
390.657	50.52
390.867	-51.88
391.076	46.42
391.286	68.95
391.496	27.99
391.705	-53.93
391.915	-27.31
392.125	64.85
392.334	11.61
392.544	-21.16
392.753	75.09
392.963	40.28
393.172	46.42
393.382	21.85
393.591	46.42
393.801	44.37
394.01	83.28
394.22	103.76
394.429	27.99
394.639	60.76
394.848	-4.78
395.058	36.18
395.267	44.37
395.477	71
395.686	56.66
395.895	77.14
396.105	146.77
396.314	64.85
396.524	68.95
396.733	95.57
396.942	126.29
397.152	60.76
397.361	152.92
397.57	85.33
397.78	38.23
397.989	146.77
398.198	128.34
398.407	64.85
398.617	126.29
398.826	52.56
399.035	187.73
399.244	128.34
399.453	15.7
399.663	44.37
399.872	85.33
400.081	-10.92
400.29	142.68
400.499	56.66
400.708	56.66
400.917	36.18
401.127	101.72
401.336	60.76
401.545	169.3
401.754	175.44
401.963	99.67
402.172	77.14
402.381	13.65
402.59	89.43
402.799	62.8
403.008	177.49
403.217	107.86
403.426	105.81
403.635	134.48
403.844	99.67
404.053	71
404.262	179.54
404.471	218.45
404.68	81.24
404.888	66.9
405.097	128.34
405.306	148.82
405.515	85.33
405.724	185.68
405.933	105.81
406.142	169.3
406.35	165.2
406.559	148.82
406.768	116.05
406.977	197.97
407.185	142.68
407.394	163.15
407.603	126.29
407.812	169.3
408.02	197.97
408.229	159.06
408.438	171.35
408.646	218.45
408.855	183.63
409.064	214.35
409.272	146.77
409.481	232.79
409.69	187.73
409.898	234.83
410.107	275.79
410.315	159.06
410.524	177.49
410.733	355.66
410.941	261.46
411.15	347.47
411.358	378.19
411.567	308.56
411.775	324.94
411.984	341.33
412.192	453.97
412.401	427.34
412.609	382.29
412.818	425.29
413.026	372.05
413.234	441.68
413.443	494.93
413.651	488.78
413.86	453.97
414.068	527.69
414.276	480.59
414.485	501.07
414.693	515.41
414.901	531.79
415.11	566.6
415.318	644.43
415.526	597.32
415.734	650.57
415.943	648.52
416.151	718.15
416.359	714.06
416.567	648.52
416.776	773.45
416.984	746.83
417.192	798.03
417.4	863.56
417.608	740.68
417.817	896.33
418.025	888.14
418.233	996.68
418.441	896.33
418.649	1011.01
418.857	974.15
419.065	1072.45
419.273	963.91
419.481	1117.51
419.689	1142.08
419.897	1224
420.105	1215.81
420.313	1307.97
420.521	1283.39
420.729	1330.5
420.937	1426.75
421.145	1430.85
421.353	1467.71
421.561	1576.25
421.769	1547.58
421.977	1609.02
422.185	1600.83
422.393	1817.91
422.601	1840.44
422.809	1897.78
423.017	1779
423.224	1971.51
423.432	2020.66
423.64	1955.13
423.848	2209.08
424.056	2037.05
424.263	2346.29
424.471	2297.14
424.679	2256.18
424.887	2551.09
425.094	2583.85
425.302	2514.22
425.51	2694.44
425.718	2725.16
425.925	2759.98
426.133	2923.82
426.341	3038.5
426.548	3069.22
426.756	3202.34
426.964	3159.33
427.171	3286.31
427.379	3460.38
427.586	3452.19
427.794	3648.8
428.001	3730.72
428.209	4039.96
428.417	4013.34
428.624	4099.35
428.832	4279.57
429.039	4140.31
429.247	4037.91
429.454	4625.68
429.662	4877.58
429.869	4525.33
430.076	4910.35
430.284	4703.5
430.491	4984.07
430.699	5199.11
430.906	5020.94
431.114	5264.65
431.321	5408
431.528	5524.74
431.736	5952.76
431.943	6114.55
432.15	5887.23
432.358	6081.78
432.565	6292.73
432.772	6321.4
432.979	6628.59
433.187	6810.86
433.394	6913.26
433.601	7329
433.808	7261.41
434.016	7199.98
434.223	7498.98
434.43	8129.75
434.637	7896.28
434.844	8504.53
435.052	8490.2
435.259	8475.86
435.466	8400.09
435.673	8420.56
435.88	8883.41
436.087	9393.35
436.294	9653.44
436.501	9293
436.708	9315.53
436.915	9637.06
437.122	10153.15
437.329	10046.65
437.537	10316.98
437.743	10704.05
437.95	10493.11
438.157	10939.57
438.364	11465.89
438.571	11445.41
438.778	11506.85
438.985	12577.94
439.192	11926.69
439.399	12469.4
439.606	12303.51
439.813	12786.83
440.02	13644.93
440.227	13292.68
440.433	13118.61
440.64	13702.28
440.847	13624.45
441.054	14017.66
441.261	14941.3
441.467	14464.12
441.674	15047.79
441.881	15469.67
442.088	15584.36
442.294	15436.91
442.501	15838.31
442.708	16114.78
442.914	16626.78
443.121	17482.83
443.328	16880.72
443.534	18037.83
443.741	17603.66
443.948	17173.58
444.154	18689.08
444.361	18490.43
444.568	18662.46
444.774	18748.47
444.981	18881.59
445.187	19377.2
445.394	19956.77
445.6	19979.3
445.807	21754.89
446.013	20726.81
446.22	21097.49
446.426	22369.28
446.633	22170.63
446.839	22920.18
447.046	22217.73
447.252	23282.67
447.459	23452.66
447.665	23288.82
447.871	24339.43
448.078	25328.59
448.284	24202.21
448.491	24792.03
448.697	25971.66
448.903	26237.89
449.11	26121.16
449.316	25957.32
449.522	26364.87
449.728	27282.36
449.935	27206.58
450.141	27098.04
450.347	28091.3
450.553	27106.23
450.76	27366.32
450.966	28435.36
451.172	28083.11
451.378	28918.68
451.584	28189.61
451.791	29279.13
451.997	28789.66
452.203	29731.73
452.409	29057.95
452.615	29359
452.821	28048.3
453.027	27898.8
453.233	29533.07
453.44	28443.56
453.646	28625.82
453.852	28930.97
454.058	29166.49
454.264	28146.6
454.47	29021.08
454.676	28046.25
454.882	29408.15
455.088	26954.68
455.294	27139
455.5	27872.17
455.705	28287.91
455.911	26811.32
456.117	26291.14
456.323	25750.48
456.529	24710.11
456.735	25820.11
456.941	25101.27
457.147	24421.34
457.352	24097.77
457.558	23968.74
457.764	23593.97
457.97	23376.88
458.176	22639.61
458.381	23102.45
458.587	21488.65
458.793	21742.6
458.999	20888.6
459.204	22141.96
459.41	21556.24
459.616	20401.18
459.821	20229.15
460.027	20075.56
460.233	19751.98
460.438	18418.75
460.644	19057.71
460.85	17976.39
461.055	17529.93
461.261	17802.31
461.466	16438.36
461.672	15834.21
461.878	17173.58
462.083	16073.82
462.289	15592.55
462.494	15604.84
462.7	14879.86
462.905	14427.26
463.111	14795.89
463.316	15244.4
463.522	14697.59
463.727	14527.61
463.932	14793.84
464.138	14376.06
464.343	14482.55
464.549	14005.38
464.754	14455.93
464.959	14177.4
465.165	14019.71
465.37	13630.6
465.575	13282.44
465.781	13765.76
465.986	13835.39
466.191	13466.76
466.397	13130.89
466.602	12713.11
466.807	12876.94
467.012	13100.17
467.218	12891.28
467.423	12745.87
467.628	12795.03
467.833	13286.54
468.038	12930.19
468.244	12217.5
468.449	12823.7
468.654	12639.38
468.859	12536.98
469.064	12264.6
469.269	11924.64
469.474	12090.52
469.679	12319.9
469.885	11744.42
470.09	12016.8
470.295	12033.18
470.5	11832.48
470.705	11785.38
470.91	11523.24
471.115	11426.98
471.32	11584.68
471.525	11717.79
471.73	11232.43
471.935	11326.63
472.139	10794.16
472.344	10976.43
472.549	10738.87
472.754	10777.78
472.959	10646.71
473.164	10474.68
473.369	10400.95
473.574	10704.05
473.778	10507.44
473.983	10425.53
474.188	10220.73
474.393	9923.77
474.598	9850.05
474.802	9747.65
475.007	9721.02
475.212	9729.22
475.417	9544.9
475.621	9430.21
475.826	9469.12
476.031	9376.97
476.235	9080.01
476.44	9260.23
476.645	9149.64
476.849	9194.7
477.054	8924.37
477.259	8836.3
477.463	8797.39
477.668	8768.72
477.872	8623.31
478.077	8697.04
478.282	8369.37
478.486	8287.45
478.691	8094.94
478.895	8125.66
479.1	8236.25
479.304	8025.31
479.509	7834.85
479.713	8033.5
479.918	7847.13
480.122	7695.58
480.326	7904.48
480.531	7955.68
480.735	7754.97
480.94	7654.62
481.144	7931.1
481.348	7740.64
481.553	7830.75
481.757	7417.06
481.961	7832.8
482.166	7757.02
482.37	7533.79
482.574	7382.24
482.778	7548.13
482.983	7752.93
483.187	7552.23
483.391	7845.09
483.595	7417.06
483.8	7404.77
484.004	7437.54
484.208	7658.72
484.412	7630.05
484.616	7523.55
484.821	7511.27
485.025	7580.9
485.229	7533.79
485.433	7589.09
485.637	7558.37
485.841	7460.07
486.045	7347.43
486.249	7605.47
486.453	7617.76
486.657	7568.61
486.861	7466.21
487.065	7367.91
487.269	7691.49
487.473	7285.99
487.677	7711.97
487.881	7572.71
488.085	7654.62
488.289	7572.71
488.493	7437.54
488.697	7560.42
488.901	7654.62
489.105	7646.43
489.309	7697.63
489.512	7736.54
489.716	7703.78
489.92	7679.2
490.124	7632.1
490.328	7806.17
490.531	7632.1
490.735	7681.25
490.939	7611.62
491.143	7654.62
491.346	7759.07
491.55	7802.08
491.754	7671.01
491.958	7990.49
492.161	7955.68
492.365	7994.59
492.569	7945.44
492.772	7992.54
492.976	7859.42
493.18	8146.14
493.383	8142.04
493.587	8051.93
493.79	8391.89
493.994	8158.42
494.197	8162.52
494.401	8203.48
494.605	8228.06
494.808	8369.37
495.012	8449.24
495.215	8578.26
495.419	8434.9
495.622	8510.68
495.825	8627.41
496.029	8668.37
496.232	8793.3
496.436	8838.35
496.639	9129.16
496.843	9006.28
497.046	9352.39
497.249	9419.97
497.453	9239.75
497.656	9497.8
497.859	9477.32
498.063	9596.1
498.266	9688.26
498.469	9553.09
498.673	10017.98
498.876	10169.53
499.079	10005.69
499.282	10138.81
499.485	10314.94
499.689	10499.25
499.892	10439.86
500.095	10521.78
500.298	10874.03
500.501	10706.1
500.705	10802.35
500.908	11168.94
501.111	11103.4
501.314	11203.75
501.517	11365.54
501.72	11562.15
501.923	11549.86
502.126	11709.6
502.329	11885.73
502.532	12082.33
502.735	12094.62
502.938	12414.1
503.141	12217.5
503.344	12465.3
503.547	12477.59
503.75	12659.86
503.953	13057.17
504.156	12926.1
504.359	13020.3
504.562	13204.62
504.765	13857.92
504.968	13454.47
505.17	13978.75
505.373	13964.42
505.576	14179.45
505.779	14290.04
505.982	14435.45
506.185	14615.67
506.387	14326.91
506.59	14707.83
506.793	15060.08
506.996	15066.22
507.198	15524.97
507.401	15232.11
507.604	15641.7
507.807	15764.58
508.009	15907.94
508.212	16071.78
508.415	16407.64
508.617	16247.9
508.82	16694.36
509.022	16731.22
509.225	17214.54
509.428	16944.21
509.63	17280.08
509.833	17212.49
510.035	17468.49
510.238	17427.53
510.44	17841.22
510.643	18123.84
510.845	18236.48
511.048	18338.88
511.25	18510.91
511.453	18361.41
511.655	19137.59
511.858	19102.77
512.06	19151.92
512.262	19434.54
512.465	19258.42
512.667	19700.78
512.87	19627.05
513.072	19991.59
513.274	20218.91
513.477	20663.32
513.679	20550.68
513.881	21089.3
514.084	21314.58
514.286	21226.51
514.488	21163.03
514.69	21877.77
514.893	21943.3
515.095	21939.21
515.297	21969.93
515.499	22350.85
515.701	22809.59
515.904	22744.06
516.106	22629.37
516.308	23344.11
516.51	23612.4
516.712	23573.49
516.914	23583.73
517.116	24181.73
517.318	24611.81
517.52	24357.86
517.722	24443.87
517.925	24669.15
518.127	25394.13
518.329	25295.83
518.531	25531.34
518.733	25619.41
518.935	25930.7
519.136	25760.72
519.338	26188.74
519.54	26520.51
519.742	26780.6
519.944	26741.69
520.146	27466.67
520.348	27077.56
520.55	27521.97
520.752	27786.16
520.954	28228.52
521.155	27892.65
521.357	28242.85
521.559	28472.23
521.761	28896.16
521.963	28812.19
522.164	28818.33
522.366	29330.33
522.568	29111.19
522.77	29825.93
522.971	29780.88
523.173	29733.78
523.375	30094.22
523.576	30358.41
523.778	30153.61
523.98	30860.16
524.181	30819.2
524.383	30962.56
524.584	31232.89
524.786	31320.95
524.988	31327.1
525.189	31669.11
525.391	31775.6
525.592	32068.46
525.794	32021.36
525.995	32025.45
526.197	32074.6
526.398	32250.73
526.6	32451.43
526.801	32854.88
527.003	33104.73
527.204	32697.19
527.406	32998.24
527.607	32957.28
527.808	33172.32
528.01	32834.4
528.211	33241.95
528.412	33962.83
528.614	33561.43
528.815	33774.42
529.016	33821.52
529.218	33547.09
529.419	33899.34
529.62	33891.15
529.822	34001.74
530.023	33678.16
530.224	34143.05
530.425	33938.26
530.626	33852.24
530.828	34095.95
531.029	34513.73
531.23	34011.98
531.431	33991.5
531.632	34597.7
531.833	34337.61
532.035	34575.17
532.236	34274.12
532.437	34765.63
532.638	34624.32
532.839	34601.8
533.04	34800.45
533.241	34827.07
533.442	35056.45
533.643	34919.23
533.844	35007.3
534.045	34859.84
534.246	34270.03
534.447	35304.25
534.648	34818.88
534.849	34868.03
535.05	34698.05
535.251	34882.37
535.451	34851.65
535.652	34992.96
535.853	34919.23
536.054	34569.03
536.255	34980.67
536.456	34749.25
536.657	35359.55
536.857	35021.63
537.058	34880.32
537.259	34986.82
537.46	34827.07
537.66	34923.33
537.861	35136.32
538.062	34949.95
538.263	35033.92
538.463	34999.1
538.664	34681.67
538.865	34644.8
539.065	35312.44
539.266	34587.46
539.466	35033.92
539.667	34288.46
539.868	35126.08
540.068	34927.42
540.269	34749.25
540.469	34888.51
540.67	35003.2
540.87	34913.09
541.071	34919.23
541.271	34931.52
541.472	35009.34
541.672	34900.8
541.873	34849.6
542.073	34345.8
542.274	35038.01
542.474	34853.7
542.675	34634.56
542.875	35001.15
543.075	34601.8
543.276	34288.46
543.476	34784.07
543.676	34874.18
543.877	34689.86
544.077	34956.1
544.277	34663.24
544.478	34515.78
544.678	34700.1
544.878	34616.13
545.078	34677.57
545.279	34603.85
545.479	34874.18
545.679	34579.27
545.879	34779.97
546.079	34718.53
546.28	35033.92
546.48	34454.34
546.68	34835.27
546.88	34759.49
547.08	34560.84
547.28	34624.32
547.48	34241.35
547.68	34483.02
547.88	34669.38
548.081	34673.48
548.281	34501.45
548.481	34306.89
548.681	34353.99
548.881	34315.08
549.081	34210.64
549.28	34161.48
549.48	34960.19
549.68	34478.92
549.88	34800.45
550.08	34177.87
550.28	34591.56
550.48	34458.44
550.68	34493.25
550.88	34345.8
551.08	34204.49
551.279	34581.32
551.479	34353.99
551.679	34294.6
551.879	34134.86
552.079	34390.86
552.278	34372.42
552.478	34073.42
552.678	34552.65
552.878	34333.51
553.077	34151.24
553.277	34171.72
553.477	34366.28
553.676	33944.4
553.876	34440.01
554.076	34169.68
554.275	34222.92
554.475	33991.5
554.674	34155.34
554.874	34259.79
555.074	34157.39
555.273	33858.38
555.473	34120.52
555.672	33690.45
555.872	33882.96
556.071	34052.94
556.271	33913.68
556.47	33772.37
556.67	33864.53
556.869	33657.68
557.068	33755.99
557.268	33332.06
557.467	33700.69
557.667	33764.18
557.866	33561.43
558.065	33569.62
558.265	33389.4
558.464	33297.24
558.663	33919.82
558.863	32887.65
559.062	33641.3
559.261	33057.63
559.461	33669.97
559.66	32785.25
559.859	33135.45
560.058	32770.91
560.258	33223.51
560.457	32580.45
560.656	33160.03
560.855	32811.87
561.054	32985.95
561.253	32576.36
561.453	32422.76
561.652	33006.43
561.851	32607.08
562.05	32668.51
562.249	32645.99
562.448	32928.61
562.647	32529.25
562.846	32516.97
563.045	32461.67
563.244	32129.9
563.443	32533.35
563.642	31673.2
563.841	32375.66
564.04	32187.24
564.239	32297.83
564.438	31871.85
564.637	31982.45
564.836	31927.15
565.035	31499.12
565.234	32127.85
565.432	31560.56
565.631	31413.11
565.83	31867.76
566.029	31839.09
566.228	31439.73
566.427	31540.08
566.625	31107.96
566.824	30944.13
567.023	31570.8
567.222	30856.06
567.42	31449.97
567.619	31230.84
567.818	31175.55
568.016	30874.49
568.215	30667.65
568.414	30864.25
568.612	30995.32
568.811	30659.46
569.01	30778.24
569.208	30362.5
569.407	30669.7
569.605	30100.36
569.804	30620.55
570.002	30077.83
570.201	30624.64
570.4	30155.66
570.598	29889.42
570.797	29823.89
570.995	29797.26
571.193	29584.27
571.392	30149.51
571.59	29651.86
571.789	29690.77
571.987	29434.77
572.186	29602.71
572.384	29412.24
572.582	29553.55
572.781	29582.23
572.979	29121.43
573.177	29148.06
573.376	29092.76
573.574	28724.13
573.772	29016.99
573.971	29049.75
574.169	28808.09
574.367	28625.82
574.565	28421.03
574.763	28324.77
574.962	28664.74
575.16	28326.82
575.358	28437.41
575.556	28263.33
575.754	28480.42
575.952	28036.01
576.151	28521.38
576.349	27812.78
576.547	27878.32
576.745	27780.01
576.943	27941.8
577.141	27413.43
577.339	27784.11
577.537	27546.54
577.735	27694
577.933	27691.95
578.131	27650.99
578.329	27655.09
578.527	27247.54
578.725	27139
578.923	27003.83
579.121	27243.45
579.319	27007.93
579.516	26950.59
579.714	26993.59
579.912	26760.12
580.11	26938.3
580.308	26815.42
580.506	26760.12
580.704	26407.87
580.901	26792.89
581.099	26846.14
581.297	26358.72
581.495	26051.53
581.692	26385.35
581.89	26057.67
582.088	26440.64
582.285	26250.18
582.483	26323.91
582.681	26268.61
582.878	25746.38
583.076	25578.45
583.274	25945.03
583.471	25265.11
583.669	25609.17
583.866	25398.23
584.064	25134.04
584.262	25009.11
584.459	25615.31
584.657	25019.35
584.854	25201.62
585.052	24740.83
585.249	25398.23
585.447	25086.93
585.644	24742.88
585.841	24972.25
586.039	24964.06
586.236	24585.18
586.434	24519.65
586.631	24300.51
586.828	24773.6
587.026	24523.74
587.223	24310.75
587.42	24347.62
587.618	24427.49
587.815	23780.33
588.012	23954.41
588.21	23974.89
588.407	24153.06
588.604	23968.74
588.801	24040.42
588.999	23778.28
589.196	23497.71
589.393	23561.2
589.59	23565.29
589.787	23370.74
589.984	23294.96
590.182	22977.53
590.379	23495.66
590.576	23211
590.773	23239.67
590.97	23114.74
591.167	23387.12
591.364	22942.71
591.561	22959.09
591.758	22512.64
591.955	22619.13
592.152	22762.49
592.349	22551.55
592.546	22576.12
592.743	22520.83
592.94	22344.7
593.137	22531.07
593.334	22426.62
593.531	22158.34
593.727	22299.65
593.924	22377.47
594.121	22014.98
594.318	22000.65
594.515	21861.38
594.712	22014.98
594.908	21953.54
595.105	21535.76
595.302	21795.85
595.499	21470.22
595.696	21478.41
595.892	21183.51
596.089	21505.04
596.286	21246.99
596.482	21376.02
596.679	21326.86
596.876	21423.12
597.072	21117.97
597.269	21087.25
597.466	20919.32
597.662	20818.97
597.859	21144.59
598.055	21113.88
598.252	20722.71
598.448	20757.53
598.645	20380.7
598.841	20290.59
599.038	20208.67
599.234	20763.67
599.431	20044.84
599.627	19999.78
599.824	20497.44
600.02	20354.08
600.217	20120.61
600.413	19874.85
600.609	19864.61
600.806	19991.59
601.002	19778.6
601.198	19921.96
601.395	19774.5
601.591	19827.75
601.787	19641.39
601.984	19612.71
602.18	19590.19
602.376	19500.08
602.572	19231.79
602.769	19262.51
602.965	19305.52
603.161	19285.04
603.357	19248.18
603.553	18940.98
603.75	18996.28
603.946	19061.81
604.142	19129.39
604.338	18558.01
604.534	18795.57
604.73	18617.4
604.926	18664.5
605.122	18564.15
605.318	18625.59
605.514	18629.69
605.71	18410.56
605.906	18385.98
606.102	18449.47
606.298	18472
606.494	18340.93
606.69	18091.07
606.886	18093.12
607.082	17994.82
607.278	18172.99
607.474	17869.89
607.67	18082.88
607.866	17759.3
608.062	18170.94
608.257	17990.72
608.453	17890.37
608.649	18091.07
608.845	17906.76
609.041	17650.76
609.236	17665.1
609.432	17878.08
609.628	17495.11
609.824	17501.26
610.019	17591.37
610.215	17609.8
610.411	17615.94
610.606	17335.37
610.802	17628.23
610.998	17388.62
611.193	17550.41
611.389	17288.27
611.584	17337.42
611.78	17071.18
611.976	17108.05
612.171	17452.11
612.367	17318.99
612.562	16915.54
612.758	17040.47
612.953	16983.12
613.149	16995.41
613.344	16608.34
613.539	17292.37
613.735	16817.24
613.93	17067.09
614.126	16856.15
614.321	16927.83
614.517	16784.47
614.712	16602.2
614.907	16606.3
615.103	16768.09
615.298	16489.56
615.493	16585.82
615.688	16596.06
615.884	16651.35
616.079	16432.22
616.274	16430.17
616.47	16317.53
616.665	16360.54
616.86	16061.54
617.055	16180.32
617.25	16157.79
617.445	16381.02
617.641	16245.85
617.836	16190.56
618.031	16012.38
618.226	16178.27
618.421	15930.47
618.616	15907.94
618.811	15723.62
619.006	15961.19
619.201	15451.24
619.396	15809.64
619.591	15438.95
619.786	15699.05
619.981	15391.85
620.176	15508.58
620.371	15287.4
620.566	15281.26
620.761	15182.96
620.956	15144.05
621.151	14994.54
621.346	15254.64
621.541	14929.01
621.735	14922.87
621.93	14670.97
622.125	14924.91
622.32	14648.44
622.515	14601.33
622.709	14445.69
622.904	14613.62
623.099	14494.84
623.294	14642.29
623.488	14242.94
623.683	14324.86
623.878	14001.28
624.072	14011.52
624.267	13950.08
624.462	13872.26
624.656	13886.59
624.851	13739.14
625.046	13597.83
625.24	13532.29
625.435	13470.86
625.629	13366.41
625.824	13569.16
626.018	13229.2
626.213	13132.94
626.407	13276.3
626.602	12989.58
626.796	13239.44
626.991	12911.76
627.185	12907.66
627.38	12635.28
627.574	12700.82
627.768	12487.83
627.963	12688.53
628.157	12553.37
628.352	12461.21
628.546	12401.82
628.74	12491.93
628.935	12260.51
629.129	12258.46
629.323	12020.89
629.517	12037.28
629.712	12059.81
629.906	12000.41
630.1	11685.03
630.294	11775.14
630.489	11797.67
630.683	11791.52
630.877	11717.79
631.071	11601.06
631.265	11816.1
631.459	11426.98
631.653	11367.59
631.848	11324.58
632.042	11162.79
632.236	11234.47
632.43	10962.09
632.624	11150.51
632.818	11093.16
633.012	10939.57
633.206	10648.75
633.4	11054.25
633.594	10882.22
633.788	10730.67
633.982	10800.3
634.176	10771.63
634.369	10636.47
634.563	10583.22
634.757	10400.95
634.951	10441.91
635.145	10517.68
635.339	10218.68
635.533	10235.07
635.726	10257.59
635.92	10087.61
636.114	10038.46
636.308	10198.2
636.501	10101.95
636.695	10114.23
636.889	9819.33
637.083	9854.14
637.276	9759.94
637.47	9612.48
637.664	9694.4
637.857	9710.79
638.051	9653.44
638.244	9432.26
638.438	9532.61
638.632	9442.5
638.825	9514.18
639.019	9319.62
639.212	9370.82
639.406	9401.54
639.599	9221.32
639.793	9293
639.986	8840.4
640.18	9178.31
640.373	9051.34
640.567	8864.97
640.76	8938.7
640.954	8754.38
641.147	9008.33
641.34	8711.38
641.534	8950.99
641.727	8754.38
641.92	8627.41
642.114	8668.37
642.307	8654.03
642.5	8582.35
642.694	8398.04
642.887	8445.14
643.08	8334.55
643.273	8357.08
643.467	8287.45
643.66	8219.86
643.853	8187.1
644.046	8129.75
644.239	8379.61
644.432	8119.51
644.626	8088.79
644.819	7988.44
645.012	7998.68
645.205	7812.32
645.398	8086.75
645.591	7771.36
645.784	7789.79
645.977	7607.52
646.17	7671.01
646.363	7582.95
646.556	7376.1
646.749	7632.1
646.942	7619.81
647.135	7359.72
647.328	7474.4
647.521	7357.67
647.714	7324.9
647.907	7304.42
648.099	7277.8
648.292	7455.97
648.485	7255.27
648.678	7097.58
648.871	7081.19
649.064	7064.81
649.256	6974.7
649.449	6851.82
649.642	7036.14
649.835	6972.65
650.027	6728.94
650.22	6872.3
650.413	6763.76
650.605	6657.26
650.798	6769.9
650.991	6534.39
651.183	6624.5
651.376	6546.67
651.568	6583.54
651.761	6493.43
651.954	6618.35
652.146	6393.08
652.339	6481.14
652.531	6466.8
652.724	6270.2
652.916	6253.81
653.109	6227.19
653.301	6364.4
653.494	6343.92
653.686	6044.92
653.879	6206.71
654.071	6135.03
654.263	5913.85
654.456	6067.45
654.648	6040.83
654.84	6147.32
655.033	5993.72
655.225	5860.6
655.417	5774.59
655.61	5879.04
655.802	5938.43
655.994	5997.82
656.186	5963
656.379	5827.84
656.571	5713.15
656.763	5655.81
656.955	5713.15
657.148	5707.01
657.34	5565.7
657.532	5545.22
657.724	5545.22
657.916	5541.12
658.108	5592.32
658.3	5262.6
658.492	5373.19
658.684	5344.52
658.876	5340.42
659.068	5467.39
659.26	5354.76
659.452	5254.41
659.644	5303.56
659.836	5192.97
660.028	5340.42
660.22	5065.99
660.412	5109
660.604	5098.76
660.796	5123.34
660.988	5000.46
661.18	4969.74
661.372	5018.89
661.563	5027.08
661.755	4885.77
661.947	4939.02
662.139	4959.5
662.331	4957.45
662.522	4787.47
662.714	4877.58
662.906	4838.67
663.097	4697.36
663.289	4697.36
663.481	4699.41
663.673	4689.17
663.864	4734.22
664.056	4597.01
664.247	4597.01
664.439	4543.76
664.631	4582.67
664.822	4564.24
665.014	4576.53
665.205	4615.44
665.397	4513.04
665.588	4431.12
665.78	4341.01
665.971	4398.35
666.163	4463.89
666.354	4355.35
666.546	4334.87
666.737	4265.24
666.929	4379.92
667.12	4283.67
667.311	4140.31
667.503	4119.83
667.694	4224.28
667.885	4056.34
668.077	4164.89
668.268	4005.14
668.459	4162.84
668.651	4111.64
668.842	4029.72
669.033	4064.54
669.224	4099.35
669.416	3970.33
669.607	3958.04
669.798	3919.13
669.989	4050.2
670.18	3976.47
670.371	3888.41
670.563	3874.07
670.754	3874.07
670.945	3919.13
671.136	3878.17
671.327	3960.09
671.518	3783.96
671.709	3740.96
671.9	3847.45
672.091	3790.11
672.282	3796.25
672.473	3630.37
672.664	3640.61
672.855	3546.4
673.046	3792.16
673.237	3593.5
673.428	3595.55
673.619	3695.9
673.809	3587.36
674	3718.43
674.191	3573.02
674.382	3472.67
674.573	3665.18
674.764	3431.71
674.954	3538.21
675.145	3560.74
675.336	3482.91
675.527	3476.77
675.717	3501.34
675.908	3368.23
676.099	3431.71
676.289	3329.31
676.48	3362.08
676.671	3374.37
676.861	3347.75
677.052	3452.19
677.243	3292.45
677.433	3384.61
677.624	3267.88
677.814	3218.72
678.005	3355.94
678.195	3284.26
678.386	3214.63
678.576	3290.4
678.767	3263.78
678.957	3188
679.148	3284.26
679.338	3308.83
679.529	3157.29
679.719	3188
679.909	3220.77
680.1	3222.82
680.29	3116.33
680.481	3190.05
680.671	3116.33
680.861	2987.3
681.052	3058.98
681.242	3030.31
681.432	3089.7
681.622	3118.37
681.813	3091.75
682.003	2913.58
682.193	2895.15
682.383	3110.18
682.573	3050.79
682.764	2862.38
682.954	2985.26
683.144	2886.95
683.334	3001.64
683.524	3022.12
683.714	3003.69
683.904	2917.67
684.094	2845.99
684.284	2850.09
684.474	2870.57
684.664	2940.2
684.854	2882.86
685.044	2948.39
685.234	2790.7
685.424	2950.44
685.614	2809.13
685.804	2747.69
685.994	2829.61
686.184	2807.08
686.374	2794.79
686.564	2866.47
686.753	2723.12
686.943	2567.47
687.133	2579.76
687.323	2739.5
687.513	2657.58
687.702	2657.58
687.892	2626.86
688.082	2690.35
688.272	2610.48
688.461	2665.77
688.651	2684.2
688.841	2635.05
689.03	2639.15
689.22	2538.8
689.41	2678.06
689.599	2477.36
689.789	2551.09
689.979	2604.33
690.168	2587.95
690.358	2561.33
690.547	2473.26
690.737	2559.28
690.926	2561.33
691.116	2471.22
691.305	2473.26
691.495	2512.18
691.684	2420.02
691.874	2487.6
692.063	2403.63
692.252	2485.55
692.442	2444.59
692.631	2420.02
692.82	2430.26
693.01	2422.06
693.199	2389.3
693.388	2274.61
693.578	2424.11
693.767	2362.67
693.956	2379.06
694.146	2374.96
694.335	2395.44
694.524	2317.62
694.713	2372.91
694.902	2284.85
695.092	2331.95
695.281	2256.18
695.47	2307.38
695.659	2305.33
695.848	2237.75
696.037	2303.28
696.226	2346.29
696.415	2149.68
696.604	2290.99
696.793	2311.47
696.982	2223.41
697.171	2280.75
697.36	2313.52
697.549	2192.69
697.738	2297.14
697.927	2247.99
698.116	2227.51
698.305	2166.07
698.494	2147.64
698.683	2284.85
698.872	2221.36
699.061	2207.03
699.25	2184.5
699.438	2239.8
699.627	2145.59
699.816	2252.08
700.005	2067.77
700.193	2159.92
700.382	2227.51
700.571	2137.4
700.76	2190.64
700.948	2139.44
701.137	2190.64
701.326	2190.64
701.514	2186.55
701.703	2219.32
701.892	2108.73
702.08	2184.5
702.269	2135.35
702.457	2164.02
702.646	2065.72
702.834	2100.53
703.023	2145.59
703.212	2133.3
703.4	2137.4
703.589	2149.68
703.777	2073.91
703.965	2035
704.154	2108.73
704.342	2080.05
704.531	2039.09
704.719	2116.92
704.907	2118.97
705.096	2084.15
705.284	1938.74
705.472	2026.81
705.661	2166.07
705.849	2186.55
706.037	2141.49
706.226	2086.2
706.414	2026.81
706.602	2170.16
706.79	2125.11
706.979	2102.58
707.167	2043.19
707.355	2065.72
707.543	2059.57
707.731	2149.68
707.919	1985.85
708.107	2063.67
708.296	2096.44
708.484	2075.96
708.672	2037.05
708.86	2100.53
709.048	2035
709.236	2084.15
709.424	2178.36
709.612	2030.9
709.8	2135.35
709.988	2018.61
710.176	1951.03
710.364	2018.61
710.551	2022.71
710.739	1971.51
710.927	2053.43
711.115	2014.52
711.303	2073.91
711.491	2161.97
711.679	2020.66
711.866	2067.77
712.054	2055.48
712.242	2059.57
712.43	2039.09
712.617	1912.12
712.805	2084.15
712.993	2022.71
713.181	2063.67
713.368	2078.01
713.556	1961.27
713.744	1965.37
713.931	2174.26
714.119	1996.09
714.306	2084.15
714.494	2110.77
714.682	2063.67
714.869	2078.01
715.057	2063.67
715.244	1963.32
715.432	2098.49
715.619	1924.41
715.807	2037.05
715.994	2051.38
716.182	2020.66
716.369	2080.05
716.556	1996.09
716.744	1994.04
716.931	2102.58
717.119	2008.37
717.306	2108.73
717.493	2075.96
717.681	2129.2
717.868	2053.43
718.055	2129.2
718.242	2082.1
718.43	2116.92
718.617	2096.44
718.804	1858.87
718.991	2028.85
719.179	2014.52
719.366	2004.28
719.553	2024.76
719.74	1969.46
719.927	2061.62
720.114	2002.23
720.301	1887.54
720.488	2018.61
720.676	1944.89
720.863	2039.09
721.05	1998.13
721.237	1955.13
721.424	2075.96
721.611	2059.57
721.798	2026.81
721.985	2026.81
722.172	1989.94
722.358	2123.06
722.545	1922.36
722.732	2045.24
722.919	1985.85
723.106	1961.27
723.293	1985.85
723.48	2041.14
723.667	2012.47
723.853	1985.85
724.04	2010.42
724.227	1938.74
724.414	1977.66
724.6	1987.9
724.787	1924.41
724.974	2061.62
725.161	2059.57
725.347	1815.87
725.534	2037.05
725.72	2020.66
725.907	1944.89
726.094	2129.2
726.28	1928.5
726.467	1922.36
726.653	1994.04
726.84	2018.61
727.027	2028.85
727.213	1928.5
727.4	1977.66
727.586	1948.98
727.773	1922.36
727.959	2037.05
728.145	1944.89
728.332	2026.81
728.518	1953.08
728.705	1965.37
728.891	1842.49
729.077	2004.28
729.264	1991.99
729.45	1957.18
729.636	2022.71
729.823	2014.52
730.009	1998.13
730.195	1994.04
730.382	1957.18
730.568	1928.5
730.754	2018.61
730.94	1897.78
731.126	2028.85
731.313	2028.85
731.499	1991.99
731.685	1948.98
731.871	1971.51
732.057	1981.75
732.243	1953.08
732.429	1998.13
732.615	1930.55
732.801	2004.28
732.987	1920.31
733.173	1887.54
733.359	2071.86
733.545	1965.37
733.731	1897.78
733.917	1936.7
734.103	1994.04
734.289	2057.53
734.475	1887.54
734.661	1912.12
734.847	1957.18
735.033	1914.17
735.219	1989.94
735.404	1871.16
735.59	1905.98
735.776	1946.94
735.962	1953.08
736.148	1916.22
736.333	1869.11
736.519	1817.91
736.705	1975.61
736.89	1889.59
737.076	1879.35
737.262	1815.87
737.447	1891.64
737.633	1785.15
737.819	1895.74
738.004	1789.24
738.19	1908.02
738.375	1971.51
738.561	1891.64
738.747	1852.73
738.932	1881.4
739.118	1856.83
739.303	1944.89
739.489	1940.79
739.674	1805.63
739.859	1862.97
740.045	1834.3
740.23	1789.24
740.416	1805.63
740.601	1824.06
740.786	1912.12
740.972	1793.34
741.157	1699.13
741.342	1793.34
741.528	1809.72
741.713	1897.78
741.898	1789.24
742.084	1783.1
742.269	1895.74
742.454	1881.4
742.639	1664.32
742.824	1838.39
743.01	1740.09
743.195	1756.47
743.38	1719.61
743.565	1797.43
743.75	1719.61
743.935	1676.6
744.12	1783.1
744.305	1658.17
744.49	1723.71
744.675	1652.03
744.86	1686.84
745.045	1596.73
745.23	1701.18
745.415	1697.08
745.6	1637.69
745.785	1625.4
745.97	1682.75
746.155	1637.69
746.34	1670.46
746.525	1604.92
746.71	1635.64
746.895	1420.61
747.079	1652.03
747.264	1545.53
747.449	1604.92
747.634	1545.53
747.819	1512.77
748.003	1561.92
748.188	1611.07
748.373	1555.77
748.557	1576.25
748.742	1494.33
748.927	1477.95
749.111	1578.3
749.296	1482.05
749.481	1512.77
749.665	1504.57
749.85	1424.7
750.034	1428.8
750.219	1436.99
750.404	1496.38
750.588	1477.95
750.773	1342.78
750.957	1342.78
751.141	1400.13
751.326	1498.43
751.51	1320.26
751.695	1330.5
751.879	1404.22
752.064	1379.65
752.248	1305.92
752.432	1365.31
752.617	1326.4
752.801	1330.5
752.985	1301.83
753.17	1264.96
753.354	1330.5
753.538	1269.06
753.722	1281.35
753.907	1316.16
754.091	1129.8
754.275	1357.12
754.459	1303.87
754.643	1191.24
754.828	1289.54
755.012	1295.68
755.196	1187.14
755.38	1228.1
755.564	1215.81
755.748	1166.66
755.932	1197.38
756.116	1156.42
756.3	1275.2
756.484	1066.31
756.668	1215.81
756.852	1109.32
757.036	1137.99
757.22	1080.64
757.404	1076.55
757.588	1039.69
757.772	1123.65
757.956	1174.85
758.14	1045.83
758.323	1023.3
758.507	1125.7
758.691	1074.5
758.875	1092.93
759.059	1146.18
759.242	1115.46
759.426	1109.32
759.61	1015.11
759.794	982.34
759.977	961.86
760.161	1205.57
760.345	996.68
760.528	1058.12
760.712	1027.4
760.895	1017.16
761.079	1008.97
761.263	1031.49
761.446	1027.4
761.63	1029.45
761.813	947.53
761.997	974.15
762.18	904.52
762.364	867.66
762.547	884.04
762.731	984.39
762.914	822.6
763.098	841.03
763.281	947.53
763.464	884.04
763.648	863.56
763.831	890.18
764.015	896.33
764.198	857.42
764.381	953.67
764.564	992.58
764.748	847.18
764.931	890.18
765.114	877.9
765.297	931.14
765.481	804.17
765.664	775.5
765.847	879.94
766.03	978.25
766.213	884.04
766.397	859.46
766.58	879.94
766.763	822.6
766.946	806.22
767.129	752.97
767.312	888.14
767.495	877.9
767.678	896.33
767.861	830.79
768.044	847.18
768.227	838.98
768.41	886.09
768.593	781.64
768.776	879.94
768.959	841.03
769.142	775.5
769.324	789.83
769.507	818.5
769.69	841.03
769.873	744.78
770.056	843.08
770.239	750.92
770.421	769.35
770.604	748.87
770.787	757.07
770.97	773.45
771.152	720.2
771.335	830.79
771.518	757.07
771.7	814.41
771.883	822.6
772.066	736.59
772.248	748.87
772.431	779.59
772.613	728.39
772.796	730.44
772.978	697.67
773.161	750.92
773.343	707.91
773.526	656.72
773.708	660.81
773.891	578.89
774.073	626
774.256	634.19
774.438	822.6
774.621	658.76
774.803	744.78
774.985	697.67
775.168	695.63
775.35	601.42
775.532	759.11
775.715	683.34
775.897	589.13
776.079	634.19
776.261	613.71
776.444	699.72
776.626	654.67
776.808	585.04
776.99	509.26
777.173	644.43
777.355	617.8
777.537	560.46
777.719	642.38
777.901	480.59
778.083	564.56
778.265	548.17
778.447	550.22
778.629	527.69
778.811	638.28
778.993	531.79
779.175	542.03
779.357	593.23
779.539	666.96
779.721	503.12
779.903	605.52
780.085	517.45
780.267	523.6
780.449	556.36
780.631	560.46
780.812	617.8
780.994	585.04
781.176	529.74
781.358	404.82
781.54	562.51
781.721	570.7
781.903	486.73
782.085	527.69
782.267	466.25
782.448	458.06
782.63	445.77
782.812	501.07
782.993	544.08
783.175	554.32
783.357	421.2
783.538	519.5
783.72	443.73
783.901	460.11
784.083	464.21
784.264	460.11
784.446	429.39
784.627	341.33
784.809	462.16
784.99	478.54
785.172	333.14
785.353	472.4
785.535	464.21
785.716	453.97
785.897	480.59
786.079	382.29
786.26	439.63
786.441	378.19
786.623	400.72
786.804	374.1
786.985	349.52
787.167	437.58
787.348	331.09
787.529	372.05
787.71	392.53
787.891	347.47
788.073	374.1
788.254	388.43
788.435	331.09
788.616	341.33
788.797	351.57
788.978	326.99
789.159	365.9
789.34	300.37
789.522	308.56
789.703	365.9
789.884	265.55
790.065	359.76
790.246	349.52
790.427	339.28
790.607	277.84
790.788	361.81
790.969	263.51
791.15	316.75
791.331	312.66
791.512	331.09
791.693	273.75
791.874	296.27
792.054	331.09
792.235	281.94
792.416	290.13
792.597	263.51
792.778	294.22
792.958	306.51
793.139	294.22
793.32	326.99
793.5	283.99
793.681	318.8
793.862	298.32
794.042	240.98
794.223	259.41
794.404	290.13
794.584	136.53
794.765	269.65
794.945	322.9
795.126	273.75
795.306	318.8
795.487	216.4
795.667	267.6
795.848	261.46
796.028	206.16
796.209	169.3
796.389	232.79
796.57	281.94
796.75	300.37
796.93	314.7
797.111	236.88
797.291	232.79
797.471	202.07
797.652	224.59
797.832	261.46
798.012	208.21
798.192	224.59
798.373	228.69
798.553	339.28
798.733	269.65
798.913	173.39
799.093	240.98
799.274	224.59
799.454	200.02
799.634	314.7
799.814	224.59
799.994	277.84
800.174	281.94
800.354	191.83
800.534	304.46
800.714	220.5
800.894	187.73
801.074	290.13
801.254	183.63
801.434	228.69
801.614	226.64
801.794	177.49
801.974	767.31
802.154	134.48
802.334	216.4
802.514	175.44
802.693	236.88
802.873	173.39
803.053	259.41
803.233	154.96
803.413	200.02
803.592	118.1
803.772	161.11
803.952	234.83
804.131	159.06
804.311	236.88
804.491	185.68
804.67	191.83
804.85	161.11
805.03	283.99
805.209	142.68
805.389	191.83
805.568	177.49
805.748	130.39
805.928	200.02
806.107	169.3
806.287	187.73
806.466	234.83
806.646	136.53
806.825	161.11
807.004	240.98
807.184	79.19
807.363	163.15
807.543	111.96
807.722	183.63
807.901	154.96
808.081	226.64
808.26	85.33
808.439	238.93
808.619	163.15
808.798	195.92
808.977	179.54
809.156	177.49
809.336	208.21
809.515	183.63
809.694	81.24
809.873	175.44
810.052	124.24
810.231	179.54
810.411	159.06
810.59	142.68
810.769	105.81
810.948	177.49
811.127	99.67
811.306	152.92
811.485	103.76
811.664	191.83
811.843	124.24
812.022	114
812.201	122.2
812.38	130.39
812.559	93.52
812.737	208.21
812.916	130.39
813.095	107.86
813.274	118.1
813.453	109.91
813.632	165.2
813.811	144.72
813.989	71
814.168	93.52
814.347	128.34
814.526	148.82
814.704	136.53
814.883	111.96
815.062	60.76
815.24	111.96
815.419	46.42
815.598	95.57
815.776	99.67
815.955	116.05
816.133	97.62
816.312	105.81
816.49	107.86
816.669	89.43
816.847	97.62
817.026	120.15
817.204	81.24
817.383	118.1
817.561	46.42
817.74	183.63
817.918	32.08
818.097	103.76
818.275	36.18
818.453	161.11
818.632	85.33
818.81	75.09
818.988	91.48
819.167	140.63
819.345	103.76
819.523	109.91
819.701	128.34
819.879	91.48
820.058	81.24
820.236	54.61
820.414	48.47
820.592	138.58
820.77	114
820.948	142.68
821.127	52.56
821.305	99.67
821.483	13.65
821.661	218.45
821.839	81.24
822.017	56.66
822.195	99.67
822.373	81.24
822.551	130.39
822.729	93.52
822.907	60.76
823.085	191.83
823.262	152.92
823.44	101.72
823.618	83.28
823.796	95.57
823.974	25.94
824.152	32.08
824.329	60.76
824.507	161.11
824.685	68.95
824.863	95.57
825.04	101.72
825.218	120.15
825.396	44.37
825.574	101.72
825.751	52.56
825.929	27.99
826.107	87.38
826.284	87.38
826.462	122.2
826.639	71
826.817	19.8
826.994	126.29
827.172	9.56
827.349	208.21
827.527	44.37
827.704	68.95
827.882	44.37
828.059	54.61
828.237	56.66
828.414	19.8
828.591	-21.16
828.769	87.38
828.946	134.48
829.124	68.95
829.301	85.33
829.478	79.19
829.655	114
829.833	44.37
830.01	25.94
830.187	58.71
830.364	56.66
830.542	62.8
830.719	85.33
830.896	11.61
831.073	27.99
831.25	124.24
831.427	77.14
831.604	118.1
831.782	13.65
831.959	95.57
832.136	25.94
832.313	44.37
832.49	68.95
832.667	21.85
832.844	62.8
833.021	132.44
833.198	62.8
833.374	19.8
833.551	75.09
833.728	66.9
833.905	105.81
834.082	56.66
834.259	54.61
834.436	-17.07
834.612	-2.73
834.789	46.42
834.966	27.99
835.143	77.14
835.319	32.08
835.496	60.76
835.673	3.41
835.85	66.9
836.026	44.37
836.203	109.91
836.38	44.37
836.556	130.39
836.733	9.56
836.909	146.77
837.086	40.28
837.262	44.37
837.439	87.38
837.616	32.08
837.792	44.37
837.968	77.14
838.145	-41.64
838.321	-2.73
838.498	52.56
838.674	56.66
838.851	105.81
839.027	-62.12
839.203	-2.73
839.38	42.32
839.556	30.04
839.732	64.85
839.909	30.04
840.085	-12.97
840.261	60.76
840.437	58.71
840.614	-35.5
840.79	62.8
840.966	122.2
841.142	23.89
841.318	66.9
841.494	-12.97
841.671	30.04
841.847	32.08
842.023	-39.59
842.199	52.56
842.375	21.85
842.551	13.65
842.727	-4.78
842.903	85.33
843.079	7.51
843.255	38.23
843.431	40.28
843.607	38.23
843.783	-0.68
843.959	79.19
844.134	-35.5
844.31	126.29
844.486	60.76
844.662	13.65
844.838	-0.68
845.013	42.32
845.189	40.28
845.365	85.33
845.541	44.37
845.716	81.24
845.892	144.72
846.068	19.8
846.244	13.65
846.419	-2.73
846.595	27.99
846.77	120.15
846.946	81.24
847.122	27.99
847.297	-21.16
847.473	36.18
847.648	-45.74
847.824	62.8
847.999	-17.07
848.175	-8.87
848.35	50.52
848.526	42.32
848.701	66.9
848.876	40.28
849.052	5.46
849.227	-4.78
849.403	5.46
849.578	17.75
849.753	-10.92
849.929	32.08
850.104	-19.11
850.279	-72.36
850.454	5.46
850.63	71
850.805	36.18
850.98	34.13
851.155	11.61
851.33	-33.45
851.505	-6.83
851.681	93.52
851.856	23.89
852.031	-33.45
852.206	7.51
852.381	-101.03
852.556	-43.69
852.731	64.85
852.906	-0.68
853.081	19.8
853.256	38.23
853.431	30.04
853.606	-17.07
853.781	44.37
853.956	7.51
854.131	36.18
854.305	-21.16
854.48	36.18
854.655	27.99
854.83	-25.26
855.005	-47.79
855.18	27.99
855.354	19.8
855.529	-58.03
855.704	21.85
855.879	56.66
856.053	40.28
856.228	23.89
856.403	-41.64
856.577	68.95
856.752	-53.93
856.926	5.46
857.101	9.56
857.276	52.56
857.45	36.18
857.625	52.56
857.799	5.46
857.974	1.37
858.148	3.41
858.323	60.76
858.497	79.19
858.672	9.56
858.846	-19.11
859.02	11.61
859.195	-78.51
859.369	66.9
859.543	40.28
859.718	-4.78
859.892	32.08
860.066	-17.07
860.241	23.89
860.415	-21.16
860.589	3.41
860.763	-17.07
860.938	15.7
861.112	36.18
861.286	32.08
861.46	-27.31
861.634	27.99
861.808	66.9
861.982	7.51
862.157	11.61
862.331	34.13
862.505	-12.97
862.679	-25.26
862.853	-25.26
863.027	-21.16
863.201	109.91
863.375	-49.83
863.549	-2.73
863.722	48.47
863.896	-4.78
864.07	-51.88
864.244	-35.5
864.418	-29.35
864.592	-4.78
864.766	-23.21
864.939	38.23
865.113	-37.55
865.287	34.13
865.461	-19.11
865.634	13.65
865.808	27.99
865.982	-45.74
866.156	-12.97
866.329	17.75
866.503	32.08
866.676	42.32
866.85	23.89
867.024	-4.78
867.197	-111.27
867.371	42.32
867.544	77.14
867.718	-29.35
867.891	15.7
868.065	-29.35
868.238	7.51
868.412	19.8
868.585	46.42
868.759	13.65
868.932	-6.83
869.105	120.15
869.279	-70.31
869.452	-4.78
869.625	23.89
869.799	19.8
869.972	23.89
870.145	-12.97
870.319	-39.59
870.492	-25.26
870.665	-8.87
870.838	-111.27
871.011	-19.11
871.185	11.61
871.358	25.94
871.531	9.56
871.704	-35.5
871.877	3.41
872.05	93.52
872.223	-12.97
872.396	36.18
872.569	68.95
872.742	-74.41
872.915	-37.55
873.088	-21.16
873.261	54.61
873.434	-4.78
873.607	-45.74
873.78	42.32
873.953	-45.74
874.126	-23.21
874.299	-17.07
874.471	36.18
874.644	-43.69
874.817	32.08
874.99	77.14
875.163	11.61
875.335	36.18
875.508	-21.16
875.681	-43.69
875.853	-31.4
876.026	-43.69
876.199	44.37
876.371	13.65
876.544	-43.69
876.717	-27.31
876.889	19.8
877.062	23.89
877.234	11.61
877.407	-39.59
877.579	-45.74
877.752	21.85
877.924	1.37
878.097	44.37
878.269	-88.75
878.442	32.08
878.614	-0.68
878.786	-21.16
878.959	32.08
879.131	3.41
879.303	-107.18
879.476	46.42
879.648	3.41
879.82	19.8
879.993	-53.93
880.165	13.65
880.337	-29.35
880.509	-17.07
880.681	-15.02
880.854	-6.83
881.026	-4.78
881.198	85.33
881.37	-45.74
881.542	-33.45
881.714	-6.83
881.886	-51.88
882.058	-49.83
882.23	-8.87
882.402	-8.87
882.574	5.46
882.746	-4.78
882.918	111.96
883.09	25.94
883.262	-19.11
883.434	30.04
883.606	-27.31
883.778	50.52
883.95	48.47
884.122	-58.03
884.293	-27.31
884.465	44.37
884.637	5.46
884.809	-62.12
884.98	34.13
885.152	-4.78
885.324	7.51
885.496	-76.46
885.667	9.56
885.839	19.8
886.011	52.56
886.182	73.04
886.354	17.75
886.525	34.13
886.697	21.85
886.869	-62.12
887.04	-25.26
887.212	27.99
887.383	44.37
887.555	21.85
887.726	-17.07
887.897	-27.31
888.069	36.18
888.24	11.61
888.412	5.46
888.583	36.18
888.754	-35.5
888.926	-41.64
889.097	3.41
889.268	-8.87
889.44	21.85
889.611	-0.68
889.782	-12.97
889.953	-53.93
890.125	15.7
890.296	-19.11
890.467	-68.27
890.638	-62.12
890.809	21.85
890.98	-82.6
891.151	91.48
891.323	-25.26
891.494	7.51
891.665	52.56
891.836	17.75
892.007	-53.93
892.178	-12.97
892.349	-2.73
892.52	-8.87
892.691	-35.5
892.862	-45.74
893.032	27.99
893.203	-4.78
893.374	19.8
893.545	1.37
893.716	19.8
893.887	15.7
894.057	-19.11
894.228	-19.11
894.399	-6.83
894.57	32.08
894.74	-29.35
894.911	13.65
895.082	54.61
895.253	40.28
895.423	21.85
895.594	81.24
895.764	-27.31
895.935	-12.97
896.106	23.89
896.276	21.85
896.447	-6.83
896.617	-86.7
896.788	-25.26
896.958	36.18
897.129	34.13
897.299	-4.78
897.47	101.72
897.64	-19.11
897.81	-0.68
897.981	44.37
898.151	-45.74
898.322	62.8
898.492	-25.26
898.662	7.51
898.832	-35.5
899.003	27.99
899.173	56.66
899.343	36.18
899.513	-29.35
