Data from USB4F104151__89__14-43-33-555.txt Node

Date: Thu Mar 13 14:43:33 EDT 2025
User: louis
Spectrometer: USB4F10415
Trigger mode: 4
Integration Time (sec): 2.000000E-2
Scans to average: 1
Electric dark correction enabled: true
Nonlinearity correction enabled: false
Boxcar width: 0
XAxis mode: Wavelengths
Number of Pixels in Spectrum: 3648
>>>>>Begin Spectral Data<<<<<
178.204	-132.95
178.424	-132.95
178.644	-132.95
178.864	-42.84
179.084	-48.98
179.304	-18.26
179.524	-12.12
179.744	-26.45
179.964	14.51
180.184	34.99
180.404	16.55
180.624	-24.4
180.844	-14.17
181.064	-10.07
181.283	-26.45
181.503	41.13
181.723	24.75
181.943	10.41
182.163	57.51
182.383	22.7
182.602	47.27
182.822	110.76
183.042	94.38
183.262	-5.97
183.482	57.51
183.701	2.22
183.921	30.89
184.141	88.23
184.361	131.24
184.58	14.51
184.8	71.85
185.02	-10.07
185.239	131.24
185.459	86.19
185.679	63.66
185.898	34.99
186.118	112.81
186.338	-26.45
186.557	34.99
186.777	-40.79
186.997	55.47
187.216	26.79
187.436	49.32
187.655	153.77
187.875	8.36
188.095	12.46
188.314	63.66
188.534	71.85
188.753	-32.6
188.973	65.71
189.192	16.55
189.412	-24.4
189.631	0.17
189.851	129.19
190.07	24.75
190.29	-3.93
190.509	-1.88
190.729	123.05
190.948	82.09
191.168	164.01
191.387	-1.88
191.607	71.85
191.826	0.17
192.045	55.47
192.265	84.14
192.484	24.75
192.704	-38.74
192.923	-57.17
193.142	139.43
193.362	49.32
193.581	47.27
193.8	-8.02
194.02	6.31
194.239	-30.55
194.458	22.7
194.678	-3.93
194.897	112.81
195.116	39.08
195.335	47.27
195.555	34.99
195.774	18.6
195.993	133.29
196.212	8.36
196.432	65.71
196.651	43.18
196.87	-16.21
197.089	88.23
197.308	88.23
197.528	71.85
197.747	16.55
197.966	16.55
198.185	82.09
198.404	30.89
198.623	82.09
198.842	32.94
199.062	129.19
199.281	67.75
199.5	26.79
199.719	-34.64
199.938	61.61
200.157	43.18
200.376	-10.07
200.595	61.61
200.814	30.89
201.033	-38.74
201.252	39.08
201.471	88.23
201.69	22.7
201.909	92.33
202.128	80.04
202.347	49.32
202.566	63.66
202.785	63.66
203.004	51.37
203.223	92.33
203.442	10.41
203.661	67.75
203.879	69.8
204.098	104.62
204.317	-55.12
204.536	92.33
204.755	-5.97
204.974	49.32
205.193	-10.07
205.411	80.04
205.63	80.04
205.849	22.7
206.068	6.31
206.287	55.47
206.505	90.28
206.724	24.75
206.943	-77.65
207.162	123.05
207.381	22.7
207.599	30.89
207.818	-8.02
208.037	34.99
208.255	-3.93
208.474	55.47
208.693	98.47
208.911	59.56
209.13	26.79
209.349	65.71
209.567	30.89
209.786	57.51
210.005	71.85
210.223	88.23
210.442	-42.84
210.661	63.66
210.879	22.7
211.098	49.32
211.316	-8.02
211.535	55.47
211.753	20.65
211.972	55.47
212.191	133.29
212.409	55.47
212.628	12.46
212.846	14.51
213.065	45.23
213.283	82.09
213.502	-8.02
213.72	-24.4
213.938	80.04
214.157	-20.31
214.375	123.05
214.594	37.03
214.812	8.36
215.031	-10.07
215.249	100.52
215.467	51.37
215.686	6.31
215.904	24.75
216.122	55.47
216.341	18.6
216.559	73.9
216.778	112.81
216.996	104.62
217.214	24.75
217.432	-22.36
217.651	20.65
217.869	24.75
218.087	-3.93
218.306	102.57
218.524	53.42
218.742	47.27
218.96	59.56
219.179	55.47
219.397	75.95
219.615	49.32
219.833	82.09
220.051	-10.07
220.27	51.37
220.488	6.31
220.706	55.47
220.924	39.08
221.142	26.79
221.36	-22.36
221.578	49.32
221.796	26.79
222.015	47.27
222.233	30.89
222.451	63.66
222.669	22.7
222.887	65.71
223.105	-10.07
223.323	-10.07
223.541	39.08
223.759	116.9
223.977	80.04
224.195	63.66
224.413	65.71
224.631	88.23
224.849	10.41
225.067	88.23
225.285	30.89
225.503	28.84
225.721	-18.26
225.939	22.7
226.157	65.71
226.375	178.34
226.592	28.84
226.81	-14.17
227.028	57.51
227.246	22.7
227.464	2.22
227.682	106.67
227.9	65.71
228.117	6.31
228.335	-14.17
228.553	45.23
228.771	63.66
228.989	71.85
229.206	51.37
229.424	63.66
229.642	16.55
229.86	43.18
230.077	39.08
230.295	96.43
230.513	116.9
230.731	100.52
230.948	75.95
231.166	75.95
231.384	28.84
231.601	75.95
231.819	55.47
232.037	6.31
232.254	16.55
232.472	47.27
232.689	32.94
232.907	80.04
233.125	34.99
233.342	-16.21
233.56	-8.02
233.777	51.37
233.995	18.6
234.213	100.52
234.43	114.86
234.648	71.85
234.865	22.7
235.083	63.66
235.3	96.43
235.518	32.94
235.735	32.94
235.953	47.27
236.17	-24.4
236.388	55.47
236.605	32.94
236.822	96.43
237.04	32.94
237.257	24.75
237.475	49.32
237.692	59.56
237.909	10.41
238.127	49.32
238.344	47.27
238.562	4.27
238.779	55.47
238.996	24.75
239.214	8.36
239.431	96.43
239.648	-34.64
239.865	34.99
240.083	18.6
240.3	92.33
240.517	102.57
240.735	-1.88
240.952	114.86
241.169	82.09
241.386	59.56
241.603	69.8
241.821	-40.79
242.038	67.75
242.255	24.75
242.472	-8.02
242.689	26.79
242.907	49.32
243.124	10.41
243.341	6.31
243.558	26.79
243.775	67.75
243.992	-10.07
244.209	108.71
244.426	45.23
244.643	88.23
244.86	55.47
245.078	22.7
245.295	14.51
245.512	32.94
245.729	22.7
245.946	32.94
246.163	63.66
246.38	18.6
246.597	26.79
246.814	63.66
247.031	53.42
247.248	82.09
247.464	39.08
247.681	43.18
247.898	108.71
248.115	47.27
248.332	34.99
248.549	39.08
248.766	100.52
248.983	57.51
249.2	37.03
249.417	84.14
249.633	39.08
249.85	63.66
250.067	-18.26
250.284	-3.93
250.501	51.37
250.717	141.48
250.934	26.79
251.151	39.08
251.368	18.6
251.585	61.61
251.801	67.75
252.018	55.47
252.235	-14.17
252.451	-30.55
252.668	55.47
252.885	34.99
253.102	-1.88
253.318	77.99
253.535	84.14
253.752	-5.97
253.968	-18.26
254.185	26.79
254.401	59.56
254.618	26.79
254.835	18.6
255.051	26.79
255.268	14.51
255.484	86.19
255.701	14.51
255.917	82.09
256.134	32.94
256.351	-1.88
256.567	47.27
256.784	53.42
257	88.23
257.217	88.23
257.433	59.56
257.65	59.56
257.866	30.89
258.082	-26.45
258.299	-34.64
258.515	98.47
258.732	6.31
258.948	-8.02
259.165	98.47
259.381	90.28
259.597	-14.17
259.814	14.51
260.03	12.46
260.246	26.79
260.463	96.43
260.679	92.33
260.895	26.79
261.112	116.9
261.328	26.79
261.544	-14.17
261.761	96.43
261.977	47.27
262.193	2.22
262.409	63.66
262.626	41.13
262.842	114.86
263.058	0.17
263.274	6.31
263.49	-81.75
263.707	92.33
263.923	43.18
264.139	90.28
264.355	47.27
264.571	98.47
264.787	94.38
265.004	47.27
265.22	8.36
265.436	-22.36
265.652	57.51
265.868	10.41
266.084	26.79
266.3	86.19
266.516	57.51
266.732	20.65
266.948	108.71
267.164	84.14
267.38	141.48
267.596	139.43
267.812	69.8
268.028	-1.88
268.244	24.75
268.46	34.99
268.676	88.23
268.892	96.43
269.108	8.36
269.324	-16.21
269.54	-14.17
269.756	104.62
269.972	49.32
270.188	14.51
270.403	-3.93
270.619	51.37
270.835	53.42
271.051	16.55
271.267	55.47
271.483	-22.36
271.698	30.89
271.914	14.51
272.13	-51.03
272.346	32.94
272.562	84.14
272.777	39.08
272.993	32.94
273.209	24.75
273.425	-38.74
273.64	43.18
273.856	84.14
274.072	55.47
274.287	51.37
274.503	47.27
274.719	55.47
274.934	8.36
275.15	16.55
275.366	-1.88
275.581	-1.88
275.797	55.47
276.012	92.33
276.228	-1.88
276.444	34.99
276.659	77.99
276.875	-10.07
277.09	41.13
277.306	43.18
277.521	14.51
277.737	32.94
277.952	71.85
278.168	88.23
278.383	98.47
278.599	49.32
278.814	86.19
279.03	43.18
279.245	41.13
279.461	67.75
279.676	63.66
279.892	39.08
280.107	59.56
280.322	-36.69
280.538	-40.79
280.753	-5.97
280.969	139.43
281.184	59.56
281.399	123.05
281.615	6.31
281.83	22.7
282.045	41.13
282.26	22.7
282.476	-10.07
282.691	65.71
282.906	22.7
283.122	55.47
283.337	8.36
283.552	106.67
283.767	106.67
283.983	-1.88
284.198	18.6
284.413	32.94
284.628	34.99
284.843	123.05
285.058	57.51
285.274	-3.93
285.489	45.23
285.704	133.29
285.919	57.51
286.134	18.6
286.349	-1.88
286.564	59.56
286.779	80.04
286.995	49.32
287.21	-8.02
287.425	22.7
287.64	4.27
287.855	41.13
288.07	18.6
288.285	39.08
288.5	22.7
288.715	30.89
288.93	30.89
289.145	82.09
289.36	53.42
289.575	57.51
289.79	10.41
290.004	16.55
290.219	82.09
290.434	77.99
290.649	-1.88
290.864	80.04
291.079	92.33
291.294	96.43
291.509	-34.64
291.724	6.31
291.938	10.41
292.153	-1.88
292.368	8.36
292.583	30.89
292.798	104.62
293.012	24.75
293.227	39.08
293.442	47.27
293.657	8.36
293.871	82.09
294.086	57.51
294.301	10.41
294.516	84.14
294.73	71.85
294.945	14.51
295.16	75.95
295.374	55.47
295.589	108.71
295.804	65.71
296.018	-24.4
296.233	80.04
296.447	30.89
296.662	16.55
296.877	125.1
297.091	55.47
297.306	55.47
297.52	-10.07
297.735	86.19
297.949	71.85
298.164	47.27
298.378	16.55
298.593	14.51
298.807	82.09
299.022	96.43
299.236	49.32
299.451	104.62
299.665	34.99
299.88	59.56
300.094	84.14
300.309	71.85
300.523	121
300.737	43.18
300.952	18.6
301.166	71.85
301.381	102.57
301.595	-12.12
301.809	6.31
302.024	98.47
302.238	57.51
302.452	-10.07
302.667	92.33
302.881	-48.98
303.095	121
303.309	82.09
303.524	51.37
303.738	59.56
303.952	-20.31
304.166	84.14
304.381	-40.79
304.595	59.56
304.809	39.08
305.023	61.61
305.237	-10.07
305.452	6.31
305.666	77.99
305.88	114.86
306.094	30.89
306.308	110.76
306.522	75.95
306.736	41.13
306.95	0.17
307.164	129.19
307.379	8.36
307.593	63.66
307.807	47.27
308.021	73.9
308.235	10.41
308.449	43.18
308.663	135.34
308.877	14.51
309.091	84.14
309.305	14.51
309.519	-32.6
309.733	49.32
309.947	41.13
310.161	71.85
310.374	24.75
310.588	114.86
310.802	2.22
311.016	108.71
311.23	65.71
311.444	18.6
311.658	-5.97
311.872	63.66
312.085	57.51
312.299	75.95
312.513	63.66
312.727	131.24
312.941	0.17
313.154	-18.26
313.368	-34.64
313.582	106.67
313.796	47.27
314.009	-32.6
314.223	63.66
314.437	6.31
314.651	51.37
314.864	39.08
315.078	55.47
315.292	69.8
315.505	47.27
315.719	104.62
315.933	112.81
316.146	43.18
316.36	-69.46
316.573	96.43
316.787	-1.88
317.001	121
317.214	59.56
317.428	98.47
317.641	-22.36
317.855	41.13
318.068	51.37
318.282	30.89
318.495	92.33
318.709	43.18
318.922	-42.84
319.136	51.37
319.349	4.27
319.563	-32.6
319.776	104.62
319.99	-34.64
320.203	98.47
320.417	96.43
320.63	63.66
320.843	75.95
321.057	55.47
321.27	34.99
321.483	63.66
321.697	106.67
321.91	55.47
322.124	41.13
322.337	30.89
322.55	49.32
322.763	16.55
322.977	49.32
323.19	0.17
323.403	24.75
323.617	26.79
323.83	112.81
324.043	75.95
324.256	106.67
324.469	6.31
324.683	57.51
324.896	22.7
325.109	55.47
325.322	-1.88
325.535	0.17
325.748	123.05
325.962	10.41
326.175	2.22
326.388	116.9
326.601	153.77
326.814	26.79
327.027	16.55
327.24	178.34
327.453	22.7
327.666	88.23
327.879	47.27
328.092	-24.4
328.305	26.79
328.518	18.6
328.731	-30.55
328.944	106.67
329.157	67.75
329.37	75.95
329.583	112.81
329.796	37.03
330.009	-22.36
330.222	80.04
330.435	8.36
330.648	55.47
330.861	59.56
331.073	14.51
331.286	65.71
331.499	22.7
331.712	4.27
331.925	51.37
332.138	51.37
332.35	112.81
332.563	-44.88
332.776	100.52
332.989	49.32
333.202	61.61
333.414	24.75
333.627	71.85
333.84	43.18
334.053	61.61
334.265	57.51
334.478	37.03
334.691	49.32
334.903	16.55
335.116	67.75
335.329	6.31
335.541	49.32
335.754	55.47
335.966	55.47
336.179	57.51
336.392	104.62
336.604	100.52
336.817	90.28
337.029	73.9
337.242	41.13
337.454	114.86
337.667	73.9
337.88	75.95
338.092	84.14
338.305	-14.17
338.517	108.71
338.729	88.23
338.942	34.99
339.154	104.62
339.367	30.89
339.579	121
339.792	55.47
340.004	133.29
340.217	24.75
340.429	47.27
340.641	6.31
340.854	71.85
341.066	45.23
341.278	92.33
341.491	164.01
341.703	65.71
341.915	67.75
342.128	10.41
342.34	63.66
342.552	22.7
342.764	43.18
342.977	49.32
343.189	45.23
343.401	16.55
343.613	28.84
343.826	71.85
344.038	131.24
344.25	92.33
344.462	30.89
344.674	55.47
344.886	-5.97
345.099	112.81
345.311	67.75
345.523	123.05
345.735	-5.97
345.947	116.9
346.159	22.7
346.371	65.71
346.583	84.14
346.795	63.66
347.007	86.19
347.219	143.53
347.431	32.94
347.643	43.18
347.855	53.42
348.067	186.54
348.279	-40.79
348.491	71.85
348.703	49.32
348.915	34.99
349.127	-16.21
349.339	22.7
349.551	80.04
349.763	98.47
349.975	106.67
350.187	98.47
350.399	153.77
350.61	30.89
350.822	-18.26
351.034	30.89
351.246	32.94
351.458	6.31
351.669	39.08
351.881	123.05
352.093	155.82
352.305	63.66
352.517	53.42
352.728	114.86
352.94	125.1
353.152	73.9
353.363	84.14
353.575	75.95
353.787	47.27
353.999	71.85
354.21	73.9
354.422	39.08
354.633	22.7
354.845	59.56
355.057	71.85
355.268	16.55
355.48	45.23
355.692	32.94
355.903	67.75
356.115	-18.26
356.326	0.17
356.538	92.33
356.749	-26.45
356.961	80.04
357.172	88.23
357.384	-30.55
357.595	90.28
357.807	39.08
358.018	22.7
358.23	47.27
358.441	104.62
358.653	137.38
358.864	-51.03
359.075	12.46
359.287	43.18
359.498	114.86
359.709	30.89
359.921	24.75
360.132	-10.07
360.344	12.46
360.555	-1.88
360.766	47.27
360.977	41.13
361.189	57.51
361.4	71.85
361.611	55.47
361.823	41.13
362.034	65.71
362.245	-32.6
362.456	34.99
362.667	96.43
362.879	10.41
363.09	80.04
363.301	39.08
363.512	55.47
363.723	96.43
363.935	43.18
364.146	100.52
364.357	86.19
364.568	84.14
364.779	57.51
364.99	55.47
365.201	-14.17
365.412	49.32
365.623	57.51
365.834	82.09
366.045	22.7
366.256	71.85
366.467	96.43
366.678	49.32
366.889	88.23
367.1	8.36
367.311	96.43
367.522	34.99
367.733	43.18
367.944	43.18
368.155	159.91
368.366	55.47
368.577	102.57
368.788	6.31
368.999	49.32
369.209	104.62
369.42	143.53
369.631	65.71
369.842	127.14
370.053	32.94
370.264	30.89
370.474	24.75
370.685	-14.17
370.896	116.9
371.107	80.04
371.317	147.62
371.528	75.95
371.739	106.67
371.95	123.05
372.16	59.56
372.371	90.28
372.582	61.61
372.792	82.09
373.003	55.47
373.214	-10.07
373.424	-1.88
373.635	47.27
373.846	28.84
374.056	90.28
374.267	49.32
374.477	80.04
374.688	51.37
374.898	86.19
375.109	63.66
375.319	39.08
375.53	63.66
375.74	57.51
375.951	65.71
376.161	88.23
376.372	98.47
376.582	100.52
376.793	131.24
377.003	30.89
377.214	57.51
377.424	8.36
377.635	51.37
377.845	-18.26
378.055	102.57
378.266	30.89
378.476	59.56
378.686	47.27
378.897	14.51
379.107	51.37
379.317	96.43
379.528	22.7
379.738	34.99
379.948	84.14
380.158	71.85
380.369	-1.88
380.579	96.43
380.789	104.62
380.999	98.47
381.21	92.33
381.42	84.14
381.63	73.9
381.84	41.13
382.05	90.28
382.261	145.58
382.471	49.32
382.681	86.19
382.891	137.38
383.101	47.27
383.311	57.51
383.521	43.18
383.731	30.89
383.941	63.66
384.151	65.71
384.361	26.79
384.571	96.43
384.781	100.52
384.991	88.23
385.201	94.38
385.411	75.95
385.621	39.08
385.831	133.29
386.041	-10.07
386.251	67.75
386.461	161.96
386.671	14.51
386.881	39.08
387.091	-8.02
387.301	157.86
387.511	69.8
387.72	65.71
387.93	71.85
388.14	57.51
388.35	14.51
388.56	127.14
388.769	104.62
388.979	22.7
389.189	16.55
389.399	69.8
389.609	63.66
389.818	80.04
390.028	34.99
390.238	108.71
390.447	37.03
390.657	49.32
390.867	16.55
391.076	18.6
391.286	80.04
391.496	137.38
391.705	65.71
391.915	59.56
392.125	77.99
392.334	55.47
392.544	59.56
392.753	55.47
392.963	47.27
393.172	47.27
393.382	53.42
393.591	69.8
393.801	57.51
394.01	141.48
394.22	30.89
394.429	63.66
394.639	90.28
394.848	65.71
395.058	30.89
395.267	80.04
395.477	96.43
395.686	108.71
395.895	88.23
396.105	106.67
396.314	159.91
396.524	112.81
396.733	147.62
396.942	100.52
397.152	75.95
397.361	80.04
397.57	30.89
397.78	121
397.989	100.52
398.198	231.59
398.407	59.56
398.617	80.04
398.826	77.99
399.035	123.05
399.244	112.81
399.453	67.75
399.663	104.62
399.872	131.24
400.081	121
400.29	131.24
400.499	88.23
400.708	155.82
400.917	114.86
401.127	51.37
401.336	18.6
401.545	153.77
401.754	145.58
401.963	141.48
402.172	63.66
402.381	135.34
402.59	75.95
402.799	82.09
403.008	90.28
403.217	92.33
403.426	147.62
403.635	159.91
403.844	82.09
404.053	170.15
404.262	123.05
404.471	196.78
404.68	166.06
404.888	106.67
405.097	133.29
405.306	153.77
405.515	198.82
405.724	125.1
405.933	207.02
406.142	67.75
406.35	121
406.559	227.5
406.768	223.4
406.977	239.78
407.185	180.39
407.394	235.69
407.603	192.68
407.812	227.5
408.02	237.74
408.229	178.34
408.438	164.01
408.646	325.8
408.855	184.49
409.064	262.31
409.272	256.17
409.481	227.5
409.69	233.64
409.898	293.03
410.107	329.89
410.315	276.65
410.524	260.26
410.733	327.85
410.941	293.03
411.15	315.56
411.358	354.47
411.567	362.66
411.775	356.52
411.984	346.28
412.192	362.66
412.401	385.19
412.609	377
412.818	438.44
413.026	413.86
413.234	522.4
413.443	532.64
413.651	479.4
413.86	516.26
414.068	499.88
414.276	538.79
414.485	641.18
414.693	530.59
414.901	673.95
415.11	655.52
415.318	622.75
415.526	596.13
415.734	714.91
415.943	686.24
416.151	776.35
416.359	661.66
416.567	829.6
416.776	837.79
416.984	907.42
417.192	927.9
417.4	860.32
417.608	874.65
417.817	960.67
418.025	1038.49
418.233	1063.07
418.441	1104.03
418.649	1056.92
418.857	1106.07
419.065	1140.89
419.273	1149.08
419.481	1112.22
419.689	1218.71
419.897	1341.59
420.105	1294.49
420.313	1392.79
420.521	1405.08
420.729	1398.93
420.937	1472.66
421.145	1542.29
421.353	1595.54
421.561	1632.4
421.769	1689.74
421.977	1861.77
422.185	1792.14
422.393	1931.41
422.601	1931.41
422.809	1966.22
423.017	1947.79
423.224	2109.58
423.432	2156.68
423.64	2189.45
423.848	2345.09
424.056	2269.32
424.263	2451.59
424.471	2500.74
424.679	2547.84
424.887	2721.92
425.094	2670.72
425.302	2726.02
425.51	2867.33
425.718	2914.43
425.925	2934.91
426.133	2979.97
426.341	3291.26
426.548	3383.42
426.756	3393.65
426.964	3356.79
427.171	3588.21
427.379	3717.23
427.586	3725.43
427.794	3965.04
428.001	4036.72
428.209	4167.79
428.417	4157.55
428.624	4397.16
428.832	4411.5
429.039	4372.58
429.247	4423.78
429.454	4896.86
429.662	5144.67
429.869	4741.22
430.076	5169.24
430.284	4966.49
430.491	5249.11
430.699	5488.73
430.906	5597.27
431.114	5656.66
431.321	5908.56
431.528	5929.04
431.736	6357.07
431.943	6510.66
432.15	6348.87
432.358	6449.22
432.565	6799.43
432.772	6891.59
432.979	7247.93
433.187	7323.71
433.394	7333.95
433.601	7608.37
433.808	7839.8
434.016	7718.96
434.223	8071.22
434.43	8548.39
434.637	8239.15
434.844	8593.45
435.052	9039.9
435.259	9078.82
435.466	9166.88
435.673	8855.59
435.88	9472.03
436.087	10059.79
436.294	10051.6
436.501	9687.06
436.708	9898
436.915	10235.92
437.122	10999.81
437.329	10792.97
437.537	11032.58
437.743	11251.71
437.95	11286.53
438.157	11831.29
438.364	12292.08
438.571	11880.44
438.778	12394.48
438.985	13314.02
439.192	12687.34
439.399	13254.62
439.606	12904.42
439.813	13836.25
440.02	14612.43
440.227	14114.77
440.433	14239.7
440.64	14532.56
440.847	14553.04
441.054	14942.15
441.261	15572.93
441.467	15685.56
441.674	15747
441.881	16453.55
442.088	16527.28
442.294	16283.57
442.501	16811.95
442.708	16959.4
442.914	17807.26
443.121	18728.84
443.328	17979.29
443.534	19083.14
443.741	18503.57
443.948	18200.47
444.154	19703.68
444.361	19756.93
444.568	19404.67
444.774	19591.04
444.981	19797.88
445.187	20479.86
445.394	21450.6
445.6	21204.84
445.807	23168.84
446.013	22271.83
446.22	22464.34
446.426	23312.2
446.633	23625.54
446.839	24344.38
447.046	23603.01
447.252	24788.78
447.459	24885.04
447.665	24624.95
447.871	25757.47
448.078	26773.27
448.284	25503.53
448.491	26507.03
448.697	27356.94
448.903	27692.8
449.11	27782.91
449.316	27535.11
449.522	28288.76
449.728	28557.05
449.935	29132.53
450.141	28776.18
450.347	29607.65
450.553	28915.44
450.76	29058.8
450.966	30351.07
451.172	29798.12
451.378	30326.49
451.584	29947.62
451.791	30617.3
451.997	30349.02
452.203	31137.49
452.409	31100.62
452.615	31028.95
452.821	30088.93
453.027	29818.6
453.233	31153.87
453.44	30004.96
453.646	30289.63
453.852	30574.3
454.058	30963.41
454.264	29920.99
454.47	30727.89
454.676	29628.13
454.882	30842.58
455.088	28299
455.294	28679.93
455.5	29034.22
455.705	29746.92
455.911	28268.28
456.117	27897.6
456.323	27537.16
456.529	25943.84
456.735	27445
456.941	26521.37
457.147	26332.95
457.352	25403.18
457.558	25190.19
457.764	25323.3
457.97	24915.76
458.176	24203.07
458.381	24270.65
458.587	23123.79
458.793	22976.33
458.999	21301.09
459.204	23904.06
459.41	22816.59
459.616	21096.3
459.821	21464.93
460.027	21415.78
460.233	20901.74
460.438	20008.83
460.644	20215.67
460.85	19292.04
461.055	18538.38
461.261	18769.8
461.466	17581.98
461.672	16840.62
461.878	18057.11
462.083	16977.83
462.289	16433.07
462.494	16349.11
462.7	15742.91
462.905	15302.59
463.111	15757.24
463.316	15749.05
463.522	15376.32
463.727	15622.08
463.932	15605.69
464.138	15321.02
464.343	15574.97
464.549	15046.6
464.754	15286.21
464.959	15159.24
465.165	15175.62
465.37	14424.01
465.575	14075.86
465.781	14628.81
465.986	14563.28
466.191	14268.37
466.397	13957.08
466.602	13424.61
466.807	13678.55
467.012	13907.93
467.218	13543.39
467.423	13375.45
467.628	13545.44
467.833	14186.45
468.038	13561.82
468.244	13223.9
468.449	13963.22
468.654	13455.33
468.859	13326.3
469.064	13191.14
469.269	12867.56
469.474	12859.37
469.679	13187.04
469.885	12670.95
470.09	12859.37
470.295	12883.94
470.5	12550.12
470.705	12650.47
470.91	12335.09
471.115	12212.21
471.32	12206.06
471.525	12480.49
471.73	12036.08
471.935	11894.77
472.139	11481.08
472.344	11778.04
472.549	11296.77
472.754	11501.56
472.959	11335.68
473.164	10958.85
473.369	10719.24
473.574	11100.16
473.778	11085.83
473.983	10921.99
474.188	10962.95
474.393	10459.15
474.598	10539.02
474.802	10475.53
475.007	10321.93
475.212	10291.21
475.417	9887.76
475.621	10057.75
475.826	9981.97
476.031	10016.79
476.235	9691.16
476.44	9922.58
476.645	9750.55
476.849	9689.11
477.054	9588.76
477.259	9412.64
477.463	9453.59
477.668	9000.99
477.872	9369.63
478.077	9115.68
478.282	8771.62
478.486	8986.66
478.691	8826.92
478.895	8779.81
479.1	8759.33
479.304	8730.66
479.509	8493.1
479.713	8638.5
479.918	8390.7
480.122	8206.38
480.326	8538.15
480.531	8390.7
480.735	8273.96
480.94	8159.28
481.144	8386.6
481.348	8103.98
481.553	8009.78
481.757	7970.87
481.961	7944.24
482.166	8253.48
482.37	8110.13
482.574	7962.67
482.778	8108.08
482.983	8187.95
483.187	7977.01
483.391	8089.65
483.595	8046.64
483.8	7972.91
484.004	7915.57
484.208	7972.91
484.412	8024.11
484.616	8230.96
484.821	8206.38
485.025	7774.26
485.229	7962.67
485.433	7858.23
485.637	7997.49
485.841	7952.43
486.045	7845.94
486.249	7936.05
486.453	7981.1
486.657	8050.74
486.861	7897.14
487.065	7667.77
487.269	8026.16
487.473	7944.24
487.677	7993.39
487.881	8245.29
488.085	7999.54
488.289	8185.9
488.493	7917.62
488.697	8063.02
488.901	8085.55
489.105	8153.13
489.309	8001.58
489.512	8167.47
489.716	8015.92
489.92	8159.28
490.124	7876.66
490.328	8247.34
490.531	8110.13
490.735	8183.85
490.939	8110.13
491.143	8214.57
491.346	8441.9
491.55	8355.88
491.754	8206.38
491.958	8370.22
492.161	8273.96
492.365	8413.23
492.569	8415.27
492.772	8402.99
492.976	8337.45
493.18	8683.56
493.383	8620.07
493.587	8683.56
493.79	8618.02
493.994	8585.26
494.197	8923.17
494.401	8861.73
494.605	8822.82
494.808	8953.89
495.012	8927.27
495.215	8912.93
495.419	9160.73
495.622	9134.11
495.825	9256.99
496.029	9177.12
496.232	9478.17
496.436	9316.38
496.639	9590.81
496.843	9564.18
497.046	9668.63
497.249	9963.54
497.453	10010.64
497.656	9908.24
497.859	9984.02
498.063	10364.94
498.266	10237.97
498.469	10176.53
498.673	10235.92
498.876	10592.27
499.079	10532.87
499.282	10618.89
499.485	10829.83
499.689	10948.61
499.892	10983.43
500.095	11149.31
500.298	11388.92
500.501	11161.6
500.705	11481.08
500.908	11657.21
501.111	12036.08
501.314	12072.95
501.517	12124.15
501.72	12367.85
501.923	12474.35
502.126	12410.86
502.329	12750.82
502.532	12644.33
502.735	12789.74
502.938	12992.48
503.141	13107.17
503.344	13244.38
503.547	13449.18
503.75	13400.03
503.953	13653.98
504.156	13901.78
504.359	14180.31
504.562	14247.89
504.765	14211.03
504.968	14401.49
505.17	14692.3
505.373	14393.3
505.576	14792.65
505.779	15185.86
505.982	14927.81
506.185	15345.6
506.387	15581.12
506.59	15417.28
506.793	15808.44
506.996	15785.91
507.198	16332.72
507.401	16129.97
507.604	16275.38
507.807	16707.5
508.009	16594.86
508.212	16707.5
508.415	17084.33
508.617	17375.14
508.82	17282.98
509.022	17313.7
509.225	17940.38
509.428	18034.58
509.63	18241.43
509.833	18147.22
510.035	18665.36
510.238	18450.32
510.44	18837.39
510.643	19019.66
510.845	19138.44
511.048	19390.34
511.25	19226.5
511.453	19828.6
511.655	20082.55
511.858	20250.49
512.06	20184.95
512.262	20316.02
512.465	20342.64
512.667	20637.55
512.87	21014.38
513.072	21116.78
513.274	21442.4
513.477	21649.25
513.679	21565.28
513.881	21806.94
514.084	22288.21
514.286	22249.3
514.488	22308.69
514.69	22773.58
514.893	22894.41
515.095	23021.39
515.297	23127.88
515.499	23418.69
515.701	23902.01
515.904	23910.21
516.106	24053.56
516.308	24311.61
516.51	24796.98
516.712	24620.85
516.914	24739.63
517.116	25188.14
517.318	25341.74
517.52	25251.63
517.722	25501.48
517.925	25990.94
518.127	26042.14
518.329	26251.03
518.531	26326.81
518.733	26941.2
518.935	27098.89
519.136	26969.87
519.338	27416.33
519.54	27602.69
519.742	28036.86
519.944	27795.2
520.146	28245.76
520.348	28491.51
520.55	28602.1
520.752	28641.01
520.954	28985.07
521.155	29249.26
521.357	29562.6
521.559	29591.27
521.761	30199.52
521.963	29632.23
522.164	30287.58
522.366	30334.68
522.568	30293.72
522.77	30498.52
522.971	31459.02
523.173	30916.31
523.375	31282.89
523.576	31270.61
523.778	31481.55
523.98	31698.63
524.181	31835.84
524.383	32085.7
524.584	32265.92
524.786	32440
524.988	32503.48
525.189	32648.89
525.391	32548.54
525.592	32917.17
525.794	32949.94
525.995	33359.53
526.197	33400.49
526.398	32872.12
526.6	33742.5
526.801	33662.63
527.003	33879.72
527.204	33998.5
527.406	33963.68
527.607	34008.74
527.808	34524.83
528.01	33636.01
528.211	34242.21
528.412	34877.08
528.614	34688.67
528.815	34576.03
529.016	35010.2
529.218	34465.44
529.419	34879.13
529.62	34915.99
529.822	34770.58
530.023	35071.64
530.224	34825.88
530.425	34967.19
530.626	35012.24
530.828	34963.09
531.029	35395.21
531.23	35372.69
531.431	35434.13
531.632	35415.69
531.833	35425.93
532.035	35726.99
532.236	35939.97
532.437	35772.04
532.638	35466.89
532.839	35860.1
533.04	36109.96
533.241	35395.21
533.442	36001.41
533.643	35554.96
533.844	35788.42
534.045	35704.46
534.246	35393.17
534.447	35667.59
534.648	35882.63
534.849	36015.75
535.05	35552.91
535.251	35937.93
535.451	35694.22
535.652	36152.96
535.853	35907.21
536.054	35870.34
536.255	35835.53
536.456	35714.7
536.657	36361.86
536.857	35876.49
537.058	35749.51
537.259	35698.31
537.46	35948.17
537.66	36058.76
537.861	35784.33
538.062	35831.43
538.263	36091.52
538.463	36050.56
538.664	36028.04
538.865	35833.48
539.065	36380.29
539.266	35571.34
539.466	36163.2
539.667	35503.76
539.868	36126.34
540.068	36011.65
540.269	35573.39
540.469	35833.48
540.67	35651.21
540.87	35663.5
541.071	35403.41
541.271	35765.9
541.472	35780.23
541.672	35937.93
541.873	35800.71
542.073	35102.36
542.274	36421.25
542.474	35880.58
542.675	34956.95
542.875	35923.59
543.075	35458.7
543.276	35501.71
543.476	35860.1
543.676	35464.85
543.877	35626.64
544.077	35526.28
544.277	35393.17
544.478	35395.21
544.678	35454.61
544.878	35423.89
545.078	35569.29
545.279	35106.45
545.479	35604.11
545.679	35978.89
545.879	35301.01
546.079	35413.65
546.28	35112.59
546.48	35356.3
546.68	35319.44
546.88	35313.3
547.08	35577.48
547.28	35290.77
547.48	34770.58
547.68	35552.91
547.88	35405.45
548.081	35339.92
548.281	35329.68
548.481	35133.07
548.681	35628.68
548.881	35456.65
549.081	35446.41
549.28	35262.1
549.48	35094.16
549.68	35208.85
549.88	35260.05
550.08	35083.92
550.28	35311.25
550.48	34934.42
550.68	35266.19
550.88	34793.11
551.08	34864.79
551.279	35382.93
551.479	34913.94
551.679	35364.5
551.879	34643.61
552.079	35102.36
552.278	34674.33
552.478	34999.96
552.678	35262.1
552.878	35124.88
553.077	35182.23
553.277	34727.58
553.477	35102.36
553.676	34674.33
553.876	34561.69
554.076	34645.66
554.275	34600.6
554.475	34281.12
554.674	34827.93
554.874	34473.63
555.074	34625.18
555.273	34520.73
555.473	34717.34
555.672	34404
555.872	34490.01
556.071	34731.67
556.271	34735.77
556.47	34219.68
556.67	34201.25
556.869	34332.32
557.068	34469.53
557.268	34066.08
557.467	33982.12
557.667	34336.41
557.866	34350.75
558.065	33959.59
558.265	34606.75
558.464	33904.29
558.663	34246.3
558.863	33533.61
559.062	34145.95
559.261	33629.87
559.461	34174.63
559.66	33593
559.859	34039.46
560.058	33601.19
560.258	33648.3
560.457	33586.86
560.656	33881.77
560.855	33693.35
561.054	33674.92
561.253	33353.39
561.453	33367.73
561.652	33490.6
561.851	33861.29
562.05	33148.59
562.249	33103.54
562.448	33380.01
562.647	33371.82
562.846	33349.29
563.045	32954.04
563.244	33011.38
563.443	33091.25
563.642	32403.13
563.841	33089.2
564.04	33070.77
564.239	32992.95
564.438	32886.45
564.637	32810.68
564.836	32620.22
565.035	32222.91
565.234	32394.94
565.432	32753.33
565.631	32489.15
565.83	32466.62
566.029	32362.17
566.228	32216.77
566.427	32038.59
566.625	32251.58
566.824	32100.03
567.023	32292.54
567.222	31438.54
567.42	31991.49
567.619	31635.14
567.818	31723.21
568.016	31868.61
568.215	31706.82
568.414	31373
568.612	31860.42
568.811	31497.93
569.01	31760.07
569.208	31143.63
569.407	31430.35
569.605	31254.22
569.804	31622.86
570.002	31166.16
570.201	31264.46
570.4	30795.48
570.598	30574.3
570.797	30529.24
570.995	31000.27
571.193	30473.95
571.392	31100.62
571.59	30572.25
571.789	30600.92
571.987	30330.59
572.186	30576.34
572.384	30107.36
572.582	30451.42
572.781	30498.52
572.979	30041.82
573.177	29955.81
573.376	30217.95
573.574	29759.2
573.772	30133.98
573.971	29720.29
574.169	29486.82
574.367	29615.85
574.565	29562.6
574.763	29345.51
574.962	29435.63
575.16	29060.85
575.358	29593.32
575.556	28958.45
575.754	29462.25
575.952	28819.19
576.151	29437.67
576.349	28587.77
576.547	28829.43
576.745	28940.02
576.943	28958.45
577.141	28729.08
577.339	28856.05
577.537	28270.33
577.735	28770.04
577.933	28407.55
578.131	28645.11
578.329	28245.76
578.527	28280.57
578.725	27948.8
578.923	28131.07
579.121	27850.5
579.319	27766.53
579.516	28227.32
579.714	27834.11
579.912	27715.33
580.11	27854.59
580.308	27662.08
580.506	27694.85
580.704	27107.09
580.901	27600.65
581.099	27778.82
581.297	27209.48
581.495	27191.05
581.692	27229.96
581.89	26967.82
582.088	27121.42
582.285	26949.39
582.483	27051.79
582.681	26851.09
582.878	26857.23
583.076	26760.98
583.274	26797.84
583.471	26232.6
583.669	26709.78
583.866	26277.66
584.064	26363.67
584.262	26109.72
584.459	26521.37
584.657	25986.85
584.854	26185.5
585.052	25736.99
585.249	25880.35
585.447	25974.56
585.644	25745.19
585.841	25802.53
586.039	25878.3
586.236	25184.04
586.434	25464.61
586.631	25394.98
586.828	25552.68
587.026	25628.45
587.223	25356.07
587.42	25493.29
587.618	25388.84
587.815	24969.01
588.012	24645.43
588.21	25081.64
588.407	25112.36
588.604	24835.89
588.801	24635.19
588.999	24682.29
589.196	24751.92
589.393	24248.12
589.59	24753.97
589.787	24391.48
589.984	24284.98
590.182	24149.82
590.379	24551.22
590.576	24268.6
590.773	24213.31
590.97	24084.28
591.167	23906.11
591.364	23887.68
591.561	24198.97
591.758	23721.79
591.955	23705.41
592.152	23912.25
592.349	23301.96
592.546	23623.49
592.743	23662.4
592.94	23174.99
593.137	23418.69
593.334	23478.08
593.531	22951.76
593.727	22998.86
593.924	23277.38
594.121	22710.1
594.318	22779.73
594.515	22773.58
594.712	22785.87
594.908	22837.07
595.105	22861.65
595.302	22517.59
595.499	22642.51
595.696	22382.42
595.892	22189.91
596.089	22462.29
596.286	22247.26
596.482	22165.34
596.679	22175.58
596.876	21872.48
597.072	21835.61
597.269	22036.31
597.466	21985.12
597.662	21872.48
597.859	21647.2
598.055	21686.11
598.252	21667.68
598.448	21684.06
598.645	21534.56
598.841	21192.55
599.038	21481.31
599.234	21397.35
599.431	21288.81
599.627	21106.54
599.824	21200.74
600.02	21012.33
600.217	21051.24
600.413	20770.67
600.609	20748.14
600.806	20789.1
601.002	20475.76
601.198	20649.84
601.395	20608.88
601.591	20379.51
601.787	20512.63
601.984	20359.03
602.18	20723.57
602.376	20215.67
602.572	20187
602.769	20096.89
602.965	19914.62
603.161	20268.92
603.357	19931
603.553	20152.18
603.75	19791.74
603.946	19875.71
604.142	19904.38
604.338	19423.11
604.534	19890.04
604.73	19429.25
604.926	19648.38
605.122	19873.66
605.318	19412.87
605.514	19371.91
605.71	19333
605.906	19373.96
606.102	19302.28
606.298	19156.87
606.494	19150.73
606.69	19017.61
606.886	18947.98
607.082	18872.2
607.278	19136.39
607.474	18624.4
607.67	19185.54
607.866	18821
608.062	18732.94
608.257	18726.8
608.453	18612.11
608.649	18460.56
608.845	18362.26
609.041	18587.54
609.236	18728.84
609.432	18327.44
609.628	18628.49
609.824	18292.63
610.019	18288.53
610.215	18227.09
610.411	18532.24
610.606	18167.7
610.802	18186.13
610.998	18038.68
611.193	18413.46
611.389	18053.02
611.584	18151.32
611.78	17921.95
611.976	17967
612.171	18206.61
612.367	17893.27
612.562	17913.75
612.758	17725.34
612.953	17745.82
613.149	17835.93
613.344	17577.89
613.539	17940.38
613.735	17624.99
613.93	17463.2
614.126	17860.51
614.321	17596.32
614.517	17557.41
614.712	17498.02
614.907	17389.47
615.103	17811.35
615.298	17405.86
615.493	17414.05
615.688	17100.71
615.884	17547.17
616.079	17106.85
616.274	17295.27
616.47	17385.38
616.665	17211.3
616.86	16926.63
617.055	17242.02
617.25	16998.31
617.445	17119.14
617.641	16818.09
617.836	17078.18
618.031	16543.66
618.226	16828.33
618.421	16549.81
618.616	16768.94
618.811	16345.01
619.006	16785.32
619.201	16508.85
619.396	16424.88
619.591	16158.64
619.786	16441.26
619.981	16156.6
620.176	16529.33
620.371	15857.59
620.566	15935.42
620.761	15994.81
620.956	16091.06
621.151	15820.73
621.346	16062.39
621.541	15865.78
621.735	15816.63
621.93	15454.14
622.125	15558.59
622.32	15179.72
622.515	15349.7
622.709	15226.82
622.904	15198.15
623.099	15269.83
623.294	15255.49
623.488	14970.82
623.683	15198.15
623.878	14639.05
624.072	14950.34
624.267	14669.77
624.462	14751.69
624.656	14294.99
624.851	14550.99
625.046	14546.89
625.24	14434.25
625.435	14139.35
625.629	14245.84
625.824	14155.73
626.018	13981.65
626.213	13836.25
626.407	13832.15
626.602	13576.16
626.796	13674.46
626.991	13846.49
627.185	13563.87
627.38	13527
627.574	13481.95
627.768	13377.5
627.963	13170.66
628.157	13115.36
628.352	13408.22
628.546	12963.81
628.74	13012.96
628.935	12984.29
629.129	13008.87
629.323	12974.05
629.517	12697.58
629.712	12597.23
629.906	12726.25
630.1	12410.86
630.294	12533.74
630.489	12308.46
630.683	12265.46
630.877	12277.74
631.071	12165.11
631.265	12462.06
631.459	12068.85
631.653	12052.47
631.848	11972.6
632.042	11638.78
632.236	11925.49
632.43	11765.75
632.624	11804.66
632.818	11704.31
633.012	11509.76
633.206	11673.59
633.4	11679.74
633.594	11225.09
633.788	11141.12
633.982	11362.3
634.176	11231.23
634.369	10919.94
634.563	11253.76
634.757	11100.16
634.951	11010.05
635.145	10989.57
635.339	11036.67
635.533	10858.5
635.726	10747.91
635.92	10436.62
636.114	10737.67
636.308	10553.35
636.501	10741.77
636.695	10455.05
636.889	10334.22
637.083	10244.11
637.276	10360.84
637.47	10139.66
637.664	10311.69
637.857	10301.45
638.051	10092.56
638.244	10059.79
638.438	10084.37
638.632	9959.44
638.825	9836.56
639.019	9895.96
639.212	9601.05
639.406	9537.56
639.599	9601.05
639.793	9685.01
639.986	9648.15
640.18	9625.62
640.373	9519.13
640.567	9338.91
640.76	9357.34
640.954	9365.53
641.147	9443.35
641.34	9207.84
641.534	9314.33
641.727	9345.05
641.92	9291.8
642.114	9044
642.307	9066.53
642.5	8831.01
642.694	8630.31
642.887	8765.48
643.08	8984.61
643.273	8566.82
643.467	8853.54
643.66	8640.55
643.853	8632.36
644.046	8595.5
644.239	8519.72
644.432	8517.67
644.626	8415.27
644.819	8495.15
645.012	8314.92
645.205	8325.16
645.398	8429.61
645.591	8288.3
645.784	8257.58
645.977	8149.04
646.17	8153.13
646.363	8200.24
646.556	7915.57
646.749	7936.05
646.942	8063.02
647.135	7989.3
647.328	7905.33
647.521	7934
647.714	7604.28
647.907	7839.8
648.099	7608.37
648.292	7526.46
648.485	7813.17
648.678	7510.07
648.871	7387.19
649.064	7471.16
649.256	7583.8
649.449	7329.85
649.642	7434.3
649.835	7364.67
650.027	7282.75
650.22	7239.74
650.413	7219.26
650.605	7102.53
650.798	7053.38
650.991	7059.52
651.183	7084.09
651.376	6953.02
651.568	7053.38
651.761	6961.22
651.954	6879.3
652.146	6897.73
652.339	6973.5
652.531	6828.1
652.724	6905.92
652.916	6617.16
653.109	6588.49
653.301	6578.25
653.494	6631.49
653.686	6611.01
653.879	6729.8
654.071	6367.31
654.263	6563.91
654.456	6359.11
654.648	6496.33
654.84	6381.64
655.033	6342.73
655.225	6338.63
655.417	6232.14
655.61	6359.11
655.802	6174.8
655.994	6111.31
656.186	6076.49
656.379	6285.39
656.571	6240.33
656.763	5883.98
656.955	6105.17
657.148	5945.42
657.34	6043.73
657.532	5873.75
657.724	5793.87
657.916	5824.59
658.108	5939.28
658.3	5875.79
658.492	5740.63
658.684	5636.18
658.876	5804.11
659.068	5744.72
659.26	5693.52
659.452	5699.67
659.644	5644.37
659.836	5552.21
660.028	5625.94
660.22	5445.72
660.412	5488.73
660.604	5335.13
660.796	5443.67
660.988	5345.37
661.18	5341.27
661.372	5290.07
661.563	5300.31
661.755	5060.7
661.947	5242.97
662.139	5267.55
662.331	5230.68
662.522	5093.47
662.714	5062.75
662.906	5208.16
663.097	5091.42
663.289	5038.17
663.481	4868.19
663.673	5081.18
663.864	4950.11
664.056	4782.18
664.247	4819.04
664.439	4894.82
664.631	4905.06
664.822	4927.58
665.014	4866.14
665.205	4876.38
665.397	4763.75
665.588	4798.56
665.78	4741.22
665.971	4659.3
666.163	4761.7
666.354	4638.82
666.546	4720.74
666.737	4548.71
666.929	4481.13
667.12	4546.66
667.311	4462.69
667.503	4429.93
667.694	4413.54
667.885	4489.32
668.077	4474.98
668.268	4319.34
668.459	4350.06
668.651	4429.93
668.842	4302.95
669.033	4331.62
669.224	4106.35
669.416	4196.46
669.607	4358.25
669.798	4345.96
669.989	4274.28
670.18	4229.23
670.371	4251.75
670.563	4253.8
670.754	4159.6
670.945	4227.18
671.136	4206.7
671.327	4067.44
671.518	4046.96
671.709	4034.67
671.9	3997.81
672.091	3922.03
672.282	3930.22
672.473	4102.25
672.664	4055.15
672.855	3997.81
673.046	3772.53
673.237	3977.33
673.428	3917.93
673.619	4022.38
673.809	3887.22
674	3803.25
674.191	3829.87
674.382	3717.23
674.573	3823.73
674.764	3866.74
674.954	3733.62
675.145	3793.01
675.336	3668.08
675.527	3663.99
675.717	3750
675.908	3594.36
676.099	3674.23
676.289	3747.95
676.48	3618.93
676.671	3702.9
676.861	3641.46
677.052	3666.03
677.243	3590.26
677.433	3588.21
677.624	3506.29
677.814	3563.64
678.005	3520.63
678.195	3436.66
678.386	3543.16
678.576	3496.05
678.767	3520.63
678.957	3471.48
679.148	3381.37
679.338	3457.14
679.529	3455.09
679.719	3465.33
679.909	3473.53
680.1	3506.29
680.29	3266.68
680.481	3287.16
680.671	3209.34
680.861	3444.85
681.052	3324.02
681.242	3274.87
681.432	3430.52
681.622	3295.35
681.813	3168.38
682.003	3219.58
682.193	3217.53
682.383	3217.53
682.573	3223.67
682.764	3213.43
682.954	3131.51
683.144	3258.49
683.334	3235.96
683.524	3192.95
683.714	3266.68
683.904	3092.6
684.094	3205.24
684.284	3053.69
684.474	3217.53
684.664	2988.16
684.854	3031.16
685.044	3102.84
685.234	2969.73
685.424	3209.34
685.614	2877.57
685.804	3135.61
685.994	3123.32
686.184	3074.17
686.374	2939.01
686.564	2914.43
686.753	2947.2
686.943	3029.12
687.133	2869.37
687.323	3037.31
687.513	2900.09
687.702	2977.92
687.892	2881.66
688.082	2822.27
688.272	2713.73
688.461	2867.33
688.651	2867.33
688.841	2785.41
689.03	2869.37
689.22	2717.83
689.41	2869.37
689.599	2816.13
689.789	2807.94
689.979	2697.35
690.168	2818.18
690.358	2777.22
690.547	2742.4
690.737	2842.75
690.926	2699.39
691.116	2568.32
691.305	2705.54
691.495	2605.19
691.684	2670.72
691.874	2545.8
692.063	2631.81
692.252	2662.53
692.442	2668.67
692.631	2627.71
692.82	2570.37
693.01	2472.07
693.199	2533.51
693.388	2506.88
693.578	2529.41
693.767	2566.28
693.956	2437.25
694.146	2519.17
694.335	2406.53
694.524	2506.88
694.713	2486.4
694.902	2476.16
695.092	2455.69
695.281	2521.22
695.47	2400.39
695.659	2316.42
695.848	2373.77
696.037	2271.37
696.226	2373.77
696.415	2392.2
696.604	2488.45
696.793	2480.26
696.982	2388.1
697.171	2357.38
697.36	2394.25
697.549	2367.62
697.738	2306.18
697.927	2250.89
698.116	2240.65
698.305	2359.43
698.494	2320.52
698.683	2334.86
698.872	2406.53
699.061	2347.14
699.25	2259.08
699.438	2246.79
699.627	2238.6
699.816	2418.82
700.005	2250.89
700.193	2205.83
700.382	2183.31
700.571	2320.52
700.76	2336.9
700.948	2332.81
701.137	2097.29
701.326	2236.55
701.514	2220.17
701.703	2181.26
701.892	2211.98
702.08	2267.27
702.269	2132.11
702.457	2203.79
702.646	2236.55
702.834	2195.59
703.023	2211.98
703.212	2119.82
703.4	2082.95
703.589	2138.25
703.777	2140.3
703.965	2064.52
704.154	2095.24
704.342	2168.97
704.531	2144.39
704.719	2025.61
704.907	2168.97
705.096	2111.63
705.284	2119.82
705.472	2054.28
705.661	2058.38
705.849	2146.44
706.037	2216.07
706.226	2015.37
706.414	2185.35
706.602	2050.19
706.79	2117.77
706.979	2039.95
707.167	2160.78
707.355	2203.79
707.543	2216.07
707.731	2136.2
707.919	2068.62
708.107	2095.24
708.296	2146.44
708.484	2095.24
708.672	2072.72
708.86	2173.07
709.048	2082.95
709.236	2029.71
709.424	2085
709.612	2103.43
709.8	2035.85
709.988	2001.04
710.176	2152.59
710.364	2105.48
710.551	2113.67
710.739	2025.61
710.927	2087.05
711.115	2017.42
711.303	2107.53
711.491	2076.81
711.679	2017.42
711.866	2095.24
712.054	2119.82
712.242	2005.13
712.43	2091.15
712.617	2070.67
712.805	1990.8
712.993	2039.95
713.181	2062.48
713.368	2005.13
713.556	1947.79
713.744	1915.02
713.931	2070.67
714.119	2056.33
714.306	2132.11
714.494	1931.41
714.682	2087.05
714.869	2054.28
715.057	2042
715.244	1988.75
715.432	2091.15
715.619	2033.8
715.807	2103.43
715.994	2015.37
716.182	1955.98
716.369	1925.26
716.556	1990.8
716.744	2003.08
716.931	2009.23
717.119	2080.91
717.306	2117.77
717.493	2103.43
717.681	2115.72
717.868	1988.75
718.055	2082.95
718.242	2027.66
718.43	2015.37
718.617	2039.95
718.804	2031.76
718.991	2009.23
719.179	1937.55
719.366	2037.9
719.553	2042
719.74	2064.52
719.927	2039.95
720.114	1976.46
720.301	1880.21
720.488	1951.88
720.676	1988.75
720.863	2066.57
721.05	1923.21
721.237	2095.24
721.424	2087.05
721.611	2042
721.798	2009.23
721.985	2087.05
722.172	2056.33
722.358	1982.6
722.545	2017.42
722.732	1931.41
722.919	1968.27
723.106	2031.76
723.293	2023.56
723.48	1968.27
723.667	2033.8
723.853	1902.73
724.04	2001.04
724.227	2001.04
724.414	2058.38
724.6	1955.98
724.787	2066.57
724.974	1874.06
725.161	2103.43
725.347	1833.1
725.534	2021.52
725.72	1857.68
725.907	1939.6
726.094	2091.15
726.28	1992.84
726.467	1955.98
726.653	1941.65
726.84	2009.23
727.027	1882.25
727.213	1943.69
727.4	2021.52
727.586	2138.25
727.773	1949.84
727.959	2009.23
728.145	2037.9
728.332	1988.75
728.518	1884.3
728.705	1939.6
728.891	1974.41
729.077	1882.25
729.264	1906.83
729.45	1874.06
729.636	2121.87
729.823	1923.21
730.009	1980.56
730.195	1964.17
730.382	2021.52
730.568	1990.8
730.754	1890.45
730.94	1984.65
731.126	1972.36
731.313	1947.79
731.499	2013.32
731.685	2082.95
731.871	1996.94
732.057	1998.99
732.243	1982.6
732.429	2009.23
732.615	1931.41
732.801	1921.17
732.987	2005.13
733.173	1882.25
733.359	2013.32
733.545	2060.43
733.731	1931.41
733.917	1980.56
734.103	2058.38
734.289	1992.84
734.475	1966.22
734.661	2089.1
734.847	1927.31
735.033	2087.05
735.219	1970.32
735.404	1843.34
735.59	1896.59
735.776	1915.02
735.962	1968.27
736.148	1998.99
736.333	1824.91
736.519	2037.9
736.705	1804.43
736.89	1882.25
737.076	1990.8
737.262	1906.83
737.447	2021.52
737.633	1970.32
737.819	1953.93
738.004	1824.91
738.19	1949.84
738.375	1890.45
738.561	2058.38
738.747	1853.58
738.932	1790.1
739.118	1863.82
739.303	1915.02
739.489	1941.65
739.674	1876.11
739.859	1802.38
740.045	1912.97
740.23	1851.53
740.416	1835.15
740.601	1878.16
740.786	1955.98
740.972	1884.3
741.157	1876.11
741.342	1681.55
741.528	1919.12
741.713	1783.95
741.898	1755.28
742.084	1759.38
742.269	1900.69
742.454	1775.76
742.639	1769.62
742.824	1777.81
743.01	1736.85
743.195	1779.86
743.38	1794.19
743.565	1718.42
743.75	1788.05
743.935	1738.9
744.12	1753.23
744.305	1679.51
744.49	1661.07
744.675	1779.86
744.86	1734.8
745.045	1704.08
745.23	1681.55
745.415	1726.61
745.6	1738.9
745.785	1605.78
745.97	1697.94
746.155	1702.03
746.34	1644.69
746.525	1642.64
746.71	1695.89
746.895	1618.07
747.079	1677.46
747.264	1706.13
747.449	1644.69
747.634	1667.22
747.819	1628.31
748.003	1521.81
748.188	1599.63
748.373	1468.56
748.557	1669.27
748.742	1550.48
748.927	1482.9
749.111	1491.09
749.296	1513.62
749.481	1538.2
749.665	1628.31
749.85	1505.43
750.034	1431.7
750.219	1423.51
750.404	1579.15
750.588	1484.95
750.773	1370.26
750.957	1452.18
751.141	1372.31
751.326	1448.08
751.51	1427.6
751.695	1366.17
751.879	1521.81
752.064	1374.36
752.248	1343.64
752.432	1538.2
752.617	1472.66
752.801	1321.11
752.985	1374.36
753.17	1411.22
753.354	1353.88
753.538	1372.31
753.722	1407.13
753.907	1259.67
754.091	1304.73
754.275	1251.48
754.459	1333.4
754.643	1376.41
754.828	1237.14
755.012	1253.53
755.196	1214.62
755.38	1144.99
755.564	1204.38
755.748	1169.56
755.932	1271.96
756.116	1157.27
756.3	1231
756.484	1177.75
756.668	1208.47
756.852	1224.86
757.036	1228.95
757.22	1190.04
757.404	1120.41
757.588	1138.84
757.772	1120.41
757.956	1095.83
758.14	1095.83
758.323	1063.07
758.507	1112.22
758.691	1093.79
758.875	1087.64
759.059	993.44
759.242	1095.83
759.426	1095.83
759.61	1079.45
759.794	983.2
759.977	1147.03
760.161	1120.41
760.345	1081.5
760.528	1048.73
760.712	1147.03
760.895	1128.6
761.079	1040.54
761.263	1058.97
761.446	1050.78
761.63	1079.45
761.813	993.44
761.997	979.1
762.18	934.04
762.364	1009.82
762.547	962.72
762.731	997.53
762.914	991.39
763.098	956.57
763.281	981.15
763.464	1067.16
763.648	952.48
763.831	923.8
764.015	960.67
764.198	1036.44
764.381	919.71
764.564	958.62
764.748	932
764.931	1071.26
765.114	948.38
765.297	919.71
765.481	862.37
765.664	800.93
765.847	884.89
766.03	825.5
766.213	938.14
766.397	876.7
766.58	841.89
766.763	848.03
766.946	872.61
767.129	899.23
767.312	876.7
767.495	854.17
767.678	809.12
767.861	917.66
768.044	915.61
768.227	868.51
768.41	839.84
768.593	809.12
768.776	800.93
768.959	841.89
769.142	841.89
769.324	800.93
769.507	831.65
769.69	792.73
769.873	776.35
770.056	884.89
770.239	874.65
770.421	813.21
770.604	860.32
770.787	825.5
770.97	800.93
771.152	882.85
771.335	841.89
771.518	721.06
771.7	788.64
771.883	850.08
772.066	794.78
772.248	843.93
772.431	770.21
772.613	862.37
772.796	800.93
772.978	743.58
773.161	743.58
773.343	725.15
773.526	702.62
773.708	698.53
773.891	678.05
774.073	731.3
774.256	714.91
774.438	753.82
774.621	737.44
774.803	733.34
774.985	637.09
775.168	716.96
775.35	653.47
775.532	686.24
775.715	649.38
775.897	669.86
776.079	694.43
776.261	606.37
776.444	649.38
776.626	749.73
776.808	710.82
776.99	581.79
777.173	614.56
777.355	673.95
777.537	702.62
777.719	622.75
777.901	645.28
778.083	606.37
778.265	622.75
778.447	661.66
778.629	573.6
778.811	524.45
778.993	669.86
779.175	598.18
779.357	667.81
779.539	544.93
779.721	624.8
779.903	624.8
780.085	665.76
780.267	616.61
780.449	606.37
780.631	544.93
780.812	579.75
780.994	506.02
781.176	544.93
781.358	440.48
781.54	592.03
781.721	524.45
781.903	567.46
782.085	495.78
782.267	454.82
782.448	450.72
782.63	549.03
782.812	506.02
782.993	508.07
783.175	538.79
783.357	440.48
783.538	424.1
783.72	465.06
783.901	485.54
784.083	544.93
784.264	501.92
784.446	409.76
784.627	518.31
784.809	522.4
784.99	434.34
785.172	473.25
785.353	495.78
785.535	411.81
785.716	374.95
785.897	424.1
786.079	440.48
786.26	440.48
786.441	399.52
786.623	407.72
786.804	407.72
786.985	440.48
787.167	424.1
787.348	352.42
787.529	467.11
787.71	401.57
787.891	411.81
788.073	428.2
788.254	381.09
788.435	467.11
788.616	370.85
788.797	381.09
788.978	336.04
789.159	385.19
789.34	417.96
789.522	420
789.703	383.14
789.884	381.09
790.065	358.57
790.246	391.33
790.427	401.57
790.607	317.61
790.788	350.37
790.969	309.41
791.15	350.37
791.331	333.99
791.512	284.84
791.693	354.47
791.874	352.42
792.054	385.19
792.235	426.15
792.416	354.47
792.597	346.28
792.778	393.38
792.958	254.12
793.139	342.18
793.32	428.2
793.5	333.99
793.681	333.99
793.862	276.65
794.042	303.27
794.223	342.18
794.404	319.65
794.584	272.55
794.765	276.65
794.945	317.61
795.126	364.71
795.306	290.98
795.487	231.59
795.667	293.03
795.848	325.8
796.028	307.37
796.209	336.04
796.389	340.13
796.57	301.22
796.75	223.4
796.93	393.38
797.111	198.82
797.291	307.37
797.471	315.56
797.652	247.97
797.832	256.17
798.012	309.41
798.192	213.16
798.373	250.02
798.553	237.74
798.733	247.97
798.913	264.36
799.093	243.88
799.274	233.64
799.454	264.36
799.634	309.41
799.814	286.89
799.994	354.47
800.174	239.78
800.354	301.22
800.534	245.93
800.714	295.08
800.894	245.93
801.074	235.69
801.254	153.77
801.434	336.04
801.614	198.82
801.794	204.97
801.974	819.36
802.154	239.78
802.334	207.02
802.514	202.92
802.693	245.93
802.873	207.02
803.053	235.69
803.233	213.16
803.413	211.11
803.592	178.34
803.772	121
803.952	231.59
804.131	198.82
804.311	213.16
804.491	280.74
804.67	174.25
804.85	186.54
805.03	247.97
805.209	211.11
805.389	207.02
805.568	256.17
805.748	192.68
805.928	247.97
806.107	262.31
806.287	209.06
806.466	301.22
806.646	270.5
806.825	147.62
807.004	129.19
807.184	180.39
807.363	239.78
807.543	256.17
807.722	223.4
807.901	202.92
808.081	243.88
808.26	139.43
808.439	147.62
808.619	182.44
808.798	176.3
808.977	227.5
809.156	204.97
809.336	186.54
809.515	227.5
809.694	161.96
809.873	131.24
810.052	98.47
810.231	155.82
810.411	180.39
810.59	202.92
810.769	186.54
810.948	278.69
811.127	166.06
811.306	182.44
811.485	161.96
811.664	227.5
811.843	131.24
812.022	88.23
812.201	123.05
812.38	147.62
812.559	194.73
812.737	139.43
812.916	149.67
813.095	121
813.274	168.1
813.453	241.83
813.632	145.58
813.811	139.43
813.989	194.73
814.168	129.19
814.347	151.72
814.526	221.35
814.704	166.06
814.883	182.44
815.062	92.33
815.24	151.72
815.419	43.18
815.598	73.9
815.776	106.67
815.955	129.19
816.133	96.43
816.312	161.96
816.49	121
816.669	170.15
816.847	170.15
817.026	135.34
817.204	121
817.383	143.53
817.561	145.58
817.74	170.15
817.918	71.85
818.097	143.53
818.275	129.19
818.453	213.16
818.632	202.92
818.81	121
818.988	67.75
819.167	125.1
819.345	141.48
819.523	180.39
819.701	147.62
819.879	110.76
820.058	71.85
820.236	223.4
820.414	94.38
820.592	71.85
820.77	88.23
820.948	59.56
821.127	51.37
821.305	121
821.483	147.62
821.661	49.32
821.839	96.43
822.017	114.86
822.195	168.1
822.373	211.11
822.551	137.38
822.729	57.51
822.907	96.43
823.085	49.32
823.262	145.58
823.44	39.08
823.618	170.15
823.796	63.66
823.974	102.57
824.152	90.28
824.329	88.23
824.507	174.25
824.685	118.95
824.863	-18.26
825.04	94.38
825.218	121
825.396	141.48
825.574	129.19
825.751	43.18
825.929	104.62
826.107	147.62
826.284	161.96
826.462	137.38
826.639	92.33
826.817	67.75
826.994	96.43
827.172	100.52
827.349	98.47
827.527	65.71
827.704	112.81
827.882	80.04
828.059	170.15
828.237	110.76
828.414	166.06
828.591	67.75
828.769	77.99
828.946	8.36
829.124	90.28
829.301	125.1
829.478	75.95
829.655	75.95
829.833	73.9
830.01	61.61
830.187	82.09
830.364	47.27
830.542	47.27
830.719	88.23
830.896	133.29
831.073	55.47
831.25	57.51
831.427	104.62
831.604	112.81
831.782	104.62
831.959	121
832.136	118.95
832.313	63.66
832.49	125.1
832.667	190.63
832.844	49.32
833.021	100.52
833.198	94.38
833.374	129.19
833.551	75.95
833.728	116.9
833.905	108.71
834.082	34.99
834.259	43.18
834.436	30.89
834.612	16.55
834.789	90.28
834.966	153.77
835.143	90.28
835.319	30.89
835.496	96.43
835.673	75.95
835.85	96.43
836.026	116.9
836.203	96.43
836.38	71.85
836.556	114.86
836.733	88.23
836.909	71.85
837.086	41.13
837.262	116.9
837.439	106.67
837.616	92.33
837.792	34.99
837.968	127.14
838.145	63.66
838.321	14.51
838.498	104.62
838.674	118.95
838.851	24.75
839.027	104.62
839.203	30.89
839.38	47.27
839.556	10.41
839.732	82.09
839.909	-3.93
840.085	104.62
840.261	22.7
840.437	112.81
840.614	41.13
840.79	73.9
840.966	112.81
841.142	80.04
841.318	61.61
841.494	22.7
841.671	71.85
841.847	61.61
842.023	39.08
842.199	0.17
842.375	69.8
842.551	20.65
842.727	84.14
842.903	92.33
843.079	4.27
843.255	-1.88
843.431	61.61
843.607	121
843.783	30.89
843.959	123.05
844.134	55.47
844.31	88.23
844.486	10.41
844.662	65.71
844.838	63.66
845.013	8.36
845.189	86.19
845.365	65.71
845.541	39.08
845.716	8.36
845.892	73.9
846.068	55.47
846.244	43.18
846.419	80.04
846.595	22.7
846.77	4.27
846.946	82.09
847.122	110.76
847.297	92.33
847.473	143.53
847.648	45.23
847.824	63.66
847.999	86.19
848.175	65.71
848.35	67.75
848.526	88.23
848.701	30.89
848.876	98.47
849.052	75.95
849.227	49.32
849.403	75.95
849.578	55.47
849.753	10.41
849.929	73.9
850.104	65.71
850.279	18.6
850.454	100.52
850.63	82.09
850.805	-18.26
850.98	96.43
851.155	-3.93
851.33	98.47
851.505	-48.98
851.681	80.04
851.856	10.41
852.031	112.81
852.206	53.42
852.381	47.27
852.556	30.89
852.731	69.8
852.906	24.75
853.081	67.75
853.256	106.67
853.431	30.89
853.606	57.51
853.781	73.9
853.956	16.55
854.131	59.56
854.305	-67.41
854.48	73.9
854.655	-34.64
854.83	92.33
855.005	82.09
855.18	90.28
855.354	10.41
855.529	22.7
855.704	43.18
855.879	61.61
856.053	2.22
856.228	75.95
856.403	-10.07
856.577	16.55
856.752	16.55
856.926	2.22
857.101	6.31
857.276	39.08
857.45	49.32
857.625	104.62
857.799	18.6
857.974	114.86
858.148	-51.03
858.323	123.05
858.497	30.89
858.672	92.33
858.846	-67.41
859.02	104.62
859.195	12.46
859.369	30.89
859.543	88.23
859.718	26.79
859.892	-8.02
860.066	12.46
860.241	6.31
860.415	137.38
860.589	18.6
860.763	65.71
860.938	51.37
861.112	84.14
861.286	39.08
861.46	22.7
861.634	24.75
861.808	59.56
861.982	-40.79
862.157	73.9
862.331	55.47
862.505	-32.6
862.679	55.47
862.853	2.22
863.027	30.89
863.201	65.71
863.375	-14.17
863.549	16.55
863.722	-10.07
863.896	22.7
864.07	-10.07
864.244	59.56
864.418	80.04
864.592	4.27
864.766	-55.12
864.939	80.04
865.113	65.71
865.287	141.48
865.461	34.99
865.634	45.23
865.808	67.75
865.982	57.51
866.156	-10.07
866.329	-22.36
866.503	65.71
866.676	80.04
866.85	67.75
867.024	32.94
867.197	75.95
867.371	57.51
867.544	37.03
867.718	-18.26
867.891	51.37
868.065	6.31
868.238	24.75
868.412	43.18
868.585	6.31
868.759	34.99
868.932	24.75
869.105	22.7
869.279	-10.07
869.452	-10.07
869.625	-18.26
869.799	51.37
869.972	67.75
870.145	39.08
870.319	123.05
870.492	47.27
870.665	-30.55
870.838	0.17
871.011	-24.4
871.185	0.17
871.358	16.55
871.531	90.28
871.704	-10.07
871.877	65.71
872.05	-14.17
872.223	26.79
872.396	0.17
872.569	0.17
872.742	-44.88
872.915	88.23
873.088	14.51
873.261	-22.36
873.434	-1.88
873.607	63.66
873.78	-3.93
873.953	30.89
874.126	37.03
874.299	59.56
874.471	49.32
874.644	-8.02
874.817	-1.88
874.99	75.95
875.163	-22.36
875.335	0.17
875.508	88.23
875.681	123.05
875.853	-5.97
876.026	0.17
876.199	30.89
876.371	-34.64
876.544	-16.21
876.717	63.66
876.889	26.79
877.062	18.6
877.234	-1.88
877.407	49.32
877.579	22.7
877.752	39.08
877.924	26.79
878.097	30.89
878.269	118.95
878.442	34.99
878.614	45.23
878.786	82.09
878.959	6.31
879.131	30.89
879.303	47.27
879.476	-1.88
879.648	37.03
879.82	88.23
879.993	0.17
880.165	14.51
880.337	-16.21
880.509	22.7
880.681	14.51
880.854	-57.17
881.026	-1.88
881.198	75.95
881.37	-38.74
881.542	-12.12
881.714	0.17
881.886	-32.6
882.058	18.6
882.23	32.94
882.402	-36.69
882.574	-1.88
882.746	14.51
882.918	65.71
883.09	53.42
883.262	-42.84
883.434	47.27
883.606	-69.46
883.778	57.51
883.95	88.23
884.122	-24.4
884.293	112.81
884.465	-10.07
884.637	41.13
884.809	-51.03
884.98	4.27
885.152	18.6
885.324	32.94
885.496	65.71
885.667	16.55
885.839	121
886.011	-10.07
886.182	-1.88
886.354	63.66
886.525	-22.36
886.697	-10.07
886.869	12.46
887.04	34.99
887.212	22.7
887.383	135.34
887.555	-32.6
887.726	-10.07
887.897	34.99
888.069	14.51
888.24	57.51
888.412	10.41
888.583	37.03
888.754	82.09
888.926	-48.98
889.097	57.51
889.268	16.55
889.44	-18.26
889.611	14.51
889.782	-26.45
889.953	-5.97
890.125	30.89
890.296	30.89
890.467	26.79
890.638	24.75
890.809	49.32
890.98	30.89
891.151	47.27
891.323	75.95
891.494	-26.45
891.665	-22.36
891.836	104.62
892.007	-5.97
892.178	28.84
892.349	34.99
892.52	-5.97
892.691	-8.02
892.862	49.32
893.032	-10.07
893.203	6.31
893.374	41.13
893.545	112.81
893.716	6.31
893.887	-8.02
894.057	-16.21
894.228	18.6
894.399	-16.21
894.57	73.9
894.74	16.55
894.911	47.27
895.082	-42.84
895.253	4.27
895.423	22.7
895.594	90.28
895.764	47.27
895.935	-55.12
896.106	90.28
896.276	30.89
896.447	32.94
896.617	47.27
896.788	-67.41
896.958	-30.55
897.129	47.27
897.299	57.51
897.47	22.7
897.64	24.75
897.81	12.46
897.981	55.47
898.151	-40.79
898.322	57.51
898.492	39.08
898.662	-20.31
898.832	-51.03
899.003	82.09
899.173	34.99
899.343	0.17
899.513	10.41
