Data from USB4F104151__67__14-43-18-238.txt Node

Date: Thu Mar 13 14:43:18 EDT 2025
User: louis
Spectrometer: USB4F10415
Trigger mode: 4
Integration Time (sec): 2.000000E-2
Scans to average: 1
Electric dark correction enabled: true
Nonlinearity correction enabled: false
Boxcar width: 0
XAxis mode: Wavelengths
Number of Pixels in Spectrum: 3648
>>>>>Begin Spectral Data<<<<<
178.204	-55.81
178.424	-55.81
178.644	-55.81
178.864	-127.49
179.084	-135.68
179.304	-14.85
179.524	36.35
179.744	28.16
179.964	13.82
180.184	36.35
180.404	-4.61
180.624	-55.81
180.844	34.3
181.064	-78.33
181.283	-47.62
181.503	-23.04
181.723	75.26
181.943	-2.56
182.163	58.88
182.383	-37.38
182.602	-4.61
182.822	62.98
183.042	38.4
183.262	-29.18
183.482	19.97
183.701	-43.52
183.921	-6.66
184.141	-72.19
184.361	77.31
184.58	9.73
184.8	75.26
185.02	52.74
185.239	13.82
185.459	-27.14
185.679	28.16
185.898	-70.14
186.118	40.45
186.338	5.63
186.557	34.3
186.777	-41.47
186.997	1.54
187.216	-10.75
187.436	26.11
187.655	17.92
187.875	58.88
188.095	-31.23
188.314	1.54
188.534	17.92
188.753	-39.42
188.973	-10.75
189.192	-2.56
189.412	44.54
189.631	34.3
189.851	-43.52
190.07	75.26
190.29	-2.56
190.509	-12.8
190.729	13.82
190.948	19.97
191.168	52.74
191.387	67.07
191.607	-2.56
191.826	3.58
192.045	-14.85
192.265	-29.18
192.484	30.21
192.704	75.26
192.923	-20.99
193.142	44.54
193.362	15.87
193.581	36.35
193.8	1.54
194.02	46.59
194.239	-57.86
194.458	-31.23
194.678	-43.52
194.897	30.21
195.116	83.45
195.335	22.02
195.555	60.93
195.774	91.65
195.993	15.87
196.212	-2.56
196.432	11.78
196.651	38.4
196.87	58.88
197.089	42.5
197.308	26.11
197.528	62.98
197.747	-0.51
197.966	71.17
198.185	103.93
198.404	-10.75
198.623	87.55
198.842	38.4
199.062	-18.94
199.281	108.03
199.5	5.63
199.719	-14.85
199.938	5.63
200.157	58.88
200.376	-25.09
200.595	-10.75
200.814	1.54
201.033	69.12
201.252	9.73
201.471	50.69
201.69	30.21
201.909	50.69
202.128	79.36
202.347	-6.66
202.566	1.54
202.785	-20.99
203.004	-61.95
203.223	69.12
203.442	-25.09
203.661	-39.42
203.879	42.5
204.098	36.35
204.317	-31.23
204.536	28.16
204.755	-49.66
204.974	75.26
205.193	13.82
205.411	11.78
205.63	69.12
205.849	81.41
206.068	-0.51
206.287	-23.04
206.505	-8.7
206.724	50.69
206.943	17.92
207.162	19.97
207.381	83.45
207.599	-88.57
207.818	17.92
208.037	9.73
208.255	3.58
208.474	11.78
208.693	19.97
208.911	-47.62
209.13	26.11
209.349	-10.75
209.567	-14.85
209.786	91.65
210.005	116.22
210.223	36.35
210.442	-12.8
210.661	38.4
210.879	75.26
211.098	34.3
211.316	81.41
211.535	38.4
211.753	-20.99
211.972	-2.56
212.191	17.92
212.409	46.59
212.628	54.78
212.846	-4.61
213.065	58.88
213.283	75.26
213.502	9.73
213.72	-14.85
213.938	-53.76
214.157	28.16
214.375	15.87
214.594	-16.9
214.812	110.08
215.031	52.74
215.249	26.11
215.467	1.54
215.686	-29.18
215.904	-47.62
216.122	-4.61
216.341	42.5
216.559	28.16
216.778	50.69
216.996	99.84
217.214	38.4
217.432	-10.75
217.651	-29.18
217.869	75.26
218.087	-4.61
218.306	-10.75
218.524	26.11
218.742	1.54
218.96	108.03
219.179	11.78
219.397	9.73
219.615	58.88
219.833	34.3
220.051	-37.38
220.27	32.26
220.488	9.73
220.706	83.45
220.924	-10.75
221.142	13.82
221.36	71.17
221.578	-2.56
221.796	87.55
222.015	50.69
222.233	46.59
222.451	153.09
222.669	-23.04
222.887	108.03
223.105	83.45
223.323	1.54
223.541	-23.04
223.759	17.92
223.977	9.73
224.195	77.31
224.413	22.02
224.631	50.69
224.849	-2.56
225.067	179.71
225.285	34.3
225.503	-14.85
225.721	-29.18
225.939	42.5
226.157	-8.7
226.375	44.54
226.592	93.69
226.81	75.26
227.028	48.64
227.246	85.5
227.464	22.02
227.682	26.11
227.9	-12.8
228.117	-43.52
228.335	42.5
228.553	-12.8
228.771	79.36
228.989	-37.38
229.206	-20.99
229.424	-43.52
229.642	3.58
229.86	9.73
230.077	60.93
230.295	17.92
230.513	65.02
230.731	11.78
230.948	22.02
231.166	9.73
231.384	-4.61
231.601	3.58
231.819	69.12
232.037	-10.75
232.254	58.88
232.472	22.02
232.689	-43.52
232.907	91.65
233.125	26.11
233.342	-47.62
233.56	-53.76
233.777	-12.8
233.995	65.02
234.213	91.65
234.43	-8.7
234.648	46.59
234.865	-74.24
235.083	54.78
235.3	-20.99
235.518	-2.56
235.735	77.31
235.953	30.21
236.17	46.59
236.388	87.55
236.605	58.88
236.822	38.4
237.04	69.12
237.257	-39.42
237.475	38.4
237.692	26.11
237.909	34.3
238.127	38.4
238.344	69.12
238.562	15.87
238.779	-14.85
238.996	-55.81
239.214	5.63
239.431	54.78
239.648	-10.75
239.865	1.54
240.083	-41.47
240.3	-37.38
240.517	-12.8
240.735	3.58
240.952	56.83
241.169	95.74
241.386	26.11
241.603	11.78
241.821	13.82
242.038	58.88
242.255	58.88
242.472	-14.85
242.689	-12.8
242.907	50.69
243.124	13.82
243.341	32.26
243.558	-12.8
243.775	9.73
243.992	-31.23
244.209	17.92
244.426	54.78
244.643	36.35
244.86	-10.75
245.078	42.5
245.295	-14.85
245.512	13.82
245.729	-6.66
245.946	69.12
246.163	77.31
246.38	42.5
246.597	50.69
246.814	24.06
247.031	11.78
247.248	58.88
247.464	58.88
247.681	36.35
247.898	99.84
248.115	9.73
248.332	7.68
248.549	17.92
248.766	58.88
248.983	91.65
249.2	71.17
249.417	34.3
249.633	11.78
249.85	75.26
250.067	-18.94
250.284	-14.85
250.501	50.69
250.717	79.36
250.934	-6.66
251.151	-43.52
251.368	-0.51
251.585	26.11
251.801	44.54
252.018	17.92
252.235	32.26
252.451	-0.51
252.668	42.5
252.885	38.4
253.102	1.54
253.318	77.31
253.535	50.69
253.752	17.92
253.968	-20.99
254.185	-23.04
254.401	3.58
254.618	38.4
254.835	-68.09
255.051	46.59
255.268	3.58
255.484	-20.99
255.701	42.5
255.917	52.74
256.134	38.4
256.351	67.07
256.567	5.63
256.784	50.69
257	-14.85
257.217	58.88
257.433	34.3
257.65	34.3
257.866	17.92
258.082	58.88
258.299	-4.61
258.515	34.3
258.732	-39.42
258.948	-4.61
259.165	-31.23
259.381	50.69
259.597	46.59
259.814	-4.61
260.03	-4.61
260.246	19.97
260.463	36.35
260.679	50.69
260.895	-29.18
261.112	46.59
261.328	-12.8
261.544	-39.42
261.761	144.89
261.977	34.3
262.193	13.82
262.409	-14.85
262.626	22.02
262.842	24.06
263.058	-47.62
263.274	-53.76
263.49	-47.62
263.707	52.74
263.923	1.54
264.139	50.69
264.355	28.16
264.571	112.13
264.787	-2.56
265.004	38.4
265.22	-72.19
265.436	-4.61
265.652	-0.51
265.868	-6.66
266.084	-31.23
266.3	-53.76
266.516	1.54
266.732	50.69
266.948	56.83
267.164	17.92
267.38	-6.66
267.596	-10.75
267.812	122.37
268.028	54.78
268.244	44.54
268.46	-6.66
268.676	-31.23
268.892	83.45
269.108	22.02
269.324	-12.8
269.54	-72.19
269.756	19.97
269.972	50.69
270.188	58.88
270.403	-47.62
270.619	50.69
270.835	58.88
271.051	93.69
271.267	79.36
271.483	-6.66
271.698	26.11
271.914	54.78
272.13	3.58
272.346	5.63
272.562	52.74
272.777	-12.8
272.993	54.78
273.209	38.4
273.425	11.78
273.64	50.69
273.856	77.31
274.072	13.82
274.287	-14.85
274.503	-6.66
274.719	24.06
274.934	1.54
275.15	-12.8
275.366	9.73
275.581	13.82
275.797	-14.85
276.012	46.59
276.228	11.78
276.444	3.58
276.659	134.65
276.875	75.26
277.09	-12.8
277.306	1.54
277.521	58.88
277.737	44.54
277.952	44.54
278.168	28.16
278.383	30.21
278.599	-23.04
278.814	1.54
279.03	26.11
279.245	-14.85
279.461	-18.94
279.676	67.07
279.892	32.26
280.107	-4.61
280.322	44.54
280.538	67.07
280.753	71.17
280.969	34.3
281.184	79.36
281.399	60.93
281.615	-23.04
281.83	83.45
282.045	3.58
282.26	58.88
282.476	-14.85
282.691	85.5
282.906	30.21
283.122	22.02
283.337	7.68
283.552	1.54
283.767	11.78
283.983	58.88
284.198	17.92
284.413	9.73
284.628	-20.99
284.843	-23.04
285.058	58.88
285.274	-12.8
285.489	-6.66
285.704	34.3
285.919	-12.8
286.134	-14.85
286.349	42.5
286.564	42.5
286.779	103.93
286.995	30.21
287.21	-10.75
287.425	13.82
287.64	11.78
287.855	71.17
288.07	-16.9
288.285	42.5
288.5	13.82
288.715	15.87
288.93	52.74
289.145	1.54
289.36	40.45
289.575	-12.8
289.79	116.22
290.004	-6.66
290.219	69.12
290.434	-27.14
290.649	13.82
290.864	30.21
291.079	38.4
291.294	38.4
291.509	-4.61
291.724	75.26
291.938	11.78
292.153	-45.57
292.368	-10.75
292.583	13.82
292.798	26.11
293.012	5.63
293.227	56.83
293.442	52.74
293.657	-31.23
293.871	-10.75
294.086	1.54
294.301	81.41
294.516	36.35
294.73	1.54
294.945	-20.99
295.16	3.58
295.374	83.45
295.589	62.98
295.804	17.92
296.018	69.12
296.233	69.12
296.447	83.45
296.662	-20.99
296.877	-29.18
297.091	28.16
297.306	69.12
297.52	9.73
297.735	9.73
297.949	120.32
298.164	91.65
298.378	-33.28
298.593	42.5
298.807	-61.95
299.022	56.83
299.236	-23.04
299.451	-14.85
299.665	-4.61
299.88	54.78
300.094	54.78
300.309	5.63
300.523	38.4
300.737	30.21
300.952	38.4
301.166	-16.9
301.381	3.58
301.595	95.74
301.809	48.64
302.024	11.78
302.238	-51.71
302.452	42.5
302.667	17.92
302.881	67.07
303.095	73.21
303.309	30.21
303.524	22.02
303.738	-8.7
303.952	36.35
304.166	11.78
304.381	-47.62
304.595	38.4
304.809	11.78
305.023	3.58
305.237	26.11
305.452	11.78
305.666	9.73
305.88	46.59
306.094	85.5
306.308	36.35
306.522	22.02
306.736	103.93
306.95	38.4
307.164	71.17
307.379	28.16
307.593	46.59
307.807	28.16
308.021	58.88
308.235	-12.8
308.449	-23.04
308.663	-12.8
308.877	67.07
309.091	5.63
309.305	44.54
309.519	36.35
309.733	93.69
309.947	-64
310.161	28.16
310.374	75.26
310.588	-8.7
310.802	-29.18
311.016	73.21
311.23	34.3
311.444	-14.85
311.658	34.3
311.872	83.45
312.085	19.97
312.299	91.65
312.513	9.73
312.727	30.21
312.941	30.21
313.154	75.26
313.368	-59.9
313.582	120.32
313.796	19.97
314.009	-12.8
314.223	-6.66
314.437	38.4
314.651	93.69
314.864	-18.94
315.078	-31.23
315.292	60.93
315.505	26.11
315.719	34.3
315.933	67.07
316.146	87.55
316.36	-39.42
316.573	56.83
316.787	34.3
317.001	17.92
317.214	-39.42
317.428	-4.61
317.641	-23.04
317.855	17.92
318.068	-18.94
318.282	62.98
318.495	36.35
318.709	-18.94
318.922	15.87
319.136	118.27
319.349	38.4
319.563	52.74
319.776	1.54
319.99	9.73
320.203	19.97
320.417	83.45
320.63	-14.85
320.843	-31.23
321.057	75.26
321.27	22.02
321.483	-31.23
321.697	52.74
321.91	44.54
322.124	-29.18
322.337	91.65
322.55	34.3
322.763	28.16
322.977	-29.18
323.19	5.63
323.403	19.97
323.617	1.54
323.83	26.11
324.043	46.59
324.256	89.6
324.469	-2.56
324.683	85.5
324.896	9.73
325.109	9.73
325.322	17.92
325.535	62.98
325.748	50.69
325.962	-12.8
326.175	44.54
326.388	48.64
326.601	-12.8
326.814	-35.33
327.027	50.69
327.24	50.69
327.453	-4.61
327.666	128.51
327.879	11.78
328.092	11.78
328.305	-18.94
328.518	5.63
328.731	28.16
328.944	-20.99
329.157	58.88
329.37	50.69
329.583	77.31
329.796	120.32
330.009	-14.85
330.222	34.3
330.435	34.3
330.648	42.5
330.861	67.07
331.073	93.69
331.286	99.84
331.499	65.02
331.712	13.82
331.925	42.5
332.138	22.02
332.35	50.69
332.563	9.73
332.776	58.88
332.989	40.45
333.202	36.35
333.414	-35.33
333.627	22.02
333.84	13.82
334.053	58.88
334.265	11.78
334.478	67.07
334.691	11.78
334.903	38.4
335.116	9.73
335.329	62.98
335.541	26.11
335.754	60.93
335.966	-14.85
336.179	-10.75
336.392	-27.14
336.604	148.99
336.817	52.74
337.029	75.26
337.242	71.17
337.454	-6.66
337.667	-18.94
337.88	-16.9
338.092	9.73
338.305	24.06
338.517	19.97
338.729	75.26
338.942	79.36
339.154	50.69
339.367	28.16
339.579	89.6
339.792	-18.94
340.004	11.78
340.217	-10.75
340.429	69.12
340.641	67.07
340.854	17.92
341.066	19.97
341.278	124.41
341.491	73.21
341.703	30.21
341.915	40.45
342.128	50.69
342.34	-23.04
342.552	36.35
342.764	36.35
342.977	-6.66
343.189	22.02
343.401	54.78
343.613	3.58
343.826	40.45
344.038	58.88
344.25	93.69
344.462	28.16
344.674	60.93
344.886	19.97
345.099	28.16
345.311	58.88
345.523	9.73
345.735	52.74
345.947	50.69
346.159	24.06
346.371	46.59
346.583	-31.23
346.795	124.41
347.007	60.93
347.219	71.17
347.431	1.54
347.643	30.21
347.855	89.6
348.067	77.31
348.279	19.97
348.491	24.06
348.703	58.88
348.915	38.4
349.127	9.73
349.339	17.92
349.551	-25.09
349.763	44.54
349.975	-16.9
350.187	44.54
350.399	87.55
350.61	30.21
350.822	-47.62
351.034	58.88
351.246	67.07
351.458	91.65
351.669	99.84
351.881	54.78
352.093	-18.94
352.305	69.12
352.517	-4.61
352.728	85.5
352.94	9.73
353.152	67.07
353.363	-51.71
353.575	48.64
353.787	60.93
353.999	26.11
354.21	124.41
354.422	-47.62
354.633	-4.61
354.845	-4.61
355.057	87.55
355.268	69.12
355.48	85.5
355.692	34.3
355.903	-29.18
356.115	60.93
356.326	67.07
356.538	83.45
356.749	5.63
356.961	5.63
357.172	50.69
357.384	-31.23
357.595	60.93
357.807	-6.66
358.018	-2.56
358.23	101.89
358.441	69.12
358.653	9.73
358.864	75.26
359.075	26.11
359.287	9.73
359.498	71.17
359.709	77.31
359.921	44.54
360.132	-29.18
360.344	26.11
360.555	67.07
360.766	28.16
360.977	11.78
361.189	26.11
361.4	-27.14
361.611	67.07
361.823	28.16
362.034	44.54
362.245	-10.75
362.456	-39.42
362.667	19.97
362.879	-14.85
363.09	22.02
363.301	11.78
363.512	17.92
363.723	1.54
363.935	62.98
364.146	60.93
364.357	48.64
364.568	110.08
364.779	-6.66
364.99	17.92
365.201	-6.66
365.412	87.55
365.623	-47.62
365.834	28.16
366.045	-39.42
366.256	-31.23
366.467	13.82
366.678	42.5
366.889	58.88
367.1	-31.23
367.311	44.54
367.522	-4.61
367.733	13.82
367.944	67.07
368.155	15.87
368.366	71.17
368.577	65.02
368.788	54.78
368.999	17.92
369.209	50.69
369.42	132.61
369.631	124.41
369.842	-18.94
370.053	58.88
370.264	3.58
370.474	44.54
370.685	-57.86
370.896	85.5
371.107	85.5
371.317	-23.04
371.528	15.87
371.739	17.92
371.95	34.3
372.16	77.31
372.371	-14.85
372.582	48.64
372.792	15.87
373.003	77.31
373.214	34.3
373.424	83.45
373.635	-12.8
373.846	58.88
374.056	36.35
374.267	-20.99
374.477	42.5
374.688	-33.28
374.898	108.03
375.109	9.73
375.319	3.58
375.53	87.55
375.74	87.55
375.951	17.92
376.161	15.87
376.372	50.69
376.582	44.54
376.793	60.93
377.003	17.92
377.214	83.45
377.424	5.63
377.635	103.93
377.845	24.06
378.055	69.12
378.266	-47.62
378.476	34.3
378.686	42.5
378.897	112.13
379.107	26.11
379.317	17.92
379.528	58.88
379.738	56.83
379.948	-70.14
380.158	79.36
380.369	75.26
380.579	50.69
380.789	-2.56
380.999	67.07
381.21	-14.85
381.42	67.07
381.63	-33.28
381.84	9.73
382.05	101.89
382.261	-2.56
382.471	110.08
382.681	44.54
382.891	105.98
383.101	67.07
383.311	13.82
383.521	17.92
383.731	79.36
383.941	54.78
384.151	58.88
384.361	28.16
384.571	32.26
384.781	71.17
384.991	75.26
385.201	101.89
385.411	34.3
385.621	48.64
385.831	112.13
386.041	42.5
386.251	36.35
386.461	50.69
386.671	48.64
386.881	26.11
387.091	17.92
387.301	50.69
387.511	-41.47
387.72	-4.61
387.93	132.61
388.14	-14.85
388.35	-4.61
388.56	75.26
388.769	44.54
388.979	54.78
389.189	28.16
389.399	-10.75
389.609	73.21
389.818	85.5
390.028	71.17
390.238	122.37
390.447	118.27
390.657	132.61
390.867	60.93
391.076	34.3
391.286	62.98
391.496	83.45
391.705	30.21
391.915	108.03
392.125	56.83
392.334	30.21
392.544	75.26
392.753	1.54
392.963	22.02
393.172	15.87
393.382	9.73
393.591	136.7
393.801	13.82
394.01	42.5
394.22	52.74
394.429	7.68
394.639	-4.61
394.848	58.88
395.058	99.84
395.267	42.5
395.477	95.74
395.686	19.97
395.895	71.17
396.105	75.26
396.314	101.89
396.524	26.11
396.733	95.74
396.942	124.41
397.152	110.08
397.361	69.12
397.57	34.3
397.78	62.98
397.989	91.65
398.198	130.56
398.407	69.12
398.617	52.74
398.826	83.45
399.035	54.78
399.244	19.97
399.453	95.74
399.663	103.93
399.872	77.31
400.081	26.11
400.29	93.69
400.499	60.93
400.708	99.84
400.917	-23.04
401.127	22.02
401.336	26.11
401.545	165.37
401.754	71.17
401.963	83.45
402.172	28.16
402.381	75.26
402.59	173.57
402.799	58.88
403.008	124.41
403.217	163.33
403.426	167.42
403.635	46.59
403.844	165.37
404.053	34.3
404.262	159.23
404.471	161.28
404.68	124.41
404.888	142.85
405.097	101.89
405.306	179.71
405.515	95.74
405.724	116.22
405.933	108.03
406.142	196.09
406.35	77.31
406.559	169.47
406.768	153.09
406.977	142.85
407.185	116.22
407.394	189.95
407.603	159.23
407.812	183.81
408.02	232.96
408.229	181.76
408.438	222.72
408.646	151.04
408.855	167.42
409.064	189.95
409.272	148.99
409.481	249.34
409.69	282.11
409.898	161.28
410.107	192
410.315	247.29
410.524	284.16
410.733	284.16
410.941	247.29
411.15	339.45
411.358	257.53
411.567	390.65
411.775	300.54
411.984	235
412.192	394.75
412.401	218.62
412.609	415.23
412.818	349.69
413.026	378.36
413.234	402.94
413.443	370.17
413.651	409.08
413.86	366.07
414.068	476.66
414.276	466.42
414.485	476.66
414.693	474.62
414.901	548.34
415.11	552.44
415.318	501.24
415.526	501.24
415.734	579.06
415.943	620.02
416.151	591.35
416.359	591.35
416.567	595.45
416.776	697.85
416.984	755.19
417.192	830.96
417.4	648.69
417.608	747
417.817	773.62
418.025	837.11
418.233	994.8
418.441	902.64
418.649	837.11
418.857	1037.81
419.065	984.56
419.273	976.37
419.481	1009.14
419.689	1074.67
419.897	1095.15
420.105	1123.82
420.313	1144.3
420.521	1340.91
420.729	1187.31
420.937	1258.99
421.145	1271.28
421.353	1385.96
421.561	1394.15
421.769	1418.73
421.977	1541.61
422.185	1445.35
422.393	1644.01
422.601	1693.16
422.809	1672.68
423.017	1656.29
423.224	1658.34
423.432	1824.23
423.64	1902.05
423.848	1986.02
424.056	2002.4
424.263	2102.75
424.471	2115.04
424.679	2139.62
424.887	2328.03
425.094	2215.39
425.302	2278.88
425.51	2500.06
425.718	2561.5
425.925	2627.03
426.133	2600.41
426.341	2819.54
426.548	2819.54
426.756	2854.36
426.964	2887.12
427.171	3057.11
427.379	3200.46
427.586	3290.57
427.794	3286.48
428.001	3474.89
428.209	3622.34
428.417	3614.15
428.624	3851.72
428.832	3933.64
429.039	3837.38
429.247	3775.94
429.454	4232.64
429.662	4572.6
429.869	4171.2
430.076	4443.58
430.284	4386.24
430.491	4556.22
430.699	4697.53
430.906	4758.97
431.114	4828.6
431.321	5215.66
431.528	5113.27
431.736	5455.28
431.943	5911.97
432.15	5395.89
432.358	5637.55
432.565	6014.37
432.772	5739.94
432.979	6188.45
433.187	6245.79
433.394	6301.09
433.601	6604.19
433.808	6854.04
434.016	6776.22
434.223	7003.54
434.43	7331.22
434.637	7269.78
434.844	7736.71
435.052	7927.18
435.259	7927.18
435.466	7767.43
435.673	7744.91
435.88	8281.47
436.087	8725.88
436.294	8766.84
436.501	8549.76
436.708	8684.92
436.915	9024.89
437.122	9381.23
437.329	9467.25
437.537	9520.49
437.743	9856.36
437.95	9964.9
438.157	10296.67
438.364	10650.97
438.571	10505.57
438.778	10710.36
438.985	11912.52
439.192	11347.28
439.399	11519.31
439.606	11322.71
439.813	12113.22
440.02	12764.48
440.227	12512.58
440.433	12256.58
440.64	12744
440.847	12633.41
441.054	12879.16
441.261	13575.47
441.467	13737.26
441.674	13901.1
441.881	14365.99
442.088	14447.91
442.294	14216.49
442.501	14486.82
442.708	14824.73
442.914	15308.05
443.121	16168.2
443.328	15519
443.534	16815.36
443.741	16192.78
443.948	16006.41
444.154	17204.47
444.361	17349.88
444.568	16991.48
444.774	17052.92
444.981	17507.57
445.187	18066.67
445.394	18646.24
445.6	18273.51
445.807	20286.67
446.013	19309.79
446.22	19780.82
446.426	20266.19
446.633	20786.37
446.839	21601.46
447.046	20511.94
447.252	21707.96
447.459	21619.89
447.665	21621.94
447.871	22609.06
448.078	23575.7
448.284	22584.49
448.491	22955.17
448.697	23872.66
448.903	24636.55
449.11	24659.08
449.316	23956.63
449.522	24515.72
449.728	25312.38
449.935	25470.08
450.141	25250.94
450.347	26039.41
450.553	25287.81
450.76	25586.81
450.966	26281.07
451.172	26180.72
451.378	26973.28
451.584	26401.9
451.791	27042.92
451.997	27096.16
452.203	27262.05
452.409	27405.41
452.615	27079.78
452.821	26197.1
453.027	25715.83
453.233	27298.91
453.44	26535.02
453.646	26397.81
453.852	27038.82
454.058	27206.75
454.264	26344.56
454.47	27305.06
454.676	26291.31
454.882	27292.77
455.088	25023.62
455.294	25490.56
455.5	25875.57
455.705	26332.27
455.911	24880.26
456.117	24489.1
456.323	24378.51
456.529	23149.73
456.735	23987.35
456.941	23663.77
457.147	23207.07
457.352	22723.75
457.558	22127.79
457.764	22545.58
457.97	22021.3
458.176	21542.07
458.381	21464.25
458.587	20235.47
458.793	20489.42
458.999	19137.76
459.204	21128.38
459.41	20090.06
459.616	18920.67
459.821	19016.93
460.027	18896.1
460.233	18394.34
460.438	17620.21
460.644	17724.66
460.85	16805.12
461.055	16925.95
461.261	16620.8
461.466	15650.07
461.672	15222.04
461.878	16205.06
462.083	14955.8
462.289	14652.7
462.494	14779.68
462.7	13921.58
462.905	13663.54
463.111	13899.05
463.316	14030.12
463.522	13747.5
463.727	13677.87
463.932	13849.9
464.138	13514.03
464.343	13569.33
464.549	13638.96
464.754	13739.31
464.959	13661.49
465.165	13235.51
465.37	12862.78
465.575	12453.19
465.781	12981.56
465.986	12916.03
466.191	12590.4
466.397	12182.85
466.602	11818.32
466.807	12068.17
467.012	12166.47
467.218	12145.99
467.423	11871.56
467.628	12035.4
467.833	12610.88
468.038	12031.3
468.244	11832.65
468.449	12270.92
468.654	11615.57
468.859	11771.21
469.064	11443.54
469.269	11171.16
469.474	11310.42
469.679	11373.91
469.885	11234.64
470.09	11408.72
470.295	11318.61
470.5	11035.99
470.705	11029.85
470.91	10921.31
471.115	10818.91
471.32	10818.91
471.525	10745.18
471.73	10667.36
471.935	10485.09
472.139	10218.85
472.344	10306.91
472.549	10288.48
472.754	10339.68
472.959	9946.47
473.164	9866.6
473.369	9594.22
473.574	10075.49
473.778	9817.45
473.983	9690.48
474.188	9727.34
474.393	9278.83
474.598	9364.85
474.802	9188.72
475.007	9289.07
475.212	9332.08
475.417	8820.09
475.621	9055.61
475.826	9149.81
476.031	8717.69
476.235	8492.41
476.44	8695.16
476.645	8547.71
476.849	8408.45
477.054	8496.51
477.259	8078.72
477.463	8314.24
477.668	8172.93
477.872	8217.99
478.077	8224.13
478.282	7794.06
478.486	7941.51
478.691	7681.42
478.895	7599.5
479.1	7556.49
479.304	7685.51
479.509	7583.12
479.713	7751.05
479.918	7570.83
480.122	7423.37
480.326	7523.73
480.531	7480.72
480.735	7292.3
480.94	7302.54
481.144	7521.68
481.348	7095.7
481.553	7185.81
481.757	7091.6
481.961	7202.19
482.166	7189.91
482.37	7087.51
482.574	7194
482.778	7120.28
482.983	7329.17
483.187	7026.07
483.391	7140.76
483.595	7099.8
483.8	7064.98
484.004	6974.87
484.208	7087.51
484.412	7126.42
484.616	7030.16
484.821	7247.25
485.025	6901.14
485.229	7034.26
485.433	7132.56
485.637	7064.98
485.841	7062.93
486.045	7013.78
486.249	7087.51
486.453	6948.25
486.657	7073.17
486.861	7179.67
487.065	6974.87
487.269	7001.49
487.473	6921.62
487.677	7097.75
487.881	7251.35
488.085	7036.31
488.289	7157.14
488.493	7075.22
488.697	7062.93
488.901	6917.53
489.105	7253.39
489.309	6958.49
489.512	7196.05
489.716	7230.87
489.92	7019.92
490.124	7083.41
490.328	7384.46
490.531	7165.33
490.735	7368.08
490.939	7230.87
491.143	7144.85
491.346	7263.63
491.55	7320.98
491.754	7331.22
491.958	7314.83
492.161	7386.51
492.365	7269.78
492.569	7271.83
492.772	7292.3
492.976	7421.33
493.18	7470.48
493.383	7597.45
493.587	7564.68
493.79	7738.76
493.994	7671.18
494.197	7898.5
494.401	7916.94
494.605	7933.32
494.808	8011.14
495.012	7947.65
495.215	8068.48
495.419	8136.07
495.622	8062.34
495.825	7921.03
496.029	8351.1
496.232	8293.76
496.436	8334.72
496.639	8496.51
496.843	8445.31
497.046	8598.91
497.249	8762.75
497.453	8613.24
497.656	8951.16
497.859	8734.07
498.063	8977.78
498.266	9264.5
498.469	9117.04
498.673	9260.4
498.876	9483.63
499.079	9442.67
499.282	9266.55
499.485	9921.9
499.689	9741.68
499.892	9719.15
500.095	9921.9
500.298	10085.73
500.501	10009.96
500.705	10394.98
500.908	10366.31
501.111	10700.12
501.314	10630.49
501.517	10835.29
501.72	10780
501.923	10745.18
502.126	11009.37
502.329	11257.17
502.532	11283.8
502.735	11490.64
502.938	11623.76
503.141	11783.5
503.344	11681.1
503.547	11945.29
503.75	12086.6
503.953	12215.62
504.156	12358.98
504.359	12459.33
504.562	12586.3
504.765	12946.75
504.968	12735.81
505.17	12950.84
505.373	12942.65
505.576	13395.25
505.779	13321.52
505.982	13583.66
506.185	13897
506.387	14003.5
506.59	13897
506.793	14273.83
506.996	14208.3
507.198	14478.63
507.401	14370.08
507.604	14736.67
507.807	14857.5
508.009	14818.59
508.212	15287.57
508.415	15475.99
508.617	15766.8
508.82	15533.33
509.022	15346.97
509.225	16055.56
509.428	16090.38
509.63	16266.5
509.833	16336.13
510.035	16700.67
510.238	16493.83
510.44	17061.12
510.643	17169.66
510.845	17274.1
511.048	17241.34
511.25	17558.77
511.453	17685.75
511.655	18117.87
511.858	17994.99
512.06	18287.85
512.262	18568.42
512.465	18433.25
512.667	18578.66
512.87	18885.86
513.072	19016.93
513.274	19666.13
513.477	19483.86
513.679	19705.04
513.881	19981.52
514.084	19965.14
514.286	20051.15
514.488	20194.51
514.69	20759.75
514.893	21028.03
515.095	20790.47
515.297	21253.31
515.499	21116.09
515.701	21587.13
515.904	21834.93
516.106	22000.82
516.308	22023.34
516.51	22310.06
516.712	22398.12
516.914	22844.58
517.116	23180.45
517.318	23149.73
517.52	23096.48
517.722	23510.17
517.925	23594.14
518.127	23925.91
518.329	23848.08
518.531	23817.36
518.733	24394.89
518.935	24976.51
519.136	24657.03
519.338	25427.07
519.54	25218.18
519.742	25490.56
519.944	25502.84
520.146	26180.72
520.348	26033.27
520.55	26293.36
520.752	26043.51
520.954	26661.99
521.155	26496.11
521.357	27053.16
521.559	27327.58
521.761	27374.69
521.963	27618.39
522.164	27612.25
522.366	27649.11
522.568	28195.92
522.77	28191.83
522.971	28755.02
523.173	28212.31
523.375	28773.45
523.576	28798.02
523.778	29062.21
523.98	29639.74
524.181	29178.95
524.383	29590.59
524.584	29678.65
524.786	29930.55
524.988	29807.67
525.189	29987.89
525.391	30303.28
525.592	30618.67
525.794	30493.74
525.995	30671.92
526.197	30700.59
526.398	30702.64
526.6	31030.31
526.801	31378.47
527.003	31116.33
527.204	31093.8
527.406	31704.09
527.607	31640.61
527.808	31970.33
528.01	31507.49
528.211	32078.87
528.412	32707.6
528.614	32250.9
528.815	32175.13
529.016	32556.05
529.218	31814.68
529.419	32437.27
529.62	32699.41
529.822	32257.04
530.023	32277.52
530.224	32365.59
530.425	32398.35
530.626	32627.73
530.828	32492.56
531.029	33049.61
531.23	33092.62
531.431	32760.84
531.632	33178.63
531.833	33264.64
532.035	32760.84
532.236	32896.01
532.437	33244.16
532.638	32863.24
532.839	33516.54
533.04	33483.78
533.241	32877.58
533.442	33463.3
533.643	33174.53
533.844	33504.26
534.045	33653.76
534.246	32975.88
534.447	33614.85
534.648	33174.53
534.849	33612.8
535.05	32953.35
535.251	33162.25
535.451	33131.53
535.652	33518.59
535.853	33750.01
536.054	33496.06
536.255	33600.51
536.456	33172.49
536.657	33651.71
536.857	33428.48
537.058	33229.83
537.259	33494.02
537.46	33547.26
537.66	33250.31
537.861	33217.54
538.062	33346.56
538.263	33754.11
538.463	33317.89
538.664	33375.23
538.865	33616.9
539.065	33571.84
539.266	32975.88
539.466	33704.96
539.667	32967.69
539.868	33833.98
540.068	33412.1
540.269	33537.02
540.469	33551.36
540.67	33229.83
540.87	33397.76
541.071	33414.15
541.271	33520.64
541.472	33473.54
541.672	33473.54
541.873	33364.99
542.073	32805.9
542.274	33436.67
542.474	33209.35
542.675	32949.26
542.875	33602.56
543.075	33201.16
543.276	33010.7
543.476	33195.01
543.676	32685.07
543.877	32988.17
544.077	33231.88
544.277	32783.37
544.478	33201.16
544.678	33225.73
544.878	33522.69
545.078	33356.8
545.279	32928.78
545.479	33020.94
545.679	33172.49
545.879	33014.79
546.079	32887.82
546.28	33065.99
546.48	32863.24
546.68	33328.13
546.88	33217.54
547.08	32902.15
547.28	32711.69
547.48	33098.76
547.68	33090.57
547.88	33031.18
548.081	33186.82
548.281	32967.69
548.481	33063.94
548.681	32838.67
548.881	33229.83
549.081	33025.03
549.28	32713.74
549.48	33244.16
549.68	33031.18
549.88	33102.85
550.08	32510.99
550.28	32883.72
550.48	32834.57
550.68	33221.64
550.88	32726.03
551.08	32736.27
551.279	32969.74
551.479	32779.28
551.679	32773.13
551.879	32455.7
552.079	32752.65
552.278	32650.25
552.478	32832.52
552.678	32766.99
552.878	32902.15
553.077	32486.42
553.277	32379.92
553.477	32973.83
553.676	32510.99
553.876	32723.98
554.076	32265.24
554.275	32255
554.475	32486.42
554.674	32300.05
554.874	32640.01
555.074	32203.8
555.273	32429.07
555.473	32498.7
555.672	32138.26
555.872	32447.5
556.071	32236.56
556.271	32498.7
556.47	32218.13
556.67	31908.89
556.869	32168.98
557.068	32236.56
557.268	31990.81
557.467	32074.77
557.667	32048.15
557.866	32046.1
558.065	32066.58
558.265	31843.35
558.464	31540.25
558.663	32109.59
558.863	31271.97
559.062	32023.58
559.261	31470.62
559.461	31712.28
559.66	31380.51
559.859	31411.23
560.058	31421.47
560.258	31489.06
560.457	31134.76
560.656	31732.76
560.855	31110.18
561.054	31456.29
561.253	31288.35
561.453	31501.34
561.652	31556.64
561.851	31562.78
562.05	31249.44
562.249	31007.78
562.448	31519.78
562.647	31380.51
562.846	31077.41
563.045	31120.42
563.244	30823.47
563.443	31337.51
563.642	30424.11
563.841	30716.97
564.04	30559.28
564.239	30723.12
564.438	30520.37
564.637	30790.7
564.836	30772.27
565.035	29996.09
565.234	30897.19
565.432	30301.23
565.631	30364.72
565.83	30348.34
566.029	29940.79
566.228	30278.71
566.427	30090.29
566.625	30096.44
566.824	29707.32
567.023	30010.42
567.222	29625.4
567.42	29549.63
567.619	29662.27
567.818	29588.54
568.016	29531.2
568.215	29645.88
568.414	29279.3
568.612	29518.91
568.811	29224
569.01	29264.96
569.208	29197.38
569.407	29385.79
569.605	28695.63
569.804	29107.27
570.002	29230.15
570.201	28746.83
570.4	28750.92
570.598	28480.59
570.797	28699.72
570.995	28759.11
571.193	28251.22
571.392	28838.98
571.59	28245.07
571.789	28494.93
571.987	28345.42
572.186	28240.98
572.384	28167.25
572.582	28259.41
572.781	27982.93
572.979	27741.27
573.177	27941.97
573.376	28189.78
573.574	27735.13
573.772	27903.06
573.971	27561.05
574.169	27602.01
574.367	27208.8
574.565	27556.96
574.763	26975.33
574.962	27409.5
575.16	27032.68
575.358	27331.68
575.556	27001.96
575.754	27268.19
575.952	26565.74
576.151	26831.97
576.349	26854.5
576.547	26641.51
576.745	26870.89
576.943	26901.61
577.141	27012.2
577.339	26569.83
577.537	26393.71
577.735	26489.96
577.933	26549.35
578.131	26301.55
578.329	26328.17
578.527	26002.55
578.725	25945.2
578.923	26098.8
579.121	25977.97
579.319	25934.96
579.516	26086.51
579.714	25787.51
579.912	25640.06
580.11	25685.11
580.308	25545.85
580.506	25343.1
580.704	25189.5
580.901	25609.34
581.099	25588.86
581.297	25109.63
581.495	25289.85
581.692	25412.73
581.89	24831.11
582.088	24988.8
582.285	24949.89
582.483	25072.77
582.681	24824.97
582.878	24644.74
583.076	24611.98
583.274	24493.19
583.471	24487.05
583.669	24401.04
583.866	24206.48
584.064	24456.33
584.262	23968.91
584.459	24609.93
584.657	24251.53
584.854	24577.16
585.052	23835.8
585.249	24061.07
585.447	24167.57
585.644	23663.77
585.841	23954.58
586.039	23831.7
586.236	23608.47
586.434	23577.75
586.631	23536.79
586.828	23264.41
587.026	23561.37
587.223	23499.93
587.42	23235.74
587.618	23143.58
587.815	23323.8
588.012	23069.86
588.21	22736.04
588.407	23194.78
588.604	22762.66
588.801	22539.43
588.999	22627.49
589.196	22656.17
589.393	22514.86
589.59	22594.73
589.787	22469.8
589.984	22578.34
590.182	22127.79
590.379	22299.82
590.576	22193.33
590.773	22197.42
590.97	21961.9
591.167	22129.84
591.364	21703.86
591.561	22168.75
591.758	21642.42
591.955	21757.11
592.152	21857.46
592.349	21447.86
592.546	21918.9
592.743	21865.65
592.94	21570.74
593.137	21521.59
593.334	21574.84
593.531	20978.88
593.727	21308.6
593.924	21028.03
594.121	20954.3
594.318	21253.31
594.515	20835.52
594.712	20989.12
594.908	20812.99
595.105	21089.47
595.302	20663.49
595.499	20612.29
595.696	20466.89
595.892	20475.08
596.089	20880.58
596.286	20315.34
596.482	20462.79
596.679	20481.22
596.876	20645.06
597.072	20319.43
597.269	20368.59
597.466	20092.11
597.662	19625.17
597.859	20210.89
598.055	20096.21
598.252	19682.52
598.448	19752.15
598.645	19784.91
598.841	19836.11
599.038	19367.13
599.234	19920.08
599.431	19576.02
599.627	19373.27
599.824	19473.62
600.02	19277.02
600.217	19434.71
600.413	18935.01
600.609	19080.41
600.806	18945.25
601.002	19307.74
601.198	19010.78
601.395	18801.89
601.591	18969.82
601.787	18988.25
601.984	18943.2
602.18	18953.44
602.376	18595.04
602.572	18506.98
602.769	18926.82
602.965	18513.13
603.161	18416.87
603.357	18148.59
603.553	18287.85
603.75	18349.29
603.946	18263.27
604.142	18275.56
604.338	17831.15
604.534	17818.86
604.73	17925.36
604.926	17904.88
605.122	17751.28
605.318	17601.78
605.514	17790.19
605.71	17667.31
605.906	17552.63
606.102	17677.55
606.298	17851.63
606.494	17536.24
606.69	17579.25
606.886	17327.35
607.082	17134.84
607.278	17351.93
607.474	17444.09
607.67	17480.95
607.866	17038.59
608.062	17143.03
608.257	17052.92
608.453	17302.78
608.649	16901.37
608.845	16764.16
609.041	16899.33
609.236	17016.06
609.432	16852.22
609.628	16411.91
609.824	16667.91
610.019	16813.31
610.215	16792.83
610.411	16997.63
610.606	16358.66
610.802	16805.12
610.998	16598.27
611.193	16862.46
611.389	16737.54
611.584	16461.06
611.78	16325.89
611.976	16411.91
612.171	16504.07
612.367	16661.76
612.562	16426.25
612.758	16071.95
612.953	16225.54
613.149	16420.1
613.344	16053.52
613.539	16456.96
613.735	16334.09
613.93	16219.4
614.126	15998.22
614.321	16229.64
614.517	15805.71
614.712	16135.43
614.907	15762.7
615.103	15985.93
615.298	15650.07
615.493	15983.88
615.688	15963.4
615.884	16094.47
616.079	15486.23
616.274	15754.51
616.47	15623.44
616.665	15818
616.86	15568.15
617.055	15764.75
617.25	15553.81
617.445	15682.83
617.641	15392.02
617.836	15590.67
618.031	15250.71
618.226	15535.38
618.421	15174.94
618.616	15105.31
618.811	15027.48
619.006	15346.97
619.201	15099.16
619.396	15076.63
619.591	14896.41
619.786	15043.87
619.981	14738.72
620.176	14847.26
620.371	14943.52
620.566	14746.91
620.761	14478.63
620.956	14714.14
621.151	14116.14
621.346	14552.35
621.541	14312.74
621.735	14521.63
621.93	14099.75
622.125	14142.76
622.32	13913.39
622.515	14357.8
622.709	13884.72
622.904	13751.6
623.099	13702.45
623.294	13802.8
623.488	13628.72
623.683	13569.33
623.878	13575.47
624.072	13344.05
624.267	13079.86
624.462	13331.76
624.656	13477.17
624.851	13088.06
625.046	13258.04
625.24	13133.11
625.435	13112.63
625.629	12977.47
625.824	12979.51
626.018	12830.01
626.213	12629.31
626.407	12758.33
626.602	12531.01
626.796	12535.1
626.991	12510.53
627.185	12303.68
627.38	12326.21
627.574	12332.36
627.768	12027.21
627.963	11971.91
628.157	11924.81
628.352	11855.18
628.546	12002.63
628.74	11859.28
628.935	11945.29
629.129	11969.87
629.323	11808.08
629.517	11511.12
629.712	11380.05
629.906	11623.76
630.1	11289.94
630.294	11189.59
630.489	11076.95
630.683	11351.38
630.877	11128.15
631.071	11136.34
631.265	11029.85
631.459	10904.92
631.653	10884.44
631.848	10734.94
632.042	10808.67
632.236	10839.39
632.43	10581.34
632.624	10653.02
632.818	10597.73
633.012	10524
633.206	10667.36
633.4	10480.99
633.594	10540.38
633.788	10544.48
633.982	10222.95
634.176	10292.58
634.369	10343.78
634.563	10171.75
634.757	9962.86
634.951	10257.76
635.145	9782.63
635.339	9948.52
635.533	10112.36
635.726	9776.49
635.92	9549.17
636.114	9823.59
636.308	9645.42
636.501	9708.91
636.695	9547.12
636.889	9293.17
637.083	9590.13
637.276	9366.9
637.47	9373.04
637.664	9231.73
637.857	9284.98
638.051	9327.99
638.244	9196.92
638.438	9188.72
638.632	9162.1
638.825	9024.89
639.019	8959.35
639.212	8906.1
639.406	8758.65
639.599	8832.38
639.793	8803.71
639.986	8801.66
640.18	8588.67
640.373	8818.04
640.567	8414.59
640.76	8508.8
640.954	8553.85
641.147	8412.54
641.34	8555.9
641.534	8488.32
641.727	8316.29
641.92	8185.22
642.114	8285.57
642.307	8263.04
642.5	8185.22
642.694	8054.15
642.887	7978.37
643.08	8035.72
643.273	8021.38
643.467	7865.74
643.66	7832.97
643.853	7783.82
644.046	7779.72
644.239	7900.55
644.432	7798.15
644.626	7785.87
644.819	7613.84
645.012	7529.87
645.205	7751.05
645.398	7556.49
645.591	7554.44
645.784	7417.23
645.977	7486.86
646.17	7425.42
646.363	7169.43
646.556	7054.74
646.749	7177.62
646.942	7427.47
647.135	7245.2
647.328	6841.75
647.521	7054.74
647.714	7019.92
647.907	7153.04
648.099	7048.6
648.292	6983.06
648.485	6942.1
648.678	6821.27
648.871	6813.08
649.064	6712.73
649.256	6966.68
649.449	6706.59
649.642	6612.38
649.835	6448.54
650.027	6473.12
650.22	6497.69
650.413	6598.04
650.605	6436.25
650.798	6479.26
650.991	6356.38
651.183	6387.1
651.376	6491.55
651.568	6262.18
651.761	6161.83
651.954	6288.8
652.146	6401.44
652.339	6432.16
652.531	6233.5
652.724	6075.81
652.916	5938.6
653.109	6194.59
653.301	6077.86
653.494	5959.08
653.686	6049.19
653.879	5811.62
654.071	6047.14
654.263	5615.02
654.456	5852.58
654.648	5893.54
654.84	5723.56
655.033	5862.82
655.225	5729.7
655.417	5572.01
655.61	5658.03
655.802	5645.74
655.994	5629.35
656.186	5533.1
656.379	5576.11
656.571	5408.17
656.763	5440.94
656.955	5430.7
657.148	5391.79
657.34	5391.79
657.532	5412.27
657.724	5209.52
657.916	5426.61
658.108	5180.85
658.3	5268.91
658.492	5211.57
658.684	5254.58
658.876	5223.86
659.068	5244.34
659.26	5189.04
659.452	5035.44
659.644	4980.15
659.836	5039.54
660.028	4933.04
660.22	4931
660.412	4933.04
660.604	4892.09
660.796	4840.89
660.988	4836.79
661.18	4814.26
661.372	4656.57
661.563	4691.38
661.755	4740.54
661.947	4724.15
662.139	4793.78
662.331	4588.99
662.522	4548.03
662.714	4734.39
662.906	4572.6
663.097	4531.64
663.289	4560.31
663.481	4519.36
663.673	4580.79
663.864	4388.29
664.056	4531.64
664.247	4539.83
664.439	4427.2
664.631	4517.31
664.822	4281.79
665.014	4244.93
665.205	4285.89
665.397	4324.8
665.588	4302.27
665.78	4195.78
665.971	4353.47
666.163	4214.21
666.354	4273.6
666.546	4140.48
666.737	4076.99
666.929	4066.75
667.12	4203.97
667.311	4103.62
667.503	4023.75
667.694	3962.31
667.885	4052.42
668.077	3968.45
668.268	3943.88
668.459	3954.12
668.651	3884.48
668.842	3925.44
669.033	3845.57
669.224	3777.99
669.416	3870.15
669.607	3890.63
669.798	3894.72
669.989	3915.2
670.18	3687.88
670.371	3933.64
670.563	3814.85
670.754	3777.99
670.945	3741.13
671.136	3706.31
671.327	3528.14
671.518	3679.69
671.709	3671.5
671.9	3710.41
672.091	3698.12
672.282	3798.47
672.473	3530.19
672.664	3575.24
672.855	3544.52
673.046	3583.43
673.237	3468.75
673.428	3552.71
673.619	3440.08
673.809	3431.88
674	3425.74
674.191	3358.16
674.382	3462.6
674.573	3540.43
674.764	3284.43
674.954	3417.55
675.145	3397.07
675.336	3454.41
675.527	3284.43
675.717	3311.05
675.908	3247.57
676.099	3411.4
676.289	3294.67
676.48	3200.46
676.671	3323.34
676.861	3206.61
677.052	3249.61
677.243	3278.29
677.433	3134.93
677.624	3360.2
677.814	3243.47
678.005	3227.09
678.195	3171.79
678.386	3243.47
678.576	3036.63
678.767	3243.47
678.957	3286.48
679.148	3233.23
679.338	3251.66
679.529	3081.68
679.719	2987.47
679.909	3093.97
680.1	3114.45
680.29	3083.73
680.481	3106.26
680.671	3126.74
680.861	3261.9
681.052	3005.91
681.242	3141.07
681.432	3067.35
681.622	2989.52
681.813	3108.3
682.003	3007.95
682.193	2952.66
682.383	3108.3
682.573	2999.76
682.764	2835.92
682.954	3073.49
683.144	2885.08
683.334	2866.64
683.524	2827.73
683.714	2958.8
683.904	2833.88
684.094	2848.21
684.284	2907.6
684.474	2991.57
684.664	2885.08
684.854	2950.61
685.044	2844.12
685.234	2819.54
685.424	2842.07
685.614	2729.43
685.804	2936.28
685.994	2745.81
686.184	2901.46
686.374	2702.81
686.564	2827.73
686.753	2702.81
686.943	2616.79
687.133	2696.66
687.323	2672.09
687.513	2735.57
687.702	2741.72
687.892	2811.35
688.082	2704.85
688.272	2684.38
688.461	2745.81
688.651	2704.85
688.841	2688.47
689.03	2545.11
689.22	2581.98
689.41	2606.55
689.599	2541.02
689.789	2635.22
689.979	2565.59
690.168	2565.59
690.358	2532.83
690.547	2624.98
690.737	2541.02
690.926	2485.72
691.116	2508.25
691.305	2639.32
691.495	2586.07
691.684	2561.5
691.874	2352.6
692.063	2444.76
692.252	2397.66
692.442	2432.47
692.631	2385.37
692.82	2368.99
693.01	2426.33
693.199	2346.46
693.388	2254.3
693.578	2373.08
693.767	2420.19
693.956	2309.6
694.146	2393.56
694.335	2319.84
694.524	2366.94
694.713	2295.26
694.902	2266.59
695.092	2307.55
695.281	2403.8
695.47	2235.87
695.659	2219.49
695.848	2196.96
696.037	2215.39
696.226	2256.35
696.415	2211.29
696.604	2342.36
696.793	2184.67
696.982	2289.12
697.171	2336.22
697.36	2166.24
697.549	2223.58
697.738	2147.81
697.927	2262.49
698.116	2115.04
698.305	2278.88
698.494	2287.07
698.683	2158.05
698.872	2205.15
699.061	2139.62
699.25	2188.77
699.438	2229.73
699.627	2250.21
699.816	2246.11
700.005	2160.1
700.193	2098.66
700.382	2110.94
700.571	2106.85
700.76	2172.38
700.948	2221.53
701.137	2119.14
701.326	2004.45
701.514	2172.38
701.703	2117.09
701.892	2110.94
702.08	2133.47
702.269	2131.42
702.457	2172.38
702.646	2049.5
702.834	2039.26
703.023	1988.07
703.212	2196.96
703.4	2174.43
703.589	2115.04
703.777	2061.79
703.965	2131.42
704.154	2102.75
704.342	2002.4
704.531	2080.22
704.719	1938.91
704.907	2022.88
705.096	2012.64
705.284	2016.74
705.472	1910.24
705.661	2057.7
705.849	2078.18
706.037	2053.6
706.226	1967.59
706.414	2018.79
706.602	1975.78
706.79	2061.79
706.979	1914.34
707.167	1983.97
707.355	1967.59
707.543	1936.87
707.731	2016.74
707.919	1936.87
708.107	1977.83
708.296	1967.59
708.484	1928.67
708.672	1928.67
708.86	2004.45
709.048	1947.11
709.236	1969.63
709.424	2069.98
709.612	2037.22
709.8	2033.12
709.988	2041.31
710.176	1975.78
710.364	1973.73
710.551	1889.76
710.739	2004.45
710.927	1975.78
711.115	1953.25
711.303	1955.3
711.491	1834.47
711.679	1885.67
711.866	2029.03
712.054	1918.43
712.242	1990.11
712.43	1986.02
712.617	2002.4
712.805	1918.43
712.993	1943.01
713.181	1914.34
713.368	2086.37
713.556	2002.4
713.744	1836.52
713.931	2010.59
714.119	1996.26
714.306	1951.2
714.494	1914.34
714.682	1881.57
714.869	1873.38
715.057	1936.87
715.244	1852.9
715.432	2061.79
715.619	1889.76
715.807	2020.83
715.994	1877.48
716.182	1885.67
716.369	1967.59
716.556	2041.31
716.744	1959.39
716.931	1945.06
717.119	2033.12
717.306	1936.87
717.493	1906.15
717.681	2008.55
717.868	1891.81
718.055	1973.73
718.242	2041.31
718.43	2002.4
718.617	1922.53
718.804	1928.67
718.991	1945.06
719.179	1865.19
719.366	1861.09
719.553	1906.15
719.74	2002.4
719.927	1930.72
720.114	1951.2
720.301	1986.02
720.488	1879.52
720.676	1975.78
720.863	1967.59
721.05	1971.68
721.237	1924.58
721.424	1943.01
721.611	1969.63
721.798	1857
721.985	1844.71
722.172	1820.13
722.358	1822.18
722.545	1893.86
722.732	1922.53
722.919	1918.43
723.106	1906.15
723.293	1983.97
723.48	1988.07
723.667	1963.49
723.853	1949.15
724.04	2065.89
724.227	1957.35
724.414	1951.2
724.6	1926.63
724.787	1922.53
724.974	1988.07
725.161	1910.24
725.347	1979.87
725.534	1861.09
725.72	1936.87
725.907	1930.72
726.094	1938.91
726.28	1895.91
726.467	1885.67
726.653	1787.36
726.84	1930.72
727.027	1910.24
727.213	1955.3
727.4	1971.68
727.586	1918.43
727.773	1826.28
727.959	1977.83
728.145	1889.76
728.332	1912.29
728.518	1926.63
728.705	2037.22
728.891	1934.82
729.077	1904.1
729.264	1957.35
729.45	1904.1
729.636	1926.63
729.823	1865.19
730.009	2004.45
730.195	1861.09
730.382	1852.9
730.568	1906.15
730.754	1861.09
730.94	1865.19
731.126	1947.11
731.313	2049.5
731.499	1947.11
731.685	1846.76
731.871	1897.96
732.057	1816.04
732.243	1857
732.429	1889.76
732.615	1838.56
732.801	1861.09
732.987	1943.01
733.173	1988.07
733.359	1873.38
733.545	2026.98
733.731	1922.53
733.917	1936.87
734.103	1861.09
734.289	1877.48
734.475	1910.24
734.661	1951.2
734.847	1816.04
735.033	1766.89
735.219	1895.91
735.404	1910.24
735.59	1797.6
735.776	1934.82
735.962	1922.53
736.148	1912.29
736.333	1918.43
736.519	1803.75
736.705	1922.53
736.89	1914.34
737.076	1787.36
737.262	1781.22
737.447	1809.89
737.633	1916.39
737.819	1797.6
738.004	1832.42
738.19	1834.47
738.375	1799.65
738.561	1803.75
738.747	1803.75
738.932	1910.24
739.118	1857
739.303	1869.28
739.489	1900
739.674	1746.41
739.859	1828.32
740.045	1863.14
740.23	1805.8
740.416	1738.21
740.601	1797.6
740.786	1715.69
740.972	1836.52
741.157	1705.45
741.342	1615.34
741.528	1738.21
741.713	1816.04
741.898	1664.49
742.084	1721.83
742.269	1770.98
742.454	1854.95
742.639	1861.09
742.824	1773.03
743.01	1748.45
743.195	1779.17
743.38	1723.88
743.565	1682.92
743.75	1730.02
743.935	1830.37
744.12	1730.02
744.305	1639.91
744.49	1582.57
744.675	1631.72
744.86	1662.44
745.045	1721.83
745.23	1687.01
745.415	1648.1
745.6	1619.43
745.785	1568.23
745.97	1639.91
746.155	1682.92
746.34	1617.38
746.525	1664.49
746.71	1615.34
746.895	1484.27
747.079	1607.14
747.264	1478.12
747.449	1691.11
747.634	1494.51
747.819	1471.98
748.003	1533.42
748.188	1463.79
748.373	1543.66
748.557	1449.45
748.742	1560.04
748.927	1492.46
749.111	1435.11
749.296	1557.99
749.481	1582.57
749.665	1476.07
749.85	1377.77
750.034	1420.78
750.219	1377.77
750.404	1400.3
750.588	1402.35
750.773	1342.96
750.957	1285.61
751.141	1353.2
751.326	1383.91
751.51	1304.04
751.695	1304.04
751.879	1363.44
752.064	1418.73
752.248	1310.19
752.432	1375.72
752.617	1336.81
752.801	1314.28
752.985	1207.79
753.17	1381.87
753.354	1271.28
753.538	1324.52
753.722	1140.21
753.907	1297.9
754.091	1246.7
754.275	1248.75
754.459	1230.32
754.643	1172.97
754.828	1148.4
755.012	1148.4
755.196	1156.59
755.38	1246.7
755.564	1213.93
755.748	1125.87
755.932	1146.35
756.116	1175.02
756.3	1150.45
756.484	1207.79
756.668	1125.87
756.852	1097.2
757.036	1115.63
757.22	1191.41
757.404	1111.54
757.588	1205.74
757.772	1115.63
757.956	1074.67
758.14	1127.92
758.323	1062.38
758.507	1015.28
758.691	1066.48
758.875	1015.28
759.059	1060.34
759.242	1005.04
759.426	1076.72
759.61	1013.23
759.794	888.31
759.977	1043.95
760.161	1156.59
760.345	1027.57
760.528	1029.62
760.712	1025.52
760.895	1013.23
761.079	1029.62
761.263	904.69
761.446	949.75
761.63	951.79
761.813	988.66
761.997	878.07
762.18	876.02
762.364	998.9
762.547	869.87
762.731	962.03
762.914	916.98
763.098	968.18
763.281	871.92
763.464	812.53
763.648	796.15
763.831	871.92
764.015	853.49
764.198	935.41
764.381	947.7
764.564	937.46
764.748	894.45
764.931	857.59
765.114	843.25
765.297	953.84
765.481	841.2
765.664	857.59
765.847	859.63
766.03	828.92
766.213	830.96
766.397	859.63
766.58	785.91
766.763	857.59
766.946	841.2
767.129	902.64
767.312	824.82
767.495	798.2
767.678	804.34
767.861	849.4
768.044	755.19
768.227	820.72
768.41	734.71
768.593	837.11
768.776	818.68
768.959	796.15
769.142	855.54
769.324	712.18
769.507	798.2
769.69	806.39
769.873	726.52
770.056	716.28
770.239	794.1
770.421	771.57
770.604	771.57
770.787	845.3
770.97	779.76
771.152	730.61
771.335	751.09
771.518	765.43
771.7	747
771.883	806.39
772.066	749.04
772.248	740.85
772.431	779.76
772.613	814.58
772.796	710.13
772.978	781.81
773.161	757.24
773.343	579.06
773.526	689.65
773.708	634.36
773.891	648.69
774.073	710.13
774.256	675.32
774.438	714.23
774.621	624.12
774.803	687.61
774.985	693.75
775.168	693.75
775.35	675.32
775.532	710.13
775.715	706.04
775.897	665.08
776.079	628.21
776.261	605.69
776.444	574.97
776.626	568.82
776.808	591.35
776.99	648.69
777.173	587.26
777.355	593.4
777.537	624.12
777.719	568.82
777.901	550.39
778.083	538.1
778.265	562.68
778.447	572.92
778.629	632.31
778.811	583.16
778.993	611.83
779.175	536.06
779.357	546.3
779.539	595.45
779.721	591.35
779.903	534.01
780.085	607.73
780.267	607.73
780.449	525.82
780.631	591.35
780.812	583.16
780.994	517.62
781.176	554.49
781.358	472.57
781.54	466.42
781.721	566.78
781.903	534.01
782.085	501.24
782.267	503.29
782.448	470.52
782.63	429.56
782.812	484.86
782.993	566.78
783.175	484.86
783.357	456.19
783.538	435.71
783.72	419.32
783.901	486.9
784.083	501.24
784.264	441.85
784.446	400.89
784.627	394.75
784.809	458.23
784.99	404.99
785.172	503.29
785.353	411.13
785.535	409.08
785.716	396.79
785.897	464.38
786.079	364.03
786.26	349.69
786.441	427.51
786.623	419.32
786.804	413.18
786.985	325.12
787.167	341.5
787.348	335.35
787.529	345.59
787.71	486.9
787.891	415.23
788.073	345.59
788.254	378.36
788.435	339.45
788.616	355.83
788.797	294.4
788.978	316.92
789.159	394.75
789.34	386.55
789.522	306.68
789.703	314.88
789.884	357.88
790.065	304.64
790.246	321.02
790.427	310.78
790.607	425.47
790.788	292.35
790.969	339.45
791.15	271.87
791.331	306.68
791.512	306.68
791.693	275.96
791.874	275.96
792.054	374.27
792.235	308.73
792.416	364.03
792.597	366.07
792.778	300.54
792.958	290.3
793.139	288.25
793.32	321.02
793.5	353.79
793.681	312.83
793.862	280.06
794.042	202.24
794.223	218.62
794.404	312.83
794.584	251.39
794.765	269.82
794.945	255.48
795.126	302.59
795.306	308.73
795.487	257.53
795.667	251.39
795.848	304.64
796.028	296.44
796.209	265.72
796.389	316.92
796.57	181.76
796.75	273.92
796.93	218.62
797.111	271.87
797.291	241.15
797.471	144.89
797.652	249.34
797.832	249.34
798.012	194.05
798.192	257.53
798.373	271.87
798.553	206.33
798.733	230.91
798.913	128.51
799.093	222.72
799.274	226.81
799.454	208.38
799.634	255.48
799.814	247.29
799.994	210.43
800.174	280.06
800.354	198.14
800.534	241.15
800.714	198.14
800.894	148.99
801.074	69.12
801.254	192
801.434	255.48
801.614	218.62
801.794	206.33
801.974	865.78
802.154	222.72
802.334	192
802.514	189.95
802.693	194.05
802.873	138.75
803.053	185.85
803.233	206.33
803.413	220.67
803.592	181.76
803.772	169.47
803.952	208.38
804.131	122.37
804.311	249.34
804.491	173.57
804.67	228.86
804.85	183.81
805.03	165.37
805.209	251.39
805.389	196.09
805.568	202.24
805.748	132.61
805.928	200.19
806.107	181.76
806.287	212.48
806.466	222.72
806.646	275.96
806.825	169.47
807.004	169.47
807.184	126.46
807.363	85.5
807.543	206.33
807.722	134.65
807.901	183.81
808.081	159.23
808.26	171.52
808.439	91.65
808.619	243.2
808.798	87.55
808.977	165.37
809.156	245.24
809.336	177.66
809.515	132.61
809.694	103.93
809.873	151.04
810.052	130.56
810.231	185.85
810.411	99.84
810.59	142.85
810.769	157.18
810.948	112.13
811.127	85.5
811.306	157.18
811.485	165.37
811.664	159.23
811.843	120.32
812.022	173.57
812.201	165.37
812.38	52.74
812.559	130.56
812.737	134.65
812.916	105.98
813.095	67.07
813.274	140.8
813.453	93.69
813.632	122.37
813.811	120.32
813.989	79.36
814.168	140.8
814.347	75.26
814.526	101.89
814.704	214.52
814.883	214.52
815.062	79.36
815.24	99.84
815.419	89.6
815.598	151.04
815.776	112.13
815.955	93.69
816.133	93.69
816.312	99.84
816.49	148.99
816.669	34.3
816.847	50.69
817.026	124.41
817.204	140.8
817.383	44.54
817.561	87.55
817.74	124.41
817.918	95.74
818.097	148.99
818.275	77.31
818.453	71.17
818.632	167.42
818.81	93.69
818.988	110.08
819.167	148.99
819.345	120.32
819.523	103.93
819.701	91.65
819.879	124.41
820.058	11.78
820.236	93.69
820.414	36.35
820.592	93.69
820.77	69.12
820.948	120.32
821.127	73.21
821.305	173.57
821.483	36.35
821.661	69.12
821.839	153.09
822.017	69.12
822.195	85.5
822.373	132.61
822.551	69.12
822.729	122.37
822.907	116.22
823.085	183.81
823.262	26.11
823.44	60.93
823.618	85.5
823.796	83.45
823.974	69.12
824.152	38.4
824.329	112.13
824.507	87.55
824.685	114.17
824.863	54.78
825.04	17.92
825.218	148.99
825.396	50.69
825.574	58.88
825.751	-23.04
825.929	118.27
826.107	-12.8
826.284	69.12
826.462	75.26
826.639	67.07
826.817	60.93
826.994	34.3
827.172	101.89
827.349	77.31
827.527	144.89
827.704	83.45
827.882	60.93
828.059	85.5
828.237	19.97
828.414	58.88
828.591	38.4
828.769	60.93
828.946	89.6
829.124	140.8
829.301	105.98
829.478	3.58
829.655	101.89
829.833	79.36
830.01	83.45
830.187	28.16
830.364	110.08
830.542	105.98
830.719	118.27
830.896	181.76
831.073	60.93
831.25	60.93
831.427	118.27
831.604	83.45
831.782	48.64
831.959	89.6
832.136	58.88
832.313	91.65
832.49	75.26
832.667	108.03
832.844	50.69
833.021	116.22
833.198	11.78
833.374	75.26
833.551	30.21
833.728	-25.09
833.905	17.92
834.082	34.3
834.259	91.65
834.436	34.3
834.612	77.31
834.789	75.26
834.966	50.69
835.143	95.74
835.319	73.21
835.496	138.75
835.673	83.45
835.85	34.3
836.026	17.92
836.203	62.98
836.38	56.83
836.556	-0.51
836.733	58.88
836.909	103.93
837.086	58.88
837.262	83.45
837.439	24.06
837.616	-23.04
837.792	38.4
837.968	91.65
838.145	36.35
838.321	58.88
838.498	36.35
838.674	42.5
838.851	75.26
839.027	77.31
839.203	67.07
839.38	13.82
839.556	95.74
839.732	77.31
839.909	75.26
840.085	-8.7
840.261	1.54
840.437	1.54
840.614	26.11
840.79	77.31
840.966	17.92
841.142	-23.04
841.318	-35.33
841.494	46.59
841.671	79.36
841.847	85.5
842.023	-8.7
842.199	52.74
842.375	93.69
842.551	13.82
842.727	-2.56
842.903	108.03
843.079	83.45
843.255	132.61
843.431	7.68
843.607	128.51
843.783	15.87
843.959	75.26
844.134	17.92
844.31	-4.61
844.486	30.21
844.662	-29.18
844.838	54.78
845.013	-31.23
845.189	24.06
845.365	11.78
845.541	42.5
845.716	-12.8
845.892	108.03
846.068	-51.71
846.244	44.54
846.419	77.31
846.595	-39.42
846.77	22.02
846.946	83.45
847.122	71.17
847.297	48.64
847.473	99.84
847.648	60.93
847.824	-8.7
847.999	-29.18
848.175	11.78
848.35	-23.04
848.526	42.5
848.701	17.92
848.876	48.64
849.052	-18.94
849.227	56.83
849.403	-0.51
849.578	46.59
849.753	83.45
849.929	44.54
850.104	-70.14
850.279	1.54
850.454	69.12
850.63	-39.42
850.805	91.65
850.98	99.84
851.155	11.78
851.33	-51.71
851.505	19.97
851.681	71.17
851.856	3.58
852.031	24.06
852.206	34.3
852.381	-37.38
852.556	-6.66
852.731	-23.04
852.906	54.78
853.081	67.07
853.256	79.36
853.431	13.82
853.606	71.17
853.781	44.54
853.956	-43.52
854.131	17.92
854.305	50.69
854.48	-18.94
854.655	-2.56
854.83	-4.61
855.005	91.65
855.18	91.65
855.354	34.3
855.529	50.69
855.704	24.06
855.879	5.63
856.053	38.4
856.228	30.21
856.403	24.06
856.577	-4.61
856.752	-6.66
856.926	-27.14
857.101	83.45
857.276	-10.75
857.45	-16.9
857.625	-6.66
857.799	22.02
857.974	48.64
858.148	34.3
858.323	-31.23
858.497	40.45
858.672	1.54
858.846	11.78
859.02	17.92
859.195	-39.42
859.369	44.54
859.543	58.88
859.718	48.64
859.892	5.63
860.066	5.63
860.241	38.4
860.415	30.21
860.589	34.3
860.763	1.54
860.938	13.82
861.112	95.74
861.286	-2.56
861.46	-39.42
861.634	-25.09
861.808	67.07
861.982	-12.8
862.157	48.64
862.331	-12.8
862.505	-45.57
862.679	67.07
862.853	7.68
863.027	-27.14
863.201	44.54
863.375	46.59
863.549	77.31
863.722	-37.38
863.896	60.93
864.07	69.12
864.244	-55.81
864.418	9.73
864.592	-23.04
864.766	-14.85
864.939	50.69
865.113	-23.04
865.287	60.93
865.461	-35.33
865.634	-2.56
865.808	58.88
865.982	34.3
866.156	22.02
866.329	3.58
866.503	-25.09
866.676	1.54
866.85	17.92
867.024	13.82
867.197	30.21
867.371	60.93
867.544	-92.67
867.718	-12.8
867.891	24.06
868.065	32.26
868.238	28.16
868.412	17.92
868.585	-86.53
868.759	58.88
868.932	44.54
869.105	91.65
869.279	19.97
869.452	-53.76
869.625	-23.04
869.799	-0.51
869.972	5.63
870.145	42.5
870.319	32.26
870.492	13.82
870.665	-8.7
870.838	-57.86
871.011	-47.62
871.185	58.88
871.358	-2.56
871.531	3.58
871.704	-14.85
871.877	69.12
872.05	-8.7
872.223	9.73
872.396	-23.04
872.569	17.92
872.742	-88.57
872.915	1.54
873.088	1.54
873.261	13.82
873.434	1.54
873.607	-2.56
873.78	103.93
873.953	13.82
874.126	-39.42
874.299	-64
874.471	3.58
874.644	26.11
874.817	1.54
874.99	26.11
875.163	-23.04
875.335	58.88
875.508	-47.62
875.681	42.5
875.853	-14.85
876.026	13.82
876.199	13.82
876.371	36.35
876.544	11.78
876.717	3.58
876.889	26.11
877.062	79.36
877.234	-31.23
877.407	5.63
877.579	44.54
877.752	-8.7
877.924	79.36
878.097	-4.61
878.269	26.11
878.442	13.82
878.614	71.17
878.786	34.3
878.959	40.45
879.131	-14.85
879.303	-27.14
879.476	58.88
879.648	5.63
879.82	13.82
879.993	-6.66
880.165	42.5
880.337	-104.96
880.509	44.54
880.681	-10.75
880.854	5.63
881.026	-18.94
881.198	77.31
881.37	-6.66
881.542	-37.38
881.714	-39.42
881.886	11.78
882.058	-20.99
882.23	-20.99
882.402	26.11
882.574	19.97
882.746	1.54
882.918	54.78
883.09	52.74
883.262	-23.04
883.434	-14.85
883.606	-6.66
883.778	22.02
883.95	28.16
884.122	-39.42
884.293	79.36
884.465	-78.33
884.637	26.11
884.809	-39.42
884.98	105.98
885.152	-49.66
885.324	22.02
885.496	5.63
885.667	38.4
885.839	-31.23
886.011	77.31
886.182	7.68
886.354	124.41
886.525	-53.76
886.697	-47.62
886.869	3.58
887.04	28.16
887.212	-6.66
887.383	38.4
887.555	-25.09
887.726	65.02
887.897	-35.33
888.069	50.69
888.24	-84.48
888.412	42.5
888.583	-33.28
888.754	42.5
888.926	-53.76
889.097	26.11
889.268	11.78
889.44	58.88
889.611	-72.19
889.782	26.11
889.953	-35.33
890.125	38.4
890.296	-6.66
890.467	67.07
890.638	-6.66
890.809	-6.66
890.98	-31.23
891.151	26.11
891.323	22.02
891.494	-27.14
891.665	-6.66
891.836	28.16
892.007	-14.85
892.178	-6.66
892.349	30.21
892.52	-88.57
892.691	-39.42
892.862	83.45
893.032	-45.57
893.203	-66.05
893.374	-14.85
893.545	26.11
893.716	-29.18
893.887	42.5
894.057	-49.66
894.228	-20.99
894.399	-72.19
894.57	19.97
894.74	67.07
894.911	42.5
895.082	-45.57
895.253	1.54
895.423	3.58
895.594	46.59
895.764	-80.38
895.935	-2.56
896.106	38.4
896.276	-29.18
896.447	-31.23
896.617	19.97
896.788	-88.57
896.958	-64
897.129	22.02
897.299	-72.19
897.47	85.5
897.64	-23.04
897.81	22.02
897.981	-27.14
898.151	7.68
898.322	-6.66
898.492	46.59
898.662	-14.85
898.832	-14.85
899.003	-6.66
899.173	9.73
899.343	-37.38
899.513	-45.57
