Data from USB4F104151__83__14-43-28-456.txt Node

Date: Thu Mar 13 14:43:28 EDT 2025
User: louis
Spectrometer: USB4F10415
Trigger mode: 4
Integration Time (sec): 2.000000E-2
Scans to average: 1
Electric dark correction enabled: true
Nonlinearity correction enabled: false
Boxcar width: 0
XAxis mode: Wavelengths
Number of Pixels in Spectrum: 3648
>>>>>Begin Spectral Data<<<<<
178.204	-152.57
178.424	-152.57
178.644	-152.57
178.864	-111.61
179.084	-119.81
179.304	-23.55
179.524	9.22
179.744	-19.46
179.964	50.18
180.184	-7.17
180.404	-27.65
180.624	-31.74
180.844	11.26
181.064	-39.94
181.283	19.46
181.503	9.22
181.723	50.18
181.943	-119.81
182.163	70.65
182.383	-11.26
182.602	13.31
182.822	97.28
183.042	11.26
183.262	-89.09
183.482	-5.12
183.701	25.6
183.921	35.84
184.141	27.65
184.361	56.32
184.58	-7.17
184.8	54.27
185.02	3.07
185.239	35.84
185.459	25.6
185.679	21.5
185.898	-27.65
186.118	33.79
186.338	91.13
186.557	-23.55
186.777	35.84
186.997	33.79
187.216	-39.94
187.436	119.81
187.655	9.22
187.875	87.04
188.095	-5.12
188.314	58.37
188.534	99.33
188.753	-11.26
188.973	62.46
189.192	50.18
189.412	33.79
189.631	19.46
189.851	11.26
190.07	87.04
190.29	5.12
190.509	25.6
190.729	-7.17
190.948	-27.65
191.168	113.66
191.387	29.7
191.607	109.57
191.826	-19.46
192.045	25.6
192.265	37.89
192.484	-54.27
192.704	-48.13
192.923	3.07
193.142	50.18
193.362	50.18
193.581	78.85
193.8	-50.18
194.02	62.46
194.239	-46.08
194.458	19.46
194.678	-13.31
194.897	-21.5
195.116	29.7
195.335	52.22
195.555	-39.94
195.774	35.84
195.993	23.55
196.212	70.65
196.432	-5.12
196.651	35.84
196.87	-15.36
197.089	103.42
197.308	-27.65
197.528	33.79
197.747	33.79
197.966	-39.94
198.185	84.99
198.404	-27.65
198.623	97.28
198.842	66.56
199.062	-31.74
199.281	62.46
199.5	11.26
199.719	62.46
199.938	-19.46
200.157	41.98
200.376	87.04
200.595	27.65
200.814	-17.41
201.033	-31.74
201.252	1.02
201.471	82.94
201.69	7.17
201.909	58.37
202.128	-17.41
202.347	37.89
202.566	17.41
202.785	-21.5
203.004	-15.36
203.223	35.84
203.442	62.46
203.661	3.07
203.879	87.04
204.098	-35.84
204.317	25.6
204.536	113.66
204.755	-39.94
204.974	-9.22
205.193	19.46
205.411	132.09
205.63	37.89
205.849	35.84
206.068	-7.17
206.287	35.84
206.505	60.42
206.724	-19.46
206.943	15.36
207.162	-15.36
207.381	-7.17
207.599	68.61
207.818	13.31
208.037	50.18
208.255	-11.26
208.474	-11.26
208.693	25.6
208.911	17.41
209.13	7.17
209.349	58.37
209.567	29.7
209.786	130.05
210.005	-7.17
210.223	-39.94
210.442	-15.36
210.661	17.41
210.879	-15.36
211.098	25.6
211.316	50.18
211.535	115.71
211.753	-7.17
211.972	-15.36
212.191	23.55
212.409	1.02
212.628	1.02
212.846	-37.89
213.065	-7.17
213.283	9.22
213.502	41.98
213.72	17.41
213.938	-23.55
214.157	41.98
214.375	35.84
214.594	-39.94
214.812	37.89
215.031	3.07
215.249	33.79
215.467	37.89
215.686	109.57
215.904	5.12
216.122	-33.79
216.341	-31.74
216.559	37.89
216.778	-1.02
216.996	99.33
217.214	-44.03
217.432	29.7
217.651	-3.07
217.869	-48.13
218.087	-11.26
218.306	1.02
218.524	17.41
218.742	46.08
218.96	82.94
219.179	-3.07
219.397	35.84
219.615	33.79
219.833	54.27
220.051	9.22
220.27	-21.5
220.488	115.71
220.706	66.56
220.924	-70.65
221.142	44.03
221.36	27.65
221.578	29.7
221.796	-7.17
222.015	-39.94
222.233	3.07
222.451	115.71
222.669	11.26
222.887	50.18
223.105	17.41
223.323	37.89
223.541	19.46
223.759	41.98
223.977	-9.22
224.195	60.42
224.413	44.03
224.631	9.22
224.849	-52.22
225.067	66.56
225.285	-35.84
225.503	-15.36
225.721	-39.94
225.939	95.23
226.157	19.46
226.375	123.9
226.592	-9.22
226.81	37.89
227.028	66.56
227.246	87.04
227.464	9.22
227.682	19.46
227.9	60.42
228.117	46.08
228.335	97.28
228.553	-27.65
228.771	-13.31
228.989	58.37
229.206	-7.17
229.424	9.22
229.642	41.98
229.86	41.98
230.077	27.65
230.295	109.57
230.513	33.79
230.731	41.98
230.948	56.32
231.166	68.61
231.384	39.94
231.601	17.41
231.819	21.5
232.037	62.46
232.254	-54.27
232.472	35.84
232.689	37.89
232.907	107.52
233.125	15.36
233.342	3.07
233.56	-23.55
233.777	50.18
233.995	17.41
234.213	-13.31
234.43	41.98
234.648	9.22
234.865	-29.7
235.083	29.7
235.3	66.56
235.518	50.18
235.735	-19.46
235.953	44.03
236.17	-13.31
236.388	72.7
236.605	58.37
236.822	101.37
237.04	-13.31
237.257	66.56
237.475	101.37
237.692	-23.55
237.909	25.6
238.127	-23.55
238.344	-23.55
238.562	44.03
238.779	-93.18
238.996	17.41
239.214	64.51
239.431	70.65
239.648	11.26
239.865	115.71
240.083	-5.12
240.3	-13.31
240.517	35.84
240.735	-39.94
240.952	-3.07
241.169	35.84
241.386	-23.55
241.603	105.47
241.821	3.07
242.038	27.65
242.255	-23.55
242.472	-7.17
242.689	44.03
242.907	103.42
243.124	44.03
243.341	44.03
243.558	29.7
243.775	-5.12
243.992	54.27
244.209	60.42
244.426	-35.84
244.643	37.89
244.86	-41.98
245.078	31.74
245.295	39.94
245.512	-3.07
245.729	-62.46
245.946	70.65
246.163	-7.17
246.38	66.56
246.597	62.46
246.814	-29.7
247.031	19.46
247.248	60.42
247.464	33.79
247.681	13.31
247.898	21.5
248.115	46.08
248.332	3.07
248.549	9.22
248.766	25.6
248.983	21.5
249.2	17.41
249.417	37.89
249.633	-29.7
249.85	27.65
250.067	1.02
250.284	-11.26
250.501	-11.26
250.717	-5.12
250.934	21.5
251.151	54.27
251.368	21.5
251.585	3.07
251.801	-1.02
252.018	-60.42
252.235	33.79
252.451	-5.12
252.668	-39.94
252.885	109.57
253.102	50.18
253.318	68.61
253.535	66.56
253.752	-15.36
253.968	21.5
254.185	9.22
254.401	80.89
254.618	52.22
254.835	-39.94
255.051	74.75
255.268	-29.7
255.484	44.03
255.701	33.79
255.917	52.22
256.134	-3.07
256.351	27.65
256.567	-33.79
256.784	25.6
257	-15.36
257.217	-46.08
257.433	76.8
257.65	37.89
257.866	33.79
258.082	19.46
258.299	60.42
258.515	33.79
258.732	5.12
258.948	5.12
259.165	1.02
259.381	35.84
259.597	80.89
259.814	-7.17
260.03	-13.31
260.246	35.84
260.463	91.13
260.679	9.22
260.895	58.37
261.112	33.79
261.328	-23.55
261.544	-13.31
261.761	62.46
261.977	-7.17
262.193	17.41
262.409	39.94
262.626	84.99
262.842	82.94
263.058	68.61
263.274	58.37
263.49	74.75
263.707	25.6
263.923	-15.36
264.139	-11.26
264.355	56.32
264.571	111.61
264.787	58.37
265.004	-44.03
265.22	-39.94
265.436	25.6
265.652	-21.5
265.868	-13.31
266.084	1.02
266.3	-74.75
266.516	-5.12
266.732	1.02
266.948	54.27
267.164	39.94
267.38	5.12
267.596	41.98
267.812	123.9
268.028	50.18
268.244	-76.8
268.46	68.61
268.676	33.79
268.892	-29.7
269.108	-29.7
269.324	-35.84
269.54	-48.13
269.756	68.61
269.972	-39.94
270.188	33.79
270.403	31.74
270.619	-37.89
270.835	39.94
271.051	25.6
271.267	1.02
271.483	13.31
271.698	29.7
271.914	25.6
272.13	19.46
272.346	1.02
272.562	29.7
272.777	25.6
272.993	5.12
273.209	58.37
273.425	-39.94
273.64	-3.07
273.856	48.13
274.072	17.41
274.287	60.42
274.503	-31.74
274.719	21.5
274.934	35.84
275.15	-33.79
275.366	19.46
275.581	-87.04
275.797	-5.12
276.012	-5.12
276.228	66.56
276.444	44.03
276.659	84.99
276.875	11.26
277.09	37.89
277.306	-7.17
277.521	50.18
277.737	7.17
277.952	52.22
278.168	-23.55
278.383	3.07
278.599	41.98
278.814	25.6
279.03	-1.02
279.245	99.33
279.461	39.94
279.676	99.33
279.892	-19.46
280.107	99.33
280.322	3.07
280.538	-3.07
280.753	17.41
280.969	-37.89
281.184	62.46
281.399	72.7
281.615	-21.5
281.83	25.6
282.045	-21.5
282.26	-70.65
282.476	41.98
282.691	140.29
282.906	-15.36
283.122	66.56
283.337	44.03
283.552	68.61
283.767	-5.12
283.983	70.65
284.198	46.08
284.413	70.65
284.628	-27.65
284.843	35.84
285.058	-7.17
285.274	-35.84
285.489	-21.5
285.704	27.65
285.919	44.03
286.134	52.22
286.349	-17.41
286.564	-31.74
286.779	25.6
286.995	128
287.21	-19.46
287.425	46.08
287.64	3.07
287.855	50.18
288.07	-7.17
288.285	58.37
288.5	78.85
288.715	50.18
288.93	1.02
289.145	-5.12
289.36	101.37
289.575	89.09
289.79	9.22
290.004	7.17
290.219	19.46
290.434	31.74
290.649	-35.84
290.864	-52.22
291.079	66.56
291.294	41.98
291.509	29.7
291.724	-15.36
291.938	66.56
292.153	37.89
292.368	-13.31
292.583	-54.27
292.798	25.6
293.012	87.04
293.227	-23.55
293.442	62.46
293.657	33.79
293.871	56.32
294.086	76.8
294.301	93.18
294.516	33.79
294.73	17.41
294.945	-23.55
295.16	74.75
295.374	87.04
295.589	37.89
295.804	13.31
296.018	-7.17
296.233	60.42
296.447	13.31
296.662	-31.74
296.877	58.37
297.091	19.46
297.306	1.02
297.52	-64.51
297.735	76.8
297.949	25.6
298.164	13.31
298.378	-19.46
298.593	-21.5
298.807	-58.37
299.022	68.61
299.236	37.89
299.451	74.75
299.665	-60.42
299.88	58.37
300.094	-39.94
300.309	78.85
300.523	-15.36
300.737	66.56
300.952	62.46
301.166	87.04
301.381	-9.22
301.595	58.37
301.809	66.56
302.024	25.6
302.238	9.22
302.452	44.03
302.667	-35.84
302.881	99.33
303.095	17.41
303.309	52.22
303.524	35.84
303.738	87.04
303.952	1.02
304.166	72.7
304.381	-56.32
304.595	52.22
304.809	52.22
305.023	33.79
305.237	-9.22
305.452	41.98
305.666	60.42
305.88	70.65
306.094	37.89
306.308	-39.94
306.522	50.18
306.736	-23.55
306.95	84.99
307.164	-7.17
307.379	-35.84
307.593	62.46
307.807	99.33
308.021	29.7
308.235	-9.22
308.449	33.79
308.663	70.65
308.877	25.6
309.091	3.07
309.305	62.46
309.519	-39.94
309.733	50.18
309.947	-29.7
310.161	103.42
310.374	93.18
310.588	82.94
310.802	-80.89
311.016	31.74
311.23	58.37
311.444	-19.46
311.658	-29.7
311.872	52.22
312.085	9.22
312.299	35.84
312.513	78.85
312.727	41.98
312.941	39.94
313.154	62.46
313.368	-15.36
313.582	58.37
313.796	54.27
314.009	3.07
314.223	99.33
314.437	19.46
314.651	33.79
314.864	25.6
315.078	7.17
315.292	25.6
315.505	-9.22
315.719	33.79
315.933	-19.46
316.146	93.18
316.36	-44.03
316.573	70.65
316.787	50.18
317.001	107.52
317.214	21.5
317.428	41.98
317.641	-46.08
317.855	33.79
318.068	72.7
318.282	41.98
318.495	-7.17
318.709	39.94
318.922	82.94
319.136	44.03
319.349	17.41
319.563	27.65
319.776	33.79
319.99	97.28
320.203	68.61
320.417	99.33
320.63	107.52
320.843	41.98
321.057	84.99
321.27	44.03
321.483	44.03
321.697	25.6
321.91	33.79
322.124	-27.65
322.337	68.61
322.55	17.41
322.763	-31.74
322.977	52.22
323.19	68.61
323.403	58.37
323.617	37.89
323.83	35.84
324.043	74.75
324.256	25.6
324.469	1.02
324.683	72.7
324.896	39.94
325.109	-7.17
325.322	-64.51
325.535	91.13
325.748	41.98
325.962	9.22
326.175	35.84
326.388	1.02
326.601	109.57
326.814	-23.55
327.027	25.6
327.24	109.57
327.453	33.79
327.666	21.5
327.879	87.04
328.092	87.04
328.305	17.41
328.518	3.07
328.731	-19.46
328.944	44.03
329.157	66.56
329.37	-9.22
329.583	37.89
329.796	41.98
330.009	-23.55
330.222	109.57
330.435	76.8
330.648	-11.26
330.861	80.89
331.073	50.18
331.286	35.84
331.499	-11.26
331.712	-39.94
331.925	99.33
332.138	62.46
332.35	54.27
332.563	-13.31
332.776	74.75
332.989	-56.32
333.202	19.46
333.414	91.13
333.627	11.26
333.84	27.65
334.053	78.85
334.265	-23.55
334.478	37.89
334.691	17.41
334.903	41.98
335.116	11.26
335.329	-15.36
335.541	21.5
335.754	19.46
335.966	89.09
336.179	17.41
336.392	-1.02
336.604	21.5
336.817	-13.31
337.029	25.6
337.242	44.03
337.454	9.22
337.667	-13.31
337.88	164.86
338.092	95.23
338.305	44.03
338.517	-7.17
338.729	33.79
338.942	-5.12
339.154	82.94
339.367	7.17
339.579	50.18
339.792	54.27
340.004	58.37
340.217	21.5
340.429	58.37
340.641	-11.26
340.854	44.03
341.066	-1.02
341.278	1.02
341.491	123.9
341.703	-7.17
341.915	-21.5
342.128	52.22
342.34	72.7
342.552	1.02
342.764	31.74
342.977	25.6
343.189	48.13
343.401	54.27
343.613	50.18
343.826	-21.5
344.038	50.18
344.25	35.84
344.462	-23.55
344.674	21.5
344.886	-23.55
345.099	66.56
345.311	-7.17
345.523	58.37
345.735	-60.42
345.947	37.89
346.159	58.37
346.371	27.65
346.583	15.36
346.795	50.18
347.007	39.94
347.219	44.03
347.431	41.98
347.643	-11.26
347.855	-11.26
348.067	76.8
348.279	-9.22
348.491	-1.02
348.703	23.55
348.915	9.22
349.127	-13.31
349.339	-31.74
349.551	-44.03
349.763	-5.12
349.975	13.31
350.187	82.94
350.399	82.94
350.61	44.03
350.822	-15.36
351.034	50.18
351.246	41.98
351.458	37.89
351.669	70.65
351.881	50.18
352.093	93.18
352.305	17.41
352.517	13.31
352.728	91.13
352.94	-39.94
353.152	66.56
353.363	-37.89
353.575	74.75
353.787	78.85
353.999	50.18
354.21	35.84
354.422	164.86
354.633	-5.12
354.845	-23.55
355.057	58.37
355.268	-21.5
355.48	70.65
355.692	5.12
355.903	37.89
356.115	31.74
356.326	-19.46
356.538	128
356.749	68.61
356.961	74.75
357.172	5.12
357.384	-35.84
357.595	62.46
357.807	66.56
358.018	29.7
358.23	91.13
358.441	97.28
358.653	76.8
358.864	52.22
359.075	41.98
359.287	46.08
359.498	13.31
359.709	62.46
359.921	44.03
360.132	39.94
360.344	11.26
360.555	-31.74
360.766	46.08
360.977	13.31
361.189	113.66
361.4	33.79
361.611	27.65
361.823	-3.07
362.034	21.5
362.245	-56.32
362.456	-19.46
362.667	1.02
362.879	25.6
363.09	60.42
363.301	58.37
363.512	21.5
363.723	21.5
363.935	-37.89
364.146	11.26
364.357	17.41
364.568	41.98
364.779	-11.26
364.99	58.37
365.201	-7.17
365.412	99.33
365.623	-15.36
365.834	27.65
366.045	93.18
366.256	23.55
366.467	76.8
366.678	27.65
366.889	46.08
367.1	29.7
367.311	1.02
367.522	46.08
367.733	35.84
367.944	-11.26
368.155	-25.6
368.366	107.52
368.577	74.75
368.788	82.94
368.999	41.98
369.209	35.84
369.42	91.13
369.631	125.95
369.842	41.98
370.053	70.65
370.264	1.02
370.474	27.65
370.685	54.27
370.896	33.79
371.107	82.94
371.317	33.79
371.528	25.6
371.739	41.98
371.95	9.22
372.16	52.22
372.371	-23.55
372.582	-31.74
372.792	19.46
373.003	35.84
373.214	115.71
373.424	44.03
373.635	-35.84
373.846	138.24
374.056	-39.94
374.267	23.55
374.477	56.32
374.688	60.42
374.898	19.46
375.109	115.71
375.319	50.18
375.53	107.52
375.74	33.79
375.951	-48.13
376.161	1.02
376.372	35.84
376.582	15.36
376.793	41.98
377.003	5.12
377.214	37.89
377.424	1.02
377.635	103.42
377.845	-3.07
378.055	25.6
378.266	-41.98
378.476	84.99
378.686	9.22
378.897	15.36
379.107	-25.6
379.317	-19.46
379.528	46.08
379.738	66.56
379.948	44.03
380.158	78.85
380.369	50.18
380.579	-1.02
380.789	-21.5
380.999	74.75
381.21	74.75
381.42	37.89
381.63	33.79
381.84	78.85
382.05	46.08
382.261	134.14
382.471	13.31
382.681	23.55
382.891	78.85
383.101	17.41
383.311	9.22
383.521	7.17
383.731	171.01
383.941	56.32
384.151	11.26
384.361	134.14
384.571	23.55
384.781	99.33
384.991	99.33
385.201	74.75
385.411	95.23
385.621	31.74
385.831	23.55
386.041	70.65
386.251	66.56
386.461	84.99
386.671	62.46
386.881	52.22
387.091	31.74
387.301	56.32
387.511	115.71
387.72	50.18
387.93	27.65
388.14	5.12
388.35	23.55
388.56	78.85
388.769	39.94
388.979	76.8
389.189	37.89
389.399	9.22
389.609	50.18
389.818	60.42
390.028	60.42
390.238	35.84
390.447	-15.36
390.657	60.42
390.867	41.98
391.076	44.03
391.286	115.71
391.496	76.8
391.705	-5.12
391.915	78.85
392.125	84.99
392.334	76.8
392.544	52.22
392.753	107.52
392.963	60.42
393.172	66.56
393.382	11.26
393.591	107.52
393.801	25.6
394.01	109.57
394.22	58.37
394.429	66.56
394.639	33.79
394.848	91.13
395.058	74.75
395.267	136.19
395.477	107.52
395.686	156.67
395.895	152.57
396.105	164.86
396.314	84.99
396.524	82.94
396.733	21.5
396.942	152.57
397.152	72.7
397.361	117.76
397.57	173.05
397.78	84.99
397.989	99.33
398.198	64.51
398.407	99.33
398.617	11.26
398.826	68.61
399.035	205.82
399.244	171.01
399.453	62.46
399.663	152.57
399.872	82.94
400.081	72.7
400.29	82.94
400.499	99.33
400.708	150.53
400.917	35.84
401.127	125.95
401.336	93.18
401.545	197.63
401.754	125.95
401.963	82.94
402.172	27.65
402.381	175.1
402.59	50.18
402.799	82.94
403.008	41.98
403.217	76.8
403.426	68.61
403.635	74.75
403.844	66.56
404.053	99.33
404.262	95.23
404.471	119.81
404.68	152.57
404.888	132.09
405.097	87.04
405.306	179.2
405.515	107.52
405.724	144.38
405.933	117.76
406.142	150.53
406.35	130.05
406.559	224.25
406.768	152.57
406.977	205.82
407.185	156.67
407.394	257.02
407.603	164.86
407.812	257.02
408.02	224.25
408.229	128
408.438	263.16
408.646	201.72
408.855	207.87
409.064	158.72
409.272	220.16
409.481	320.51
409.69	254.97
409.898	254.97
410.107	230.4
410.315	250.88
410.524	222.2
410.733	324.6
410.941	306.17
411.15	347.13
411.358	322.56
411.567	328.7
411.775	422.91
411.984	451.58
412.192	398.33
412.401	500.73
412.609	371.71
412.818	470.01
413.026	498.68
413.234	439.29
413.443	429.05
413.651	470.01
413.86	484.34
414.068	646.13
414.276	480.25
414.485	541.69
414.693	619.51
414.901	623.61
415.11	697.33
415.318	586.74
415.526	578.55
415.734	734.2
415.943	750.58
416.151	801.78
416.359	793.59
416.567	754.68
416.776	809.97
416.984	836.6
417.192	873.46
417.4	789.49
417.608	861.17
417.817	959.47
418.025	912.37
418.233	1022.96
418.441	977.91
418.649	1172.46
418.857	1174.51
419.065	1248.24
419.273	1223.66
419.481	1225.71
419.689	1240.05
419.897	1397.74
420.105	1373.16
420.313	1364.97
420.521	1463.27
420.729	1518.57
420.937	1508.33
421.145	1512.42
421.353	1600.49
421.561	1801.19
421.769	1670.12
421.977	1790.95
422.185	1874.92
422.393	1911.78
422.601	2089.95
422.809	2073.57
423.017	2085.86
423.224	2192.35
423.432	2313.18
423.64	2180.06
423.848	2558.94
424.056	2348
424.263	2671.58
424.471	2499.55
424.679	2696.15
424.887	2878.42
425.094	2843.6
425.302	2880.47
425.51	2925.52
425.718	3072.98
425.925	3007.44
426.133	3199.95
426.341	3486.67
426.548	3441.61
426.756	3455.95
426.964	3599.31
427.171	3863.49
427.379	3994.56
427.586	3933.12
427.794	4103.11
428.001	4404.16
428.209	4432.83
428.417	4449.21
428.624	4660.15
428.832	4828.09
429.039	4688.82
429.247	4699.06
429.454	5102.51
429.662	5542.83
429.869	5211.06
430.076	5499.82
430.284	5196.72
430.491	5606.31
430.699	6038.44
430.906	5845.93
431.114	6071.2
431.321	6271.9
431.528	6308.77
431.736	6669.21
431.943	6908.82
432.15	6587.29
432.358	6851.48
432.565	7170.96
432.772	7148.43
432.979	7490.45
433.187	7615.37
433.394	7670.67
433.601	8125.32
433.808	8160.13
434.016	8174.47
434.223	8547.2
434.43	8979.32
434.637	8758.14
434.844	9382.77
435.052	9739.12
435.259	9499.5
435.466	9517.93
435.673	9460.59
435.88	10158.95
436.087	10642.27
436.294	10523.49
436.501	10447.71
436.708	10797.92
436.915	10988.38
437.122	11404.11
437.329	11578.19
437.537	11805.52
437.743	11905.87
437.95	11793.23
438.157	12526.4
438.364	12868.41
438.571	12749.63
438.778	12954.43
438.985	14007.08
439.192	13527.86
439.399	14017.32
439.606	13644.59
439.813	14560.03
440.02	15217.43
440.227	15012.63
440.433	14957.34
440.64	15391.51
440.847	15209.24
441.054	15903.5
441.261	16857.85
441.467	16440.07
441.674	16997.12
441.881	17578.74
442.088	17246.97
442.294	16995.07
442.501	17617.65
442.708	17986.29
442.914	18596.58
443.121	19479.25
443.328	18959.07
443.534	20234.96
443.741	19821.27
443.948	19380.95
444.154	20933.31
444.361	20640.45
444.568	21076.67
444.774	20955.84
444.981	20947.65
445.187	21697.2
445.394	22680.23
445.6	22360.75
445.807	24396.43
446.013	23319.2
446.22	23861.91
446.426	24781.45
446.633	25045.63
446.839	25633.4
447.046	24824.45
447.252	26311.28
447.459	26524.27
447.665	26094.19
447.871	27048.55
448.078	28287.57
448.284	27150.95
448.491	27652.7
448.697	28815.94
448.903	29428.29
449.11	29768.25
449.316	29092.42
449.522	29465.15
449.728	30769.71
449.935	30360.11
450.141	30644.78
450.347	31595.04
450.553	30560.81
450.76	30536.24
450.966	31924.76
451.172	31255.08
451.378	32412.18
451.584	31572.51
451.791	32332.31
451.997	32299.54
452.203	32832.01
452.409	32811.53
452.615	32786.96
452.821	31441.44
453.027	31214.12
453.233	32958.99
453.44	31693.34
453.646	32070.17
453.852	32160.28
454.058	32549.39
454.264	31631.9
454.47	32528.91
454.676	31646.24
454.882	32725.52
455.088	29815.35
455.294	30382.64
455.5	31029.8
455.705	31447.58
455.911	29997.62
456.117	29284.93
456.323	29088.32
456.529	27396.7
456.735	28992.07
456.941	28215.89
457.147	27529.82
457.352	26788.46
457.558	26741.35
457.764	26589.8
457.97	26333.81
458.176	25571.96
458.381	25692.79
458.587	24287.89
458.793	24378
458.999	23284.38
459.204	24590.98
459.41	24267.41
459.616	22305.45
459.821	22287.02
460.027	22291.12
460.233	22190.77
460.438	21189.31
460.644	21228.22
460.85	20398.79
461.055	19866.32
461.261	19919.57
461.466	18432.74
461.672	17806.06
461.878	18901.73
462.083	18017.01
462.289	17560.31
462.494	17183.48
462.7	16489.22
462.905	16057.1
463.111	16790.27
463.316	16524.04
463.522	16319.24
463.727	16454.4
463.932	16155.4
464.138	16319.24
464.343	16382.73
464.549	15756.05
464.754	16542.47
464.959	16128.78
465.165	15805.2
465.37	15407.89
465.575	15020.83
465.781	15754
465.986	15612.69
466.191	15203.1
466.397	14822.17
466.602	13908.78
466.807	14748.45
467.012	14631.71
467.218	14474.02
467.423	14168.87
467.628	14252.84
467.833	15018.78
468.038	14265.13
468.244	14222.12
468.449	14627.62
468.654	14207.78
468.859	13998.89
469.064	13906.73
469.269	13265.72
469.474	13568.82
469.679	13640.5
469.885	13345.59
470.09	13462.32
470.295	13427.51
470.5	12735.29
470.705	13251.38
470.91	12972.86
471.115	12854.08
471.32	13146.94
471.525	12899.13
471.73	12661.57
471.935	12460.87
472.139	12104.52
472.344	12139.33
472.549	12202.82
472.754	11973.45
472.959	12018.5
473.164	11512.66
473.369	11363.15
473.574	11756.36
473.778	11684.69
473.983	11557.71
474.188	11746.12
474.393	11162.45
474.598	11150.17
474.802	11086.68
475.007	10928.99
475.212	10898.27
475.417	10724.19
475.621	10650.46
475.826	10728.28
476.031	10365.79
476.235	10339.17
476.44	10312.55
476.645	10072.93
476.849	10228.58
477.054	9948.01
477.259	9884.52
477.463	10048.36
477.668	9603.95
477.872	9802.6
478.077	9583.47
478.282	9053.05
478.486	9448.3
478.691	9257.84
478.895	9077.62
479.1	9175.92
479.304	9311.09
479.509	8684.41
479.713	9171.83
479.918	8784.76
480.122	8766.33
480.326	8809.34
480.531	8854.39
480.735	8719.23
480.94	8711.04
481.144	8819.58
481.348	8530.81
481.553	8541.05
481.757	8356.74
481.961	8416.13
482.166	8817.53
482.37	8594.3
482.574	8498.05
482.778	8319.87
482.983	8698.75
483.187	8430.46
483.391	8577.92
483.595	8340.35
483.8	8471.42
484.004	8502.14
484.208	8498.05
484.412	8446.85
484.616	8393.6
484.821	8471.42
485.025	8280.96
485.229	8645.5
485.433	8311.68
485.637	8520.57
485.841	8129.41
486.045	8606.59
486.249	8491.9
486.453	8364.93
486.657	8602.49
486.861	8405.89
487.065	8262.53
487.269	8506.24
487.473	8350.59
487.677	8590.2
487.881	8641.4
488.085	8424.32
488.289	8440.7
488.493	8319.87
488.697	8512.38
488.901	8606.59
489.105	8356.74
489.309	8532.86
489.512	8700.8
489.716	8528.77
489.92	8596.35
490.124	8373.12
490.328	8708.99
490.531	8500.09
490.735	8582.01
490.939	8704.89
491.143	8608.64
491.346	8627.07
491.55	8737.66
491.754	8733.56
491.958	8807.29
492.161	8692.6
492.365	9007.99
492.569	8645.5
492.772	8670.08
492.976	8840.06
493.18	8975.22
493.383	9192.31
493.587	9470.83
493.79	9345.91
493.994	9126.77
494.197	9255.79
494.401	9227.12
494.605	9401.2
494.808	9536.37
495.012	9450.35
495.215	9423.73
495.419	9519.98
495.622	9823.08
495.825	9778.03
496.029	9614.19
496.232	9794.41
496.436	9675.63
496.639	10173.28
496.843	10120.04
497.046	10212.2
497.249	10584.93
497.453	10646.37
497.656	10464.1
497.859	10486.62
498.063	10601.31
498.266	10847.07
498.469	10902.36
498.673	10937.18
498.876	10918.75
499.079	11291.48
499.282	11330.39
499.485	11502.42
499.689	11666.25
499.892	11830.09
500.095	11805.52
500.298	12065.61
500.501	11981.64
500.705	12256.07
500.908	12370.76
501.111	12454.72
501.314	12460.87
501.517	12696.38
501.72	12557.12
501.923	12854.08
502.126	13275.96
502.329	13437.75
502.532	13235
502.735	13204.28
502.938	13648.69
503.141	13656.88
503.344	13921.07
503.547	13808.43
503.75	14189.35
503.953	14332.71
504.156	14766.88
504.359	14672.67
504.562	14787.36
504.765	14988.06
504.968	15035.16
505.17	15495.96
505.373	15561.49
505.576	15706.9
505.779	15706.9
505.982	16083.72
506.185	16245.51
506.387	16278.28
506.59	16421.64
506.793	16698.11
506.996	16681.73
507.198	17193.72
507.401	17138.43
507.604	17298.17
507.807	17519.35
508.009	17654.51
508.212	17924.85
508.415	18213.61
508.617	18234.09
508.82	18469.61
509.022	18377.45
509.225	18590.44
509.428	19172.06
509.63	19352.28
509.833	19108.57
510.035	19714.77
510.238	19671.76
510.44	19655.38
510.643	20286.15
510.845	20320.97
511.048	20007.63
511.25	20411.08
511.453	20730.56
511.655	21228.22
511.858	21064.38
512.06	21185.21
512.262	21693.11
512.465	21379.77
512.667	21824.18
512.87	21897.91
513.072	22110.89
513.274	22643.37
513.477	22667.94
513.679	22807.2
513.881	23112.35
514.084	23329.44
514.286	23290.52
514.488	23521.95
514.69	24339.08
514.893	24425.1
515.095	24167.06
515.297	24849.03
515.499	24451.72
515.701	24937.09
515.904	25117.31
516.106	25395.84
516.308	25498.23
516.51	25821.81
516.712	25926.26
516.914	26124.91
517.116	26714.73
517.318	26524.27
517.52	26741.35
517.722	26897
517.925	27714.14
518.127	27511.39
518.329	27871.83
518.531	27626.07
518.733	28455.5
518.935	28883.53
519.136	28582.48
519.338	29307.46
519.54	29139.52
519.742	29309.5
519.944	29841.98
520.146	29938.23
520.348	30042.68
520.55	30067.25
520.752	30005.81
520.954	30587.44
521.155	30689.84
521.357	31109.67
521.559	31189.54
521.761	31490.59
521.963	31857.18
522.164	31863.32
522.366	31986.2
522.568	32215.57
522.77	32422.42
522.971	32895.5
523.173	32428.56
523.375	33208.84
523.576	32805.39
523.778	33102.34
523.98	33612.29
524.181	33321.48
524.383	33681.92
524.584	34204.15
524.786	34525.68
524.988	34013.69
525.189	34548.21
525.391	34716.14
525.592	35084.78
525.794	35197.41
525.995	35019.24
526.197	35373.54
526.398	35277.29
526.6	35252.71
526.801	35668.45
527.003	35693.02
527.204	35949.02
527.406	36364.76
527.607	35973.6
527.808	36352.47
528.01	36020.7
528.211	36325.85
528.412	37087.69
528.614	36405.72
528.815	36923.85
529.016	36874.7
529.218	36817.36
529.419	37011.92
529.62	36917.71
529.822	36813.26
530.023	36780.49
530.224	37218.76
530.425	37116.36
530.626	36774.35
530.828	36760.02
531.029	37325.25
531.23	37233.1
531.431	37382.6
531.632	37392.84
531.833	37773.76
532.035	37405.13
532.236	37548.48
532.437	37693.89
532.638	37695.94
532.839	37822.91
533.04	38044.09
533.241	37183.94
533.442	38148.54
533.643	37534.15
533.844	37740.99
534.045	37683.65
534.246	37747.14
534.447	37906.88
534.648	37566.91
534.849	37794.24
535.05	37601.73
535.251	37855.68
535.451	37360.07
535.652	37853.63
535.853	37923.26
536.054	37616.07
536.255	37927.36
536.456	37542.34
536.657	38013.37
536.857	37675.46
537.058	37343.69
537.259	38001.08
537.46	38052.28
537.66	37753.28
537.861	38025.66
538.062	37452.23
538.263	38261.18
538.463	37927.36
538.664	37534.15
538.865	37411.27
539.065	37716.42
539.266	37034.44
539.466	38050.24
539.667	37204.42
539.868	38189.5
540.068	37734.85
540.269	37542.34
540.469	37759.42
540.67	37585.35
540.87	37550.53
541.071	37921.21
541.271	37622.21
541.472	37900.73
541.672	37493.19
541.873	37675.46
542.073	37505.48
542.274	37892.54
542.474	37966.27
542.675	37394.89
542.875	37781.95
543.075	37640.64
543.276	37304.77
543.476	37466.56
543.676	37169.61
543.877	37605.83
544.077	37343.69
544.277	37474.76
544.478	37347.78
544.678	37702.08
544.878	37710.27
545.078	37474.76
545.279	37433.8
545.479	37106.12
545.679	37626.31
545.879	37237.19
546.079	37505.48
546.28	37464.52
546.48	36958.67
546.68	37366.21
546.88	37011.92
547.08	37331.4
547.28	37163.46
547.48	37005.77
547.68	37327.3
547.88	36547.03
548.081	37384.65
548.281	37290.44
548.481	37206.47
548.681	37497.28
548.881	36930
549.081	36987.34
549.28	37120.46
549.48	37224.9
549.68	37112.27
549.88	37441.99
550.08	36981.2
550.28	37378.5
550.48	37196.23
550.68	37362.12
550.88	36966.86
551.08	37007.82
551.279	36780.49
551.479	36743.63
551.679	37069.26
551.879	37229
552.079	36696.53
552.278	37120.46
552.478	36741.58
552.678	36901.32
552.878	37003.72
553.077	36800.97
553.277	36657.62
553.477	37327.3
553.676	36831.69
553.876	36983.24
554.076	36565.46
554.275	36757.97
554.475	36348.37
554.674	36536.79
554.874	36512.21
555.074	36616.66
555.273	36895.18
555.473	36538.83
555.672	36413.91
555.872	36381.14
556.071	36362.71
556.271	36344.28
556.47	35942.88
556.67	36059.61
556.869	36188.63
557.068	36129.24
557.268	36258.26
557.467	36280.79
557.667	36317.65
557.866	36022.75
558.065	36245.97
558.265	36329.94
558.464	35768.8
558.663	36297.17
558.863	35879.39
559.062	36080.09
559.261	35258.85
559.461	36340.18
559.66	35650.02
559.859	35877.34
560.058	35625.44
560.258	36178.39
560.457	35178.98
560.656	35926.49
560.855	35592.67
561.054	35774.94
561.253	35275.24
561.453	35232.23
561.652	35629.54
561.851	35451.36
562.05	35191.27
562.249	35238.37
562.448	35400.16
562.647	35125.74
562.846	35052.01
563.045	35054.06
563.244	34562.54
563.443	35295.72
563.642	34603.5
563.841	34544.11
564.04	34335.22
564.239	34820.59
564.438	34226.68
564.637	34673.13
564.836	34564.59
565.035	34308.6
565.234	34484.72
565.432	34251.25
565.631	34359.8
565.83	34492.91
566.029	34224.63
566.228	34050.55
566.427	34019.83
566.625	34044.41
566.824	33427.97
567.023	33751.55
567.222	32893.45
567.42	33847.8
567.619	33640.96
567.818	33311.24
568.016	33470.98
568.215	33460.74
568.414	33350.15
568.612	33528.32
568.811	33098.25
569.01	33583.62
569.208	32580.11
569.407	33327.62
569.605	32602.64
569.804	33026.57
570.002	32729.61
570.201	32670.22
570.4	32514.58
570.598	32266.77
570.797	32539.15
570.995	32637.45
571.193	32346.64
571.392	32442.9
571.59	32244.24
571.789	32287.25
571.987	31771.16
572.186	32094.74
572.384	31875.61
572.582	31992.34
572.781	31984.15
572.979	31468.06
573.177	31701.53
573.376	31617.57
573.574	31502.88
573.772	31556.13
573.971	31343.14
574.169	31455.78
574.367	31093.29
574.565	31103.53
574.763	31388.19
574.962	31250.98
575.16	30626.35
575.358	30937.64
575.556	30698.03
575.754	30855.72
575.952	30476.85
576.151	30784.04
576.349	30456.37
576.547	30370.35
576.745	30315.06
576.943	30499.37
577.141	30358.06
577.339	30478.89
577.537	30110.26
577.735	29862.46
577.933	30071.35
578.131	29487.68
578.329	29938.23
578.527	29477.44
578.725	29950.52
578.923	29547.07
579.121	29686.33
579.319	29293.12
579.516	29506.11
579.714	29217.35
579.912	29129.28
580.11	29338.18
580.308	28981.83
580.506	28947.01
580.704	28551.76
580.901	28752.46
581.099	28985.93
581.297	28576.33
581.495	28361.3
581.692	28815.94
581.89	28463.69
582.088	28523.08
582.285	28156.5
582.483	28402.25
582.681	28267.09
582.878	28555.85
583.076	27722.33
583.274	27955.8
583.471	27900.5
583.669	27843.16
583.866	27777.62
584.064	27841.11
584.262	27378.27
584.459	27724.38
584.657	27513.44
584.854	27806.3
585.052	26933.86
585.249	27337.31
585.447	27470.43
585.644	26913.38
585.841	27097.7
586.039	27116.13
586.236	26704.49
586.434	26749.54
586.631	26839.65
586.828	26503.79
587.026	26714.73
587.223	26610.28
587.42	26571.37
587.618	26491.5
587.815	26260.08
588.012	26356.33
588.21	26126.96
588.407	26188.4
588.604	25764.47
588.801	25862.77
588.999	25973.36
589.196	25725.56
589.393	25911.92
589.59	25739.9
589.787	25444.99
589.984	25432.7
590.182	25287.29
590.379	25746.04
590.576	24982.15
590.773	25307.77
590.97	25098.88
591.167	25182.85
591.364	24726.15
591.561	25242.24
591.758	24933
591.955	25133.7
592.152	24767.11
592.349	24449.67
592.546	25016.96
592.743	24867.46
592.94	24476.3
593.137	24464.01
593.334	24490.63
593.531	24294.03
593.727	24439.44
593.924	24267.41
594.121	23888.53
594.318	24461.96
594.515	23915.16
594.712	24015.51
594.908	23507.61
595.105	24111.76
595.302	23616.15
595.499	23595.67
595.696	23814.8
595.892	23190.17
596.089	23655.06
596.286	23489.18
596.482	23284.38
596.679	23306.91
596.876	23319.2
597.072	22964.9
597.269	23206.56
597.466	22846.12
597.662	22567.59
597.859	22823.59
598.055	22891.17
598.252	22661.8
598.448	22725.29
598.645	22491.82
598.841	22239.92
599.038	22833.83
599.234	22381.23
599.431	22282.92
599.627	22430.38
599.824	22340.27
600.02	22041.26
600.217	22340.27
600.413	21988.02
600.609	21793.46
600.806	21822.13
601.002	21910.19
601.198	21635.77
601.395	21689.01
601.591	21519.03
601.787	21445.3
601.984	21363.39
602.18	21539.51
602.376	21373.63
602.572	21594.81
602.769	20943.55
602.965	20927.17
603.161	21025.47
603.357	20882.11
603.553	20695.75
603.75	20896.45
603.946	20699.84
604.142	20984.51
604.338	20599.49
604.534	20812.48
604.73	20605.64
604.926	20316.87
605.122	20488.9
605.318	20572.87
605.514	20280.01
605.71	20433.61
605.906	20382.41
606.102	20107.98
606.298	19903.18
606.494	20019.92
606.69	19974.86
606.886	19972.82
607.082	19798.74
607.278	20136.65
607.474	19423.96
607.67	19739.35
607.866	19507.93
608.062	19833.55
608.257	19737.3
608.453	19634.9
608.649	19649.24
608.845	19360.47
609.041	19411.67
609.236	19501.78
609.432	19092.19
609.628	19256.03
609.824	19231.45
610.019	19270.36
610.215	19258.07
610.411	19256.03
610.606	19159.77
610.802	19016.41
610.998	19104.48
611.193	19176.16
611.389	18997.98
611.584	18842.34
611.78	18864.86
611.976	18963.17
612.171	18885.34
612.367	18574.05
612.562	18760.42
612.758	18367.21
612.953	18211.56
613.149	18545.38
613.344	18500.33
613.539	18574.05
613.735	18627.3
613.93	18461.41
614.126	18383.59
614.321	18430.69
614.517	18485.99
614.712	18424.55
614.907	18432.74
615.103	18334.44
615.298	18066.16
615.493	18207.47
615.688	18066.16
615.884	18477.8
616.079	18080.49
616.274	18148.08
616.47	18012.91
616.665	17877.74
616.86	17910.51
617.055	17971.95
617.25	17701.62
617.445	18047.72
617.641	17552.12
617.836	17748.72
618.031	17404.66
618.226	17720.05
618.421	17394.42
618.616	17693.43
618.811	17507.06
619.006	17617.65
619.201	17220.35
619.396	17539.83
619.591	16982.78
619.786	17203.96
619.981	17076.99
620.176	17218.3
620.371	16769.79
620.566	17083.13
620.761	16861.95
620.956	16884.48
621.151	16532.23
621.346	16968.45
621.541	16569.09
621.735	16765.7
621.93	16010
622.125	16411.4
622.32	16130.83
622.515	16136.97
622.709	15868.69
622.904	16229.13
623.099	15786.77
623.294	16020.24
623.488	15590.16
623.683	15758.1
623.878	15315.73
624.072	15262.49
624.267	15577.87
624.462	15401.75
624.656	15233.82
624.851	15186.71
625.046	15031.07
625.24	14713.63
625.435	14977.82
625.629	14981.92
625.824	14586.66
626.018	14992.16
626.213	14289.7
626.407	14578.47
626.602	14420.77
626.796	14426.92
626.991	14435.11
627.185	14261.03
627.38	14148.39
627.574	13865.77
627.768	13869.87
627.963	14029.61
628.157	13757.23
628.352	13681.46
628.546	13706.03
628.74	13652.78
628.935	13421.36
629.129	13224.76
629.323	13261.62
629.517	13316.92
629.712	13200.18
629.906	13275.96
630.1	12987.19
630.294	13079.35
630.489	12759.87
630.683	12944.19
630.877	12774.21
631.071	12854.08
631.265	12772.16
631.459	12696.38
631.653	12403.52
631.848	12458.82
632.042	12526.4
632.236	12424
632.43	12313.41
632.624	12450.63
632.818	12165.96
633.012	11932.49
633.206	11920.2
633.4	11971.4
633.594	11797.32
633.788	11834.19
633.982	11817.8
634.176	11590.48
634.369	11676.49
634.563	11526.99
634.757	11531.09
634.951	11512.66
635.145	11576.14
635.339	11526.99
635.533	11227.99
635.726	11473.74
635.92	11090.77
636.114	11076.44
636.308	11101.01
636.501	11006.81
636.695	10971.99
636.889	10920.79
637.083	10840.92
637.276	10849.11
637.47	10593.12
637.664	10957.66
637.857	10654.56
638.051	10564.45
638.244	10656.61
638.438	10494.82
638.632	10478.43
638.825	10314.59
639.019	10314.59
639.212	10122.09
639.406	10204
639.599	10152.81
639.793	9945.96
639.986	9982.82
640.18	10023.78
640.373	9964.39
640.567	9667.44
640.76	9792.36
640.954	9814.89
641.147	9720.68
641.34	9700.2
641.534	9671.53
641.727	9644.91
641.92	9431.92
642.114	9388.91
642.307	9282.42
642.5	9298.8
642.694	9393.01
642.887	9302.9
643.08	9401.2
643.273	9132.92
643.467	9339.76
643.66	8946.55
643.853	9010.04
644.046	8971.13
644.239	8983.41
644.432	8842.11
644.626	8835.96
644.819	8778.62
645.012	8649.6
645.205	8727.42
645.398	8674.17
645.591	8637.31
645.784	8532.86
645.977	8543.1
646.17	8553.34
646.363	8440.7
646.556	8170.37
646.749	8344.45
646.942	8270.72
647.135	8086.4
647.328	8278.91
647.521	8113.03
647.714	7938.95
647.907	8055.69
648.099	7861.13
648.292	7924.62
648.485	8076.16
648.678	7975.81
648.871	7789.45
649.064	7701.39
649.256	7869.32
649.449	7764.87
649.642	7676.81
649.835	7588.75
650.027	7682.95
650.22	7469.97
650.413	7510.93
650.605	7629.71
650.798	7441.29
650.991	7064.47
651.183	7590.8
651.376	7181.2
651.568	7289.74
651.761	7246.74
651.954	7451.53
652.146	7263.12
652.339	7132.05
652.531	7246.74
652.724	7087
652.916	6933.4
653.109	7000.98
653.301	7039.89
653.494	7013.27
653.686	6808.47
653.879	6890.39
654.071	6734.75
654.263	6941.59
654.456	6681.5
654.648	6753.18
654.84	6642.59
655.033	6607.77
655.225	6624.15
655.417	6443.93
655.61	6628.25
655.802	6439.84
655.994	6523.8
656.186	6417.31
656.379	6472.61
656.571	6405.02
656.763	6419.36
656.955	6259.62
657.148	6378.4
657.34	6169.51
657.532	6065.06
657.724	6163.36
657.916	5893.03
658.108	6046.63
658.3	6218.66
658.492	5962.66
658.684	5979.04
658.876	5893.03
659.068	6048.68
659.26	5956.52
659.452	5829.54
659.644	5850.02
659.836	5761.96
660.028	5708.71
660.22	5637.03
660.412	5714.86
660.604	5628.84
660.796	5677.99
660.988	5710.76
661.18	5557.16
661.372	5485.48
661.563	5573.55
661.755	5387.18
661.947	5532.59
662.139	5446.57
662.331	5520.3
662.522	5266.35
662.714	5516.2
662.906	5278.64
663.097	5342.13
663.289	5147.57
663.481	5243.82
663.673	5270.45
663.864	5063.6
664.056	5098.42
664.247	5180.34
664.439	5088.18
664.631	5039.03
664.822	5055.41
665.014	5018.55
665.205	5018.55
665.397	4985.78
665.588	4899.77
665.78	4916.15
665.971	4891.57
666.163	4965.3
666.354	4942.77
666.546	4950.96
666.737	4823.99
666.929	4785.08
667.12	4860.85
667.311	4735.93
667.503	4799.41
667.694	4635.58
667.885	4813.75
668.077	4711.35
668.268	4666.3
668.459	4541.37
668.651	4608.95
668.842	4563.9
669.033	4596.67
669.224	4342.72
669.416	4625.34
669.607	4486.08
669.798	4393.92
669.989	4467.64
670.18	4449.21
670.371	4543.42
670.563	4377.53
670.754	4326.33
670.945	4268.99
671.136	4309.95
671.327	4303.81
671.518	4305.85
671.709	4268.99
671.9	4285.37
672.091	4178.88
672.282	4162.5
672.473	4236.22
672.664	4099.01
672.855	4174.78
673.046	4142.02
673.237	4240.32
673.428	4019.14
673.619	3972.04
673.809	3941.32
674	4031.43
674.191	4088.77
674.382	4015.04
674.573	4080.58
674.764	4004.8
674.954	3910.6
675.145	3920.84
675.336	3816.39
675.527	3965.89
675.717	3888.07
675.908	3795.91
676.099	3830.73
676.289	3847.11
676.48	3818.44
676.671	3810.25
676.861	3711.94
677.052	3664.84
677.243	3744.71
677.433	3787.72
677.624	3816.39
677.814	3711.94
678.005	3716.04
678.195	3728.33
678.386	3662.79
678.576	3648.46
678.767	3793.86
678.957	3793.86
679.148	3632.07
679.338	3781.57
679.529	3589.07
679.719	3779.53
679.909	3582.92
680.1	3625.93
680.29	3529.67
680.481	3601.35
680.671	3632.07
680.861	3453.9
681.052	3507.15
681.242	3548.11
681.432	3419.08
681.622	3664.84
681.813	3501
682.003	3447.76
682.193	3427.28
682.383	3351.5
682.573	3425.23
682.764	3392.46
682.954	3425.23
683.144	3492.81
683.334	3394.51
683.524	3382.22
683.714	3341.26
683.904	3312.59
684.094	3533.77
684.284	3337.17
684.474	3285.97
684.664	3353.55
684.854	3148.75
685.044	3220.43
685.234	3115.98
685.424	3294.16
685.614	3122.13
685.804	3285.97
685.994	3148.75
686.184	3335.12
686.374	3146.7
686.564	3075.03
686.753	3077.07
686.943	3154.9
687.133	3167.18
687.323	3175.38
687.513	3214.29
687.702	3163.09
687.892	3005.39
688.082	2986.96
688.272	2997.2
688.461	3091.41
688.651	2980.82
688.841	3001.3
689.03	3017.68
689.22	3072.98
689.41	3113.94
689.599	2796.5
689.789	2892.76
689.979	2950.1
690.168	2993.11
690.358	2929.62
690.547	2927.57
690.737	2917.33
690.926	2909.14
691.116	2874.32
691.305	2831.32
691.495	2946
691.684	2917.33
691.874	2759.64
692.063	2802.65
692.252	2720.73
692.442	2796.5
692.631	2753.49
692.82	2790.36
693.01	2679.77
693.199	2730.97
693.388	2583.51
693.578	2661.34
693.767	2700.25
693.956	2583.51
694.146	2532.31
694.335	2571.22
694.524	2548.7
694.713	2520.03
694.902	2712.53
695.092	2622.42
695.281	2681.82
695.47	2659.29
695.659	2544.6
695.848	2606.04
696.037	2401.24
696.226	2497.5
696.415	2608.09
696.604	2577.37
696.793	2458.59
696.982	2579.42
697.171	2556.89
697.36	2532.31
697.549	2483.16
697.738	2487.26
697.927	2499.55
698.116	2419.68
698.305	2458.59
698.494	2405.34
698.683	2411.48
698.872	2517.98
699.061	2313.18
699.25	2360.28
699.438	2354.14
699.627	2378.72
699.816	2352.09
700.005	2397.15
700.193	2419.68
700.382	2434.01
700.571	2429.91
700.76	2458.59
700.948	2438.11
701.137	2421.72
701.326	2329.56
701.514	2245.6
701.703	2411.48
701.892	2272.22
702.08	2517.98
702.269	2294.75
702.457	2288.61
702.646	2259.93
702.834	2214.88
703.023	2270.17
703.212	2405.34
703.4	2294.75
703.589	2270.17
703.777	2253.79
703.965	2245.6
704.154	2407.39
704.342	2296.8
704.531	2315.23
704.719	2155.49
704.907	2284.51
705.096	2221.02
705.284	2214.88
705.472	2214.88
705.661	2384.86
705.849	2319.32
706.037	2411.48
706.226	2362.33
706.414	2370.52
706.602	2155.49
706.79	2300.89
706.979	2212.83
707.167	2288.61
707.355	2157.54
707.543	2241.5
707.731	2171.87
707.919	2218.97
708.107	2214.88
708.296	2200.54
708.484	2251.74
708.672	2348
708.86	2261.98
709.048	2196.45
709.236	2223.07
709.424	2356.19
709.612	2212.83
709.8	2253.79
709.988	2188.25
710.176	2184.16
710.364	2231.26
710.551	2149.34
710.739	2247.65
710.927	2272.22
711.115	2233.31
711.303	2163.68
711.491	2249.69
711.679	2175.97
711.866	2229.21
712.054	2282.46
712.242	2178.01
712.43	2196.45
712.617	2216.93
712.805	2157.54
712.993	2237.41
713.181	2155.49
713.368	2229.21
713.556	2139.1
713.744	2135.01
713.931	2348
714.119	2249.69
714.306	2208.73
714.494	2231.26
714.682	2163.68
714.869	2139.1
715.057	2175.97
715.244	2223.07
715.432	2182.11
715.619	2048.99
715.807	2200.54
715.994	2298.84
716.182	2106.34
716.369	2223.07
716.556	2223.07
716.744	2120.67
716.931	2190.3
717.119	2180.06
717.306	2122.72
717.493	2216.93
717.681	2163.68
717.868	2163.68
718.055	2216.93
718.242	2147.3
718.43	2108.38
718.617	2212.83
718.804	2141.15
718.991	2089.95
719.179	2278.37
719.366	2157.54
719.553	2188.25
719.74	2083.81
719.927	2221.02
720.114	2157.54
720.301	2087.9
720.488	2231.26
720.676	2042.85
720.863	2180.06
721.05	2249.69
721.237	2089.95
721.424	2182.11
721.611	2190.3
721.798	2206.69
721.985	2167.77
722.172	2149.34
722.358	2137.06
722.545	2139.1
722.732	2204.64
722.919	2126.82
723.106	2139.1
723.293	2073.57
723.48	2200.54
723.667	2139.1
723.853	2180.06
724.04	2126.82
724.227	2155.49
724.414	2114.53
724.6	2061.28
724.787	2261.98
724.974	2180.06
725.161	2190.3
725.347	2016.23
725.534	2227.17
725.72	2153.44
725.907	2147.3
726.094	2171.87
726.28	2110.43
726.467	2159.58
726.653	2100.19
726.84	2130.91
727.027	2042.85
727.213	2026.47
727.4	2212.83
727.586	2198.49
727.773	2085.86
727.959	2163.68
728.145	2163.68
728.332	2151.39
728.518	2122.72
728.705	2165.73
728.891	2178.01
729.077	2126.82
729.264	2155.49
729.45	2171.87
729.636	2132.96
729.823	2212.83
730.009	2094.05
730.195	2098.14
730.382	2081.76
730.568	2112.48
730.754	2155.49
730.94	2229.21
731.126	2171.87
731.313	2257.89
731.499	2126.82
731.685	2061.28
731.871	2081.76
732.057	2044.9
732.243	2173.92
732.429	2036.7
732.615	2081.76
732.801	2126.82
732.987	2122.72
733.173	2206.69
733.359	2130.91
733.545	2028.51
733.731	2016.23
733.917	2180.06
734.103	2130.91
734.289	2071.52
734.475	2067.42
734.661	2106.34
734.847	2065.38
735.033	2089.95
735.219	2171.87
735.404	2175.97
735.59	2120.67
735.776	2077.66
735.962	2085.86
736.148	2151.39
736.333	2034.66
736.519	2040.8
736.705	2092
736.89	2048.99
737.076	2057.18
737.262	2051.04
737.447	2118.62
737.633	2085.86
737.819	2163.68
738.004	2210.78
738.19	2036.7
738.375	2100.19
738.561	2077.66
738.747	2110.43
738.932	2018.27
739.118	2022.37
739.303	2104.29
739.489	2106.34
739.674	2016.23
739.859	2026.47
740.045	1989.6
740.23	2075.62
740.416	1893.35
740.601	2085.86
740.786	2030.56
740.972	1922.02
741.157	2005.99
741.342	1969.12
741.528	2077.66
741.713	1991.65
741.898	1975.27
742.084	2014.18
742.269	2020.32
742.454	2003.94
742.639	1915.87
742.824	1944.55
743.01	1917.92
743.195	1874.92
743.38	1942.5
743.565	1831.91
743.75	1922.02
743.935	1723.37
744.12	1868.77
744.305	1811.43
744.49	1858.53
744.675	1926.11
744.86	1807.33
745.045	1846.24
745.23	1876.96
745.415	1942.5
745.6	1926.11
745.785	1836
745.97	1840.1
746.155	1813.48
746.34	1770.47
746.525	1766.37
746.71	1885.16
746.895	1805.28
747.079	1778.66
747.264	1817.57
747.449	1858.53
747.634	1758.18
747.819	1803.24
748.003	1760.23
748.188	1657.83
748.373	1815.52
748.557	1725.41
748.742	1731.56
748.927	1702.89
749.111	1696.74
749.296	1803.24
749.481	1647.59
749.665	1756.13
749.85	1641.45
750.034	1639.4
750.219	1598.44
750.404	1612.78
750.588	1541.1
750.773	1567.72
750.957	1512.42
751.141	1518.57
751.326	1555.43
751.51	1477.61
751.695	1479.66
751.879	1479.66
752.064	1539.05
752.248	1430.51
752.432	1631.21
752.617	1418.22
752.801	1608.68
752.985	1463.27
753.17	1485.8
753.354	1522.66
753.538	1360.88
753.722	1401.83
753.907	1373.16
754.091	1371.12
754.275	1387.5
754.459	1430.51
754.643	1387.5
754.828	1354.73
755.012	1342.44
755.196	1240.05
755.38	1309.68
755.564	1297.39
755.748	1299.44
755.932	1303.53
756.116	1426.41
756.3	1250.28
756.484	1328.11
756.668	1299.44
756.852	1250.28
757.036	1272.81
757.22	1221.61
757.404	1319.92
757.588	1270.76
757.772	1184.75
757.956	1250.28
758.14	1268.72
758.323	1278.96
758.507	1199.09
758.691	1147.89
758.875	1166.32
759.059	1180.65
759.242	1127.41
759.426	1176.56
759.61	1201.13
759.794	1207.28
759.977	1248.24
760.161	1278.96
760.345	1135.6
760.528	1123.31
760.712	1151.98
760.895	1223.66
761.079	1127.41
761.263	1002.48
761.446	1115.12
761.63	1016.82
761.813	1051.63
761.997	1065.97
762.18	1057.78
762.364	1102.83
762.547	1082.35
762.731	986.1
762.914	1053.68
763.098	1061.87
763.281	1063.92
763.464	1076.21
763.648	984.05
763.831	1025.01
764.015	977.91
764.198	994.29
764.381	951.28
764.564	1076.21
764.748	951.28
764.931	1000.43
765.114	959.47
765.297	1041.39
765.481	928.75
765.664	967.67
765.847	959.47
766.03	938.99
766.213	922.61
766.397	953.33
766.58	969.71
766.763	984.05
766.946	945.14
767.129	951.28
767.312	865.27
767.495	945.14
767.678	906.23
767.861	934.9
768.044	936.95
768.227	945.14
768.41	943.09
768.593	932.85
768.776	945.14
768.959	988.14
769.142	943.09
769.324	861.17
769.507	828.4
769.69	898.03
769.873	895.99
770.056	902.13
770.239	869.36
770.421	824.31
770.604	797.68
770.787	875.51
770.97	824.31
771.152	865.27
771.335	877.55
771.518	840.69
771.7	852.98
771.883	791.54
772.066	812.02
772.248	760.82
772.431	863.22
772.613	885.75
772.796	816.12
772.978	830.45
773.161	889.84
773.343	805.88
773.526	771.06
773.708	771.06
773.891	717.81
774.073	869.36
774.256	756.72
774.438	836.6
774.621	713.72
774.803	750.58
774.985	756.72
775.168	799.73
775.35	709.62
775.532	717.81
775.715	680.95
775.897	666.61
776.079	713.72
776.261	726
776.444	676.85
776.626	648.18
776.808	771.06
776.99	588.79
777.173	691.19
777.355	642.04
777.537	723.96
777.719	668.66
777.901	703.48
778.083	791.54
778.265	621.56
778.447	672.76
778.629	713.72
778.811	601.08
778.993	607.22
779.175	680.95
779.357	588.79
779.539	560.12
779.721	609.27
779.903	615.41
780.085	625.65
780.267	590.84
780.449	533.5
780.631	680.95
780.812	594.93
780.994	582.65
781.176	566.26
781.358	541.69
781.54	539.64
781.721	594.93
781.903	578.55
782.085	611.32
782.267	547.83
782.448	537.59
782.63	492.54
782.812	599.03
782.993	543.74
783.175	492.54
783.357	513.02
783.538	451.58
783.72	455.67
783.901	504.82
784.083	574.46
784.264	470.01
784.446	510.97
784.627	445.43
784.809	467.96
784.99	449.53
785.172	496.63
785.353	492.54
785.535	322.56
785.716	445.43
785.897	435.19
786.079	396.28
786.26	433.15
786.441	486.39
786.623	416.76
786.804	410.62
786.985	443.39
787.167	435.19
787.348	443.39
787.529	410.62
787.71	470.01
787.891	439.29
788.073	363.51
788.254	467.96
788.435	467.96
788.616	386.04
788.797	349.18
788.978	404.47
789.159	316.41
789.34	429.05
789.522	322.56
789.703	445.43
789.884	433.15
790.065	349.18
790.246	377.85
790.427	414.71
790.607	386.04
790.788	332.79
790.969	248.83
791.15	314.36
791.331	287.74
791.512	357.37
791.693	316.41
791.874	402.43
792.054	381.95
792.235	283.64
792.416	304.12
792.597	355.32
792.778	379.9
792.958	404.47
793.139	363.51
793.32	347.13
793.5	306.17
793.681	316.41
793.862	306.17
794.042	345.08
794.223	289.79
794.404	398.33
794.584	275.45
794.765	314.36
794.945	310.27
795.126	283.64
795.306	414.71
795.487	281.6
795.667	267.26
795.848	273.4
796.028	267.26
796.209	254.97
796.389	332.79
796.57	312.32
796.75	312.32
796.93	248.83
797.111	312.32
797.291	289.79
797.471	316.41
797.652	306.17
797.832	265.21
798.012	261.12
798.192	214.01
798.373	209.92
798.553	349.18
798.733	263.16
798.913	218.11
799.093	201.72
799.274	308.22
799.454	312.32
799.634	259.07
799.814	254.97
799.994	304.12
800.174	173.05
800.354	240.64
800.534	246.78
800.714	242.68
800.894	164.86
801.074	193.53
801.254	214.01
801.434	273.4
801.614	234.49
801.794	230.4
801.974	795.64
802.154	240.64
802.334	320.51
802.514	193.53
802.693	244.73
802.873	297.98
803.053	355.32
803.233	152.57
803.413	216.06
803.592	259.07
803.772	132.09
803.952	179.2
804.131	173.05
804.311	218.11
804.491	246.78
804.67	160.77
804.85	216.06
805.03	273.4
805.209	207.87
805.389	123.9
805.568	160.77
805.748	222.2
805.928	197.63
806.107	261.12
806.287	214.01
806.466	142.33
806.646	187.39
806.825	132.09
807.004	144.38
807.184	232.44
807.363	242.68
807.543	291.84
807.722	142.33
807.901	205.82
808.081	197.63
808.26	144.38
808.439	128
808.619	205.82
808.798	166.91
808.977	152.57
809.156	254.97
809.336	222.2
809.515	193.53
809.694	197.63
809.873	136.19
810.052	250.88
810.231	242.68
810.411	132.09
810.59	205.82
810.769	140.29
810.948	115.71
811.127	68.61
811.306	148.48
811.485	132.09
811.664	99.33
811.843	56.32
812.022	193.53
812.201	93.18
812.38	109.57
812.559	134.14
812.737	148.48
812.916	119.81
813.095	183.29
813.274	175.1
813.453	136.19
813.632	140.29
813.811	162.81
813.989	111.61
814.168	132.09
814.347	134.14
814.526	109.57
814.704	211.96
814.883	95.23
815.062	107.52
815.24	138.24
815.419	125.95
815.598	101.37
815.776	62.46
815.955	82.94
816.133	62.46
816.312	105.47
816.49	123.9
816.669	242.68
816.847	82.94
817.026	80.89
817.204	25.6
817.383	142.33
817.561	164.86
817.74	58.37
817.918	115.71
818.097	150.53
818.275	132.09
818.453	179.2
818.632	115.71
818.81	146.43
818.988	162.81
819.167	193.53
819.345	105.47
819.523	74.75
819.701	144.38
819.879	117.76
820.058	99.33
820.236	205.82
820.414	132.09
820.592	158.72
820.77	117.76
820.948	121.85
821.127	56.32
821.305	115.71
821.483	84.99
821.661	189.44
821.839	95.23
822.017	19.46
822.195	173.05
822.373	160.77
822.551	41.98
822.729	140.29
822.907	84.99
823.085	117.76
823.262	60.42
823.44	58.37
823.618	101.37
823.796	134.14
823.974	68.61
824.152	115.71
824.329	123.9
824.507	60.42
824.685	52.22
824.863	5.12
825.04	15.36
825.218	95.23
825.396	84.99
825.574	82.94
825.751	91.13
825.929	121.85
826.107	95.23
826.284	72.7
826.462	44.03
826.639	70.65
826.817	74.75
826.994	33.79
827.172	41.98
827.349	144.38
827.527	74.75
827.704	60.42
827.882	52.22
828.059	128
828.237	44.03
828.414	87.04
828.591	107.52
828.769	58.37
828.946	158.72
829.124	72.7
829.301	62.46
829.478	82.94
829.655	84.99
829.833	56.32
830.01	58.37
830.187	60.42
830.364	9.22
830.542	93.18
830.719	168.96
830.896	66.56
831.073	99.33
831.25	132.09
831.427	37.89
831.604	3.07
831.782	33.79
831.959	99.33
832.136	95.23
832.313	78.85
832.49	48.13
832.667	111.61
832.844	58.37
833.021	121.85
833.198	62.46
833.374	80.89
833.551	119.81
833.728	74.75
833.905	37.89
834.082	95.23
834.259	103.42
834.436	109.57
834.612	-13.31
834.789	74.75
834.966	80.89
835.143	97.28
835.319	78.85
835.496	99.33
835.673	60.42
835.85	109.57
836.026	35.84
836.203	138.24
836.38	-13.31
836.556	76.8
836.733	82.94
836.909	66.56
837.086	33.79
837.262	70.65
837.439	107.52
837.616	60.42
837.792	37.89
837.968	101.37
838.145	58.37
838.321	50.18
838.498	25.6
838.674	84.99
838.851	142.33
839.027	29.7
839.203	68.61
839.38	54.27
839.556	39.94
839.732	74.75
839.909	15.36
840.085	44.03
840.261	19.46
840.437	80.89
840.614	-15.36
840.79	95.23
840.966	95.23
841.142	46.08
841.318	91.13
841.494	89.09
841.671	50.18
841.847	19.46
842.023	50.18
842.199	5.12
842.375	74.75
842.551	-1.02
842.727	39.94
842.903	156.67
843.079	62.46
843.255	52.22
843.431	35.84
843.607	25.6
843.783	25.6
843.959	13.31
844.134	-35.84
844.31	50.18
844.486	82.94
844.662	80.89
844.838	54.27
845.013	27.65
845.189	93.18
845.365	21.5
845.541	-15.36
845.716	-15.36
845.892	25.6
846.068	87.04
846.244	33.79
846.419	101.37
846.595	11.26
846.77	31.74
846.946	17.41
847.122	41.98
847.297	3.07
847.473	48.13
847.648	-46.08
847.824	87.04
847.999	-27.65
848.175	13.31
848.35	17.41
848.526	76.8
848.701	76.8
848.876	33.79
849.052	39.94
849.227	41.98
849.403	17.41
849.578	9.22
849.753	103.42
849.929	99.33
850.104	33.79
850.279	-56.32
850.454	29.7
850.63	3.07
850.805	99.33
850.98	17.41
851.155	60.42
851.33	29.7
851.505	50.18
851.681	58.37
851.856	99.33
852.031	80.89
852.206	33.79
852.381	3.07
852.556	33.79
852.731	123.9
852.906	41.98
853.081	76.8
853.256	50.18
853.431	17.41
853.606	-11.26
853.781	-13.31
853.956	-1.02
854.131	46.08
854.305	-7.17
854.48	68.61
854.655	15.36
854.83	25.6
855.005	-13.31
855.18	25.6
855.354	80.89
855.529	99.33
855.704	-48.13
855.879	-5.12
856.053	-5.12
856.228	-33.79
856.403	25.6
856.577	78.85
856.752	-9.22
856.926	9.22
857.101	9.22
857.276	19.46
857.45	33.79
857.625	54.27
857.799	-15.36
857.974	37.89
858.148	-27.65
858.323	44.03
858.497	11.26
858.672	-66.56
858.846	9.22
859.02	58.37
859.195	-19.46
859.369	-25.6
859.543	41.98
859.718	27.65
859.892	9.22
860.066	82.94
860.241	29.7
860.415	33.79
860.589	17.41
860.763	68.61
860.938	-25.6
861.112	25.6
861.286	-23.55
861.46	-5.12
861.634	3.07
861.808	25.6
861.982	-35.84
862.157	50.18
862.331	-27.65
862.505	-76.8
862.679	9.22
862.853	41.98
863.027	-25.6
863.201	82.94
863.375	-13.31
863.549	-109.57
863.722	5.12
863.896	56.32
864.07	52.22
864.244	41.98
864.418	52.22
864.592	58.37
864.766	115.71
864.939	-44.03
865.113	-68.61
865.287	37.89
865.461	9.22
865.634	17.41
865.808	-7.17
865.982	-1.02
866.156	9.22
866.329	-39.94
866.503	-39.94
866.676	21.5
866.85	50.18
867.024	25.6
867.197	3.07
867.371	52.22
867.544	-23.55
867.718	-5.12
867.891	82.94
868.065	35.84
868.238	68.61
868.412	9.22
868.585	-15.36
868.759	17.41
868.932	-29.7
869.105	-17.41
869.279	-46.08
869.452	17.41
869.625	-1.02
869.799	-48.13
869.972	-19.46
870.145	-35.84
870.319	35.84
870.492	33.79
870.665	-31.74
870.838	17.41
871.011	21.5
871.185	27.65
871.358	-23.55
871.531	3.07
871.704	1.02
871.877	-27.65
872.05	-125.95
872.223	58.37
872.396	9.22
872.569	11.26
872.742	-19.46
872.915	17.41
873.088	46.08
873.261	-21.5
873.434	-3.07
873.607	9.22
873.78	-19.46
873.953	-31.74
874.126	3.07
874.299	9.22
874.471	25.6
874.644	-17.41
874.817	66.56
874.99	66.56
875.163	29.7
875.335	-15.36
875.508	-31.74
875.681	68.61
875.853	-1.02
876.026	54.27
876.199	-37.89
876.371	17.41
876.544	-3.07
876.717	-5.12
876.889	-19.46
877.062	1.02
877.234	-48.13
877.407	11.26
877.579	-9.22
877.752	-27.65
877.924	107.52
878.097	44.03
878.269	-17.41
878.442	-60.42
878.614	19.46
878.786	11.26
878.959	44.03
879.131	-15.36
879.303	-39.94
879.476	25.6
879.648	3.07
879.82	17.41
879.993	17.41
880.165	-31.74
880.337	3.07
880.509	52.22
880.681	-76.8
880.854	41.98
881.026	-5.12
881.198	115.71
881.37	-13.31
881.542	-7.17
881.714	3.07
881.886	25.6
882.058	-11.26
882.23	1.02
882.402	-62.46
882.574	17.41
882.746	89.09
882.918	50.18
883.09	44.03
883.262	29.7
883.434	-21.5
883.606	-3.07
883.778	11.26
883.95	-54.27
884.122	-27.65
884.293	-31.74
884.465	46.08
884.637	-31.74
884.809	-15.36
884.98	60.42
885.152	-7.17
885.324	44.03
885.496	-11.26
885.667	-7.17
885.839	50.18
886.011	27.65
886.182	-3.07
886.354	37.89
886.525	-15.36
886.697	15.36
886.869	35.84
887.04	-31.74
887.212	27.65
887.383	50.18
887.555	35.84
887.726	11.26
887.897	-15.36
888.069	35.84
888.24	29.7
888.412	5.12
888.583	-7.17
888.754	21.5
888.926	-48.13
889.097	-7.17
889.268	-62.46
889.44	-7.17
889.611	-11.26
889.782	-9.22
889.953	11.26
890.125	99.33
890.296	-35.84
890.467	58.37
890.638	-60.42
890.809	3.07
890.98	23.55
891.151	-7.17
891.323	11.26
891.494	-31.74
891.665	-89.09
891.836	9.22
892.007	-3.07
892.178	13.31
892.349	-9.22
892.52	-37.89
892.691	3.07
892.862	19.46
893.032	-37.89
893.203	9.22
893.374	29.7
893.545	-5.12
893.716	-9.22
893.887	27.65
894.057	25.6
894.228	-13.31
894.399	9.22
894.57	33.79
894.74	-35.84
894.911	19.46
895.082	-9.22
895.253	-78.85
895.423	3.07
895.594	50.18
895.764	41.98
895.935	-29.7
896.106	-29.7
896.276	-21.5
896.447	33.79
896.617	-21.5
896.788	-39.94
896.958	1.02
897.129	-78.85
897.299	-50.18
897.47	-54.27
897.64	39.94
897.81	3.07
897.981	-19.46
898.151	-27.65
898.322	9.22
898.492	-31.74
898.662	-11.26
898.832	-48.13
899.003	17.41
899.173	35.84
899.343	-23.55
899.513	-15.36
